Data from USB4F104151__41__13-05-15-645.txt Node

Date: Fri Mar 14 13:05:15 EDT 2025
User: louis
Spectrometer: USB4F10415
Trigger mode: 4
Integration Time (sec): 4.000000E-2
Scans to average: 1
Electric dark correction enabled: true
Nonlinearity correction enabled: false
Boxcar width: 0
XAxis mode: Wavelengths
Number of Pixels in Spectrum: 3648
>>>>>Begin Spectral Data<<<<<
178.204	-156.5
178.424	-156.5
178.644	-156.5
178.864	-174.93
179.084	-158.55
179.304	-50
179.524	5.29
179.744	-25.43
179.964	42.15
180.184	-50
180.404	11.43
180.624	74.92
180.844	1.19
181.064	-15.19
181.283	17.58
181.503	-17.24
181.723	5.29
181.943	-72.53
182.163	64.68
182.383	-17.24
182.602	7.34
182.822	-29.52
183.042	91.31
183.262	-29.52
183.482	74.92
183.701	27.82
183.921	42.15
184.141	-35.67
184.361	13.48
184.58	33.96
184.8	3.24
185.02	-0.85
185.239	60.59
185.459	-17.24
185.679	33.96
185.898	72.87
186.118	58.54
186.338	64.68
186.557	46.25
186.777	-0.85
186.997	-17.24
187.216	29.87
187.436	134.31
187.655	48.3
187.875	54.44
188.095	17.58
188.314	-13.14
188.534	36.01
188.753	-50
188.973	54.44
189.192	152.74
189.412	19.63
189.631	-31.57
189.851	19.63
190.07	91.31
190.29	-45.91
190.509	38.06
190.729	5.29
190.948	23.72
191.168	201.9
191.387	40.11
191.607	40.11
191.826	60.59
192.045	-11.09
192.265	40.11
192.484	60.59
192.704	38.06
192.923	-129.88
193.142	109.74
193.362	-7
193.581	50.35
193.8	38.06
194.02	31.91
194.239	27.82
194.458	68.78
194.678	3.24
194.897	-0.85
195.116	1.19
195.335	64.68
195.555	103.59
195.774	40.11
195.993	99.5
196.212	-45.91
196.432	-15.19
196.651	5.29
196.87	79.02
197.089	119.98
197.308	117.93
197.528	19.63
197.747	-68.44
197.966	31.91
198.185	148.65
198.404	-68.44
198.623	126.12
198.842	46.25
199.062	70.83
199.281	42.15
199.5	-13.14
199.719	19.63
199.938	93.35
200.157	-33.62
200.376	74.92
200.595	64.68
200.814	62.63
201.033	-13.14
201.252	-15.19
201.471	40.11
201.69	5.29
201.909	46.25
202.128	72.87
202.347	52.39
202.566	-25.43
202.785	7.34
203.004	-9.05
203.223	160.94
203.442	54.44
203.661	-19.29
203.879	9.39
204.098	72.87
204.317	-25.43
204.536	21.67
204.755	25.77
204.974	105.64
205.193	-2.9
205.411	144.55
205.63	44.2
205.849	60.59
206.068	68.78
206.287	42.15
206.505	109.74
206.724	-4.95
206.943	13.48
207.162	-7
207.381	5.29
207.599	23.72
207.818	-9.05
208.037	-31.57
208.255	46.25
208.474	3.24
208.693	-17.24
208.911	38.06
209.13	33.96
209.349	17.58
209.567	36.01
209.786	87.21
210.005	-33.62
210.223	54.44
210.442	5.29
210.661	1.19
210.879	-0.85
211.098	42.15
211.316	87.21
211.535	-11.09
211.753	21.67
211.972	38.06
212.191	50.35
212.409	-29.52
212.628	68.78
212.846	66.73
213.065	52.39
213.283	68.78
213.502	-39.76
213.72	105.64
213.938	-43.86
214.157	-11.09
214.375	44.2
214.594	79.02
214.812	58.54
215.031	23.72
215.249	1.19
215.467	17.58
215.686	111.78
215.904	105.64
216.122	-17.24
216.341	13.48
216.559	-21.33
216.778	42.15
216.996	66.73
217.214	21.67
217.432	36.01
217.651	-39.76
217.869	48.3
218.087	-4.95
218.306	-0.85
218.524	122.02
218.742	-29.52
218.96	29.87
219.179	52.39
219.397	21.67
219.615	42.15
219.833	15.53
220.051	1.19
220.27	46.25
220.488	29.87
220.706	13.48
220.924	-19.29
221.142	-60.24
221.36	66.73
221.578	21.67
221.796	19.63
222.015	76.97
222.233	3.24
222.451	107.69
222.669	-39.76
222.887	48.3
223.105	23.72
223.323	33.96
223.541	52.39
223.759	36.01
223.977	-41.81
224.195	62.63
224.413	66.73
224.631	13.48
224.849	3.24
225.067	25.77
225.285	7.34
225.503	7.34
225.721	-7
225.939	23.72
226.157	19.63
226.375	95.4
226.592	-7
226.81	60.59
227.028	52.39
227.246	76.97
227.464	-7
227.682	-13.14
227.9	70.83
228.117	36.01
228.335	101.55
228.553	-15.19
228.771	1.19
228.989	11.43
229.206	70.83
229.424	33.96
229.642	17.58
229.86	-60.24
230.077	99.5
230.295	27.82
230.513	64.68
230.731	42.15
230.948	95.4
231.166	113.83
231.384	-29.52
231.601	21.67
231.819	56.49
232.037	-54.1
232.254	-2.9
232.472	7.34
232.689	5.29
232.907	29.87
233.125	-7
233.342	-43.86
233.56	-17.24
233.777	68.78
233.995	38.06
234.213	79.02
234.43	21.67
234.648	5.29
234.865	-13.14
235.083	60.59
235.3	79.02
235.518	64.68
235.735	99.5
235.953	79.02
236.17	66.73
236.388	40.11
236.605	85.16
236.822	97.45
237.04	76.97
237.257	15.53
237.475	-19.29
237.692	62.63
237.909	-2.9
238.127	40.11
238.344	54.44
238.562	29.87
238.779	-54.1
238.996	13.48
239.214	103.59
239.431	72.87
239.648	-47.96
239.865	29.87
240.083	29.87
240.3	-11.09
240.517	9.39
240.735	-35.67
240.952	79.02
241.169	85.16
241.386	-13.14
241.603	-0.85
241.821	-52.05
242.038	27.82
242.255	56.49
242.472	-25.43
242.689	29.87
242.907	15.53
243.124	-11.09
243.341	-2.9
243.558	36.01
243.775	-27.48
243.992	-31.57
244.209	5.29
244.426	111.78
244.643	81.07
244.86	7.34
245.078	50.35
245.295	48.3
245.512	33.96
245.729	-50
245.946	31.91
246.163	128.17
246.38	46.25
246.597	42.15
246.814	13.48
247.031	29.87
247.248	-39.76
247.464	72.87
247.681	29.87
247.898	1.19
248.115	-25.43
248.332	-17.24
248.549	-7
248.766	83.11
248.983	134.31
249.2	89.26
249.417	52.39
249.633	-2.9
249.85	79.02
250.067	72.87
250.284	25.77
250.501	40.11
250.717	54.44
250.934	-50
251.151	11.43
251.368	40.11
251.585	15.53
251.801	21.67
252.018	-2.9
252.235	66.73
252.451	-15.19
252.668	1.19
252.885	105.64
253.102	42.15
253.318	97.45
253.535	-11.09
253.752	-7
253.968	17.58
254.185	11.43
254.401	13.48
254.618	-19.29
254.835	62.63
255.051	72.87
255.268	15.53
255.484	54.44
255.701	-17.24
255.917	29.87
256.134	-0.85
256.351	76.97
256.567	-82.77
256.784	40.11
257	13.48
257.217	-19.29
257.433	25.77
257.65	46.25
257.866	31.91
258.082	-2.9
258.299	-2.9
258.515	29.87
258.732	-41.81
258.948	29.87
259.165	93.35
259.381	56.49
259.597	23.72
259.814	-56.15
260.03	21.67
260.246	46.25
260.463	52.39
260.679	50.35
260.895	7.34
261.112	3.24
261.328	38.06
261.544	-47.96
261.761	85.16
261.977	38.06
262.193	-23.38
262.409	46.25
262.626	91.31
262.842	-0.85
263.058	7.34
263.274	-0.85
263.49	40.11
263.707	-39.76
263.923	7.34
264.139	-80.72
264.355	83.11
264.571	42.15
264.787	-2.9
265.004	-19.29
265.22	-11.09
265.436	44.2
265.652	-35.67
265.868	29.87
266.084	-2.9
266.3	33.96
266.516	5.29
266.732	13.48
266.948	64.68
267.164	66.73
267.38	72.87
267.596	74.92
267.812	113.83
268.028	27.82
268.244	5.29
268.46	1.19
268.676	5.29
268.892	91.31
269.108	17.58
269.324	-43.86
269.54	-9.05
269.756	119.98
269.972	-80.72
270.188	-0.85
270.403	9.39
270.619	29.87
270.835	-17.24
271.051	-17.24
271.267	-19.29
271.483	27.82
271.698	81.07
271.914	9.39
272.13	23.72
272.346	-7
272.562	33.96
272.777	87.21
272.993	23.72
273.209	11.43
273.425	62.63
273.64	29.87
273.856	62.63
274.072	64.68
274.287	17.58
274.503	-9.05
274.719	66.73
274.934	1.19
275.15	-125.78
275.366	-15.19
275.581	-13.14
275.797	72.87
276.012	21.67
276.228	54.44
276.444	48.3
276.659	105.64
276.875	29.87
277.09	58.54
277.306	21.67
277.521	13.48
277.737	-21.33
277.952	50.35
278.168	64.68
278.383	70.83
278.599	19.63
278.814	15.53
279.03	-7
279.245	64.68
279.461	1.19
279.676	72.87
279.892	-11.09
280.107	-58.2
280.322	-70.48
280.538	33.96
280.753	13.48
280.969	40.11
281.184	11.43
281.399	101.55
281.615	-0.85
281.83	46.25
282.045	13.48
282.26	-9.05
282.476	25.77
282.691	3.24
282.906	17.58
283.122	56.49
283.337	74.92
283.552	1.19
283.767	44.2
283.983	140.46
284.198	27.82
284.413	128.17
284.628	-15.19
284.843	36.01
285.058	56.49
285.274	109.74
285.489	44.2
285.704	48.3
285.919	19.63
286.134	-31.57
286.349	74.92
286.564	60.59
286.779	64.68
286.995	54.44
287.21	-25.43
287.425	7.34
287.64	-68.44
287.855	29.87
288.07	-23.38
288.285	62.63
288.5	52.39
288.715	66.73
288.93	25.77
289.145	19.63
289.36	38.06
289.575	-29.52
289.79	85.16
290.004	15.53
290.219	72.87
290.434	36.01
290.649	5.29
290.864	-9.05
291.079	66.73
291.294	54.44
291.509	-19.29
291.724	23.72
291.938	-4.95
292.153	48.3
292.368	13.48
292.583	3.24
292.798	52.39
293.012	91.31
293.227	81.07
293.442	27.82
293.657	58.54
293.871	124.07
294.086	46.25
294.301	109.74
294.516	23.72
294.73	13.48
294.945	-76.63
295.16	36.01
295.374	95.4
295.589	42.15
295.804	-50
296.018	-11.09
296.233	103.59
296.447	101.55
296.662	-0.85
296.877	38.06
297.091	58.54
297.306	-25.43
297.52	62.63
297.735	44.2
297.949	7.34
298.164	56.49
298.378	50.35
298.593	33.96
298.807	-37.72
299.022	1.19
299.236	42.15
299.451	40.11
299.665	66.73
299.88	25.77
300.094	-11.09
300.309	29.87
300.523	79.02
300.737	29.87
300.952	25.77
301.166	81.07
301.381	21.67
301.595	-11.09
301.809	62.63
302.024	-41.81
302.238	19.63
302.452	95.4
302.667	-17.24
302.881	117.93
303.095	83.11
303.309	54.44
303.524	-25.43
303.738	-27.48
303.952	40.11
304.166	38.06
304.381	-105.3
304.595	124.07
304.809	27.82
305.023	-7
305.237	-7
305.452	38.06
305.666	15.53
305.88	29.87
306.094	48.3
306.308	122.02
306.522	89.26
306.736	83.11
306.95	15.53
307.164	23.72
307.379	64.68
307.593	56.49
307.807	1.19
308.021	87.21
308.235	-17.24
308.449	13.48
308.663	97.45
308.877	130.22
309.091	-4.95
309.305	-7
309.519	-17.24
309.733	70.83
309.947	-37.72
310.161	48.3
310.374	46.25
310.588	38.06
310.802	17.58
311.016	1.19
311.23	9.39
311.444	-2.9
311.658	11.43
311.872	15.53
312.085	54.44
312.299	56.49
312.513	70.83
312.727	72.87
312.941	-41.81
313.154	23.72
313.368	31.91
313.582	5.29
313.796	50.35
314.009	40.11
314.223	83.11
314.437	42.15
314.651	38.06
314.864	23.72
315.078	-39.76
315.292	-21.33
315.505	31.91
315.719	70.83
315.933	-43.86
316.146	13.48
316.36	25.77
316.573	52.39
316.787	25.77
317.001	7.34
317.214	-17.24
317.428	38.06
317.641	64.68
317.855	-23.38
318.068	58.54
318.282	38.06
318.495	97.45
318.709	29.87
318.922	19.63
319.136	-11.09
319.349	25.77
319.563	-31.57
319.776	46.25
319.99	-33.62
320.203	15.53
320.417	38.06
320.63	44.2
320.843	38.06
321.057	-11.09
321.27	31.91
321.483	40.11
321.697	13.48
321.91	50.35
322.124	52.39
322.337	101.55
322.55	7.34
322.763	48.3
322.977	-9.05
323.19	33.96
323.403	-27.48
323.617	40.11
323.83	79.02
324.043	58.54
324.256	42.15
324.469	-21.33
324.683	7.34
324.896	17.58
325.109	58.54
325.322	44.2
325.535	-23.38
325.748	62.63
325.962	-2.9
326.175	66.73
326.388	62.63
326.601	9.39
326.814	-62.29
327.027	52.39
327.24	46.25
327.453	-64.34
327.666	64.68
327.879	79.02
328.092	54.44
328.305	3.24
328.518	97.45
328.731	42.15
328.944	54.44
329.157	46.25
329.37	58.54
329.583	107.69
329.796	107.69
330.009	1.19
330.222	64.68
330.435	38.06
330.648	1.19
330.861	-25.43
331.073	81.07
331.286	105.64
331.499	-17.24
331.712	52.39
331.925	13.48
332.138	11.43
332.35	72.87
332.563	-0.85
332.776	58.54
332.989	-27.48
333.202	38.06
333.414	42.15
333.627	44.2
333.84	42.15
334.053	-31.57
334.265	11.43
334.478	-17.24
334.691	42.15
334.903	107.69
335.116	40.11
335.329	46.25
335.541	66.73
335.754	74.92
335.966	1.19
336.179	46.25
336.392	29.87
336.604	21.67
336.817	87.21
337.029	-31.57
337.242	-17.24
337.454	25.77
337.667	-27.48
337.88	36.01
338.092	58.54
338.305	-7
338.517	62.63
338.729	40.11
338.942	60.59
339.154	29.87
339.367	5.29
339.579	70.83
339.792	42.15
340.004	87.21
340.217	-4.95
340.429	44.2
340.641	17.58
340.854	-35.67
341.066	-54.1
341.278	128.17
341.491	54.44
341.703	25.77
341.915	11.43
342.128	74.92
342.34	-31.57
342.552	-47.96
342.764	23.72
342.977	64.68
343.189	68.78
343.401	72.87
343.613	1.19
343.826	15.53
344.038	-17.24
344.25	40.11
344.462	-11.09
344.674	128.17
344.886	-0.85
345.099	54.44
345.311	60.59
345.523	40.11
345.735	9.39
345.947	79.02
346.159	9.39
346.371	-35.67
346.583	-43.86
346.795	56.49
347.007	122.02
347.219	19.63
347.431	29.87
347.643	72.87
347.855	36.01
348.067	64.68
348.279	-23.38
348.491	25.77
348.703	-7
348.915	17.58
349.127	-39.76
349.339	44.2
349.551	-2.9
349.763	76.97
349.975	119.98
350.187	-13.14
350.399	138.41
350.61	13.48
350.822	9.39
351.034	27.82
351.246	56.49
351.458	21.67
351.669	144.55
351.881	119.98
352.093	52.39
352.305	74.92
352.517	-19.29
352.728	1.19
352.94	27.82
353.152	46.25
353.363	-13.14
353.575	83.11
353.787	111.78
353.999	85.16
354.21	60.59
354.422	7.34
354.633	42.15
354.845	87.21
355.057	-72.53
355.268	1.19
355.48	74.92
355.692	-9.05
355.903	25.77
356.115	5.29
356.326	40.11
356.538	33.96
356.749	54.44
356.961	83.11
357.172	140.46
357.384	13.48
357.595	105.64
357.807	-43.86
358.018	40.11
358.23	-54.1
358.441	107.69
358.653	70.83
358.864	64.68
359.075	-4.95
359.287	58.54
359.498	3.24
359.709	60.59
359.921	19.63
360.132	72.87
360.344	68.78
360.555	23.72
360.766	107.69
360.977	97.45
361.189	62.63
361.4	-15.19
361.611	29.87
361.823	46.25
362.034	-19.29
362.245	21.67
362.456	46.25
362.667	70.83
362.879	5.29
363.09	-0.85
363.301	40.11
363.512	46.25
363.723	-19.29
363.935	62.63
364.146	95.4
364.357	3.24
364.568	33.96
364.779	-27.48
364.99	158.89
365.201	-13.14
365.412	93.35
365.623	-33.62
365.834	50.35
366.045	40.11
366.256	5.29
366.467	124.07
366.678	9.39
366.889	72.87
367.1	42.15
367.311	29.87
367.522	31.91
367.733	17.58
367.944	-2.9
368.155	-19.29
368.366	74.92
368.577	107.69
368.788	29.87
368.999	5.29
369.209	111.78
369.42	169.13
369.631	171.18
369.842	17.58
370.053	-13.14
370.264	140.46
370.474	3.24
370.685	-15.19
370.896	5.29
371.107	173.22
371.317	38.06
371.528	38.06
371.739	70.83
371.95	68.78
372.16	23.72
372.371	29.87
372.582	60.59
372.792	85.16
373.003	70.83
373.214	5.29
373.424	29.87
373.635	21.67
373.846	111.78
374.056	38.06
374.267	54.44
374.477	130.22
374.688	119.98
374.898	74.92
375.109	79.02
375.319	-21.33
375.53	50.35
375.74	27.82
375.951	3.24
376.161	62.63
376.372	70.83
376.582	15.53
376.793	21.67
377.003	19.63
377.214	17.58
377.424	11.43
377.635	29.87
377.845	36.01
378.055	95.4
378.266	15.53
378.476	17.58
378.686	124.07
378.897	54.44
379.107	42.15
379.317	85.16
379.528	144.55
379.738	72.87
379.948	52.39
380.158	42.15
380.369	68.78
380.579	111.78
380.789	103.59
380.999	52.39
381.21	109.74
381.42	81.07
381.63	81.07
381.84	46.25
382.05	38.06
382.261	119.98
382.471	93.35
382.681	5.29
382.891	91.31
383.101	76.97
383.311	17.58
383.521	-27.48
383.731	97.45
383.941	89.26
384.151	105.64
384.361	33.96
384.571	50.35
384.781	3.24
384.991	62.63
385.201	122.02
385.411	5.29
385.621	60.59
385.831	21.67
386.041	-4.95
386.251	31.91
386.461	42.15
386.671	-27.48
386.881	95.4
387.091	95.4
387.301	103.59
387.511	44.2
387.72	81.07
387.93	56.49
388.14	5.29
388.35	54.44
388.56	36.01
388.769	76.97
388.979	64.68
389.189	79.02
389.399	87.21
389.609	76.97
389.818	-15.19
390.028	46.25
390.238	109.74
390.447	1.19
390.657	70.83
390.867	40.11
391.076	-52.05
391.286	74.92
391.496	87.21
391.705	42.15
391.915	79.02
392.125	111.78
392.334	74.92
392.544	62.63
392.753	122.02
392.963	-2.9
393.172	83.11
393.382	38.06
393.591	165.03
393.801	-27.48
394.01	103.59
394.22	83.11
394.429	1.19
394.639	103.59
394.848	132.26
395.058	107.69
395.267	103.59
395.477	-17.24
395.686	89.26
395.895	87.21
396.105	134.31
396.314	70.83
396.524	31.91
396.733	56.49
396.942	79.02
397.152	115.88
397.361	136.36
397.57	68.78
397.78	58.54
397.989	68.78
398.198	189.61
398.407	36.01
398.617	40.11
398.826	46.25
399.035	193.7
399.244	132.26
399.453	15.53
399.663	128.17
399.872	62.63
400.081	56.49
400.29	154.79
400.499	119.98
400.708	103.59
400.917	44.2
401.127	40.11
401.336	25.77
401.545	111.78
401.754	64.68
401.963	119.98
402.172	160.94
402.381	21.67
402.59	132.26
402.799	154.79
403.008	146.6
403.217	158.89
403.426	165.03
403.635	111.78
403.844	169.13
404.053	117.93
404.262	122.02
404.471	169.13
404.68	185.51
404.888	111.78
405.097	132.26
405.306	169.13
405.515	214.18
405.724	165.03
405.933	156.84
406.142	113.83
406.35	193.7
406.559	201.9
406.768	179.37
406.977	246.95
407.185	201.9
407.394	310.44
407.603	152.74
407.812	162.98
408.02	165.03
408.229	222.38
408.438	199.85
408.646	156.84
408.855	193.7
409.064	226.47
409.272	193.7
409.481	230.57
409.69	257.19
409.898	251.05
410.107	240.81
410.315	353.45
410.524	218.28
410.733	359.59
410.941	328.87
411.15	326.82
411.358	461.99
411.567	343.21
411.775	414.88
411.984	343.21
412.192	513.19
412.401	445.6
412.609	494.76
412.818	449.7
413.026	466.08
413.234	521.38
413.443	533.67
413.651	504.99
413.86	490.66
414.068	517.28
414.276	677.02
414.485	609.44
414.693	607.39
414.901	726.18
415.11	646.3
415.318	623.78
415.526	603.3
415.734	748.7
415.943	789.66
416.151	818.33
416.359	748.7
416.567	791.71
416.776	804
416.984	1016.99
417.192	1062.04
417.4	922.78
417.608	926.88
417.817	937.12
418.025	1078.43
418.233	1232.02
418.441	1105.05
418.649	1053.85
418.857	1195.16
419.065	1305.75
419.273	1174.68
419.481	1254.55
419.689	1479.83
419.897	1402.01
420.105	1434.77
420.313	1488.02
420.521	1555.6
420.729	1645.71
420.937	1637.52
421.145	1651.86
421.353	1862.8
421.561	1862.8
421.769	1844.37
421.977	2010.25
422.185	2032.78
422.393	2000.01
422.601	2190.47
422.809	2116.75
423.017	2241.67
423.224	2266.25
423.432	2339.97
423.64	2434.18
423.848	2530.44
424.056	2444.42
424.263	2770.05
424.471	2667.65
424.679	2796.67
424.887	2999.42
425.094	2987.13
425.302	3050.62
425.51	2972.8
425.718	3245.18
425.925	3210.36
426.133	3396.73
426.341	3601.52
426.548	3701.87
426.756	3896.43
426.964	3865.71
427.171	3974.25
427.379	4088.94
427.586	4052.08
427.794	4346.98
428.001	4658.28
428.209	4758.63
428.417	4611.17
428.624	4938.85
428.832	5055.58
429.039	4863.07
429.247	4871.26
429.454	5559.38
429.662	5702.74
429.869	5325.91
430.076	5794.9
430.284	5616.72
430.491	5885.01
430.699	6335.56
430.906	6310.99
431.114	6333.51
431.321	6493.26
431.528	6671.43
431.736	7138.37
431.943	7515.19
432.15	6974.53
432.358	7306.3
432.565	7719.99
432.772	7656.5
432.979	8051.76
433.187	8137.77
433.394	8264.75
433.601	8858.66
433.808	8881.19
434.016	8707.11
434.223	9110.56
434.43	9819.16
434.637	9464.86
434.844	10026
435.052	10476.55
435.259	10433.55
435.466	10243.09
435.673	10261.52
435.88	10886.15
436.087	11373.57
436.294	11543.55
436.501	11082.75
436.708	11412.48
436.915	11815.93
437.122	12362.73
437.329	12424.17
437.537	12678.12
437.743	12907.49
437.95	12970.98
438.157	13628.38
438.364	13933.53
438.571	14011.35
438.778	14164.95
438.985	15250.37
439.192	14898.12
439.399	15197.12
439.606	15045.57
439.813	15475.65
440.02	16823.21
440.227	16260.02
440.433	16270.26
440.64	16968.62
440.847	16651.18
441.054	17066.92
441.261	18447.25
441.467	17965.98
441.674	18477.97
441.881	19010.44
442.088	19284.87
442.294	18920.33
442.501	19452.8
442.708	19747.71
442.914	20376.44
443.121	21361.51
443.328	20689.77
443.534	22063.96
443.741	21523.3
443.948	21197.67
444.154	23001.93
444.361	22895.44
444.568	23153.48
444.774	22989.64
444.981	23374.66
445.187	24329.02
445.394	25060.14
445.6	24359.73
445.807	26766.1
446.013	25908
446.22	26217.24
446.426	27423.5
446.633	27859.71
446.839	28281.6
447.046	27380.49
447.252	29014.77
447.459	29004.53
447.665	28975.86
447.871	30356.19
448.078	31392.46
448.284	30147.29
448.491	30657.24
448.697	32207.55
448.903	32682.68
449.11	32647.86
449.316	31969.99
449.522	32774.84
449.728	33546.92
449.935	33858.21
450.141	33923.75
450.347	34996.88
450.553	33493.68
450.76	34085.54
450.966	34951.83
451.172	35078.8
451.378	35660.43
451.584	34960.02
451.791	36072.07
451.997	36168.32
452.203	36473.47
452.409	36782.71
452.615	36283.01
452.821	35314.32
453.027	34523.8
453.233	36629.12
453.44	35031.7
453.646	35523.21
453.852	35787.4
454.058	36438.65
454.264	34919.06
454.47	36188.8
454.676	35052.18
454.882	36231.81
455.088	33272.49
455.294	33522.35
455.5	34431.65
455.705	34519.71
455.911	33331.89
456.117	32885.43
456.323	32119.49
456.529	30100.19
456.735	31855.3
456.941	31199.95
457.147	30706.39
457.352	29645.54
457.558	29254.38
457.764	29672.17
457.97	28812.02
458.176	28383.99
458.381	28252.92
458.587	26753.81
458.793	27026.19
458.999	25420.58
459.204	27267.85
459.41	26233.63
459.616	24855.34
459.821	24910.64
460.027	24642.35
460.233	24099.64
460.438	23352.13
460.644	23071.56
460.85	21959.52
461.055	22139.74
461.261	21859.17
461.466	20081.53
461.672	19448.71
461.878	20970.35
462.083	19518.34
462.289	19153.8
462.494	19022.73
462.7	18197.4
462.905	17660.83
463.111	18285.46
463.316	18097.05
463.522	18105.24
463.727	17830.81
463.932	17724.32
464.138	17851.29
464.343	17789.85
464.549	17011.62
464.754	17773.47
464.959	17646.49
465.165	17466.27
465.37	16796.59
465.575	16362.42
465.781	16751.53
465.986	16974.76
466.191	16675.76
466.397	16176.05
466.602	15598.52
466.807	15815.61
467.012	16176.05
467.218	16141.24
467.423	15381.44
467.628	15727.55
467.833	16372.66
468.038	15713.21
468.244	15217.6
468.449	15881.14
468.654	15414.21
468.859	15360.96
469.064	15229.89
469.269	14717.9
469.474	14949.32
469.679	15246.27
469.885	14771.15
470.09	14799.82
470.295	14777.29
470.5	14545.87
470.705	14511.05
470.91	14144.47
471.115	13886.42
471.32	14332.88
471.525	14310.35
471.73	13931.48
471.935	13491.16
472.139	13280.22
472.344	13284.32
472.549	13304.8
472.754	13124.58
472.959	12768.23
473.164	12495.85
473.369	12487.66
473.574	12901.35
473.778	12864.49
473.983	12733.42
474.188	12794.86
474.393	12205.04
474.598	12268.53
474.802	12219.38
475.007	11981.81
475.212	11963.38
475.417	11645.94
475.621	11703.29
475.826	11580.41
476.031	11308.03
476.235	11174.91
476.44	11465.72
476.645	11043.84
476.849	11099.14
477.054	11039.75
477.259	10832.9
477.463	10841.09
477.668	10535.95
477.872	10716.17
478.077	10359.82
478.282	10124.3
478.486	10103.82
478.691	10114.06
478.895	10013.71
479.1	10017.81
479.304	10216.46
479.509	9718.81
479.713	10028.05
479.918	9696.28
480.122	9475.1
480.326	9608.22
480.531	9434.14
480.735	9423.9
480.94	9266.21
481.144	9757.72
481.348	9473.05
481.553	9499.67
481.757	9016.35
481.961	9309.21
482.166	9581.59
482.37	9548.82
482.574	9085.98
482.778	9288.73
482.983	9389.08
483.187	9247.77
483.391	9405.47
483.595	9317.4
483.8	9077.79
484.004	9264.16
484.208	9417.75
484.412	9159.71
484.616	9374.75
484.821	9149.47
485.025	9055.26
485.229	9186.33
485.433	9362.46
485.637	9161.76
485.841	9368.6
486.045	9225.25
486.249	9288.73
486.453	9274.4
486.657	9311.26
486.861	9276.45
487.065	8887.33
487.269	9258.01
487.473	8854.56
487.677	9255.97
487.881	9311.26
488.085	9157.66
488.289	9425.95
488.493	9180.19
488.697	9196.57
488.901	9196.57
489.105	9159.71
489.309	9425.95
489.512	9331.74
489.716	9393.18
489.92	9368.6
490.124	9298.97
490.328	9532.44
490.531	9477.15
490.735	9552.92
490.939	9298.97
491.143	9182.24
491.346	9325.6
491.55	9774.1
491.754	9602.07
491.958	9638.94
492.161	9661.46
492.365	9696.28
492.569	9667.61
492.772	9671.7
492.976	9956.37
493.18	9827.35
493.383	10044.43
493.587	9927.7
493.79	10093.58
493.994	10095.63
494.197	10155.02
494.401	10251.28
494.605	10210.32
494.808	10249.23
495.012	10331.15
495.215	10499.08
495.419	10621.96
495.622	10556.43
495.825	10667.02
496.029	10640.39
496.232	11082.75
496.436	10955.78
496.639	11254.78
496.843	11099.14
497.046	11176.96
497.249	11535.35
497.453	11695.1
497.656	11514.87
497.859	11766.78
498.063	11781.11
498.266	11983.86
498.469	11901.94
498.673	11957.24
498.876	12383.21
499.079	12284.91
499.282	12295.15
499.485	12442.6
499.689	12835.81
499.892	12745.7
500.095	12932.07
500.298	13288.42
500.501	12911.59
500.705	13478.88
500.908	13259.74
501.111	13650.91
501.314	13872.09
501.517	13884.37
501.72	14033.88
501.923	13861.85
502.126	14205.91
502.329	14652.36
502.532	14695.37
502.735	14760.91
502.938	15193.03
503.141	15033.29
503.344	15342.53
503.547	15375.3
503.75	15457.21
503.953	15887.29
504.156	15963.06
504.359	16014.26
504.562	16210.87
504.765	16565.17
504.968	16622.51
505.17	16583.6
505.373	16604.08
505.576	17136.55
505.779	17478.56
505.982	17435.55
506.185	17832.86
506.387	17994.65
506.59	17922.97
506.793	18350.99
506.996	18334.61
507.198	18975.63
507.401	18508.69
507.604	18824.08
507.807	19413.89
508.009	19307.4
508.212	19592.06
508.415	19764.09
508.617	19997.56
508.82	20267.89
509.022	19719.04
509.225	20579.18
509.428	20837.23
509.63	21005.16
509.833	20976.49
510.035	21304.17
510.238	21367.65
510.44	21705.57
510.643	21832.54
510.845	22356.82
511.048	21834.59
511.25	22338.39
511.453	22592.34
511.655	23407.43
511.858	23147.34
512.06	23227.21
512.262	23450.44
512.465	23720.77
512.667	23890.75
512.87	24103.74
513.072	24363.83
513.274	24734.51
513.477	24931.12
513.679	25185.07
513.881	25418.53
514.084	25721.63
514.286	25852.7
514.488	25846.56
514.69	26446.62
514.893	26376.98
515.095	26649.36
515.297	27044.62
515.499	27226.89
515.701	27296.52
515.904	27724.55
516.106	27882.24
516.308	28244.73
516.51	28289.79
516.712	28291.83
516.914	28812.02
517.116	29070.06
517.318	29180.65
517.52	29532.9
517.722	29430.51
517.925	29995.74
518.127	30460.63
518.329	30280.41
518.531	30319.32
518.733	30753.49
518.935	31064.78
519.136	31187.66
519.338	32156.35
519.54	31611.59
519.742	31992.51
519.944	32266.94
520.146	32729.78
520.348	33069.75
520.55	32850.61
520.752	33419.95
520.954	33884.84
521.155	33698.47
521.357	34108.07
521.559	34386.59
521.761	34839.19
521.963	34618.01
522.164	34810.52
522.366	34787.99
522.568	35512.97
522.77	35715.72
522.971	36217.47
523.173	35668.62
523.375	35850.89
523.576	36340.35
523.778	36242.05
523.98	36827.77
524.181	36934.26
524.383	37147.25
524.584	37661.29
524.786	37909.1
524.988	37530.22
525.189	38089.32
525.391	38271.59
525.592	38621.79
525.794	38427.23
525.995	38662.75
526.197	38971.99
526.398	38679.13
526.6	39262.8
526.801	39420.5
527.003	39557.71
527.204	39576.14
527.406	39428.69
527.607	39991.88
527.808	40047.18
528.01	39723.6
528.211	40012.36
528.412	40653.37
528.614	40407.62
528.815	40313.41
529.016	41069.11
529.218	40704.57
529.419	40901.18
529.62	40714.81
529.822	40583.74
530.023	41062.97
530.224	41026.1
530.425	41019.96
530.626	40913.47
530.828	40880.7
531.029	41890.35
531.23	41290.29
531.431	41165.37
531.632	41566.77
531.833	41824.81
532.035	41810.48
532.236	41310.77
532.437	41982.51
532.638	42177.06
532.839	41697.84
533.04	42281.51
533.241	41609.78
533.442	42443.3
533.643	42019.37
533.844	42453.54
534.045	41990.7
534.246	41955.88
534.447	42449.44
534.648	42510.88
534.849	42400.29
535.05	42295.85
535.251	42301.99
535.451	42148.39
535.652	42363.43
535.853	42551.84
536.054	42000.94
536.255	42314.28
536.456	41927.21
536.657	42785.31
536.857	42600.99
537.058	42390.05
537.259	42945.05
537.46	42781.21
537.66	42529.31
537.861	42330.66
538.062	42328.61
538.263	42230.31
538.463	42336.8
538.664	42222.12
538.865	42650.14
539.065	42539.55
539.266	42332.71
539.466	42404.39
539.667	42021.42
539.868	42828.32
540.068	42410.53
540.269	42406.44
540.469	42500.64
540.67	42525.22
540.87	42617.38
541.071	42256.93
541.271	43014.68
541.472	42336.8
541.672	42166.82
541.873	42011.18
542.073	41804.33
542.274	42203.69
542.474	42099.24
542.675	42048.04
542.875	42521.12
543.075	42168.87
543.276	41814.57
543.476	42222.12
543.676	42328.61
543.877	42447.39
544.077	41964.07
544.277	41886.25
544.478	42005.03
544.678	42377.76
544.878	42560.03
545.078	41964.07
545.279	41818.67
545.479	42158.63
545.679	42279.46
545.879	42009.13
546.079	42256.93
546.28	41933.35
546.48	41501.23
546.68	42304.04
546.88	42390.05
547.08	41882.16
547.28	41939.5
547.48	41329.2
547.68	42115.62
547.88	42105.38
548.081	42068.52
548.281	41794.09
548.481	41732.65
548.681	42553.89
548.881	41828.91
549.081	42062.38
549.28	41892.4
549.48	42256.93
549.68	41771.57
549.88	42002.99
550.08	41869.87
550.28	41773.61
550.48	41677.36
550.68	42035.75
550.88	41853.48
551.08	41718.32
551.279	41712.17
551.479	41394.74
551.679	41785.9
551.879	41368.12
552.079	42052.14
552.278	41167.41
552.478	41488.95
552.678	41353.78
552.878	41677.36
553.077	41458.23
553.277	41101.88
553.477	41552.43
553.676	41603.63
553.876	41325.11
554.076	41155.13
554.275	40948.28
554.475	40802.88
554.674	41191.99
554.874	41208.37
555.074	41214.52
555.273	41148.98
555.473	41417.27
555.672	41138.74
555.872	40903.23
556.071	41101.88
556.271	41351.73
556.47	41015.86
556.67	40768.06
556.869	40796.73
557.068	41280.05
557.268	40395.33
557.467	40649.28
557.667	40510.02
557.866	40884.79
558.065	40610.37
558.265	40378.95
558.464	40192.58
558.663	40544.83
558.863	40364.61
559.062	40798.78
559.261	40008.26
559.461	40540.74
559.66	39850.57
559.859	39916.11
560.058	39604.81
560.258	39977.54
560.457	39694.92
560.656	39774.8
560.855	39481.94
561.054	39846.47
561.253	39494.22
561.453	39995.98
561.652	39799.37
561.851	39451.22
562.05	39375.44
562.249	39357.01
562.448	39871.05
562.647	39115.35
562.846	39314
563.045	39107.16
563.244	39066.2
563.443	39422.55
563.642	38804.06
563.841	39238.23
564.04	38904.41
564.239	38922.84
564.438	38380.13
564.637	38625.89
564.836	38660.7
565.035	37999.21
565.234	38931.03
565.432	38353.51
565.631	38259.3
565.83	38236.77
566.029	37962.34
566.228	38056.55
566.427	37628.52
566.625	37409.39
566.824	37327.47
567.023	37907.05
567.222	37306.99
567.42	37767.79
567.619	37782.12
567.818	37438.06
568.016	37350
568.215	37306.99
568.414	37247.6
568.612	37479.02
568.811	37112.44
569.01	37094
569.208	36481.66
569.407	37010.04
569.605	36618.88
569.804	37007.99
570.002	36426.37
570.201	36545.15
570.4	36381.31
570.598	36145.8
570.797	35998.34
570.995	36448.89
571.193	35715.72
571.392	36272.77
571.59	35529.36
571.789	35383.95
571.987	35678.86
572.186	35324.56
572.384	35371.66
572.582	35771.02
572.781	35494.54
572.979	34968.21
573.177	34644.63
573.376	35027.6
573.574	34871.96
573.772	35187.35
573.971	35058.32
574.169	34552.48
574.367	34296.48
574.565	34488.99
574.763	34216.61
574.962	34405.02
575.16	34103.97
575.358	34394.78
575.556	33897.13
575.754	34319.01
575.952	33643.18
576.151	33890.98
576.349	33350.32
576.547	33647.27
576.745	33452.72
576.943	33575.59
577.141	33680.04
577.339	33565.35
577.537	33137.33
577.735	33327.79
577.933	32979.64
578.131	33018.55
578.329	32821.94
578.527	32600.76
578.725	32887.48
578.923	32715.45
579.121	32645.82
579.319	32541.37
579.516	32592.57
579.714	32606.91
579.912	32367.29
580.11	32268.99
580.308	32004.8
580.506	32344.77
580.704	31595.21
580.901	31914.69
581.099	31857.35
581.297	31759.05
581.495	31587.02
581.692	31625.93
581.89	31449.8
582.088	31779.53
582.285	31326.92
582.483	31322.83
582.681	31107.79
582.878	31091.41
583.076	30647
583.274	31126.22
583.471	30747.35
583.669	30841.56
583.866	30391
584.064	30651.09
584.262	30440.15
584.459	30636.76
584.657	30259.93
584.854	30397.15
585.052	29831.91
585.249	30186.21
585.447	30165.73
585.644	30079.71
585.841	29727.46
586.039	30194.4
586.236	29700.84
586.434	29508.33
586.631	29725.41
586.828	29504.23
587.026	29430.51
587.223	29393.64
587.42	28973.81
587.618	29385.45
587.815	29063.92
588.012	28945.14
588.21	28932.85
588.407	29063.92
588.604	28627.7
588.801	28328.7
588.999	28603.13
589.196	28529.4
589.393	28590.84
589.59	28134.14
589.787	28230.4
589.984	28357.37
590.182	28052.22
590.379	28148.48
590.576	27812.61
590.773	28263.16
590.97	27767.55
591.167	27779.84
591.364	27560.71
591.561	27890.43
591.758	27568.9
591.955	27235.08
592.152	27370.25
592.349	26911.5
592.546	27124.49
592.743	27228.94
592.94	26866.45
593.137	27126.54
593.334	27333.39
593.531	26768.15
593.727	26778.39
593.924	26813.2
594.121	26436.38
594.318	26565.4
594.515	26231.58
594.712	26735.38
594.908	26131.23
595.105	26305.31
595.302	25989.92
595.499	26110.75
595.696	26037.02
595.892	25619.24
596.089	25682.72
596.286	25756.45
596.482	25967.39
596.679	25674.53
596.876	25969.44
597.072	25514.79
597.269	25404.2
597.466	24994.61
597.662	25258.79
597.859	25162.54
598.055	25180.97
598.252	24875.82
598.448	24787.76
598.645	24943.41
598.841	24587.06
599.038	24781.62
599.234	24783.66
599.431	24388.41
599.627	24367.93
599.824	24542
600.02	24298.3
600.217	24564.53
600.413	24322.87
600.609	24056.64
600.806	24361.78
601.002	24199.99
601.198	24003.39
601.395	23905.09
601.591	23733.06
601.787	23819.07
601.984	23530.31
602.18	23911.23
602.376	23501.64
602.572	23411.53
602.769	23485.25
602.965	23118.67
603.161	23472.96
603.357	23102.28
603.553	22936.4
603.75	23249.74
603.946	23040.84
604.142	23020.36
604.338	22475.6
604.534	22926.16
604.73	22385.49
604.926	22481.75
605.122	22586.19
605.318	22340.44
605.514	22303.57
605.71	22281.05
605.906	22637.39
606.102	22207.32
606.298	22469.46
606.494	22279
606.69	21848.93
606.886	21955.42
607.082	21791.58
607.278	21998.43
607.474	21816.16
607.67	21756.77
607.866	21654.37
608.062	21928.8
608.257	21547.87
608.453	21934.94
608.649	21787.49
608.845	21418.85
609.041	21447.52
609.236	21482.34
609.432	21463.91
609.628	21336.93
609.824	21267.3
610.019	21136.23
610.215	21345.12
610.411	21351.27
610.606	20798.32
610.802	21218.15
610.998	21078.89
611.193	21121.9
611.389	20943.72
611.584	20923.24
611.78	20767.6
611.976	21009.26
612.171	20890.48
612.367	20497.27
612.562	20665.2
612.758	20325.24
612.953	20366.2
613.149	20536.18
613.344	20378.48
613.539	20798.32
613.735	20388.72
613.93	20331.38
614.126	20231.03
614.321	20632.43
614.517	20286.33
614.712	20226.93
614.907	20165.49
615.103	20368.24
615.298	20190.07
615.493	20097.91
615.688	19786.62
615.884	20059
616.079	19870.59
616.274	20046.71
616.47	19850.11
616.665	19975.03
616.86	19895.16
617.055	19358.6
617.25	19612.54
617.445	19606.4
617.641	19274.63
617.836	19616.64
618.031	19301.25
618.226	19649.41
618.421	19440.51
618.616	19547.01
618.811	19014.54
619.006	19350.4
619.201	18791.31
619.396	19084.17
619.591	18891.66
619.786	19035.02
619.981	18576.27
620.176	18844.56
620.371	18611.09
620.566	18437.01
620.761	18752.4
620.956	18430.87
621.151	18627.47
621.346	18305.94
621.541	18144.15
621.735	18336.66
621.93	18064.28
622.125	17931.16
622.32	17660.83
622.515	17775.52
622.709	17505.18
622.904	17812.38
623.099	17578.91
623.294	17976.22
623.488	17157.03
623.683	17521.57
623.878	17083.3
624.072	17449.89
624.267	17085.35
624.462	16956.33
624.656	16739.24
624.851	16939.94
625.046	16329.65
625.24	16585.65
625.435	16470.96
625.629	16487.34
625.824	16333.75
626.018	16239.54
626.213	16081.85
626.407	16167.86
626.602	15735.74
626.796	16153.52
626.991	15737.79
627.185	15961.02
627.38	15674.3
627.574	15467.45
627.768	15582.14
627.963	15571.9
628.157	15182.79
628.352	15270.85
628.546	15147.97
628.74	15123.4
628.935	14896.07
629.129	14846.92
629.323	14818.25
629.517	14687.18
629.712	14570.44
629.906	14787.53
630.1	14533.58
630.294	14523.34
630.489	14218.19
630.683	14181.33
630.877	14158.8
631.071	14250.96
631.265	14191.57
631.459	14070.74
631.653	14037.97
631.848	13855.7
632.042	13525.98
632.236	13755.35
632.43	13689.82
632.624	13671.39
632.818	13382.62
633.012	13546.46
633.206	13235.17
633.4	13315.04
633.594	13087.71
633.788	13038.56
633.982	13112.29
634.176	13312.99
634.369	12835.81
634.563	12940.26
634.757	12762.09
634.951	12899.3
635.145	12983.27
635.339	12612.59
635.533	12502
635.726	12831.72
635.92	12307.44
636.114	12436.46
636.308	12280.82
636.501	12336.11
636.695	12289.01
636.889	12073.97
637.083	12018.68
637.276	11817.97
637.47	11918.32
637.664	11797.49
637.857	12076.02
638.051	11789.3
638.244	11621.37
638.438	11588.6
638.632	11633.66
638.825	11211.78
639.019	11500.54
639.212	11275.26
639.406	11357.18
639.599	11412.48
639.793	11435
639.986	11058.18
640.18	11213.82
640.373	10976.26
640.567	10972.16
640.76	11062.27
640.954	10974.21
641.147	10822.66
641.34	10779.65
641.534	10687.5
641.727	10628.1
641.92	10757.13
642.114	10544.14
642.307	10353.68
642.5	10621.96
642.694	10155.02
642.887	10032.15
643.08	10451.98
643.273	10234.89
643.467	10165.26
643.66	10081.3
643.853	9907.22
644.046	9974.8
644.239	10099.73
644.432	9849.88
644.626	9499.67
644.819	9839.64
645.012	9710.61
645.205	9935.89
645.398	9729.05
645.591	9485.34
645.784	9554.97
645.977	9376.8
646.17	9518.11
646.363	9262.11
646.556	9298.97
646.749	9266.21
646.942	9249.82
647.135	9337.88
647.328	9108.51
647.521	9147.42
647.714	9008.16
647.907	9018.4
648.099	8963.11
648.292	8985.63
648.485	8877.09
648.678	8811.56
648.871	8715.3
649.064	8797.22
649.256	8528.94
649.449	8682.53
649.642	8660.01
649.835	8541.22
650.027	8541.22
650.22	8412.2
650.413	8420.39
650.605	8375.34
650.798	8408.11
650.991	8246.32
651.183	8254.51
651.376	8277.04
651.568	8274.99
651.761	8037.42
651.954	8000.56
652.146	8109.1
652.339	7975.98
652.531	7924.79
652.724	8041.52
652.916	7967.79
653.109	7830.58
653.301	7918.64
653.494	7924.79
653.686	7756.85
653.879	7771.19
654.071	7500.86
654.263	7699.51
654.456	7740.47
654.648	7629.88
654.84	7644.21
655.033	7410.75
655.225	7371.83
655.417	7349.31
655.61	7398.46
655.802	7498.81
655.994	7164.99
656.186	7197.76
656.379	7033.92
656.571	7121.98
656.763	6898.75
656.955	7005.25
657.148	7140.41
657.34	6931.52
657.532	6878.27
657.724	6943.81
657.916	6927.42
658.108	6982.72
658.3	6911.04
658.492	6822.98
658.684	6622.28
658.876	6870.08
659.068	6732.87
659.26	6704.2
659.452	6597.7
659.644	6704.2
659.836	6607.94
660.028	6659.14
660.22	6460.49
660.412	6470.73
660.604	6548.55
660.796	6511.69
660.988	6478.92
661.18	6341.71
661.372	6243.4
661.563	6304.84
661.755	6267.98
661.947	6280.27
662.139	6208.59
662.331	6265.93
662.522	6083.66
662.714	6112.33
662.906	5968.98
663.097	6059.09
663.289	5991.5
663.481	5981.26
663.673	6153.29
663.864	5938.26
664.056	5880.91
664.247	5860.43
664.439	5954.64
664.631	5936.21
664.822	5842
665.014	5770.32
665.205	5819.47
665.397	5829.71
665.588	5811.28
665.78	5717.08
665.971	5637.2
666.163	5696.6
666.354	5571.67
666.546	5577.81
666.737	5633.11
666.929	5395.54
667.12	5633.11
667.311	5575.77
667.503	5483.61
667.694	5485.65
667.885	5352.54
668.077	5512.28
668.268	5524.57
668.459	5407.83
668.651	5456.98
668.842	5469.27
669.033	5293.15
669.224	5307.48
669.416	5356.63
669.607	5315.67
669.798	5407.83
669.989	5309.53
670.18	5313.63
670.371	5301.34
670.563	5178.46
670.754	5090.4
670.945	5241.95
671.136	5243.99
671.327	4963.42
671.518	5168.22
671.709	5239.9
671.9	5258.33
672.091	5246.04
672.282	5231.71
672.473	5043.29
672.664	5043.29
672.855	5018.72
673.046	5045.34
673.237	5162.08
673.428	5129.31
673.619	5106.78
673.809	5012.57
674	4992.09
674.191	5098.59
674.382	4871.26
674.573	4813.92
674.764	5051.49
674.954	4936.8
675.145	4930.66
675.336	4795.49
675.527	4949.09
675.717	4901.98
675.908	4826.21
676.099	4760.67
676.289	4822.11
676.48	4783.2
676.671	4697.19
676.861	4727.91
677.052	4969.57
677.243	4748.39
677.433	4715.62
677.624	4854.88
677.814	4768.87
678.005	4781.15
678.195	4846.69
678.386	4674.66
678.576	4707.43
678.767	4785.25
678.957	4635.75
679.148	4854.88
679.338	4840.54
679.529	4834.4
679.719	4744.29
679.909	4924.51
680.1	4772.96
680.29	4578.4
680.481	4666.47
680.671	4787.3
680.861	4863.07
681.052	4785.25
681.242	4654.18
681.432	4756.58
681.622	4785.25
681.813	4719.71
682.003	4736.1
682.193	4394.09
682.383	4658.28
682.573	4772.96
682.764	4660.32
682.954	4717.67
683.144	4615.27
683.334	4623.46
683.524	4709.47
683.714	4740.19
683.904	4617.32
684.094	4738.15
684.284	4672.61
684.474	4625.51
684.664	4637.8
684.854	4566.12
685.044	4467.81
685.234	4566.12
685.424	4516.97
685.614	4465.77
685.804	4430.95
685.994	4670.56
686.184	4609.12
686.374	4588.64
686.564	4363.37
686.753	4484.2
686.943	4260.97
687.133	4478.05
687.323	4340.84
687.513	4338.79
687.702	4365.42
687.892	4211.82
688.082	4222.06
688.272	4346.98
688.461	4205.67
688.651	4265.07
688.841	4273.26
689.03	4240.49
689.22	4217.96
689.41	4267.11
689.599	4054.12
689.789	4148.33
689.979	4007.02
690.168	3961.97
690.358	4195.43
690.547	3982.45
690.737	4115.56
690.926	3847.28
691.116	3914.86
691.305	3966.06
691.495	3953.77
691.684	3785.84
691.874	3859.57
692.063	3863.66
692.252	3839.09
692.442	3785.84
692.631	3699.83
692.82	3880.05
693.01	3761.27
693.199	3812.46
693.388	3691.63
693.578	3775.6
693.767	3732.59
693.956	3746.93
694.146	3738.74
694.335	3613.81
694.524	3757.17
694.713	3699.83
694.902	3579
695.092	3601.52
695.281	3677.3
695.47	3550.32
695.659	3572.85
695.848	3425.4
696.037	3603.57
696.226	3560.56
696.415	3505.27
696.604	3593.33
696.793	3574.9
696.982	3452.02
697.171	3540.08
697.36	3611.76
697.549	3572.85
697.738	3445.88
697.927	3517.56
698.116	3439.73
698.305	3579
698.494	3591.28
698.683	3417.21
698.872	3652.72
699.061	3382.39
699.25	3544.18
699.438	3449.97
699.627	3542.13
699.816	3472.5
700.005	3521.65
700.193	3452.02
700.382	3519.6
700.571	3378.3
700.76	3492.98
700.948	3619.96
701.137	3417.21
701.326	3431.54
701.514	3486.84
701.703	3439.73
701.892	3343.48
702.08	3617.91
702.269	3517.56
702.457	3423.35
702.646	3339.38
702.834	3417.21
703.023	3398.77
703.212	3546.23
703.4	3445.88
703.589	3304.57
703.777	3501.17
703.965	3327.1
704.154	3417.21
704.342	3370.1
704.531	3331.19
704.719	3335.29
704.907	3464.31
705.096	3339.38
705.284	3304.57
705.472	3433.59
705.661	3425.4
705.849	3433.59
706.037	3445.88
706.226	3470.45
706.414	3490.93
706.602	3345.53
706.79	3546.23
706.979	3343.48
707.167	3396.73
707.355	3406.97
707.543	3495.03
707.731	3398.77
707.919	3357.82
708.107	3441.78
708.296	3447.93
708.484	3310.71
708.672	3300.47
708.86	3443.83
709.048	3415.16
709.236	3425.4
709.424	3368.06
709.612	3568.76
709.8	3331.19
709.988	3501.17
710.176	3423.35
710.364	3552.37
710.551	3439.73
710.739	3486.84
710.927	3562.61
711.115	3495.03
711.303	3482.74
711.491	3527.8
711.679	3388.53
711.866	3398.77
712.054	3445.88
712.242	3409.01
712.43	3599.48
712.617	3488.89
712.805	3431.54
712.993	3480.69
713.181	3425.4
713.368	3431.54
713.556	3423.35
713.744	3542.13
713.931	3662.96
714.119	3622
714.306	3497.08
714.494	3535.99
714.682	3566.71
714.869	3468.41
715.057	3544.18
715.244	3437.69
715.432	3738.74
715.619	3576.95
715.807	3589.24
715.994	3546.23
716.182	3535.99
716.369	3587.19
716.556	3560.56
716.744	3597.43
716.931	3562.61
717.119	3769.46
717.306	3665.01
717.493	3529.84
717.681	3656.82
717.868	3636.34
718.055	3646.58
718.242	3583.09
718.43	3687.54
718.617	3636.34
718.804	3576.95
718.991	3540.08
719.179	3742.83
719.366	3769.46
719.553	3619.96
719.74	3679.35
719.927	3650.67
720.114	3593.33
720.301	3572.85
720.488	3548.28
720.676	3650.67
720.863	3632.24
721.05	3650.67
721.237	3685.49
721.424	3751.03
721.611	3636.34
721.798	3669.11
721.985	3607.67
722.172	3540.08
722.358	3658.87
722.545	3849.33
722.732	3658.87
722.919	3679.35
723.106	3763.31
723.293	3796.08
723.48	3650.67
723.667	3646.58
723.853	3662.96
724.04	3800.18
724.227	3878
724.414	3654.77
724.6	3677.3
724.787	3814.51
724.974	3812.46
725.161	3775.6
725.347	3591.28
725.534	3648.63
725.72	3767.41
725.907	3828.85
726.094	3814.51
726.28	3683.44
726.467	3595.38
726.653	3662.96
726.84	3705.97
727.027	3812.46
727.213	3683.44
727.4	3755.12
727.586	3820.66
727.773	3734.64
727.959	3609.72
728.145	4004.97
728.332	3683.44
728.518	3665.01
728.705	3812.46
728.891	3726.45
729.077	3615.86
729.264	3693.68
729.45	3687.54
729.636	3808.37
729.823	3773.55
730.009	3855.47
730.195	3806.32
730.382	3849.33
730.568	3738.74
730.754	3880.05
730.94	3777.65
731.126	3955.82
731.313	3757.17
731.499	3773.55
731.685	3857.52
731.871	3808.37
732.057	3845.23
732.243	3820.66
732.429	3773.55
732.615	3722.35
732.801	3791.98
732.987	3771.51
733.173	3886.19
733.359	3744.88
733.545	3626.1
733.731	3742.83
733.917	3755.12
734.103	3753.07
734.289	3826.8
734.475	3781.74
734.661	3966.06
734.847	3890.29
735.033	3816.56
735.219	3886.19
735.404	3712.11
735.59	3759.22
735.776	3656.82
735.962	3812.46
736.148	3667.06
736.333	3847.28
736.519	3794.03
736.705	3730.55
736.89	3798.13
737.076	3710.07
737.262	3667.06
737.447	3576.95
737.633	3591.28
737.819	3839.09
738.004	3718.26
738.19	3683.44
738.375	3617.91
738.561	3650.67
738.747	3622
738.932	3654.77
739.118	3619.96
739.303	3542.13
739.489	3765.36
739.674	3622
739.859	3613.81
740.045	3650.67
740.23	3683.44
740.416	3589.24
740.601	3607.67
740.786	3523.7
740.972	3505.27
741.157	3560.56
741.342	3544.18
741.528	3566.71
741.713	3497.08
741.898	3507.32
742.084	3507.32
742.269	3495.03
742.454	3353.72
742.639	3519.6
742.824	3347.58
743.01	3423.35
743.195	3509.37
743.38	3384.44
743.565	3355.77
743.75	3402.87
743.935	3398.77
744.12	3353.72
744.305	3341.43
744.49	3210.36
744.675	3378.3
744.86	3386.49
745.045	3325.05
745.23	3243.13
745.415	3206.27
745.6	3323
745.785	3239.03
745.97	3259.51
746.155	3208.31
746.34	3155.07
746.525	3161.21
746.71	3226.75
746.895	3236.99
747.079	3191.93
747.264	3157.11
747.449	3177.59
747.634	3015.8
747.819	3107.96
748.003	2985.09
748.188	2980.99
748.373	2927.74
748.557	2921.6
748.742	2978.94
748.927	2956.41
749.111	2931.84
749.296	2917.5
749.481	2966.65
749.665	2950.27
749.85	2741.38
750.034	2774.14
750.219	2798.72
750.404	2841.73
750.588	2716.8
750.773	2802.82
750.957	2794.62
751.141	2724.99
751.326	2847.87
751.51	2753.66
751.695	2710.66
751.879	2688.13
752.064	2675.84
752.248	2669.7
752.432	2667.65
752.617	2671.75
752.801	2679.94
752.985	2540.68
753.17	2534.53
753.354	2522.24
753.538	2569.35
753.722	2497.67
753.907	2497.67
754.091	2356.36
754.275	2481.28
754.459	2423.94
754.643	2360.45
754.828	2421.89
755.012	2192.52
755.196	2288.78
755.38	2315.4
755.564	2288.78
755.748	2180.23
755.932	2237.58
756.116	2296.97
756.3	2354.31
756.484	2157.71
756.668	2161.8
756.852	2073.74
757.036	2167.95
757.22	2155.66
757.404	2094.22
757.588	2094.22
757.772	2147.47
757.956	2000.01
758.14	2139.27
758.323	2090.12
758.507	2040.97
758.691	1914
758.875	2086.03
759.059	2059.4
759.242	1975.44
759.426	1914
759.61	1954.96
759.794	1883.28
759.977	1989.77
760.161	1907.85
760.345	2012.3
760.528	2002.06
760.712	1922.19
760.895	1914
761.079	1877.13
761.263	1793.17
761.446	1809.55
761.63	1838.22
761.813	1893.52
761.997	1803.41
762.18	1791.12
762.364	1746.06
762.547	1662.1
762.731	1815.69
762.914	1744.02
763.098	1797.26
763.281	1791.12
763.464	1725.58
763.648	1688.72
763.831	1784.98
764.015	1707.15
764.198	1668.24
764.381	1737.87
764.564	1789.07
764.748	1768.59
764.931	1629.33
765.114	1729.68
765.297	1682.58
765.481	1557.65
765.664	1594.51
765.847	1647.76
766.03	1668.24
766.213	1639.57
766.397	1692.82
766.58	1600.66
766.763	1578.13
766.946	1533.08
767.129	1496.21
767.312	1434.77
767.495	1508.5
767.678	1467.54
767.861	1531.03
768.044	1488.02
768.227	1533.08
768.41	1627.28
768.593	1475.73
768.776	1512.6
768.959	1496.21
769.142	1526.93
769.324	1414.29
769.507	1440.92
769.69	1475.73
769.873	1447.06
770.056	1571.99
770.239	1395.86
770.421	1430.68
770.604	1459.35
770.787	1463.44
770.97	1477.78
771.152	1334.42
771.335	1381.53
771.518	1315.99
771.7	1340.57
771.883	1385.62
772.066	1342.61
772.248	1402.01
772.431	1375.38
772.613	1330.33
772.796	1272.98
772.978	1238.17
773.161	1361.05
773.343	1184.92
773.526	1289.37
773.708	1203.35
773.891	1264.79
774.073	1250.46
774.256	1297.56
774.438	1318.04
774.621	1203.35
774.803	1272.98
774.985	1252.5
775.168	1270.94
775.35	1078.43
775.532	1209.5
775.715	1246.36
775.897	1154.2
776.079	1211.54
776.261	1133.72
776.444	1139.87
776.626	1135.77
776.808	1141.91
776.99	1105.05
777.173	1168.54
777.355	1047.71
777.537	1113.24
777.719	1154.2
777.901	1062.04
778.083	982.17
778.265	980.12
778.447	1148.06
778.629	973.98
778.811	957.6
778.993	1096.86
779.175	976.03
779.357	881.82
779.539	912.54
779.721	1014.94
779.903	988.32
780.085	959.64
780.267	990.36
780.449	928.92
780.631	1008.8
780.812	1019.04
780.994	902.3
781.176	875.68
781.358	928.92
781.54	826.53
781.721	820.38
781.903	869.53
782.085	918.68
782.267	904.35
782.448	830.62
782.63	840.86
782.812	867.49
782.993	849.05
783.175	756.9
783.357	785.57
783.538	801.95
783.72	826.53
783.901	881.82
784.083	810.14
784.264	824.48
784.446	709.79
784.627	748.7
784.809	781.47
784.99	797.85
785.172	695.46
785.353	670.88
785.535	672.93
785.716	744.61
785.897	707.74
786.079	634.02
786.26	670.88
786.441	785.57
786.623	709.79
786.804	648.35
786.985	691.36
787.167	687.26
787.348	742.56
787.529	660.64
787.71	681.12
787.891	695.46
788.073	646.3
788.254	634.02
788.435	699.55
788.616	644.26
788.797	570.53
788.978	613.54
789.159	552.1
789.34	648.35
789.522	664.74
789.703	648.35
789.884	617.63
790.065	662.69
790.246	695.46
790.427	617.63
790.607	726.18
790.788	617.63
790.969	578.72
791.15	591.01
791.331	470.18
791.512	568.48
791.693	558.24
791.874	537.76
792.054	617.63
792.235	562.34
792.416	566.43
792.597	531.62
792.778	519.33
792.958	474.28
793.139	656.54
793.32	494.76
793.5	412.84
793.681	586.91
793.862	533.67
794.042	476.32
794.223	402.6
794.404	488.61
794.584	400.55
794.765	431.27
794.945	484.52
795.126	566.43
795.306	570.53
795.487	433.32
795.667	433.32
795.848	414.88
796.028	459.94
796.209	441.51
796.389	390.31
796.57	431.27
796.75	466.08
796.93	457.89
797.111	425.12
797.291	418.98
797.471	408.74
797.652	445.6
797.832	406.69
798.012	439.46
798.192	447.65
798.373	431.27
798.553	423.08
798.733	468.13
798.913	431.27
799.093	423.08
799.274	433.32
799.454	427.17
799.634	384.16
799.814	392.36
799.994	410.79
800.174	425.12
800.354	332.97
800.534	349.35
800.714	337.06
800.894	318.63
801.074	384.16
801.254	279.72
801.434	449.7
801.614	400.55
801.794	320.68
801.974	1369.24
802.154	371.88
802.334	423.08
802.514	242.85
802.693	363.69
802.873	392.36
803.053	382.12
803.233	371.88
803.413	474.28
803.592	314.53
803.772	322.73
803.952	367.78
804.131	316.58
804.311	361.64
804.491	402.6
804.67	349.35
804.85	271.53
805.03	308.39
805.209	373.92
805.389	308.39
805.568	300.2
805.748	345.25
805.928	296.1
806.107	341.16
806.287	277.67
806.466	359.59
806.646	341.16
806.825	365.73
807.004	306.34
807.184	326.82
807.363	269.48
807.543	316.58
807.722	335.01
807.901	349.35
808.081	349.35
808.26	189.61
808.439	275.62
808.619	277.67
808.798	273.57
808.977	308.39
809.156	421.03
809.336	332.97
809.515	277.67
809.694	171.18
809.873	212.14
810.052	265.38
810.231	341.16
810.411	269.48
810.59	302.25
810.769	287.91
810.948	332.97
811.127	169.13
811.306	281.77
811.485	169.13
811.664	298.15
811.843	208.04
812.022	242.85
812.201	275.62
812.38	234.66
812.559	220.33
812.737	253.09
812.916	216.23
813.095	169.13
813.274	269.48
813.453	255.14
813.632	214.18
813.811	285.86
813.989	154.79
814.168	285.86
814.347	224.42
814.526	216.23
814.704	238.76
814.883	201.9
815.062	177.32
815.24	197.8
815.419	265.38
815.598	181.42
815.776	189.61
815.955	175.27
816.133	189.61
816.312	179.37
816.49	152.74
816.669	271.53
816.847	267.43
817.026	146.6
817.204	205.99
817.383	189.61
817.561	158.89
817.74	169.13
817.918	222.38
818.097	144.55
818.275	179.37
818.453	160.94
818.632	246.95
818.81	205.99
818.988	154.79
819.167	144.55
819.345	140.46
819.523	175.27
819.701	138.41
819.879	187.56
820.058	54.44
820.236	144.55
820.414	136.36
820.592	201.9
820.77	183.46
820.948	242.85
821.127	171.18
821.305	117.93
821.483	138.41
821.661	132.26
821.839	130.22
822.017	119.98
822.195	122.02
822.373	259.24
822.551	99.5
822.729	265.38
822.907	64.68
823.085	144.55
823.262	195.75
823.44	177.32
823.618	177.32
823.796	150.7
823.974	117.93
824.152	99.5
824.329	111.78
824.507	177.32
824.685	249
824.863	115.88
825.04	111.78
825.218	128.17
825.396	113.83
825.574	175.27
825.751	87.21
825.929	203.94
826.107	17.58
826.284	154.79
826.462	109.74
826.639	109.74
826.817	165.03
826.994	138.41
827.172	103.59
827.349	201.9
827.527	87.21
827.704	144.55
827.882	89.26
828.059	148.65
828.237	152.74
828.414	142.5
828.591	40.11
828.769	136.36
828.946	101.55
829.124	99.5
829.301	165.03
829.478	138.41
829.655	142.5
829.833	99.5
830.01	107.69
830.187	62.63
830.364	158.89
830.542	228.52
830.719	193.7
830.896	146.6
831.073	62.63
831.25	101.55
831.427	148.65
831.604	74.92
831.782	146.6
831.959	148.65
832.136	117.93
832.313	74.92
832.49	54.44
832.667	23.72
832.844	21.67
833.021	103.59
833.198	83.11
833.374	160.94
833.551	146.6
833.728	181.42
833.905	148.65
834.082	48.3
834.259	33.96
834.436	128.17
834.612	122.02
834.789	119.98
834.966	68.78
835.143	60.59
835.319	15.53
835.496	95.4
835.673	95.4
835.85	46.25
836.026	162.98
836.203	81.07
836.38	259.24
836.556	162.98
836.733	79.02
836.909	138.41
837.086	68.78
837.262	-15.19
837.439	99.5
837.616	103.59
837.792	105.64
837.968	156.84
838.145	-45.91
838.321	103.59
838.498	87.21
838.674	89.26
838.851	58.54
839.027	70.83
839.203	136.36
839.38	81.07
839.556	38.06
839.732	136.36
839.909	68.78
840.085	31.91
840.261	42.15
840.437	79.02
840.614	74.92
840.79	103.59
840.966	56.49
841.142	117.93
841.318	42.15
841.494	95.4
841.671	105.64
841.847	76.97
842.023	-23.38
842.199	70.83
842.375	91.31
842.551	38.06
842.727	72.87
842.903	119.98
843.079	33.96
843.255	103.59
843.431	52.39
843.607	119.98
843.783	-15.19
843.959	203.94
844.134	36.01
844.31	126.12
844.486	44.2
844.662	60.59
844.838	83.11
845.013	44.2
845.189	50.35
845.365	38.06
845.541	119.98
845.716	95.4
845.892	81.07
846.068	-0.85
846.244	105.64
846.419	70.83
846.595	83.11
846.77	46.25
846.946	9.39
847.122	66.73
847.297	81.07
847.473	62.63
847.648	-9.05
847.824	128.17
847.999	15.53
848.175	31.91
848.35	72.87
848.526	105.64
848.701	54.44
848.876	83.11
849.052	150.7
849.227	7.34
849.403	5.29
849.578	109.74
849.753	91.31
849.929	11.43
850.104	-19.29
850.279	25.77
850.454	89.26
850.63	132.26
850.805	50.35
850.98	33.96
851.155	25.77
851.33	40.11
851.505	-29.52
851.681	111.78
851.856	103.59
852.031	23.72
852.206	23.72
852.381	42.15
852.556	7.34
852.731	70.83
852.906	68.78
853.081	44.2
853.256	136.36
853.431	29.87
853.606	-39.76
853.781	1.19
853.956	33.96
854.131	-35.67
854.305	50.35
854.48	-17.24
854.655	64.68
854.83	87.21
855.005	-39.76
855.18	40.11
855.354	72.87
855.529	48.3
855.704	25.77
855.879	70.83
856.053	-29.52
856.228	40.11
856.403	56.49
856.577	46.25
856.752	-90.96
856.926	40.11
857.101	29.87
857.276	-76.63
857.45	107.69
857.625	-0.85
857.799	54.44
857.974	72.87
858.148	-19.29
858.323	38.06
858.497	33.96
858.672	29.87
858.846	29.87
859.02	54.44
859.195	-93.01
859.369	-52.05
859.543	64.68
859.718	-0.85
859.892	40.11
860.066	66.73
860.241	46.25
860.415	72.87
860.589	29.87
860.763	13.48
860.938	11.43
861.112	66.73
861.286	38.06
861.46	48.3
861.634	46.25
861.808	-0.85
861.982	-43.86
862.157	42.15
862.331	48.3
862.505	19.63
862.679	56.49
862.853	27.82
863.027	-7
863.201	132.26
863.375	1.19
863.549	54.44
863.722	-11.09
863.896	83.11
864.07	-37.72
864.244	54.44
864.418	-21.33
864.592	1.19
864.766	-41.81
864.939	25.77
865.113	42.15
865.287	79.02
865.461	13.48
865.634	60.59
865.808	-15.19
865.982	-7
866.156	54.44
866.329	-101.2
866.503	25.77
866.676	52.39
866.85	3.24
867.024	29.87
867.197	81.07
867.371	111.78
867.544	42.15
867.718	-23.38
867.891	25.77
868.065	13.48
868.238	-29.52
868.412	52.39
868.585	-4.95
868.759	-21.33
868.932	15.53
869.105	-11.09
869.279	-31.57
869.452	44.2
869.625	58.54
869.799	9.39
869.972	-47.96
870.145	25.77
870.319	81.07
870.492	5.29
870.665	50.35
870.838	13.48
871.011	9.39
871.185	5.29
871.358	-72.53
871.531	48.3
871.704	-7
871.877	79.02
872.05	13.48
872.223	17.58
872.396	83.11
872.569	19.63
872.742	-25.43
872.915	50.35
873.088	5.29
873.261	-64.34
873.434	83.11
873.607	-25.43
873.78	-13.14
873.953	-54.1
874.126	-7
874.299	66.73
874.471	23.72
874.644	54.44
874.817	50.35
874.99	72.87
875.163	-54.1
875.335	13.48
875.508	1.19
875.681	87.21
875.853	74.92
876.026	7.34
876.199	38.06
876.371	23.72
876.544	-21.33
876.717	25.77
876.889	-31.57
877.062	7.34
877.234	-35.67
877.407	64.68
877.579	1.19
877.752	-2.9
877.924	72.87
878.097	33.96
878.269	-7
878.442	-35.67
878.614	-27.48
878.786	-2.9
878.959	-19.29
879.131	-37.72
879.303	29.87
879.476	9.39
879.648	58.54
879.82	44.2
879.993	17.58
880.165	89.26
880.337	-39.76
880.509	58.54
880.681	-72.53
880.854	-4.95
881.026	48.3
881.198	36.01
881.37	50.35
881.542	-15.19
881.714	-19.29
881.886	-11.09
882.058	17.58
882.23	17.58
882.402	-39.76
882.574	11.43
882.746	36.01
882.918	46.25
883.09	38.06
883.262	-68.44
883.434	-27.48
883.606	13.48
883.778	29.87
883.95	52.39
884.122	-80.72
884.293	13.48
884.465	-9.05
884.637	52.39
884.809	-70.48
884.98	44.2
885.152	46.25
885.324	66.73
885.496	-15.19
885.667	-29.52
885.839	-43.86
886.011	91.31
886.182	-15.19
886.354	52.39
886.525	3.24
886.697	-2.9
886.869	-76.63
887.04	-0.85
887.212	134.31
887.383	169.13
887.555	-35.67
887.726	-11.09
887.897	-37.72
888.069	33.96
888.24	97.45
888.412	-0.85
888.583	-27.48
888.754	19.63
888.926	19.63
889.097	-23.38
889.268	-50
889.44	40.11
889.611	-56.15
889.782	19.63
889.953	19.63
890.125	74.92
890.296	-23.38
890.467	-21.33
890.638	-19.29
890.809	23.72
890.98	-0.85
891.151	66.73
891.323	-45.91
891.494	29.87
891.665	-15.19
891.836	-11.09
892.007	17.58
892.178	9.39
892.349	-19.29
892.52	-60.24
892.691	33.96
892.862	-33.62
893.032	-7
893.203	56.49
893.374	-19.29
893.545	40.11
893.716	-35.67
893.887	-27.48
894.057	-39.76
894.228	-17.24
894.399	-0.85
894.57	66.73
894.74	-27.48
894.911	-60.24
895.082	62.63
895.253	-62.29
895.423	-13.14
895.594	-11.09
895.764	68.78
895.935	13.48
896.106	9.39
896.276	9.39
896.447	33.96
896.617	-27.48
896.788	-68.44
896.958	-2.9
897.129	-47.96
897.299	-23.38
897.47	33.96
897.64	48.3
897.81	-25.43
897.981	33.96
898.151	1.19
898.322	29.87
898.492	1.19
898.662	-56.15
898.832	-33.62
899.003	60.59
899.173	5.29
899.343	-52.05
899.513	-76.63
