Data from USB4F104151__33__13-04-51-168.txt Node

Date: Fri Mar 14 13:04:51 EDT 2025
User: louis
Spectrometer: USB4F10415
Trigger mode: 4
Integration Time (sec): 4.000000E-2
Scans to average: 1
Electric dark correction enabled: true
Nonlinearity correction enabled: false
Boxcar width: 0
XAxis mode: Wavelengths
Number of Pixels in Spectrum: 3648
>>>>>Begin Spectral Data<<<<<
178.204	-232.96
178.424	-232.96
178.644	-232.96
178.864	-163.33
179.084	-187.9
179.304	-24.06
179.524	2.56
179.744	-9.73
179.964	-46.59
180.184	16.9
180.404	78.33
180.624	4.61
180.844	14.85
181.064	-77.31
181.283	-1.54
181.503	12.8
181.723	29.18
181.943	-34.3
182.163	68.09
182.383	55.81
182.602	72.19
182.822	123.39
183.042	119.29
183.262	-3.58
183.482	74.24
183.701	20.99
183.921	66.05
184.141	20.99
184.361	43.52
184.58	39.42
184.8	72.19
185.02	121.34
185.239	133.63
185.459	31.23
185.679	-54.78
185.898	-71.17
186.118	70.14
186.338	-3.58
186.557	23.04
186.777	31.23
186.997	12.8
187.216	-38.4
187.436	117.25
187.655	51.71
187.875	82.43
188.095	59.9
188.314	94.72
188.534	90.62
188.753	-1.54
188.973	90.62
189.192	35.33
189.412	51.71
189.631	12.8
189.851	43.52
190.07	33.28
190.29	115.2
190.509	-60.93
190.729	12.8
190.948	92.67
191.168	203.26
191.387	74.24
191.607	-22.02
191.826	49.66
192.045	55.81
192.265	94.72
192.484	37.38
192.704	49.66
192.923	53.76
193.142	160.25
193.362	96.77
193.581	31.23
193.8	39.42
194.02	16.9
194.239	51.71
194.458	23.04
194.678	41.47
194.897	51.71
195.116	88.57
195.335	115.2
195.555	51.71
195.774	74.24
195.993	43.52
196.212	35.33
196.432	-17.92
196.651	-5.63
196.87	-7.68
197.089	119.29
197.308	66.05
197.528	111.1
197.747	-62.98
197.966	10.75
198.185	135.68
198.404	-38.4
198.623	41.47
198.842	84.48
199.062	25.09
199.281	51.71
199.5	45.57
199.719	-15.87
199.938	41.47
200.157	94.72
200.376	59.9
200.595	125.44
200.814	51.71
201.033	-30.21
201.252	111.1
201.471	70.14
201.69	104.96
201.909	39.42
202.128	20.99
202.347	96.77
202.566	35.33
202.785	66.05
203.004	-32.26
203.223	57.86
203.442	0.51
203.661	2.56
203.879	16.9
204.098	104.96
204.317	0.51
204.536	115.2
204.755	33.28
204.974	72.19
205.193	14.85
205.411	137.73
205.63	129.53
205.849	31.23
206.068	98.81
206.287	-17.92
206.505	23.04
206.724	-48.64
206.943	-9.73
207.162	-17.92
207.381	35.33
207.599	57.86
207.818	39.42
208.037	94.72
208.255	68.09
208.474	25.09
208.693	98.81
208.911	51.71
209.13	33.28
209.349	41.47
209.567	80.38
209.786	51.71
210.005	43.52
210.223	57.86
210.442	-5.63
210.661	47.62
210.879	-28.16
211.098	92.67
211.316	43.52
211.535	168.45
211.753	70.14
211.972	72.19
212.191	72.19
212.409	47.62
212.628	39.42
212.846	-54.78
213.065	66.05
213.283	139.77
213.502	27.14
213.72	72.19
213.938	39.42
214.157	-24.06
214.375	23.04
214.594	-42.5
214.812	74.24
215.031	-28.16
215.249	10.75
215.467	33.28
215.686	27.14
215.904	96.77
216.122	66.05
216.341	104.96
216.559	82.43
216.778	82.43
216.996	47.62
217.214	-22.02
217.432	33.28
217.651	16.9
217.869	53.76
218.087	31.23
218.306	16.9
218.524	55.81
218.742	-34.3
218.96	94.72
219.179	49.66
219.397	18.94
219.615	98.81
219.833	23.04
220.051	61.95
220.27	10.75
220.488	66.05
220.706	76.29
220.924	37.38
221.142	31.23
221.36	-34.3
221.578	88.57
221.796	90.62
222.015	33.28
222.233	20.99
222.451	47.62
222.669	55.81
222.887	-28.16
223.105	33.28
223.323	8.7
223.541	23.04
223.759	68.09
223.977	47.62
224.195	49.66
224.413	127.49
224.631	49.66
224.849	80.38
225.067	76.29
225.285	16.9
225.503	68.09
225.721	-24.06
225.939	41.47
226.157	49.66
226.375	129.53
226.592	-26.11
226.81	4.61
227.028	115.2
227.246	158.21
227.464	12.8
227.682	47.62
227.9	109.05
228.117	43.52
228.335	14.85
228.553	47.62
228.771	-36.35
228.989	47.62
229.206	55.81
229.424	4.61
229.642	59.9
229.86	-50.69
230.077	51.71
230.295	31.23
230.513	55.81
230.731	6.66
230.948	119.29
231.166	139.77
231.384	-26.11
231.601	-24.06
231.819	94.72
232.037	45.57
232.254	27.14
232.472	-42.5
232.689	47.62
232.907	113.15
233.125	39.42
233.342	2.56
233.56	41.47
233.777	-1.54
233.995	61.95
234.213	82.43
234.43	39.42
234.648	-40.45
234.865	45.57
235.083	51.71
235.3	53.76
235.518	57.86
235.735	68.09
235.953	51.71
236.17	16.9
236.388	92.67
236.605	64
236.822	145.92
237.04	90.62
237.257	-7.68
237.475	-1.54
237.692	64
237.909	117.25
238.127	45.57
238.344	33.28
238.562	53.76
238.779	-7.68
238.996	31.23
239.214	16.9
239.431	29.18
239.648	39.42
239.865	14.85
240.083	37.38
240.3	41.47
240.517	39.42
240.735	68.09
240.952	33.28
241.169	150.01
241.386	37.38
241.603	49.66
241.821	59.9
242.038	41.47
242.255	66.05
242.472	20.99
242.689	74.24
242.907	43.52
243.124	8.7
243.341	51.71
243.558	29.18
243.775	-24.06
243.992	4.61
244.209	29.18
244.426	104.96
244.643	49.66
244.86	31.23
245.078	27.14
245.295	43.52
245.512	59.9
245.729	-48.64
245.946	27.14
246.163	23.04
246.38	96.77
246.597	92.67
246.814	47.62
247.031	100.86
247.248	47.62
247.464	72.19
247.681	61.95
247.898	80.38
248.115	39.42
248.332	55.81
248.549	53.76
248.766	131.58
248.983	88.57
249.2	12.8
249.417	45.57
249.633	39.42
249.85	10.75
250.067	94.72
250.284	55.81
250.501	123.39
250.717	43.52
250.934	6.66
251.151	16.9
251.368	84.48
251.585	98.81
251.801	16.9
252.018	51.71
252.235	57.86
252.451	-7.68
252.668	16.9
252.885	84.48
253.102	-42.5
253.318	12.8
253.535	53.76
253.752	37.38
253.968	-3.58
254.185	4.61
254.401	39.42
254.618	23.04
254.835	12.8
255.051	51.71
255.268	66.05
255.484	6.66
255.701	92.67
255.917	55.81
256.134	2.56
256.351	76.29
256.567	39.42
256.784	27.14
257	-36.35
257.217	-9.73
257.433	25.09
257.65	10.75
257.866	92.67
258.082	-42.5
258.299	29.18
258.515	135.68
258.732	25.09
258.948	27.14
259.165	29.18
259.381	23.04
259.597	84.48
259.814	90.62
260.03	59.9
260.246	-73.21
260.463	107.01
260.679	80.38
260.895	59.9
261.112	41.47
261.328	14.85
261.544	55.81
261.761	119.29
261.977	88.57
262.193	51.71
262.409	29.18
262.626	6.66
262.842	14.85
263.058	-1.54
263.274	-17.92
263.49	20.99
263.707	72.19
263.923	43.52
264.139	-9.73
264.355	18.94
264.571	25.09
264.787	-9.73
265.004	104.96
265.22	31.23
265.436	57.86
265.652	47.62
265.868	64
266.084	-83.45
266.3	25.09
266.516	-1.54
266.732	94.72
266.948	43.52
267.164	80.38
267.38	41.47
267.596	47.62
267.812	121.34
268.028	72.19
268.244	6.66
268.46	55.81
268.676	18.94
268.892	80.38
269.108	8.7
269.324	23.04
269.54	45.57
269.756	39.42
269.972	-50.69
270.188	-24.06
270.403	80.38
270.619	-24.06
270.835	66.05
271.051	-5.63
271.267	37.38
271.483	-1.54
271.698	129.53
271.914	66.05
272.13	-17.92
272.346	84.48
272.562	-48.64
272.777	123.39
272.993	-42.5
273.209	23.04
273.425	16.9
273.64	0.51
273.856	-3.58
274.072	8.7
274.287	18.94
274.503	66.05
274.719	39.42
274.934	88.57
275.15	-24.06
275.366	64
275.581	-34.3
275.797	107.01
276.012	8.7
276.228	0.51
276.444	68.09
276.659	39.42
276.875	-1.54
277.09	35.33
277.306	-11.78
277.521	53.76
277.737	80.38
277.952	137.73
278.168	82.43
278.383	18.94
278.599	104.96
278.814	98.81
279.03	27.14
279.245	104.96
279.461	51.71
279.676	33.28
279.892	-52.74
280.107	64
280.322	53.76
280.538	20.99
280.753	18.94
280.969	66.05
281.184	115.2
281.399	141.82
281.615	41.47
281.83	82.43
282.045	-26.11
282.26	43.52
282.476	70.14
282.691	49.66
282.906	115.2
283.122	-36.35
283.337	16.9
283.552	72.19
283.767	18.94
283.983	47.62
284.198	20.99
284.413	205.31
284.628	29.18
284.843	123.39
285.058	84.48
285.274	-1.54
285.489	-32.26
285.704	68.09
285.919	-9.73
286.134	47.62
286.349	76.29
286.564	14.85
286.779	100.86
286.995	47.62
287.21	98.81
287.425	31.23
287.64	55.81
287.855	55.81
288.07	45.57
288.285	-7.68
288.5	61.95
288.715	66.05
288.93	20.99
289.145	-5.63
289.36	86.53
289.575	-15.87
289.79	35.33
290.004	25.09
290.219	82.43
290.434	59.9
290.649	2.56
290.864	23.04
291.079	12.8
291.294	111.1
291.509	139.77
291.724	33.28
291.938	-30.21
292.153	102.91
292.368	23.04
292.583	82.43
292.798	35.33
293.012	68.09
293.227	41.47
293.442	-44.54
293.657	109.05
293.871	156.16
294.086	31.23
294.301	80.38
294.516	16.9
294.73	-13.82
294.945	18.94
295.16	55.81
295.374	64
295.589	33.28
295.804	25.09
296.018	10.75
296.233	109.05
296.447	0.51
296.662	27.14
296.877	10.75
297.091	80.38
297.306	33.28
297.52	51.71
297.735	80.38
297.949	57.86
298.164	-32.26
298.378	8.7
298.593	51.71
298.807	59.9
299.022	25.09
299.236	57.86
299.451	76.29
299.665	66.05
299.88	23.04
300.094	98.81
300.309	0.51
300.523	102.91
300.737	-54.78
300.952	72.19
301.166	123.39
301.381	35.33
301.595	16.9
301.809	33.28
302.024	51.71
302.238	-1.54
302.452	49.66
302.667	55.81
302.881	137.73
303.095	70.14
303.309	14.85
303.524	-17.92
303.738	-9.73
303.952	20.99
304.166	6.66
304.381	-46.59
304.595	47.62
304.809	51.71
305.023	55.81
305.237	-36.35
305.452	25.09
305.666	182.78
305.88	31.23
306.094	47.62
306.308	61.95
306.522	23.04
306.736	107.01
306.95	-36.35
307.164	137.73
307.379	96.77
307.593	57.86
307.807	98.81
308.021	-5.63
308.235	74.24
308.449	33.28
308.663	35.33
308.877	92.67
309.091	12.8
309.305	55.81
309.519	-40.45
309.733	68.09
309.947	-9.73
310.161	49.66
310.374	35.33
310.588	98.81
310.802	14.85
311.016	23.04
311.23	-5.63
311.444	-17.92
311.658	-65.02
311.872	47.62
312.085	102.91
312.299	145.92
312.513	94.72
312.727	51.71
312.941	43.52
313.154	86.53
313.368	55.81
313.582	39.42
313.796	10.75
314.009	88.57
314.223	76.29
314.437	100.86
314.651	49.66
314.864	-34.3
315.078	55.81
315.292	-22.02
315.505	55.81
315.719	8.7
315.933	8.7
316.146	0.51
316.36	74.24
316.573	10.75
316.787	166.4
317.001	156.16
317.214	-36.35
317.428	33.28
317.641	20.99
317.855	43.52
318.068	55.81
318.282	74.24
318.495	137.73
318.709	-5.63
318.922	51.71
319.136	117.25
319.349	129.53
319.563	31.23
319.776	29.18
319.99	6.66
320.203	23.04
320.417	-7.68
320.63	82.43
320.843	45.57
321.057	45.57
321.27	82.43
321.483	59.9
321.697	55.81
321.91	33.28
322.124	49.66
322.337	-75.26
322.55	39.42
322.763	2.56
322.977	109.05
323.19	39.42
323.403	-9.73
323.617	76.29
323.83	49.66
324.043	2.56
324.256	72.19
324.469	0.51
324.683	90.62
324.896	29.18
325.109	84.48
325.322	41.47
325.535	55.81
325.748	59.9
325.962	-60.93
326.175	59.9
326.388	121.34
326.601	94.72
326.814	123.39
327.027	43.52
327.24	18.94
327.453	-5.63
327.666	82.43
327.879	102.91
328.092	47.62
328.305	123.39
328.518	-3.58
328.731	18.94
328.944	84.48
329.157	25.09
329.37	129.53
329.583	82.43
329.796	100.86
330.009	0.51
330.222	61.95
330.435	37.38
330.648	25.09
330.861	33.28
331.073	31.23
331.286	100.86
331.499	45.57
331.712	76.29
331.925	16.9
332.138	-19.97
332.35	115.2
332.563	18.94
332.776	90.62
332.989	39.42
333.202	16.9
333.414	25.09
333.627	33.28
333.84	61.95
334.053	78.33
334.265	-24.06
334.478	31.23
334.691	-5.63
334.903	39.42
335.116	20.99
335.329	-13.82
335.541	27.14
335.754	168.45
335.966	8.7
336.179	31.23
336.392	33.28
336.604	72.19
336.817	23.04
337.029	23.04
337.242	33.28
337.454	51.71
337.667	78.33
337.88	190.97
338.092	31.23
338.305	78.33
338.517	31.23
338.729	133.63
338.942	107.01
339.154	-75.26
339.367	27.14
339.579	68.09
339.792	20.99
340.004	68.09
340.217	55.81
340.429	84.48
340.641	33.28
340.854	104.96
341.066	45.57
341.278	39.42
341.491	72.19
341.703	66.05
341.915	18.94
342.128	64
342.34	41.47
342.552	29.18
342.764	31.23
342.977	35.33
343.189	31.23
343.401	53.76
343.613	51.71
343.826	31.23
344.038	-38.4
344.25	90.62
344.462	20.99
344.674	135.68
344.886	29.18
345.099	80.38
345.311	55.81
345.523	16.9
345.735	-13.82
345.947	51.71
346.159	45.57
346.371	6.66
346.583	100.86
346.795	100.86
347.007	45.57
347.219	72.19
347.431	84.48
347.643	94.72
347.855	14.85
348.067	61.95
348.279	74.24
348.491	51.71
348.703	-1.54
348.915	-54.78
349.127	-17.92
349.339	88.57
349.551	14.85
349.763	39.42
349.975	82.43
350.187	147.97
350.399	123.39
350.61	61.95
350.822	78.33
351.034	68.09
351.246	35.33
351.458	113.15
351.669	37.38
351.881	-11.78
352.093	55.81
352.305	47.62
352.517	76.29
352.728	84.48
352.94	39.42
353.152	104.96
353.363	66.05
353.575	39.42
353.787	115.2
353.999	-15.87
354.21	53.76
354.422	16.9
354.633	16.9
354.845	74.24
355.057	-7.68
355.268	61.95
355.48	143.87
355.692	-42.5
355.903	94.72
356.115	-32.26
356.326	-9.73
356.538	109.05
356.749	84.48
356.961	139.77
357.172	53.76
357.384	20.99
357.595	135.68
357.807	74.24
358.018	117.25
358.23	-7.68
358.441	16.9
358.653	84.48
358.864	25.09
359.075	76.29
359.287	51.71
359.498	152.06
359.709	55.81
359.921	113.15
360.132	90.62
360.344	82.43
360.555	59.9
360.766	23.04
360.977	86.53
361.189	82.43
361.4	49.66
361.611	100.86
361.823	111.1
362.034	57.86
362.245	29.18
362.456	70.14
362.667	53.76
362.879	31.23
363.09	6.66
363.301	31.23
363.512	70.14
363.723	6.66
363.935	49.66
364.146	53.76
364.357	41.47
364.568	76.29
364.779	-15.87
364.99	-15.87
365.201	25.09
365.412	147.97
365.623	-56.83
365.834	16.9
366.045	41.47
366.256	70.14
366.467	49.66
366.678	47.62
366.889	8.7
367.1	-3.58
367.311	109.05
367.522	57.86
367.733	121.34
367.944	25.09
368.155	35.33
368.366	43.52
368.577	186.88
368.788	107.01
368.999	102.91
369.209	29.18
369.42	88.57
369.631	154.11
369.842	31.23
370.053	41.47
370.264	107.01
370.474	39.42
370.685	121.34
370.896	107.01
371.107	84.48
371.317	23.04
371.528	0.51
371.739	104.96
371.95	25.09
372.16	123.39
372.371	94.72
372.582	0.51
372.792	70.14
373.003	61.95
373.214	139.77
373.424	35.33
373.635	78.33
373.846	141.82
374.056	143.87
374.267	74.24
374.477	64
374.688	41.47
374.898	158.21
375.109	55.81
375.319	49.66
375.53	109.05
375.74	53.76
375.951	74.24
376.161	57.86
376.372	96.77
376.582	47.62
376.793	43.52
377.003	72.19
377.214	37.38
377.424	-1.54
377.635	-7.68
377.845	20.99
378.055	113.15
378.266	78.33
378.476	59.9
378.686	88.57
378.897	176.64
379.107	121.34
379.317	25.09
379.528	-1.54
379.738	137.73
379.948	23.04
380.158	59.9
380.369	2.56
380.579	74.24
380.789	88.57
380.999	94.72
381.21	168.45
381.42	123.39
381.63	66.05
381.84	57.86
382.05	115.2
382.261	74.24
382.471	115.2
382.681	55.81
382.891	170.49
383.101	59.9
383.311	68.09
383.521	-7.68
383.731	102.91
383.941	86.53
384.151	107.01
384.361	107.01
384.571	107.01
384.781	90.62
384.991	154.11
385.201	158.21
385.411	39.42
385.621	88.57
385.831	109.05
386.041	-15.87
386.251	14.85
386.461	129.53
386.671	72.19
386.881	64
387.091	80.38
387.301	147.97
387.511	94.72
387.72	107.01
387.93	57.86
388.14	-97.79
388.35	-1.54
388.56	145.92
388.769	147.97
388.979	86.53
389.189	33.28
389.399	147.97
389.609	57.86
389.818	141.82
390.028	84.48
390.238	109.05
390.447	66.05
390.657	115.2
390.867	113.15
391.076	-22.02
391.286	45.57
391.496	84.48
391.705	59.9
391.915	80.38
392.125	84.48
392.334	33.28
392.544	47.62
392.753	80.38
392.963	-5.63
393.172	72.19
393.382	115.2
393.591	129.53
393.801	90.62
394.01	133.63
394.22	129.53
394.429	121.34
394.639	59.9
394.848	152.06
395.058	23.04
395.267	45.57
395.477	72.19
395.686	107.01
395.895	246.27
396.105	201.21
396.314	127.49
396.524	66.05
396.733	90.62
396.942	123.39
397.152	156.16
397.361	137.73
397.57	98.81
397.78	158.21
397.989	135.68
398.198	195.07
398.407	121.34
398.617	182.78
398.826	104.96
399.035	178.69
399.244	174.59
399.453	168.45
399.663	233.98
399.872	154.11
400.081	92.67
400.29	150.01
400.499	145.92
400.708	176.64
400.917	100.86
401.127	158.21
401.336	88.57
401.545	246.27
401.754	164.35
401.963	135.68
402.172	119.29
402.381	129.53
402.59	80.38
402.799	129.53
403.008	195.07
403.217	180.73
403.426	164.35
403.635	174.59
403.844	186.88
404.053	178.69
404.262	115.2
404.471	188.93
404.68	227.84
404.888	174.59
405.097	172.54
405.306	145.92
405.515	188.93
405.724	215.55
405.933	283.13
406.142	197.12
406.35	203.26
406.559	266.75
406.768	287.23
406.977	207.36
407.185	201.21
407.394	225.79
407.603	154.11
407.812	180.73
408.02	367.1
408.229	236.03
408.438	297.47
408.646	293.37
408.855	209.4
409.064	293.37
409.272	320
409.481	322.04
409.69	330.23
409.898	322.04
410.107	371.19
410.315	479.74
410.524	285.18
410.733	557.56
410.941	377.34
411.15	547.32
411.358	504.31
411.567	522.74
411.775	451.07
411.984	532.98
412.192	535.03
412.401	573.94
412.609	535.03
412.818	688.63
413.026	569.85
413.234	602.61
413.443	629.24
413.651	680.44
413.86	705.01
414.068	758.26
414.276	872.95
414.485	655.86
414.693	739.83
414.901	899.57
415.11	938.48
415.318	891.38
415.526	788.98
415.734	944.63
415.943	963.06
416.151	1028.59
416.359	924.15
416.567	1063.41
416.776	1114.61
416.984	1147.37
417.192	1235.44
417.4	1161.71
417.608	1196.53
417.817	1143.28
418.025	1300.97
418.233	1513.96
418.441	1321.45
418.649	1509.86
418.857	1546.73
419.065	1604.07
419.273	1628.65
419.481	1733.09
419.689	1782.24
419.897	1757.67
420.105	1788.39
420.313	1915.36
420.521	1948.13
420.729	2005.47
420.937	2085.34
421.145	2267.61
421.353	2236.89
421.561	2476.51
421.769	2359.77
421.977	2517.47
422.185	2464.22
422.393	2720.21
422.601	2660.82
422.809	2787.8
423.017	2795.99
423.224	2912.72
423.432	2986.45
423.64	3158.48
423.848	3385.8
424.056	3123.66
424.263	3516.87
424.471	3443.15
424.679	3455.44
424.887	3774.92
425.094	3836.36
425.302	3989.96
425.51	4055.49
425.718	4221.38
425.925	4204.99
426.133	4182.46
426.341	4573.63
426.548	4784.57
426.756	4630.97
426.964	4803
427.171	5132.72
427.379	5202.35
427.586	5351.85
427.794	5585.32
428.001	5874.09
428.209	5988.77
428.417	5908.9
428.624	6355.36
428.832	6363.55
429.039	6373.79
429.247	6367.65
429.454	6961.56
429.662	7414.16
429.869	6982.04
430.076	7610.76
430.284	7342.48
430.491	7594.38
430.699	7936.39
430.906	8083.84
431.114	8133
431.321	8587.64
431.528	8606.08
431.736	9064.82
431.943	9462.13
432.15	9195.89
432.358	9433.46
432.565	9869.67
432.772	9783.66
432.979	10238.31
433.187	10508.64
433.394	10473.82
433.601	11168.09
433.808	11364.69
434.016	11057.5
434.223	12061
434.43	12423.49
434.637	12073.29
434.844	12937.53
435.052	13162.81
435.259	12998.97
435.466	13138.23
435.673	13142.33
435.88	13746.48
436.087	14612.77
436.294	14598.43
436.501	14471.46
436.708	14489.89
436.915	14944.54
437.122	15882.51
437.329	15694.1
437.537	16374.02
437.743	16797.95
437.95	16498.95
438.157	17225.98
438.364	17774.83
438.571	17744.11
438.778	17660.15
438.985	19790.03
439.192	18981.09
439.399	19448.02
439.606	19030.24
439.813	20224.2
440.02	21383.35
440.227	20936.9
440.433	20664.52
440.64	21696.69
440.847	21315.77
441.054	21924.02
441.261	23216.29
441.467	23146.65
441.674	23617.69
441.881	24268.94
442.088	23908.5
442.294	24322.19
442.501	24608.9
442.708	25276.54
442.914	25899.12
443.121	27215.97
443.328	26204.27
443.534	28467.28
443.741	28041.3
443.948	27261.02
444.154	29679.68
444.361	29263.94
444.568	29182.02
444.774	29405.25
444.981	29712.44
445.187	30603.31
445.394	31475.74
445.6	31555.61
445.807	34138.1
446.013	32673.81
446.22	33339.4
446.426	34965.48
446.633	34858.99
446.839	36261.85
447.046	34627.57
447.252	36714.45
447.459	36796.37
447.665	36734.93
447.871	38313.91
448.078	40073.12
448.284	37799.87
448.491	39036.84
448.697	40597.4
448.903	41426.82
449.11	41303.95
449.316	40759.19
449.522	41711.49
449.728	42342.27
449.935	43024.24
450.141	42966.9
450.347	44058.46
450.553	42497.91
450.76	43439.98
450.966	44719.96
451.172	44322.65
451.378	45489.99
451.584	44521.3
451.791	45590.34
451.997	45467.47
452.203	46108.48
452.409	46409.53
452.615	46057.28
452.821	44343.13
453.027	44023.65
453.233	46030.66
453.44	44142.43
453.646	44945.23
453.852	45184.85
454.058	45672.26
454.264	43927.39
454.47	45289.29
454.676	44027.74
454.882	46309.18
455.088	41797.51
455.294	42442.62
455.5	43110.25
455.705	43454.31
455.911	41699.2
456.117	41383.82
456.323	40667.03
456.529	38825.9
456.735	40050.59
456.941	38989.74
457.147	38055.87
457.352	37906.37
457.558	36939.72
457.764	36894.67
457.97	36311
458.176	35395.56
458.381	35577.83
458.587	33746.94
458.793	33994.75
458.999	32167.96
459.204	34545.65
459.41	33261.57
459.616	31268.9
459.821	31279.14
460.027	31154.21
460.233	30634.03
460.438	28840.01
460.644	29515.84
460.85	27947.09
461.055	27750.49
461.261	27674.71
461.466	25219.2
461.672	24637.58
461.878	26628.2
462.083	24649.86
462.289	24139.92
462.494	24131.73
462.7	22763.68
462.905	22442.15
463.111	23230.62
463.316	23013.54
463.522	22702.25
463.727	22915.23
463.932	22515.88
464.138	22460.59
464.343	22718.63
464.549	21833.91
464.754	22761.64
464.959	22382.76
465.165	21862.58
465.37	20895.94
465.575	20668.61
465.781	21551.29
465.986	21684.41
466.191	20887.75
466.397	20484.3
466.602	19493.08
466.807	20605.13
467.012	20127.95
467.218	20017.36
467.423	19982.54
467.628	20043.98
467.833	20711.62
468.038	20101.33
468.244	19511.51
468.449	20291.79
468.654	19349.72
468.859	19480.79
469.064	19343.58
469.269	18493.67
469.474	18651.36
469.679	18972.89
469.885	18583.78
470.09	18673.89
470.295	18610.4
470.5	18235.63
470.705	18620.64
470.91	17977.58
471.115	17858.8
471.32	17946.86
471.525	17961.2
471.73	17524.98
471.935	17424.63
472.139	16783.62
472.344	17148.15
472.549	16750.85
472.754	16736.51
472.959	16570.63
473.164	16064.78
473.369	15896.85
473.574	16632.07
473.778	16320.77
473.983	16052.49
474.188	16146.7
474.393	15268.12
474.598	15544.59
474.802	15212.82
475.007	15153.43
475.212	15104.28
475.417	14774.56
475.621	14782.75
475.826	14850.33
476.031	14416.16
476.235	14276.9
476.44	14401.83
476.645	13740.33
476.849	14172.46
477.054	13924.65
477.259	13697.33
477.463	13678.9
477.668	13269.3
477.872	13619.5
478.077	12988.73
478.282	12845.37
478.486	12884.28
478.691	12798.27
478.895	12697.92
479.1	12519.74
479.304	12593.47
479.509	12142.92
479.713	12646.72
479.918	12396.87
480.122	11962.7
480.326	12136.77
480.531	12513.6
480.735	11917.64
480.94	12075.34
481.144	12304.71
481.348	11686.22
481.553	11911.5
481.757	11589.97
481.961	11798.86
482.166	12022.09
482.37	11790.67
482.574	11671.89
482.778	11643.21
482.983	11794.76
483.187	11663.69
483.391	11737.42
483.595	11501.9
483.8	11542.86
484.004	11776.33
484.208	11661.65
484.412	11579.73
484.616	11827.53
484.821	11938.12
485.025	11393.36
485.229	11618.64
485.433	11673.93
485.637	11790.67
485.841	11698.51
486.045	11561.3
486.249	11602.25
486.453	11495.76
486.657	11522.38
486.861	11540.82
487.065	11516.24
487.269	11663.69
487.473	11594.06
487.677	11579.73
487.881	11952.46
488.085	11792.72
488.289	11641.17
488.493	11782.48
488.697	11825.48
488.901	11716.94
489.105	11684.17
489.309	11860.3
489.512	11815.24
489.716	11743.56
489.92	11923.79
490.124	11692.37
490.328	12069.19
490.531	11784.52
490.735	12036.42
490.939	11985.23
491.143	12089.67
491.346	12110.15
491.55	12198.21
491.754	12149.06
491.958	12192.07
492.161	11962.7
492.365	12286.28
492.569	12192.07
492.772	12423.49
492.976	12468.55
493.18	12417.35
493.383	12595.52
493.587	12683.58
493.79	12710.21
493.994	12722.49
494.197	12826.94
494.401	12845.37
494.605	12880.19
494.808	13089.08
495.012	13095.22
495.215	13185.33
495.419	13322.55
495.622	13175.09
495.825	13408.56
496.029	13515.06
496.232	13732.14
496.436	13685.04
496.639	14063.91
496.843	14098.73
497.046	14137.64
497.249	14416.16
497.453	14623.01
497.656	14453.03
497.859	14700.83
498.063	14692.64
498.266	14930.2
498.469	14915.87
498.673	15126.81
498.876	15415.57
499.079	15374.61
499.282	15448.34
499.485	16068.87
499.689	16062.73
499.892	16228.62
500.095	15941.9
500.298	16673.03
500.501	16546.05
500.705	17172.73
500.908	17142.01
501.111	17520.88
501.314	17613.04
501.517	17858.8
501.72	17647.86
501.923	17799.41
502.126	18290.92
502.329	18501.86
502.532	18585.83
502.735	18710.75
502.938	19087.58
503.141	19073.24
503.344	19552.47
503.547	19278.04
503.75	19691.73
503.953	20173
504.156	20392.14
504.359	20494.54
504.562	20682.95
504.765	20848.83
504.968	21059.77
505.17	21258.43
505.373	21416.12
505.576	21903.54
505.779	21856.43
505.982	21870.77
506.185	22501.54
506.387	22581.42
506.59	22919.33
506.793	22993.06
506.996	23115.94
507.198	24176.78
507.401	23759
507.604	24131.73
507.807	24375.44
508.009	24694.92
508.212	24723.59
508.415	24881.28
508.617	25204.86
508.82	25581.69
509.022	25411.71
509.225	26009.72
509.428	26161.26
509.63	26349.68
509.833	26617.96
510.035	26976.36
510.238	26943.59
510.44	27463.77
510.643	27619.42
510.845	27883.61
511.048	27678.81
511.25	28160.08
511.453	28510.28
511.655	29427.77
511.858	29036.61
512.06	29374.53
512.262	29386.82
512.465	29616.19
512.667	29868.09
512.87	30677.04
513.072	30636.08
513.274	31088.68
513.477	31283.23
513.679	31557.66
513.881	31932.44
514.084	32415.76
514.286	32194.58
514.488	32636.94
514.69	33572.86
514.893	33155.08
515.095	33646.59
515.297	33978.36
515.499	34000.89
515.701	34412.53
515.904	34801.64
516.106	34713.58
516.308	35450.85
516.51	35516.39
516.712	35706.85
516.914	36280.28
517.116	36765.65
517.318	36872.14
517.52	36898.76
517.722	37459.91
517.925	37482.44
518.127	38129.59
518.329	38223.8
518.531	38297.53
518.733	38746.03
518.935	39180.2
519.136	39280.55
519.338	39901.09
519.54	39946.14
519.742	40331.16
519.944	40386.46
520.146	41117.58
520.348	41572.23
520.55	41557.89
520.752	41633.67
520.954	42440.57
521.155	42114.94
521.357	42864.5
521.559	42948.46
521.761	43591.53
521.963	43765.6
522.164	43575.14
522.366	44037.98
522.568	44367.71
522.77	44412.76
522.971	45154.13
523.173	44994.39
523.375	45305.68
523.576	45225.81
523.778	45537.1
523.98	46053.19
524.181	46294.85
524.383	46700.34
524.584	46788.41
524.786	47089.46
524.988	46686.01
525.189	47554.35
525.391	47296.3
525.592	48156.45
525.794	47828.77
525.995	47814.44
526.197	48359.2
526.398	48662.3
526.6	49039.12
526.801	48750.36
527.003	49284.88
527.204	48938.77
527.406	50241.28
527.607	49639.18
527.808	49780.49
528.01	49168.15
528.211	49479.44
528.412	50429.69
528.614	50204.42
528.815	50315.01
529.016	51035.89
529.218	50675.45
529.419	50986.74
529.62	51050.23
529.822	50611.96
530.023	50554.62
530.224	51056.37
530.425	51199.73
530.626	51103.48
530.828	50874.1
531.029	51797.74
531.23	51594.99
531.431	51445.49
531.632	51656.43
531.833	51865.32
532.035	51547.89
532.236	52182.76
532.437	52182.76
532.638	51521.26
532.839	52221.67
533.04	52137.7
533.241	51799.79
533.442	52391.65
533.643	52285.15
533.844	52004.58
534.045	51982.05
534.246	52307.68
534.447	52641.5
534.648	52295.39
534.849	52545.25
535.05	51971.81
535.251	52471.52
535.451	52088.55
535.652	52682.46
535.853	52573.92
536.054	52537.05
536.255	52850.39
536.456	51701.48
536.657	52745.95
536.857	52897.5
537.058	52049.64
537.259	52659.93
537.46	52602.59
537.66	52221.67
537.861	52670.17
538.062	52025.06
538.263	52692.7
538.463	52129.51
538.664	52133.6
538.865	52522.72
539.065	52715.23
539.266	51756.78
539.466	53061.33
539.667	51816.17
539.868	52999.9
540.068	52305.63
540.269	51969.77
540.469	52217.57
540.67	52154.08
540.87	52336.35
541.071	52070.12
541.271	52471.52
541.472	52387.55
541.672	51875.56
541.873	52020.97
542.073	51828.46
542.274	52817.63
542.474	52137.7
542.675	51877.61
542.875	52291.3
543.075	52639.45
543.276	51750.63
543.476	52322.02
543.676	52225.76
543.877	52467.42
544.077	51928.81
544.277	52178.66
544.478	52350.69
544.678	52143.84
544.878	52270.82
545.078	52623.07
545.279	51664.62
545.479	51922.66
545.679	51898.09
545.879	51707.63
546.079	51738.35
546.28	51666.67
546.48	51441.39
546.68	52162.28
546.88	51932.9
547.08	51638
547.28	51932.9
547.48	51261.17
547.68	51871.46
547.88	51513.07
548.081	52307.68
548.281	51572.46
548.481	51646.19
548.681	51914.47
548.881	51513.07
549.081	51644.14
549.28	51408.62
549.48	51732.2
549.68	51881.7
549.88	51801.83
550.08	51373.81
550.28	51582.7
550.48	51330.8
550.68	52012.77
550.88	51359.47
551.08	51388.14
551.279	51551.98
551.479	51420.91
551.679	51621.61
551.879	51594.99
552.079	51175.16
552.278	51072.76
552.478	51404.53
552.678	51197.68
552.878	51216.11
553.077	51064.56
553.277	51029.75
553.477	51377.9
553.676	50831.1
553.876	51189.49
554.076	50632.44
554.275	51101.43
554.475	50470.65
554.674	50972.41
554.874	51091.19
555.074	50730.75
555.273	50861.82
555.473	51013.37
555.672	50677.5
555.872	50804.47
556.071	50870.01
556.271	50798.33
556.47	50988.79
556.67	50251.52
556.869	50251.52
557.068	50933.49
557.268	50206.47
557.467	50263.81
557.667	50444.03
557.866	50235.14
558.065	50056.96
558.265	49975.05
558.464	49526.54
558.663	50323.2
558.863	49813.26
559.062	50243.33
559.261	49680.14
559.461	50112.26
559.66	49006.36
559.859	49880.84
560.058	48979.73
560.258	49522.44
560.457	49104.66
560.656	49803.02
560.855	49129.23
561.054	49604.36
561.253	48957.2
561.453	48858.9
561.652	49024.79
561.851	49047.32
562.05	49186.58
562.249	48887.57
562.448	48662.3
562.647	48736.02
562.846	48492.32
563.045	48887.57
563.244	47939.36
563.443	48793.37
563.642	48172.83
563.841	48369.44
564.04	48019.24
564.239	48287.52
564.438	47748.9
564.637	47957.8
564.836	48000.8
565.035	47386.41
565.234	47462.19
565.432	47232.82
565.631	47693.61
565.83	47712.04
566.029	46833.46
566.228	47126.32
566.427	47275.82
566.625	46989.11
566.824	46753.59
567.023	47036.21
567.222	45936.45
567.42	46677.82
567.619	46790.45
567.818	46534.46
568.016	46284.61
568.215	46806.84
568.414	45576.01
568.612	46411.58
568.811	45815.62
569.01	45997.89
569.208	45213.52
569.407	45729.61
569.605	45178.7
569.804	45211.47
570.002	45317.96
570.201	45367.12
570.4	44959.57
570.598	44576.6
570.797	44701.53
570.995	44838.74
571.193	44560.22
571.392	44896.08
571.59	44384.09
571.789	44410.71
571.987	44097.38
572.186	44396.38
572.384	43964.26
572.582	44537.69
572.781	43804.52
572.979	43482.98
573.177	43908.96
573.376	43663.21
573.574	43061.1
573.772	43726.69
573.971	43233.13
574.169	42733.43
574.367	42794.87
574.565	43134.83
574.763	42997.62
574.962	42737.52
575.16	42309.5
575.358	43050.86
575.556	41977.73
575.754	42633.08
575.952	42153.85
576.151	42428.28
576.349	41822.08
576.547	41951.1
576.745	41969.54
576.943	41969.54
577.141	41553.8
577.339	41602.95
577.537	41387.91
577.735	41219.98
577.933	41107.34
578.131	41355.14
578.329	40619.92
578.527	40681.36
578.725	41090.96
578.923	41191.31
579.121	40720.27
579.319	40425.37
579.516	40935.31
579.714	40724.37
579.912	40589.2
580.11	40136.6
580.308	40097.69
580.506	39829.41
580.704	39280.55
580.901	40046.49
581.099	40064.92
581.297	39669.67
581.495	39569.32
581.692	39647.14
581.89	39264.17
582.088	39432.1
582.285	39204.78
582.483	39471.01
582.681	39206.83
582.878	39051.18
583.076	38801.33
583.274	39270.31
583.471	38254.52
583.669	38471.6
583.866	38453.17
584.064	38475.7
584.262	37879.74
584.459	38076.35
584.657	37654.47
584.854	37988.28
585.052	37488.58
585.249	37947.32
585.447	37685.18
585.644	37361.61
585.841	37466.05
586.039	37756.86
586.236	37101.51
586.434	37642.18
586.631	36927.44
586.828	37107.66
587.026	37056.46
587.223	36513.75
587.42	36614.1
587.618	36634.58
587.815	36274.13
588.012	36169.69
588.21	36337.62
588.407	36483.03
588.604	36253.65
588.801	35905.5
588.999	35952.6
589.196	35995.61
589.393	35715.04
589.59	35573.73
589.787	35211.24
589.984	35239.91
590.182	35301.35
590.379	35452.9
590.576	34973.67
590.773	34949.1
590.97	35020.78
591.167	35190.76
591.364	34232.31
591.561	34865.13
591.758	34371.57
591.955	34400.24
592.152	34514.93
592.349	33941.5
592.546	34383.86
592.743	34299.89
592.94	33822.72
593.137	33740.8
593.334	33867.77
593.531	33093.64
593.727	33804.28
593.924	33587.2
594.121	33331.2
594.318	33392.64
594.515	33112.07
594.712	33185.8
594.908	32940.04
595.105	33167.37
595.302	32704.52
595.499	32862.22
595.696	32002.07
595.892	32157.72
596.089	32362.51
596.286	32557.07
596.482	32239.64
596.679	32186.39
596.876	32182.29
597.072	31815.71
597.269	31922.2
597.466	31459.36
597.662	31553.57
597.859	31662.11
598.055	31475.74
598.252	31469.6
598.448	31436.83
598.645	30930.98
598.841	30943.27
599.038	31041.57
599.234	31158.31
599.431	30437.42
599.627	30679.08
599.824	31021.09
600.02	30550.06
600.217	30689.32
600.413	30433.33
600.609	29927.48
600.806	30341.17
601.002	30152.76
601.198	29847.61
601.395	29712.44
601.591	29524.03
601.787	30038.07
601.984	29270.08
602.18	30036.02
602.376	29818.94
602.572	29386.82
602.769	29399.1
602.965	28797
603.161	29229.12
603.357	28952.65
603.553	29089.86
603.75	29036.61
603.946	28397.65
604.142	28805.19
604.338	28498
604.534	28573.77
604.73	28258.38
604.926	28287.06
605.122	28569.68
605.318	28325.97
605.514	28094.55
605.71	28309.58
605.906	28416.08
606.102	27881.56
606.298	28000.34
606.494	27881.56
606.69	27709.53
606.886	28041.3
607.082	27433.05
607.278	27723.86
607.474	27154.53
607.67	27568.22
607.866	27355.23
608.062	27682.91
608.257	27066.47
608.453	27113.57
608.649	27134.05
608.845	26681.45
609.041	26802.28
609.236	26884.2
609.432	26835.05
609.628	26841.19
609.824	26929.25
610.019	26257.52
610.215	26407.02
610.411	26871.91
610.606	26581.1
610.802	26521.71
610.998	26196.08
611.193	26431.6
611.389	26146.93
611.584	26071.15
611.78	26179.7
611.976	26208.37
612.171	26087.54
612.367	25919.6
612.562	25866.36
612.758	25653.37
612.953	25612.41
613.149	26089.59
613.344	25462.91
613.539	25927.8
613.735	25811.06
613.93	25892.98
614.126	25503.87
614.321	25770.1
614.517	25641.08
614.712	25264.25
614.907	25172.1
615.103	25682.04
615.298	25139.33
615.493	25450.62
615.688	24672.39
615.884	25643.13
616.079	24957.06
616.274	25221.25
616.47	24746.12
616.665	25286.78
616.86	24596.62
617.055	24895.62
617.25	24752.26
617.445	24772.74
617.641	24639.62
617.836	24641.67
618.031	24316.04
618.226	24770.69
618.421	24449.16
618.616	24516.75
618.811	24021.14
619.006	24475.79
619.201	23943.31
619.396	24187.02
619.591	23560.34
619.786	23808.15
619.981	23718.04
620.176	23476.38
620.371	23380.12
620.566	23498.91
620.761	23359.64
620.956	23609.5
621.151	23128.22
621.346	23206.05
621.541	22542.5
621.735	22835.36
621.93	22753.44
622.125	22579.37
622.32	22468.78
622.515	22137.01
622.709	22010.03
622.904	22274.22
623.099	21797.04
623.294	21815.48
623.488	22042.8
623.683	21827.76
623.878	21795
624.072	21811.38
624.267	21207.23
624.462	21319.87
624.656	20922.56
624.851	21211.32
625.046	21119.17
625.24	20777.15
625.435	20578.5
625.629	20545.73
625.824	20259.02
626.018	20482.25
626.213	19912.91
626.407	20349.13
626.602	19957.97
626.796	20265.16
626.991	20160.72
627.185	19691.73
627.38	19648.72
627.574	19712.21
627.768	19290.33
627.963	19497.17
628.157	19212.51
628.352	19314.91
628.546	18720.99
628.74	19194.08
628.935	18979.04
629.129	18684.13
629.323	18702.56
629.517	18542.82
629.712	18442.47
629.906	18374.89
630.1	18143.47
630.294	18153.71
630.489	17950.96
630.683	18020.59
630.877	17783.02
631.071	17711.35
631.265	18004.21
631.459	17588.47
631.653	17447.16
631.848	17412.34
632.042	17420.53
632.236	17373.43
632.43	17039.61
632.624	17148.15
632.818	17099
633.012	16779.52
633.206	16812.29
633.4	16728.32
633.594	16828.67
633.788	16632.07
633.982	16582.91
634.176	16269.58
634.369	16355.59
634.563	16331.01
634.757	16146.7
634.951	16171.27
635.145	15911.18
635.339	15935.76
635.533	15759.63
635.726	16083.21
635.92	15567.12
636.114	15550.74
636.308	15597.84
636.501	15505.68
636.695	15454.48
636.889	15192.34
637.083	14979.36
637.276	15083.8
637.47	14983.45
637.664	14846.24
637.857	14827.81
638.051	15100.19
638.244	14719.26
638.438	14805.28
638.632	14334.25
638.825	14543.14
639.019	14299.43
639.212	14168.36
639.406	14168.36
639.599	14182.7
639.793	14250.28
639.986	13959.47
640.18	13986.09
640.373	14000.43
640.567	13938.99
640.76	13738.29
640.954	13908.27
641.147	13472.05
641.34	13383.99
641.534	13513.01
641.727	13308.21
641.92	13269.3
642.114	13123.9
642.307	13289.78
642.5	13177.14
642.694	13105.46
642.887	12937.53
643.08	13240.63
643.273	12904.76
643.467	12656.96
643.66	12693.82
643.853	12620.1
644.046	12407.11
644.239	12425.54
644.432	12470.59
644.626	12138.82
644.819	12294.47
645.012	12173.64
645.205	12130.63
645.398	12097.86
645.591	11966.79
645.784	12065.1
645.977	11815.24
646.17	11837.77
646.363	11856.2
646.556	11436.37
646.749	11723.09
646.942	11759.95
647.135	11647.31
647.328	11594.06
647.521	11735.37
647.714	11215.19
647.907	11508.05
648.099	11391.31
648.292	11198.81
648.485	11235.67
648.678	10914.14
648.871	11135.32
649.064	11067.74
649.256	11209.04
649.449	10860.89
649.642	10678.62
649.835	10944.86
650.027	10697.05
650.22	10359.14
650.413	10498.4
650.605	10371.43
650.798	10508.64
650.991	10484.06
651.183	10537.31
651.376	10303.84
651.568	10242.4
651.761	10293.6
651.954	10103.14
652.146	10097
652.339	10252.64
652.531	10148.2
652.724	9927.02
652.916	9730.41
653.109	9707.88
653.301	9783.66
653.494	9845.1
653.686	9568.62
653.879	9834.86
654.071	9498.99
654.263	9558.38
654.456	9582.96
654.648	9636.2
654.84	9357.68
655.033	9476.46
655.225	9257.33
655.417	9310.58
655.61	9347.44
655.802	8972.66
655.994	9070.97
656.186	9107.83
656.379	9150.84
656.571	9040.25
656.763	8771.96
656.955	8845.69
657.148	8943.99
657.34	8946.04
657.532	8706.43
657.724	8593.79
657.916	8569.21
658.108	8518.01
658.3	8427.9
658.492	8466.81
658.684	8497.53
658.876	8608.12
659.068	8489.34
659.26	8434.05
659.452	8501.63
659.644	8223.11
659.836	8356.22
660.028	8421.76
660.22	8118.66
660.412	8243.59
660.604	8194.43
660.796	8102.28
660.988	8036.74
661.18	8044.93
661.372	8069.51
661.563	8003.97
661.755	7981.45
661.947	7928.2
662.139	7963.01
662.331	7836.04
662.522	7733.64
662.714	7647.63
662.906	7805.32
663.097	7731.59
663.289	7614.86
663.481	7551.37
663.673	7518.61
663.864	7489.93
664.056	7403.92
664.247	7336.34
664.439	7397.78
664.631	7383.44
664.822	7518.61
665.014	7332.24
665.205	7465.36
665.397	7272.85
665.588	7248.27
665.78	7104.92
665.971	7250.32
666.163	7186.83
666.354	7235.99
666.546	7106.96
666.737	7018.9
666.929	6953.37
667.12	6979.99
667.311	6912.41
667.503	7002.52
667.694	6922.65
667.885	7039.38
668.077	6963.61
668.268	6896.02
668.459	6619.55
668.651	6840.73
668.842	6762.9
669.033	6594.97
669.224	6599.07
669.416	6734.23
669.607	6629.79
669.798	6633.88
669.989	6699.42
670.18	6494.62
670.371	6437.28
670.563	6506.91
670.754	6574.49
670.945	6492.57
671.136	6279.58
671.327	6506.91
671.518	6459.81
671.709	6406.56
671.9	6625.69
672.091	6310.3
672.282	6504.86
672.473	6238.62
672.664	6418.85
672.855	6300.06
673.046	6330.78
673.237	6377.89
673.428	6330.78
673.619	6381.98
673.809	6271.39
674	6183.33
674.191	6195.62
674.382	6261.15
674.573	6244.77
674.764	6191.52
674.954	6252.96
675.145	6162.85
675.336	6011.3
675.527	5962.15
675.717	6052.26
675.908	6156.71
676.099	6033.83
676.289	5947.81
676.48	6033.83
676.671	6093.22
676.861	6095.27
677.052	5964.2
677.243	5970.34
677.433	6080.93
677.624	6130.08
677.814	6019.49
678.005	6087.08
678.195	5980.58
678.386	6027.68
678.576	5972.39
678.767	6037.92
678.957	6027.68
679.148	6115.75
679.338	5847.46
679.529	5890.47
679.719	5888.42
679.909	6154.66
680.1	5861.8
680.29	6037.92
680.481	5833.13
680.671	5779.88
680.861	5882.28
681.052	5984.68
681.242	5839.27
681.432	5812.65
681.622	5814.7
681.813	5700.01
682.003	5824.94
682.193	5708.2
682.383	5923.24
682.573	5847.46
682.764	5728.68
682.954	5898.66
683.144	5861.8
683.334	5618.09
683.524	5671.34
683.714	5790.12
683.904	5833.13
684.094	5876.13
684.284	5749.16
684.474	5853.61
684.664	5822.89
684.854	5765.54
685.044	5677.48
685.234	5644.71
685.424	5734.82
685.614	5685.67
685.804	5702.06
685.994	5702.06
686.184	5659.05
686.374	5448.11
686.564	5493.16
686.753	5564.84
686.943	5450.16
687.133	5495.21
687.323	5454.25
687.513	5487.02
687.702	5325.23
687.892	5384.62
688.082	5380.53
688.272	5368.24
688.461	5351.85
688.651	5167.54
688.841	5099.95
689.03	5306.8
689.22	5157.3
689.41	5398.96
689.599	5104.05
689.789	5081.52
689.979	5046.71
690.168	4946.36
690.358	4944.31
690.547	4929.97
690.737	5009.84
690.926	5063.09
691.116	5036.47
691.305	4909.49
691.495	4909.49
691.684	4909.49
691.874	4864.44
692.063	4774.33
692.252	4764.09
692.442	4848.05
692.631	4727.22
692.82	4747.7
693.01	4716.98
693.199	4725.18
693.388	4544.95
693.578	4594.11
693.767	4559.29
693.956	4592.06
694.146	4587.96
694.335	4499.9
694.524	4508.09
694.713	4577.72
694.902	4641.21
695.092	4495.8
695.281	4397.5
695.47	4485.56
695.659	4364.73
695.848	4374.97
696.037	4344.25
696.226	4393.4
696.415	4356.54
696.604	4571.58
696.793	4354.49
696.982	4430.27
697.171	4409.79
697.36	4362.69
697.549	4319.68
697.738	4256.19
697.927	4397.5
698.116	4166.08
698.305	4268.48
698.494	4444.6
698.683	4190.66
698.872	4344.25
699.061	4202.94
699.25	4264.38
699.438	4172.22
699.627	4250.05
699.816	4211.14
700.005	4313.53
700.193	4254.14
700.382	4239.81
700.571	4278.72
700.76	4235.71
700.948	4161.98
701.137	4168.13
701.326	4331.97
701.514	4178.37
701.703	4342.21
701.892	4086.21
702.08	4229.57
702.269	4243.9
702.457	4295.1
702.646	4080.07
702.834	4022.72
703.023	4229.57
703.212	4243.9
703.4	4164.03
703.589	4137.41
703.777	4024.77
703.965	4192.7
704.154	4153.79
704.342	4135.36
704.531	4108.74
704.719	4168.13
704.907	4264.38
705.096	4086.21
705.284	4235.71
705.472	4248
705.661	4129.22
705.849	4039.11
706.037	4258.24
706.226	4147.65
706.414	4213.18
706.602	4086.21
706.79	4213.18
706.979	4114.88
707.167	4133.31
707.355	4055.49
707.543	4217.28
707.731	4194.75
707.919	4053.44
708.107	3989.96
708.296	4088.26
708.484	4143.55
708.672	4252.1
708.86	4108.74
709.048	4184.51
709.236	4047.3
709.424	4166.08
709.612	4168.13
709.8	4168.13
709.988	4069.83
710.176	4225.47
710.364	4207.04
710.551	4237.76
710.739	4270.53
710.927	4145.6
711.115	4061.63
711.303	4125.12
711.491	4186.56
711.679	4172.22
711.866	4346.3
712.054	4313.53
712.242	4176.32
712.43	4291.01
712.617	4147.65
712.805	4090.31
712.993	4155.84
713.181	4217.28
713.368	4176.32
713.556	4377.02
713.744	4211.14
713.931	4397.5
714.119	4340.16
714.306	4225.47
714.494	4231.62
714.682	4233.66
714.869	4221.38
715.057	4317.63
715.244	4102.59
715.432	4538.81
715.619	4141.5
715.807	4342.21
715.994	4303.29
716.182	4284.86
716.369	4250.05
716.556	4286.91
716.744	4303.29
716.931	4157.89
717.119	4356.54
717.306	4293.05
717.493	4395.45
717.681	4417.98
717.868	4350.4
718.055	4372.93
718.242	4483.52
718.43	4278.72
718.617	4387.26
718.804	4223.42
718.991	4278.72
719.179	4409.79
719.366	4405.69
719.553	4311.49
719.74	4428.22
719.927	4391.36
720.114	4329.92
720.301	4301.25
720.488	4329.92
720.676	4338.11
720.863	4364.73
721.05	4477.37
721.237	4340.16
721.424	4352.45
721.611	4483.52
721.798	4243.9
721.985	4454.84
722.172	4460.99
722.358	4456.89
722.545	4510.14
722.732	4262.33
722.919	4469.18
723.106	4397.5
723.293	4395.45
723.48	4370.88
723.667	4352.45
723.853	4348.35
724.04	4520.38
724.227	4428.22
724.414	4417.98
724.6	4424.12
724.787	4432.32
724.974	4590.01
725.161	4336.06
725.347	4325.82
725.534	4393.4
725.72	4280.77
725.907	4493.76
726.094	4372.93
726.28	4424.12
726.467	4506.04
726.653	4407.74
726.84	4458.94
727.027	4643.26
727.213	4407.74
727.4	4575.67
727.586	4434.36
727.773	4467.13
727.959	4569.53
728.145	4651.45
728.332	4315.58
728.518	4426.17
728.705	4366.78
728.891	4481.47
729.077	4557.24
729.264	4522.43
729.45	4561.34
729.636	4553.15
729.823	4438.46
730.009	4526.52
730.195	4428.22
730.382	4534.71
730.568	4501.95
730.754	4530.62
730.94	4374.97
731.126	4622.78
731.313	4682.17
731.499	4481.47
731.685	4417.98
731.871	4424.12
732.057	4524.47
732.243	4698.55
732.429	4331.97
732.615	4555.19
732.801	4585.91
732.987	4311.49
733.173	4610.49
733.359	4409.79
733.545	4426.17
733.731	4565.43
733.917	4600.25
734.103	4430.27
734.289	4456.89
734.475	4493.76
734.661	4506.04
734.847	4512.19
735.033	4544.95
735.219	4512.19
735.404	4542.91
735.59	4385.21
735.776	4446.65
735.962	4594.11
736.148	4401.6
736.333	4532.67
736.519	4516.28
736.705	4510.14
736.89	4422.08
737.076	4391.36
737.262	4430.27
737.447	4397.5
737.633	4532.67
737.819	4544.95
738.004	4319.68
738.19	4264.38
738.375	4393.4
738.561	4538.81
738.747	4288.96
738.932	4372.93
739.118	4235.71
739.303	4413.88
739.489	4362.69
739.674	4143.55
739.859	4254.14
740.045	4407.74
740.23	4379.07
740.416	4223.42
740.601	4284.86
740.786	4176.32
740.972	4260.29
741.157	4217.28
741.342	4268.48
741.528	4114.88
741.713	4231.62
741.898	4104.64
742.084	4118.98
742.269	4159.94
742.454	4067.78
742.639	4053.44
742.824	4035.01
743.01	4123.07
743.195	4202.94
743.38	4161.98
743.565	4178.37
743.75	4026.82
743.935	3936.71
744.12	4082.11
744.305	3973.57
744.49	3924.42
744.675	3983.81
744.86	3867.08
745.045	3852.74
745.23	3830.21
745.415	3916.23
745.6	3908.04
745.785	3752.39
745.97	3944.9
746.155	3752.39
746.34	3867.08
746.525	3615.18
746.71	3860.93
746.895	3686.86
747.079	3627.46
747.264	3496.39
747.449	3662.28
747.634	3740.1
747.819	3664.33
748.003	3529.16
748.188	3596.75
748.373	3600.84
748.557	3588.55
748.742	3527.11
748.927	3369.42
749.111	3537.35
749.296	3455.44
749.481	3539.4
749.665	3328.46
749.85	3310.03
750.034	3314.13
750.219	3334.61
750.404	3359.18
750.588	3340.75
750.773	3228.11
750.957	3301.84
751.141	3174.86
751.326	3187.15
751.51	3211.73
751.695	3099.09
751.879	3176.91
752.064	3080.66
752.248	3017.17
752.432	3094.99
752.617	3187.15
752.801	3058.13
752.985	3015.12
753.17	3006.93
753.354	3045.84
753.538	3045.84
753.722	3008.98
753.907	2783.7
754.091	2793.94
754.275	2900.44
754.459	2922.96
754.643	2804.18
754.828	2781.65
755.012	2804.18
755.196	2767.32
755.38	2714.07
755.564	2867.67
755.748	2703.83
755.932	2644.44
756.116	2546.14
756.3	2617.82
756.484	2521.56
756.668	2531.8
756.852	2607.58
757.036	2529.75
757.22	2597.34
757.404	2546.14
757.588	2482.65
757.772	2492.89
757.956	2601.43
758.14	2554.33
758.323	2482.65
758.507	2466.27
758.691	2441.69
758.875	2503.13
759.059	2314.72
759.242	2288.09
759.426	2267.61
759.61	2331.1
759.794	2253.28
759.977	2277.85
760.161	2376.16
760.345	2402.78
760.528	2286.05
760.712	2331.1
760.895	2259.42
761.079	2281.95
761.263	2097.63
761.446	2214.37
761.63	2181.6
761.813	2177.5
761.997	1972.71
762.18	2197.98
762.364	2062.82
762.547	2075.1
762.731	2152.93
762.914	2056.67
763.098	2089.44
763.281	1995.23
763.464	2021.86
763.648	2099.68
763.831	2030.05
764.015	2015.71
764.198	2017.76
764.381	2054.62
764.564	2030.05
764.748	1958.37
764.931	1972.71
765.114	1946.08
765.297	1993.19
765.481	2054.62
765.664	1989.09
765.847	1968.61
766.03	1903.07
766.213	1898.98
766.397	1882.6
766.58	1862.12
766.763	1909.22
766.946	1905.12
767.129	1839.59
767.312	1831.4
767.495	1776.1
767.678	1726.95
767.861	1810.92
768.044	1751.53
768.227	1933.79
768.41	1776.1
768.593	1790.44
768.776	1759.72
768.959	1831.4
769.142	1843.68
769.324	1726.95
769.507	1708.52
769.69	1669.61
769.873	1815.01
770.056	1894.88
770.239	1753.57
770.421	1630.7
770.604	1778.15
770.787	1649.13
770.97	1685.99
771.152	1681.89
771.335	1677.8
771.518	1647.08
771.7	1659.37
771.883	1620.46
772.066	1665.51
772.248	1556.97
772.431	1645.03
772.613	1698.28
772.796	1599.98
772.978	1595.88
773.161	1688.04
773.343	1518.06
773.526	1581.54
773.708	1419.75
773.891	1442.28
774.073	1542.63
774.256	1532.39
774.438	1540.58
774.621	1503.72
774.803	1475.05
774.985	1409.51
775.168	1483.24
775.35	1386.99
775.532	1421.8
775.715	1413.61
775.897	1395.18
776.079	1323.5
776.261	1317.36
776.444	1309.16
776.626	1364.46
776.808	1407.47
776.99	1237.49
777.173	1458.67
777.355	1247.72
777.537	1239.53
777.719	1243.63
777.901	1243.63
778.083	1239.53
778.265	1104.37
778.447	1186.29
778.629	1206.77
778.811	1196.53
778.993	1311.21
779.175	1260.01
779.357	1149.42
779.539	1106.42
779.721	1161.71
779.903	1247.72
780.085	1042.93
780.267	1102.32
780.449	1255.92
780.631	1118.7
780.812	1106.42
780.994	1001.97
781.176	1194.48
781.358	1059.31
781.54	1087.98
781.721	1128.94
781.903	1055.22
782.085	1004.02
782.267	1032.69
782.448	1010.16
782.63	926.19
782.812	1042.93
782.993	1049.07
783.175	924.15
783.357	997.87
783.538	993.78
783.72	934.39
783.901	995.82
784.083	991.73
784.264	1006.06
784.446	858.61
784.627	858.61
784.809	1075.7
784.99	842.23
785.172	836.08
785.353	852.47
785.535	895.47
785.716	856.56
785.897	813.56
786.079	836.08
786.26	866.8
786.441	827.89
786.623	860.66
786.804	872.95
786.985	877.04
787.167	813.56
787.348	850.42
787.529	784.88
787.71	895.47
787.891	813.56
788.073	680.44
788.254	760.31
788.435	825.84
788.616	840.18
788.797	764.4
788.978	752.12
789.159	678.39
789.34	776.69
789.522	807.41
789.703	666.1
789.884	768.5
790.065	696.82
790.246	768.5
790.427	666.1
790.607	754.16
790.788	676.34
790.969	645.62
791.15	670.2
791.331	561.66
791.512	682.49
791.693	563.7
791.874	692.73
792.054	768.5
792.235	659.96
792.416	535.03
792.597	643.57
792.778	623.09
792.958	641.53
793.139	680.44
793.32	707.06
793.5	590.33
793.681	647.67
793.862	596.47
794.042	545.27
794.223	526.84
794.404	551.42
794.584	496.12
794.765	563.7
794.945	625.14
795.126	516.6
795.306	604.66
795.487	528.89
795.667	590.33
795.848	571.9
796.028	580.09
796.209	563.7
796.389	561.66
796.57	539.13
796.75	483.83
796.93	508.41
797.111	516.6
797.291	530.94
797.471	555.51
797.652	461.3
797.832	502.26
798.012	547.32
798.192	455.16
798.373	506.36
798.553	504.31
798.733	467.45
798.913	518.65
799.093	537.08
799.274	469.5
799.454	610.81
799.634	551.42
799.814	449.02
799.994	483.83
800.174	449.02
800.354	430.59
800.534	373.24
800.714	440.83
800.894	494.07
801.074	428.54
801.254	449.02
801.434	526.84
801.614	391.67
801.794	440.83
801.974	1378.79
802.154	418.3
802.334	528.89
802.514	393.72
802.693	395.77
802.873	428.54
803.053	532.98
803.233	354.81
803.413	449.02
803.592	430.59
803.772	338.43
803.952	434.68
804.131	406.01
804.311	449.02
804.491	426.49
804.67	424.44
804.85	363
805.03	375.29
805.209	440.83
805.389	363
805.568	367.1
805.748	375.29
805.928	344.57
806.107	315.9
806.287	475.64
806.466	449.02
806.646	383.48
806.825	367.1
807.004	342.52
807.184	360.95
807.363	434.68
807.543	416.25
807.722	320
807.901	373.24
808.081	399.87
808.26	262.65
808.439	371.19
808.619	307.71
808.798	346.62
808.977	391.67
809.156	330.23
809.336	350.71
809.515	381.43
809.694	313.85
809.873	320
810.052	332.28
810.231	334.33
810.411	322.04
810.59	424.44
810.769	342.52
810.948	377.34
811.127	272.89
811.306	309.76
811.485	360.95
811.664	377.34
811.843	272.89
812.022	352.76
812.201	301.56
812.38	424.44
812.559	276.99
812.737	360.95
812.916	260.6
813.095	219.64
813.274	399.87
813.453	268.8
813.632	262.65
813.811	264.7
813.989	246.27
814.168	322.04
814.347	272.89
814.526	322.04
814.704	309.76
814.883	303.61
815.062	207.36
815.24	313.85
815.419	211.45
815.598	272.89
815.776	201.21
815.955	369.15
816.133	190.97
816.312	229.88
816.49	270.84
816.669	260.6
816.847	274.94
817.026	279.04
817.204	219.64
817.383	268.8
817.561	162.3
817.74	262.65
817.918	270.84
818.097	150.01
818.275	242.17
818.453	279.04
818.632	264.7
818.81	240.12
818.988	262.65
819.167	195.07
819.345	215.55
819.523	190.97
819.701	190.97
819.879	266.75
820.058	246.27
820.236	276.99
820.414	338.43
820.592	244.22
820.77	199.16
820.948	186.88
821.127	225.79
821.305	176.64
821.483	102.91
821.661	236.03
821.839	227.84
822.017	227.84
822.195	213.5
822.373	172.54
822.551	166.4
822.729	190.97
822.907	205.31
823.085	199.16
823.262	219.64
823.44	186.88
823.618	213.5
823.796	238.08
823.974	227.84
824.152	180.73
824.329	131.58
824.507	317.95
824.685	242.17
824.863	246.27
825.04	109.05
825.218	238.08
825.396	186.88
825.574	205.31
825.751	205.31
825.929	162.3
826.107	131.58
826.284	213.5
826.462	182.78
826.639	160.25
826.817	131.58
826.994	129.53
827.172	162.3
827.349	252.41
827.527	186.88
827.704	180.73
827.882	168.45
828.059	178.69
828.237	143.87
828.414	233.98
828.591	135.68
828.769	123.39
828.946	186.88
829.124	156.16
829.301	199.16
829.478	170.49
829.655	193.02
829.833	176.64
830.01	72.19
830.187	154.11
830.364	180.73
830.542	195.07
830.719	279.04
830.896	147.97
831.073	133.63
831.25	113.15
831.427	143.87
831.604	107.01
831.782	92.67
831.959	219.64
832.136	201.21
832.313	184.83
832.49	86.53
832.667	188.93
832.844	135.68
833.021	274.94
833.198	131.58
833.374	119.29
833.551	137.73
833.728	156.16
833.905	139.77
834.082	80.38
834.259	104.96
834.436	188.93
834.612	82.43
834.789	190.97
834.966	55.81
835.143	152.06
835.319	119.29
835.496	143.87
835.673	131.58
835.85	156.16
836.026	123.39
836.203	158.21
836.38	18.94
836.556	88.57
836.733	137.73
836.909	227.84
837.086	113.15
837.262	125.44
837.439	150.01
837.616	35.33
837.792	61.95
837.968	129.53
838.145	41.47
838.321	64
838.498	129.53
838.674	160.25
838.851	104.96
839.027	86.53
839.203	113.15
839.38	80.38
839.556	25.09
839.732	98.81
839.909	94.72
840.085	176.64
840.261	98.81
840.437	113.15
840.614	98.81
840.79	137.73
840.966	190.97
841.142	70.14
841.318	12.8
841.494	107.01
841.671	104.96
841.847	88.57
842.023	104.96
842.199	92.67
842.375	135.68
842.551	80.38
842.727	86.53
842.903	150.01
843.079	23.04
843.255	152.06
843.431	27.14
843.607	107.01
843.783	20.99
843.959	94.72
844.134	27.14
844.31	119.29
844.486	102.91
844.662	90.62
844.838	96.77
845.013	61.95
845.189	94.72
845.365	96.77
845.541	127.49
845.716	162.3
845.892	78.33
846.068	86.53
846.244	16.9
846.419	102.91
846.595	16.9
846.77	47.62
846.946	162.3
847.122	80.38
847.297	55.81
847.473	137.73
847.648	-34.3
847.824	141.82
847.999	23.04
848.175	78.33
848.35	129.53
848.526	156.16
848.701	104.96
848.876	115.2
849.052	80.38
849.227	80.38
849.403	53.76
849.578	72.19
849.753	98.81
849.929	156.16
850.104	31.23
850.279	23.04
850.454	55.81
850.63	107.01
850.805	74.24
850.98	59.9
851.155	104.96
851.33	43.52
851.505	39.42
851.681	49.66
851.856	53.76
852.031	80.38
852.206	18.94
852.381	47.62
852.556	104.96
852.731	80.38
852.906	117.25
853.081	119.29
853.256	90.62
853.431	109.05
853.606	78.33
853.781	61.95
853.956	6.66
854.131	14.85
854.305	-26.11
854.48	57.86
854.655	2.56
854.83	33.28
855.005	55.81
855.18	78.33
855.354	111.1
855.529	33.28
855.704	31.23
855.879	39.42
856.053	-13.82
856.228	88.57
856.403	6.66
856.577	47.62
856.752	18.94
856.926	84.48
857.101	76.29
857.276	-34.3
857.45	0.51
857.625	64
857.799	76.29
857.974	59.9
858.148	96.77
858.323	51.71
858.497	31.23
858.672	27.14
858.846	0.51
859.02	10.75
859.195	-32.26
859.369	27.14
859.543	72.19
859.718	27.14
859.892	59.9
860.066	82.43
860.241	-17.92
860.415	14.85
860.589	0.51
860.763	59.9
860.938	55.81
861.112	33.28
861.286	-105.98
861.46	96.77
861.634	23.04
861.808	96.77
861.982	39.42
862.157	47.62
862.331	72.19
862.505	-5.63
862.679	43.52
862.853	-26.11
863.027	-22.02
863.201	168.45
863.375	18.94
863.549	76.29
863.722	41.47
863.896	68.09
864.07	20.99
864.244	64
864.418	41.47
864.592	76.29
864.766	14.85
864.939	-13.82
865.113	-71.17
865.287	80.38
865.461	45.57
865.634	88.57
865.808	29.18
865.982	31.23
866.156	-46.59
866.329	-13.82
866.503	119.29
866.676	55.81
866.85	90.62
867.024	-58.88
867.197	27.14
867.371	27.14
867.544	-17.92
867.718	-58.88
867.891	41.47
868.065	-1.54
868.238	29.18
868.412	20.99
868.585	2.56
868.759	14.85
868.932	37.38
869.105	-22.02
869.279	23.04
869.452	18.94
869.625	55.81
869.799	14.85
869.972	-75.26
870.145	10.75
870.319	129.53
870.492	68.09
870.665	23.04
870.838	-1.54
871.011	-73.21
871.185	29.18
871.358	18.94
871.531	-17.92
871.704	-22.02
871.877	57.86
872.05	-46.59
872.223	66.05
872.396	88.57
872.569	14.85
872.742	-1.54
872.915	84.48
873.088	-9.73
873.261	80.38
873.434	115.2
873.607	-60.93
873.78	80.38
873.953	-103.93
874.126	29.18
874.299	107.01
874.471	-83.45
874.644	14.85
874.817	-34.3
874.99	66.05
875.163	8.7
875.335	41.47
875.508	16.9
875.681	41.47
875.853	-17.92
876.026	35.33
876.199	6.66
876.371	-38.4
876.544	-30.21
876.717	18.94
876.889	53.76
877.062	51.71
877.234	-48.64
877.407	-26.11
877.579	27.14
877.752	-30.21
877.924	-5.63
878.097	25.09
878.269	27.14
878.442	43.52
878.614	111.1
878.786	31.23
878.959	41.47
879.131	25.09
879.303	6.66
879.476	43.52
879.648	55.81
879.82	-15.87
879.993	-58.88
880.165	8.7
880.337	-50.69
880.509	0.51
880.681	6.66
880.854	-1.54
881.026	49.66
881.198	100.86
881.37	-65.02
881.542	-65.02
881.714	14.85
881.886	12.8
882.058	4.61
882.23	14.85
882.402	-9.73
882.574	-32.26
882.746	96.77
882.918	29.18
883.09	115.2
883.262	-17.92
883.434	-19.97
883.606	-17.92
883.778	27.14
883.95	59.9
884.122	-93.69
884.293	2.56
884.465	0.51
884.637	-5.63
884.809	27.14
884.98	-3.58
885.152	8.7
885.324	-15.87
885.496	-48.64
885.667	-19.97
885.839	-24.06
886.011	68.09
886.182	49.66
886.354	123.39
886.525	78.33
886.697	131.58
886.869	-3.58
887.04	10.75
887.212	143.87
887.383	78.33
887.555	98.81
887.726	-38.4
887.897	-7.68
888.069	-5.63
888.24	37.38
888.412	31.23
888.583	-85.5
888.754	2.56
888.926	-62.98
889.097	8.7
889.268	-26.11
889.44	41.47
889.611	-67.07
889.782	-54.78
889.953	23.04
890.125	88.57
890.296	0.51
890.467	27.14
890.638	-40.45
890.809	-15.87
890.98	35.33
891.151	27.14
891.323	16.9
891.494	37.38
891.665	27.14
891.836	43.52
892.007	-11.78
892.178	4.61
892.349	47.62
892.52	25.09
892.691	-5.63
892.862	-9.73
893.032	-34.3
893.203	6.66
893.374	-38.4
893.545	74.24
893.716	-3.58
893.887	72.19
894.057	33.28
894.228	-38.4
894.399	-1.54
894.57	33.28
894.74	23.04
894.911	8.7
895.082	57.86
895.253	-36.35
895.423	64
895.594	-15.87
895.764	14.85
895.935	-60.93
896.106	102.91
896.276	-15.87
896.447	53.76
896.617	-34.3
896.788	-34.3
896.958	47.62
897.129	-34.3
897.299	-46.59
897.47	80.38
897.64	78.33
897.81	-26.11
897.981	-46.59
898.151	-5.63
898.322	-9.73
898.492	-65.02
898.662	-48.64
898.832	-7.68
899.003	31.23
899.173	41.47
899.343	-3.58
899.513	-62.98
