Data from USB4F104151__67__13-05-57-601.txt Node

Date: Fri Mar 14 13:05:57 EDT 2025
User: louis
Spectrometer: USB4F10415
Trigger mode: 4
Integration Time (sec): 4.000000E-2
Scans to average: 1
Electric dark correction enabled: true
Nonlinearity correction enabled: false
Boxcar width: 0
XAxis mode: Wavelengths
Number of Pixels in Spectrum: 3648
>>>>>Begin Spectral Data<<<<<
178.204	-197.29
178.424	-197.29
178.644	-197.29
178.864	-260.77
179.084	-96.94
179.304	-33.45
179.524	-72.36
179.744	17.75
179.964	46.42
180.184	17.75
180.404	17.75
180.624	64.85
180.844	-55.98
181.064	9.56
181.283	25.94
181.503	-55.98
181.723	17.75
181.943	-27.31
182.163	38.23
182.383	-84.65
182.602	-37.55
182.822	79.19
183.042	-35.5
183.262	-58.03
183.482	-33.45
183.701	-60.07
183.921	30.04
184.141	48.47
184.361	-25.26
184.58	-6.83
184.8	23.89
185.02	23.89
185.239	25.94
185.459	-60.07
185.679	48.47
185.898	-10.92
186.118	17.75
186.338	-17.07
186.557	15.7
186.777	5.46
186.997	-58.03
187.216	73.04
187.436	140.63
187.655	38.23
187.875	-31.4
188.095	11.61
188.314	89.43
188.534	46.42
188.753	-53.93
188.973	-27.31
189.192	111.96
189.412	66.9
189.631	15.7
189.851	38.23
190.07	58.71
190.29	-8.87
190.509	-35.5
190.729	19.8
190.948	68.95
191.168	124.24
191.387	50.52
191.607	15.7
191.826	40.28
192.045	5.46
192.265	27.99
192.484	-10.92
192.704	-17.07
192.923	11.61
193.142	128.34
193.362	58.71
193.581	111.96
193.8	-6.83
194.02	48.47
194.239	36.18
194.458	34.13
194.678	-53.93
194.897	60.76
195.116	21.85
195.335	-111.27
195.555	11.61
195.774	9.56
195.993	-23.21
196.212	-15.02
196.432	15.7
196.651	30.04
196.87	19.8
197.089	54.61
197.308	99.67
197.528	27.99
197.747	-60.07
197.966	32.08
198.185	54.61
198.404	13.65
198.623	32.08
198.842	48.47
199.062	3.41
199.281	103.76
199.5	7.51
199.719	11.61
199.938	9.56
200.157	71
200.376	60.76
200.595	68.95
200.814	-6.83
201.033	21.85
201.252	32.08
201.471	38.23
201.69	-2.73
201.909	17.75
202.128	116.05
202.347	23.89
202.566	21.85
202.785	-19.11
203.004	-19.11
203.223	185.68
203.442	42.32
203.661	-29.35
203.879	9.56
204.098	91.48
204.317	38.23
204.536	58.71
204.755	15.7
204.974	21.85
205.193	81.24
205.411	128.34
205.63	21.85
205.849	25.94
206.068	-33.45
206.287	21.85
206.505	111.96
206.724	95.57
206.943	-8.87
207.162	5.46
207.381	-19.11
207.599	-37.55
207.818	68.95
208.037	-49.83
208.255	32.08
208.474	38.23
208.693	46.42
208.911	17.75
209.13	66.9
209.349	-25.26
209.567	97.62
209.786	105.81
210.005	73.04
210.223	17.75
210.442	36.18
210.661	30.04
210.879	64.85
211.098	17.75
211.316	-74.41
211.535	71
211.753	-0.68
211.972	68.95
212.191	50.52
212.409	34.13
212.628	68.95
212.846	-33.45
213.065	140.63
213.283	9.56
213.502	-2.73
213.72	-70.31
213.938	120.15
214.157	15.7
214.375	30.04
214.594	-0.68
214.812	27.99
215.031	-15.02
215.249	-6.83
215.467	-21.16
215.686	36.18
215.904	83.28
216.122	38.23
216.341	44.37
216.559	56.66
216.778	60.76
216.996	68.95
217.214	9.56
217.432	21.85
217.651	-12.97
217.869	15.7
218.087	25.94
218.306	17.75
218.524	95.57
218.742	3.41
218.96	5.46
219.179	32.08
219.397	40.28
219.615	204.11
219.833	27.99
220.051	73.04
220.27	21.85
220.488	152.91
220.706	-10.92
220.924	11.61
221.142	-0.68
221.36	64.85
221.578	44.37
221.796	13.65
222.015	75.09
222.233	-43.69
222.451	81.24
222.669	17.75
222.887	-2.73
223.105	-74.41
223.323	40.28
223.541	-8.87
223.759	5.46
223.977	-12.97
224.195	89.43
224.413	87.38
224.631	40.28
224.849	25.94
225.067	46.42
225.285	23.89
225.503	-8.87
225.721	-66.22
225.939	-35.5
226.157	71
226.375	91.48
226.592	46.42
226.81	-17.07
227.028	-27.31
227.246	75.09
227.464	30.04
227.682	40.28
227.9	87.38
228.117	36.18
228.335	13.65
228.553	23.89
228.771	79.19
228.989	73.04
229.206	19.8
229.424	60.76
229.642	17.75
229.86	-49.83
230.077	128.34
230.295	25.94
230.513	144.72
230.731	48.47
230.948	58.71
231.166	99.67
231.384	-2.73
231.601	34.13
231.819	64.85
232.037	-8.87
232.254	-27.31
232.472	46.42
232.689	-2.73
232.907	-2.73
233.125	30.04
233.342	48.47
233.56	-90.79
233.777	13.65
233.995	1.37
234.213	134.48
234.43	-0.68
234.648	9.56
234.865	1.37
235.083	-41.64
235.3	15.7
235.518	-6.83
235.735	32.08
235.953	79.19
236.17	9.56
236.388	-27.31
236.605	56.66
236.822	58.71
237.04	60.76
237.257	13.65
237.475	-41.64
237.692	-8.87
237.909	11.61
238.127	-21.16
238.344	-35.5
238.562	105.81
238.779	-29.35
238.996	-66.22
239.214	-17.07
239.431	111.96
239.648	91.48
239.865	87.38
240.083	89.43
240.3	54.61
240.517	-23.21
240.735	3.41
240.952	3.41
241.169	64.85
241.386	-17.07
241.603	-21.16
241.821	-17.07
242.038	-4.78
242.255	25.94
242.472	7.51
242.689	38.23
242.907	34.13
243.124	5.46
243.341	42.32
243.558	13.65
243.775	1.37
243.992	-19.11
244.209	-37.55
244.426	116.05
244.643	-27.31
244.86	42.32
245.078	21.85
245.295	91.48
245.512	-10.92
245.729	-68.27
245.946	13.65
246.163	-35.5
246.38	-6.83
246.597	3.41
246.814	25.94
247.031	11.61
247.248	-21.16
247.464	21.85
247.681	48.47
247.898	-51.88
248.115	66.9
248.332	-31.4
248.549	50.52
248.766	-15.02
248.983	87.38
249.2	5.46
249.417	38.23
249.633	36.18
249.85	95.57
250.067	-0.68
250.284	32.08
250.501	40.28
250.717	62.8
250.934	-12.97
251.151	66.9
251.368	7.51
251.585	56.66
251.801	15.7
252.018	-33.45
252.235	25.94
252.451	-10.92
252.668	44.37
252.885	109.91
253.102	48.47
253.318	-2.73
253.535	-125.61
253.752	75.09
253.968	-64.17
254.185	-27.31
254.401	-51.88
254.618	46.42
254.835	-21.16
255.051	109.91
255.268	71
255.484	56.66
255.701	-23.21
255.917	25.94
256.134	3.41
256.351	46.42
256.567	-21.16
256.784	58.71
257	21.85
257.217	32.08
257.433	56.66
257.65	83.28
257.866	34.13
258.082	-17.07
258.299	40.28
258.515	54.61
258.732	-21.16
258.948	-6.83
259.165	25.94
259.381	40.28
259.597	46.42
259.814	34.13
260.03	36.18
260.246	-35.5
260.463	120.15
260.679	68.95
260.895	23.89
261.112	13.65
261.328	-2.73
261.544	79.19
261.761	95.57
261.977	50.52
262.193	30.04
262.409	-15.02
262.626	3.41
262.842	25.94
263.058	-25.26
263.274	48.47
263.49	17.75
263.707	66.9
263.923	11.61
264.139	-58.03
264.355	38.23
264.571	15.7
264.787	-19.11
265.004	21.85
265.22	13.65
265.436	-58.03
265.652	27.99
265.868	42.32
266.084	-70.31
266.3	-19.11
266.516	-43.69
266.732	-29.35
266.948	7.51
267.164	-0.68
267.38	62.8
267.596	13.65
267.812	93.52
268.028	95.57
268.244	36.18
268.46	-6.83
268.676	30.04
268.892	-17.07
269.108	9.56
269.324	-31.4
269.54	9.56
269.756	64.85
269.972	-49.83
270.188	15.7
270.403	3.41
270.619	54.61
270.835	15.7
271.051	19.8
271.267	-41.64
271.483	17.75
271.698	21.85
271.914	81.24
272.13	15.7
272.346	44.37
272.562	48.47
272.777	60.76
272.993	-31.4
273.209	25.94
273.425	60.76
273.64	5.46
273.856	73.04
274.072	7.51
274.287	19.8
274.503	52.56
274.719	13.65
274.934	-23.21
275.15	-29.35
275.366	38.23
275.581	46.42
275.797	1.37
276.012	58.71
276.228	15.7
276.444	58.71
276.659	105.81
276.875	23.89
277.09	13.65
277.306	52.56
277.521	9.56
277.737	-21.16
277.952	50.52
278.168	44.37
278.383	-10.92
278.599	75.09
278.814	-0.68
279.03	73.04
279.245	40.28
279.461	75.09
279.676	120.15
279.892	60.76
280.107	25.94
280.322	-53.93
280.538	-21.16
280.753	5.46
280.969	-0.68
281.184	62.8
281.399	79.19
281.615	40.28
281.83	46.42
282.045	-19.11
282.26	-49.83
282.476	-51.88
282.691	66.9
282.906	27.99
283.122	-33.45
283.337	25.94
283.552	75.09
283.767	36.18
283.983	87.38
284.198	50.52
284.413	38.23
284.628	-58.03
284.843	66.9
285.058	62.8
285.274	40.28
285.489	-0.68
285.704	48.47
285.919	66.9
286.134	5.46
286.349	17.75
286.564	19.8
286.779	38.23
286.995	-27.31
287.21	-49.83
287.425	54.61
287.64	103.76
287.855	-39.59
288.07	5.46
288.285	83.28
288.5	3.41
288.715	52.56
288.93	79.19
289.145	-39.59
289.36	42.32
289.575	38.23
289.79	30.04
290.004	32.08
290.219	118.1
290.434	-72.36
290.649	-10.92
290.864	36.18
291.079	-49.83
291.294	15.7
291.509	-10.92
291.724	5.46
291.938	-19.11
292.153	-12.97
292.368	13.65
292.583	5.46
292.798	62.8
293.012	52.56
293.227	25.94
293.442	23.89
293.657	30.04
293.871	46.42
294.086	13.65
294.301	13.65
294.516	111.96
294.73	56.66
294.945	-49.83
295.16	-27.31
295.374	68.95
295.589	79.19
295.804	25.94
296.018	32.08
296.233	95.57
296.447	64.85
296.662	-6.83
296.877	75.09
297.091	68.95
297.306	-8.87
297.52	-4.78
297.735	-8.87
297.949	52.56
298.164	157.01
298.378	-10.92
298.593	-8.87
298.807	-19.11
299.022	-2.73
299.236	60.76
299.451	42.32
299.665	83.28
299.88	1.37
300.094	40.28
300.309	21.85
300.523	52.56
300.737	-8.87
300.952	42.32
301.166	38.23
301.381	34.13
301.595	58.71
301.809	-27.31
302.024	32.08
302.238	48.47
302.452	71
302.667	62.8
302.881	54.61
303.095	140.63
303.309	1.37
303.524	15.7
303.738	54.61
303.952	34.13
304.166	93.52
304.381	-98.99
304.595	75.09
304.809	-27.31
305.023	-2.73
305.237	38.23
305.452	21.85
305.666	73.04
305.88	64.85
306.094	77.14
306.308	111.96
306.522	38.23
306.736	54.61
306.95	32.08
307.164	-19.11
307.379	9.56
307.593	105.81
307.807	40.28
308.021	46.42
308.235	114
308.449	13.65
308.663	79.19
308.877	58.71
309.091	75.09
309.305	-31.4
309.519	5.46
309.733	142.68
309.947	42.32
310.161	48.47
310.374	50.52
310.588	1.37
310.802	-33.45
311.016	66.9
311.23	48.47
311.444	9.56
311.658	30.04
311.872	54.61
312.085	46.42
312.299	89.43
312.513	120.15
312.727	81.24
312.941	-33.45
313.154	50.52
313.368	66.9
313.582	34.13
313.796	11.61
314.009	87.38
314.223	-8.87
314.437	136.53
314.651	50.52
314.864	54.61
315.078	30.04
315.292	32.08
315.505	38.23
315.719	38.23
315.933	79.19
316.146	19.8
316.36	25.94
316.573	101.72
316.787	36.18
317.001	30.04
317.214	99.67
317.428	118.1
317.641	75.09
317.855	-0.68
318.068	38.23
318.282	46.42
318.495	68.95
318.709	32.08
318.922	54.61
319.136	152.91
319.349	89.43
319.563	42.32
319.776	-8.87
319.99	-53.93
320.203	87.38
320.417	3.41
320.63	75.09
320.843	122.2
321.057	34.13
321.27	97.62
321.483	13.65
321.697	38.23
321.91	13.65
322.124	-2.73
322.337	95.57
322.55	-25.26
322.763	71
322.977	-19.11
323.19	11.61
323.403	116.05
323.617	36.18
323.83	3.41
324.043	34.13
324.256	95.57
324.469	5.46
324.683	111.96
324.896	95.57
325.109	-23.21
325.322	52.56
325.535	95.57
325.748	54.61
325.962	38.23
326.175	62.8
326.388	64.85
326.601	42.32
326.814	-2.73
327.027	5.46
327.24	81.24
327.453	7.51
327.666	25.94
327.879	62.8
328.092	60.76
328.305	-21.16
328.518	44.37
328.731	40.28
328.944	19.8
329.157	60.76
329.37	83.28
329.583	124.24
329.796	87.38
330.009	-12.97
330.222	9.56
330.435	75.09
330.648	5.46
330.861	-43.69
331.073	50.52
331.286	15.7
331.499	38.23
331.712	52.56
331.925	56.66
332.138	52.56
332.35	118.1
332.563	17.75
332.776	83.28
332.989	46.42
333.202	32.08
333.414	19.8
333.627	-27.31
333.84	-17.07
334.053	114
334.265	34.13
334.478	1.37
334.691	-2.73
334.903	46.42
335.116	60.76
335.329	66.9
335.541	13.65
335.754	91.48
335.966	13.65
336.179	21.85
336.392	56.66
336.604	73.04
336.817	52.56
337.029	46.42
337.242	54.61
337.454	50.52
337.667	3.41
337.88	62.8
338.092	36.18
338.305	52.56
338.517	23.89
338.729	46.42
338.942	89.43
339.154	-31.4
339.367	9.56
339.579	44.37
339.792	48.47
340.004	71
340.217	-6.83
340.429	38.23
340.641	38.23
340.854	-68.27
341.066	5.46
341.278	105.81
341.491	38.23
341.703	-25.26
341.915	32.08
342.128	89.43
342.34	-2.73
342.552	83.28
342.764	19.8
342.977	30.04
343.189	25.94
343.401	21.85
343.613	-27.31
343.826	-0.68
344.038	9.56
344.25	71
344.462	71
344.674	13.65
344.886	25.94
345.099	105.81
345.311	77.14
345.523	-15.02
345.735	-33.45
345.947	118.1
346.159	68.95
346.371	5.46
346.583	91.48
346.795	109.91
347.007	40.28
347.219	79.19
347.431	46.42
347.643	109.91
347.855	34.13
348.067	56.66
348.279	1.37
348.491	27.99
348.703	30.04
348.915	-19.11
349.127	-10.92
349.339	48.47
349.551	48.47
349.763	116.05
349.975	-33.45
350.187	105.81
350.399	111.96
350.61	54.61
350.822	-23.21
351.034	40.28
351.246	13.65
351.458	44.37
351.669	73.04
351.881	68.95
352.093	206.16
352.305	71
352.517	21.85
352.728	116.05
352.94	32.08
353.152	83.28
353.363	77.14
353.575	-6.83
353.787	89.43
353.999	52.56
354.21	111.96
354.422	46.42
354.633	-0.68
354.845	42.32
355.057	73.04
355.268	34.13
355.48	71
355.692	-19.11
355.903	64.85
356.115	3.41
356.326	-8.87
356.538	126.29
356.749	40.28
356.961	79.19
357.172	48.47
357.384	-15.02
357.595	124.24
357.807	62.8
358.018	13.65
358.23	79.19
358.441	136.53
358.653	13.65
358.864	83.28
359.075	60.76
359.287	30.04
359.498	95.57
359.709	71
359.921	81.24
360.132	46.42
360.344	93.52
360.555	48.47
360.766	-10.92
360.977	-8.87
361.189	54.61
361.4	5.46
361.611	54.61
361.823	56.66
362.034	154.96
362.245	-8.87
362.456	30.04
362.667	-10.92
362.879	34.13
363.09	58.71
363.301	56.66
363.512	11.61
363.723	23.89
363.935	42.32
364.146	34.13
364.357	130.39
364.568	79.19
364.779	17.75
364.99	111.96
365.201	13.65
365.412	202.07
365.623	-23.21
365.834	36.18
366.045	-10.92
366.256	54.61
366.467	60.76
366.678	-23.21
366.889	105.81
367.1	56.66
367.311	64.85
367.522	-43.69
367.733	19.8
367.944	17.75
368.155	42.32
368.366	73.04
368.577	75.09
368.788	118.1
368.999	5.46
369.209	34.13
369.42	105.81
369.631	161.11
369.842	97.62
370.053	11.61
370.264	30.04
370.474	97.62
370.685	42.32
370.896	56.66
371.107	122.2
371.317	105.81
371.528	68.95
371.739	71
371.95	-21.16
372.16	107.86
372.371	15.7
372.582	-35.5
372.792	64.85
373.003	23.89
373.214	75.09
373.424	62.8
373.635	-10.92
373.846	128.34
374.056	54.61
374.267	146.77
374.477	79.19
374.688	48.47
374.898	91.48
375.109	52.56
375.319	79.19
375.53	34.13
375.74	21.85
375.951	30.04
376.161	81.24
376.372	146.77
376.582	58.71
376.793	122.2
377.003	-2.73
377.214	-27.31
377.424	124.24
377.635	56.66
377.845	-10.92
378.055	99.67
378.266	56.66
378.476	62.8
378.686	23.89
378.897	97.62
379.107	144.72
379.317	23.89
379.528	38.23
379.738	19.8
379.948	30.04
380.158	89.43
380.369	71
380.579	81.24
380.789	30.04
380.999	73.04
381.21	79.19
381.42	89.43
381.63	36.18
381.84	167.25
382.05	124.24
382.261	77.14
382.471	73.04
382.681	30.04
382.891	99.67
383.101	30.04
383.311	-41.64
383.521	111.96
383.731	91.48
383.941	103.76
384.151	109.91
384.361	56.66
384.571	73.04
384.781	79.19
384.991	126.29
385.201	146.77
385.411	95.57
385.621	116.05
385.831	111.96
386.041	71
386.251	93.52
386.461	83.28
386.671	54.61
386.881	25.94
387.091	38.23
387.301	81.24
387.511	73.04
387.72	64.85
387.93	99.67
388.14	-82.6
388.35	19.8
388.56	142.68
388.769	118.1
388.979	73.04
389.189	34.13
389.399	134.48
389.609	99.67
389.818	105.81
390.028	62.8
390.238	56.66
390.447	15.7
390.657	89.43
390.867	97.62
391.076	58.71
391.286	46.42
391.496	46.42
391.705	62.8
391.915	144.72
392.125	171.35
392.334	36.18
392.544	91.48
392.753	93.52
392.963	62.8
393.172	126.29
393.382	54.61
393.591	183.63
393.801	23.89
394.01	148.82
394.22	114
394.429	27.99
394.639	-0.68
394.848	46.42
395.058	62.8
395.267	89.43
395.477	134.48
395.686	83.28
395.895	222.55
396.105	210.26
396.314	83.28
396.524	132.44
396.733	114
396.942	187.73
397.152	208.21
397.361	136.53
397.57	77.14
397.78	111.96
397.989	159.06
398.198	245.07
398.407	132.44
398.617	122.2
398.826	75.09
399.035	122.2
399.244	116.05
399.453	154.96
399.663	134.48
399.872	154.96
400.081	120.15
400.29	140.63
400.499	130.39
400.708	195.92
400.917	122.2
401.127	144.72
401.336	87.38
401.545	216.4
401.754	130.39
401.963	183.63
402.172	91.48
402.381	73.04
402.59	81.24
402.799	175.44
403.008	134.48
403.217	161.11
403.426	128.34
403.635	93.52
403.844	214.35
404.053	195.92
404.262	204.11
404.471	238.93
404.68	191.83
404.888	130.39
405.097	116.05
405.306	169.3
405.515	187.73
405.724	177.49
405.933	243.03
406.142	247.12
406.35	238.93
406.559	140.63
406.768	202.07
406.977	324.94
407.185	191.83
407.394	300.37
407.603	185.68
407.812	251.22
408.02	372.05
408.229	222.55
408.438	335.18
408.646	228.69
408.855	228.69
409.064	300.37
409.272	349.52
409.481	349.52
409.69	349.52
409.898	351.57
410.107	423.25
410.315	449.87
410.524	398.67
410.733	464.21
410.941	392.53
411.15	507.21
411.358	447.82
411.567	476.49
411.775	456.01
411.984	552.27
412.192	533.84
412.401	462.16
412.609	660.81
412.818	709.96
413.026	636.24
413.234	548.17
413.443	660.81
413.651	693.58
413.86	705.87
414.068	765.26
414.276	894.28
414.485	750.92
414.693	939.34
414.901	1013.06
415.11	892.23
415.318	916.81
415.526	912.71
415.734	970.05
415.943	1107.27
416.151	1213.76
416.359	1142.08
416.567	1129.8
416.776	1228.1
416.984	1246.53
417.192	1346.88
417.4	1344.83
417.608	1271.11
417.817	1357.12
418.025	1375.55
418.233	1492.29
418.441	1494.33
418.649	1488.19
418.857	1715.52
419.065	1735.99
419.273	1856.82
419.481	1838.39
419.689	1889.59
419.897	1942.84
420.105	1998.13
420.313	2084.15
420.521	2186.55
420.729	2202.93
420.937	2227.51
421.145	2227.51
421.353	2471.22
421.561	2495.79
421.769	2577.71
421.977	2788.65
422.185	2659.63
422.393	2956.58
422.601	3104.04
422.809	3058.98
423.017	3046.69
423.224	3280.16
423.432	3482.91
423.64	3208.48
423.848	3702.04
424.056	3556.64
424.263	3609.89
424.471	3863.83
424.679	4060.44
424.887	4209.94
425.094	4224.28
425.302	4330.77
425.51	4408.59
425.718	4666.64
425.925	4603.15
426.133	4877.58
426.341	5238.02
426.548	5141.77
426.756	5287.17
426.964	5215.49
427.171	5707.01
427.379	5823.74
427.586	6016.25
427.794	6071.54
428.001	6415.6
428.209	6763.76
428.417	6520.05
428.624	6782.19
428.832	7124.2
429.039	6825.2
429.247	7003.37
429.454	7740.64
429.662	8174.81
429.869	7576.8
430.076	8439
430.284	7906.52
430.491	8416.47
430.699	8950.99
430.906	8719.57
431.114	8953.04
431.321	9280.71
431.528	9465.03
431.736	9774.27
431.943	10368.18
432.15	9919.68
432.358	10169.53
432.565	10656.95
432.772	10882.22
432.979	11361.45
433.187	11773.09
433.394	11617.44
433.601	12473.49
433.808	12545.17
434.016	12334.23
434.223	12792.98
434.43	13558.92
434.637	13477
434.844	14093.44
435.052	14646.39
435.259	14290.04
435.466	14709.88
435.673	14263.42
435.88	15506.54
436.087	16061.54
436.294	16188.51
436.501	16039.01
436.708	16098.4
436.915	16737.37
437.122	17560.65
437.329	17427.53
437.537	17976.39
437.743	18365.5
437.95	18299.97
438.157	18893.88
438.364	19768.36
438.571	19538.99
438.778	19928.1
438.985	21388.3
439.192	20771.86
439.399	21574.67
439.606	20855.83
439.813	22377.47
440.02	23389.17
440.227	23112.69
440.433	22873.08
440.64	23712.75
440.847	23387.12
441.054	23630.83
441.261	25885.64
441.467	25179.09
441.674	25828.3
441.881	27095.99
442.088	26608.58
442.294	26250.18
442.501	27175.86
442.708	28085.16
442.914	29080.47
443.121	30135.18
443.328	29367.19
443.534	31249.27
443.741	30667.65
443.948	30102.41
444.154	32316.26
444.361	32258.92
444.568	32248.68
444.774	32271.21
444.981	32840.54
445.187	33297.24
445.394	35363.64
445.6	34669.38
445.807	38308.62
446.013	36588.33
446.22	37104.42
446.426	38535.95
446.633	38826.76
446.839	40084.21
447.046	38810.37
447.252	40635.11
447.459	40614.63
447.665	40782.57
447.871	42296.02
448.078	43903.67
448.284	41642.71
448.491	42898.12
448.697	45068.97
448.903	45494.94
449.11	45556.38
449.316	44966.57
449.522	45912.73
449.728	47166.09
449.935	47135.37
450.141	47327.88
450.347	48482.93
450.553	47141.51
450.76	47669.89
450.966	49316.45
451.172	48587.38
451.378	50014.81
451.584	48988.78
451.791	50242.13
451.997	50117.21
452.203	50512.47
452.409	50733.65
452.615	50373.2
452.821	49224.29
453.027	48181.88
453.233	50938.44
453.44	49181.29
453.646	49433.19
453.852	49803.87
454.058	50399.83
454.264	48740.97
454.47	50029.15
454.676	48702.06
454.882	50297.43
455.088	46074.52
455.294	46664.33
455.5	47450.75
455.705	48181.88
455.911	45896.35
456.117	45210.28
456.323	44599.98
456.529	42603.21
456.735	44303.03
456.941	42918.6
457.147	42642.12
457.352	41323.23
457.558	40801
457.764	40665.83
457.97	39955.19
458.176	39473.91
458.381	39625.46
458.587	37223.2
458.793	37264.16
458.999	35668.79
459.204	37823.25
459.41	36950.82
459.616	34513.73
459.821	34923.33
460.027	34341.71
460.233	33661.78
460.438	32230.25
460.644	32600.93
460.85	30788.48
461.055	30409.61
461.261	30610.31
461.466	28277.67
461.672	27591.6
461.878	29393.81
462.083	27427.76
462.289	27089.85
462.494	26766.27
462.7	25646.03
462.905	24873.95
463.111	25766.86
463.316	25506.77
463.522	24892.38
463.727	24919
463.932	25373.65
464.138	24550.37
464.343	25209.81
464.549	24083.43
464.754	24941.53
464.959	24376.29
465.165	24511.46
465.37	23579.63
465.575	23065.59
465.781	23925.74
465.986	24046.57
466.191	23393.26
466.397	22455.29
466.602	21650.44
466.807	22608.89
467.012	22520.83
467.218	22223.87
467.423	21978.12
467.628	21832.71
467.833	23016.44
468.038	22506.49
468.244	21603.34
468.449	22549.5
468.654	21511.18
468.859	21240.85
469.064	21632.01
469.269	20507.68
469.474	20913.17
469.679	21558.28
469.885	20630.55
470.09	20669.47
470.295	20700.19
470.5	20321.31
470.705	20296.74
470.91	19788.84
471.115	19797.03
471.32	20022.31
471.525	19924.01
471.73	19383.34
471.935	19317.81
472.139	18531.39
472.344	18652.22
472.549	18664.5
472.754	18684.98
472.959	18232.38
473.164	17734.73
473.369	17466.44
473.574	18369.6
473.778	18175.04
473.983	17968.2
474.188	17863.75
474.393	16970.83
474.598	17042.51
474.802	16870.48
475.007	16544.86
475.212	16831.57
475.417	16348.25
475.621	16426.07
475.826	16383.07
476.031	15862.88
476.235	15537.26
476.44	16098.4
476.645	15557.74
476.849	15457.39
477.054	15422.57
477.259	15103.09
477.463	15408.23
477.668	14791.8
477.872	14922.87
478.077	14748.79
478.282	14498.94
478.486	14412.92
478.691	14253.18
478.895	14103.68
479.1	14134.4
479.304	14013.57
479.509	13528.2
479.713	13929.6
479.918	13708.42
480.122	13423.75
480.326	13444.23
480.531	13638.79
480.735	13483.14
480.94	13593.73
481.144	13841.54
481.348	13178
481.553	13327.5
481.757	12874.9
481.961	13221
482.166	13388.94
482.37	13063.31
482.574	12835.99
482.778	12870.8
482.983	13298.83
483.187	13077.65
483.391	13315.21
483.595	13034.64
483.8	12831.89
484.004	13057.17
484.208	13186.19
484.412	13251.72
484.616	13255.82
484.821	12870.8
485.025	12864.66
485.229	13057.17
485.433	12631.19
485.637	13249.68
485.841	12895.38
486.045	12700.82
486.249	12991.63
486.453	12897.42
486.657	12850.32
486.861	12960.91
487.065	12772.5
487.269	12752.02
487.473	12754.07
487.677	13159.56
487.881	13257.87
488.085	13096.08
488.289	13139.08
488.493	12895.38
488.697	13089.93
488.901	13122.7
489.105	13073.55
489.309	13028.49
489.512	13112.46
489.716	13024.4
489.92	13202.57
490.124	13048.97
490.328	13380.75
490.531	12852.37
490.735	13458.57
490.939	13386.89
491.143	13034.64
491.346	13304.97
491.55	13460.62
491.754	13395.08
491.958	13608.07
492.161	13651.08
492.365	13640.84
492.569	13638.79
492.772	13890.69
492.976	14042.24
493.18	13745.28
493.383	13952.13
493.587	14015.62
493.79	14427.26
493.994	14173.31
494.197	14214.27
494.401	14400.63
494.605	14331
494.808	14564.47
495.012	14840.95
495.215	14746.74
495.419	14771.32
495.622	14673.01
495.825	15090.8
496.029	14746.74
496.232	15397.99
496.436	15228.01
496.639	15658.09
496.843	15547.5
497.046	15721.57
497.249	16034.91
497.453	15975.52
497.656	16331.87
497.859	16217.18
498.063	16338.01
498.266	16739.41
498.469	16483.42
498.673	16753.75
498.876	17112.14
499.079	17144.91
499.282	17243.21
499.485	17843.27
499.689	17591.37
499.892	18236.48
500.095	18236.48
500.298	18672.7
500.501	18342.97
500.705	18957.36
500.908	18846.77
501.111	19262.51
501.314	19416.11
501.517	19590.19
501.72	19702.82
501.923	19588.14
502.126	20292.64
502.329	20487.2
502.532	20802.58
502.735	20642.84
502.938	21472.27
503.141	20986.9
503.344	21570.57
503.547	21564.43
503.75	21974.02
503.953	22242.31
504.156	22467.58
504.359	22588.41
504.562	22629.37
504.765	23383.02
504.968	23485.42
505.17	23690.22
505.373	23755.75
505.576	24257.51
505.779	24540.13
505.982	24517.6
506.185	25119.7
506.387	24929.24
506.59	25400.27
506.793	25648.08
506.996	25484.24
507.198	26348.48
507.401	26256.32
507.604	26543.04
507.807	27198.39
508.009	27220.92
508.212	27468.72
508.415	27253.69
508.617	27597.74
508.82	28115.88
509.022	28167.08
509.225	28980.12
509.428	29012.89
509.63	29074.33
509.833	29182.87
510.035	29981.58
510.238	30090.12
510.44	30208.9
510.643	30614.4
510.845	30968.7
511.048	30741.38
511.25	31388.53
511.453	31513.46
511.655	32701.28
511.858	31976.3
512.06	32609.12
512.262	32803.68
512.465	32977.76
512.667	33317.72
512.87	33633.11
513.072	33768.27
513.274	34538.31
513.477	34790.21
513.679	35101.5
513.881	35287.87
514.084	35679.03
514.286	35676.98
514.488	36170.54
514.69	36950.82
514.893	36975.39
515.095	36627.24
515.297	37399.32
515.499	37481.24
515.701	37878.55
515.904	38810.37
516.106	38435.59
516.308	38732.55
516.51	39144.19
516.712	39652.09
516.914	39920.37
517.116	40182.51
517.318	40530.67
517.52	40487.66
517.722	40260.33
517.925	41218.78
518.127	41603.8
518.329	41878.23
518.531	41847.51
518.733	42904.26
518.935	42762.95
519.136	42676.94
519.338	43858.62
519.54	43995.83
519.742	44171.96
519.944	44262.07
520.146	44925.61
520.348	45116.07
520.55	45134.5
520.752	45535.9
520.954	46066.33
521.155	45834.91
521.357	46404.24
521.559	46275.22
521.761	47102.6
521.963	47223.43
522.164	47516.29
522.366	47932.03
522.568	48284.28
522.77	48364.15
522.971	48753.26
523.173	48659.05
523.375	49099.37
523.576	49425
523.778	49525.35
523.98	49785.44
524.181	50233.94
524.383	50070.11
524.584	51124.81
524.786	50432.6
524.988	50289.24
525.189	51282.5
525.391	51542.59
525.592	51622.47
525.794	51698.24
525.995	52163.13
526.197	51503.68
526.398	52064.83
526.6	52644.4
526.801	52709.94
527.003	52867.63
527.204	53107.24
527.406	53379.62
527.607	53140.01
527.808	53565.99
528.01	52972.08
528.211	53385.77
528.412	54303.26
528.614	53785.12
528.815	53905.95
529.016	54882.83
529.218	54073.88
529.419	54604.31
529.62	54303.26
529.822	54499.86
530.023	55312.91
530.224	54809.1
530.425	54684.18
530.626	54450.71
530.828	54526.49
531.029	55259.66
531.23	54284.82
531.431	55011.85
531.632	55400.97
531.833	55194.12
532.035	55003.66
532.236	55597.57
532.437	55577.09
532.638	55382.54
532.839	56062.46
533.04	55790.08
533.241	55443.98
533.442	56451.58
533.643	55478.79
533.844	55446.02
534.045	56068.61
534.246	55419.4
534.447	56343.03
534.648	55966.21
534.849	56164.86
535.05	55620.1
535.251	55884.29
535.451	55577.09
535.652	56066.56
535.853	55712.26
536.054	55988.74
536.255	56287.74
536.456	55220.75
536.657	56171
536.857	56076.8
537.058	55523.85
537.259	56105.47
537.46	55738.88
537.66	55630.34
537.861	55460.36
538.062	55663.11
538.263	55939.58
538.463	55869.95
538.664	55652.87
538.865	56168.96
539.065	55812.61
539.266	55511.56
539.466	56371.71
539.667	55573
539.868	56132.09
540.068	55796.23
540.269	55517.7
540.469	55904.77
540.67	55376.39
540.87	55675.4
541.071	55665.16
541.271	55730.69
541.472	55972.35
541.672	56070.65
541.873	55523.85
542.073	54972.94
542.274	55896.58
542.474	55818.75
542.675	55124.49
542.875	56044.03
543.075	55300.62
543.276	55300.62
543.476	55726.6
543.676	55517.7
543.877	55718.4
544.077	55814.66
544.277	55620.1
544.478	55493.13
544.678	55937.54
544.878	55351.82
545.078	55509.51
545.279	55247.37
545.479	55132.68
545.679	55372.3
545.879	55570.95
546.079	55081.48
546.28	55388.68
546.48	54428.18
546.68	55343.62
546.88	55214.6
547.08	55237.13
547.28	54835.73
547.48	54809.1
547.68	55118.35
547.88	54888.98
548.081	55437.83
548.281	55280.14
548.481	54821.39
548.681	55552.52
548.881	55349.77
549.081	54899.22
549.28	54684.18
549.48	55357.96
549.68	54831.63
549.88	55636.48
550.08	54710.8
550.28	55265.8
550.48	54604.31
550.68	55142.92
550.88	54850.06
551.08	55079.44
551.279	54762
551.479	54559.25
551.679	55061.01
551.879	54794.77
552.079	54927.89
552.278	54663.7
552.478	54700.56
552.678	54878.74
552.878	54774.29
553.077	54385.18
553.277	54037.02
553.477	55218.7
553.676	54655.51
553.876	54395.42
554.076	54444.57
554.275	54405.66
554.475	53717.54
554.674	54090.27
554.874	54354.46
555.074	53778.98
555.273	54348.31
555.473	54422.04
555.672	53764.64
555.872	54274.59
556.071	54104.6
556.271	54403.61
556.47	53951.01
556.67	53738.02
556.869	54049.31
557.068	54120.99
557.268	53783.07
557.467	53688.87
557.667	54063.64
557.866	54024.73
558.065	53611.04
558.265	53613.09
558.464	53600.8
558.663	53606.95
558.863	52937.26
559.062	54041.12
559.261	53234.22
559.461	53770.78
559.66	52603.44
559.859	53027.37
560.058	52564.53
560.258	53060.14
560.457	52390.45
560.656	53135.91
560.855	52697.65
561.054	52892.21
561.253	52267.58
561.453	52636.21
561.652	52978.22
561.851	52777.52
562.05	52251.19
562.249	51991.1
562.448	52453.94
562.647	52249.14
562.846	52122.17
563.045	52210.23
563.244	51462.72
563.443	52896.3
563.642	51835.45
563.841	51767.87
564.04	51530.31
564.239	51667.52
564.438	51061.32
564.637	51905.09
564.836	51733.06
565.035	51235.4
565.234	51284.55
565.432	50946.64
565.631	50797.13
565.83	50971.21
566.029	50819.66
566.228	50743.89
566.427	50930.25
566.625	50790.99
566.824	50395.73
567.023	51122.76
567.222	49769.05
567.42	50455.12
567.619	50360.92
567.818	50178.65
568.016	49934.94
568.215	50430.55
568.414	49517.15
568.612	50289.24
568.811	49373.8
569.01	49713.76
569.208	48861.8
569.407	49629.79
569.605	48992.87
569.804	49476.19
570.002	48790.12
570.201	49443.43
570.4	48880.24
570.598	48775.79
570.797	48165.49
570.995	48984.68
571.193	48116.34
571.392	48714.35
571.59	48642.67
571.789	48067.19
571.987	48048.76
572.186	47970.94
572.384	48044.66
572.582	48396.91
572.781	48337.52
572.979	47135.37
573.177	47706.75
573.376	47946.36
573.574	47526.53
573.772	47118.98
573.971	47020.68
574.169	47014.54
574.367	47161.99
574.565	47235.72
574.763	46629.52
574.962	46637.71
575.16	46766.73
575.358	46615.18
575.556	46047.89
575.754	46862.99
575.952	46111.38
576.151	46117.53
576.349	46164.63
576.547	46133.91
576.745	45769.37
576.943	45632.16
577.141	45535.9
577.339	45697.69
577.537	45540
577.735	45189.8
577.933	45329.06
578.131	45253.28
578.329	44618.41
578.527	44536.49
578.725	44817.07
578.923	45116.07
579.121	44690.09
579.319	44350.13
579.516	44970.66
579.714	44452.53
579.912	43956.92
580.11	44167.86
580.308	44174
580.506	44391.09
580.704	43104.96
580.901	43729.59
581.099	44036.79
581.297	43459.26
581.495	43532.99
581.692	43557.56
581.89	42980.04
582.088	43571.9
582.285	42924.74
582.483	43268.8
582.681	42701.51
582.878	42932.93
583.076	42296.02
583.274	42767.05
583.471	42111.7
583.669	42560.2
583.866	41966.29
584.064	42123.99
584.262	41915.09
584.459	42273.49
584.657	42001.11
584.854	42074.84
585.052	41534.17
585.249	41683.67
585.447	41429.73
585.644	41042.66
585.841	41556.7
586.039	41698.01
586.236	40893.16
586.434	40960.74
586.631	40854.25
586.828	40819.43
587.026	41122.53
587.223	40342.25
587.42	40289.01
587.618	40377.07
587.815	39899.89
588.012	40125.17
588.21	40071.92
588.407	40200.94
588.604	39566.07
588.801	39482.11
588.999	39631.61
589.196	39793.4
589.393	39781.11
589.59	39230.21
589.787	39142.14
589.984	38980.35
590.182	38480.65
590.379	39312.13
590.576	38583.05
590.773	38509.32
590.97	38542.09
591.167	38699.78
591.364	38251.28
591.561	38458.12
591.758	37911.31
591.955	37892.88
592.152	38183.69
592.349	37643.03
592.546	37712.66
592.743	38093.58
592.94	37118.75
593.137	37346.08
593.334	37731.09
593.531	36936.48
593.727	37335.84
593.924	37016.35
594.121	36635.43
594.318	37325.6
594.515	36332.33
594.712	37057.31
594.908	36500.26
595.105	36485.93
595.302	36287.28
595.499	36254.51
595.696	35896.11
595.892	35871.54
596.089	35947.31
596.286	35746.61
596.482	35572.53
596.679	35998.51
596.876	35679.03
597.072	35222.33
597.269	35398.46
597.466	34976.58
597.662	35076.93
597.859	34992.96
598.055	35394.36
598.252	34495.3
598.448	34521.93
598.645	34542.41
598.841	34048.85
599.038	34286.41
599.234	34433.86
599.431	33758.03
599.627	33592.15
599.824	34200.4
600.02	34085.71
600.217	34214.73
600.413	33837.9
600.609	33864.53
600.806	33082.2
601.002	33403.74
601.198	33344.34
601.395	32975.71
601.591	33078.11
601.787	33076.06
601.984	33051.49
602.18	33174.36
602.376	32688.99
602.572	32621.41
602.769	32512.87
602.965	32281.45
603.161	32473.96
603.357	32183.15
603.553	32217.96
603.75	32205.67
603.946	31859.57
604.142	32336.74
604.338	31548.28
604.534	31832.94
604.73	31675.25
604.926	31636.34
605.122	31822.7
605.318	31193.98
605.514	31507.32
605.71	30856.06
605.906	31056.76
606.102	31323
606.298	31142.78
606.494	30919.55
606.69	30976.89
606.886	30700.42
607.082	30241.67
607.278	31189.88
607.474	30067.59
607.67	30931.84
607.866	30147.47
608.062	30428.04
608.257	30040.97
608.453	30110.6
608.649	30196.62
608.845	30104.46
609.041	29954.96
609.236	29879.18
609.432	29891.47
609.628	29641.62
609.824	29451.16
610.019	29492.12
610.215	29719.44
610.411	29553.55
610.606	29428.63
610.802	29574.03
610.998	29518.74
611.193	29397.91
611.389	29361.05
611.584	29162.39
611.78	28951.45
611.976	28988.31
612.171	28953.5
612.367	28851.1
612.562	28855.2
612.758	28521.38
612.953	28519.33
613.149	29283.22
613.344	28646.3
613.539	28844.96
613.735	28470.18
613.93	28828.57
614.126	28623.78
614.321	28765.09
614.517	28513.19
614.712	28480.42
614.907	28122.02
615.103	28435.36
615.298	27868.08
615.493	28570.53
615.688	28183.46
615.884	28519.33
616.079	27835.31
616.274	28351.4
616.47	28275.62
616.665	28181.42
616.86	27812.78
617.055	27749.29
617.25	27497.39
617.445	27782.06
617.641	27460.53
617.836	27347.89
618.031	27212.73
618.226	27300.79
618.421	27118.52
618.616	27442.1
618.811	26944.44
619.006	27274.17
619.201	26469.31
619.396	26536.9
619.591	26239.94
619.786	26778.56
619.981	26244.04
620.176	26538.94
620.371	25822.16
620.566	26115.01
620.761	26016.71
620.956	26178.5
621.151	25699.28
621.346	25912.27
621.541	25439.19
621.735	25828.3
621.93	25052.12
622.125	25424.85
622.32	24531.93
622.515	25138.13
622.709	24953.82
622.904	24884.19
623.099	24880.09
623.294	24613.85
623.488	24699.87
623.683	24415.2
623.878	23835.63
624.072	24392.67
624.267	24191.97
624.462	23591.92
624.656	23761.9
624.851	23571.44
625.046	23604.21
625.24	23241.71
625.435	23229.43
625.629	23208.95
625.824	22805.5
626.018	23051.25
626.213	22395.9
626.407	22635.52
626.602	22385.66
626.796	22606.84
626.991	22473.73
627.185	22262.79
627.38	21842.95
627.574	21894.15
627.768	21859.34
627.963	21609.48
628.157	21156.88
628.352	21677.07
628.546	20859.93
628.74	21402.64
628.935	21212.18
629.129	21242.9
629.323	20853.78
629.517	20757.53
629.712	20730.9
629.906	20562.97
630.1	20220.96
630.294	20112.42
630.489	20327.46
630.683	20274.21
630.877	19915.81
631.071	19756.07
631.265	19876.9
631.459	19981.35
631.653	19575.85
631.848	19475.5
632.042	19545.13
632.236	19268.66
632.43	19125.3
632.624	19244.08
632.818	18826.29
633.012	18848.82
633.206	18644.02
633.4	19037.23
633.594	18496.57
633.788	18566.2
633.982	18437.18
634.176	18363.45
634.369	18527.29
634.563	18175.04
634.757	17843.27
634.951	18138.18
635.145	18031.68
635.339	18058.31
635.533	17581.13
635.726	17562.7
635.92	17441.87
636.114	17572.94
636.308	17267.79
636.501	17458.25
636.695	17480.78
636.889	17032.27
637.083	16958.55
637.276	16716.89
637.47	16837.72
637.664	16694.36
637.857	16540.76
638.051	16680.02
638.244	16471.13
638.438	16407.64
638.632	16311.39
638.825	16028.77
639.019	16186.46
639.212	16092.26
639.406	15887.46
639.599	16024.67
639.793	15869.03
639.986	15590.5
640.18	15537.26
640.373	15830.12
640.567	15412.33
640.76	15365.23
640.954	15365.23
641.147	15180.91
641.34	15230.06
641.534	15178.86
641.727	15045.74
641.92	15203.44
642.114	14756.98
642.307	14664.82
642.5	14890.1
642.694	14464.12
642.887	14423.16
643.08	14591.09
643.273	14177.4
643.467	14136.45
643.66	14341.24
643.853	14146.69
644.046	13948.03
644.239	13929.6
644.432	13816.96
644.626	13821.06
644.819	13771.91
645.012	13657.22
645.205	13735.04
645.398	13767.81
645.591	13827.2
645.784	13345.93
645.977	13259.91
646.17	13345.93
646.363	13126.8
646.556	13059.21
646.749	13319.31
646.942	13124.75
647.135	12838.03
647.328	12903.57
647.521	12821.65
647.714	12700.82
647.907	12762.26
648.099	12727.44
648.292	12641.43
648.485	12674.2
648.678	12356.76
648.871	12272.79
649.064	12260.51
649.256	12457.11
649.449	12008.61
649.642	12164.25
649.835	11986.08
650.027	12162.2
650.22	12135.58
650.413	11906.21
650.605	11967.65
650.798	11736.23
650.991	11594.92
651.183	11619.49
651.376	11578.53
651.568	11476.13
651.761	11568.29
651.954	11416.74
652.146	11267.24
652.339	11467.94
652.531	11357.35
652.724	11142.32
652.916	11113.64
653.109	11035.82
653.301	11164.84
653.494	11084.97
653.686	10902.7
653.879	10890.42
654.071	11035.82
654.263	10704.05
654.456	10636.47
654.648	10712.24
654.84	10476.73
655.033	10415.29
655.225	10675.38
655.417	10333.37
655.61	10734.77
655.802	10308.79
655.994	10593.46
656.186	10249.4
656.379	10353.85
656.571	10069.18
656.763	10083.52
656.955	10005.69
657.148	10048.7
657.34	9848
657.532	9622.72
657.724	9825.47
657.916	9788.61
658.108	9817.28
658.3	9768.13
658.492	9868.48
658.684	9608.39
658.876	9536.71
659.068	9594.05
659.26	9399.49
659.452	9450.69
659.644	9393.35
659.836	9225.42
660.028	9424.07
660.22	9053.39
660.412	9088.2
660.604	9024.72
660.796	9065.67
660.988	9172.17
661.18	8991.95
661.372	8920.27
661.563	9018.57
661.755	8903.89
661.947	8766.67
662.139	8756.43
662.331	8922.32
662.522	8660.18
662.714	8426.71
662.906	8492.24
663.097	8590.55
663.289	8367.32
663.481	8400.09
663.673	8516.82
663.864	8414.42
664.056	8330.45
664.247	8344.79
664.439	8183
664.631	8293.59
664.822	8342.74
665.014	8242.39
665.205	8211.67
665.397	8025.31
665.588	7902.43
665.78	7935.2
665.971	7924.96
666.163	7970.01
666.354	7965.92
666.546	7927
666.737	7974.11
666.929	7967.96
667.12	7793.89
667.311	7818.46
667.503	7683.3
667.694	7814.37
667.885	7802.08
668.077	7689.44
668.268	7488.74
668.459	7658.72
668.651	7378.15
668.842	7628
669.033	7435.49
669.224	7425.25
669.416	7486.69
669.607	7423.2
669.798	7331.05
669.989	7640.29
670.18	7322.85
670.371	7388.39
670.563	7369.96
670.754	7310.57
670.945	7242.98
671.136	7269.61
671.327	7271.65
671.518	7107.82
671.709	7331.05
671.9	7199.98
672.091	7152.87
672.282	7027.95
672.473	7204.07
672.664	7003.37
672.855	6962.41
673.046	6921.45
673.237	7191.78
673.428	6991.08
673.619	7058.67
673.809	6862.06
674	7007.47
674.191	6843.63
674.382	6839.53
674.573	6755.57
674.764	6935.79
674.954	6741.23
675.145	6536.43
675.336	6774
675.527	6706.41
675.717	6798.57
675.908	6628.59
676.099	6853.87
676.289	6733.04
676.48	6702.32
676.671	6718.7
676.861	6599.92
677.052	6483.19
677.243	6814.96
677.433	6610.16
677.624	6677.74
677.814	6694.13
678.005	6798.57
678.195	6786.29
678.386	6722.8
678.576	6483.19
678.767	6534.39
678.957	6501.62
679.148	6606.06
679.338	6452.47
679.529	6495.47
679.719	6423.8
679.909	6542.58
680.1	6511.86
680.29	6579.44
680.481	6534.39
680.671	6458.61
680.861	6305.01
681.052	6544.63
681.242	6479.09
681.432	6497.52
681.622	6448.37
681.813	6307.06
682.003	6583.54
682.193	6221.05
682.383	6354.16
682.573	6518
682.764	6321.4
682.954	6294.77
683.144	6477.04
683.334	6348.02
683.524	6235.38
683.714	6296.82
683.904	6143.22
684.094	6274.29
684.284	6118.65
684.474	6341.88
684.664	6380.79
684.854	6112.5
685.044	6077.69
685.234	6063.35
685.424	5938.43
685.614	6214.9
685.804	6120.7
685.994	5856.51
686.184	6122.74
686.374	5940.47
686.564	6020.35
686.753	6182.13
686.943	5606.66
687.133	5917.95
687.323	5838.08
687.513	5934.33
687.702	5741.82
687.892	5659.9
688.082	5727.49
688.272	5659.9
688.461	5713.15
688.651	5704.96
688.841	5643.52
689.03	5580.03
689.22	5477.63
689.41	5479.68
689.599	5545.22
689.789	5643.52
689.979	5395.72
690.168	5408
690.358	5485.83
690.547	5373.19
690.737	5305.6
690.926	5338.37
691.116	5250.31
691.305	5410.05
691.495	5164.29
691.684	5162.25
691.874	5238.02
692.063	5147.91
692.252	5039.37
692.442	5260.55
692.631	5033.22
692.82	5082.38
693.01	4969.74
693.199	4986.12
693.388	4945.16
693.578	4920.59
693.767	4803.85
693.956	4840.72
694.146	4928.78
694.335	4779.28
694.524	4803.85
694.713	4810
694.902	4646.16
695.092	4832.52
695.281	4697.36
695.47	4699.41
695.659	4672.78
695.848	4637.97
696.037	4580.62
696.226	4734.22
696.415	4584.72
696.604	4742.41
696.793	4633.87
696.982	4521.23
697.171	4652.3
697.36	4521.23
697.549	4515.09
697.738	4523.28
697.927	4453.65
698.116	4568.34
698.305	4560.14
698.494	4547.86
698.683	4560.14
698.872	4455.7
699.061	4480.27
699.25	4418.83
699.438	4334.87
699.627	4422.93
699.816	4465.94
700.005	4424.98
700.193	4287.76
700.382	4367.63
700.571	4445.46
700.76	4357.39
700.948	4355.35
701.137	4267.28
701.326	4357.39
701.514	4285.72
701.703	4504.85
701.892	4334.87
702.08	4324.63
702.269	4263.19
702.457	4183.32
702.646	4371.73
702.834	4283.67
703.023	4306.2
703.212	4447.51
703.4	4279.57
703.589	4246.8
703.777	4289.81
703.965	4142.36
704.154	4332.82
704.342	4191.51
704.531	4214.04
704.719	4101.4
704.907	4283.67
705.096	4168.98
705.284	4191.51
705.472	4293.91
705.661	4230.42
705.849	4070.68
706.037	4259.09
706.226	4216.09
706.414	4193.56
706.602	4183.32
706.79	4175.13
706.979	4275.48
707.167	4236.56
707.355	4117.78
707.543	4211.99
707.731	4240.66
707.919	4150.55
708.107	4230.42
708.296	4168.98
708.484	4070.68
708.672	4269.33
708.86	4205.85
709.048	4263.19
709.236	4056.34
709.424	4175.13
709.612	4187.41
709.8	4166.93
709.988	4242.71
710.176	4211.99
710.364	4259.09
710.551	4130.07
710.739	4246.8
710.927	4211.99
711.115	4205.85
711.303	4171.03
711.491	4216.09
711.679	4226.32
711.866	4193.56
712.054	4228.37
712.242	4228.37
712.43	4336.92
712.617	4187.41
712.805	4199.7
712.993	4138.26
713.181	4091.16
713.368	4168.98
713.556	4187.41
713.744	4211.99
713.931	4377.87
714.119	4226.32
714.306	4324.63
714.494	4308.24
714.682	4171.03
714.869	4166.93
715.057	4349.2
715.244	4293.91
715.432	4338.96
715.619	4293.91
715.807	4250.9
715.994	4314.39
716.182	4439.31
716.369	4314.39
716.556	4392.21
716.744	4121.88
716.931	4400.4
717.119	4388.11
717.306	4347.15
717.493	4341.01
717.681	4371.73
717.868	4265.24
718.055	4304.15
718.242	4228.37
718.43	4365.59
718.617	4406.55
718.804	4234.52
718.991	4330.77
719.179	4390.16
719.366	4322.58
719.553	4279.57
719.74	4353.3
719.927	4424.98
720.114	4388.11
720.301	4330.77
720.488	4168.98
720.676	4379.92
720.863	4439.31
721.05	4336.92
721.237	4510.99
721.424	4291.86
721.611	4451.6
721.798	4185.37
721.985	4298
722.172	4431.12
722.358	4369.68
722.545	4406.55
722.732	4285.72
722.919	4506.9
723.106	4484.37
723.293	4457.75
723.48	4488.46
723.667	4408.59
723.853	4416.79
724.04	4461.84
724.227	4390.16
724.414	4488.46
724.6	4386.07
724.787	4599.06
724.974	4439.31
725.161	4447.51
725.347	4363.54
725.534	4388.11
725.72	4506.9
725.907	4455.7
726.094	4463.89
726.28	4431.12
726.467	4439.31
726.653	4519.18
726.84	4486.42
727.027	4486.42
727.213	4412.69
727.4	4412.69
727.586	4334.87
727.773	4431.12
727.959	4396.31
728.145	4390.16
728.332	4490.51
728.518	4531.47
728.705	4437.27
728.891	4502.8
729.077	4568.34
729.264	4551.95
729.45	4488.46
729.636	4662.54
729.823	4599.06
730.009	4420.88
730.195	4533.52
730.382	4605.2
730.568	4486.42
730.754	4535.57
730.94	4472.08
731.126	4654.35
731.313	4631.82
731.499	4556.05
731.685	4515.09
731.871	4590.86
732.057	4562.19
732.243	4412.69
732.429	4510.99
732.615	4670.73
732.801	4424.98
732.987	4603.15
733.173	4642.06
733.359	4439.31
733.545	4494.61
733.731	4424.98
733.917	4625.68
734.103	4603.15
734.289	4521.23
734.475	4510.99
734.661	4732.17
734.847	4658.45
735.033	4570.38
735.219	4549.9
735.404	4560.14
735.59	4662.54
735.776	4529.42
735.962	4474.13
736.148	4523.28
736.333	4658.45
736.519	4486.42
736.705	4572.43
736.89	4408.59
737.076	4431.12
737.262	4402.45
737.447	4510.99
737.633	4535.57
737.819	4558.1
738.004	4435.22
738.19	4402.45
738.375	4379.92
738.561	4457.75
738.747	4396.31
738.932	4441.36
739.118	4457.75
739.303	4279.57
739.489	4355.35
739.674	4445.46
739.859	4351.25
740.045	4449.55
740.23	4384.02
740.416	4379.92
740.601	4396.31
740.786	4291.86
740.972	4232.47
741.157	4316.44
741.342	4111.64
741.528	4224.28
741.713	4242.71
741.898	4252.95
742.084	4306.2
742.269	4185.37
742.454	4277.52
742.639	4095.25
742.824	4058.39
743.01	4248.85
743.195	4267.28
743.38	4187.41
743.565	4035.86
743.75	4039.96
743.935	4015.38
744.12	3964.18
744.305	4027.67
744.49	4089.11
744.675	3814.68
744.86	4023.58
745.045	3978.52
745.23	3902.75
745.415	3773.72
745.6	3955.99
745.785	3853.59
745.97	3994.9
746.155	3941.66
746.34	3902.75
746.525	3751.2
746.71	3818.78
746.895	3831.07
747.079	3781.92
747.264	3775.77
747.449	3753.24
747.634	3636.51
747.819	3796.25
748.003	3681.57
748.188	3587.36
748.373	3685.66
748.557	3661.09
748.742	3603.74
748.927	3509.54
749.111	3517.73
749.296	3597.6
749.481	3478.82
749.665	3448.1
749.85	3388.71
750.034	3523.87
750.219	3431.71
750.404	3345.7
750.588	3251.49
750.773	3407.14
750.957	3388.71
751.141	3325.22
751.326	3271.97
751.51	3204.39
751.695	3216.68
751.879	3216.68
752.064	3413.28
752.248	3106.09
752.432	3274.02
752.617	3179.81
752.801	3202.34
752.985	3149.09
753.17	3091.75
753.354	3028.26
753.538	3058.98
753.722	2944.3
753.907	2946.34
754.091	2864.43
754.275	2979.11
754.459	2817.32
754.643	2868.52
754.828	2938.15
755.012	2843.95
755.196	2800.94
755.38	2774.31
755.564	2676.01
755.748	2678.06
755.932	2770.22
756.116	2710.83
756.3	2745.64
756.484	2649.39
756.668	2643.24
756.852	2534.7
757.036	2727.21
757.22	2569.52
757.404	2485.55
757.588	2526.51
757.772	2479.41
757.956	2450.74
758.14	2633.01
758.323	2456.88
758.507	2522.41
758.691	2436.4
758.875	2399.54
759.059	2499.89
759.242	2352.43
759.426	2364.72
759.61	2348.34
759.794	2366.77
759.977	2362.67
760.161	2434.35
760.345	2358.58
760.528	2262.32
760.712	2364.72
760.895	2325.81
761.079	2297.14
761.263	2233.65
761.446	2121.01
761.63	2192.69
761.813	2231.6
761.997	2231.6
762.18	2194.74
762.364	2106.68
762.547	2078.01
762.731	2141.49
762.914	2186.55
763.098	2149.68
763.281	2080.05
763.464	2082.1
763.648	2055.48
763.831	2045.24
764.015	1991.99
764.198	2014.52
764.381	1948.98
764.564	2151.73
764.748	1957.18
764.931	2039.09
765.114	1996.09
765.297	2037.05
765.481	1967.42
765.664	2014.52
765.847	1942.84
766.03	1942.84
766.213	1989.94
766.397	1862.97
766.58	1918.26
766.763	1983.8
766.946	1838.39
767.129	1828.15
767.312	1922.36
767.495	1850.68
767.678	1879.35
767.861	1875.26
768.044	1828.15
768.227	1924.41
768.41	1809.72
768.593	1848.63
768.776	1840.44
768.959	1807.67
769.142	1844.54
769.324	1789.24
769.507	1877.3
769.69	1776.95
769.873	1729.85
770.056	1951.03
770.239	1752.38
770.421	1774.91
770.604	1688.89
770.787	1695.04
770.97	1824.06
771.152	1692.99
771.335	1670.46
771.518	1654.08
771.7	1629.5
771.883	1764.67
772.066	1623.36
772.248	1733.95
772.431	1670.46
772.613	1613.12
772.796	1611.07
772.978	1629.5
773.161	1600.83
773.343	1588.54
773.526	1469.76
773.708	1520.96
773.891	1471.81
774.073	1520.96
774.256	1549.63
774.438	1625.4
774.621	1496.38
774.803	1488.19
774.985	1443.14
775.168	1500.48
775.35	1410.37
775.532	1520.96
775.715	1424.7
775.897	1414.46
776.079	1488.19
776.261	1484.09
776.444	1418.56
776.626	1391.94
776.808	1402.18
776.99	1285.44
777.173	1363.26
777.355	1275.2
777.537	1355.07
777.719	1314.11
777.901	1289.54
778.083	1299.78
778.265	1234.24
778.447	1330.5
778.629	1150.28
778.811	1236.29
778.993	1221.95
779.175	1254.72
779.357	1252.67
779.539	1189.19
779.721	1201.47
779.903	1236.29
780.085	1236.29
780.267	1121.6
780.449	1181
780.631	1174.85
780.812	1211.71
780.994	1054.02
781.176	1162.56
781.358	1137.99
781.54	1045.83
781.721	1166.66
781.903	1127.75
782.085	1064.26
782.267	1164.61
782.448	1025.35
782.63	1037.64
782.812	1086.79
782.993	1082.69
783.175	1015.11
783.357	1074.5
783.538	998.73
783.72	1041.73
783.901	912.71
784.083	970.05
784.264	998.73
784.446	1008.97
784.627	896.33
784.809	877.9
784.99	935.24
785.172	959.81
785.353	888.14
785.535	920.9
785.716	857.42
785.897	879.94
786.079	890.18
786.26	918.86
786.441	881.99
786.623	810.31
786.804	822.6
786.985	873.8
787.167	853.32
787.348	896.33
787.529	826.7
787.71	927.05
787.891	879.94
788.073	752.97
788.254	759.11
788.435	863.56
788.616	750.92
788.797	720.2
788.978	824.65
789.159	656.72
789.34	798.03
789.522	746.83
789.703	730.44
789.884	732.49
790.065	687.43
790.246	709.96
790.427	752.97
790.607	781.64
790.788	662.86
790.969	685.39
791.15	714.06
791.331	679.24
791.512	662.86
791.693	632.14
791.874	615.76
792.054	712.01
792.235	654.67
792.416	605.52
792.597	619.85
792.778	644.43
792.958	636.24
793.139	664.91
793.32	654.67
793.5	523.6
793.681	613.71
793.862	589.13
794.042	585.04
794.223	576.84
794.404	619.85
794.584	537.93
794.765	499.02
794.945	595.28
795.126	599.37
795.306	548.17
795.487	589.13
795.667	595.28
795.848	548.17
796.028	482.64
796.209	572.75
796.389	556.36
796.57	474.45
796.75	599.37
796.93	574.8
797.111	472.4
797.291	456.01
797.471	546.12
797.652	476.49
797.832	433.49
798.012	523.6
798.192	494.93
798.373	544.08
798.553	486.73
798.733	503.12
798.913	472.4
799.093	531.79
799.274	509.26
799.454	427.34
799.634	556.36
799.814	476.49
799.994	521.55
800.174	554.32
800.354	480.59
800.534	378.19
800.714	458.06
800.894	480.59
801.074	435.53
801.254	472.4
801.434	482.64
801.614	396.62
801.794	318.8
801.974	1258.82
802.154	427.34
802.334	456.01
802.514	468.3
802.693	398.67
802.873	374.1
803.053	494.93
803.233	372.05
803.413	396.62
803.592	464.21
803.772	406.86
803.952	376.14
804.131	347.47
804.311	386.38
804.491	361.81
804.67	322.9
804.85	390.48
805.03	408.91
805.209	505.17
805.389	425.29
805.568	343.38
805.748	378.19
805.928	382.29
806.107	408.91
806.287	347.47
806.466	382.29
806.646	370
806.825	431.44
807.004	372.05
807.184	402.77
807.363	474.45
807.543	355.66
807.722	367.95
807.901	408.91
808.081	425.29
808.26	249.17
808.439	363.86
808.619	382.29
808.798	394.58
808.977	302.42
809.156	376.14
809.336	365.9
809.515	382.29
809.694	322.9
809.873	370
810.052	347.47
810.231	386.38
810.411	363.86
810.59	320.85
810.769	238.93
810.948	331.09
811.127	300.37
811.306	267.6
811.485	249.17
811.664	361.81
811.843	335.18
812.022	214.35
812.201	296.27
812.38	261.46
812.559	300.37
812.737	351.57
812.916	234.83
813.095	300.37
813.274	329.04
813.453	279.89
813.632	333.14
813.811	302.42
813.989	236.88
814.168	216.4
814.347	286.03
814.526	265.55
814.704	351.57
814.883	322.9
815.062	275.79
815.24	359.76
815.419	316.75
815.598	283.99
815.776	179.54
815.955	302.42
816.133	236.88
816.312	216.4
816.49	228.69
816.669	283.99
816.847	304.46
817.026	255.31
817.204	306.51
817.383	175.44
817.561	157.01
817.74	259.41
817.918	243.03
818.097	208.21
818.275	210.26
818.453	271.7
818.632	273.75
818.81	236.88
818.988	195.92
819.167	234.83
819.345	204.11
819.523	193.87
819.701	148.82
819.879	177.49
820.058	212.31
820.236	240.98
820.414	161.11
820.592	187.73
820.77	259.41
820.948	210.26
821.127	193.87
821.305	288.08
821.483	175.44
821.661	240.98
821.839	206.16
822.017	193.87
822.195	206.16
822.373	261.46
822.551	210.26
822.729	224.59
822.907	154.96
823.085	234.83
823.262	185.68
823.44	226.64
823.618	195.92
823.796	245.07
823.974	128.34
824.152	169.3
824.329	159.06
824.507	177.49
824.685	214.35
824.863	197.97
825.04	234.83
825.218	210.26
825.396	169.3
825.574	142.68
825.751	179.54
825.929	163.15
826.107	103.76
826.284	150.87
826.462	263.51
826.639	118.1
826.817	60.76
826.994	226.64
827.172	167.25
827.349	136.53
827.527	204.11
827.704	152.91
827.882	206.16
828.059	218.45
828.237	101.72
828.414	163.15
828.591	120.15
828.769	136.53
828.946	116.05
829.124	177.49
829.301	210.26
829.478	97.62
829.655	185.68
829.833	68.95
830.01	42.32
830.187	173.39
830.364	114
830.542	87.38
830.719	169.3
830.896	114
831.073	167.25
831.25	134.48
831.427	128.34
831.604	163.15
831.782	138.58
831.959	187.73
832.136	58.71
832.313	126.29
832.49	81.24
832.667	146.77
832.844	107.86
833.021	283.99
833.198	79.19
833.374	83.28
833.551	200.02
833.728	95.57
833.905	212.31
834.082	97.62
834.259	146.77
834.436	193.87
834.612	54.61
834.789	177.49
834.966	140.63
835.143	159.06
835.319	83.28
835.496	177.49
835.673	152.91
835.85	132.44
836.026	126.29
836.203	99.67
836.38	95.57
836.556	68.95
836.733	144.72
836.909	138.58
837.086	101.72
837.262	44.37
837.439	111.96
837.616	91.48
837.792	109.91
837.968	120.15
838.145	5.46
838.321	107.86
838.498	99.67
838.674	38.23
838.851	54.61
839.027	66.9
839.203	97.62
839.38	46.42
839.556	87.38
839.732	124.24
839.909	68.95
840.085	130.39
840.261	128.34
840.437	79.19
840.614	179.54
840.79	136.53
840.966	114
841.142	118.1
841.318	40.28
841.494	140.63
841.671	48.47
841.847	32.08
842.023	105.81
842.199	130.39
842.375	109.91
842.551	54.61
842.727	73.04
842.903	171.35
843.079	54.61
843.255	79.19
843.431	21.85
843.607	83.28
843.783	81.24
843.959	71
844.134	118.1
844.31	122.2
844.486	58.71
844.662	9.56
844.838	95.57
845.013	124.24
845.189	128.34
845.365	93.52
845.541	64.85
845.716	103.76
845.892	60.76
846.068	13.65
846.244	62.8
846.419	171.35
846.595	11.61
846.77	50.52
846.946	83.28
847.122	34.13
847.297	58.71
847.473	138.58
847.648	-21.16
847.824	97.62
847.999	-2.73
848.175	30.04
848.35	-0.68
848.526	87.38
848.701	79.19
848.876	118.1
849.052	13.65
849.227	130.39
849.403	77.14
849.578	54.61
849.753	56.66
849.929	48.47
850.104	23.89
850.279	116.05
850.454	48.47
850.63	25.94
850.805	44.37
850.98	25.94
851.155	21.85
851.33	48.47
851.505	-37.55
851.681	183.63
851.856	5.46
852.031	79.19
852.206	58.71
852.381	-8.87
852.556	34.13
852.731	73.04
852.906	103.76
853.081	71
853.256	79.19
853.431	46.42
853.606	-6.83
853.781	46.42
853.956	-105.13
854.131	25.94
854.305	5.46
854.48	-0.68
854.655	-21.16
854.83	-2.73
855.005	9.56
855.18	21.85
855.354	13.65
855.529	9.56
855.704	-4.78
855.879	71
856.053	111.96
856.228	7.51
856.403	-19.11
856.577	46.42
856.752	-8.87
856.926	87.38
857.101	7.51
857.276	3.41
857.45	95.57
857.625	62.8
857.799	103.76
857.974	58.71
858.148	-55.98
858.323	9.56
858.497	93.52
858.672	66.9
858.846	-19.11
859.02	79.19
859.195	44.37
859.369	-25.26
859.543	38.23
859.718	38.23
859.892	-19.11
860.066	21.85
860.241	9.56
860.415	62.8
860.589	66.9
860.763	15.7
860.938	62.8
861.112	71
861.286	27.99
861.46	91.48
861.634	-39.59
861.808	99.67
861.982	-45.74
862.157	-35.5
862.331	-31.4
862.505	-17.07
862.679	25.94
862.853	-84.65
863.027	-10.92
863.201	128.34
863.375	-72.36
863.549	87.38
863.722	25.94
863.896	105.81
864.07	13.65
864.244	66.9
864.418	77.14
864.592	-0.68
864.766	54.61
864.939	38.23
865.113	60.76
865.287	1.37
865.461	32.08
865.634	-29.35
865.808	73.04
865.982	-23.21
866.156	73.04
866.329	5.46
866.503	13.65
866.676	-6.83
866.85	-37.55
867.024	17.75
867.197	-39.59
867.371	52.56
867.544	1.37
867.718	30.04
867.891	93.52
868.065	3.41
868.238	93.52
868.412	1.37
868.585	95.57
868.759	19.8
868.932	7.51
869.105	17.75
869.279	-12.97
869.452	3.41
869.625	30.04
869.799	-2.73
869.972	15.7
870.145	-19.11
870.319	68.95
870.492	-17.07
870.665	15.7
870.838	-66.22
871.011	-70.31
871.185	-21.16
871.358	-27.31
871.531	-2.73
871.704	38.23
871.877	32.08
872.05	-17.07
872.223	-37.55
872.396	27.99
872.569	81.24
872.742	-53.93
872.915	-8.87
873.088	-10.92
873.261	32.08
873.434	91.48
873.607	56.66
873.78	77.14
873.953	-4.78
874.126	17.75
874.299	93.52
874.471	-33.45
874.644	40.28
874.817	32.08
874.99	32.08
875.163	-49.83
875.335	-27.31
875.508	13.65
875.681	-0.68
875.853	-17.07
876.026	-23.21
876.199	9.56
876.371	5.46
876.544	-21.16
876.717	-23.21
876.889	40.28
877.062	81.24
877.234	-19.11
877.407	34.13
877.579	-51.88
877.752	73.04
877.924	75.09
878.097	3.41
878.269	30.04
878.442	87.38
878.614	73.04
878.786	107.86
878.959	17.75
879.131	44.37
879.303	-33.45
879.476	-72.36
879.648	30.04
879.82	-25.26
879.993	85.33
880.165	25.94
880.337	-12.97
880.509	13.65
880.681	-82.6
880.854	-10.92
881.026	58.71
881.198	17.75
881.37	17.75
881.542	44.37
881.714	-21.16
881.886	-51.88
882.058	114
882.23	-19.11
882.402	15.7
882.574	3.41
882.746	-35.5
882.918	30.04
883.09	-64.17
883.262	30.04
883.434	-101.03
883.606	-41.64
883.778	-33.45
883.95	42.32
884.122	-88.75
884.293	44.37
884.465	13.65
884.637	-10.92
884.809	-105.13
884.98	-4.78
885.152	54.61
885.324	-0.68
885.496	-0.68
885.667	-35.5
885.839	-21.16
886.011	54.61
886.182	34.13
886.354	19.8
886.525	42.32
886.697	73.04
886.869	-90.79
887.04	-92.84
887.212	85.33
887.383	54.61
887.555	32.08
887.726	-72.36
887.897	32.08
888.069	-2.73
888.24	44.37
888.412	5.46
888.583	-58.03
888.754	-17.07
888.926	-6.83
889.097	-8.87
889.268	-82.6
889.44	-8.87
889.611	-64.17
889.782	-105.13
889.953	-101.03
890.125	5.46
890.296	-49.83
890.467	23.89
890.638	-58.03
890.809	-23.21
890.98	-80.55
891.151	17.75
891.323	36.18
891.494	-70.31
891.665	52.56
891.836	-17.07
892.007	-10.92
892.178	-41.64
892.349	9.56
892.52	-2.73
892.691	-2.73
892.862	-58.03
893.032	-6.83
893.203	-49.83
893.374	5.46
893.545	75.09
893.716	-64.17
893.887	7.51
894.057	-70.31
894.228	-2.73
894.399	30.04
894.57	15.7
894.74	-15.02
894.911	54.61
895.082	-86.7
895.253	-2.73
895.423	-8.87
895.594	23.89
895.764	-8.87
895.935	-45.74
896.106	62.8
896.276	-53.93
896.447	-23.21
896.617	-51.88
896.788	-25.26
896.958	-76.46
897.129	-113.32
897.299	25.94
897.47	-25.26
897.64	38.23
897.81	-27.31
897.981	13.65
898.151	-17.07
898.322	71
898.492	30.04
898.662	-49.83
898.832	52.56
899.003	-10.92
899.173	-70.31
899.343	-27.31
899.513	-125.61
