Data from USB4F104151__4__13-04-08-052.txt Node

Date: Fri Mar 14 13:04:08 EDT 2025
User: louis
Spectrometer: USB4F10415
Trigger mode: 4
Integration Time (sec): 4.000000E-2
Scans to average: 1
Electric dark correction enabled: true
Nonlinearity correction enabled: false
Boxcar width: 0
XAxis mode: Wavelengths
Number of Pixels in Spectrum: 3648
>>>>>Begin Spectral Data<<<<<
178.204	-134.31
178.424	-134.31
178.644	-134.31
178.864	-160.94
179.084	-165.03
179.304	-17.58
179.524	-42.15
179.744	-21.67
179.964	105.3
180.184	-3.24
180.404	-17.58
180.624	-15.53
180.844	11.09
181.064	-31.91
181.283	64.34
181.503	-46.25
181.723	15.19
181.943	-7.34
182.163	119.64
182.383	76.63
182.602	86.87
182.822	64.34
183.042	95.06
183.262	7
183.482	47.96
183.701	54.1
183.921	-27.82
184.141	-40.11
184.361	64.34
184.58	66.39
184.8	47.96
185.02	4.95
185.239	105.3
185.459	21.33
185.679	64.34
185.898	-52.39
186.118	54.1
186.338	0.85
186.557	107.35
186.777	47.96
186.997	13.14
187.216	15.19
187.436	88.92
187.655	52.05
187.875	76.63
188.095	-97.45
188.314	78.68
188.534	142.16
188.753	0.85
188.973	72.53
189.192	84.82
189.412	54.1
189.631	62.29
189.851	52.05
190.07	127.83
190.29	-29.87
190.509	74.58
190.729	9.05
190.948	45.91
191.168	123.73
191.387	17.24
191.607	11.09
191.826	62.29
192.045	23.38
192.265	4.95
192.484	21.33
192.704	41.81
192.923	-15.53
193.142	93.01
193.362	54.1
193.581	121.68
193.8	80.72
194.02	17.24
194.239	23.38
194.458	99.16
194.678	56.15
194.897	64.34
195.116	84.82
195.335	31.57
195.555	72.53
195.774	58.2
195.993	103.25
196.212	-7.34
196.432	-72.87
196.651	97.11
196.87	62.29
197.089	129.88
197.308	95.06
197.528	66.39
197.747	-36.01
197.966	-17.58
198.185	2.9
198.404	29.52
198.623	29.52
198.842	-27.82
199.062	66.39
199.281	29.52
199.5	13.14
199.719	97.11
199.938	17.24
200.157	90.96
200.376	70.48
200.595	78.68
200.814	39.76
201.033	15.19
201.252	37.72
201.471	29.52
201.69	66.39
201.909	80.72
202.128	33.62
202.347	68.44
202.566	29.52
202.785	58.2
203.004	17.24
203.223	140.12
203.442	41.81
203.661	41.81
203.879	-1.19
204.098	90.96
204.317	88.92
204.536	99.16
204.755	70.48
204.974	113.49
205.193	80.72
205.411	105.3
205.63	90.96
205.849	29.52
206.068	103.25
206.287	56.15
206.505	31.57
206.724	-11.43
206.943	70.48
207.162	19.29
207.381	-9.39
207.599	-11.43
207.818	13.14
208.037	4.95
208.255	-1.19
208.474	-1.19
208.693	-3.24
208.911	109.4
209.13	0.85
209.349	11.09
209.567	-15.53
209.786	31.57
210.005	39.76
210.223	21.33
210.442	-48.3
210.661	-48.3
210.879	68.44
211.098	64.34
211.316	4.95
211.535	127.83
211.753	111.44
211.972	-27.82
212.191	-7.34
212.409	125.78
212.628	58.2
212.846	33.62
213.065	93.01
213.283	119.64
213.502	47.96
213.72	70.48
213.938	27.48
214.157	27.48
214.375	93.01
214.594	-58.54
214.812	123.73
215.031	93.01
215.249	2.9
215.467	37.72
215.686	21.33
215.904	84.82
216.122	17.24
216.341	88.92
216.559	33.62
216.778	72.53
216.996	66.39
217.214	95.06
217.432	50
217.651	47.96
217.869	41.81
218.087	37.72
218.306	-7.34
218.524	9.05
218.742	35.67
218.96	23.38
219.179	43.86
219.397	37.72
219.615	154.45
219.833	47.96
220.051	39.76
220.27	136.02
220.488	37.72
220.706	101.2
220.924	-7.34
221.142	-3.24
221.36	15.19
221.578	-9.39
221.796	-1.19
222.015	35.67
222.233	35.67
222.451	168.79
222.669	-64.68
222.887	95.06
223.105	31.57
223.323	50
223.541	-23.72
223.759	19.29
223.977	76.63
224.195	170.83
224.413	25.43
224.631	103.25
224.849	82.77
225.067	140.12
225.285	31.57
225.503	13.14
225.721	-17.58
225.939	76.63
226.157	66.39
226.375	97.11
226.592	54.1
226.81	47.96
227.028	109.4
227.246	168.79
227.464	58.2
227.682	31.57
227.9	37.72
228.117	29.52
228.335	2.9
228.553	62.29
228.771	27.48
228.989	-19.63
229.206	-25.77
229.424	-15.53
229.642	-11.43
229.86	15.19
230.077	103.25
230.295	41.81
230.513	54.1
230.731	21.33
230.948	97.11
231.166	78.68
231.384	74.58
231.601	33.62
231.819	80.72
232.037	84.82
232.254	13.14
232.472	70.48
232.689	25.43
232.907	43.86
233.125	62.29
233.342	39.76
233.56	11.09
233.777	27.48
233.995	-25.77
234.213	136.02
234.43	150.36
234.648	31.57
234.865	76.63
235.083	88.92
235.3	86.87
235.518	-3.24
235.735	86.87
235.953	127.83
236.17	-25.77
236.388	52.05
236.605	9.05
236.822	84.82
237.04	78.68
237.257	127.83
237.475	109.4
237.692	43.86
237.909	29.52
238.127	103.25
238.344	50
238.562	64.34
238.779	-50.35
238.996	-5.29
239.214	45.91
239.431	-1.19
239.648	-66.73
239.865	29.52
240.083	15.19
240.3	31.57
240.517	-9.39
240.735	7
240.952	70.48
241.169	47.96
241.386	15.19
241.603	-5.29
241.821	-19.63
242.038	45.91
242.255	70.48
242.472	4.95
242.689	66.39
242.907	78.68
243.124	117.59
243.341	9.05
243.558	-1.19
243.775	-42.15
243.992	-1.19
244.209	41.81
244.426	125.78
244.643	41.81
244.86	31.57
245.078	37.72
245.295	129.88
245.512	-11.43
245.729	72.53
245.946	82.77
246.163	121.68
246.38	43.86
246.597	86.87
246.814	66.39
247.031	25.43
247.248	37.72
247.464	27.48
247.681	56.15
247.898	15.19
248.115	47.96
248.332	31.57
248.549	52.05
248.766	97.11
248.983	78.68
249.2	43.86
249.417	80.72
249.633	-33.96
249.85	43.86
250.067	86.87
250.284	52.05
250.501	82.77
250.717	43.86
250.934	-95.4
251.151	45.91
251.368	93.01
251.585	131.92
251.801	21.33
252.018	-9.39
252.235	29.52
252.451	15.19
252.668	31.57
252.885	103.25
253.102	58.2
253.318	119.64
253.535	25.43
253.752	17.24
253.968	39.76
254.185	86.87
254.401	2.9
254.618	43.86
254.835	56.15
255.051	64.34
255.268	31.57
255.484	64.34
255.701	64.34
255.917	72.53
256.134	9.05
256.351	9.05
256.567	-33.96
256.784	33.62
257	29.52
257.217	47.96
257.433	23.38
257.65	70.48
257.866	97.11
258.082	-7.34
258.299	64.34
258.515	19.29
258.732	11.09
258.948	82.77
259.165	41.81
259.381	37.72
259.597	29.52
259.814	90.96
260.03	39.76
260.246	7
260.463	64.34
260.679	54.1
260.895	-50.35
261.112	66.39
261.328	56.15
261.544	37.72
261.761	97.11
261.977	4.95
262.193	7
262.409	52.05
262.626	70.48
262.842	4.95
263.058	-15.53
263.274	97.11
263.49	13.14
263.707	103.25
263.923	-9.39
264.139	17.24
264.355	-17.58
264.571	95.06
264.787	80.72
265.004	50
265.22	39.76
265.436	7
265.652	-52.39
265.868	-5.29
266.084	-1.19
266.3	4.95
266.516	70.48
266.732	21.33
266.948	27.48
267.164	21.33
267.38	64.34
267.596	7
267.812	47.96
268.028	45.91
268.244	9.05
268.46	82.77
268.676	25.43
268.892	29.52
269.108	-11.43
269.324	66.39
269.54	70.48
269.756	2.9
269.972	-1.19
270.188	23.38
270.403	33.62
270.619	66.39
270.835	27.48
271.051	97.11
271.267	37.72
271.483	39.76
271.698	115.54
271.914	13.14
272.13	119.64
272.346	54.1
272.562	78.68
272.777	109.4
272.993	31.57
273.209	-23.72
273.425	47.96
273.64	-23.72
273.856	101.2
274.072	33.62
274.287	56.15
274.503	117.59
274.719	-5.29
274.934	11.09
275.15	-11.43
275.366	43.86
275.581	2.9
275.797	74.58
276.012	66.39
276.228	29.52
276.444	23.38
276.659	111.44
276.875	17.24
277.09	45.91
277.306	80.72
277.521	103.25
277.737	29.52
277.952	93.01
278.168	11.09
278.383	80.72
278.599	17.24
278.814	136.02
279.03	76.63
279.245	29.52
279.461	37.72
279.676	52.05
279.892	-25.77
280.107	-5.29
280.322	47.96
280.538	-1.19
280.753	54.1
280.969	90.96
281.184	39.76
281.399	164.69
281.615	45.91
281.83	78.68
282.045	43.86
282.26	-44.2
282.476	45.91
282.691	37.72
282.906	-17.58
283.122	101.2
283.337	78.68
283.552	41.81
283.767	47.96
283.983	97.11
284.198	-27.82
284.413	54.1
284.628	-7.34
284.843	13.14
285.058	37.72
285.274	25.43
285.489	64.34
285.704	78.68
285.919	0.85
286.134	37.72
286.349	11.09
286.564	68.44
286.779	31.57
286.995	72.53
287.21	33.62
287.425	66.39
287.64	-27.82
287.855	58.2
288.07	-72.87
288.285	86.87
288.5	78.68
288.715	105.3
288.93	29.52
289.145	27.48
289.36	47.96
289.575	-15.53
289.79	0.85
290.004	56.15
290.219	37.72
290.434	-25.77
290.649	43.86
290.864	109.4
291.079	27.48
291.294	105.3
291.509	15.19
291.724	90.96
291.938	2.9
292.153	72.53
292.368	136.02
292.583	90.96
292.798	74.58
293.012	29.52
293.227	88.92
293.442	58.2
293.657	74.58
293.871	111.44
294.086	-3.24
294.301	43.86
294.516	60.24
294.73	9.05
294.945	-1.19
295.16	58.2
295.374	95.06
295.589	80.72
295.804	64.34
296.018	37.72
296.233	68.44
296.447	78.68
296.662	-7.34
296.877	156.5
297.091	58.2
297.306	-7.34
297.52	58.2
297.735	109.4
297.949	41.81
298.164	111.44
298.378	72.53
298.593	-17.58
298.807	-9.39
299.022	-11.43
299.236	33.62
299.451	47.96
299.665	9.05
299.88	86.87
300.094	119.64
300.309	25.43
300.523	105.3
300.737	-1.19
300.952	64.34
301.166	107.35
301.381	-7.34
301.595	66.39
301.809	56.15
302.024	17.24
302.238	-33.96
302.452	76.63
302.667	47.96
302.881	70.48
303.095	95.06
303.309	27.48
303.524	-23.72
303.738	76.63
303.952	17.24
304.166	29.52
304.381	-76.97
304.595	136.02
304.809	15.19
305.023	64.34
305.237	19.29
305.452	13.14
305.666	70.48
305.88	45.91
306.094	27.48
306.308	25.43
306.522	148.31
306.736	58.2
306.95	39.76
307.164	25.43
307.379	-31.91
307.593	50
307.807	31.57
308.021	39.76
308.235	29.52
308.449	-19.63
308.663	70.48
308.877	142.16
309.091	2.9
309.305	111.44
309.519	-60.59
309.733	93.01
309.947	-11.43
310.161	41.81
310.374	82.77
310.588	33.62
310.802	13.14
311.016	72.53
311.23	80.72
311.444	-3.24
311.658	-31.91
311.872	47.96
312.085	41.81
312.299	144.21
312.513	117.59
312.727	99.16
312.941	-3.24
313.154	15.19
313.368	56.15
313.582	-3.24
313.796	109.4
314.009	50
314.223	86.87
314.437	-33.96
314.651	7
314.864	37.72
315.078	54.1
315.292	0.85
315.505	23.38
315.719	107.35
315.933	80.72
316.146	25.43
316.36	-3.24
316.573	80.72
316.787	23.38
317.001	107.35
317.214	-7.34
317.428	-23.72
317.641	-40.11
317.855	54.1
318.068	111.44
318.282	-15.53
318.495	172.88
318.709	13.14
318.922	72.53
319.136	97.11
319.349	152.4
319.563	93.01
319.776	111.44
319.99	39.76
320.203	111.44
320.417	68.44
320.63	84.82
320.843	54.1
321.057	47.96
321.27	43.86
321.483	93.01
321.697	62.29
321.91	29.52
322.124	54.1
322.337	95.06
322.55	-7.34
322.763	107.35
322.977	33.62
323.19	0.85
323.403	45.91
323.617	103.25
323.83	-5.29
324.043	-38.06
324.256	105.3
324.469	29.52
324.683	72.53
324.896	41.81
325.109	13.14
325.322	-1.19
325.535	95.06
325.748	50
325.962	33.62
326.175	101.2
326.388	54.1
326.601	31.57
326.814	78.68
327.027	107.35
327.24	121.68
327.453	4.95
327.666	68.44
327.879	107.35
328.092	97.11
328.305	27.48
328.518	25.43
328.731	29.52
328.944	25.43
329.157	64.34
329.37	29.52
329.583	82.77
329.796	148.31
330.009	54.1
330.222	78.68
330.435	127.83
330.648	21.33
330.861	21.33
331.073	74.58
331.286	140.12
331.499	33.62
331.712	33.62
331.925	58.2
332.138	17.24
332.35	103.25
332.563	76.63
332.776	95.06
332.989	25.43
333.202	-3.24
333.414	-3.24
333.627	-66.73
333.84	80.72
334.053	78.68
334.265	4.95
334.478	-60.59
334.691	29.52
334.903	107.35
335.116	19.29
335.329	33.62
335.541	86.87
335.754	-1.19
335.966	9.05
336.179	123.73
336.392	21.33
336.604	39.76
336.817	103.25
337.029	60.24
337.242	39.76
337.454	45.91
337.667	0.85
337.88	97.11
338.092	103.25
338.305	33.62
338.517	78.68
338.729	52.05
338.942	37.72
339.154	21.33
339.367	47.96
339.579	33.62
339.792	41.81
340.004	78.68
340.217	31.57
340.429	60.24
340.641	-11.43
340.854	90.96
341.066	76.63
341.278	62.29
341.491	41.81
341.703	70.48
341.915	72.53
342.128	68.44
342.34	7
342.552	-3.24
342.764	25.43
342.977	140.12
343.189	56.15
343.401	43.86
343.613	-9.39
343.826	29.52
344.038	45.91
344.25	37.72
344.462	25.43
344.674	37.72
344.886	37.72
345.099	68.44
345.311	23.38
345.523	52.05
345.735	-60.59
345.947	97.11
346.159	95.06
346.371	35.67
346.583	-31.91
346.795	111.44
347.007	74.58
347.219	47.96
347.431	78.68
347.643	60.24
347.855	76.63
348.067	45.91
348.279	37.72
348.491	88.92
348.703	2.9
348.915	56.15
349.127	68.44
349.339	90.96
349.551	-11.43
349.763	41.81
349.975	2.9
350.187	154.45
350.399	129.88
350.61	35.67
350.822	41.81
351.034	105.3
351.246	0.85
351.458	72.53
351.669	78.68
351.881	2.9
352.093	80.72
352.305	144.21
352.517	39.76
352.728	142.16
352.94	99.16
353.152	17.24
353.363	31.57
353.575	39.76
353.787	179.03
353.999	101.2
354.21	95.06
354.422	-19.63
354.633	62.29
354.845	72.53
355.057	37.72
355.268	103.25
355.48	37.72
355.692	47.96
355.903	-7.34
356.115	37.72
356.326	21.33
356.538	127.83
356.749	45.91
356.961	156.5
357.172	97.11
357.384	-9.39
357.595	127.83
357.807	50
358.018	25.43
358.23	13.14
358.441	107.35
358.653	54.1
358.864	109.4
359.075	23.38
359.287	66.39
359.498	156.5
359.709	9.05
359.921	41.81
360.132	113.49
360.344	54.1
360.555	2.9
360.766	144.21
360.977	64.34
361.189	117.59
361.4	64.34
361.611	66.39
361.823	107.35
362.034	47.96
362.245	15.19
362.456	-19.63
362.667	111.44
362.879	45.91
363.09	7
363.301	37.72
363.512	-3.24
363.723	19.29
363.935	9.05
364.146	-3.24
364.357	19.29
364.568	-23.72
364.779	11.09
364.99	160.59
365.201	11.09
365.412	33.62
365.623	31.57
365.834	97.11
366.045	90.96
366.256	117.59
366.467	31.57
366.678	78.68
366.889	90.96
367.1	78.68
367.311	62.29
367.522	68.44
367.733	41.81
367.944	74.58
368.155	90.96
368.366	60.24
368.577	115.54
368.788	74.58
368.999	13.14
369.209	35.67
369.42	156.5
369.631	179.03
369.842	62.29
370.053	25.43
370.264	127.83
370.474	13.14
370.685	131.92
370.896	23.38
371.107	138.07
371.317	33.62
371.528	64.34
371.739	176.98
371.95	95.06
372.16	95.06
372.371	0.85
372.582	-60.59
372.792	97.11
373.003	15.19
373.214	-1.19
373.424	109.4
373.635	7
373.846	127.83
374.056	60.24
374.267	84.82
374.477	47.96
374.688	66.39
374.898	78.68
375.109	9.05
375.319	50
375.53	125.78
375.74	37.72
375.951	86.87
376.161	84.82
376.372	54.1
376.582	29.52
376.793	-21.67
377.003	-1.19
377.214	37.72
377.424	105.3
377.635	80.72
377.845	70.48
378.055	29.52
378.266	15.19
378.476	74.58
378.686	-5.29
378.897	68.44
379.107	60.24
379.317	31.57
379.528	37.72
379.738	86.87
379.948	-36.01
380.158	72.53
380.369	-31.91
380.579	11.09
380.789	15.19
380.999	95.06
381.21	21.33
381.42	133.97
381.63	-7.34
381.84	115.54
382.05	62.29
382.261	99.16
382.471	31.57
382.681	109.4
382.891	138.07
383.101	105.3
383.311	43.86
383.521	-7.34
383.731	76.63
383.941	95.06
384.151	107.35
384.361	58.2
384.571	144.21
384.781	144.21
384.991	105.3
385.201	72.53
385.411	152.4
385.621	47.96
385.831	58.2
386.041	72.53
386.251	64.34
386.461	111.44
386.671	70.48
386.881	144.21
387.091	45.91
387.301	80.72
387.511	58.2
387.72	113.49
387.93	54.1
388.14	-83.11
388.35	88.92
388.56	68.44
388.769	140.12
388.979	80.72
389.189	52.05
389.399	27.48
389.609	140.12
389.818	113.49
390.028	109.4
390.238	50
390.447	-38.06
390.657	62.29
390.867	29.52
391.076	37.72
391.286	68.44
391.496	82.77
391.705	78.68
391.915	152.4
392.125	111.44
392.334	101.2
392.544	88.92
392.753	37.72
392.963	11.09
393.172	72.53
393.382	43.86
393.591	168.79
393.801	37.72
394.01	121.68
394.22	138.07
394.429	11.09
394.639	13.14
394.848	131.92
395.058	93.01
395.267	13.14
395.477	93.01
395.686	68.44
395.895	209.75
396.105	144.21
396.314	97.11
396.524	37.72
396.733	47.96
396.942	129.88
397.152	152.4
397.361	154.45
397.57	144.21
397.78	138.07
397.989	107.35
398.198	160.59
398.407	129.88
398.617	90.96
398.826	121.68
399.035	119.64
399.244	127.83
399.453	84.82
399.663	86.87
399.872	136.02
400.081	45.91
400.29	154.45
400.499	133.97
400.708	21.33
400.917	33.62
401.127	35.67
401.336	97.11
401.545	209.75
401.754	197.46
401.963	219.99
402.172	136.02
402.381	115.54
402.59	136.02
402.799	187.22
403.008	179.03
403.217	80.72
403.426	191.31
403.635	86.87
403.844	176.98
404.053	183.12
404.262	138.07
404.471	246.61
404.68	148.31
404.888	160.59
405.097	93.01
405.306	183.12
405.515	160.59
405.724	127.83
405.933	254.8
406.142	187.22
406.35	228.18
406.559	197.46
406.768	291.66
406.977	262.99
407.185	160.59
407.394	234.32
407.603	125.78
407.812	228.18
408.02	248.66
408.229	176.98
408.438	285.52
408.646	213.84
408.855	250.71
409.064	238.42
409.272	258.9
409.481	281.43
409.69	238.42
409.898	213.84
410.107	330.58
410.315	324.43
410.524	301.9
410.733	420.69
410.941	326.48
411.15	432.97
411.358	363.34
411.567	496.46
411.775	422.73
411.984	455.5
412.192	465.74
412.401	430.93
412.609	566.09
412.818	533.33
413.026	582.48
413.234	523.09
413.443	529.23
413.651	496.46
413.86	592.72
414.068	594.76
414.276	691.02
414.485	566.09
414.693	717.64
414.901	703.31
415.11	648.01
415.318	748.36
415.526	795.47
415.734	840.52
415.943	908.1
416.151	875.34
416.359	826.18
416.567	877.38
416.776	889.67
416.984	914.25
417.192	1000.26
417.4	1057.61
417.608	969.54
417.817	1086.28
418.025	1049.41
418.233	1215.3
418.441	1164.1
418.649	1200.96
418.857	1289.03
419.065	1372.99
419.273	1237.83
419.481	1379.14
419.689	1485.63
419.897	1461.06
420.105	1426.24
420.313	1538.88
420.521	1561.41
420.729	1674.04
420.937	1753.91
421.145	1780.54
421.353	1889.08
421.561	1889.08
421.769	2110.26
421.977	2104.12
422.185	2024.25
422.393	2202.42
422.601	2364.21
422.809	2345.78
423.017	2292.53
423.224	2476.85
423.432	2589.49
423.64	2452.27
423.848	2900.78
424.056	2628.4
424.263	2902.83
424.471	2765.61
424.679	2906.92
424.887	3072.81
425.094	3033.9
425.302	3171.11
425.51	3384.1
425.718	3414.82
425.925	3490.59
426.133	3644.19
426.341	3871.51
426.548	3887.9
426.756	3975.96
426.964	3957.53
427.171	4211.48
427.379	4313.88
427.586	4412.18
427.794	4543.25
428.001	4811.53
428.209	5001.99
428.417	4909.83
428.624	5141.25
428.832	5270.28
429.039	5174.02
429.247	5329.67
429.454	5628.67
429.662	6107.9
429.869	5671.68
430.076	6165.24
430.284	6023.93
430.491	6300.41
430.699	6413.04
430.906	6454
431.114	6697.71
431.321	6877.93
431.528	6959.85
431.736	7473.89
431.943	7758.56
432.15	7543.52
432.358	7619.3
432.565	8235.74
432.772	7994.08
432.979	8567.51
433.187	8585.94
433.394	8641.23
433.601	9282.25
433.808	9433.8
434.016	9233.1
434.223	9657.03
434.43	10330.81
434.637	10119.87
434.844	10685.11
435.052	10846.9
435.259	10797.74
435.466	10994.35
435.673	10807.98
435.88	11299.5
436.087	11956.89
436.294	12032.67
436.501	11743.91
436.708	11852.45
436.915	12464.79
437.122	12954.26
437.329	12903.06
437.537	13474.44
437.743	13476.49
437.95	13443.72
438.157	14193.28
438.364	14557.82
438.571	14727.8
438.778	14688.89
438.985	16024.16
439.192	15432.3
439.399	15850.08
439.606	15809.12
439.813	16466.52
440.02	17392.2
440.227	17508.94
440.433	17048.15
440.64	17592.9
440.847	17504.84
441.054	17988.16
441.261	19442.22
441.467	18717.24
441.674	19354.16
441.881	20044.32
442.088	19894.82
442.294	19802.66
442.501	20253.22
442.708	20820.5
442.914	21555.72
443.121	22657.53
443.328	21811.72
443.534	23509.49
443.741	22768.12
443.948	22442.49
444.154	24093.16
444.361	23779.82
444.568	24263.14
444.774	24044.01
444.981	24424.93
445.187	25473.49
445.394	26208.71
445.6	25948.62
445.807	28328.36
446.013	27242.93
446.22	27937.2
446.426	28891.55
446.633	28944.8
446.839	30159.24
447.046	28797.34
447.252	30345.61
447.459	30335.37
447.665	30026.12
447.871	31547.76
448.078	33122.65
448.284	31658.35
448.491	31988.08
448.697	33700.18
448.903	33917.26
449.11	34423.11
449.316	33773.91
449.522	34400.58
449.728	35287.35
449.935	35490.1
450.141	35547.45
450.347	36495.66
450.553	35254.59
450.76	35692.85
450.966	36630.82
451.172	36342.06
451.378	37542.17
451.584	36198.7
451.791	37443.87
451.997	37550.36
452.203	37959.95
452.409	38322.44
452.615	37980.43
452.821	36348.2
453.027	35860.79
453.233	37716.25
453.44	36643.11
453.646	36573.48
453.852	36999.46
454.058	37683.48
454.264	36180.27
454.47	37030.18
454.676	35973.42
454.882	37413.15
455.088	34568.52
455.294	34566.47
455.5	35234.11
455.705	35369.27
455.911	34292.04
456.117	33296.73
456.323	33048.93
456.529	31449.46
456.735	32825.7
456.941	31820.14
457.147	31062.4
457.352	30284.17
457.558	30241.16
457.764	30153.1
457.97	29510.04
458.176	29125.02
458.381	29057.43
458.587	27546.03
458.793	27644.34
458.999	26130.89
459.204	27910.57
459.41	26966.46
459.616	25416.15
459.821	25373.14
460.027	25067.99
460.233	24889.82
460.438	23605.74
460.644	23908.84
460.85	22770.17
461.055	22166.02
461.261	22344.19
461.466	20533.79
461.672	20029.99
461.878	21527.05
462.083	19929.64
462.289	19653.16
462.494	19483.18
462.7	18477.63
462.905	17969.73
463.111	18715.19
463.316	18559.55
463.522	18377.28
463.727	18661.94
463.932	18319.93
464.138	18229.82
464.343	18076.23
464.549	17656.39
464.754	18219.58
464.959	18176.58
465.165	18238.02
465.37	17281.61
465.575	16781.91
465.781	17472.07
465.986	17617.48
466.191	16876.12
466.397	16503.39
466.602	15696.49
466.807	16355.93
467.012	16405.08
467.218	16480.86
467.423	16071.26
467.628	16259.68
467.833	16988.75
468.038	16188
468.244	15813.22
468.449	16366.17
468.654	15745.64
468.859	16038.5
469.064	15837.8
469.269	15172.21
469.474	15401.58
469.679	15540.84
469.885	14922.35
470.09	15194.73
470.295	15458.92
470.5	14588.53
470.705	15143.53
470.91	14623.35
471.115	14189.18
471.32	14799.48
471.525	14672.5
471.73	14209.66
471.935	14228.09
472.139	13738.63
472.344	13775.49
472.549	13689.48
472.754	13474.44
472.959	13451.91
473.164	13068.94
473.369	12993.17
473.574	13406.86
473.778	13240.97
473.983	13007.5
474.188	13058.7
474.393	12321.43
474.598	12696.21
474.802	12096.16
475.007	12403.35
475.212	12432.02
475.417	11770.53
475.621	11768.48
475.826	11881.12
476.031	11629.22
476.235	11256.49
476.44	11670.18
476.645	11473.57
476.849	11440.81
477.054	11244.2
477.259	11223.72
477.463	11051.69
477.668	10977.97
477.872	11031.21
478.077	10861.23
478.282	10396.34
478.486	10498.74
478.691	10339
478.895	10437.3
479.1	10273.46
479.304	10300.09
479.509	9972.41
479.713	10283.7
479.918	9976.51
480.122	9837.25
480.326	9933.5
480.531	9999.04
480.735	10123.96
480.94	9812.67
481.144	10162.87
481.348	9638.59
481.553	9611.97
481.757	9505.48
481.961	9657.03
482.166	9837.25
482.37	9759.42
482.574	9548.48
482.778	9476.8
482.983	9775.81
483.187	9695.94
483.391	9775.81
483.595	9495.24
483.8	9370.31
484.004	9597.63
484.208	9587.4
484.412	9458.37
484.616	9673.41
484.821	9552.58
485.025	9505.48
485.229	9536.2
485.433	9585.35
485.637	9499.33
485.841	9464.52
486.045	9398.98
486.249	9534.15
486.453	9214.66
486.657	9573.06
486.861	9603.78
487.065	9398.98
487.269	9681.6
487.473	9427.65
487.677	9671.36
487.881	9702.08
488.085	9540.29
488.289	9706.18
488.493	9417.41
488.697	9687.75
488.901	9609.92
489.105	9499.33
489.309	9773.76
489.512	9853.63
489.716	9691.84
489.92	9800.38
490.124	9745.09
490.328	9960.13
490.531	9771.71
490.735	9845.44
490.939	9874.11
491.143	9759.42
491.346	9757.38
491.55	10035.9
491.754	9882.3
491.958	10140.35
492.161	10121.91
492.365	9978.56
492.569	9843.39
492.772	9994.94
492.976	10220.22
493.18	10220.22
493.383	10443.45
493.587	10308.28
493.79	10441.4
493.994	10377.91
494.197	10523.32
494.401	10894
494.605	10650.29
494.808	10685.11
495.012	10949.29
495.215	11039.4
495.419	10965.68
495.622	10930.86
495.825	11162.28
496.029	11074.22
496.232	11344.55
496.436	11268.78
496.639	11594.4
496.843	11481.77
497.046	11688.61
497.249	11817.63
497.453	11842.21
497.656	11883.17
497.859	11946.66
498.063	12335.77
498.266	12403.35
498.469	12452.5
498.673	12800.66
498.876	12909.2
499.079	12962.45
499.282	12786.32
499.485	13480.58
499.689	13157
499.892	13372.04
500.095	13542.02
500.298	14011.01
500.501	13669
500.705	13978.24
500.908	14361.21
501.111	14103.17
501.314	14578.29
501.517	14725.75
501.72	14656.12
501.923	14686.84
502.126	15047.28
502.329	15217.26
502.532	15184.49
502.735	15610.47
502.938	15753.83
503.141	15639.14
503.344	16185.95
503.547	16255.58
503.75	16231.01
503.953	16585.3
504.156	16814.68
504.359	16915.03
504.562	17011.28
504.765	17203.79
504.968	17363.53
505.17	17594.95
505.373	17840.71
505.576	17896
505.779	18119.23
505.982	18158.14
506.185	18676.28
506.387	18803.25
506.59	18946.61
506.793	19231.28
506.996	19087.92
507.198	19735.08
507.401	19616.3
507.604	19843.62
507.807	20085.28
508.009	20374.05
508.212	20521.5
508.415	21049.88
508.617	21021.2
508.82	21072.4
509.022	21041.68
509.225	21674.51
509.428	21787.14
509.63	22120.96
509.833	22241.79
510.035	22770.17
510.238	22467.07
510.44	22755.83
510.643	23294.45
510.845	23693.8
511.048	23048.69
511.25	23517.68
511.453	23724.52
511.655	24566.24
511.858	24199.65
512.06	24433.12
512.262	24553.95
512.465	24551.9
512.667	25145.81
512.87	25467.34
513.072	25682.38
513.274	26036.68
513.477	26171.85
513.679	26583.49
513.881	26589.63
514.084	26972.6
514.286	26945.98
514.488	26960.31
514.69	27767.21
514.893	27855.28
515.095	28080.55
515.297	28625.31
515.499	28428.71
515.701	28805.53
515.904	28838.3
516.106	29104.54
516.308	29839.76
516.51	29694.35
516.712	29995.4
516.914	30306.69
517.116	30740.86
517.318	31213.95
517.52	31009.15
517.722	30828.93
517.925	31549.81
518.127	31826.29
518.329	32268.65
518.531	32303.46
518.733	32627.04
518.935	32854.37
519.136	32688.48
519.338	33345.88
519.54	33620.31
519.742	33913.17
519.944	34335.05
520.146	34627.91
520.348	34662.72
520.55	34773.31
520.752	35371.32
520.954	35457.34
521.155	35182.91
521.357	36315.44
521.559	36401.45
521.761	36665.64
521.963	36856.1
522.164	36673.83
522.366	36987.17
522.568	37531.93
522.77	37683.48
522.971	38207.76
523.173	37884.18
523.375	38506.76
523.576	38168.85
523.778	38205.71
523.98	39162.11
524.181	39045.38
524.383	39559.42
524.584	39725.3
524.786	39915.76
524.988	39373.05
525.189	40429.8
525.391	40169.71
525.592	40511.72
525.794	40499.44
525.995	40906.98
526.197	40970.47
526.398	41181.41
526.6	41705.69
526.801	41533.66
527.003	41685.21
527.204	41466.08
527.406	42035.41
527.607	42074.32
527.808	42479.82
528.01	42008.79
528.211	42330.32
528.412	42852.55
528.614	42926.28
528.815	42506.44
529.016	43681.98
529.218	43047.11
529.419	43190.47
529.62	43425.98
529.822	43460.8
530.023	43509.95
530.224	43673.79
530.425	43628.73
530.626	43356.35
530.828	43129.03
531.029	44556.46
531.23	43735.23
531.431	43888.82
531.632	43956.41
531.833	43948.21
532.035	43772.09
532.236	44361.9
532.437	44212.4
532.638	43862.2
532.839	44751.02
533.04	44576.94
533.241	44308.66
533.442	44619.95
533.643	44253.36
533.844	44449.97
534.045	44380.34
534.246	44286.13
534.447	44746.92
534.648	44964.01
534.849	44617.9
535.05	44746.92
535.251	44945.58
535.451	44683.44
535.652	45019.3
535.853	44755.11
536.054	44591.28
536.255	44951.72
536.456	44626.09
536.657	45437.09
536.857	44970.15
537.058	44851.37
537.259	45174.95
537.46	44785.83
537.66	45039.78
537.861	44935.34
538.062	44959.91
538.263	45109.41
538.463	44458.16
538.664	44552.37
538.865	45078.69
539.065	44961.96
539.266	44810.41
539.466	44943.53
539.667	44001.46
539.868	44966.06
540.068	44695.72
540.269	44732.59
540.469	45158.56
540.67	44622
540.87	44877.99
541.071	44591.28
541.271	44869.8
541.472	44751.02
541.672	44538.03
541.873	44548.27
542.073	44290.23
542.274	45004.97
542.474	44959.91
542.675	44302.51
542.875	45252.77
543.075	44785.83
543.276	44460.21
543.476	44787.88
543.676	44425.39
543.877	44630.19
544.077	44675.24
544.277	44511.41
544.478	44519.6
544.678	44945.58
544.878	44824.75
545.078	44654.76
545.279	44959.91
545.479	44562.61
545.679	44308.66
545.879	44781.74
546.079	44495.02
546.28	44376.24
546.48	44011.7
546.68	44267.7
546.88	44642.48
547.08	44515.5
547.28	44282.03
547.48	44218.55
547.68	44648.62
547.88	43931.83
548.081	44230.83
548.281	44396.72
548.481	43987.13
548.681	44724.39
548.881	44507.31
549.081	44394.67
549.28	44210.35
549.48	44185.78
549.68	44292.27
549.88	44839.08
550.08	43858.1
550.28	44427.44
550.48	44095.67
550.68	44292.27
550.88	43727.03
551.08	43983.03
551.279	44622
551.479	43989.17
551.679	43684.03
551.879	43903.16
552.079	44142.77
552.278	43960.5
552.478	44103.86
552.678	43993.27
552.878	44341.42
553.077	43933.88
553.277	43751.61
553.477	44325.04
553.676	44040.37
553.876	43884.73
554.076	43880.63
554.275	43784.38
554.475	43313.34
554.674	43960.5
554.874	44052.66
555.074	43413.69
555.273	43718.84
555.473	43559.1
555.672	42946.76
555.872	43663.55
556.071	43284.67
556.271	43552.96
556.47	43579.58
556.67	42907.85
556.869	43141.32
557.068	43577.53
557.268	43008.2
557.467	43147.46
557.667	43362.5
557.866	43157.7
558.065	43221.19
558.265	42842.31
558.464	42928.33
558.663	43139.27
558.863	42123.47
559.062	43131.08
559.261	42502.35
559.461	42924.23
559.66	42291.41
559.859	42086.61
560.058	41947.35
560.258	42414.29
560.457	42033.36
560.656	42524.88
560.855	42205.39
561.054	42076.37
561.253	41701.59
561.453	42055.89
561.652	41947.35
561.851	42295.5
562.05	42031.32
562.249	41435.36
562.448	42117.33
562.647	41496.8
562.846	41208.03
563.045	41808.09
563.244	41439.45
563.443	41576.67
563.642	40593.64
563.841	40845.54
564.04	41310.43
564.239	41162.98
564.438	41058.53
564.637	40952.04
564.836	40874.21
565.035	40417.52
565.234	41128.16
565.432	40298.73
565.631	40067.31
565.83	40583.4
566.029	40173.81
566.228	40042.74
566.427	40001.78
566.625	39682.3
566.824	39534.84
567.023	40071.41
567.222	39260.41
567.42	40126.71
567.619	39266.56
567.818	39424.25
568.016	39663.86
568.215	39596.28
568.414	39641.34
568.612	39350.52
568.811	38818.05
569.01	38949.12
569.208	38580.49
569.407	38719.75
569.605	38310.16
569.804	38746.37
570.002	37972.24
570.201	38510.86
570.4	37925.14
570.598	38091.02
570.797	38056.21
570.995	38056.21
571.193	37812.5
571.392	37871.89
571.59	37378.33
571.789	37417.24
571.987	37329.18
572.186	37583.13
572.384	37001.5
572.582	37308.7
572.781	37196.06
572.979	36712.74
573.177	37187.87
573.376	36639.01
573.574	36608.29
573.772	37112.1
573.971	36434.22
574.169	36516.14
574.367	36167.98
574.565	36471.08
574.763	36100.4
574.962	35877.17
575.16	35682.61
575.358	35782.96
575.556	35367.23
575.754	35991.86
575.952	35598.65
576.151	35844.4
576.349	35330.36
576.547	35402.04
576.745	35273.02
576.943	35320.12
577.141	34769.22
577.339	35049.79
577.537	34869.57
577.735	35010.88
577.933	34861.38
578.131	35008.83
578.329	34337.1
578.527	34220.36
578.725	34361.67
578.923	34709.83
579.121	33995.09
579.319	34251.08
579.516	34298.19
579.714	34025.81
579.912	33919.31
580.11	33933.65
580.308	33911.12
580.506	33435.99
580.704	33433.94
580.901	33489.24
581.099	33595.73
581.297	33349.98
581.495	33358.17
581.692	33397.08
581.89	32958.81
582.088	33046.88
582.285	32762.21
582.483	33249.63
582.681	32633.19
582.878	32668
583.076	32500.07
583.274	32983.39
583.471	32158.06
583.669	32123.24
583.866	32102.76
584.064	32481.64
584.262	31727.99
584.459	31932.78
584.657	31940.97
584.854	32291.18
585.052	31439.22
585.249	31732.08
585.447	31631.73
585.644	31144.31
585.841	31756.66
586.039	31562.1
586.236	31080.83
586.434	30853.5
586.631	30534.02
586.828	30888.32
587.026	30978.43
587.223	30900.61
587.42	30669.19
587.618	30620.03
587.815	30392.71
588.012	30515.59
588.21	30431.62
588.407	30300.55
588.604	30405
588.801	29811.09
588.999	30067.08
589.196	30032.27
589.393	29630.87
589.59	29632.91
589.787	29682.06
589.984	29381.01
590.182	29458.84
590.379	29575.57
590.576	29272.47
590.773	29469.08
590.97	29141.4
591.167	29295
591.364	28823.97
591.561	28860.83
591.758	28803.49
591.955	28965.28
592.152	28893.6
592.349	28719.52
592.546	28412.32
592.743	28887.45
592.94	27779.5
593.137	28434.85
593.334	28264.87
593.531	28064.17
593.727	27992.49
593.924	28428.71
594.121	27638.19
594.318	28062.12
594.515	27435.44
594.712	27832.75
594.908	27394.48
595.105	27496.88
595.302	27331
595.499	27554.22
595.696	27298.23
595.892	27101.62
596.089	27238.84
596.286	27398.58
596.482	26827.2
596.679	26745.28
596.876	27101.62
597.072	26851.77
597.269	26622.4
597.466	26298.82
597.662	26702.27
597.859	26450.37
598.055	26599.87
598.252	26177.99
598.448	26296.77
598.645	26122.69
598.841	26001.86
599.038	26016.2
599.234	25915.85
599.431	25835.98
599.627	25752.01
599.824	25678.29
600.02	25457.1
600.217	25407.95
600.413	25424.34
600.609	25305.56
600.806	25180.63
601.002	25227.73
601.198	25227.73
601.395	24895.96
601.591	24891.87
601.787	24637.92
601.984	24992.22
602.18	24781.28
602.376	24758.75
602.572	24517.09
602.769	24553.95
602.965	24431.07
603.161	24594.91
603.357	24087.01
603.553	24015.33
603.75	24070.63
603.946	24115.69
604.142	24334.82
604.338	23890.41
604.534	23759.34
604.73	23638.51
604.926	23671.28
605.122	23599.6
605.318	23695.85
605.514	23421.42
605.71	23558.64
605.906	23396.85
606.102	23370.22
606.298	23495.15
606.494	23226.87
606.69	23181.81
606.886	23097.84
607.082	22663.68
607.278	23341.55
607.474	22548.99
607.67	22743.55
607.866	22510.08
608.062	23126.52
608.257	22639.1
608.453	22735.35
608.649	22741.5
608.845	22483.45
609.041	22557.18
609.236	22313.47
609.432	22370.82
609.628	22381.06
609.824	22288.9
610.019	22276.61
610.215	22114.82
610.411	22669.82
610.606	22170.12
610.802	22219.27
610.998	21944.84
611.193	22102.53
611.389	21688.84
611.584	22002.18
611.78	21852.68
611.976	21807.62
612.171	21885.45
612.367	21774.86
612.562	21482
612.758	21348.88
612.953	21490.19
613.149	21793.29
613.344	21365.26
613.539	21508.62
613.735	21723.66
613.93	21385.74
614.126	21436.94
614.321	21498.38
614.517	21197.33
614.712	21318.16
614.907	21199.38
615.103	21168.66
615.298	20943.38
615.493	21246.48
615.688	20914.71
615.884	21445.13
616.079	20572.7
616.274	20873.75
616.47	20953.62
616.665	20890.13
616.86	20814.36
617.055	20476.44
617.25	20636.19
617.445	20689.43
617.641	20472.35
617.836	20449.82
618.031	20257.31
618.226	20652.57
618.421	20062.76
618.616	20412.96
618.811	19782.18
619.006	20513.31
619.201	20101.67
619.396	20122.15
619.591	19835.43
619.786	20136.48
619.981	19503.66
620.176	19741.22
620.371	19298.86
620.566	19612.2
620.761	19331.63
620.956	19571.24
621.151	19286.58
621.346	19274.29
621.541	18876.98
621.735	19149.36
621.93	18774.58
622.125	19030.58
622.32	18629.18
622.515	18965.04
622.709	18475.58
622.904	18645.56
623.099	18418.24
623.294	18311.74
623.488	17893.96
623.683	17846.85
623.878	17807.94
624.072	18100.8
624.267	17848.9
624.462	17590.86
624.656	17750.6
624.851	17832.52
625.046	17281.61
625.24	16964.18
625.435	17257.04
625.629	17246.8
625.824	17115.73
626.018	17082.96
626.213	16661.08
626.407	16734.81
626.602	16745.05
626.796	16757.33
626.991	16558.68
627.185	16450.14
627.38	16431.71
627.574	16200.29
627.768	16163.42
627.963	16177.76
628.157	15835.75
628.352	15823.46
628.546	15546.98
628.74	15884.9
628.935	15714.92
629.129	15606.38
629.323	15391.34
629.517	15305.32
629.712	15475.31
629.906	15497.83
630.1	15127.15
630.294	15143.53
630.489	14887.54
630.683	15049.33
630.877	14807.67
631.071	14875.25
631.265	14871.15
631.459	14619.25
631.653	14531.19
631.848	14445.18
632.042	14500.47
632.236	14557.82
632.43	14375.55
632.624	14246.52
632.818	13965.95
633.012	14205.56
633.206	14119.55
633.4	13828.74
633.594	13902.47
633.788	13724.29
633.982	13820.55
634.176	13605.51
634.369	13601.41
634.563	13353.61
634.757	13462.15
634.951	13339.27
635.145	13476.49
635.339	13103.76
635.533	13304.46
635.726	13283.98
635.92	12858
636.114	12982.93
636.308	12921.49
636.501	12946.06
636.695	12659.35
636.889	12685.97
637.083	12671.64
637.276	12520.09
637.47	12384.92
637.664	12104.35
637.857	12216.99
638.051	12200.6
638.244	12239.51
638.438	12188.32
638.632	12130.97
638.825	11997.85
639.019	12067.49
639.212	11852.45
639.406	11901.6
639.599	11776.67
639.793	11532.97
639.986	11698.85
640.18	11813.54
640.373	11389.61
640.567	11416.23
640.76	11465.38
640.954	11248.3
641.147	11092.65
641.34	11287.21
641.534	10932.91
641.727	11180.71
641.92	11014.83
642.114	10807.98
642.307	10912.43
642.5	10826.42
642.694	10885.81
642.887	10896.05
643.08	10715.83
643.273	10672.82
643.467	10597.04
643.66	10511.03
643.853	10169.02
644.046	10504.89
644.239	10199.74
644.432	10263.22
644.626	10259.13
644.819	9999.04
645.012	10226.36
645.205	10218.17
645.398	10058.43
645.591	9925.31
645.784	9956.03
645.977	9771.71
646.17	9837.25
646.363	9757.38
646.556	9812.67
646.749	9730.75
646.942	9624.26
647.135	9614.02
647.328	9515.72
647.521	9499.33
647.714	9480.9
647.907	9358.02
648.099	9347.78
648.292	9325.26
648.485	9278.15
648.678	9028.3
648.871	9315.02
649.064	9249.48
649.256	9183.95
649.449	8794.83
649.642	9073.35
649.835	8792.78
650.027	8790.74
650.22	8827.6
650.413	8921.81
650.605	8925.9
650.798	8780.5
650.991	8780.5
651.183	8630.99
651.376	8514.26
651.568	8663.76
651.761	8618.71
651.954	8329.94
652.146	8307.41
652.339	8442.58
652.531	8239.83
652.724	8360.66
652.916	8047.32
653.109	8194.78
653.301	8139.48
653.494	8075.99
653.686	8030.94
653.879	8190.68
654.071	7906.01
654.263	7944.92
654.456	7924.44
654.648	7922.4
654.84	7787.23
655.033	7656.16
655.225	7584.48
655.417	7705.31
655.61	7731.94
655.802	7576.29
655.994	7639.78
656.186	7467.75
656.379	7371.49
656.571	7502.56
656.763	7322.34
656.955	7615.2
657.148	7463.65
657.34	7430.88
657.532	7373.54
657.724	7291.62
657.916	7183.08
658.108	7330.53
658.3	7099.11
658.492	7205.61
658.684	7009
658.876	7160.55
659.068	7043.82
659.26	6812.4
659.452	6978.28
659.644	6982.38
659.836	6767.34
660.028	6787.82
660.22	6972.14
660.412	6994.67
660.604	6728.43
660.796	6738.67
660.988	6597.36
661.18	6736.62
661.372	6580.98
661.563	6662.9
661.755	6546.16
661.947	6601.46
662.139	6570.74
662.331	6347.51
662.522	6476.53
662.714	6382.32
662.906	6503.15
663.097	6202.1
663.289	6320.88
663.481	6277.88
663.673	6345.46
663.864	6279.93
664.056	6296.31
664.247	6116.09
664.439	6165.24
664.631	6214.39
664.822	6179.58
665.014	6318.84
665.205	6040.31
665.397	6044.41
665.588	6077.18
665.78	5995.26
665.971	6028.03
666.163	6118.14
666.354	5812.99
666.546	5798.65
666.737	5808.89
666.929	5954.3
667.12	5944.06
667.311	5899
667.503	5870.33
667.694	5866.24
667.885	5894.91
668.077	5649.15
668.268	5585.66
668.459	5532.42
668.651	5860.09
668.842	5796.6
669.033	5638.91
669.224	5563.14
669.416	5763.84
669.607	5520.13
669.798	5731.07
669.989	5591.81
670.18	5542.66
670.371	5614.34
670.563	5436.16
670.754	5583.62
670.945	5595.9
671.136	5628.67
671.327	5391.11
671.518	5333.76
671.709	5622.53
671.9	5436.16
672.091	5362.44
672.282	5481.22
672.473	5298.95
672.664	5440.26
672.855	5270.28
673.046	5387.01
673.237	5214.98
673.428	5272.32
673.619	5317.38
673.809	5165.83
674	5282.56
674.191	5321.48
674.382	5356.29
674.573	5227.27
674.764	5231.37
674.954	5311.24
675.145	5186.31
675.336	5176.07
675.527	5139.21
675.717	5157.64
675.908	5118.73
676.099	5178.12
676.289	5120.78
676.48	5344
676.671	4977.42
676.861	5128.97
677.052	5098.25
677.243	5112.58
677.433	5186.31
677.624	5174.02
677.814	5272.32
678.005	5212.93
678.195	5282.56
678.386	5163.78
678.576	5057.29
678.767	4991.75
678.957	5184.26
679.148	5151.49
679.338	5147.4
679.529	4979.47
679.719	5014.28
679.909	4999.95
680.1	5053.19
680.29	5092.1
680.481	5040.9
680.671	5221.13
680.861	5069.58
681.052	5239.56
681.242	5026.57
681.432	5225.22
681.622	5165.83
681.813	5085.96
682.003	5106.44
682.193	5065.48
682.383	5225.22
682.573	5042.95
682.764	4870.92
682.954	5120.78
683.144	5065.48
683.334	4975.37
683.524	4989.71
683.714	4928.27
683.904	5108.49
684.094	4883.21
684.284	4934.41
684.474	4963.08
684.664	5128.97
684.854	4942.6
685.044	5057.29
685.234	4940.55
685.424	4993.8
685.614	4811.53
685.804	4756.24
685.994	4936.46
686.184	4985.61
686.374	4895.5
686.564	4915.98
686.753	4764.43
686.943	4655.89
687.133	4635.41
687.323	4772.62
687.513	4764.43
687.702	4705.04
687.892	4846.35
688.082	4668.17
688.272	4647.69
688.461	4662.03
688.651	4762.38
688.841	4610.83
689.03	4571.92
689.22	4576.02
689.41	4455.19
689.599	4465.43
689.789	4371.22
689.979	4424.47
690.168	4391.7
690.358	4272.92
690.547	4365.07
690.737	4406.03
690.926	4252.44
691.116	4311.83
691.305	4350.74
691.495	4311.83
691.684	4211.48
691.874	4246.29
692.063	4182.81
692.252	4414.23
692.442	4176.66
692.631	4193.05
692.82	4223.76
693.01	4211.48
693.199	4033.3
693.388	4045.59
693.578	4016.92
693.767	4168.47
693.956	4092.69
694.146	4033.3
694.335	3996.44
694.524	3992.34
694.713	4037.4
694.902	4070.17
695.092	3906.33
695.281	3992.34
695.47	3863.32
695.659	3791.64
695.848	3951.39
696.037	3863.32
696.226	3975.96
696.415	3914.52
696.604	3879.71
696.793	3744.54
696.982	3932.95
697.171	4051.74
697.36	3754.78
697.549	3752.73
697.738	3830.55
697.927	3775.26
698.116	3722.01
698.305	3724.06
698.494	3904.28
698.683	3783.45
698.872	3879.71
699.061	3795.74
699.25	3726.11
699.438	3652.38
699.627	3629.85
699.816	3869.47
700.005	3656.48
700.193	3724.06
700.382	3894.04
700.571	3613.47
700.76	3801.88
700.948	3785.5
701.137	3955.48
701.326	3816.22
701.514	3691.29
701.703	3867.42
701.892	3875.61
702.08	3724.06
702.269	3744.54
702.457	3779.36
702.646	3650.33
702.834	3691.29
703.023	3762.97
703.212	3722.01
703.4	3654.43
703.589	3691.29
703.777	3717.92
703.965	3509.02
704.154	3732.25
704.342	3752.73
704.531	3775.26
704.719	3679.01
704.907	3711.77
705.096	3822.36
705.284	3656.48
705.472	3744.54
705.661	3685.15
705.849	3713.82
706.037	3787.55
706.226	3670.81
706.414	3744.54
706.602	3568.41
706.79	3785.5
706.979	3738.4
707.167	3818.27
707.355	3783.45
707.543	3758.88
707.731	3691.29
707.919	3707.68
708.107	3722.01
708.296	3654.43
708.484	3722.01
708.672	3812.12
708.86	3740.44
709.048	3851.03
709.236	3824.41
709.424	3830.55
709.612	3898.14
709.8	3816.22
709.988	3873.56
710.176	3836.7
710.364	3889.95
710.551	3906.33
710.739	3728.16
710.927	3830.55
711.115	3795.74
711.303	3801.88
711.491	3726.11
711.679	3814.17
711.866	3805.98
712.054	3932.95
712.242	3859.23
712.43	3918.62
712.617	3924.76
712.805	3939.1
712.993	3978.01
713.181	3844.89
713.368	3959.58
713.556	3904.28
713.744	3930.91
713.931	4014.87
714.119	3859.23
714.306	3785.5
714.494	3820.32
714.682	3928.86
714.869	3853.08
715.057	4049.69
715.244	4023.06
715.432	3969.82
715.619	4016.92
715.807	3881.75
715.994	3789.6
716.182	3908.38
716.369	4035.35
716.556	4121.37
716.744	4014.87
716.931	3943.19
717.119	4117.27
717.306	4014.87
717.493	4004.63
717.681	4113.17
717.868	4150.04
718.055	4047.64
718.242	4123.41
718.43	4092.69
718.617	3975.96
718.804	3947.29
718.991	4078.36
719.179	4119.32
719.366	4113.17
719.553	4061.98
719.74	4076.31
719.927	4236.05
720.114	4061.98
720.301	3965.72
720.488	4121.37
720.676	4031.26
720.863	4145.94
721.05	4264.72
721.237	4154.13
721.424	4234
721.611	4250.39
721.798	4064.02
721.985	4129.56
722.172	4160.28
722.358	4203.29
722.545	4303.64
722.732	4168.47
722.919	4242.2
723.106	4252.44
723.293	4170.52
723.48	4246.29
723.667	4084.5
723.853	4340.5
724.04	4223.76
724.227	4322.07
724.414	4266.77
724.6	4186.9
724.787	4291.35
724.974	4195.09
725.161	4438.8
725.347	4205.33
725.534	4307.73
725.72	4231.96
725.907	4324.12
726.094	4346.64
726.28	4342.55
726.467	4295.44
726.653	4158.23
726.84	4295.44
727.027	4389.65
727.213	4186.9
727.4	4348.69
727.586	4399.89
727.773	4291.35
727.959	4518.67
728.145	4377.36
728.332	4252.44
728.518	4375.31
728.705	4358.93
728.891	4344.6
729.077	4332.31
729.264	4463.38
729.45	4436.75
729.636	4350.74
729.823	4305.68
730.009	4293.4
730.195	4346.64
730.382	4453.14
730.568	4367.12
730.754	4463.38
730.94	4477.71
731.126	4416.27
731.313	4289.3
731.499	4401.94
731.685	4342.55
731.871	4360.98
732.057	4522.77
732.243	4530.96
732.429	4401.94
732.615	4397.84
732.801	4354.83
732.987	4426.51
733.173	4412.18
733.359	4373.27
733.545	4373.27
733.731	4332.31
733.917	4502.29
734.103	4406.03
734.289	4440.85
734.475	4438.8
734.661	4504.34
734.847	4563.73
735.033	4274.96
735.219	4432.66
735.404	4369.17
735.59	4430.61
735.776	4477.71
735.962	4541.2
736.148	4461.33
736.333	4477.71
736.519	4395.79
736.705	4438.8
736.89	4307.73
737.076	4498.19
737.262	4289.3
737.447	4363.03
737.633	4356.88
737.819	4487.95
738.004	4348.69
738.19	4373.27
738.375	4348.69
738.561	4430.61
738.747	4191
738.932	4266.77
739.118	4283.16
739.303	4297.49
739.489	4258.58
739.674	4119.32
739.859	4272.92
740.045	4262.68
740.23	4315.92
740.416	4139.8
740.601	4197.14
740.786	4244.24
740.972	4045.59
741.157	4109.08
741.342	4199.19
741.528	4182.81
741.713	4219.67
741.898	4068.12
742.084	4074.26
742.269	4115.22
742.454	4135.7
742.639	4100.89
742.824	4133.65
743.01	4174.61
743.195	4219.67
743.38	4123.41
743.565	3947.29
743.75	3873.56
743.935	3920.67
744.12	3990.3
744.305	3846.94
744.49	4037.4
744.675	3932.95
744.86	3902.23
745.045	3797.79
745.23	3797.79
745.415	3795.74
745.6	3896.09
745.785	3808.03
745.97	3912.47
746.155	3773.21
746.34	3654.43
746.525	3740.44
746.71	3812.12
746.895	3781.4
747.079	3734.3
747.264	3724.06
747.449	3658.53
747.634	3509.02
747.819	3584.8
748.003	3586.85
748.188	3543.84
748.373	3599.13
748.557	3638.05
748.742	3478.3
748.927	3502.88
749.111	3490.59
749.296	3425.06
749.481	3371.81
749.665	3410.72
749.85	3363.62
750.034	3396.39
750.219	3388.19
750.404	3201.83
750.588	3281.7
750.773	3191.59
750.957	3314.47
751.141	3158.82
751.326	3220.26
751.51	3138.34
751.695	3222.31
751.879	3111.72
752.064	3191.59
752.248	3019.56
752.432	3197.73
752.617	3218.21
752.801	3138.34
752.985	2962.22
753.17	3142.44
753.354	2986.79
753.538	2970.41
753.722	2933.54
753.907	2956.07
754.091	2863.91
754.275	2845.48
754.459	2818.86
754.643	2863.91
754.828	2747.18
755.012	2831.15
755.196	2757.42
755.38	2788.14
755.564	2796.33
755.748	2626.35
755.932	2695.98
756.116	2646.83
756.3	2638.64
756.484	2530.09
756.668	2472.75
756.852	2495.28
757.036	2495.28
757.22	2534.19
757.404	2581.29
757.588	2374.45
757.772	2544.43
757.956	2519.85
758.14	2495.28
758.323	2372.4
758.507	2442.03
758.691	2333.49
758.875	2411.31
759.059	2423.6
759.242	2321.2
759.426	2360.11
759.61	2380.59
759.794	2425.65
759.977	2356.02
760.161	2341.68
760.345	2249.52
760.528	2233.14
760.712	2308.91
760.895	2126.64
761.079	2227
761.263	2169.65
761.446	2143.03
761.63	2192.18
761.813	2247.48
761.997	2014.01
762.18	2130.74
762.364	2155.32
762.547	2149.17
762.731	2093.88
762.914	2030.39
763.098	2044.73
763.281	2097.97
763.464	2079.54
763.648	2061.11
763.831	1919.8
764.015	2001.72
764.198	1975.1
764.381	1999.67
764.564	2024.25
764.748	2063.16
764.931	1938.23
765.114	1913.66
765.297	2046.77
765.481	1997.62
765.664	1905.46
765.847	1956.66
766.03	1913.66
766.213	1923.9
766.397	2003.77
766.58	1927.99
766.763	1874.74
766.946	1823.55
767.129	1958.71
767.312	1866.55
767.495	1702.72
767.678	1841.98
767.861	1784.63
768.044	1794.87
768.227	1776.44
768.41	1747.77
768.593	1884.98
768.776	1784.63
768.959	1897.27
769.142	1870.65
769.324	1764.15
769.507	1696.57
769.69	1729.34
769.873	1762.11
770.056	1856.31
770.239	1768.25
770.421	1700.67
770.604	1661.76
770.787	1643.32
770.97	1698.62
771.152	1592.13
771.335	1585.98
771.518	1663.8
771.7	1678.14
771.883	1635.13
772.066	1624.89
772.248	1692.48
772.431	1583.93
772.613	1596.22
772.796	1569.6
772.978	1610.56
773.161	1532.73
773.343	1639.23
773.526	1622.84
773.708	1426.24
773.891	1467.2
774.073	1456.96
774.256	1405.76
774.438	1473.34
774.621	1485.63
774.803	1526.59
774.985	1422.14
775.168	1450.82
775.35	1463.1
775.532	1416
775.715	1405.76
775.897	1364.8
776.079	1479.49
776.261	1303.36
776.444	1413.95
776.626	1370.94
776.808	1327.94
776.99	1270.59
777.173	1409.86
777.355	1256.26
777.537	1270.59
777.719	1270.59
777.901	1317.7
778.083	1205.06
778.265	1315.65
778.447	1329.99
778.629	1225.54
778.811	1239.87
778.993	1315.65
779.175	1168.2
779.357	1172.29
779.539	1196.87
779.721	1174.34
779.903	1215.3
780.085	1127.24
780.267	1143.62
780.449	1157.96
780.631	1102.66
780.812	1200.96
780.994	1026.89
781.176	1114.95
781.358	1033.03
781.54	1082.18
781.721	1051.46
781.903	1112.9
782.085	1045.32
782.267	1045.32
782.448	998.21
782.63	992.07
782.812	1039.17
782.993	996.17
783.175	973.64
783.357	938.82
783.538	983.88
783.72	930.63
783.901	967.49
784.083	926.54
784.264	940.87
784.446	951.11
784.627	863.05
784.809	885.58
784.99	930.63
785.172	867.14
785.353	947.01
785.535	873.29
785.716	817.99
785.897	879.43
786.079	772.94
786.26	918.34
786.441	918.34
786.623	815.94
786.804	873.29
786.985	891.72
787.167	863.05
787.348	815.94
787.529	832.33
787.71	887.62
787.891	756.55
788.073	742.22
788.254	779.08
788.435	856.9
788.616	789.32
788.797	772.94
788.978	797.51
789.159	676.68
789.34	805.71
789.522	787.27
789.703	750.41
789.884	752.46
790.065	723.79
790.246	750.41
790.427	684.87
790.607	772.94
790.788	766.79
790.969	686.92
791.15	686.92
791.331	672.59
791.512	594.76
791.693	613.2
791.874	652.11
792.054	711.5
792.235	596.81
792.416	590.67
792.597	668.49
792.778	672.59
792.958	660.3
793.139	623.44
793.32	574.28
793.5	545.61
793.681	758.6
793.862	678.73
794.042	557.9
794.223	592.72
794.404	539.47
794.584	590.67
794.765	639.82
794.945	619.34
795.126	641.87
795.306	512.85
795.487	600.91
795.667	549.71
795.848	717.64
796.028	478.03
796.209	570.19
796.389	570.19
796.57	568.14
796.75	619.34
796.93	576.33
797.111	484.17
797.291	488.27
797.471	635.72
797.652	473.93
797.832	449.36
798.012	598.86
798.192	498.51
798.373	457.55
798.553	514.89
798.733	537.42
798.913	578.38
799.093	529.23
799.274	504.65
799.454	521.04
799.634	506.7
799.814	463.69
799.994	465.74
800.174	523.09
800.354	529.23
800.534	410.45
800.714	514.89
800.894	492.37
801.074	447.31
801.254	469.84
801.434	506.7
801.614	473.93
801.794	383.82
801.974	1274.69
802.154	453.45
802.334	447.31
802.514	439.12
802.693	361.3
802.873	437.07
803.053	426.83
803.233	463.69
803.413	387.92
803.592	410.45
803.772	457.55
803.952	383.82
804.131	328.53
804.311	365.39
804.491	435.02
804.67	363.34
804.85	473.93
805.03	490.32
805.209	471.89
805.389	334.67
805.568	398.16
805.748	467.79
805.928	379.73
806.107	467.79
806.287	387.92
806.466	398.16
806.646	346.96
806.825	379.73
807.004	367.44
807.184	461.65
807.363	422.73
807.543	351.06
807.722	310.1
807.901	410.45
808.081	432.97
808.26	271.19
808.439	387.92
808.619	340.82
808.798	267.09
808.977	385.87
809.156	324.43
809.336	312.14
809.515	422.73
809.694	293.71
809.873	359.25
810.052	359.25
810.231	410.45
810.411	371.54
810.59	344.91
810.769	340.82
810.948	385.87
811.127	240.47
811.306	285.52
811.485	359.25
811.664	340.82
811.843	275.28
812.022	279.38
812.201	414.54
812.38	222.03
812.559	248.66
812.737	275.28
812.916	283.47
813.095	256.85
813.274	273.23
813.453	375.63
813.632	349.01
813.811	320.34
813.989	164.69
814.168	318.29
814.347	213.84
814.526	287.57
814.704	346.96
814.883	295.76
815.062	252.75
815.24	279.38
815.419	224.08
815.598	283.47
815.776	191.31
815.955	256.85
816.133	240.47
816.312	238.42
816.49	289.62
816.669	262.99
816.847	338.77
817.026	234.32
817.204	275.28
817.383	265.04
817.561	285.52
817.74	310.1
817.918	275.28
818.097	232.27
818.275	230.23
818.453	260.95
818.632	250.71
818.81	244.56
818.988	244.56
819.167	246.61
819.345	308.05
819.523	258.9
819.701	193.36
819.879	295.76
820.058	250.71
820.236	250.71
820.414	234.32
820.592	219.99
820.77	240.47
820.948	312.14
821.127	275.28
821.305	197.46
821.483	222.03
821.661	160.59
821.839	254.8
822.017	150.36
822.195	191.31
822.373	293.71
822.551	242.51
822.729	346.96
822.907	193.36
823.085	256.85
823.262	213.84
823.44	183.12
823.618	201.55
823.796	201.55
823.974	136.02
824.152	197.46
824.329	242.51
824.507	222.03
824.685	152.4
824.863	176.98
825.04	232.27
825.218	289.62
825.396	133.97
825.574	256.85
825.751	172.88
825.929	230.23
826.107	140.12
826.284	195.41
826.462	189.27
826.639	144.21
826.817	109.4
826.994	166.74
827.172	127.83
827.349	246.61
827.527	236.37
827.704	211.79
827.882	273.23
828.059	107.35
828.237	86.87
828.414	144.21
828.591	168.79
828.769	193.36
828.946	244.56
829.124	299.86
829.301	285.52
829.478	107.35
829.655	168.79
829.833	195.41
830.01	103.25
830.187	209.75
830.364	183.12
830.542	113.49
830.719	219.99
830.896	95.06
831.073	125.78
831.25	97.11
831.427	156.5
831.604	234.32
831.782	183.12
831.959	275.28
832.136	127.83
832.313	179.03
832.49	144.21
832.667	164.69
832.844	125.78
833.021	217.94
833.198	224.08
833.374	133.97
833.551	187.22
833.728	150.36
833.905	172.88
834.082	76.63
834.259	90.96
834.436	164.69
834.612	84.82
834.789	162.64
834.966	127.83
835.143	125.78
835.319	168.79
835.496	201.55
835.673	172.88
835.85	181.07
836.026	185.17
836.203	129.88
836.38	140.12
836.556	138.07
836.733	127.83
836.909	185.17
837.086	99.16
837.262	140.12
837.439	58.2
837.616	80.72
837.792	142.16
837.968	123.73
838.145	168.79
838.321	74.58
838.498	95.06
838.674	219.99
838.851	127.83
839.027	144.21
839.203	131.92
839.38	111.44
839.556	158.55
839.732	146.26
839.909	127.83
840.085	103.25
840.261	70.48
840.437	129.88
840.614	45.91
840.79	136.02
840.966	129.88
841.142	72.53
841.318	82.77
841.494	109.4
841.671	144.21
841.847	105.3
842.023	140.12
842.199	142.16
842.375	205.65
842.551	95.06
842.727	117.59
842.903	123.73
843.079	76.63
843.255	156.5
843.431	93.01
843.607	144.21
843.783	13.14
843.959	136.02
844.134	76.63
844.31	185.17
844.486	74.58
844.662	107.35
844.838	148.31
845.013	136.02
845.189	148.31
845.365	125.78
845.541	70.48
845.716	68.44
845.892	74.58
846.068	123.73
846.244	37.72
846.419	88.92
846.595	80.72
846.77	41.81
846.946	82.77
847.122	-52.39
847.297	45.91
847.473	183.12
847.648	4.95
847.824	115.54
847.999	0.85
848.175	33.62
848.35	111.44
848.526	119.64
848.701	76.63
848.876	136.02
849.052	97.11
849.227	66.39
849.403	45.91
849.578	111.44
849.753	82.77
849.929	138.07
850.104	54.1
850.279	109.4
850.454	131.92
850.63	45.91
850.805	56.15
850.98	74.58
851.155	56.15
851.33	72.53
851.505	-40.11
851.681	107.35
851.856	58.2
852.031	95.06
852.206	88.92
852.381	33.62
852.556	78.68
852.731	82.77
852.906	78.68
853.081	47.96
853.256	103.25
853.431	127.83
853.606	52.05
853.781	101.2
853.956	-33.96
854.131	95.06
854.305	74.58
854.48	47.96
854.655	-46.25
854.83	50
855.005	70.48
855.18	54.1
855.354	95.06
855.529	66.39
855.704	2.9
855.879	97.11
856.053	-7.34
856.228	62.29
856.403	58.2
856.577	17.24
856.752	64.34
856.926	45.91
857.101	88.92
857.276	93.01
857.45	27.48
857.625	62.29
857.799	127.83
857.974	78.68
858.148	-46.25
858.323	131.92
858.497	2.9
858.672	37.72
858.846	23.38
859.02	29.52
859.195	-15.53
859.369	45.91
859.543	97.11
859.718	47.96
859.892	103.25
860.066	150.36
860.241	23.38
860.415	50
860.589	35.67
860.763	101.2
860.938	47.96
861.112	90.96
861.286	-33.96
861.46	-1.19
861.634	66.39
861.808	-5.29
861.982	11.09
862.157	21.33
862.331	9.05
862.505	-52.39
862.679	17.24
862.853	62.29
863.027	17.24
863.201	97.11
863.375	19.29
863.549	45.91
863.722	-15.53
863.896	121.68
864.07	27.48
864.244	62.29
864.418	17.24
864.592	21.33
864.766	80.72
864.939	33.62
865.113	-52.39
865.287	37.72
865.461	11.09
865.634	37.72
865.808	21.33
865.982	109.4
866.156	-66.73
866.329	-42.15
866.503	60.24
866.676	136.02
866.85	58.2
867.024	54.1
867.197	86.87
867.371	60.24
867.544	31.57
867.718	27.48
867.891	60.24
868.065	-11.43
868.238	70.48
868.412	86.87
868.585	-21.67
868.759	31.57
868.932	99.16
869.105	7
869.279	58.2
869.452	-25.77
869.625	45.91
869.799	37.72
869.972	-56.49
870.145	50
870.319	127.83
870.492	88.92
870.665	-15.53
870.838	13.14
871.011	-33.96
871.185	-7.34
871.358	-23.72
871.531	7
871.704	-27.82
871.877	31.57
872.05	66.39
872.223	47.96
872.396	43.86
872.569	37.72
872.742	-15.53
872.915	103.25
873.088	-25.77
873.261	33.62
873.434	21.33
873.607	25.43
873.78	74.58
873.953	-87.21
874.126	4.95
874.299	19.29
874.471	-5.29
874.644	107.35
874.817	2.9
874.99	37.72
875.163	-27.82
875.335	101.2
875.508	25.43
875.681	15.19
875.853	54.1
876.026	-19.63
876.199	45.91
876.371	82.77
876.544	9.05
876.717	54.1
876.889	50
877.062	0.85
877.234	-25.77
877.407	-19.63
877.579	54.1
877.752	-36.01
877.924	66.39
878.097	37.72
878.269	29.52
878.442	74.58
878.614	76.63
878.786	107.35
878.959	45.91
879.131	29.52
879.303	-19.63
879.476	19.29
879.648	54.1
879.82	37.72
879.993	-33.96
880.165	-23.72
880.337	-15.53
880.509	11.09
880.681	-11.43
880.854	19.29
881.026	4.95
881.198	209.75
881.37	95.06
881.542	33.62
881.714	62.29
881.886	35.67
882.058	33.62
882.23	31.57
882.402	-40.11
882.574	37.72
882.746	39.76
882.918	95.06
883.09	25.43
883.262	9.05
883.434	0.85
883.606	-13.48
883.778	23.38
883.95	64.34
884.122	-9.39
884.293	39.76
884.465	11.09
884.637	56.15
884.809	39.76
884.98	45.91
885.152	21.33
885.324	17.24
885.496	9.05
885.667	2.9
885.839	4.95
886.011	76.63
886.182	13.14
886.354	47.96
886.525	-38.06
886.697	-5.29
886.869	43.86
887.04	31.57
887.212	13.14
887.383	37.72
887.555	-19.63
887.726	9.05
887.897	-15.53
888.069	80.72
888.24	29.52
888.412	70.48
888.583	23.38
888.754	-7.34
888.926	-5.29
889.097	-38.06
889.268	-44.2
889.44	-1.19
889.611	-54.44
889.782	17.24
889.953	35.67
890.125	37.72
890.296	0.85
890.467	2.9
890.638	43.86
890.809	-25.77
890.98	13.14
891.151	52.05
891.323	27.48
891.494	45.91
891.665	29.52
891.836	-7.34
892.007	9.05
892.178	-5.29
892.349	7
892.52	-25.77
892.691	19.29
892.862	17.24
893.032	-64.68
893.203	23.38
893.374	17.24
893.545	-3.24
893.716	-46.25
893.887	47.96
894.057	-38.06
894.228	11.09
894.399	47.96
894.57	50
894.74	17.24
894.911	-5.29
895.082	-36.01
895.253	7
895.423	21.33
895.594	39.76
895.764	60.24
895.935	-72.87
896.106	47.96
896.276	11.09
896.447	11.09
896.617	-27.82
896.788	9.05
896.958	4.95
897.129	9.05
897.299	11.09
897.47	144.21
897.64	86.87
897.81	-9.39
897.981	-25.77
898.151	58.2
898.322	29.52
898.492	52.05
898.662	37.72
898.832	-1.19
899.003	-33.96
899.173	25.43
899.343	37.72
899.513	23.38
