Data from USB4F104151__77__13-06-07-599.txt Node

Date: Fri Mar 14 13:06:07 EDT 2025
User: louis
Spectrometer: USB4F10415
Trigger mode: 4
Integration Time (sec): 4.000000E-2
Scans to average: 1
Electric dark correction enabled: true
Nonlinearity correction enabled: false
Boxcar width: 0
XAxis mode: Wavelengths
Number of Pixels in Spectrum: 3648
>>>>>Begin Spectral Data<<<<<
178.204	-149.5
178.424	-149.5
178.644	-149.5
178.864	-182.27
179.084	-139.26
179.304	2.05
179.524	-18.43
179.744	-14.34
179.964	102.4
180.184	24.58
180.404	47.1
180.624	28.67
180.844	-38.91
181.064	-65.53
181.283	-16.38
181.503	-40.96
181.723	-10.24
181.943	2.05
182.163	100.35
182.383	51.2
182.602	102.4
182.822	96.25
183.042	-16.38
183.262	-26.62
183.482	38.91
183.701	-18.43
183.921	28.67
184.141	65.54
184.361	43.01
184.58	53.25
184.8	24.58
185.02	55.3
185.239	-4.1
185.459	8.19
185.679	-55.3
185.898	-18.43
186.118	53.25
186.338	34.82
186.557	88.06
186.777	92.16
186.997	18.43
187.216	-10.24
187.436	98.3
187.655	22.53
187.875	92.16
188.095	28.67
188.314	120.83
188.534	67.58
188.753	12.29
188.973	40.96
189.192	49.15
189.412	51.2
189.631	20.48
189.851	67.58
190.07	129.02
190.29	22.53
190.509	53.25
190.729	51.2
190.948	63.49
191.168	153.6
191.387	129.02
191.607	24.58
191.826	86.01
192.045	-6.14
192.265	32.77
192.484	6.14
192.704	47.1
192.923	-10.24
193.142	98.3
193.362	73.73
193.581	61.44
193.8	69.63
194.02	45.06
194.239	26.62
194.458	47.1
194.678	73.73
194.897	20.48
195.116	6.14
195.335	49.15
195.555	40.96
195.774	-88.06
195.993	0
196.212	83.97
196.432	-67.58
196.651	2.05
196.87	14.34
197.089	219.13
197.308	98.3
197.528	40.96
197.747	-32.77
197.966	108.54
198.185	75.77
198.404	4.1
198.623	30.72
198.842	22.53
199.062	51.2
199.281	14.34
199.5	34.82
199.719	45.06
199.938	26.62
200.157	61.44
200.376	32.77
200.595	-4.1
200.814	47.1
201.033	0
201.252	61.44
201.471	30.72
201.69	22.53
201.909	75.77
202.128	28.67
202.347	61.44
202.566	-12.29
202.785	-10.24
203.004	32.77
203.223	98.3
203.442	16.38
203.661	38.91
203.879	51.2
204.098	112.64
204.317	22.53
204.536	88.06
204.755	12.29
204.974	30.72
205.193	43.01
205.411	57.34
205.63	131.07
205.849	22.53
206.068	4.1
206.287	4.1
206.505	16.38
206.724	55.3
206.943	6.14
207.162	14.34
207.381	26.62
207.599	20.48
207.818	10.24
208.037	51.2
208.255	59.39
208.474	2.05
208.693	67.58
208.911	-2.05
209.13	112.64
209.349	110.59
209.567	40.96
209.786	47.1
210.005	-49.15
210.223	90.11
210.442	-28.67
210.661	75.77
210.879	92.16
211.098	0
211.316	38.91
211.535	53.25
211.753	79.87
211.972	47.1
212.191	8.19
212.409	16.38
212.628	53.25
212.846	16.38
213.065	86.01
213.283	67.58
213.502	-12.29
213.72	79.87
213.938	88.06
214.157	79.87
214.375	-30.72
214.594	104.45
214.812	92.16
215.031	73.73
215.249	22.53
215.467	-16.38
215.686	-12.29
215.904	114.69
216.122	59.39
216.341	47.1
216.559	57.34
216.778	106.49
216.996	106.49
217.214	45.06
217.432	59.39
217.651	53.25
217.869	71.68
218.087	18.43
218.306	49.15
218.524	69.63
218.742	22.53
218.96	2.05
219.179	20.48
219.397	129.02
219.615	88.06
219.833	49.15
220.051	38.91
220.27	69.63
220.488	92.16
220.706	45.06
220.924	26.62
221.142	0
221.36	102.4
221.578	32.77
221.796	47.1
222.015	-8.19
222.233	-10.24
222.451	122.88
222.669	36.86
222.887	129.02
223.105	26.62
223.323	47.1
223.541	16.38
223.759	59.39
223.977	-2.05
224.195	122.88
224.413	53.25
224.631	20.48
224.849	73.73
225.067	145.41
225.285	47.1
225.503	-16.38
225.721	-90.11
225.939	-24.58
226.157	20.48
226.375	133.12
226.592	-10.24
226.81	100.35
227.028	83.97
227.246	114.69
227.464	24.58
227.682	118.78
227.9	36.86
228.117	75.77
228.335	-6.14
228.553	24.58
228.771	71.68
228.989	124.93
229.206	18.43
229.424	8.19
229.642	-20.48
229.86	-83.97
230.077	32.77
230.295	26.62
230.513	69.63
230.731	100.35
230.948	59.39
231.166	18.43
231.384	-12.29
231.601	-55.3
231.819	114.69
232.037	36.86
232.254	-2.05
232.472	102.4
232.689	-6.14
232.907	100.35
233.125	16.38
233.342	0
233.56	22.53
233.777	16.38
233.995	36.86
234.213	126.97
234.43	-18.43
234.648	30.72
234.865	-6.14
235.083	83.97
235.3	26.62
235.518	96.25
235.735	143.36
235.953	47.1
236.17	77.82
236.388	79.87
236.605	10.24
236.822	28.67
237.04	122.88
237.257	67.58
237.475	6.14
237.692	47.1
237.909	47.1
238.127	43.01
238.344	2.05
238.562	49.15
238.779	-18.43
238.996	-32.77
239.214	4.1
239.431	55.3
239.648	32.77
239.865	59.39
240.083	6.14
240.3	86.01
240.517	30.72
240.735	28.67
240.952	92.16
241.169	22.53
241.386	-16.38
241.603	36.86
241.821	38.91
242.038	-6.14
242.255	45.06
242.472	-59.39
242.689	94.21
242.907	65.54
243.124	24.58
243.341	28.67
243.558	40.96
243.775	-2.05
243.992	-65.53
244.209	53.25
244.426	167.93
244.643	47.1
244.86	24.58
245.078	43.01
245.295	26.62
245.512	24.58
245.729	73.73
245.946	-12.29
246.163	22.53
246.38	53.25
246.597	-10.24
246.814	51.2
247.031	-53.25
247.248	-14.34
247.464	43.01
247.681	83.97
247.898	4.1
248.115	45.06
248.332	57.34
248.549	20.48
248.766	147.45
248.983	75.77
249.2	129.02
249.417	47.1
249.633	-12.29
249.85	53.25
250.067	163.84
250.284	59.39
250.501	47.1
250.717	-30.72
250.934	-22.53
251.151	34.82
251.368	2.05
251.585	22.53
251.801	49.15
252.018	-55.3
252.235	67.58
252.451	-8.19
252.668	20.48
252.885	47.1
253.102	0
253.318	65.54
253.535	-12.29
253.752	-24.58
253.968	-2.05
254.185	-18.43
254.401	34.82
254.618	67.58
254.835	12.29
255.051	40.96
255.268	57.34
255.484	51.2
255.701	26.62
255.917	61.44
256.134	-20.48
256.351	32.77
256.567	63.49
256.784	22.53
257	45.06
257.217	47.1
257.433	32.77
257.65	88.06
257.866	94.21
258.082	40.96
258.299	83.97
258.515	102.4
258.732	-26.62
258.948	88.06
259.165	63.49
259.381	-16.38
259.597	24.58
259.814	22.53
260.03	116.73
260.246	63.49
260.463	16.38
260.679	81.92
260.895	63.49
261.112	131.07
261.328	-59.39
261.544	16.38
261.761	40.96
261.977	-6.14
262.193	49.15
262.409	30.72
262.626	106.49
262.842	22.53
263.058	-6.14
263.274	-4.1
263.49	96.25
263.707	122.88
263.923	-6.14
264.139	-26.62
264.355	6.14
264.571	28.67
264.787	24.58
265.004	114.69
265.22	-49.15
265.436	12.29
265.652	100.35
265.868	36.86
266.084	20.48
266.3	71.68
266.516	22.53
266.732	10.24
266.948	18.43
267.164	26.62
267.38	47.1
267.596	88.06
267.812	139.26
268.028	38.91
268.244	65.54
268.46	22.53
268.676	75.77
268.892	67.58
269.108	16.38
269.324	-73.73
269.54	30.72
269.756	120.83
269.972	45.06
270.188	51.2
270.403	47.1
270.619	28.67
270.835	88.06
271.051	63.49
271.267	-51.2
271.483	34.82
271.698	96.25
271.914	40.96
272.13	47.1
272.346	63.49
272.562	90.11
272.777	45.06
272.993	30.72
273.209	6.14
273.425	6.14
273.64	-38.91
273.856	116.73
274.072	43.01
274.287	10.24
274.503	67.58
274.719	28.67
274.934	10.24
275.15	-45.06
275.366	77.82
275.581	-45.06
275.797	45.06
276.012	30.72
276.228	75.77
276.444	16.38
276.659	24.58
276.875	-57.34
277.09	6.14
277.306	53.25
277.521	43.01
277.737	43.01
277.952	77.82
278.168	-6.14
278.383	2.05
278.599	-16.38
278.814	65.54
279.03	43.01
279.245	172.03
279.461	6.14
279.676	28.67
279.892	0
280.107	10.24
280.322	24.58
280.538	57.34
280.753	57.34
280.969	38.91
281.184	32.77
281.399	26.62
281.615	-10.24
281.83	67.58
282.045	-20.48
282.26	16.38
282.476	4.1
282.691	55.3
282.906	57.34
283.122	67.58
283.337	-6.14
283.552	34.82
283.767	-22.53
283.983	43.01
284.198	32.77
284.413	120.83
284.628	-30.72
284.843	43.01
285.058	83.97
285.274	-26.62
285.489	-18.43
285.704	102.4
285.919	-20.48
286.134	-75.77
286.349	20.48
286.564	40.96
286.779	73.73
286.995	-12.29
287.21	-20.48
287.425	-26.62
287.64	-69.63
287.855	63.49
288.07	-49.15
288.285	43.01
288.5	30.72
288.715	73.73
288.93	-8.19
289.145	8.19
289.36	24.58
289.575	59.39
289.79	96.25
290.004	65.54
290.219	141.31
290.434	0
290.649	24.58
290.864	79.87
291.079	-14.34
291.294	-16.38
291.509	-8.19
291.724	-22.53
291.938	10.24
292.153	43.01
292.368	30.72
292.583	24.58
292.798	-6.14
293.012	86.01
293.227	28.67
293.442	-34.82
293.657	12.29
293.871	124.93
294.086	67.58
294.301	129.02
294.516	61.44
294.73	-53.25
294.945	8.19
295.16	32.77
295.374	16.38
295.589	122.88
295.804	32.77
296.018	16.38
296.233	126.97
296.447	169.98
296.662	57.34
296.877	63.49
297.091	6.14
297.306	51.2
297.52	-12.29
297.735	34.82
297.949	40.96
298.164	118.78
298.378	38.91
298.593	14.34
298.807	-28.67
299.022	49.15
299.236	129.02
299.451	45.06
299.665	8.19
299.88	16.38
300.094	-18.43
300.309	-12.29
300.523	20.48
300.737	-14.34
300.952	26.62
301.166	24.58
301.381	34.82
301.595	-8.19
301.809	0
302.024	24.58
302.238	12.29
302.452	73.73
302.667	100.35
302.881	114.69
303.095	34.82
303.309	69.63
303.524	61.44
303.738	-12.29
303.952	-2.05
304.166	83.97
304.381	-10.24
304.595	38.91
304.809	-38.91
305.023	75.77
305.237	18.43
305.452	26.62
305.666	88.06
305.88	94.21
306.094	145.41
306.308	69.63
306.522	112.64
306.736	24.58
306.95	0
307.164	2.05
307.379	100.35
307.593	96.25
307.807	129.02
308.021	135.17
308.235	79.87
308.449	34.82
308.663	8.19
308.877	96.25
309.091	16.38
309.305	43.01
309.519	-22.53
309.733	83.97
309.947	-24.58
310.161	79.87
310.374	116.73
310.588	94.21
310.802	40.96
311.016	30.72
311.23	77.82
311.444	43.01
311.658	38.91
311.872	40.96
312.085	71.68
312.299	67.58
312.513	30.72
312.727	75.77
312.941	-65.53
313.154	55.3
313.368	34.82
313.582	96.25
313.796	-43.01
314.009	32.77
314.223	73.73
314.437	106.49
314.651	18.43
314.864	32.77
315.078	38.91
315.292	-4.1
315.505	24.58
315.719	116.73
315.933	79.87
316.146	55.3
316.36	-6.14
316.573	96.25
316.787	122.88
317.001	47.1
317.214	-4.1
317.428	51.2
317.641	-2.05
317.855	6.14
318.068	71.68
318.282	-6.14
318.495	106.49
318.709	131.07
318.922	65.54
319.136	90.11
319.349	122.88
319.563	-16.38
319.776	77.82
319.99	-22.53
320.203	79.87
320.417	55.3
320.63	45.06
320.843	137.21
321.057	8.19
321.27	16.38
321.483	51.2
321.697	32.77
321.91	38.91
322.124	2.05
322.337	-28.67
322.55	-28.67
322.763	30.72
322.977	8.19
323.19	28.67
323.403	-53.25
323.617	38.91
323.83	118.78
324.043	22.53
324.256	108.54
324.469	-40.96
324.683	2.05
324.896	22.53
325.109	4.1
325.322	28.67
325.535	71.68
325.748	77.82
325.962	49.15
326.175	22.53
326.388	88.06
326.601	67.58
326.814	10.24
327.027	104.45
327.24	112.64
327.453	-34.82
327.666	45.06
327.879	38.91
328.092	53.25
328.305	79.87
328.518	14.34
328.731	6.14
328.944	32.77
329.157	59.39
329.37	43.01
329.583	139.26
329.796	137.21
330.009	4.1
330.222	118.78
330.435	98.3
330.648	65.54
330.861	53.25
331.073	59.39
331.286	30.72
331.499	32.77
331.712	0
331.925	-2.05
332.138	122.88
332.35	67.58
332.563	-6.14
332.776	83.97
332.989	-4.1
333.202	2.05
333.414	61.44
333.627	86.01
333.84	55.3
334.053	8.19
334.265	36.86
334.478	26.62
334.691	47.1
334.903	32.77
335.116	47.1
335.329	94.21
335.541	126.97
335.754	75.77
335.966	61.44
336.179	55.3
336.392	22.53
336.604	-4.1
336.817	75.77
337.029	69.63
337.242	8.19
337.454	65.54
337.667	-2.05
337.88	92.16
338.092	65.54
338.305	104.45
338.517	10.24
338.729	26.62
338.942	73.73
339.154	-61.44
339.367	-6.14
339.579	145.41
339.792	-28.67
340.004	67.58
340.217	-2.05
340.429	104.45
340.641	24.58
340.854	34.82
341.066	32.77
341.278	65.54
341.491	57.34
341.703	69.63
341.915	47.1
342.128	45.06
342.34	153.6
342.552	-10.24
342.764	51.2
342.977	-51.2
343.189	59.39
343.401	55.3
343.613	-2.05
343.826	43.01
344.038	69.63
344.25	34.82
344.462	-18.43
344.674	22.53
344.886	53.25
345.099	98.3
345.311	38.91
345.523	34.82
345.735	61.44
345.947	108.54
346.159	-18.43
346.371	12.29
346.583	43.01
346.795	108.54
347.007	43.01
347.219	-30.72
347.431	26.62
347.643	81.92
347.855	14.34
348.067	79.87
348.279	32.77
348.491	18.43
348.703	94.21
348.915	86.01
349.127	34.82
349.339	94.21
349.551	65.54
349.763	69.63
349.975	51.2
350.187	108.54
350.399	36.86
350.61	65.54
350.822	-14.34
351.034	22.53
351.246	67.58
351.458	59.39
351.669	98.3
351.881	110.59
352.093	53.25
352.305	75.77
352.517	8.19
352.728	155.65
352.94	30.72
353.152	24.58
353.363	18.43
353.575	43.01
353.787	133.12
353.999	38.91
354.21	100.35
354.422	2.05
354.633	51.2
354.845	55.3
355.057	38.91
355.268	30.72
355.48	14.34
355.692	-18.43
355.903	-16.38
356.115	22.53
356.326	-45.06
356.538	129.02
356.749	43.01
356.961	102.4
357.172	98.3
357.384	34.82
357.595	165.89
357.807	55.3
358.018	36.86
358.23	28.67
358.441	149.5
358.653	112.64
358.864	-30.72
359.075	14.34
359.287	71.68
359.498	139.26
359.709	-32.77
359.921	106.49
360.132	75.77
360.344	88.06
360.555	-26.62
360.766	40.96
360.977	81.92
361.189	81.92
361.4	18.43
361.611	155.65
361.823	147.45
362.034	53.25
362.245	-10.24
362.456	26.62
362.667	4.1
362.879	57.34
363.09	49.15
363.301	112.64
363.512	106.49
363.723	-6.14
363.935	55.3
364.146	75.77
364.357	10.24
364.568	49.15
364.779	8.19
364.99	131.07
365.201	2.05
365.412	165.89
365.623	6.14
365.834	96.25
366.045	75.77
366.256	32.77
366.467	69.63
366.678	18.43
366.889	133.12
367.1	73.73
367.311	47.1
367.522	38.91
367.733	43.01
367.944	22.53
368.155	24.58
368.366	34.82
368.577	92.16
368.788	124.93
368.999	43.01
369.209	63.49
369.42	161.79
369.631	108.54
369.842	63.49
370.053	4.1
370.264	65.54
370.474	28.67
370.685	51.2
370.896	47.1
371.107	106.49
371.317	59.39
371.528	-18.43
371.739	135.17
371.95	126.97
372.16	81.92
372.371	-36.86
372.582	20.48
372.792	90.11
373.003	40.96
373.214	28.67
373.424	96.25
373.635	77.82
373.846	49.15
374.056	71.68
374.267	-16.38
374.477	96.25
374.688	24.58
374.898	86.01
375.109	96.25
375.319	174.08
375.53	98.3
375.74	45.06
375.951	30.72
376.161	137.21
376.372	163.84
376.582	61.44
376.793	47.1
377.003	34.82
377.214	-36.86
377.424	90.11
377.635	22.53
377.845	36.86
378.055	26.62
378.266	40.96
378.476	65.54
378.686	88.06
378.897	4.1
379.107	77.82
379.317	86.01
379.528	73.73
379.738	73.73
379.948	36.86
380.158	102.4
380.369	34.82
380.579	14.34
380.789	75.77
380.999	108.54
381.21	71.68
381.42	135.17
381.63	24.58
381.84	73.73
382.05	92.16
382.261	32.77
382.471	55.3
382.681	131.07
382.891	112.64
383.101	96.25
383.311	30.72
383.521	-2.05
383.731	133.12
383.941	34.82
384.151	69.63
384.361	63.49
384.571	106.49
384.781	137.21
384.991	151.55
385.201	165.89
385.411	55.3
385.621	96.25
385.831	90.11
386.041	75.77
386.251	12.29
386.461	83.97
386.671	6.14
386.881	96.25
387.091	96.25
387.301	100.35
387.511	63.49
387.72	59.39
387.93	118.78
388.14	112.64
388.35	104.45
388.56	108.54
388.769	104.45
388.979	151.55
389.189	28.67
389.399	61.44
389.609	155.65
389.818	106.49
390.028	141.31
390.238	169.98
390.447	26.62
390.657	81.92
390.867	94.21
391.076	20.48
391.286	102.4
391.496	90.11
391.705	-20.48
391.915	122.88
392.125	163.84
392.334	57.34
392.544	196.61
392.753	79.87
392.963	57.34
393.172	110.59
393.382	45.06
393.591	137.21
393.801	120.83
394.01	92.16
394.22	73.73
394.429	114.69
394.639	30.72
394.848	108.54
395.058	71.68
395.267	83.97
395.477	196.61
395.686	153.6
395.895	143.36
396.105	165.89
396.314	116.73
396.524	110.59
396.733	120.83
396.942	114.69
397.152	55.3
397.361	112.64
397.57	53.25
397.78	65.54
397.989	137.21
398.198	186.37
398.407	120.83
398.617	124.93
398.826	129.02
399.035	65.54
399.244	145.41
399.453	83.97
399.663	79.87
399.872	147.45
400.081	81.92
400.29	116.73
400.499	176.13
400.708	102.4
400.917	106.49
401.127	59.39
401.336	116.73
401.545	147.45
401.754	169.98
401.963	145.41
402.172	92.16
402.381	106.49
402.59	129.02
402.799	83.97
403.008	61.44
403.217	79.87
403.426	110.59
403.635	133.12
403.844	153.6
404.053	165.89
404.262	157.69
404.471	188.41
404.68	231.42
404.888	106.49
405.097	190.46
405.306	212.99
405.515	186.37
405.724	215.04
405.933	188.41
406.142	178.17
406.35	272.38
406.559	253.95
406.768	251.9
406.977	266.24
407.185	149.5
407.394	239.61
407.603	270.33
407.812	210.94
408.02	339.96
408.229	245.76
408.438	247.8
408.646	210.94
408.855	223.23
409.064	327.67
409.272	229.37
409.481	356.35
409.69	296.96
409.898	253.95
410.107	311.29
410.315	344.06
410.524	376.83
410.733	442.36
410.941	335.87
411.15	393.21
411.358	423.93
411.567	489.46
411.775	471.03
411.984	432.12
412.192	579.58
412.401	526.33
412.609	425.98
412.818	534.52
413.026	618.49
413.234	608.25
413.443	528.38
413.651	509.94
413.86	620.53
414.068	636.92
414.276	718.84
414.485	747.51
414.693	780.28
414.901	724.98
415.11	729.08
415.318	692.21
415.526	831.48
415.734	913.39
415.943	813.04
416.151	911.35
416.359	882.67
416.567	901.11
416.776	935.92
416.984	1056.75
417.192	1091.57
417.4	972.79
417.608	993.26
417.817	1132.53
418.025	1144.81
418.233	1267.69
418.441	1214.45
418.649	1253.36
418.857	1363.95
419.065	1472.49
419.273	1390.57
419.481	1482.73
419.689	1525.74
419.897	1611.75
420.105	1480.68
420.313	1578.98
420.521	1716.2
420.729	1802.21
420.937	1775.59
421.145	1789.92
421.353	1935.33
421.561	2111.46
421.769	2070.5
421.977	2088.93
422.185	2222.05
422.393	2271.2
422.601	2383.84
422.809	2271.2
423.017	2457.56
423.224	2486.23
423.432	2697.17
423.64	2643.93
423.848	2801.62
424.056	2818.01
424.263	3096.53
424.471	3123.15
424.679	3018.71
424.887	3252.17
425.094	3430.35
425.302	3366.86
425.51	3387.34
425.718	3686.34
425.925	3704.78
426.133	3905.48
426.341	3944.39
426.548	4196.29
426.756	4210.62
426.964	4216.77
427.171	4446.14
427.379	4556.73
427.586	4767.67
427.794	4806.58
428.001	5081.01
428.209	5384.11
428.417	5169.07
428.624	5740.46
428.832	5621.67
429.039	5584.81
429.247	5570.47
429.454	5994.4
429.662	6549.4
429.869	6016.93
430.076	6473.63
430.284	6219.68
430.491	6645.66
430.699	7077.78
430.906	7061.4
431.114	6993.81
431.321	7309.2
431.528	7561.1
431.736	7960.45
431.943	8273.79
432.15	8179.59
432.358	8288.13
432.565	8765.31
432.772	8476.54
432.979	9045.88
433.187	9197.43
433.394	9195.38
433.601	9867.11
433.808	9918.31
434.016	9830.25
434.223	10364.77
434.43	10940.25
434.637	10704.73
434.844	11278.16
435.052	11536.21
435.259	11521.87
435.466	11751.24
435.673	11380.56
435.88	12289.86
436.087	12980.03
436.294	12625.73
436.501	12508.99
436.708	12771.13
436.915	13385.52
437.122	13856.56
437.329	13604.66
437.537	14137.13
437.743	14413.6
437.95	14487.33
438.157	15249.18
438.364	15519.51
438.571	15419.16
438.778	15671.06
438.985	17170.17
439.192	16850.69
439.399	17000.19
439.606	16809.73
439.813	17716.98
440.02	19017.44
440.227	18208.49
440.433	18179.82
440.64	18798.31
440.847	18609.89
441.054	19236.57
441.261	20233.93
441.467	20129.48
441.674	20547.27
441.881	21360.31
442.088	21337.79
442.294	21042.88
442.501	21792.44
442.708	22222.51
442.914	23031.46
443.121	24006.29
443.328	23395.99
443.534	25003.65
443.741	24370.83
443.948	23901.84
444.154	25583.23
444.361	25632.38
444.568	25661.05
444.774	25888.37
444.981	25716.34
445.187	26852.97
445.394	28048.98
445.6	27680.35
445.807	30244.4
446.013	28757.58
446.22	29429.31
446.426	30385.71
446.633	31026.73
446.839	32130.58
447.046	30533.17
447.252	32552.46
447.459	32439.83
447.665	32566.8
447.871	33965.56
448.078	35442.15
448.284	33238.53
448.491	34233.85
448.697	36015.58
448.903	36384.21
449.11	36640.21
449.316	36126.17
449.522	36492.76
449.728	37586.37
449.935	37891.52
450.141	37578.18
450.347	38708.66
450.553	37785.02
450.76	38190.52
450.966	39540.13
451.172	39232.94
451.378	40021.41
451.584	39173.55
451.791	39947.68
451.997	40064.41
452.203	40879.5
452.409	40904.08
452.615	40684.95
452.821	39142.83
453.027	39019.95
453.233	40856.98
453.44	39411.11
453.646	39267.75
453.852	39910.82
454.058	40576.4
454.264	39191.98
454.47	40164.76
454.676	39015.85
454.882	40643.99
455.088	37367.24
455.294	37717.44
455.5	38448.57
455.705	38718.9
455.911	37012.94
456.117	36228.57
456.323	35735.01
456.529	34121.21
456.735	35554.79
456.941	34631.15
457.147	33979.9
457.352	33179.14
457.558	32507.41
457.764	32720.4
457.97	32413.2
458.176	31682.08
458.381	31501.86
458.587	29836.86
458.793	30082.61
458.999	28315.22
459.204	30541.36
459.41	29873.72
459.616	27739.74
459.821	27879
460.027	27682.39
460.233	27221.6
460.438	25763.45
460.644	25966.2
460.85	24821.38
461.055	24358.54
461.261	24360.59
461.466	22476.46
461.672	21939.89
461.878	23701.14
462.083	21923.51
462.289	21673.65
462.494	21118.65
462.7	20117.2
462.905	19805.91
463.111	20348.62
463.316	20534.98
463.522	19805.91
463.727	20203.21
463.932	19924.69
464.138	19742.42
464.343	20027.09
464.549	19281.63
464.754	19984.08
464.959	19977.94
465.165	19537.62
465.37	18683.62
465.575	18247.4
465.781	18814.69
465.986	18945.76
466.191	18716.39
466.397	17884.91
466.602	17207.03
466.807	17966.83
467.012	17895.15
467.218	17762.03
467.423	17665.78
467.628	17895.15
467.833	18274.03
468.038	17737.46
468.244	17481.46
468.449	17954.54
468.654	17278.71
468.859	17325.82
469.064	17096.44
469.269	16480
469.474	16555.78
469.679	16973.56
469.885	16422.66
470.09	16592.64
470.295	16299.78
470.5	16316.17
470.705	16293.64
470.91	15841.04
471.115	15689.49
471.32	16209.67
471.525	15769.36
471.73	15863.57
471.935	15642.39
472.139	14843.68
472.344	15212.31
472.549	15060.76
472.754	14778.14
472.959	14798.62
473.164	14303.01
473.369	14112.55
473.574	14763.81
473.778	14155.56
473.983	14403.36
474.188	14200.62
474.393	13637.42
474.598	13788.97
474.802	13584.18
475.007	13313.84
475.212	13553.46
475.417	12844.86
475.621	12906.3
475.826	13061.94
476.031	12734.27
476.235	12554.05
476.44	12812.09
476.645	12341.06
476.849	12687.17
477.054	12398.4
477.259	12277.57
477.463	12392.26
477.668	11689.81
477.872	12085.06
478.077	11880.27
478.282	11378.51
478.486	11648.85
478.691	11534.16
478.895	11229.01
479.1	11239.25
479.304	11173.72
479.509	10950.49
479.713	11067.22
479.918	10948.44
480.122	10690.4
480.326	10876.76
480.531	10944.34
480.735	10772.32
480.94	10551.14
481.144	10944.34
481.348	10471.26
481.553	10573.66
481.757	10381.15
481.961	10649.44
482.166	10717.02
482.37	10725.21
482.574	10282.85
482.778	10375.01
482.983	10448.74
483.187	10250.08
483.391	10323.81
483.595	10428.26
483.8	10375.01
484.004	10377.06
484.208	10594.14
484.412	10551.14
484.616	10532.7
484.821	10585.95
485.025	10272.61
485.229	10510.18
485.433	10389.35
485.637	10411.87
485.841	10174.31
486.045	10440.54
486.249	10639.2
486.453	10475.36
486.657	10544.99
486.861	10434.4
487.065	10170.21
487.269	10573.66
487.473	10307.43
487.677	10520.42
487.881	10516.32
488.085	10309.47
488.289	10504.03
488.493	10350.43
488.697	10682.2
488.901	10665.82
489.105	10483.55
489.309	10641.25
489.512	10704.73
489.716	10491.74
489.92	10418.02
490.124	10389.35
490.328	10889.05
490.531	10843.99
490.735	10577.76
490.939	10766.17
491.143	10588
491.346	10608.48
491.55	10958.68
491.754	10729.31
491.958	10702.68
492.161	10762.08
492.365	10852.19
492.569	11063.13
492.772	10846.04
492.976	11114.33
493.18	11159.38
493.383	11200.34
493.587	11159.38
493.79	11310.93
493.994	11143
494.197	11280.21
494.401	11566.93
494.605	11501.39
494.808	11532.11
495.012	11691.85
495.215	11732.81
495.419	12146.5
495.622	11816.78
495.825	12015.43
496.029	12152.65
496.232	12345.16
496.436	12465.99
496.639	12572.48
496.843	12574.53
497.046	12873.53
497.249	12834.62
497.453	13053.75
497.656	12918.59
497.859	13008.7
498.063	13039.42
498.266	13575.98
498.469	13272.89
498.673	13532.98
498.876	13997.87
499.079	13907.76
499.282	13788.97
499.485	14417.7
499.689	14266.15
499.892	14532.39
500.095	14731.04
500.298	14855.97
500.501	14970.65
500.705	15200.02
500.908	15380.25
501.111	15365.91
501.314	15748.88
501.517	15865.61
501.72	16125.71
501.923	15882
502.126	16209.67
502.329	16639.75
502.532	16580.35
502.735	16463.62
502.938	16975.61
503.141	17245.94
503.344	17352.44
503.547	17309.43
503.75	17762.03
503.953	17948.4
504.156	18046.7
504.359	18261.74
504.562	17954.54
504.765	18521.83
504.968	18874.08
505.17	18970.33
505.373	19310.3
505.576	19259.1
505.779	19588.82
505.982	19805.91
506.185	20240.08
506.387	20209.36
506.59	20180.68
506.793	20661.96
506.996	20678.34
507.198	21210.81
507.401	20879.04
507.604	21176
507.807	21997.23
508.009	22111.92
508.212	21950.13
508.415	22460.07
508.617	22562.47
508.82	22709.93
509.022	22468.27
509.225	23451.29
509.428	23381.66
509.63	23592.6
509.833	23969.43
510.035	24071.82
510.238	24172.18
510.44	24419.98
510.643	24639.11
510.845	24981.12
511.048	24655.5
511.25	25351.81
511.453	25466.49
511.655	26373.74
511.858	25925.24
512.06	26297.97
512.262	26285.68
512.465	26443.37
512.667	27166.31
512.87	27102.82
513.072	27666.01
513.274	27434.59
513.477	28075.6
513.679	28347.98
513.881	28337.74
514.084	29072.96
514.286	28689.99
514.488	29204.03
514.69	29740.6
514.893	29920.82
515.095	29914.68
515.297	30410.29
515.499	30158.39
515.701	30613.04
515.904	31055.4
516.106	31055.4
516.308	31532.57
516.51	31772.19
516.712	32040.47
516.914	32112.15
517.116	32898.57
517.318	32847.37
517.52	32929.29
517.722	33162.76
517.925	33646.08
518.127	33814.01
518.329	33977.85
518.531	34213.37
518.733	34657.78
518.935	34962.92
519.136	35032.55
519.338	35458.53
519.54	35708.38
519.742	36044.25
519.944	36011.48
520.146	36593.11
520.348	36875.73
520.55	36707.79
520.752	36902.35
520.954	37782.98
521.155	37432.77
521.357	37662.15
521.559	38174.14
521.761	38862.26
521.963	38696.37
522.164	38950.32
522.366	38954.41
522.568	39097.77
522.77	39650.72
522.971	40064.41
523.173	39626.15
523.375	39962.01
523.576	40226.2
523.778	40123.8
523.98	41194.89
524.181	41235.85
524.383	40965.52
524.584	41760.13
524.786	41395.59
524.988	41620.87
525.189	42108.29
525.391	42474.87
525.592	42814.83
525.794	42732.92
525.995	42542.45
526.197	42870.13
526.398	42513.78
526.6	43050.35
526.801	43246.96
527.003	43507.05
527.204	43717.99
527.406	43906.4
527.607	43908.45
527.808	44143.97
528.01	43646.31
528.211	44254.56
528.412	45018.45
528.614	44371.29
528.815	44397.91
529.016	44954.96
529.218	44686.68
529.419	44846.42
529.62	45387.08
529.822	45043.02
530.023	45018.45
530.224	45223.25
530.425	45522.25
530.626	44741.97
530.828	45137.23
531.029	45944.13
531.23	45292.88
531.431	45352.27
531.632	45751.62
531.833	45647.18
532.035	45575.5
532.236	45755.72
532.437	45786.44
532.638	45538.63
532.839	46073.15
533.04	46044.48
533.241	45409.61
533.442	46286.14
533.643	45925.7
533.844	46171.46
534.045	46159.17
534.246	45700.42
534.447	46298.43
534.648	45901.12
534.849	46392.64
535.05	45827.4
535.251	45901.12
535.451	46071.1
535.652	46591.29
535.853	45825.35
536.054	46413.12
536.255	46308.67
536.456	45927.75
536.657	46855.48
536.857	45927.75
537.058	46257.47
537.259	46519.61
537.46	46550.33
537.66	46114.11
537.861	46206.27
538.062	46191.94
538.263	46597.43
538.463	45819.2
538.664	46312.77
538.865	46089.54
539.065	46705.98
539.266	46200.13
539.466	46642.49
539.667	45940.04
539.868	46685.5
540.068	46464.32
540.269	46357.82
540.469	46437.69
540.67	45913.41
540.87	46134.59
541.071	45917.51
541.271	45974.85
541.472	45905.22
541.672	45919.56
541.873	45954.37
542.073	45653.32
542.274	46445.88
542.474	45925.7
542.675	45909.32
542.875	46265.66
543.075	46177.6
543.276	45466.95
543.476	46366.01
543.676	45559.11
543.877	46093.63
544.077	45878.6
544.277	46251.33
544.478	45544.78
544.678	46239.04
544.878	46085.44
545.078	45872.45
545.279	45829.44
545.479	45827.4
545.679	46032.19
545.879	45997.38
546.079	45813.06
546.28	45653.32
546.48	45389.13
546.68	45878.6
546.88	45862.21
547.08	45798.73
547.28	45933.89
547.48	45221.2
547.68	45747.53
547.88	45632.84
548.081	46191.94
548.281	45978.95
548.481	45987.14
548.681	45761.86
548.881	45786.44
549.081	45602.12
549.28	45598.02
549.48	45999.43
549.68	45294.92
549.88	46107.97
550.08	45458.76
550.28	45720.9
550.48	45774.15
550.68	45909.32
550.88	45440.33
551.08	45196.62
551.279	45630.79
551.479	45112.66
551.679	45833.54
551.879	45126.99
552.079	45466.95
552.278	45280.59
552.478	45421.9
552.678	45223.25
552.878	45645.13
553.077	45350.22
553.277	45260.11
553.477	45421.9
553.676	44983.63
553.876	45120.85
554.076	45131.09
554.275	44772.69
554.475	44778.84
554.674	45065.55
554.874	44653.91
555.074	44610.9
555.273	44737.88
555.473	45186.38
555.672	44809.56
555.872	44619.1
556.071	44815.7
556.271	44916.05
556.47	44541.27
556.67	44320.09
556.869	44549.46
557.068	44694.87
557.268	44780.88
557.467	44946.77
557.667	44731.73
557.866	44528.98
558.065	44295.52
558.265	44203.36
558.464	44168.54
558.663	44428.63
558.863	44094.82
559.062	44891.47
559.261	43767.14
559.461	44148.06
559.66	43838.82
559.859	44279.13
560.058	43830.63
560.258	43892.07
560.457	43652.45
560.656	44193.12
560.855	43601.25
561.054	43986.27
561.253	43187.57
561.453	43953.51
561.652	43058.54
561.851	43832.68
562.05	43275.63
562.249	43390.31
562.448	43638.12
562.647	42888.56
562.846	43318.63
563.045	42964.34
563.244	42800.5
563.443	42997.1
563.642	42528.12
563.841	43046.26
564.04	42569.08
564.239	43173.23
564.438	42513.78
564.637	42636.66
564.836	42411.38
565.035	42159.48
565.234	42376.57
565.432	41903.49
565.631	41805.19
565.83	42392.95
566.029	41837.95
566.228	42089.85
566.427	41964.93
566.625	41686.4
566.824	41371.02
567.023	41672.07
567.222	40848.78
567.42	41954.69
567.619	41397.64
567.818	41198.99
568.016	41428.36
568.215	41420.17
568.414	41024.91
568.612	41317.77
568.811	40687
569.01	41196.94
569.208	40549.78
569.407	41477.51
569.605	40551.83
569.804	40926.61
570.002	40349.08
570.201	40654.23
570.4	40271.26
570.598	40367.51
570.797	40041.88
570.995	40177.05
571.193	39519.65
571.392	40207.77
571.59	39894.43
571.789	39630.24
571.987	39910.82
572.186	39407.01
572.384	39544.23
572.582	39814.56
572.781	39609.76
572.979	38819.25
573.177	39280.04
573.376	39187.88
573.574	39171.5
573.772	39243.18
573.971	38821.3
574.169	38663.6
574.367	38327.74
574.565	38909.36
574.763	38497.72
574.962	38337.97
575.16	38020.54
575.358	38598.07
575.556	38159.8
575.754	38354.36
575.952	37907.9
576.151	38247.86
576.349	37633.47
576.547	37445.06
576.745	37664.19
576.943	37696.96
577.141	37998.01
577.339	37430.72
577.537	37082.57
577.735	37139.91
577.933	36904.4
578.131	37334.47
578.329	36699.6
578.527	36705.74
578.725	36877.77
578.923	36982.22
579.121	36849.1
579.319	36607.44
579.516	36789.71
579.714	36257.24
579.912	36527.57
580.11	36230.62
580.308	36277.72
580.506	36163.03
580.704	35694.05
580.901	36009.43
581.099	36292.05
581.297	35718.62
581.495	35278.31
581.692	35608.03
581.89	35399.14
582.088	35677.66
582.285	35309.03
582.483	35493.35
582.681	35605.98
582.878	35227.11
583.076	34809.32
583.274	35575.27
583.471	34551.28
583.669	34790.89
583.866	34584.05
584.064	34960.87
584.262	34483.7
584.459	34291.19
584.657	34004.47
584.854	34811.37
585.052	33945.08
585.249	34016.76
585.447	33900.03
585.644	33682.94
585.841	34293.24
586.039	34211.32
586.236	33400.32
586.434	33482.24
586.631	33523.2
586.828	33347.08
587.026	33695.23
587.223	33414.66
587.42	33099.27
587.618	32957.96
587.815	32863.75
588.012	32804.36
588.21	32749.07
588.407	33095.18
588.604	32529.94
588.801	32468.5
588.999	32259.6
589.196	32601.61
589.393	32239.12
589.59	32185.88
589.787	32063
589.984	31845.91
590.182	31790.62
590.379	31854.11
590.576	31823.39
590.773	31952.41
590.97	31333.92
591.167	31899.16
591.364	31260.19
591.561	31536.67
591.758	30916.14
591.955	31032.87
592.152	31053.35
592.349	30887.46
592.546	31227.43
592.743	30641.71
592.94	30596.65
593.137	30805.55
593.334	30594.61
593.531	30139.96
593.727	30443.06
593.924	30723.63
594.121	29883.96
594.318	30225.97
594.515	29773.37
594.712	30193.2
594.908	29500.99
595.105	29738.55
595.302	29488.7
595.499	29832.76
595.696	29392.45
595.892	29271.62
596.089	29218.37
596.286	29374.02
596.482	29355.58
596.679	28905.03
596.876	29046.34
597.072	29175.36
597.269	29195.84
597.466	28835.4
597.662	28528.2
597.859	28284.5
598.055	28687.95
598.252	28542.54
598.448	28239.44
598.645	28081.75
598.841	27991.64
599.038	28407.37
599.234	27995.73
599.431	27868.76
599.627	28008.02
599.824	28157.52
600.02	27590.23
600.217	27919.96
600.413	27465.31
600.609	27528.8
600.806	27444.83
601.002	27506.27
601.198	27162.21
601.395	27113.06
601.591	26820.2
601.787	27145.83
601.984	26734.18
602.18	27094.63
602.376	26859.11
602.572	26728.04
602.769	26420.84
602.965	26267.25
603.161	26613.35
603.357	26285.68
603.553	26306.16
603.75	26277.49
603.946	26181.23
604.142	26240.62
604.338	25730.68
604.534	25978.48
604.73	25728.63
604.926	25513.59
605.122	25855.61
605.318	25835.13
605.514	25525.88
605.71	25267.84
605.906	25300.61
606.102	25290.37
606.298	25699.96
606.494	25380.48
606.69	25093.76
606.886	25177.73
607.082	25028.23
607.278	25095.81
607.474	24555.15
607.67	25171.58
607.866	24563.34
608.062	25216.64
608.257	24743.56
608.453	24714.89
608.649	24819.33
608.845	24518.28
609.041	24798.85
609.236	24718.98
609.432	23985.81
609.628	24385.16
609.824	24118.93
610.019	24086.16
610.215	24163.98
610.411	23901.84
610.606	24127.12
610.802	23953.04
610.998	24032.91
611.193	23867.03
611.389	23985.81
611.584	23764.63
611.78	23619.22
611.976	23469.72
612.171	23656.09
612.367	23801.49
612.562	23608.98
612.758	23332.51
612.953	23041.7
613.149	23678.61
613.344	23326.36
613.539	23785.11
613.735	23445.15
613.93	23213.73
614.126	23140
614.321	23340.7
614.517	23387.8
614.712	22992.55
614.907	23123.62
615.103	23303.84
615.298	22781.6
615.493	23211.68
615.688	22814.37
615.884	23008.93
616.079	22718.12
616.274	22879.91
616.47	22470.31
616.665	22523.56
616.86	22679.21
617.055	22173.36
617.25	22468.27
617.445	22775.46
617.641	22007.47
617.836	22587.05
618.031	22107.82
618.226	22271.66
618.421	22271.66
618.616	22386.35
618.811	21747.38
619.006	21970.61
619.201	21499.58
619.396	22085.29
619.591	21464.76
619.786	21741.24
619.981	21411.51
620.176	21860.02
620.371	21208.76
620.566	21329.59
620.761	21128.89
620.956	21493.43
621.151	20735.68
621.346	21132.99
621.541	20545.22
621.735	20991.68
621.93	20502.22
622.125	20522.69
622.32	20289.23
622.515	20500.17
622.709	20534.98
622.904	20051.66
623.099	19844.82
623.294	20324.04
623.488	19701.46
623.683	19984.08
623.878	19889.87
624.072	19896.02
624.267	19535.57
624.462	19396.31
624.656	19044.06
624.851	19105.5
625.046	19087.07
625.24	19150.56
625.435	18769.63
625.629	18859.74
625.824	18906.85
626.018	18568.93
626.213	18110.19
626.407	18409.19
626.602	18233.07
626.796	18394.86
626.991	18233.07
627.185	17899.25
627.38	17870.58
627.574	17794.8
627.768	17774.32
627.963	17393.4
628.157	17403.64
628.352	17571.57
628.546	17190.65
628.74	17391.35
628.935	17221.37
629.129	17153.79
629.323	16918.27
629.517	16748.29
629.712	17116.92
629.906	16768.77
630.1	16523.01
630.294	16592.64
630.489	16412.42
630.683	16400.13
630.877	16058.12
631.071	15998.73
631.265	15972.11
631.459	16058.12
631.653	15771.41
631.848	16033.55
632.042	15922.96
632.236	15861.52
632.43	15824.65
632.624	15709.97
632.818	15386.39
633.012	15441.68
633.206	15464.21
633.4	15445.78
633.594	15195.93
633.788	14884.64
633.982	14903.07
634.176	15023.9
634.369	14583.59
634.563	14726.94
634.757	14774.05
634.951	14587.68
635.145	14688.03
635.339	14880.54
635.533	14528.29
635.726	14556.96
635.92	14200.62
636.114	14264.1
636.308	13979.43
636.501	14028.59
636.695	14077.74
636.889	13750.06
637.083	13723.44
637.276	13598.51
637.47	13795.12
637.664	13602.61
637.857	13647.66
638.051	13504.31
638.244	13342.52
638.438	13270.84
638.632	13504.31
638.825	12922.68
639.019	12945.21
639.212	13303.6
639.406	12994.36
639.599	13008.7
639.793	12859.2
639.986	12701.5
640.18	12695.36
640.373	12894.01
640.567	12502.85
640.76	12623.68
640.954	12605.25
641.147	12476.23
641.34	12334.92
641.534	12187.46
641.727	12279.62
641.92	12152.65
642.114	12187.46
642.307	11988.81
642.5	11956.04
642.694	11853.64
642.887	11904.84
643.08	11859.79
643.273	11822.92
643.467	11761.48
643.66	11599.69
643.853	11470.67
644.046	11532.11
644.239	11575.12
644.432	11331.41
644.626	11392.85
644.819	11327.32
645.012	11300.69
645.205	11040.6
645.398	11403.09
645.591	11052.89
645.784	10960.73
645.977	10925.91
646.17	10696.54
646.363	10626.91
646.556	10714.97
646.749	10800.99
646.942	10573.66
647.135	10622.81
647.328	10458.98
647.521	10395.49
647.714	10284.9
647.907	10471.26
648.099	10366.82
648.292	10409.83
648.485	10248.04
648.678	10084.2
648.871	10141.54
649.064	9928.55
649.256	10207.08
649.449	10082.15
649.642	9971.56
649.835	9830.25
650.027	9791.34
650.22	9740.14
650.413	9594.73
650.605	9611.12
650.798	9578.35
650.991	9504.62
651.183	9559.92
651.376	9533.29
651.568	9299.83
651.761	9365.36
651.954	9359.22
652.146	9148.28
652.339	9236.34
652.531	9140.08
652.724	9222
652.916	9078.65
653.109	8904.57
653.301	8972.15
653.494	9013.11
653.686	8841.08
653.879	8898.42
654.071	8714.11
654.263	8867.7
654.456	8818.55
654.648	8828.79
654.84	8431.49
655.033	8548.22
655.225	8660.86
655.417	8374.14
655.61	8417.15
655.802	8494.97
655.994	8513.41
656.186	8312.71
656.379	8312.71
656.571	8335.23
656.763	8114.05
656.955	8257.41
657.148	8165.25
657.34	8071.04
657.532	8066.95
657.724	7962.5
657.916	8038.28
658.108	8019.85
658.3	7763.85
658.492	7870.34
658.684	7724.94
658.876	7876.49
659.068	7597.96
659.26	7735.18
659.452	7579.53
659.644	7690.12
659.836	7720.84
660.028	7581.58
660.22	7411.6
660.412	7419.79
660.604	7366.54
660.796	7296.91
660.988	7370.64
661.18	7262.1
661.372	7251.86
661.563	7284.62
661.755	7313.3
661.947	7231.38
662.139	7223.19
662.331	7057.3
662.522	7085.97
662.714	7010.2
662.906	6952.85
663.097	6805.4
663.289	7022.48
663.481	6858.65
663.673	6862.74
663.864	6934.42
664.056	6934.42
664.247	6877.08
664.439	6774.68
664.631	6735.77
664.822	6698.91
665.014	6604.7
665.205	6619.03
665.397	6627.23
665.588	6490.01
665.78	6649.75
665.971	6588.32
666.163	6637.47
666.354	6668.19
666.546	6758.3
666.737	6281.12
666.929	6354.85
667.12	6352.8
667.311	6315.94
667.503	6215.59
667.694	6299.55
667.885	6299.55
668.077	6176.67
668.268	6207.39
668.459	6199.2
668.651	6240.16
668.842	6145.95
669.033	6037.41
669.224	6119.33
669.416	6176.67
669.607	6027.17
669.798	6059.94
669.989	6158.24
670.18	6141.86
670.371	6188.96
670.563	5949.35
670.754	5947.3
670.945	5984.16
671.136	5973.92
671.327	5859.24
671.518	5898.15
671.709	5912.49
671.9	6039.46
672.091	5902.25
672.282	5869.48
672.473	5748.65
672.664	5791.66
672.855	5801.9
673.046	5699.5
673.237	5808.04
673.428	5779.37
673.619	5810.09
673.809	5683.11
674	5695.4
674.191	5808.04
674.382	5535.66
674.573	5695.4
674.764	5664.68
674.954	5851.05
675.145	5451.69
675.336	5586.86
675.527	5564.33
675.717	5511.08
675.908	5523.37
676.099	5636.01
676.289	5674.92
676.48	5461.93
676.671	5722.02
676.861	5633.96
677.052	5519.28
677.243	5373.87
677.433	5515.18
677.624	5558.19
677.814	5386.16
678.005	5457.84
678.195	5388.21
678.386	5449.64
678.576	5463.98
678.767	5298.1
678.957	5498.8
679.148	5564.33
679.338	5511.08
679.529	5322.67
679.719	5502.89
679.909	5453.74
680.1	5425.07
680.29	5482.41
680.481	5394.35
680.671	5398.45
680.861	5390.25
681.052	5474.22
681.242	5361.58
681.432	5488.56
681.622	5355.44
681.813	5283.76
682.003	5423.02
682.193	5306.29
682.383	5334.96
682.573	5388.21
682.764	5271.47
682.954	5232.56
683.144	5287.86
683.334	5341.1
683.524	5437.36
683.714	5228.46
683.904	5134.26
684.094	5150.64
684.284	5220.27
684.474	5289.9
684.664	5298.1
684.854	5201.84
685.044	5038
685.234	5062.58
685.424	5218.22
685.614	5099.44
685.804	5294
685.994	5136.31
686.184	4999.09
686.374	4984.76
686.564	5033.91
686.753	5003.19
686.943	4974.52
687.133	4839.35
687.323	4845.49
687.513	5115.83
687.702	4945.84
687.892	4888.5
688.082	4902.84
688.272	4882.36
688.461	4818.87
688.651	4962.23
688.841	4888.5
689.03	4773.82
689.22	4714.42
689.41	4628.41
689.599	4650.94
689.789	4724.66
689.979	4562.87
690.168	4632.51
690.358	4595.64
690.547	4585.4
690.737	4558.78
690.926	4448.19
691.116	4405.18
691.305	4534.2
691.495	4286.4
691.684	4370.37
691.874	4374.46
692.063	4353.98
692.252	4423.61
692.442	4351.93
692.631	4286.4
692.82	4304.83
693.01	4181.95
693.199	4274.11
693.388	4267.97
693.578	4349.89
693.767	4319.17
693.956	4202.43
694.146	4108.23
694.335	4239.3
694.524	4233.15
694.713	4261.82
694.902	4030.4
695.092	4093.89
695.281	4122.56
695.47	4100.03
695.659	3915.72
695.848	4110.27
696.037	3962.82
696.226	3854.28
696.415	3989.44
696.604	3993.54
696.793	3872.71
696.982	3979.2
697.171	3975.11
697.36	3966.92
697.549	3837.89
697.738	3907.52
697.927	3801.03
698.116	4030.4
698.305	3784.65
698.494	3837.89
698.683	3794.89
698.872	3897.28
699.061	3715.02
699.25	3737.54
699.438	3866.56
699.627	3829.7
699.816	3932.1
700.005	3758.02
700.193	3731.4
700.382	3831.75
700.571	3803.08
700.76	3735.49
700.948	3704.78
701.137	3776.45
701.326	3786.69
701.514	3659.72
701.703	3741.64
701.892	3719.11
702.08	3825.61
702.269	3737.54
702.457	3520.46
702.646	3585.99
702.834	3751.88
703.023	3663.82
703.212	3700.68
703.4	3741.64
703.589	3776.45
703.777	3743.69
703.965	3684.3
704.154	3684.3
704.342	3719.11
704.531	3700.68
704.719	3774.41
704.907	3760.07
705.096	3631.05
705.284	3698.63
705.472	3641.29
705.661	3674.06
705.849	3721.16
706.037	3801.03
706.226	3731.4
706.414	3653.58
706.602	3532.75
706.79	3938.24
706.979	3719.11
707.167	3719.11
707.355	3762.12
707.543	3770.31
707.731	3839.94
707.919	3692.49
708.107	3497.93
708.296	3721.16
708.484	3694.54
708.672	3739.59
708.86	3805.13
709.048	3737.54
709.236	3659.72
709.424	3848.13
709.612	3747.78
709.8	3626.95
709.988	3518.41
710.176	3809.22
710.364	3827.65
710.551	3729.35
710.739	3741.64
710.927	3682.25
711.115	3735.49
711.303	3774.41
711.491	3708.87
711.679	3645.38
711.866	3727.3
712.054	3835.85
712.242	3692.49
712.43	3782.6
712.617	3741.64
712.805	3749.83
712.993	3626.95
713.181	3661.77
713.368	3815.37
713.556	3782.6
713.744	3762.12
713.931	3905.48
714.119	3860.42
714.306	3866.56
714.494	3715.02
714.682	3727.3
714.869	3788.74
715.057	3835.85
715.244	3669.96
715.432	3762.12
715.619	3846.09
715.807	3948.48
715.994	3905.48
716.182	3794.89
716.369	3796.93
716.556	3895.24
716.744	3807.17
716.931	3846.09
717.119	3940.29
717.306	3872.71
717.493	3899.33
717.681	3893.19
717.868	3856.33
718.055	4005.83
718.242	3905.48
718.43	3909.57
718.617	3921.86
718.804	3803.08
718.991	3962.82
719.179	4014.02
719.366	3948.48
719.553	3946.44
719.74	3989.44
719.927	3946.44
720.114	3891.14
720.301	3741.64
720.488	3792.84
720.676	3850.18
720.863	3981.25
721.05	3954.63
721.237	3946.44
721.424	4014.02
721.611	3868.61
721.798	3805.13
721.985	3975.11
722.172	3997.64
722.358	3854.28
722.545	4028.35
722.732	4036.55
722.919	4005.83
723.106	4050.88
723.293	3854.28
723.48	4036.55
723.667	3991.49
723.853	4050.88
724.04	3901.38
724.227	4026.31
724.414	4220.86
724.6	4085.7
724.787	4040.64
724.974	3962.82
725.161	4020.16
725.347	3948.48
725.534	3915.72
725.72	4108.23
725.907	4065.22
726.094	4120.51
726.28	3930.05
726.467	3930.05
726.653	4014.02
726.84	4036.55
727.027	4042.69
727.213	3989.44
727.4	4151.23
727.586	3983.3
727.773	4009.92
727.959	4030.4
728.145	4036.55
728.332	3973.06
728.518	3964.87
728.705	4116.42
728.891	3936.2
729.077	3942.34
729.264	3913.67
729.45	4102.08
729.636	4102.08
729.823	4052.93
730.009	3995.59
730.195	4077.51
730.382	3991.49
730.568	4091.84
730.754	4143.04
730.94	4095.94
731.126	4112.32
731.313	4054.98
731.499	4200.38
731.685	4143.04
731.871	4081.6
732.057	4184
732.243	4108.23
732.429	4077.51
732.615	4077.51
732.801	4073.41
732.987	4210.62
733.173	4061.12
733.359	4095.94
733.545	4186.05
733.731	4001.73
733.917	4108.23
734.103	4106.18
734.289	4104.13
734.475	4151.23
734.661	4177.86
734.847	3936.2
735.033	4044.74
735.219	4087.75
735.404	4091.84
735.59	4067.27
735.776	3993.54
735.962	4229.06
736.148	4175.81
736.333	4095.94
736.519	4161.47
736.705	3956.68
736.89	3981.25
737.076	4016.07
737.262	3964.87
737.447	4087.75
737.633	3973.06
737.819	3944.39
738.004	4011.97
738.19	4036.55
738.375	3868.61
738.561	4177.86
738.747	3897.28
738.932	3766.21
739.118	4020.16
739.303	4038.59
739.489	4087.75
739.674	3944.39
739.859	3850.18
740.045	3981.25
740.23	3870.66
740.416	3823.56
740.601	3895.24
740.786	3878.85
740.972	3809.22
741.157	3993.54
741.342	3915.72
741.528	3930.05
741.713	3895.24
741.898	3766.21
742.084	3827.65
742.269	3907.52
742.454	3811.27
742.639	3862.47
742.824	3665.86
743.01	3792.84
743.195	3823.56
743.38	3776.45
743.565	3809.22
743.75	3661.77
743.935	3663.82
744.12	3678.15
744.305	3592.14
744.49	3768.26
744.675	3577.8
744.86	3596.23
745.045	3487.69
745.23	3626.95
745.415	3569.61
745.6	3534.79
745.785	3577.8
745.97	3483.59
746.155	3409.87
746.34	3626.95
746.525	3526.6
746.71	3581.9
746.895	3344.33
747.079	3313.61
747.264	3413.96
747.449	3409.87
747.634	3280.85
747.819	3389.39
748.003	3243.98
748.188	3200.98
748.373	3266.51
748.557	3176.4
748.742	3200.98
748.927	3155.92
749.111	3368.91
749.296	3129.3
749.481	3153.87
749.665	3153.87
749.85	3045.33
750.034	3014.61
750.219	3078.1
750.404	3135.44
750.588	3047.38
750.773	3053.52
750.957	3002.32
751.141	3078.1
751.326	2992.08
751.51	2820.05
751.695	2963.41
751.879	2889.68
752.064	2932.69
752.248	2910.16
752.432	2856.92
752.617	2932.69
752.801	2990.03
752.985	2758.61
753.17	2840.53
753.354	2701.27
753.538	2744.28
753.722	2785.24
753.907	2633.69
754.091	2703.32
754.275	2713.56
754.459	2594.78
754.643	2457.56
754.828	2549.72
755.012	2600.92
755.196	2471.9
755.38	2510.81
755.564	2525.15
755.748	2426.84
755.932	2529.24
756.116	2553.82
756.3	2367.45
756.484	2428.89
756.668	2445.27
756.852	2398.17
757.036	2277.34
757.22	2349.02
757.404	2277.34
757.588	2316.25
757.772	2336.73
757.956	2277.34
758.14	2344.92
758.323	2127.84
758.507	2228.19
758.691	2146.27
758.875	2154.46
759.059	2246.62
759.242	2045.92
759.426	2209.76
759.61	2154.46
759.794	2090.98
759.977	2234.33
760.161	2152.42
760.345	2172.89
760.528	2056.16
760.712	2033.63
760.895	2095.07
761.079	2119.65
761.263	1896.42
761.446	2033.63
761.63	2060.26
761.813	1992.67
761.997	1966.05
762.18	2021.35
762.364	1978.34
762.547	2039.78
762.731	1914.85
762.914	2019.3
763.098	1959.91
763.281	1937.38
763.464	1853.41
763.648	1849.32
763.831	1888.23
764.015	1851.36
764.198	1957.86
764.381	1814.5
764.564	1849.32
764.748	1837.03
764.931	1849.32
765.114	1834.98
765.297	1902.56
765.481	1855.46
765.664	1816.55
765.847	1791.97
766.03	1736.68
766.213	1818.6
766.397	1877.99
766.58	1646.57
766.763	1927.14
766.946	1777.64
767.129	1671.14
767.312	1671.14
767.495	1695.72
767.678	1669.09
767.861	1726.44
768.044	1583.08
768.227	1675.24
768.41	1644.52
768.593	1638.38
768.776	1628.14
768.959	1605.61
769.142	1728.49
769.324	1626.09
769.507	1525.74
769.69	1726.44
769.873	1568.74
770.056	1669.09
770.239	1662.95
770.421	1578.98
770.604	1591.27
770.787	1458.15
770.97	1607.66
771.152	1413.1
771.335	1617.9
771.518	1439.72
771.7	1527.78
771.883	1615.85
772.066	1503.21
772.248	1482.73
772.431	1507.3
772.613	1353.71
772.796	1368.04
772.978	1480.68
773.161	1402.86
773.343	1386.47
773.526	1318.89
773.708	1456.11
773.891	1322.99
774.073	1374.19
774.256	1388.52
774.438	1392.62
774.621	1394.67
774.803	1208.3
774.985	1359.85
775.168	1488.87
775.35	1327.08
775.532	1339.37
775.715	1370.09
775.897	1288.17
776.079	1263.6
776.261	1228.78
776.444	1290.22
776.626	1269.74
776.808	1122.29
776.99	1208.3
777.173	1253.36
777.355	1224.69
777.537	1171.44
777.719	1140.72
777.901	1165.29
778.083	1095.66
778.265	1116.14
778.447	1153.01
778.629	1144.81
778.811	1118.19
778.993	1071.09
779.175	1095.66
779.357	1116.14
779.539	1097.71
779.721	1081.33
779.903	1144.81
780.085	1038.32
780.267	1056.75
780.449	1073.14
780.631	1093.62
780.812	1142.77
780.994	911.35
781.176	903.15
781.358	987.12
781.54	954.35
781.721	989.17
781.903	1140.72
782.085	940.02
782.267	991.22
782.448	919.54
782.63	890.87
782.812	997.36
782.993	946.16
783.175	903.15
783.357	913.39
783.538	899.06
783.72	884.72
783.901	915.44
784.083	841.72
784.264	819.19
784.446	774.13
784.627	823.28
784.809	831.48
784.99	784.37
785.172	804.85
785.353	806.9
785.535	876.53
785.716	757.75
785.897	839.67
786.079	802.8
786.26	804.85
786.441	737.27
786.623	645.11
786.804	735.22
786.985	802.8
787.167	751.6
787.348	784.37
787.529	722.93
787.71	854
787.891	739.32
788.073	714.74
788.254	669.69
788.435	733.17
788.616	778.23
788.797	688.12
788.978	663.54
789.159	655.35
789.34	688.12
789.522	667.64
789.703	659.45
789.884	714.74
790.065	546.81
790.246	759.8
790.427	663.54
790.607	624.63
790.788	579.58
790.969	657.4
791.15	692.21
791.331	643.06
791.512	624.63
791.693	602.1
791.874	696.31
792.054	667.64
792.235	628.73
792.416	608.25
792.597	563.19
792.778	585.72
792.958	616.44
793.139	524.28
793.32	579.58
793.5	571.38
793.681	632.82
793.862	509.94
794.042	585.72
794.223	497.66
794.404	464.89
794.584	511.99
794.765	514.04
794.945	641.01
795.126	620.53
795.306	546.81
795.487	473.08
795.667	485.37
795.848	413.69
796.028	563.19
796.209	555
796.389	518.14
796.57	493.56
796.75	501.75
796.93	462.84
797.111	434.17
797.291	511.99
797.471	501.75
797.652	458.74
797.832	540.66
798.012	516.09
798.192	434.17
798.373	409.59
798.553	524.28
798.733	479.22
798.913	481.27
799.093	468.98
799.274	473.08
799.454	468.98
799.634	473.08
799.814	438.27
799.994	403.45
800.174	397.31
800.354	423.93
800.534	366.59
800.714	460.79
800.894	407.55
801.074	425.98
801.254	415.74
801.434	438.27
801.614	409.59
801.794	438.27
801.974	1300.46
802.154	411.64
802.334	438.27
802.514	331.77
802.693	366.59
802.873	395.26
803.053	548.86
803.233	450.55
803.413	399.35
803.592	376.83
803.772	366.59
803.952	436.22
804.131	303.1
804.311	436.22
804.491	366.59
804.67	264.19
804.85	344.06
805.03	405.5
805.209	399.35
805.389	311.29
805.568	286.72
805.748	325.63
805.928	342.01
806.107	331.77
806.287	366.59
806.466	387.07
806.646	290.81
806.825	225.28
807.004	358.39
807.184	370.68
807.363	444.41
807.543	362.49
807.722	350.2
807.901	362.49
808.081	327.67
808.26	217.08
808.439	307.2
808.619	305.15
808.798	307.2
808.977	317.44
809.156	382.97
809.336	335.87
809.515	294.91
809.694	288.76
809.873	307.2
810.052	333.82
810.231	360.44
810.411	329.72
810.59	360.44
810.769	282.62
810.948	311.29
811.127	319.48
811.306	243.71
811.485	239.61
811.664	337.91
811.843	266.24
812.022	319.48
812.201	221.18
812.38	284.67
812.559	319.48
812.737	333.82
812.916	225.28
813.095	296.96
813.274	260.09
813.453	323.58
813.632	278.52
813.811	229.37
813.989	231.42
814.168	276.48
814.347	145.41
814.526	169.98
814.704	286.72
814.883	288.76
815.062	192.51
815.24	327.67
815.419	143.36
815.598	235.52
815.776	137.21
815.955	204.8
816.133	210.94
816.312	251.9
816.49	221.18
816.669	237.56
816.847	178.17
817.026	268.28
817.204	229.37
817.383	260.09
817.561	256
817.74	305.15
817.918	268.28
818.097	309.24
818.275	126.97
818.453	268.28
818.632	194.56
818.81	219.13
818.988	178.17
819.167	237.56
819.345	206.84
819.523	202.75
819.701	262.14
819.879	233.47
820.058	202.75
820.236	219.13
820.414	151.55
820.592	200.7
820.77	153.6
820.948	241.66
821.127	194.56
821.305	239.61
821.483	296.96
821.661	229.37
821.839	219.13
822.017	237.56
822.195	159.74
822.373	223.23
822.551	139.26
822.729	235.52
822.907	122.88
823.085	178.17
823.262	192.51
823.44	163.84
823.618	73.73
823.796	223.23
823.974	108.54
824.152	206.84
824.329	256
824.507	206.84
824.685	163.84
824.863	172.03
825.04	116.73
825.218	202.75
825.396	159.74
825.574	237.56
825.751	141.31
825.929	137.21
826.107	169.98
826.284	192.51
826.462	157.69
826.639	135.17
826.817	167.93
826.994	141.31
827.172	106.49
827.349	208.89
827.527	235.52
827.704	151.55
827.882	198.65
828.059	131.07
828.237	184.32
828.414	172.03
828.591	28.67
828.769	165.89
828.946	110.59
829.124	143.36
829.301	215.04
829.478	221.18
829.655	124.93
829.833	221.18
830.01	96.25
830.187	190.46
830.364	155.65
830.542	178.17
830.719	223.23
830.896	239.61
831.073	145.41
831.25	149.5
831.427	151.55
831.604	139.26
831.782	43.01
831.959	114.69
832.136	83.97
832.313	92.16
832.49	108.54
832.667	153.6
832.844	149.5
833.021	215.04
833.198	88.06
833.374	137.21
833.551	147.45
833.728	122.88
833.905	241.66
834.082	112.64
834.259	155.65
834.436	143.36
834.612	-6.14
834.789	161.79
834.966	139.26
835.143	180.22
835.319	94.21
835.496	169.98
835.673	182.27
835.85	167.93
836.026	71.68
836.203	118.78
836.38	40.96
836.556	98.3
836.733	98.3
836.909	182.27
837.086	79.87
837.262	49.15
837.439	112.64
837.616	71.68
837.792	96.25
837.968	139.26
838.145	14.34
838.321	120.83
838.498	137.21
838.674	53.25
838.851	110.59
839.027	2.05
839.203	63.49
839.38	139.26
839.556	108.54
839.732	102.4
839.909	57.34
840.085	182.27
840.261	143.36
840.437	120.83
840.614	81.92
840.79	147.45
840.966	69.63
841.142	137.21
841.318	67.58
841.494	180.22
841.671	147.45
841.847	96.25
842.023	26.62
842.199	96.25
842.375	155.65
842.551	43.01
842.727	92.16
842.903	155.65
843.079	47.1
843.255	139.26
843.431	53.25
843.607	157.69
843.783	32.77
843.959	149.5
844.134	34.82
844.31	108.54
844.486	59.39
844.662	22.53
844.838	73.73
845.013	94.21
845.189	182.27
845.365	-34.82
845.541	90.11
845.716	71.68
845.892	131.07
846.068	110.59
846.244	2.05
846.419	124.93
846.595	90.11
846.77	6.14
846.946	63.49
847.122	8.19
847.297	45.06
847.473	40.96
847.648	57.34
847.824	129.02
847.999	-55.3
848.175	79.87
848.35	59.39
848.526	112.64
848.701	22.53
848.876	79.87
849.052	98.3
849.227	75.77
849.403	-34.82
849.578	83.97
849.753	65.54
849.929	69.63
850.104	49.15
850.279	4.1
850.454	120.83
850.63	77.82
850.805	28.67
850.98	-47.1
851.155	79.87
851.33	75.77
851.505	2.05
851.681	57.34
851.856	43.01
852.031	34.82
852.206	133.12
852.381	75.77
852.556	30.72
852.731	22.53
852.906	112.64
853.081	98.3
853.256	137.21
853.431	100.35
853.606	-32.77
853.781	2.05
853.956	2.05
854.131	104.45
854.305	43.01
854.48	47.1
854.655	8.19
854.83	8.19
855.005	57.34
855.18	65.54
855.354	26.62
855.529	114.69
855.704	16.38
855.879	40.96
856.053	79.87
856.228	57.34
856.403	49.15
856.577	79.87
856.752	100.35
856.926	45.06
857.101	108.54
857.276	-14.34
857.45	12.29
857.625	71.68
857.799	8.19
857.974	106.49
858.148	28.67
858.323	22.53
858.497	110.59
858.672	71.68
858.846	4.1
859.02	34.82
859.195	30.72
859.369	10.24
859.543	36.86
859.718	30.72
859.892	57.34
860.066	90.11
860.241	79.87
860.415	-51.2
860.589	32.77
860.763	45.06
860.938	20.48
861.112	79.87
861.286	-16.38
861.46	51.2
861.634	69.63
861.808	90.11
861.982	2.05
862.157	8.19
862.331	-6.14
862.505	-49.15
862.679	26.62
862.853	43.01
863.027	30.72
863.201	79.87
863.375	-90.11
863.549	94.21
863.722	40.96
863.896	88.06
864.07	26.62
864.244	114.69
864.418	24.58
864.592	8.19
864.766	43.01
864.939	45.06
865.113	40.96
865.287	55.3
865.461	40.96
865.634	63.49
865.808	69.63
865.982	-30.72
866.156	10.24
866.329	-6.14
866.503	40.96
866.676	57.34
866.85	2.05
867.024	0
867.197	81.92
867.371	36.86
867.544	28.67
867.718	-30.72
867.891	92.16
868.065	-43.01
868.238	2.05
868.412	94.21
868.585	73.73
868.759	16.38
868.932	-22.53
869.105	-14.34
869.279	102.4
869.452	-34.82
869.625	79.87
869.799	24.58
869.972	-2.05
870.145	18.43
870.319	75.77
870.492	10.24
870.665	-65.53
870.838	98.3
871.011	-36.86
871.185	36.86
871.358	-67.58
871.531	22.53
871.704	6.14
871.877	0
872.05	-24.58
872.223	-40.96
872.396	-8.19
872.569	0
872.742	-22.53
872.915	47.1
873.088	69.63
873.261	43.01
873.434	30.72
873.607	-14.34
873.78	12.29
873.953	-18.43
874.126	47.1
874.299	63.49
874.471	18.43
874.644	-34.82
874.817	-8.19
874.99	149.5
875.163	28.67
875.335	40.96
875.508	-16.38
875.681	-30.72
875.853	-20.48
876.026	38.91
876.199	83.97
876.371	38.91
876.544	-34.82
876.717	71.68
876.889	32.77
877.062	18.43
877.234	-28.67
877.407	26.62
877.579	38.91
877.752	-4.1
877.924	30.72
878.097	77.82
878.269	92.16
878.442	-14.34
878.614	10.24
878.786	-14.34
878.959	-34.82
879.131	110.59
879.303	-30.72
879.476	-14.34
879.648	10.24
879.82	79.87
879.993	-4.1
880.165	38.91
880.337	-20.48
880.509	-16.38
880.681	-22.53
880.854	32.77
881.026	106.49
881.198	114.69
881.37	22.53
881.542	57.34
881.714	-18.43
881.886	63.49
882.058	10.24
882.23	65.54
882.402	-4.1
882.574	6.14
882.746	22.53
882.918	71.68
883.09	36.86
883.262	-8.19
883.434	47.1
883.606	-55.3
883.778	-32.77
883.95	43.01
884.122	8.19
884.293	-2.05
884.465	-6.14
884.637	104.45
884.809	-12.29
884.98	47.1
885.152	18.43
885.324	86.01
885.496	-47.1
885.667	-51.2
885.839	22.53
886.011	77.82
886.182	81.92
886.354	8.19
886.525	-43.01
886.697	67.58
886.869	0
887.04	61.44
887.212	110.59
887.383	100.35
887.555	71.68
887.726	-83.97
887.897	-14.34
888.069	34.82
888.24	104.45
888.412	-10.24
888.583	6.14
888.754	20.48
888.926	24.58
889.097	-18.43
889.268	-104.45
889.44	16.38
889.611	-40.96
889.782	26.62
889.953	-43.01
890.125	4.1
890.296	-40.96
890.467	20.48
890.638	6.14
890.809	-10.24
890.98	-83.97
891.151	32.77
891.323	90.11
891.494	16.38
891.665	-49.15
891.836	49.15
892.007	38.91
892.178	51.2
892.349	20.48
892.52	-63.49
892.691	-49.15
892.862	-4.1
893.032	34.82
893.203	-26.62
893.374	47.1
893.545	51.2
893.716	-6.14
893.887	69.63
894.057	-34.82
894.228	40.96
894.399	-38.91
894.57	22.53
894.74	22.53
894.911	-8.19
895.082	55.3
895.253	8.19
895.423	28.67
895.594	-43.01
895.764	81.92
895.935	-57.34
896.106	-30.72
896.276	-18.43
896.447	-18.43
896.617	-22.53
896.788	-24.58
896.958	34.82
897.129	-6.14
897.299	-55.3
897.47	-2.05
897.64	59.39
897.81	-18.43
897.981	28.67
898.151	49.15
898.322	36.86
898.492	36.86
898.662	73.73
898.832	10.24
899.003	22.53
899.173	32.77
899.343	4.1
899.513	47.1
