Data from USB4F104151__97__13-06-31-876.txt Node

Date: Fri Mar 14 13:06:31 EDT 2025
User: louis
Spectrometer: USB4F10415
Trigger mode: 4
Integration Time (sec): 4.000000E-2
Scans to average: 1
Electric dark correction enabled: true
Nonlinearity correction enabled: false
Boxcar width: 0
XAxis mode: Wavelengths
Number of Pixels in Spectrum: 3648
>>>>>Begin Spectral Data<<<<<
178.204	-183.46
178.424	-183.46
178.644	-183.46
178.864	-189.61
179.084	-150.7
179.304	-48.3
179.524	-56.49
179.744	31.57
179.964	64.34
180.184	-19.63
180.404	-33.96
180.624	45.91
180.844	23.38
181.064	4.95
181.283	4.95
181.503	-1.19
181.723	-15.53
181.943	-23.72
182.163	70.48
182.383	7
182.602	82.77
182.822	21.33
183.042	144.21
183.262	-5.29
183.482	-42.15
183.701	37.72
183.921	15.19
184.141	60.24
184.361	11.09
184.58	88.92
184.8	23.38
185.02	0.85
185.239	56.15
185.459	43.86
185.679	43.86
185.898	-9.39
186.118	125.78
186.338	95.06
186.557	39.76
186.777	-76.97
186.997	-44.2
187.216	47.96
187.436	41.81
187.655	76.63
187.875	90.96
188.095	-13.48
188.314	66.39
188.534	72.53
188.753	-19.63
188.973	43.86
189.192	95.06
189.412	99.16
189.631	52.05
189.851	50
190.07	60.24
190.29	4.95
190.509	-31.91
190.729	17.24
190.948	86.87
191.168	179.03
191.387	15.19
191.607	-1.19
191.826	-48.3
192.045	52.05
192.265	13.14
192.484	60.24
192.704	-1.19
192.923	-52.39
193.142	123.73
193.362	-19.63
193.581	29.52
193.8	29.52
194.02	76.63
194.239	99.16
194.458	23.38
194.678	-66.73
194.897	19.29
195.116	45.91
195.335	31.57
195.555	-9.39
195.774	70.48
195.993	-13.48
196.212	-40.11
196.432	-9.39
196.651	-54.44
196.87	-29.87
197.089	95.06
197.308	68.44
197.528	21.33
197.747	-29.87
197.966	19.29
198.185	154.45
198.404	39.76
198.623	70.48
198.842	-11.43
199.062	80.72
199.281	82.77
199.5	33.62
199.719	-1.19
199.938	9.05
200.157	105.3
200.376	41.81
200.595	88.92
200.814	29.52
201.033	-7.34
201.252	23.38
201.471	7
201.69	27.48
201.909	86.87
202.128	33.62
202.347	62.29
202.566	17.24
202.785	-1.19
203.004	-23.72
203.223	111.44
203.442	-31.91
203.661	-3.24
203.879	-31.91
204.098	15.19
204.317	-9.39
204.536	84.82
204.755	-25.77
204.974	56.15
205.193	56.15
205.411	133.97
205.63	11.09
205.849	39.76
206.068	45.91
206.287	-3.24
206.505	39.76
206.724	-9.39
206.943	43.86
207.162	70.48
207.381	15.19
207.599	29.52
207.818	37.72
208.037	-1.19
208.255	21.33
208.474	-13.48
208.693	107.35
208.911	-36.01
209.13	56.15
209.349	99.16
209.567	54.1
209.786	4.95
210.005	39.76
210.223	29.52
210.442	-62.63
210.661	97.11
210.879	-11.43
211.098	11.09
211.316	31.57
211.535	45.91
211.753	13.14
211.972	-15.53
212.191	0.85
212.409	31.57
212.628	21.33
212.846	-11.43
213.065	7
213.283	144.21
213.502	23.38
213.72	-40.11
213.938	66.39
214.157	41.81
214.375	115.54
214.594	119.64
214.812	88.92
215.031	-48.3
215.249	25.43
215.467	39.76
215.686	62.29
215.904	52.05
216.122	64.34
216.341	64.34
216.559	47.96
216.778	90.96
216.996	109.4
217.214	19.29
217.432	39.76
217.651	-11.43
217.869	82.77
218.087	66.39
218.306	70.48
218.524	15.19
218.742	58.2
218.96	154.45
219.179	-1.19
219.397	45.91
219.615	176.98
219.833	15.19
220.051	-31.91
220.27	39.76
220.488	60.24
220.706	-1.19
220.924	62.29
221.142	86.87
221.36	7
221.578	37.72
221.796	29.52
222.015	76.63
222.233	31.57
222.451	56.15
222.669	-1.19
222.887	103.25
223.105	-38.06
223.323	45.91
223.541	-7.34
223.759	41.81
223.977	-36.01
224.195	86.87
224.413	86.87
224.631	17.24
224.849	70.48
225.067	64.34
225.285	27.48
225.503	29.52
225.721	-109.74
225.939	15.19
226.157	35.67
226.375	262.99
226.592	11.09
226.81	47.96
227.028	93.01
227.246	146.26
227.464	47.96
227.682	-31.91
227.9	-7.34
228.117	93.01
228.335	68.44
228.553	21.33
228.771	0.85
228.989	15.19
229.206	82.77
229.424	-3.24
229.642	-19.63
229.86	-23.72
230.077	97.11
230.295	-54.44
230.513	45.91
230.731	99.16
230.948	95.06
231.166	64.34
231.384	21.33
231.601	41.81
231.819	25.43
232.037	-21.67
232.254	-17.58
232.472	-23.72
232.689	15.19
232.907	19.29
233.125	-5.29
233.342	95.06
233.56	-7.34
233.777	70.48
233.995	125.78
234.213	78.68
234.43	90.96
234.648	-23.72
234.865	-7.34
235.083	74.58
235.3	-15.53
235.518	66.39
235.735	95.06
235.953	168.79
236.17	11.09
236.388	13.14
236.605	-81.07
236.822	60.24
237.04	58.2
237.257	54.1
237.475	-23.72
237.692	93.01
237.909	-29.87
238.127	66.39
238.344	25.43
238.562	117.59
238.779	-33.96
238.996	-29.87
239.214	9.05
239.431	72.53
239.648	-52.39
239.865	62.29
240.083	70.48
240.3	-31.91
240.517	-44.2
240.735	-29.87
240.952	113.49
241.169	88.92
241.386	109.4
241.603	7
241.821	-31.91
242.038	76.63
242.255	78.68
242.472	7
242.689	84.82
242.907	56.15
243.124	-56.49
243.341	-42.15
243.558	17.24
243.775	47.96
243.992	-27.82
244.209	54.1
244.426	86.87
244.643	72.53
244.86	35.67
245.078	74.58
245.295	21.33
245.512	-21.67
245.729	62.29
245.946	-31.91
246.163	35.67
246.38	35.67
246.597	78.68
246.814	39.76
247.031	88.92
247.248	-5.29
247.464	70.48
247.681	-42.15
247.898	105.3
248.115	117.59
248.332	4.95
248.549	47.96
248.766	111.44
248.983	103.25
249.2	95.06
249.417	144.21
249.633	56.15
249.85	35.67
250.067	7
250.284	37.72
250.501	37.72
250.717	78.68
250.934	-70.83
251.151	19.29
251.368	-33.96
251.585	58.2
251.801	-9.39
252.018	11.09
252.235	95.06
252.451	7
252.668	-36.01
252.885	58.2
253.102	15.19
253.318	0.85
253.535	-70.83
253.752	-44.2
253.968	-9.39
254.185	-70.83
254.401	-50.35
254.618	-9.39
254.835	45.91
255.051	131.92
255.268	66.39
255.484	58.2
255.701	2.9
255.917	82.77
256.134	56.15
256.351	-25.77
256.567	23.38
256.784	37.72
257	15.19
257.217	41.81
257.433	82.77
257.65	50
257.866	74.58
258.082	0.85
258.299	-9.39
258.515	29.52
258.732	17.24
258.948	47.96
259.165	131.92
259.381	29.52
259.597	39.76
259.814	-29.87
260.03	-25.77
260.246	35.67
260.463	88.92
260.679	93.01
260.895	113.49
261.112	82.77
261.328	58.2
261.544	15.19
261.761	119.64
261.977	29.52
262.193	68.44
262.409	23.38
262.626	80.72
262.842	2.9
263.058	-52.39
263.274	95.06
263.49	-9.39
263.707	62.29
263.923	121.68
264.139	-5.29
264.355	11.09
264.571	121.68
264.787	68.44
265.004	39.76
265.22	9.05
265.436	64.34
265.652	72.53
265.868	-15.53
266.084	47.96
266.3	78.68
266.516	-31.91
266.732	74.58
266.948	-33.96
267.164	58.2
267.38	7
267.596	7
267.812	43.86
268.028	95.06
268.244	60.24
268.46	115.54
268.676	-11.43
268.892	70.48
269.108	-19.63
269.324	25.43
269.54	11.09
269.756	103.25
269.972	7
270.188	99.16
270.403	66.39
270.619	-31.91
270.835	50
271.051	125.78
271.267	-3.24
271.483	-17.58
271.698	70.48
271.914	35.67
272.13	37.72
272.346	-19.63
272.562	23.38
272.777	93.01
272.993	29.52
273.209	11.09
273.425	58.2
273.64	37.72
273.856	31.57
274.072	4.95
274.287	-27.82
274.503	115.54
274.719	-25.77
274.934	0.85
275.15	-7.34
275.366	-31.91
275.581	84.82
275.797	7
276.012	60.24
276.228	70.48
276.444	-36.01
276.659	56.15
276.875	-15.53
277.09	-7.34
277.306	-1.19
277.521	56.15
277.737	41.81
277.952	86.87
278.168	33.62
278.383	80.72
278.599	37.72
278.814	103.25
279.03	-11.43
279.245	27.48
279.461	-15.53
279.676	90.96
279.892	-38.06
280.107	-25.77
280.322	21.33
280.538	23.38
280.753	37.72
280.969	45.91
281.184	172.88
281.399	136.02
281.615	37.72
281.83	80.72
282.045	0.85
282.26	-3.24
282.476	29.52
282.691	13.14
282.906	95.06
283.122	21.33
283.337	-1.19
283.552	70.48
283.767	4.95
283.983	97.11
284.198	-13.48
284.413	52.05
284.628	-7.34
284.843	72.53
285.058	45.91
285.274	-1.19
285.489	-36.01
285.704	33.62
285.919	-1.19
286.134	2.9
286.349	-19.63
286.564	11.09
286.779	111.44
286.995	41.81
287.21	-11.43
287.425	45.91
287.64	-27.82
287.855	78.68
288.07	50
288.285	131.92
288.5	154.45
288.715	29.52
288.93	-42.15
289.145	-3.24
289.36	39.76
289.575	9.05
289.79	88.92
290.004	0.85
290.219	86.87
290.434	68.44
290.649	43.86
290.864	21.33
291.079	78.68
291.294	95.06
291.509	54.1
291.724	31.57
291.938	47.96
292.153	21.33
292.368	31.57
292.583	70.48
292.798	-3.24
293.012	60.24
293.227	7
293.442	9.05
293.657	90.96
293.871	156.5
294.086	72.53
294.301	60.24
294.516	105.3
294.73	66.39
294.945	2.9
295.16	66.39
295.374	58.2
295.589	2.9
295.804	7
296.018	58.2
296.233	54.1
296.447	60.24
296.662	-72.87
296.877	103.25
297.091	64.34
297.306	45.91
297.52	-40.11
297.735	45.91
297.949	50
298.164	70.48
298.378	35.67
298.593	-44.2
298.807	23.38
299.022	95.06
299.236	97.11
299.451	52.05
299.665	-15.53
299.88	19.29
300.094	74.58
300.309	13.14
300.523	27.48
300.737	45.91
300.952	-5.29
301.166	13.14
301.381	-1.19
301.595	39.76
301.809	66.39
302.024	-5.29
302.238	56.15
302.452	105.3
302.667	68.44
302.881	144.21
303.095	17.24
303.309	29.52
303.524	50
303.738	45.91
303.952	9.05
304.166	136.02
304.381	-68.78
304.595	60.24
304.809	-68.78
305.023	13.14
305.237	23.38
305.452	-97.45
305.666	62.29
305.88	133.97
306.094	23.38
306.308	107.35
306.522	64.34
306.736	37.72
306.95	25.43
307.164	86.87
307.379	39.76
307.593	52.05
307.807	21.33
308.021	103.25
308.235	97.11
308.449	29.52
308.663	7
308.877	117.59
309.091	29.52
309.305	64.34
309.519	-64.68
309.733	64.34
309.947	-33.96
310.161	95.06
310.374	72.53
310.588	99.16
310.802	31.57
311.016	45.91
311.23	4.95
311.444	62.29
311.658	31.57
311.872	82.77
312.085	60.24
312.299	86.87
312.513	86.87
312.727	-3.24
312.941	37.72
313.154	39.76
313.368	56.15
313.582	76.63
313.796	43.86
314.009	37.72
314.223	66.39
314.437	111.44
314.651	17.24
314.864	78.68
315.078	23.38
315.292	54.1
315.505	17.24
315.719	62.29
315.933	-11.43
316.146	50
316.36	-11.43
316.573	70.48
316.787	31.57
317.001	93.01
317.214	88.92
317.428	29.52
317.641	45.91
317.855	76.63
318.068	29.52
318.282	37.72
318.495	45.91
318.709	76.63
318.922	15.19
319.136	39.76
319.349	41.81
319.563	60.24
319.776	41.81
319.99	-13.48
320.203	56.15
320.417	33.62
320.63	39.76
320.843	140.12
321.057	52.05
321.27	29.52
321.483	52.05
321.697	93.01
321.91	64.34
322.124	144.21
322.337	78.68
322.55	37.72
322.763	56.15
322.977	15.19
323.19	33.62
323.403	-21.67
323.617	56.15
323.83	-7.34
324.043	56.15
324.256	39.76
324.469	17.24
324.683	121.68
324.896	31.57
325.109	25.43
325.322	-68.78
325.535	23.38
325.748	70.48
325.962	4.95
326.175	7
326.388	54.1
326.601	125.78
326.814	95.06
327.027	-1.19
327.24	52.05
327.453	-46.25
327.666	72.53
327.879	23.38
328.092	86.87
328.305	7
328.518	-54.44
328.731	54.1
328.944	-13.48
329.157	56.15
329.37	76.63
329.583	35.67
329.796	176.98
330.009	39.76
330.222	70.48
330.435	70.48
330.648	37.72
330.861	50
331.073	-52.39
331.286	93.01
331.499	58.2
331.712	4.95
331.925	17.24
332.138	17.24
332.35	35.67
332.563	-13.48
332.776	105.3
332.989	74.58
333.202	0.85
333.414	21.33
333.627	78.68
333.84	66.39
334.053	19.29
334.265	-58.54
334.478	88.92
334.691	29.52
334.903	54.1
335.116	15.19
335.329	-11.43
335.541	78.68
335.754	113.49
335.966	33.62
336.179	11.09
336.392	93.01
336.604	23.38
336.817	27.48
337.029	60.24
337.242	50
337.454	64.34
337.667	-36.01
337.88	142.16
338.092	66.39
338.305	119.64
338.517	74.58
338.729	66.39
338.942	113.49
339.154	56.15
339.367	37.72
339.579	50
339.792	29.52
340.004	54.1
340.217	93.01
340.429	111.44
340.641	-23.72
340.854	-38.06
341.066	-13.48
341.278	99.16
341.491	113.49
341.703	54.1
341.915	-3.24
342.128	78.68
342.34	9.05
342.552	7
342.764	2.9
342.977	43.86
343.189	-19.63
343.401	64.34
343.613	-19.63
343.826	4.95
344.038	78.68
344.25	86.87
344.462	23.38
344.674	4.95
344.886	50
345.099	39.76
345.311	0.85
345.523	21.33
345.735	-15.53
345.947	95.06
346.159	86.87
346.371	62.29
346.583	54.1
346.795	82.77
347.007	11.09
347.219	17.24
347.431	39.76
347.643	11.09
347.855	-11.43
348.067	47.96
348.279	52.05
348.491	25.43
348.703	82.77
348.915	103.25
349.127	-56.49
349.339	29.52
349.551	86.87
349.763	90.96
349.975	35.67
350.187	172.88
350.399	138.07
350.61	74.58
350.822	35.67
351.034	105.3
351.246	117.59
351.458	121.68
351.669	54.1
351.881	97.11
352.093	90.96
352.305	90.96
352.517	62.29
352.728	47.96
352.94	140.12
353.152	25.43
353.363	41.81
353.575	31.57
353.787	123.73
353.999	125.78
354.21	50
354.422	-40.11
354.633	15.19
354.845	27.48
355.057	62.29
355.268	33.62
355.48	80.72
355.692	29.52
355.903	78.68
356.115	45.91
356.326	4.95
356.538	56.15
356.749	39.76
356.961	56.15
357.172	70.48
357.384	62.29
357.595	154.45
357.807	150.36
358.018	31.57
358.23	56.15
358.441	39.76
358.653	58.2
358.864	52.05
359.075	80.72
359.287	23.38
359.498	156.5
359.709	41.81
359.921	-27.82
360.132	64.34
360.344	4.95
360.555	64.34
360.766	31.57
360.977	11.09
361.189	101.2
361.4	78.68
361.611	103.25
361.823	50
362.034	103.25
362.245	37.72
362.456	80.72
362.667	68.44
362.879	0.85
363.09	88.92
363.301	107.35
363.512	72.53
363.723	39.76
363.935	43.86
364.146	90.96
364.357	9.05
364.568	88.92
364.779	54.1
364.99	103.25
365.201	15.19
365.412	176.98
365.623	-13.48
365.834	121.68
366.045	37.72
366.256	76.63
366.467	70.48
366.678	29.52
366.889	90.96
367.1	17.24
367.311	70.48
367.522	21.33
367.733	129.88
367.944	72.53
368.155	97.11
368.366	95.06
368.577	138.07
368.788	68.44
368.999	27.48
369.209	35.67
369.42	179.03
369.631	162.64
369.842	72.53
370.053	56.15
370.264	181.07
370.474	41.81
370.685	41.81
370.896	60.24
371.107	127.83
371.317	54.1
371.528	45.91
371.739	80.72
371.95	56.15
372.16	50
372.371	11.09
372.582	88.92
372.792	119.64
373.003	-11.43
373.214	54.1
373.424	29.52
373.635	-7.34
373.846	50
374.056	33.62
374.267	105.3
374.477	60.24
374.688	45.91
374.898	90.96
375.109	90.96
375.319	25.43
375.53	19.29
375.74	148.31
375.951	74.58
376.161	13.14
376.372	170.83
376.582	9.05
376.793	86.87
377.003	9.05
377.214	17.24
377.424	97.11
377.635	115.54
377.845	43.86
378.055	86.87
378.266	62.29
378.476	-11.43
378.686	58.2
378.897	45.91
379.107	99.16
379.317	23.38
379.528	37.72
379.738	123.73
379.948	47.96
380.158	140.12
380.369	70.48
380.579	140.12
380.789	11.09
380.999	115.54
381.21	125.78
381.42	189.27
381.63	29.52
381.84	82.77
382.05	19.29
382.261	127.83
382.471	72.53
382.681	15.19
382.891	56.15
383.101	138.07
383.311	-17.58
383.521	90.96
383.731	181.07
383.941	72.53
384.151	80.72
384.361	103.25
384.571	113.49
384.781	117.59
384.991	123.73
385.201	160.59
385.411	142.16
385.621	136.02
385.831	9.05
386.041	41.81
386.251	50
386.461	86.87
386.671	78.68
386.881	127.83
387.091	95.06
387.301	117.59
387.511	50
387.72	47.96
387.93	203.6
388.14	29.52
388.35	86.87
388.56	127.83
388.769	84.82
388.979	150.36
389.189	23.38
389.399	88.92
389.609	84.82
389.818	101.2
390.028	127.83
390.238	39.76
390.447	33.62
390.657	99.16
390.867	111.44
391.076	23.38
391.286	88.92
391.496	88.92
391.705	82.77
391.915	189.27
392.125	80.72
392.334	52.05
392.544	88.92
392.753	60.24
392.963	111.44
393.172	45.91
393.382	23.38
393.591	172.88
393.801	82.77
394.01	133.97
394.22	111.44
394.429	56.15
394.639	95.06
394.848	103.25
395.058	82.77
395.267	56.15
395.477	170.83
395.686	129.88
395.895	131.92
396.105	162.64
396.314	86.87
396.524	21.33
396.733	11.09
396.942	156.5
397.152	84.82
397.361	215.89
397.57	127.83
397.78	88.92
397.989	146.26
398.198	129.88
398.407	115.54
398.617	105.3
398.826	136.02
399.035	123.73
399.244	158.55
399.453	162.64
399.663	107.35
399.872	136.02
400.081	129.88
400.29	211.79
400.499	29.52
400.708	164.69
400.917	117.59
401.127	123.73
401.336	144.21
401.545	222.03
401.754	209.75
401.963	97.11
402.172	107.35
402.381	119.64
402.59	70.48
402.799	127.83
403.008	232.27
403.217	179.03
403.426	170.83
403.635	131.92
403.844	160.59
404.053	217.94
404.262	119.64
404.471	228.18
404.68	209.75
404.888	203.6
405.097	226.13
405.306	269.14
405.515	244.56
405.724	166.74
405.933	258.9
406.142	269.14
406.35	338.77
406.559	267.09
406.768	265.04
406.977	299.86
407.185	269.14
407.394	332.62
407.603	191.31
407.812	250.71
408.02	389.97
408.229	275.28
408.438	369.49
408.646	273.23
408.855	336.72
409.064	308.05
409.272	383.82
409.481	373.58
409.69	400.21
409.898	303.95
410.107	359.25
410.315	447.31
410.524	381.78
410.733	375.63
410.941	447.31
411.15	463.69
411.358	488.27
411.567	492.37
411.775	572.24
411.984	498.51
412.192	551.76
412.401	510.8
412.609	639.82
412.818	635.72
413.026	549.71
413.234	588.62
413.443	611.15
413.651	731.98
413.86	717.64
414.068	799.56
414.276	826.18
414.485	770.89
414.693	916.3
414.901	906.06
415.11	942.92
415.318	877.38
415.526	930.63
415.734	1000.26
415.943	1207.11
416.151	1055.56
416.359	994.12
416.567	1086.28
416.776	1086.28
416.984	1325.89
417.192	1268.55
417.4	1264.45
417.608	1319.75
417.817	1291.07
418.025	1491.77
418.233	1506.11
418.441	1485.63
418.649	1510.21
418.857	1614.65
419.065	1655.61
419.273	1635.13
419.481	1811.26
419.689	1917.75
419.897	1983.29
420.105	1844.03
420.313	2093.88
420.521	2134.84
420.729	2167.6
420.937	2290.48
421.145	2368.31
421.353	2476.85
421.561	2544.43
421.769	2634.54
421.977	2706.22
422.185	2554.67
422.393	2718.51
422.601	2982.7
422.809	2935.59
423.017	3044.13
423.224	2997.03
423.432	3302.18
423.64	3210.02
423.848	3545.89
424.056	3423.01
424.263	3834.65
424.471	3861.27
424.679	3822.36
424.887	3982.1
425.094	4047.64
425.302	4289.3
425.51	4360.98
425.718	4569.87
425.925	4485.9
426.133	4782.86
426.341	4985.61
426.548	5092.1
426.756	5264.13
426.964	5249.8
427.171	5511.94
427.379	5821.18
427.586	5761.79
427.794	6042.36
428.001	6275.83
428.209	6556.4
428.417	6286.07
428.624	6808.3
428.832	6910.7
429.039	6970.09
429.247	6900.46
429.454	7471.84
429.662	7887.58
429.869	7355.11
430.076	8143.58
430.284	7967.45
430.491	8182.49
430.699	8651.47
430.906	8334.04
431.114	8876.75
431.321	9026.25
431.528	9233.1
431.736	9937.6
431.943	10218.17
432.15	10013.37
432.358	10236.6
432.565	10437.3
432.772	10590.9
432.979	11000.49
433.187	11356.84
433.394	11354.79
433.601	12067.49
433.808	12300.95
434.016	11909.79
434.223	12628.63
434.43	13462.15
434.637	12933.78
434.844	14054.01
435.052	14244.48
435.259	13931.14
435.466	14250.62
435.673	14228.09
435.88	14824.05
436.087	15780.45
436.294	15651.43
436.501	15510.12
436.708	15733.35
436.915	16335.45
437.122	17171.02
437.329	16869.97
437.537	17785.41
437.743	17807.94
437.95	17764.93
438.157	18639.42
438.364	19128.88
438.571	19198.51
438.778	19518
438.985	21318.16
439.192	20472.35
439.399	21006.87
439.606	20576.8
439.813	21467.66
440.02	23261.68
440.227	22217.22
440.433	22505.98
440.64	22974.97
440.847	23106.04
441.054	23724.52
441.261	25190.87
441.467	24963.54
441.674	25387.47
441.881	26169.8
442.088	25944.52
442.294	26063.3
442.501	26780.09
442.708	27279.8
442.914	28256.68
443.121	29505.94
443.328	28594.59
443.534	30482.82
443.741	30015.88
443.948	29241.75
444.154	31541.62
444.361	31316.34
444.568	31672.69
444.774	31515
444.981	31920.49
445.187	33112.41
445.394	34015.57
445.6	34230.6
445.807	37034.27
446.013	35113.28
446.22	35995.95
446.426	37566.74
446.633	37740.82
446.839	38881.54
447.046	37624.09
447.252	39506.17
447.459	39655.67
447.665	39301.37
447.871	41179.36
448.078	43161.79
448.284	41335.01
448.491	41844.95
448.697	43870.39
448.903	44257.46
449.11	44320.95
449.316	44249.27
449.522	44742.83
449.728	45979.8
449.935	46151.83
450.141	46149.78
450.347	47122.57
450.553	45938.84
450.76	46764.17
450.966	47906.94
451.172	47491.2
451.378	48564.34
451.584	47478.91
451.791	48986.22
451.997	49047.66
452.203	49670.24
452.409	49635.42
452.615	49580.13
452.821	47329.41
453.027	47081.61
453.233	49692.77
453.44	47745.15
453.646	48310.39
453.852	48326.77
454.058	49354.85
454.264	48031.86
454.47	49111.14
454.676	47431.81
454.882	48859.24
455.088	45549.73
455.294	46031
455.5	46553.23
455.705	47020.17
455.911	45258.91
456.117	44243.12
456.323	43514.05
456.529	41672.92
456.735	43204.8
456.941	42330.32
457.147	41607.39
457.352	40739.05
457.558	40005.87
457.764	40247.54
457.97	39291.13
458.176	38691.08
458.381	38547.72
458.587	36516.14
458.793	36473.13
458.999	34486.6
459.204	37304.6
459.41	36313.39
459.616	33460.57
459.821	34036.05
460.027	33505.62
460.233	32956.77
460.438	31207.8
460.644	31781.23
460.85	30112.14
461.055	29741.46
461.261	29594
461.466	27795.89
461.672	26685.89
461.878	28658.08
462.083	26882.49
462.289	26206.66
462.494	26005.96
462.7	24797.66
462.905	24410.59
463.111	24996.31
463.316	25178.58
463.522	24179.17
463.727	24467.94
463.932	24670.68
464.138	24250.85
464.343	24304.1
464.549	23556.59
464.754	24289.76
464.959	23968.23
465.165	23927.27
465.37	23116.28
465.575	22512.13
465.781	23089.65
465.986	23495.15
466.191	22649.34
466.397	22360.58
466.602	21090.84
466.807	21613.07
467.012	22084.1
467.218	21819.91
467.423	21379.6
467.628	21590.54
467.833	22426.11
468.038	21666.31
468.244	21148.18
468.449	21713.42
468.654	21236.24
468.859	21008.92
469.064	21006.87
469.269	19862.05
469.474	20435.49
469.679	20795.93
469.885	20179.49
470.09	20288.03
470.295	20306.46
470.5	19737.13
470.705	20298.27
470.91	19485.23
471.115	19018.29
471.32	19890.73
471.525	19216.94
471.73	19034.67
471.935	18979.38
472.139	18426.43
472.344	18539.07
472.549	18113.09
472.754	18111.04
472.959	17955.4
473.164	17263.18
473.369	17289.81
473.574	17906.24
473.778	17705.54
473.983	17384.01
474.188	17252.94
474.393	16566.87
474.598	16421.47
474.802	16431.71
475.007	16454.23
475.212	16431.71
475.417	15891.04
475.621	16058.98
475.826	15741.54
476.031	15676.01
476.235	15143.53
476.44	15506.02
476.645	15319.66
476.849	15299.18
477.054	15290.99
477.259	14731.89
477.463	14738.04
477.668	14572.15
477.872	14715.51
478.077	14228.09
478.282	13968
478.486	14105.21
478.691	14033.54
478.895	13808.26
479.1	13920.9
479.304	13720.2
479.509	13159.05
479.713	13519.5
479.918	13228.68
480.122	13271.69
480.326	13339.27
480.531	13318.79
480.735	12989.07
480.94	12989.07
481.144	13572.74
481.348	12614.29
481.553	12966.54
481.757	12608.15
481.961	12739.22
482.166	13007.5
482.37	12661.4
482.574	12604.05
482.778	12604.05
482.983	12872.34
483.187	12886.67
483.391	12814.99
483.595	12524.18
483.8	12538.52
484.004	12530.33
484.208	12802.71
484.412	12575.38
484.616	12526.23
484.821	12806.8
485.025	12395.16
485.229	12909.2
485.433	12493.46
485.637	12589.72
485.841	12579.48
486.045	12556.95
486.249	12294.81
486.453	12466.84
486.657	12845.71
486.861	12724.88
487.065	12493.46
487.269	12411.54
487.473	12364.44
487.677	12614.29
487.881	12724.88
488.085	12477.08
488.289	12546.71
488.493	12573.33
488.697	12690.07
488.901	12753.55
489.105	12831.38
489.309	12823.19
489.512	12991.12
489.716	12765.84
489.92	13056.65
490.124	12855.95
490.328	12839.57
490.531	12819.09
490.735	12958.35
490.939	13001.36
491.143	12845.71
491.346	12665.49
491.55	13361.8
491.754	13173.39
491.958	13140.62
492.161	13277.83
492.365	13451.91
492.569	13443.72
492.772	13402.76
492.976	13265.55
493.18	13595.27
493.383	13838.98
493.587	13707.91
493.79	13752.96
493.994	13484.68
494.197	13734.53
494.401	14226.04
494.605	13875.84
494.808	14381.69
495.012	14215.8
495.215	14097.02
495.419	14459.51
495.622	14424.7
495.825	14535.29
496.029	14350.97
496.232	15075.95
496.436	14686.84
496.639	15252.08
496.843	15364.71
497.046	15397.48
497.249	15465.07
497.453	15684.2
497.656	15655.53
497.859	15901.28
498.063	15970.91
498.266	16298.59
498.469	16224.86
498.673	16116.32
498.876	16616.02
499.079	16882.26
499.282	16765.53
499.485	17306.19
499.689	17400.4
499.892	17580.62
500.095	17226.32
500.298	17951.3
500.501	18006.59
500.705	18319.93
500.908	18387.52
501.111	18588.22
501.314	18741.82
501.517	19159.6
501.72	19200.56
501.923	19300.91
502.126	19776.04
502.329	20046.37
502.532	19855.91
502.735	20122.15
502.938	20480.54
503.141	20818.46
503.344	20920.85
503.547	20812.31
503.75	21367.31
503.953	21752.33
504.156	21809.67
504.359	22086.15
504.562	22045.19
504.765	22675.96
504.968	22821.37
505.17	23034.36
505.373	22952.44
505.576	23644.65
505.779	23650.8
505.982	23849.45
506.185	24070.63
506.387	24347.11
506.59	24576.48
506.793	25082.33
506.996	24857.05
507.198	25516.5
507.401	25674.19
507.604	25686.48
507.807	26311.11
508.009	26358.21
508.212	26608.06
508.415	27081.14
508.617	26974.65
508.82	27443.63
509.022	27234.74
509.225	28359.08
509.428	28074.41
509.63	28412.32
509.833	28504.48
510.035	29245.85
510.238	28920.22
510.44	29331.86
510.643	29854.09
510.845	30169.48
511.048	30019.98
511.25	30679.43
511.453	30370.18
511.655	31805.81
511.858	31177.08
512.06	31424.89
512.262	31717.75
512.465	31996.27
512.667	32731.49
512.87	32905.57
513.072	32620.9
513.274	33628.5
513.477	33833.3
513.679	34046.29
513.881	34402.63
514.084	34439.5
514.286	34873.67
514.488	34558.28
514.69	35977.52
514.893	35868.98
515.095	35907.89
515.297	36399.4
515.499	36344.11
515.701	36882.72
515.904	37370.14
516.106	37714.2
516.308	37558.55
516.51	38752.52
516.712	38258.96
516.914	38945.03
517.116	39749.88
517.318	39401.72
517.52	39731.45
517.722	39575.8
517.925	40567.02
518.127	40624.36
518.329	40904.93
518.531	40628.46
518.733	41711.83
518.935	42215.63
519.136	41947.35
519.338	42528.97
519.54	42698.95
519.742	42909.89
519.944	43292.86
520.146	43864.25
520.348	43962.55
520.55	43929.78
520.752	44206.26
520.954	45492.38
521.155	44669.1
521.357	45938.84
521.559	46006.42
521.761	46313.62
521.963	46293.14
522.164	46586
522.366	46874.76
522.568	47351.94
522.77	47827.07
522.971	48136.31
523.173	47644.8
523.375	47775.87
523.576	48134.26
523.778	48281.72
523.98	48836.72
524.181	49455.2
524.383	49356.9
524.584	49983.58
524.786	49713.25
524.988	49877.08
525.189	50413.65
525.391	50825.29
525.592	50602.07
525.794	50792.53
525.995	50896.97
526.197	51218.5
526.398	51302.47
526.6	51441.73
526.801	52006.97
527.003	51918.91
527.204	51929.15
527.406	51945.53
527.607	52185.15
527.808	52840.5
528.01	52121.66
528.211	52484.15
528.412	53727.27
528.614	53071.92
528.815	53012.52
529.016	53499.94
529.218	53401.64
529.419	53590.05
529.62	53233.71
529.822	53803.04
530.023	53841.95
530.224	54116.38
530.425	53860.38
530.626	53803.04
530.828	53966.88
531.029	54583.32
531.23	53989.41
531.431	54018.08
531.632	54360.09
531.833	54478.87
532.035	54341.66
532.236	54007.84
532.437	54818.83
532.638	54464.53
532.839	54927.38
533.04	54831.12
533.241	54071.32
533.442	55519.24
533.643	55044.11
533.844	54751.25
534.045	55062.54
534.246	54583.32
534.447	55472.13
534.648	54648.85
534.849	54906.9
535.05	54636.56
535.251	55134.22
535.451	54900.75
535.652	55328.78
535.853	54777.87
536.054	55269.39
536.255	54994.96
536.456	55011.34
536.657	55691.27
536.857	54444.05
537.058	55050.25
537.259	55283.72
537.46	55402.5
537.66	54867.98
537.861	55345.16
538.062	54620.18
538.263	55269.39
538.463	54788.11
538.664	54863.89
538.865	54986.77
539.065	55353.35
539.266	55353.35
539.466	55816.19
539.667	54691.86
539.868	55721.99
540.068	55031.82
540.269	54931.47
540.469	55326.73
540.67	54542.36
540.87	54659.09
541.071	55265.29
541.271	55074.83
541.472	54810.64
541.672	54939.66
541.873	54534.17
542.073	54423.57
542.274	55433.22
542.474	54906.9
542.675	54284.31
542.875	55230.47
543.075	54302.74
543.276	54366.23
543.476	55101.45
543.676	55078.92
543.877	54937.62
544.077	54378.52
544.277	54198.3
544.478	54616.08
544.678	54845.46
544.878	54814.74
545.078	54689.81
545.279	54444.05
545.479	54231.07
545.679	54237.21
545.879	54497.3
546.079	54382.62
546.28	54274.07
546.48	54128.67
546.68	54755.35
546.88	54587.41
547.08	54276.12
547.28	54302.74
547.48	54335.51
547.68	54759.44
547.88	54345.75
548.081	54542.36
548.281	54378.52
548.481	53934.11
548.681	54390.81
548.881	54550.55
549.081	54290.46
549.28	54220.83
549.48	54198.3
549.68	53895.2
549.88	54722.58
550.08	54003.74
550.28	54116.38
550.48	54038.56
550.68	54319.13
550.88	53792.8
551.08	54005.79
551.279	54497.3
551.479	53880.86
551.679	54179.87
551.879	53706.79
552.079	54018.08
552.278	53467.17
552.478	53985.31
552.678	54167.58
552.878	54212.63
553.077	53874.72
553.277	53313.58
553.477	54431.77
553.676	53381.16
553.876	53768.22
554.076	53481.51
554.275	53807.14
554.475	53366.82
554.674	53823.52
554.874	53604.39
555.074	53700.64
555.273	53628.96
555.473	53463.08
555.672	53186.6
555.872	53315.62
556.071	53311.53
556.271	53694.5
556.47	52967.47
556.67	52992.04
556.869	52811.82
557.068	53116.97
557.268	52932.65
557.467	52987.95
557.667	52944.94
557.866	53112.87
558.065	52561.97
558.265	52467.76
558.464	52144.19
558.663	52750.38
558.863	52195.38
559.062	53129.26
559.261	52127.8
559.461	52946.99
559.66	51884.09
559.859	52213.82
560.058	52078.65
560.258	52338.74
560.457	51890.24
560.656	52553.78
560.855	52082.75
561.054	52369.46
561.253	51359.81
561.453	51599.43
561.652	51597.38
561.851	51535.94
562.05	51425.35
562.249	51411.01
562.448	51798.08
562.647	51372.1
562.846	51249.22
563.045	50954.32
563.244	50731.09
563.443	51802.17
563.642	50378.84
563.841	50532.43
564.04	50720.85
564.239	51073.1
564.438	50393.17
564.637	50604.11
564.836	50477.14
565.035	49995.87
565.234	50350.17
565.432	49825.89
565.631	50227.29
565.83	50327.64
566.029	49602.66
566.228	49901.66
566.427	49762.4
566.625	49614.94
566.824	48883.82
567.023	49762.4
567.222	48785.52
567.42	49664.1
567.619	49195.11
567.818	49176.68
568.016	48900.2
568.215	49588.32
568.414	48685.17
568.612	49240.17
568.811	48408.69
569.01	48840.81
569.208	48201.85
569.407	48636.02
569.605	47603.84
569.804	48291.96
570.002	47745.15
570.201	48226.42
570.4	47788.16
570.598	47788.16
570.797	47427.71
570.995	47607.93
571.193	47022.22
571.392	48251
571.59	47196.29
571.789	47138.95
571.987	46876.81
572.186	46860.43
572.384	46901.39
572.582	47157.38
572.781	46891.15
572.979	46405.78
573.177	46180.5
573.376	46563.47
573.574	46385.3
573.772	46661.77
573.971	45887.64
574.169	45723.8
574.367	45781.15
574.565	46035.09
574.763	45848.73
574.962	45744.28
575.16	45406.37
575.358	45375.65
575.556	44597.42
575.754	45547.68
575.952	44722.35
576.151	45420.7
576.349	44675.24
576.547	44433.58
576.745	44490.93
576.943	44679.34
577.141	44255.41
577.339	44585.13
577.537	44515.5
577.735	44200.11
577.933	44013.75
578.131	44224.69
578.329	43626.68
578.527	43423.93
578.725	43604.16
578.923	43876.54
579.121	43548.86
579.319	43454.65
579.516	43716.79
579.714	43282.62
579.912	43262.15
580.11	42897.61
580.308	43118.79
580.506	42651.85
580.704	42483.92
580.901	42651.85
581.099	42674.38
581.297	42195.15
581.495	42195.15
581.692	42166.48
581.89	41951.45
582.088	42289.36
582.285	41973.97
582.483	42279.12
582.681	41795.8
582.878	41763.03
583.076	40892.65
583.274	41631.96
583.471	41435.36
583.669	40698.09
583.866	40968.42
584.064	41171.17
584.262	40433.9
584.459	41201.89
584.657	40726.76
584.854	40814.82
585.052	40044.79
585.249	40417.52
585.447	40347.89
585.644	40231.15
585.841	40061.17
586.039	40073.46
586.236	39362.81
586.434	39532.79
586.631	39432.44
586.828	39774.45
587.026	39590.14
587.223	39543.03
587.42	39520.51
587.618	39198.98
587.815	38961.41
588.012	38836.48
588.21	38852.87
588.407	39008.51
588.604	38621.45
588.801	38181.13
588.999	38373.64
589.196	38230.29
589.393	38435.08
589.59	38162.7
589.787	37986.58
589.984	37900.56
590.182	37562.65
590.379	38015.25
590.576	37720.34
590.773	37730.58
590.97	37179.68
591.167	37355.8
591.364	36950.31
591.561	37327.13
591.758	36901.15
591.955	36864.29
592.152	36997.41
592.349	36679.97
592.546	36591.91
592.743	36397.35
592.94	35619.13
593.137	36204.84
593.334	36561.19
593.531	35940.66
593.727	35860.79
593.924	35981.62
594.121	35506.49
594.318	35871.03
594.515	35414.33
594.712	35821.87
594.908	35363.13
595.105	35144
595.302	35021.12
595.499	35356.99
595.696	35152.19
595.892	34584.9
596.089	34750.79
596.286	35086.65
596.482	34462.02
596.679	34496.84
596.876	34234.7
597.072	34238.79
597.269	34220.36
597.466	33800.53
597.662	33849.68
597.859	33569.11
598.055	34105.68
598.252	33702.23
598.448	33378.65
598.645	33259.87
598.841	33163.61
599.038	33153.37
599.234	33306.97
599.431	32915.81
599.627	33159.52
599.824	33190.23
600.02	33143.13
600.217	32811.36
600.413	32801.12
600.609	32237.93
600.806	32457.06
601.002	32352.62
601.198	32031.08
601.395	31789.42
601.591	31906.16
601.787	31623.54
601.984	31734.13
602.18	32147.82
602.376	31431.03
602.572	31402.36
602.769	31836.53
602.965	31637.87
603.161	31451.51
603.357	31158.65
603.553	31084.92
603.75	31072.64
603.946	30732.67
604.142	30796.16
604.338	30699.9
604.534	30601.6
604.73	30247.3
604.926	30345.61
605.122	30749.06
605.318	30413.19
605.514	30488.96
605.71	30013.84
605.906	30065.03
606.102	29880.72
606.298	29884.81
606.494	30065.03
606.69	29653.39
606.886	29794.7
607.082	29120.92
607.278	29604.24
607.474	29161.88
607.67	29673.87
607.866	29006.23
608.062	29585.81
608.257	29292.95
608.453	29102.49
608.649	29448.6
608.845	28735.9
609.041	28907.93
609.236	29229.46
609.432	28811.68
609.628	28920.22
609.824	28633.5
610.019	28613.02
610.215	28590.5
610.411	28705.18
610.606	28299.69
610.802	28428.71
610.998	28207.53
611.193	28150.18
611.389	28201.38
611.584	28033.45
611.78	27621.81
611.976	28096.94
612.171	27990.44
612.367	27732.4
612.562	27693.49
612.758	27691.44
612.953	27320.76
613.149	27605.42
613.344	27593.14
613.539	27820.46
613.735	27369.91
613.93	27511.22
614.126	27513.27
614.321	27503.03
614.517	27355.57
614.712	27326.9
614.907	27165.11
615.103	27562.42
615.298	26907.07
615.493	27630
615.688	26941.88
615.884	27457.97
616.079	26737.09
616.274	26806.72
616.47	26622.4
616.665	26732.99
616.86	26380.74
617.055	26405.31
617.25	26345.92
617.445	26476.99
617.641	26354.12
617.836	26192.33
618.031	26094.02
618.226	26243.52
618.421	26151.37
618.616	26149.32
618.811	25657.81
619.006	26161.61
619.201	25510.35
619.396	25856.46
619.591	25295.32
619.786	25612.75
619.981	25024.98
620.176	25596.37
620.371	25078.23
620.566	25147.86
620.761	24932.82
620.956	24848.86
621.151	24418.78
621.346	24801.75
621.541	24050.15
621.735	24746.46
621.93	24089.06
622.125	24117.73
622.32	23857.64
622.515	23886.31
622.709	23902.7
622.904	23689.71
623.099	23605.74
623.294	23468.53
623.488	23267.83
623.683	23380.46
623.878	22989.3
624.072	23136.76
624.267	23163.38
624.462	22557.18
624.656	22714.87
624.851	22372.86
625.046	22243.84
625.24	22333.95
625.435	22026.76
625.629	22219.27
625.824	21758.47
626.018	21950.98
626.213	21637.64
626.407	21766.67
626.602	21357.07
626.796	21484.05
626.991	21482
627.185	21428.75
627.38	21215.76
627.574	21037.59
627.768	21060.12
627.963	20769.3
628.157	20494.88
628.352	20642.33
628.546	20163.11
628.74	20363.81
628.935	19999.27
629.129	20142.63
629.323	19485.23
629.517	19704.36
629.712	19749.42
629.906	19954.21
630.1	19419.69
630.294	19579.43
630.489	19280.43
630.683	19460.65
630.877	19092.02
631.071	19102.26
631.265	19003.96
631.459	18813.49
631.653	18815.54
631.848	18555.45
632.042	18709.05
632.236	18733.62
632.43	18209.34
632.624	18217.54
632.818	18383.42
633.012	18168.38
633.206	17975.88
633.4	17857.09
633.594	17590.86
633.788	17840.71
633.982	17750.6
634.176	17717.83
634.369	17506.89
634.563	17439.31
634.757	17218.13
634.951	17189.46
635.145	17244.75
635.339	17320.53
635.533	16863.83
635.726	16802.39
635.92	16695.89
636.114	16446.04
636.308	16519.77
636.501	16382.56
636.695	16560.73
636.889	16218.72
637.083	16190.05
637.276	16249.44
637.47	16032.35
637.664	15843.94
637.857	16040.54
638.051	16013.92
638.244	15630.95
638.438	15794.79
638.632	15692.39
638.825	15463.02
639.019	15700.58
639.212	15180.4
639.406	15200.88
639.599	15059.57
639.793	15192.69
639.986	15204.97
640.18	15030.9
640.373	14785.14
640.567	14582.39
640.76	14871.15
640.954	14385.79
641.147	14428.79
641.34	14508.66
641.534	14602.87
641.727	14418.55
641.92	14264.96
642.114	14006.91
642.307	14092.93
642.5	13865.6
642.694	13755.01
642.887	13918.85
643.08	13693.57
643.273	13830.79
643.467	13623.94
643.66	13595.27
643.853	13148.81
644.046	13460.1
644.239	13234.83
644.432	13447.82
644.626	13228.68
644.819	13075.09
645.012	13046.41
645.205	12915.34
645.398	13138.57
645.591	12798.61
645.784	12833.43
645.977	12653.2
646.17	12868.24
646.363	12753.55
646.556	12602.01
646.749	12432.02
646.942	12481.17
647.135	12298.91
647.328	12114.59
647.521	12327.58
647.714	12157.6
647.907	12178.08
648.099	12090.01
648.292	12163.74
648.485	11991.71
648.678	11748
648.871	11774.63
649.064	11580.07
649.256	11725.47
649.449	11528.87
649.642	11600.55
649.835	11530.92
650.027	11459.24
650.22	11242.15
650.413	11115.18
650.605	11307.69
650.798	11193
650.991	10959.53
651.183	11051.69
651.376	11031.21
651.568	11016.88
651.761	10877.62
651.954	10853.04
652.146	10691.25
652.339	10810.03
652.531	10609.33
652.724	10490.55
652.916	10388.15
653.109	10549.94
653.301	10457.78
653.494	10717.87
653.686	10259.13
653.879	10525.36
654.071	10318.52
654.263	10242.75
654.456	10064.57
654.648	10123.96
654.84	10093.24
655.033	10031.8
655.225	10025.66
655.417	9874.11
655.61	9812.67
655.802	9970.37
655.994	9581.25
656.186	9753.28
656.379	9525.96
656.571	9591.49
656.763	9511.62
656.955	9474.76
657.148	9364.17
657.34	9341.64
657.532	9214.66
657.724	9437.89
657.916	9437.89
658.108	9216.71
658.3	9337.54
658.492	9292.49
658.684	9013.96
658.876	8897.23
659.068	8905.42
659.26	9063.12
659.452	8833.74
659.644	8942.28
659.836	8827.6
660.028	8999.63
660.22	8854.22
660.412	8669.91
660.604	8565.46
660.796	8606.42
660.988	8557.27
661.18	8465.11
661.372	8387.29
661.563	8329.94
661.755	8229.59
661.947	8245.98
662.139	8420.05
662.331	8211.16
662.522	8305.37
662.714	8256.22
662.906	8190.68
663.097	8164.06
663.289	8176.34
663.481	8078.04
663.673	7946.97
663.864	8043.23
664.056	8063.71
664.247	7779.04
664.439	7889.63
664.631	7961.31
664.822	7842.53
665.014	7809.76
665.205	7697.12
665.397	7639.78
665.588	7633.63
665.78	7537.38
665.971	7629.54
666.163	7494.37
666.354	7428.84
666.546	7594.72
666.737	7412.45
666.929	7518.95
667.12	7406.31
667.311	7404.26
667.503	7242.47
667.694	7283.43
667.885	7246.57
668.077	7340.77
668.268	7172.84
668.459	7213.8
668.651	7156.46
668.842	7090.92
669.033	7023.34
669.224	6978.28
669.416	7297.77
669.607	6896.36
669.798	7013.1
669.989	7164.65
670.18	7150.31
670.371	7009
670.563	6857.45
670.754	7009
670.945	6863.6
671.136	6908.65
671.327	6630.13
671.518	6681.33
671.709	6849.26
671.9	6763.25
672.091	6789.87
672.282	6724.33
672.473	6552.31
672.664	6550.26
672.855	6611.7
673.046	6603.5
673.237	6662.9
673.428	6415.09
673.619	6531.83
673.809	6595.31
674	6484.72
674.191	6388.47
674.382	6519.54
674.573	6568.69
674.764	6392.56
674.954	6603.5
675.145	6329.08
675.336	6314.74
675.527	6347.51
675.717	6249.21
675.908	6423.28
676.099	6210.29
676.289	6259.45
676.48	6263.54
676.671	6302.45
676.861	6421.24
677.052	6234.87
677.243	6265.59
677.433	6386.42
677.624	6253.3
677.814	6263.54
678.005	6191.86
678.195	6150.9
678.386	6138.62
678.576	6206.2
678.767	5995.26
678.957	6071.03
679.148	6243.06
679.338	6298.36
679.529	6195.96
679.719	6144.76
679.909	6183.67
680.1	6200.05
680.29	6087.42
680.481	5966.59
680.671	6148.86
680.861	5960.44
681.052	6284.02
681.242	6034.17
681.432	6066.94
681.622	5978.87
681.813	6159.1
682.003	5982.97
682.193	5964.54
682.383	6075.13
682.573	6073.08
682.764	5944.06
682.954	5966.59
683.144	6138.62
683.334	5931.77
683.524	5876.48
683.714	5862.14
683.904	5886.72
684.094	5950.2
684.284	5843.71
684.474	5837.56
684.664	5901.05
684.854	5950.2
685.044	5870.33
685.234	5739.26
685.424	5675.77
685.614	5688.06
685.804	5669.63
685.994	5749.5
686.184	5796.6
686.374	5767.93
686.564	5731.07
686.753	5737.21
686.943	5491.46
687.133	5485.31
687.323	5438.21
687.513	5630.72
687.702	5585.66
687.892	5384.96
688.082	5532.42
688.272	5561.09
688.461	5413.63
688.651	5370.63
688.841	5344
689.03	5151.49
689.22	5241.61
689.41	5344
689.599	5341.96
689.789	5247.75
689.979	5272.32
690.168	5196.55
690.358	5108.49
690.547	5118.73
690.737	5176.07
690.926	5098.25
691.116	5026.57
691.305	5116.68
691.495	4965.13
691.684	4948.75
691.874	4985.61
692.063	4922.12
692.252	4987.66
692.442	4942.6
692.631	4936.46
692.82	4903.69
693.01	4829.96
693.199	4786.96
693.388	4789
693.578	4698.89
693.767	4680.46
693.956	4647.69
694.146	4725.52
694.335	4678.41
694.524	4645.65
694.713	4690.7
694.902	4692.75
695.092	4600.59
695.281	4662.03
695.47	4643.6
695.659	4612.88
695.848	4627.21
696.037	4530.96
696.226	4619.02
696.415	4551.44
696.604	4600.59
696.793	4551.44
696.982	4516.62
697.171	4600.59
697.36	4432.66
697.549	4412.18
697.738	4440.85
697.927	4389.65
698.116	4502.29
698.305	4475.67
698.494	4395.79
698.683	4303.64
698.872	4455.19
699.061	4457.23
699.25	4373.27
699.438	4363.03
699.627	4375.31
699.816	4389.65
700.005	4328.21
700.193	4334.36
700.382	4297.49
700.571	4332.31
700.76	4483.86
700.948	4494.1
701.137	4422.42
701.326	4414.23
701.514	4438.8
701.703	4145.94
701.892	4248.34
702.08	4399.89
702.269	4330.26
702.457	4248.34
702.646	4424.47
702.834	4266.77
703.023	4209.43
703.212	4315.92
703.4	4338.45
703.589	4281.11
703.777	4236.05
703.965	4428.56
704.154	4309.78
704.342	4326.16
704.531	4422.42
704.719	4160.28
704.907	4463.38
705.096	4133.65
705.284	4272.92
705.472	4268.82
705.661	4395.79
705.849	4219.67
706.037	4391.7
706.226	4238.1
706.414	4242.2
706.602	4315.92
706.79	4281.11
706.979	4227.86
707.167	4072.22
707.355	4162.33
707.543	4340.5
707.731	4283.16
707.919	4131.61
708.107	4217.62
708.296	4193.05
708.484	4092.69
708.672	4256.53
708.86	4182.81
709.048	4238.1
709.236	4246.29
709.424	4352.79
709.612	4193.05
709.8	4291.35
709.988	4217.62
710.176	4274.96
710.364	4266.77
710.551	4268.82
710.739	4307.73
710.927	4266.77
711.115	4231.96
711.303	4264.72
711.491	4223.76
711.679	4352.79
711.866	4344.6
712.054	4326.16
712.242	4154.13
712.43	4371.22
712.617	4254.48
712.805	4242.2
712.993	4346.64
713.181	4211.48
713.368	4307.73
713.556	4328.21
713.744	4303.64
713.931	4463.38
714.119	4307.73
714.306	4297.49
714.494	4320.02
714.682	4383.51
714.869	4301.59
715.057	4363.03
715.244	4340.5
715.432	4254.48
715.619	4412.18
715.807	4334.36
715.994	4412.18
716.182	4281.11
716.369	4475.67
716.556	4193.05
716.744	4326.16
716.931	4315.92
717.119	4440.85
717.306	4367.12
717.493	4377.36
717.681	4332.31
717.868	4250.39
718.055	4334.36
718.242	4356.88
718.43	4379.41
718.617	4371.22
718.804	4291.35
718.991	4420.37
719.179	4297.49
719.366	4391.7
719.553	4338.45
719.74	4340.5
719.927	4436.75
720.114	4369.17
720.301	4475.67
720.488	4297.49
720.676	4315.92
720.863	4430.61
721.05	4457.23
721.237	4363.03
721.424	4360.98
721.611	4424.47
721.798	4336.4
721.985	4291.35
722.172	4541.2
722.358	4315.92
722.545	4367.12
722.732	4481.81
722.919	4594.45
723.106	4481.81
723.293	4477.71
723.48	4424.47
723.667	4264.72
723.853	4358.93
724.04	4545.3
724.227	4526.86
724.414	4342.55
724.6	4453.14
724.787	4500.24
724.974	4434.71
725.161	4215.57
725.347	4317.97
725.534	4401.94
725.72	4354.83
725.907	4528.91
726.094	4352.79
726.28	4391.7
726.467	4461.33
726.653	4506.38
726.84	4365.07
727.027	4680.46
727.213	4395.79
727.4	4395.79
727.586	4490
727.773	4600.59
727.959	4356.88
728.145	4416.27
728.332	4336.4
728.518	4334.36
728.705	4377.36
728.891	4367.12
729.077	4332.31
729.264	4356.88
729.45	4412.18
729.636	4367.12
729.823	4346.64
730.009	4320.02
730.195	4473.62
730.382	4424.47
730.568	4348.69
730.754	4389.65
730.94	4356.88
731.126	4633.36
731.313	4387.6
731.499	4381.46
731.685	4408.08
731.871	4436.75
732.057	4416.27
732.243	4412.18
732.429	4487.95
732.615	4506.38
732.801	4512.53
732.987	4315.92
733.173	4256.53
733.359	4416.27
733.545	4436.75
733.731	4305.68
733.917	4408.08
734.103	4432.66
734.289	4287.25
734.475	4461.33
734.661	4348.69
734.847	4389.65
735.033	4348.69
735.219	4426.51
735.404	4383.51
735.59	4449.04
735.776	4322.07
735.962	4317.97
736.148	4455.19
736.333	4328.21
736.519	4315.92
736.705	4393.75
736.89	4248.34
737.076	4328.21
737.262	4266.77
737.447	4307.73
737.633	4274.96
737.819	4293.4
738.004	4274.96
738.19	4250.39
738.375	4283.16
738.561	4360.98
738.747	4168.47
738.932	4240.15
739.118	4332.31
739.303	4342.55
739.489	4283.16
739.674	4092.69
739.859	4156.18
740.045	4139.8
740.23	4211.48
740.416	4041.5
740.601	4184.85
740.786	4180.76
740.972	4135.7
741.157	4141.85
741.342	4006.68
741.528	4178.71
741.713	4152.09
741.898	4102.93
742.084	3904.28
742.269	4123.41
742.454	4064.02
742.639	4008.73
742.824	3998.49
743.01	4074.26
743.195	4070.17
743.38	3969.82
743.565	3967.77
743.75	3748.64
743.935	4039.45
744.12	4043.54
744.305	3844.89
744.49	3777.31
744.675	3859.23
744.86	3879.71
745.045	3822.36
745.23	3687.2
745.415	3789.6
745.6	3752.73
745.785	3748.64
745.97	3642.14
746.155	3687.2
746.34	3775.26
746.525	3523.36
746.71	3601.18
746.895	3627.81
747.079	3621.66
747.264	3595.04
747.449	3584.8
747.634	3597.09
747.819	3488.54
748.003	3486.5
748.188	3396.39
748.373	3552.03
748.557	3482.4
748.742	3423.01
748.927	3457.82
749.111	3425.06
749.296	3318.56
749.481	3314.47
749.665	3283.75
749.85	3285.8
750.034	3404.58
750.219	3140.39
750.404	3248.93
750.588	3152.68
750.773	3070.76
750.957	3093.29
751.141	3154.73
751.326	3066.66
751.51	2972.46
751.695	3005.22
751.879	3164.97
752.064	3015.46
752.248	3044.13
752.432	3033.9
752.617	2886.44
752.801	2894.63
752.985	3011.37
753.17	3070.76
753.354	3005.22
753.538	2863.91
753.722	2929.45
753.907	2831.15
754.091	2757.42
754.275	2765.61
754.459	2736.94
754.643	2732.84
754.828	2810.67
755.012	2730.8
755.196	2667.31
755.38	2652.97
755.564	2511.66
755.748	2591.53
755.932	2556.72
756.116	2454.32
756.3	2562.86
756.484	2507.57
756.668	2616.11
756.852	2466.61
757.036	2560.81
757.22	2534.19
757.404	2403.12
757.588	2421.55
757.772	2485.04
757.956	2339.63
758.14	2439.98
758.323	2315.06
758.507	2558.77
758.691	2325.3
758.875	2249.52
759.059	2323.25
759.242	2331.44
759.426	2286.39
759.61	2253.62
759.794	2368.31
759.977	2224.95
760.161	2243.38
760.345	2253.62
760.528	2243.38
760.712	2175.8
760.895	2243.38
761.079	2171.7
761.263	2134.84
761.446	2110.26
761.63	2104.12
761.813	2120.5
761.997	2054.97
762.18	2077.49
762.364	2065.21
762.547	1923.9
762.731	2040.63
762.914	1968.95
763.098	1889.08
763.281	2057.01
763.464	1860.41
763.648	2030.39
763.831	1909.56
764.015	1950.52
764.198	1991.48
764.381	1876.79
764.564	1942.33
764.748	1891.13
764.931	1905.46
765.114	1876.79
765.297	1995.57
765.481	1801.02
765.664	1983.29
765.847	1782.59
766.03	1839.93
766.213	1872.7
766.397	1956.66
766.58	1774.39
766.763	1792.83
766.946	1809.21
767.129	1770.3
767.312	1727.29
767.495	1792.83
767.678	1674.04
767.861	1893.18
768.044	1807.16
768.227	1792.83
768.41	1721.15
768.593	1770.3
768.776	1710.91
768.959	1725.24
769.142	1856.31
769.324	1651.52
769.507	1680.19
769.69	1600.32
769.873	1579.84
770.056	1719.1
770.239	1680.19
770.421	1768.25
770.604	1631.04
770.787	1581.89
770.97	1665.85
771.152	1682.24
771.335	1565.5
771.518	1542.97
771.7	1667.9
771.883	1600.32
772.066	1647.42
772.248	1475.39
772.431	1590.08
772.613	1557.31
772.796	1536.83
772.978	1473.34
773.161	1504.06
773.343	1481.53
773.526	1407.81
773.708	1372.99
773.891	1407.81
774.073	1463.1
774.256	1473.34
774.438	1485.63
774.621	1409.86
774.803	1428.29
774.985	1362.75
775.168	1389.38
775.35	1393.47
775.532	1413.95
775.715	1381.18
775.897	1348.42
776.079	1272.64
776.261	1264.45
776.444	1379.14
776.626	1268.55
776.808	1303.36
776.99	1258.31
777.173	1243.97
777.355	1192.77
777.537	1266.5
777.719	1235.78
777.901	1162.05
778.083	1258.31
778.265	1121.09
778.447	1233.73
778.629	1114.95
778.811	1272.64
778.993	1133.38
779.175	1174.34
779.357	1112.9
779.539	1141.57
779.721	1147.72
779.903	1110.85
780.085	1164.1
780.267	1110.85
780.449	1092.42
780.631	1151.81
780.812	1104.71
780.994	1010.5
781.176	1090.37
781.358	1155.91
781.54	1061.7
781.721	1012.55
781.903	1086.28
782.085	1071.94
782.267	996.17
782.448	992.07
782.63	1008.45
782.812	1010.5
782.993	1016.65
783.175	981.83
783.357	955.21
783.538	953.16
783.72	881.48
783.901	848.71
784.083	914.25
784.264	889.67
784.446	766.79
784.627	899.91
784.809	836.42
784.99	846.66
785.172	920.39
785.353	838.47
785.535	789.32
785.716	930.63
785.897	779.08
786.079	734.03
786.26	820.04
786.441	830.28
786.623	760.65
786.804	740.17
786.985	840.52
787.167	836.42
787.348	652.11
787.529	824.14
787.71	861
787.891	754.51
788.073	742.22
788.254	717.64
788.435	758.6
788.616	682.83
788.797	701.26
788.978	781.13
789.159	637.77
789.34	756.55
789.522	727.88
789.703	729.93
789.884	731.98
790.065	715.59
790.246	768.84
790.427	621.39
790.607	777.03
790.788	707.4
790.969	652.11
791.15	666.44
791.331	602.96
791.512	602.96
791.693	566.09
791.874	648.01
792.054	707.4
792.235	596.81
792.416	518.99
792.597	613.2
792.778	605
792.958	605
793.139	643.92
793.32	645.96
793.5	609.1
793.681	652.11
793.862	506.7
794.042	549.71
794.223	506.7
794.404	576.33
794.584	510.8
794.765	539.47
794.945	527.18
795.126	613.2
795.306	580.43
795.487	533.33
795.667	566.09
795.848	551.76
796.028	475.98
796.209	578.38
796.389	600.91
796.57	496.46
796.75	494.41
796.93	527.18
797.111	445.26
797.291	455.5
797.471	598.86
797.652	508.75
797.832	410.45
798.012	535.37
798.192	416.59
798.373	408.4
798.553	416.59
798.733	529.23
798.913	406.35
799.093	475.98
799.274	496.46
799.454	480.08
799.634	488.27
799.814	482.13
799.994	510.8
800.174	465.74
800.354	414.54
800.534	334.67
800.714	504.65
800.894	547.66
801.074	387.92
801.254	467.79
801.434	525.13
801.614	449.36
801.794	437.07
801.974	1301.31
802.154	365.39
802.334	328.53
802.514	355.15
802.693	430.93
802.873	355.15
803.053	422.73
803.233	383.82
803.413	480.08
803.592	422.73
803.772	369.49
803.952	324.43
804.131	371.54
804.311	371.54
804.491	334.67
804.67	340.82
804.85	414.54
805.03	465.74
805.209	422.73
805.389	281.43
805.568	316.24
805.748	334.67
805.928	371.54
806.107	314.19
806.287	355.15
806.466	416.59
806.646	392.02
806.825	363.34
807.004	387.92
807.184	353.1
807.363	383.82
807.543	375.63
807.722	332.62
807.901	422.73
808.081	346.96
808.26	273.23
808.439	328.53
808.619	324.43
808.798	293.71
808.977	310.1
809.156	398.16
809.336	351.06
809.515	449.36
809.694	314.19
809.873	246.61
810.052	273.23
810.231	340.82
810.411	316.24
810.59	392.02
810.769	299.86
810.948	303.95
811.127	275.28
811.306	342.86
811.485	338.77
811.664	283.47
811.843	297.81
812.022	297.81
812.201	316.24
812.38	205.65
812.559	283.47
812.737	285.52
812.916	242.51
813.095	201.55
813.274	234.32
813.453	205.65
813.632	248.66
813.811	262.99
813.989	279.38
814.168	236.37
814.347	187.22
814.526	336.72
814.704	275.28
814.883	308.05
815.062	303.95
815.24	289.62
815.419	234.32
815.598	244.56
815.776	189.27
815.955	250.71
816.133	97.11
816.312	283.47
816.49	181.07
816.669	179.03
816.847	240.47
817.026	277.33
817.204	203.6
817.383	203.6
817.561	211.79
817.74	195.41
817.918	183.12
818.097	189.27
818.275	193.36
818.453	219.99
818.632	271.19
818.81	271.19
818.988	228.18
819.167	232.27
819.345	242.51
819.523	252.75
819.701	164.69
819.879	215.89
820.058	201.55
820.236	205.65
820.414	236.37
820.592	246.61
820.77	248.66
820.948	271.19
821.127	191.31
821.305	244.56
821.483	148.31
821.661	228.18
821.839	168.79
822.017	166.74
822.195	181.07
822.373	310.1
822.551	289.62
822.729	265.04
822.907	162.64
823.085	201.55
823.262	187.22
823.44	246.61
823.618	133.97
823.796	138.07
823.974	164.69
824.152	121.68
824.329	101.2
824.507	230.23
824.685	205.65
824.863	115.54
825.04	148.31
825.218	236.37
825.396	123.73
825.574	136.02
825.751	142.16
825.929	217.94
826.107	97.11
826.284	211.79
826.462	133.97
826.639	56.15
826.817	148.31
826.994	176.98
827.172	170.83
827.349	252.75
827.527	146.26
827.704	101.2
827.882	205.65
828.059	250.71
828.237	189.27
828.414	160.59
828.591	101.2
828.769	154.45
828.946	74.58
829.124	197.46
829.301	197.46
829.478	62.29
829.655	133.97
829.833	90.96
830.01	107.35
830.187	199.51
830.364	160.59
830.542	125.78
830.719	166.74
830.896	170.83
831.073	99.16
831.25	121.68
831.427	195.41
831.604	152.4
831.782	181.07
831.959	119.64
832.136	107.35
832.313	162.64
832.49	115.54
832.667	154.45
832.844	127.83
833.021	158.55
833.198	164.69
833.374	101.2
833.551	80.72
833.728	115.54
833.905	162.64
834.082	60.24
834.259	123.73
834.436	146.26
834.612	142.16
834.789	213.84
834.966	13.14
835.143	162.64
835.319	33.62
835.496	136.02
835.673	138.07
835.85	152.4
836.026	127.83
836.203	162.64
836.38	70.48
836.556	70.48
836.733	107.35
836.909	201.55
837.086	168.79
837.262	90.96
837.439	62.29
837.616	138.07
837.792	113.49
837.968	152.4
838.145	25.43
838.321	160.59
838.498	97.11
838.674	68.44
838.851	70.48
839.027	160.59
839.203	56.15
839.38	142.16
839.556	82.77
839.732	105.3
839.909	95.06
840.085	64.34
840.261	84.82
840.437	82.77
840.614	58.2
840.79	82.77
840.966	86.87
841.142	217.94
841.318	37.72
841.494	129.88
841.671	74.58
841.847	54.1
842.023	15.19
842.199	107.35
842.375	113.49
842.551	54.1
842.727	60.24
842.903	117.59
843.079	72.53
843.255	107.35
843.431	107.35
843.607	99.16
843.783	-27.82
843.959	166.74
844.134	50
844.31	131.92
844.486	37.72
844.662	88.92
844.838	68.44
845.013	105.3
845.189	88.92
845.365	129.88
845.541	154.45
845.716	52.05
845.892	95.06
846.068	21.33
846.244	-17.58
846.419	136.02
846.595	54.1
846.77	80.72
846.946	129.88
847.122	-1.19
847.297	62.29
847.473	82.77
847.648	86.87
847.824	78.68
847.999	-7.34
848.175	7
848.35	105.3
848.526	93.01
848.701	80.72
848.876	111.44
849.052	121.68
849.227	76.63
849.403	74.58
849.578	68.44
849.753	21.33
849.929	66.39
850.104	84.82
850.279	144.21
850.454	103.25
850.63	78.68
850.805	4.95
850.98	43.86
851.155	70.48
851.33	88.92
851.505	127.83
851.681	37.72
851.856	21.33
852.031	78.68
852.206	107.35
852.381	19.29
852.556	58.2
852.731	82.77
852.906	45.91
853.081	33.62
853.256	86.87
853.431	19.29
853.606	103.25
853.781	33.62
853.956	-21.67
854.131	66.39
854.305	9.05
854.48	54.1
854.655	17.24
854.83	-1.19
855.005	58.2
855.18	52.05
855.354	9.05
855.529	101.2
855.704	29.52
855.879	37.72
856.053	54.1
856.228	70.48
856.403	11.09
856.577	9.05
856.752	0.85
856.926	41.81
857.101	76.63
857.276	90.96
857.45	64.34
857.625	111.44
857.799	9.05
857.974	54.1
858.148	-17.58
858.323	45.91
858.497	58.2
858.672	-9.39
858.846	95.06
859.02	56.15
859.195	-3.24
859.369	19.29
859.543	47.96
859.718	25.43
859.892	86.87
860.066	13.14
860.241	13.14
860.415	47.96
860.589	-60.59
860.763	0.85
860.938	13.14
861.112	70.48
861.286	29.52
861.46	35.67
861.634	-36.01
861.808	80.72
861.982	68.44
862.157	-76.97
862.331	7
862.505	27.48
862.679	-17.58
862.853	37.72
863.027	74.58
863.201	88.92
863.375	50
863.549	68.44
863.722	-23.72
863.896	60.24
864.07	58.2
864.244	70.48
864.418	35.67
864.592	-29.87
864.766	27.48
864.939	43.86
865.113	45.91
865.287	95.06
865.461	-29.87
865.634	2.9
865.808	29.52
865.982	74.58
866.156	54.1
866.329	68.44
866.503	-5.29
866.676	39.76
866.85	-15.53
867.024	4.95
867.197	15.19
867.371	78.68
867.544	-29.87
867.718	37.72
867.891	76.63
868.065	9.05
868.238	80.72
868.412	99.16
868.585	-40.11
868.759	7
868.932	74.58
869.105	7
869.279	62.29
869.452	25.43
869.625	-9.39
869.799	-3.24
869.972	-25.77
870.145	13.14
870.319	117.59
870.492	-5.29
870.665	13.14
870.838	-23.72
871.011	-62.63
871.185	-31.91
871.358	41.81
871.531	7
871.704	-52.39
871.877	17.24
872.05	-27.82
872.223	-3.24
872.396	21.33
872.569	17.24
872.742	-1.19
872.915	66.39
873.088	7
873.261	-31.91
873.434	-3.24
873.607	45.91
873.78	86.87
873.953	2.9
874.126	43.86
874.299	29.52
874.471	-58.54
874.644	23.38
874.817	39.76
874.99	82.77
875.163	-36.01
875.335	72.53
875.508	-66.73
875.681	72.53
875.853	-17.58
876.026	27.48
876.199	76.63
876.371	54.1
876.544	43.86
876.717	58.2
876.889	-19.63
877.062	-9.39
877.234	25.43
877.407	11.09
877.579	-9.39
877.752	39.76
877.924	125.78
878.097	62.29
878.269	25.43
878.442	60.24
878.614	-3.24
878.786	-48.3
878.959	-15.53
879.131	-3.24
879.303	-68.78
879.476	21.33
879.648	4.95
879.82	33.62
879.993	4.95
880.165	-85.16
880.337	-33.96
880.509	4.95
880.681	-25.77
880.854	-46.25
881.026	52.05
881.198	93.01
881.37	-38.06
881.542	27.48
881.714	13.14
881.886	15.19
882.058	37.72
882.23	-3.24
882.402	2.9
882.574	-3.24
882.746	123.73
882.918	52.05
883.09	41.81
883.262	4.95
883.434	23.38
883.606	-56.49
883.778	-3.24
883.95	-13.48
884.122	4.95
884.293	74.58
884.465	-52.39
884.637	47.96
884.809	-27.82
884.98	33.62
885.152	52.05
885.324	4.95
885.496	-95.4
885.667	62.29
885.839	13.14
886.011	66.39
886.182	13.14
886.354	15.19
886.525	56.15
886.697	39.76
886.869	19.29
887.04	-17.58
887.212	45.91
887.383	52.05
887.555	-9.39
887.726	-85.16
887.897	-3.24
888.069	86.87
888.24	7
888.412	39.76
888.583	-68.78
888.754	-9.39
888.926	-25.77
889.097	-64.68
889.268	21.33
889.44	0.85
889.611	-7.34
889.782	-48.3
889.953	-60.59
890.125	21.33
890.296	-21.67
890.467	7
890.638	-64.68
890.809	19.29
890.98	-17.58
891.151	11.09
891.323	45.91
891.494	-48.3
891.665	-46.25
891.836	13.14
892.007	41.81
892.178	97.11
892.349	-33.96
892.52	7
892.691	-42.15
892.862	-17.58
893.032	-36.01
893.203	-52.39
893.374	58.2
893.545	-7.34
893.716	19.29
893.887	58.2
894.057	-66.73
894.228	2.9
894.399	-27.82
894.57	-23.72
894.74	4.95
894.911	-29.87
895.082	37.72
895.253	-7.34
895.423	-11.43
895.594	37.72
895.764	-19.63
895.935	-72.87
896.106	19.29
896.276	4.95
896.447	-29.87
896.617	-44.2
896.788	-44.2
896.958	-56.49
897.129	11.09
897.299	35.67
897.47	37.72
897.64	-60.59
897.81	2.9
897.981	-23.72
898.151	-54.44
898.322	88.92
898.492	4.95
898.662	15.19
898.832	-19.63
899.003	43.86
899.173	23.38
899.343	25.43
899.513	-38.06
