Data from USB4F104151__13__13-04-22-650.txt Node

Date: Fri Mar 14 13:04:22 EDT 2025
User: louis
Spectrometer: USB4F10415
Trigger mode: 4
Integration Time (sec): 4.000000E-2
Scans to average: 1
Electric dark correction enabled: true
Nonlinearity correction enabled: false
Boxcar width: 0
XAxis mode: Wavelengths
Number of Pixels in Spectrum: 3648
>>>>>Begin Spectral Data<<<<<
178.204	-215.72
178.424	-215.72
178.644	-215.72
178.864	-90.79
179.084	-127.66
179.304	-64.17
179.524	79.19
179.744	19.8
179.964	-4.78
180.184	21.85
180.404	-31.4
180.624	64.85
180.844	-41.64
181.064	-2.73
181.283	-19.11
181.503	-70.31
181.723	48.47
181.943	-41.64
182.163	75.09
182.383	30.04
182.602	71
182.822	30.04
183.042	19.8
183.262	-4.78
183.482	25.94
183.701	91.48
183.921	42.32
184.141	-21.16
184.361	5.46
184.58	19.8
184.8	62.8
185.02	21.85
185.239	142.68
185.459	93.52
185.679	62.8
185.898	-45.74
186.118	120.15
186.338	52.56
186.557	103.76
186.777	40.28
186.997	-17.07
187.216	30.04
187.436	150.87
187.655	60.76
187.875	159.06
188.095	-19.11
188.314	111.96
188.534	79.19
188.753	15.7
188.973	89.43
189.192	79.19
189.412	11.61
189.631	52.56
189.851	89.43
190.07	101.72
190.29	54.61
190.509	64.85
190.729	77.14
190.948	68.95
191.168	200.02
191.387	124.24
191.607	40.28
191.826	-4.78
192.045	23.89
192.265	103.76
192.484	-15.02
192.704	-25.26
192.923	-8.87
193.142	148.82
193.362	101.72
193.581	3.41
193.8	95.57
194.02	68.95
194.239	42.32
194.458	36.18
194.678	85.33
194.897	11.61
195.116	15.7
195.335	25.94
195.555	34.13
195.774	114
195.993	-8.87
196.212	54.61
196.432	48.47
196.651	30.04
196.87	44.37
197.089	161.11
197.308	25.94
197.528	111.96
197.747	34.13
197.966	58.71
198.185	130.39
198.404	19.8
198.623	118.1
198.842	13.65
199.062	11.61
199.281	167.25
199.5	146.77
199.719	79.19
199.938	46.42
200.157	68.95
200.376	40.28
200.595	138.58
200.814	36.18
201.033	7.51
201.252	105.81
201.471	-4.78
201.69	109.91
201.909	101.72
202.128	36.18
202.347	97.62
202.566	-15.02
202.785	-82.6
203.004	5.46
203.223	136.53
203.442	134.48
203.661	15.7
203.879	46.42
204.098	124.24
204.317	-10.92
204.536	36.18
204.755	93.52
204.974	27.99
205.193	-15.02
205.411	54.61
205.63	93.52
205.849	99.67
206.068	32.08
206.287	-2.73
206.505	68.95
206.724	38.23
206.943	44.37
207.162	9.56
207.381	30.04
207.599	21.85
207.818	44.37
208.037	17.75
208.255	79.19
208.474	77.14
208.693	73.04
208.911	9.56
209.13	75.09
209.349	73.04
209.567	138.58
209.786	91.48
210.005	58.71
210.223	19.8
210.442	11.61
210.661	-4.78
210.879	32.08
211.098	9.56
211.316	56.66
211.535	75.09
211.753	109.91
211.972	54.61
212.191	-27.31
212.409	-2.73
212.628	-19.11
212.846	19.8
213.065	111.96
213.283	144.72
213.502	30.04
213.72	44.37
213.938	13.65
214.157	118.1
214.375	77.14
214.594	38.23
214.812	54.61
215.031	91.48
215.249	9.56
215.467	56.66
215.686	15.7
215.904	89.43
216.122	56.66
216.341	105.81
216.559	71
216.778	152.92
216.996	77.14
217.214	-0.68
217.432	89.43
217.651	-4.78
217.869	-12.97
218.087	38.23
218.306	-29.35
218.524	114
218.742	54.61
218.96	56.66
219.179	36.18
219.397	111.96
219.615	114
219.833	15.7
220.051	58.71
220.27	56.66
220.488	138.58
220.706	-17.07
220.924	13.65
221.142	-12.97
221.36	25.94
221.578	89.43
221.796	-8.87
222.015	101.72
222.233	95.57
222.451	68.95
222.669	-21.16
222.887	27.99
223.105	56.66
223.323	44.37
223.541	62.8
223.759	60.76
223.977	-0.68
224.195	66.9
224.413	64.85
224.631	64.85
224.849	62.8
225.067	99.67
225.285	87.38
225.503	64.85
225.721	-29.35
225.939	27.99
226.157	48.47
226.375	204.11
226.592	60.76
226.81	38.23
227.028	27.99
227.246	81.24
227.464	95.57
227.682	124.24
227.9	85.33
228.117	87.38
228.335	21.85
228.553	62.8
228.771	38.23
228.989	15.7
229.206	89.43
229.424	-4.78
229.642	109.91
229.86	21.85
230.077	58.71
230.295	101.72
230.513	85.33
230.731	44.37
230.948	83.28
231.166	30.04
231.384	17.75
231.601	23.89
231.819	60.76
232.037	17.75
232.254	36.18
232.472	38.23
232.689	87.38
232.907	105.81
233.125	-33.45
233.342	21.85
233.56	99.67
233.777	60.76
233.995	79.19
234.213	118.1
234.43	44.37
234.648	73.04
234.865	19.8
235.083	97.62
235.3	73.04
235.518	81.24
235.735	120.15
235.953	15.7
236.17	19.8
236.388	32.08
236.605	3.41
236.822	126.29
237.04	75.09
237.257	-4.78
237.475	25.94
237.692	36.18
237.909	103.76
238.127	36.18
238.344	134.48
238.562	81.24
238.779	-70.31
238.996	-19.11
239.214	71
239.431	109.91
239.648	13.65
239.865	44.37
240.083	27.99
240.3	9.56
240.517	62.8
240.735	52.56
240.952	91.48
241.169	87.38
241.386	68.95
241.603	34.13
241.821	-60.07
242.038	120.15
242.255	38.23
242.472	-25.26
242.689	89.43
242.907	95.57
243.124	32.08
243.341	116.05
243.558	-2.73
243.775	48.47
243.992	-2.73
244.209	62.8
244.426	146.77
244.643	120.15
244.86	23.89
245.078	36.18
245.295	77.14
245.512	-62.12
245.729	42.32
245.946	40.28
246.163	44.37
246.38	93.52
246.597	64.85
246.814	60.76
247.031	7.51
247.248	44.37
247.464	23.89
247.681	75.09
247.898	36.18
248.115	122.2
248.332	5.46
248.549	93.52
248.766	101.72
248.983	103.76
249.2	36.18
249.417	46.42
249.633	32.08
249.85	89.43
250.067	21.85
250.284	79.19
250.501	50.52
250.717	44.37
250.934	58.71
251.151	5.46
251.368	11.61
251.585	83.28
251.801	-27.31
252.018	44.37
252.235	136.53
252.451	-4.78
252.668	-21.16
252.885	107.86
253.102	44.37
253.318	19.8
253.535	77.14
253.752	56.66
253.968	21.85
254.185	-47.79
254.401	62.8
254.618	93.52
254.835	62.8
255.051	136.53
255.268	27.99
255.484	19.8
255.701	48.47
255.917	114
256.134	21.85
256.351	77.14
256.567	34.13
256.784	52.56
257	-25.26
257.217	66.9
257.433	101.72
257.65	25.94
257.866	97.62
258.082	27.99
258.299	44.37
258.515	23.89
258.732	75.09
258.948	68.95
259.165	134.48
259.381	44.37
259.597	46.42
259.814	71
260.03	27.99
260.246	95.57
260.463	122.2
260.679	79.19
260.895	97.62
261.112	60.76
261.328	27.99
261.544	-17.07
261.761	73.04
261.977	60.76
262.193	23.89
262.409	118.1
262.626	73.04
262.842	87.38
263.058	-37.55
263.274	154.96
263.49	91.48
263.707	66.9
263.923	167.25
264.139	15.7
264.355	7.51
264.571	95.57
264.787	27.99
265.004	52.56
265.22	30.04
265.436	44.37
265.652	68.95
265.868	48.47
266.084	7.51
266.3	52.56
266.516	-23.21
266.732	58.71
266.948	23.89
267.164	7.51
267.38	93.52
267.596	71
267.812	146.77
268.028	71
268.244	44.37
268.46	75.09
268.676	50.52
268.892	85.33
269.108	46.42
269.324	3.41
269.54	1.37
269.756	64.85
269.972	21.85
270.188	32.08
270.403	46.42
270.619	27.99
270.835	154.96
271.051	114
271.267	1.37
271.483	48.47
271.698	42.32
271.914	118.1
272.13	-37.55
272.346	79.19
272.562	62.8
272.777	77.14
272.993	81.24
273.209	15.7
273.425	79.19
273.64	38.23
273.856	60.76
274.072	11.61
274.287	-21.16
274.503	62.8
274.719	68.95
274.934	62.8
275.15	-107.18
275.366	25.94
275.581	11.61
275.797	36.18
276.012	40.28
276.228	30.04
276.444	3.41
276.659	56.66
276.875	7.51
277.09	60.76
277.306	-29.35
277.521	83.28
277.737	23.89
277.952	44.37
278.168	17.75
278.383	30.04
278.599	87.38
278.814	109.91
279.03	21.85
279.245	111.96
279.461	124.24
279.676	58.71
279.892	-37.55
280.107	60.76
280.322	-6.83
280.538	60.76
280.753	93.52
280.969	38.23
281.184	34.13
281.399	101.72
281.615	-58.03
281.83	132.44
282.045	-25.26
282.26	64.85
282.476	103.76
282.691	95.57
282.906	5.46
283.122	77.14
283.337	-12.97
283.552	118.1
283.767	44.37
283.983	140.63
284.198	-55.98
284.413	167.25
284.628	5.46
284.843	85.33
285.058	71
285.274	52.56
285.489	-10.92
285.704	64.85
285.919	42.32
286.134	32.08
286.349	17.75
286.564	52.56
286.779	105.81
286.995	38.23
287.21	-43.69
287.425	7.51
287.64	34.13
287.855	103.76
288.07	-55.98
288.285	27.99
288.5	95.57
288.715	130.39
288.93	-17.07
289.145	34.13
289.36	103.76
289.575	79.19
289.79	58.71
290.004	15.7
290.219	77.14
290.434	3.41
290.649	-2.73
290.864	60.76
291.079	17.75
291.294	87.38
291.509	42.32
291.724	7.51
291.938	19.8
292.153	77.14
292.368	-2.73
292.583	122.2
292.798	101.72
293.012	34.13
293.227	38.23
293.442	75.09
293.657	77.14
293.871	142.68
294.086	64.85
294.301	71
294.516	58.71
294.73	40.28
294.945	60.76
295.16	-6.83
295.374	77.14
295.589	83.28
295.804	15.7
296.018	13.65
296.233	95.57
296.447	52.56
296.662	42.32
296.877	1.37
297.091	71
297.306	30.04
297.52	79.19
297.735	3.41
297.949	58.71
298.164	159.06
298.378	9.56
298.593	-0.68
298.807	32.08
299.022	52.56
299.236	109.91
299.451	36.18
299.665	77.14
299.88	60.76
300.094	-8.87
300.309	11.61
300.523	32.08
300.737	142.68
300.952	68.95
301.166	120.15
301.381	-10.92
301.595	27.99
301.809	66.9
302.024	109.91
302.238	3.41
302.452	103.76
302.667	52.56
302.881	114
303.095	122.2
303.309	116.05
303.524	-15.02
303.738	-25.26
303.952	66.9
304.166	79.19
304.381	38.23
304.595	54.61
304.809	75.09
305.023	62.8
305.237	48.47
305.452	30.04
305.666	77.14
305.88	44.37
306.094	77.14
306.308	30.04
306.522	11.61
306.736	81.24
306.95	83.28
307.164	38.23
307.379	-12.97
307.593	138.58
307.807	60.76
308.021	83.28
308.235	52.56
308.449	-29.35
308.663	54.61
308.877	58.71
309.091	36.18
309.305	-25.26
309.519	3.41
309.733	13.65
309.947	-15.02
310.161	95.57
310.374	85.33
310.588	109.91
310.802	23.89
311.016	27.99
311.23	36.18
311.444	-4.78
311.658	-25.26
311.872	114
312.085	97.62
312.299	1.37
312.513	93.52
312.727	91.48
312.941	9.56
313.154	19.8
313.368	5.46
313.582	124.24
313.796	36.18
314.009	21.85
314.223	95.57
314.437	34.13
314.651	142.68
314.864	75.09
315.078	81.24
315.292	-27.31
315.505	54.61
315.719	105.81
315.933	15.7
316.146	118.1
316.36	50.52
316.573	3.41
316.787	109.91
317.001	77.14
317.214	19.8
317.428	68.95
317.641	7.51
317.855	81.24
318.068	68.95
318.282	114
318.495	93.52
318.709	75.09
318.922	15.7
319.136	167.25
319.349	89.43
319.563	77.14
319.776	1.37
319.99	23.89
320.203	79.19
320.417	50.52
320.63	118.1
320.843	66.9
321.057	62.8
321.27	68.95
321.483	52.56
321.697	101.72
321.91	95.57
322.124	122.2
322.337	21.85
322.55	-41.64
322.763	27.99
322.977	71
323.19	85.33
323.403	87.38
323.617	81.24
323.83	81.24
324.043	75.09
324.256	27.99
324.469	17.75
324.683	48.47
324.896	83.28
325.109	93.52
325.322	-27.31
325.535	75.09
325.748	-2.73
325.962	32.08
326.175	50.52
326.388	-0.68
326.601	38.23
326.814	-19.11
327.027	7.51
327.24	150.87
327.453	-64.17
327.666	54.61
327.879	87.38
328.092	73.04
328.305	38.23
328.518	77.14
328.731	44.37
328.944	40.28
329.157	38.23
329.37	36.18
329.583	93.52
329.796	140.63
330.009	32.08
330.222	66.9
330.435	134.48
330.648	85.33
330.861	38.23
331.073	93.52
331.286	38.23
331.499	91.48
331.712	97.62
331.925	-2.73
332.138	15.7
332.35	62.8
332.563	-4.78
332.776	66.9
332.989	3.41
333.202	71
333.414	60.76
333.627	36.18
333.84	-37.55
334.053	44.37
334.265	120.15
334.478	40.28
334.691	46.42
334.903	5.46
335.116	48.47
335.329	38.23
335.541	71
335.754	105.81
335.966	44.37
336.179	44.37
336.392	77.14
336.604	-0.68
336.817	50.52
337.029	60.76
337.242	7.51
337.454	79.19
337.667	15.7
337.88	134.48
338.092	58.71
338.305	91.48
338.517	56.66
338.729	93.52
338.942	144.72
339.154	25.94
339.367	9.56
339.579	30.04
339.792	34.13
340.004	60.76
340.217	89.43
340.429	134.48
340.641	23.89
340.854	9.56
341.066	50.52
341.278	105.81
341.491	52.56
341.703	56.66
341.915	-33.45
342.128	97.62
342.34	15.7
342.552	-19.11
342.764	27.99
342.977	95.57
343.189	7.51
343.401	5.46
343.613	-25.26
343.826	11.61
344.038	79.19
344.25	23.89
344.462	-2.73
344.674	85.33
344.886	27.99
345.099	77.14
345.311	124.24
345.523	-4.78
345.735	-62.12
345.947	27.99
346.159	-0.68
346.371	87.38
346.583	7.51
346.795	159.06
347.007	40.28
347.219	66.9
347.431	27.99
347.643	32.08
347.855	3.41
348.067	44.37
348.279	77.14
348.491	38.23
348.703	54.61
348.915	165.2
349.127	-27.31
349.339	105.81
349.551	23.89
349.763	56.66
349.975	30.04
350.187	73.04
350.399	44.37
350.61	124.24
350.822	50.52
351.034	85.33
351.246	73.04
351.458	71
351.669	99.67
351.881	66.9
352.093	118.1
352.305	38.23
352.517	30.04
352.728	81.24
352.94	30.04
353.152	9.56
353.363	27.99
353.575	154.96
353.787	150.87
353.999	56.66
354.21	144.72
354.422	21.85
354.633	3.41
354.845	9.56
355.057	56.66
355.268	150.87
355.48	81.24
355.692	-12.97
355.903	66.9
356.115	9.56
356.326	-23.21
356.538	152.92
356.749	138.58
356.961	109.91
357.172	99.67
357.384	19.8
357.595	148.82
357.807	-21.16
358.018	-17.07
358.23	138.58
358.441	179.54
358.653	56.66
358.864	52.56
359.075	34.13
359.287	93.52
359.498	77.14
359.709	30.04
359.921	-23.21
360.132	87.38
360.344	91.48
360.555	-19.11
360.766	38.23
360.977	79.19
361.189	126.29
361.4	44.37
361.611	44.37
361.823	25.94
362.034	62.8
362.245	-25.26
362.456	21.85
362.667	89.43
362.879	38.23
363.09	11.61
363.301	58.71
363.512	75.09
363.723	64.85
363.935	13.65
364.146	118.1
364.357	34.13
364.568	64.85
364.779	27.99
364.99	191.83
365.201	-15.02
365.412	81.24
365.623	5.46
365.834	132.44
366.045	91.48
366.256	144.72
366.467	83.28
366.678	87.38
366.889	62.8
367.1	5.46
367.311	40.28
367.522	38.23
367.733	40.28
367.944	21.85
368.155	68.95
368.366	169.3
368.577	105.81
368.788	136.53
368.999	87.38
369.209	77.14
369.42	173.39
369.631	146.77
369.842	97.62
370.053	40.28
370.264	138.58
370.474	21.85
370.685	44.37
370.896	64.85
371.107	81.24
371.317	107.86
371.528	79.19
371.739	99.67
371.95	21.85
372.16	75.09
372.371	-58.03
372.582	40.28
372.792	68.95
373.003	91.48
373.214	118.1
373.424	77.14
373.635	17.75
373.846	89.43
374.056	66.9
374.267	89.43
374.477	107.86
374.688	3.41
374.898	79.19
375.109	56.66
375.319	-27.31
375.53	128.34
375.74	85.33
375.951	73.04
376.161	77.14
376.372	140.63
376.582	50.52
376.793	79.19
377.003	77.14
377.214	-10.92
377.424	54.61
377.635	91.48
377.845	58.71
378.055	75.09
378.266	-55.98
378.476	46.42
378.686	40.28
378.897	109.91
379.107	-10.92
379.317	64.85
379.528	-6.83
379.738	87.38
379.948	3.41
380.158	126.29
380.369	3.41
380.579	-12.97
380.789	-0.68
380.999	118.1
381.21	81.24
381.42	73.04
381.63	99.67
381.84	111.96
382.05	56.66
382.261	34.13
382.471	77.14
382.681	44.37
382.891	122.2
383.101	79.19
383.311	-29.35
383.521	68.95
383.731	62.8
383.941	132.44
384.151	27.99
384.361	19.8
384.571	62.8
384.781	136.53
384.991	85.33
385.201	77.14
385.411	77.14
385.621	77.14
385.831	58.71
386.041	99.67
386.251	25.94
386.461	87.38
386.671	75.09
386.881	60.76
387.091	58.71
387.301	38.23
387.511	27.99
387.72	87.38
387.93	52.56
388.14	48.47
388.35	60.76
388.56	93.52
388.769	154.96
388.979	48.47
389.189	5.46
389.399	46.42
389.609	118.1
389.818	52.56
390.028	95.57
390.238	81.24
390.447	21.85
390.657	101.72
390.867	87.38
391.076	-21.16
391.286	32.08
391.496	120.15
391.705	95.57
391.915	89.43
392.125	111.96
392.334	130.39
392.544	48.47
392.753	73.04
392.963	87.38
393.172	54.61
393.382	52.56
393.591	120.15
393.801	17.75
394.01	142.68
394.22	97.62
394.429	9.56
394.639	52.56
394.848	30.04
395.058	77.14
395.267	77.14
395.477	114
395.686	50.52
395.895	167.25
396.105	177.49
396.314	114
396.524	120.15
396.733	154.96
396.942	116.05
397.152	128.34
397.361	124.24
397.57	60.76
397.78	116.05
397.989	111.96
398.198	193.87
398.407	245.07
398.617	134.48
398.826	89.43
399.035	40.28
399.244	130.39
399.453	120.15
399.663	161.11
399.872	114
400.081	46.42
400.29	163.15
400.499	56.66
400.708	46.42
400.917	93.52
401.127	111.96
401.336	54.61
401.545	146.77
401.754	212.31
401.963	122.2
402.172	60.76
402.381	87.38
402.59	87.38
402.799	111.96
403.008	136.53
403.217	91.48
403.426	101.72
403.635	128.34
403.844	159.06
404.053	161.11
404.262	50.52
404.471	224.59
404.68	101.72
404.888	73.04
405.097	165.2
405.306	148.82
405.515	126.29
405.724	159.06
405.933	177.49
406.142	150.87
406.35	259.41
406.559	105.81
406.768	159.06
406.977	240.98
407.185	243.03
407.394	126.29
407.603	85.33
407.812	271.7
408.02	281.94
408.229	152.92
408.438	111.96
408.646	224.59
408.855	214.35
409.064	150.87
409.272	269.65
409.481	212.31
409.69	218.45
409.898	210.26
410.107	243.03
410.315	333.14
410.524	154.96
410.733	300.37
410.941	290.13
411.15	372.05
411.358	341.33
411.567	406.86
411.775	306.51
411.984	398.67
412.192	398.67
412.401	345.42
412.609	464.21
412.818	388.43
413.026	472.4
413.234	355.66
413.443	402.77
413.651	392.53
413.86	437.58
414.068	445.77
414.276	527.69
414.485	544.08
414.693	556.36
414.901	574.8
415.11	568.65
415.318	585.04
415.526	529.74
415.734	660.81
415.943	636.24
416.151	626
416.359	654.67
416.567	769.35
416.776	724.3
416.984	669
417.192	746.83
417.4	699.72
417.608	693.58
417.817	744.78
418.025	869.7
418.233	910.66
418.441	929.1
418.649	816.46
418.857	1031.49
419.065	1060.17
419.273	951.62
419.481	1027.4
419.689	1092.93
419.897	1170.76
420.105	1109.32
420.313	1201.48
420.521	1248.58
420.729	1299.78
420.937	1146.18
421.145	1301.83
421.353	1436.99
421.561	1535.29
421.769	1443.14
421.977	1496.38
422.185	1518.91
422.393	1592.64
422.601	1748.28
422.809	1703.23
423.017	1664.32
423.224	1772.86
423.432	1879.35
423.64	1852.73
423.848	2118.97
424.056	1973.56
424.263	2149.68
424.471	2125.11
424.679	2223.41
424.887	2276.66
425.094	2374.96
425.302	2368.82
425.51	2417.97
425.718	2610.48
425.925	2577.71
426.133	2667.82
426.341	2835.75
426.548	2835.75
426.756	2913.58
426.964	2985.26
427.171	3214.63
427.379	3173.67
427.586	3259.68
427.794	3421.47
428.001	3656.99
428.209	3646.75
428.417	3583.26
428.624	3906.84
428.832	3886.36
429.039	3992.86
429.247	3818.78
429.454	4357.39
429.662	4396.31
429.869	4451.6
430.076	4658.45
430.284	4406.55
430.491	4689.17
430.699	4773.13
430.906	4941.07
431.114	4930.83
431.321	5033.22
431.528	5297.41
431.736	5469.44
431.943	5717.25
432.15	5700.86
432.358	5770.49
432.565	5999.87
432.772	5899.52
432.979	6350.07
433.187	6288.63
433.394	6587.63
433.601	6894.83
433.808	6733.04
434.016	6890.73
434.223	7087.34
434.43	7757.02
434.637	7476.45
434.844	8041.69
435.052	8185.05
435.259	8010.97
435.466	8115.42
435.673	8010.97
435.88	8432.85
436.087	8977.61
436.294	8950.99
436.501	8731.86
436.708	8912.08
436.915	9282.76
437.122	9706.69
437.329	9698.5
437.537	10044.6
437.743	10351.8
437.95	10237.11
438.157	10673.33
438.364	10923.18
438.571	10984.62
438.778	10788.02
438.985	12010.65
439.192	11566.24
439.399	11873.44
439.606	11693.22
439.813	12313.75
440.02	13159.56
440.227	12887.18
440.433	12889.23
440.64	12997.77
440.847	13161.61
441.054	13360.27
441.261	14212.22
441.467	14201.98
441.674	14136.45
441.881	14986.35
442.088	14752.88
442.294	14713.97
442.501	15264.88
442.708	15547.5
442.914	16049.25
443.121	16596.06
443.328	16344.16
443.534	17589.32
443.741	17060.94
443.948	16733.27
444.154	17912.9
444.361	18000.96
444.568	17933.38
444.774	18019.39
444.981	18342.97
445.187	19100.72
445.394	19520.56
445.6	19311.66
445.807	21246.99
446.013	20218.91
446.22	20864.02
446.426	21408.78
446.633	21627.92
446.839	22340.61
447.046	21611.53
447.252	22596.6
447.459	22668.28
447.665	22639.61
447.871	23843.82
448.078	24194.02
448.284	23596.01
448.491	24439.78
448.697	25121.75
448.903	25676.75
449.11	25752.52
449.316	25054.17
449.522	25725.9
449.728	26547.14
449.935	26426.31
450.141	26553.28
450.347	27069.37
450.553	26182.6
450.76	26659.77
450.966	27634.61
451.172	27300.79
451.378	28287.91
451.584	27532.21
451.791	28410.79
451.997	28150.7
452.203	28212.13
452.409	28498.85
452.615	28566.43
452.821	27167.67
453.027	26938.3
453.233	28652.45
453.44	27556.78
453.646	27831.21
453.852	28126.12
454.058	28093.35
454.264	27300.79
454.47	28281.77
454.676	27419.57
454.882	28300.2
455.088	25979.85
455.294	26278.85
455.5	26512.32
455.705	26966.97
455.911	26020.81
456.117	25504.72
456.323	24959.96
456.529	23712.75
456.735	24546.27
456.941	24308.71
457.147	23784.43
457.352	22926.33
457.558	22844.41
457.764	22922.23
457.97	22377.47
458.176	22109.19
458.381	21918.73
458.587	20790.3
458.793	20868.12
458.999	19878.95
459.204	21351.44
459.41	20411.42
459.616	19401.77
459.821	19248.18
460.027	19215.41
460.233	18928.69
460.438	18150.46
460.644	18041.92
460.85	17376.33
461.055	16921.68
461.261	16757.85
461.466	15776.87
461.672	15297.64
461.878	16417.88
462.083	15322.22
462.289	14879.86
462.494	14826.61
462.7	14075.01
462.905	13880.45
463.111	14359.67
463.316	14318.71
463.522	13804.67
463.727	14027.9
463.932	14118.01
464.138	13814.91
464.343	13978.75
464.549	13178
464.754	13984.9
464.959	13646.98
465.165	13614.21
465.37	12971.15
465.575	12733.59
465.781	13266.06
465.986	13534.34
466.191	12926.1
466.397	12367
466.602	11967.65
466.807	12377.24
467.012	12547.22
467.218	12422.3
467.423	12098.72
467.628	12254.36
467.833	12778.64
468.038	12184.73
468.244	12078.24
468.449	12463.26
468.654	12043.42
468.859	12043.42
469.064	12022.94
469.269	11467.94
469.474	11588.77
469.679	11812
469.885	11478.18
470.09	12033.18
470.295	11695.27
470.5	11087.02
470.705	11484.33
470.91	11179.18
471.115	11076.78
471.32	11082.92
471.525	11203.75
471.73	10892.46
471.935	10689.71
472.139	10355.9
472.344	10450.1
472.549	10386.61
472.754	10462.39
472.959	10095.8
473.164	9970.88
473.369	9753.79
473.574	10130.62
473.778	10149.05
473.983	9884.86
474.188	9856.19
474.393	9571.52
474.598	9542.85
474.802	9534.66
475.007	9493.7
475.212	9381.06
475.417	9088.2
475.621	9157.83
475.826	8944.84
476.031	9096.39
476.235	8770.77
476.44	8768.72
476.645	8727.76
476.849	8670.42
477.054	8645.84
477.259	8455.38
477.463	8588.5
477.668	8465.62
477.872	8369.37
478.077	8137.95
478.282	7896.28
478.486	7834.85
478.691	7996.64
478.895	7791.84
479.1	7892.19
479.304	7738.59
479.509	7591.14
479.713	7896.28
479.918	7763.17
480.122	7392.48
480.326	7611.62
480.531	7578.85
480.735	7453.92
480.94	7638.24
481.144	7503.07
481.348	7318.76
481.553	7392.48
481.757	7144.68
481.961	7283.94
482.166	7421.16
482.37	7343.33
482.574	7138.54
482.778	7398.63
482.983	7544.03
483.187	7333.09
483.391	7326.95
483.595	7310.57
483.8	7359.72
484.004	7490.79
484.208	7443.68
484.412	7290.09
484.616	7314.66
484.821	7351.53
485.025	7097.58
485.229	7263.46
485.433	7054.57
485.637	7347.43
485.841	7331.05
486.045	7191.78
486.249	7226.6
486.453	7300.33
486.657	7255.27
486.861	7214.31
487.065	7228.65
487.269	7277.8
487.473	7159.02
487.677	7220.46
487.881	7367.91
488.085	7304.42
488.289	7288.04
488.493	7156.97
488.697	7314.66
488.901	7249.13
489.105	7212.26
489.309	7515.36
489.512	7376.1
489.716	7451.88
489.92	7300.33
490.124	7425.25
490.328	7439.59
490.531	7310.57
490.735	7548.13
490.939	7464.16
491.143	7449.83
491.346	7374.05
491.55	7507.17
491.754	7460.07
491.958	7437.54
492.161	7691.49
492.365	7599.33
492.569	7658.72
492.772	7754.97
492.976	7640.29
493.18	7795.93
493.383	7879.9
493.587	7777.5
493.79	7826.65
493.994	7761.12
494.197	8049.88
494.401	8062.17
494.605	8234.2
494.808	8238.3
495.012	8117.47
495.215	8520.92
495.419	8277.21
495.622	8215.77
495.825	8490.2
496.029	8557.78
496.232	8473.81
496.436	8651.99
496.639	8621.27
496.843	8635.6
497.046	8903.89
497.249	8950.99
497.453	9086.15
497.656	9139.4
497.859	9129.16
498.063	9229.51
498.266	9649.35
498.469	9379.01
498.673	9532.61
498.876	9567.43
499.079	9721.02
499.282	9778.37
499.485	9931.97
499.689	9972.93
499.892	10093.76
500.095	10079.42
500.298	10372.28
500.501	10521.78
500.705	10456.25
500.908	10728.63
501.111	10716.34
501.314	10945.71
501.517	11177.13
501.72	11091.12
501.923	11244.71
502.126	11447.46
502.329	11306.15
502.532	11603.11
502.735	11521.19
502.938	11961.5
503.141	11924.64
503.344	11875.49
503.547	12323.99
503.75	12416.15
503.953	12438.68
504.156	12606.61
504.359	12885.14
504.562	12694.68
504.765	13016.21
504.968	13323.4
505.17	13296.78
505.373	13386.89
505.576	13546.63
505.779	13567.11
505.982	13802.63
506.185	14019.71
506.387	14201.98
506.59	14376.06
506.793	14527.61
506.996	14355.58
507.198	14959.73
507.401	14687.35
507.604	15000.69
507.807	15330.41
508.009	15354.99
508.212	15662.18
508.415	15817.83
508.617	15973.47
508.82	16120.93
509.022	16012.39
509.225	16557.14
509.428	16467.03
509.63	16688.21
509.833	16618.58
510.035	17077.33
510.238	17106
510.44	17208.4
510.643	17306.7
510.845	17693.77
511.048	17652.81
511.25	17974.34
511.453	18097.22
511.655	18732.09
511.858	18549.82
512.06	18771
512.262	19037.23
512.465	18617.4
512.667	19213.36
512.87	19362.86
513.072	19407.92
513.274	19784.74
513.477	19725.35
513.679	20134.95
513.881	20180
514.084	20513.82
514.286	20581.4
514.488	20579.36
514.69	21357.58
514.893	21158.93
515.095	21421.07
515.297	21398.54
515.499	21623.82
515.701	21791.75
515.904	22232.07
516.106	22215.68
516.308	22696.96
516.51	22914.04
516.712	22973.43
516.914	23079.93
517.116	23305.2
517.318	23518.19
517.52	23405.55
517.722	23755.75
517.925	24167.4
518.127	24382.43
518.329	24595.42
518.531	24464.35
518.733	24984.54
518.935	25314.26
519.136	24964.06
519.338	25478.1
519.54	25545.68
519.742	26147.78
519.944	26244.04
520.146	26438.59
520.348	26907.58
520.55	27102.14
520.752	26860.48
520.954	27341.75
521.155	26995.64
521.357	27698.09
521.559	27849.64
521.761	28214.18
521.963	28017.58
522.164	28591.01
522.366	28783.52
522.568	28736.41
522.77	29193.11
522.971	29485.97
523.173	29406.1
523.375	29670.29
523.576	29272.98
523.778	29854.61
523.98	30350.21
524.181	30405.51
524.383	30292.87
524.584	30690.18
524.786	30882.69
524.988	30200.71
525.189	31140.73
525.391	31187.83
525.592	31912.81
525.794	31628.15
525.995	31611.76
526.197	31884.14
526.398	31914.86
526.6	32238.44
526.801	32164.71
527.003	32152.43
527.204	32191.34
527.406	32848.74
527.607	32867.17
527.808	33088.35
528.01	32631.65
528.211	32756.58
528.412	33788.75
528.614	33586
528.815	33786.71
529.016	33559.38
529.218	33880.91
529.419	33647.44
529.62	33786.71
529.822	34048.85
530.023	33796.95
530.224	33911.63
530.425	34165.58
530.626	34038.61
530.828	33837.9
531.029	34892.61
531.23	34229.07
531.431	34321.23
531.632	34653
531.833	35189.56
532.035	34913.09
532.236	34863.94
532.437	34898.75
532.638	34786.11
532.839	35003.2
533.04	35081.02
533.241	34827.07
533.442	35226.43
533.643	34728.77
533.844	35035.97
534.045	35093.31
534.246	34952
534.447	35259.2
534.648	34949.95
534.849	35478.33
535.05	34984.77
535.251	35044.16
535.451	35062.59
535.652	35511.1
535.853	35072.83
536.054	35382.07
536.255	35478.33
536.456	35162.94
536.657	35502.9
536.857	35332.92
537.058	35124.03
537.259	35138.37
537.46	35728.18
537.66	35441.46
537.861	35361.59
538.062	35576.63
538.263	35349.31
538.463	35173.18
538.664	35576.63
538.865	35357.5
539.065	35791.67
539.266	35044.16
539.466	35531.58
539.667	35257.15
539.868	35873.59
540.068	35420.98
540.269	35377.98
540.469	35457.85
540.67	35603.25
540.87	35220.28
541.071	35296.06
541.271	35486.52
541.472	35238.72
541.672	34913.09
541.873	34988.86
542.073	35011.39
542.274	35433.27
542.474	35429.18
542.675	34999.1
542.875	35093.31
543.075	35218.24
543.276	34880.32
543.476	35650.36
543.676	35273.53
543.877	35627.83
544.077	35031.87
544.277	35746.61
544.478	35412.79
544.678	35441.46
544.878	35117.89
545.078	35009.34
545.279	35085.12
545.479	35271.48
545.679	35068.73
545.879	35418.94
546.079	35228.48
546.28	35027.77
546.48	34868.03
546.68	35392.31
546.88	35339.07
547.08	35277.63
547.28	35386.17
547.48	35203.9
547.68	35201.85
547.88	34941.76
548.081	35240.76
548.281	35214.14
548.481	34855.75
548.681	35181.37
548.881	35109.69
549.081	35552.05
549.28	34947.9
549.48	34886.46
549.68	34913.09
549.88	35578.68
550.08	35117.89
550.28	35064.64
550.48	34886.46
550.68	35076.93
550.88	34931.52
551.08	34827.07
551.279	35294.01
551.479	34724.68
551.679	34988.86
551.879	35060.54
552.079	35048.25
552.278	34806.59
552.478	34999.1
552.678	35048.25
552.878	35089.21
553.077	35011.39
553.277	34814.79
553.477	35175.23
553.676	34751.3
553.876	34810.69
554.076	34505.54
554.275	34609.99
554.475	34380.62
554.674	35007.3
554.874	34478.92
555.074	34550.6
555.273	34458.44
555.473	34790.21
555.672	34474.82
555.872	34368.33
556.071	34480.97
556.271	34581.32
556.47	34755.39
556.67	34245.45
556.869	33942.35
557.068	34702.15
557.268	34042.7
557.467	33979.21
557.667	34390.86
557.866	33944.4
558.065	33889.1
558.265	33764.18
558.464	33657.68
558.663	34179.92
558.863	33688.4
559.062	34114.38
559.261	33553.24
559.461	33794.9
559.66	33483.61
559.859	33604.44
560.058	33475.41
560.258	33571.67
560.457	32908.13
560.656	33790.8
560.855	33016.67
561.054	33303.39
561.253	32914.27
561.453	32947.04
561.652	32936.8
561.851	33368.92
562.05	33346.39
562.249	32682.85
562.448	33076.06
562.647	32549.73
562.846	32742.24
563.045	32568.16
563.244	32181.1
563.443	33188.7
563.642	32168.81
563.841	32437.09
564.04	32316.26
564.239	32400.23
564.438	31982.45
564.637	32377.7
564.836	32021.36
565.035	31941.49
565.234	32045.93
565.432	31468.41
565.631	31632.24
565.83	31478.65
566.029	31634.29
566.228	31484.79
566.427	31290.23
566.625	31122.3
566.824	31275.9
567.023	31435.64
567.222	30763.9
567.42	31458.17
567.619	30817.15
567.818	31034.24
568.016	30747.52
568.215	30802.82
568.414	30704.51
568.612	30841.73
568.811	30430.08
569.01	30487.43
569.208	29946.76
569.407	30430.08
569.605	29952.91
569.804	30475.14
570.002	29821.84
570.201	30202.76
570.4	30227.34
570.598	29776.78
570.797	29340.57
570.995	29666.19
571.193	29113.24
571.392	29582.23
571.59	29195.16
571.789	29399.96
571.987	29035.42
572.186	29016.99
572.384	28988.31
572.582	29176.73
572.781	28550.05
572.979	28634.02
573.177	28793.76
573.376	28623.78
573.574	28414.88
573.772	28625.82
573.971	28425.12
574.169	28472.23
574.367	28162.98
574.565	28523.43
574.763	28275.62
574.962	28019.63
575.16	27595.7
575.358	28013.48
575.556	27642.8
575.754	27808.69
575.952	27749.29
576.151	27964.33
576.349	27591.6
576.547	27208.63
576.745	27354.04
576.943	27888.56
577.141	27435.95
577.339	27317.17
577.537	27159.48
577.735	26958.78
577.933	26684.35
578.131	26811.32
578.329	26887.1
578.527	26588.1
578.725	26913.72
578.923	27024.31
579.121	26330.05
579.319	26440.64
579.516	26487.75
579.714	26350.53
579.912	26031.05
580.11	26010.57
580.308	26414.02
580.506	26166.21
580.704	25809.87
580.901	26016.71
581.099	26211.27
581.297	25811.92
581.495	25480.14
581.692	26106.82
581.89	25453.52
582.088	25648.08
582.285	25553.87
582.483	25752.52
582.681	25711.56
582.878	25181.14
583.076	24869.85
583.274	25224.15
583.471	24953.82
583.669	24937.43
583.866	24720.35
584.064	25082.84
584.262	24667.1
584.459	24685.53
584.657	24663.01
584.854	24579.04
585.052	24384.48
585.249	24710.11
585.447	24591.33
585.644	24034.28
585.841	24402.91
586.039	24280.03
586.236	24005.61
586.434	24196.07
586.631	24036.33
586.828	24114.15
587.026	24011.75
587.223	23677.93
587.42	23624.68
587.618	23643.12
587.815	23604.21
588.012	23499.76
588.21	23466.99
588.407	23772.14
588.604	23491.57
588.801	23176.18
588.999	23350.26
589.196	23292.91
589.393	23092.21
589.59	23112.69
589.787	22850.55
589.984	22615.04
590.182	22778.87
590.379	22916.09
590.576	22621.18
590.773	22637.56
590.97	22490.11
591.167	22676.48
591.364	22041.6
591.561	22596.6
591.758	22381.57
591.955	22062.08
592.152	21974.02
592.349	21949.45
592.546	22031.37
592.743	22090.76
592.94	21509.13
593.137	22004.74
593.334	21578.76
593.531	21285.9
593.727	21781.51
593.924	21376.02
594.121	21609.48
594.318	21640.2
594.515	21173.27
594.712	21330.96
594.908	21169.17
595.105	21347.34
595.302	21001.24
595.499	21105.68
595.696	20859.93
595.892	20902.93
596.089	21068.82
596.286	20997.14
596.482	20925.46
596.679	20610.07
596.876	20755.48
597.072	20700.19
597.269	20616.22
597.466	20669.47
597.662	20368.41
597.859	20304.93
598.055	20268.06
598.252	19977.25
598.448	20087.84
598.645	19971.11
598.841	19975.2
599.038	20161.57
599.234	20065.32
599.431	19979.3
599.627	19479.6
599.824	19758.12
600.02	19657.77
600.217	19754.02
600.413	19702.82
600.609	19389.49
600.806	19364.91
601.002	19514.41
601.198	19043.38
601.395	19301.42
601.591	19186.74
601.787	19242.03
601.984	18889.78
602.18	19338.29
602.376	18863.16
602.572	18955.32
602.769	19037.23
602.965	18668.6
603.161	18693.18
603.357	18541.63
603.553	18662.46
603.75	18564.15
603.946	18433.08
604.142	18730.04
604.338	18099.27
604.534	18365.5
604.73	18246.72
604.926	18181.18
605.122	18347.07
605.318	18060.35
605.514	17845.32
605.71	17949.76
605.906	17892.42
606.102	18093.12
606.298	17906.76
606.494	17812.55
606.69	18037.83
606.886	17718.34
607.082	17626.18
607.278	17775.69
607.474	17472.59
607.67	17407.05
607.866	17437.77
608.062	17701.96
608.257	17456.2
608.453	17306.7
608.649	17435.72
608.845	17259.6
609.041	17302.61
609.236	17230.93
609.432	16960.59
609.628	17106
609.824	17015.89
610.019	17087.57
610.215	16921.68
610.411	17159.25
610.606	16938.07
610.802	16974.93
610.998	16870.48
611.193	17128.53
611.389	16747.61
611.584	16698.45
611.78	16712.79
611.976	16716.89
612.171	16833.62
612.367	16792.66
612.562	16546.9
612.758	16579.67
612.953	16206.94
613.149	16583.77
613.344	16479.32
613.539	16579.67
613.735	16489.56
613.93	16333.92
614.126	16108.64
614.321	16327.77
614.517	16264.29
614.712	16295
614.907	16295
615.103	16292.96
615.298	16092.26
615.493	16104.54
615.688	16032.86
615.884	16198.75
616.079	15694.95
616.274	16069.73
616.47	15969.38
616.665	15721.57
616.86	15848.55
617.055	15735.91
617.25	15809.64
617.445	15774.82
617.641	15787.11
617.836	15674.47
618.031	15498.34
618.226	15740.01
618.421	15533.16
618.616	15666.28
618.811	15309.93
619.006	15553.64
619.201	15225.96
619.396	15467.63
619.591	15174.77
619.786	15305.84
619.981	14939.25
620.176	15160.43
620.371	14929.01
620.566	15055.98
620.761	14961.78
620.956	14683.25
621.151	14840.95
621.346	14697.59
621.541	14584.95
621.735	14638.2
621.93	14335.1
622.125	14535.8
622.32	14480.5
622.515	14201.98
622.709	14144.64
622.904	14277.76
623.099	14189.69
623.294	14120.06
623.488	13929.6
623.683	13849.73
623.878	13603.97
624.072	13804.67
624.267	13857.92
624.462	13390.98
624.656	13464.71
624.851	13692.04
625.046	13395.08
625.24	13524.1
625.435	13055.12
625.629	13249.68
625.824	13106.32
626.018	13161.61
626.213	12758.16
626.407	13132.94
626.602	12618.9
626.796	12766.35
626.991	12692.63
627.185	12608.66
627.38	12616.85
627.574	12645.52
627.768	12459.16
627.963	12242.07
628.157	12407.96
628.352	12078.24
628.546	11932.83
628.74	12209.31
628.935	11809.95
629.129	12285.08
629.323	11787.43
629.517	11730.08
629.712	11730.08
629.906	11922.59
630.1	11547.81
630.294	11517.09
630.489	11609.25
630.683	11613.35
630.877	11353.26
631.071	11551.91
631.265	11287.72
631.459	11224.23
631.653	11130.03
631.848	10951.85
632.042	10908.85
632.236	11037.87
632.43	10847.41
632.624	10898.61
632.818	10796.21
633.012	10865.84
633.206	10781.87
633.4	10751.15
633.594	10609.84
633.788	10644.66
633.982	10452.15
634.176	10661.04
634.369	10431.67
634.563	10439.86
634.757	10237.11
634.951	10265.78
635.145	10202.3
635.339	10319.03
635.533	10128.57
635.726	10153.15
635.92	10130.62
636.114	9860.29
636.308	9768.13
636.501	9749.7
636.695	9794.75
636.889	9598.15
637.083	9680.07
637.276	9661.63
637.47	9643.2
637.664	9643.2
637.857	9366.73
638.051	9452.74
638.244	9374.92
638.438	9188.55
638.632	9336.01
638.825	9278.66
639.019	9198.79
639.212	9188.55
639.406	9080.01
639.599	9041.1
639.793	8883.41
639.986	8776.91
640.18	8957.13
640.373	8881.36
640.567	8776.91
640.76	8711.38
640.954	8721.62
641.147	8455.38
641.34	8451.28
641.534	8623.31
641.727	8473.81
641.92	8568.02
642.114	8475.86
642.307	8377.56
642.5	8352.98
642.694	8269.02
642.887	8246.49
643.08	8297.69
643.273	8082.65
643.467	8180.95
643.66	7896.28
643.853	8058.07
644.046	7918.81
644.239	7941.34
644.432	7875.81
644.626	7814.37
644.819	7679.2
645.012	7640.29
645.205	7648.48
645.398	7601.38
645.591	7714.02
645.784	7830.75
645.977	7568.61
646.17	7533.79
646.363	7439.59
646.556	7417.06
646.749	7236.84
646.942	7353.57
647.135	7283.94
647.328	7234.79
647.521	7290.09
647.714	7169.26
647.907	7240.93
648.099	7204.07
648.292	7335.14
648.485	7019.75
648.678	7146.73
648.871	6950.12
649.064	7003.37
649.256	6774
649.449	6960.36
649.642	6878.44
649.835	6894.83
650.027	6812.91
650.22	6790.38
650.413	6776.05
650.605	6698.22
650.798	6716.65
650.991	6505.71
651.183	6583.54
651.376	6601.97
651.568	6831.34
651.761	6468.85
651.954	6503.67
652.146	6274.29
652.339	6444.27
652.531	6339.83
652.724	6370.55
652.916	6421.75
653.109	6208.76
653.301	6280.44
653.494	6229.24
653.686	6184.18
653.879	6399.22
654.071	6135.03
654.263	6198.52
654.456	6114.55
654.648	6286.58
654.84	6032.63
655.033	5973.24
655.225	6040.83
655.417	5850.36
655.61	6024.44
655.802	6083.83
655.994	5856.51
656.186	5795.07
656.379	5668.09
656.571	5762.3
656.763	5770.49
656.955	5664
657.148	5758.21
657.34	5825.79
657.532	5526.78
657.724	5616.9
657.916	5774.59
658.108	5487.87
658.3	5319.94
658.492	5631.23
658.684	5334.28
658.876	5471.49
659.068	5379.33
659.26	5446.91
659.452	5272.84
659.644	5295.36
659.836	5367.04
660.028	5397.76
660.22	5156.1
660.412	5213.45
660.604	5221.64
660.796	5250.31
660.988	5190.92
661.18	5233.93
661.372	5131.53
661.563	5033.22
661.755	5029.13
661.947	5039.37
662.139	4916.49
662.331	5045.51
662.522	4992.27
662.714	4838.67
662.906	4906.25
663.097	4793.61
663.289	4836.62
663.481	4846.86
663.673	4844.81
663.864	4848.91
664.056	4779.28
664.247	4996.36
664.439	4904.2
664.631	4711.69
664.822	4787.47
665.014	4885.77
665.205	4814.09
665.397	4705.55
665.588	4771.08
665.78	4662.54
665.971	4633.87
666.163	4781.32
666.354	4533.52
666.546	4486.42
666.737	4558.1
666.929	4693.26
667.12	4531.47
667.311	4627.73
667.503	4506.9
667.694	4558.1
667.885	4482.32
668.077	4369.68
668.268	4330.77
668.459	4537.62
668.651	4312.34
668.842	4375.83
669.033	4347.15
669.224	4357.39
669.416	4388.11
669.607	4330.77
669.798	4412.69
669.989	4318.48
670.18	4439.31
670.371	4308.24
670.563	4252.95
670.754	4293.91
670.945	4316.44
671.136	4318.48
671.327	4316.44
671.518	4373.78
671.709	4328.72
671.9	4214.04
672.091	4330.77
672.282	4242.71
672.473	4222.23
672.664	4173.08
672.855	4298
673.046	4246.8
673.237	4287.76
673.428	4246.8
673.619	4230.42
673.809	4117.78
674	4066.58
674.191	4203.8
674.382	4140.31
674.573	4240.66
674.764	4068.63
674.954	4132.12
675.145	4152.6
675.336	4023.58
675.527	4132.12
675.717	4164.89
675.908	4130.07
676.099	4044.06
676.289	3988.76
676.48	4117.78
676.671	4119.83
676.861	4064.54
677.052	4275.48
677.243	4029.72
677.433	4085.02
677.624	4140.31
677.814	4300.05
678.005	4291.86
678.195	4224.28
678.386	4095.25
678.576	4140.31
678.767	4121.88
678.957	4058.39
679.148	4142.36
679.338	4158.74
679.529	4113.69
679.719	4011.29
679.909	4230.42
680.1	4050.2
680.29	4130.07
680.481	3999
680.671	4154.65
680.861	4076.82
681.052	4197.65
681.242	4234.52
681.432	4189.46
681.622	4214.04
681.813	4160.79
682.003	4242.71
682.193	3990.81
682.383	4199.7
682.573	4164.89
682.764	4101.4
682.954	4117.78
683.144	4046.1
683.334	4156.69
683.524	4158.74
683.714	4146.45
683.904	4064.54
684.094	4136.21
684.284	4168.98
684.474	4226.32
684.664	4134.17
684.854	4119.83
685.044	4025.62
685.234	3982.62
685.424	4119.83
685.614	4035.86
685.804	4142.36
685.994	4015.38
686.184	4005.14
686.374	4173.08
686.564	3994.9
686.753	4039.96
686.943	3945.75
687.133	3847.45
687.323	4005.14
687.513	4130.07
687.702	3935.51
687.892	3882.27
688.082	3861.79
688.272	3992.86
688.461	3910.94
688.651	3829.02
688.841	3790.11
689.03	3767.58
689.22	3675.42
689.41	3652.89
689.599	3820.83
689.789	3661.09
689.979	3601.69
690.168	3743
690.358	3534.11
690.547	3583.26
690.737	3648.8
690.926	3525.92
691.116	3362.08
691.305	3663.13
691.495	3603.74
691.684	3491.1
691.874	3446.05
692.063	3618.08
692.252	3480.86
692.442	3597.6
692.631	3364.13
692.82	3474.72
693.01	3497.25
693.199	3507.49
693.388	3382.56
693.578	3364.13
693.767	3341.6
693.956	3290.4
694.146	3400.99
694.335	3278.12
694.524	3247.4
694.713	3368.23
694.902	3364.13
695.092	3337.51
695.281	3255.59
695.47	3237.16
695.659	3155.24
695.848	3241.25
696.037	3214.63
696.226	3237.16
696.415	3175.72
696.604	3276.07
696.793	3392.8
696.982	3257.64
697.171	3269.92
697.36	3024.17
697.549	3167.53
697.738	3226.92
697.927	3044.65
698.116	3087.65
698.305	3120.42
698.494	3142.95
698.683	3028.26
698.872	3155.24
699.061	3079.46
699.25	3128.61
699.438	3101.99
699.627	3101.99
699.816	3233.06
700.005	3142.95
700.193	3296.55
700.382	3179.81
700.571	3091.75
700.76	3093.8
700.948	3194.15
701.137	3065.13
701.326	3253.54
701.514	3091.75
701.703	2975.02
701.892	3183.91
702.08	3140.9
702.269	3173.67
702.457	3126.57
702.646	3237.16
702.834	3093.8
703.023	3153.19
703.212	3208.48
703.4	3151.14
703.589	3108.13
703.777	3300.64
703.965	3214.63
704.154	3065.13
704.342	3091.75
704.531	3216.68
704.719	3128.61
704.907	3288.36
705.096	3145
705.284	3134.76
705.472	3122.47
705.661	3093.8
705.849	3190.05
706.037	3179.81
706.226	3149.09
706.414	3239.2
706.602	3192.1
706.79	3314.98
706.979	3192.1
707.167	3214.63
707.355	3122.47
707.543	3198.24
707.731	3329.31
707.919	3157.29
708.107	3165.48
708.296	3249.44
708.484	3194.15
708.672	3044.65
708.86	3276.07
709.048	3329.31
709.236	3249.44
709.424	3231.01
709.612	3415.33
709.8	3276.07
709.988	3220.77
710.176	3310.88
710.364	3323.17
710.551	3196.2
710.739	3298.6
710.927	3333.41
711.115	3226.92
711.303	3339.55
711.491	3427.62
711.679	3296.55
711.866	3202.34
712.054	3380.51
712.242	3345.7
712.43	3556.64
712.617	3374.37
712.805	3368.23
712.993	3323.17
713.181	3382.56
713.368	3347.75
713.556	3413.28
713.744	3360.03
713.931	3478.82
714.119	3300.64
714.306	3460.38
714.494	3280.16
714.682	3362.08
714.869	3464.48
715.057	3427.62
715.244	3480.86
715.432	3538.21
715.619	3491.1
715.807	3476.77
715.994	3566.88
716.182	3476.77
716.369	3454.24
716.556	3681.57
716.744	3388.71
716.931	3448.1
717.119	3530.02
717.306	3616.03
717.493	3550.5
717.681	3460.38
717.868	3464.48
718.055	3747.1
718.242	3589.41
718.43	3708.19
718.617	3640.61
718.804	3738.91
718.991	3536.16
719.179	3577.12
719.366	3630.37
719.553	3661.09
719.74	3620.13
719.927	3839.26
720.114	3616.03
720.301	3564.83
720.488	3622.17
720.676	3597.6
720.863	3665.18
721.05	3710.24
721.237	3767.58
721.424	3724.57
721.611	3720.48
721.798	3730.72
721.985	3665.18
722.172	3640.61
722.358	3757.34
722.545	3773.72
722.732	3562.78
722.919	3788.06
723.106	3743
723.293	3753.24
723.48	3697.95
723.667	3642.65
723.853	3650.85
724.04	3693.85
724.227	3728.67
724.414	3808.54
724.6	3788.06
724.787	3820.83
724.974	3835.16
725.161	3796.25
725.347	3724.57
725.534	3777.82
725.72	3800.35
725.907	3786.01
726.094	3757.34
726.28	3960.09
726.467	3820.83
726.653	3689.76
726.84	3939.61
727.027	3859.74
727.213	3888.41
727.4	3919.13
727.586	3865.88
727.773	3900.7
727.959	3800.35
728.145	3804.44
728.332	3824.92
728.518	3921.18
728.705	3812.64
728.891	3947.8
729.077	3806.49
729.264	3806.49
729.45	3945.75
729.636	4064.54
729.823	3898.65
730.009	3855.64
730.195	3929.37
730.382	3929.37
730.568	3945.75
730.754	3839.26
730.94	3839.26
731.126	3853.59
731.313	3953.94
731.499	3990.81
731.685	3962.14
731.871	4052.25
732.057	3880.22
732.243	4031.77
732.429	3925.27
732.615	4005.14
732.801	3990.81
732.987	4070.68
733.173	3953.94
733.359	4054.3
733.545	3925.27
733.731	3947.8
733.917	3976.47
734.103	3904.79
734.289	3935.51
734.475	3906.84
734.661	4156.69
734.847	3859.74
735.033	3927.32
735.219	3958.04
735.404	3915.03
735.59	4015.38
735.776	3935.51
735.962	4013.34
736.148	4052.25
736.333	4025.62
736.519	3966.23
736.705	4027.67
736.89	4095.25
737.076	3802.4
737.262	3857.69
737.447	3886.36
737.633	3931.42
737.819	3970.33
738.004	3890.46
738.19	4070.68
738.375	3925.27
738.561	4052.25
738.747	3900.7
738.932	3896.6
739.118	4017.43
739.303	3888.41
739.489	3837.21
739.674	3738.91
739.859	3683.61
740.045	3812.64
740.23	3951.9
740.416	3798.3
740.601	3824.92
740.786	3820.83
740.972	3589.41
741.157	3710.24
741.342	3761.44
741.528	3796.25
741.713	3673.37
741.898	3876.12
742.084	3616.03
742.269	3634.46
742.454	3650.85
742.639	3726.62
742.824	3763.48
743.01	3562.78
743.195	3675.42
743.38	3671.33
743.565	3593.5
743.75	3575.07
743.935	3599.65
744.12	3681.57
744.305	3601.69
744.49	3509.54
744.675	3450.14
744.86	3620.13
745.045	3472.67
745.23	3476.77
745.415	3493.15
745.6	3480.86
745.785	3403.04
745.97	3306.79
746.155	3417.38
746.34	3444
746.525	3368.23
746.71	3441.95
746.895	3333.41
747.079	3487.01
747.264	3282.21
747.449	3374.37
747.634	3233.06
747.819	3226.92
748.003	3038.5
748.188	3206.44
748.373	3104.04
748.557	3204.39
748.742	3140.9
748.927	3128.61
749.111	3075.37
749.296	3081.51
749.481	3063.08
749.665	3142.95
749.85	3040.55
750.034	3108.13
750.219	2968.87
750.404	2960.68
750.588	2995.5
750.773	2901.29
750.957	2911.53
751.141	2817.32
751.326	2975.02
751.51	2905.39
751.695	2825.51
751.879	2833.71
752.064	3007.78
752.248	2911.53
752.432	2802.99
752.617	2802.99
752.801	2723.12
752.985	2741.55
753.17	2739.5
753.354	2768.17
753.538	2592.05
753.722	2710.83
753.907	2620.72
754.091	2612.53
754.275	2526.51
754.459	2667.82
754.643	2557.23
754.828	2618.67
755.012	2522.41
755.196	2456.88
755.38	2483.5
755.564	2450.74
755.748	2434.35
755.932	2641.2
756.116	2512.18
756.3	2374.96
756.484	2374.96
756.668	2286.9
756.852	2272.56
757.036	2379.06
757.22	2227.51
757.404	2290.99
757.588	2276.66
757.772	2250.03
757.956	2166.07
758.14	2338.1
758.323	2129.2
758.507	2166.07
758.691	2209.08
758.875	2135.35
759.059	2151.73
759.242	2135.35
759.426	2092.34
759.61	2258.23
759.794	2110.77
759.977	2018.61
760.161	2112.82
760.345	2178.36
760.528	2016.57
760.712	2028.85
760.895	2096.44
761.079	2006.33
761.263	1932.6
761.446	2032.95
761.63	1998.13
761.813	2014.52
761.997	1881.4
762.18	1885.5
762.364	1881.4
762.547	1940.79
762.731	1969.46
762.914	1946.94
763.098	1959.22
763.281	1824.06
763.464	1797.43
763.648	1846.59
763.831	1858.87
764.015	1869.11
764.198	1881.4
764.381	1858.87
764.564	1744.19
764.748	1746.23
764.931	1879.35
765.114	1668.41
765.297	1850.68
765.481	1733.95
765.664	1641.79
765.847	1787.19
766.03	1789.24
766.213	1670.46
766.397	1647.93
766.58	1611.07
766.763	1649.98
766.946	1713.47
767.129	1658.17
767.312	1733.95
767.495	1635.64
767.678	1711.42
767.861	1643.84
768.044	1703.23
768.227	1611.07
768.41	1545.53
768.593	1670.46
768.776	1545.53
768.959	1611.07
769.142	1629.5
769.324	1488.19
769.507	1641.79
769.69	1658.17
769.873	1592.64
770.056	1729.85
770.239	1543.49
770.421	1504.57
770.604	1609.02
770.787	1453.38
770.97	1510.72
771.152	1391.94
771.335	1404.22
771.518	1379.65
771.7	1549.63
771.883	1598.78
772.066	1535.29
772.248	1398.08
772.431	1512.77
772.613	1428.8
772.796	1434.94
772.978	1402.18
773.161	1512.77
773.343	1332.54
773.526	1201.48
773.708	1185.09
773.891	1320.26
774.073	1451.33
774.256	1400.13
774.438	1432.9
774.621	1285.44
774.803	1248.58
774.985	1322.31
775.168	1305.92
775.35	1240.39
775.532	1224
775.715	1211.71
775.897	1283.39
776.079	1264.96
776.261	1203.52
776.444	1254.72
776.626	1197.38
776.808	1193.28
776.99	1158.47
777.173	1119.56
777.355	1170.76
777.537	1162.56
777.719	1197.38
777.901	1033.54
778.083	1135.94
778.265	1099.08
778.447	1183.04
778.629	1074.5
778.811	1058.12
778.993	1142.08
779.175	1131.84
779.357	1236.29
779.539	1054.02
779.721	1021.25
779.903	1068.36
780.085	976.2
780.267	1080.64
780.449	1064.26
780.631	1041.73
780.812	1017.16
780.994	1031.49
781.176	990.53
781.358	955.72
781.54	986.44
781.721	935.24
781.903	1017.16
782.085	982.34
782.267	906.57
782.448	855.37
782.63	904.52
782.812	908.62
782.993	920.9
783.175	890.18
783.357	916.81
783.538	965.96
783.72	877.9
783.901	892.23
784.083	881.99
784.264	888.14
784.446	806.22
784.627	748.87
784.809	847.18
784.99	822.6
785.172	818.5
785.353	742.73
785.535	859.46
785.716	757.07
785.897	804.17
786.079	873.8
786.26	759.11
786.441	896.33
786.623	673.1
786.804	699.72
786.985	732.49
787.167	781.64
787.348	646.48
787.529	707.91
787.71	816.46
787.891	744.78
788.073	732.49
788.254	699.72
788.435	775.5
788.616	703.82
788.797	658.76
788.978	703.82
789.159	636.24
789.34	679.24
789.522	642.38
789.703	537.93
789.884	795.98
790.065	695.63
790.246	623.95
790.427	603.47
790.607	662.86
790.788	689.48
790.969	519.5
791.15	646.48
791.331	646.48
791.512	531.79
791.693	599.37
791.874	648.52
792.054	681.29
792.235	644.43
792.416	535.89
792.597	585.04
792.778	578.89
792.958	671.05
793.139	564.56
793.32	589.13
793.5	507.21
793.681	578.89
793.862	496.97
794.042	544.08
794.223	484.69
794.404	488.78
794.584	494.93
794.765	501.07
794.945	558.41
795.126	585.04
795.306	593.23
795.487	456.01
795.667	560.46
795.848	548.17
796.028	560.46
796.209	523.6
796.389	593.23
796.57	458.06
796.75	464.21
796.93	470.35
797.111	468.3
797.291	470.35
797.471	470.35
797.652	370
797.832	529.74
798.012	453.97
798.192	476.49
798.373	431.44
798.553	470.35
798.733	499.02
798.913	472.4
799.093	415.06
799.274	525.65
799.454	488.78
799.634	421.2
799.814	447.82
799.994	525.65
800.174	476.49
800.354	501.07
800.534	343.38
800.714	390.48
800.894	361.81
801.074	322.9
801.254	390.48
801.434	421.2
801.614	441.68
801.794	374.1
801.974	1387.84
802.154	355.66
802.334	400.72
802.514	335.18
802.693	408.91
802.873	306.51
803.053	423.25
803.233	462.16
803.413	394.58
803.592	388.43
803.772	331.09
803.952	351.57
804.131	388.43
804.311	292.18
804.491	365.9
804.67	304.46
804.85	443.73
805.03	335.18
805.209	431.44
805.389	392.53
805.568	337.23
805.748	361.81
805.928	322.9
806.107	441.68
806.287	365.9
806.466	306.51
806.646	388.43
806.825	335.18
807.004	349.52
807.184	349.52
807.363	398.67
807.543	427.34
807.722	249.17
807.901	382.29
808.081	408.91
808.26	283.99
808.439	314.7
808.619	320.85
808.798	283.99
808.977	281.94
809.156	157.01
809.336	304.46
809.515	337.23
809.694	253.27
809.873	279.89
810.052	329.04
810.231	283.99
810.411	257.36
810.59	380.24
810.769	288.08
810.948	316.75
811.127	204.11
811.306	318.8
811.485	277.84
811.664	316.75
811.843	314.7
812.022	345.42
812.201	228.69
812.38	290.13
812.559	240.98
812.737	312.66
812.916	195.92
813.095	331.09
813.274	265.55
813.453	300.37
813.632	218.45
813.811	240.98
813.989	189.78
814.168	345.42
814.347	218.45
814.526	398.67
814.704	279.89
814.883	265.55
815.062	286.03
815.24	286.03
815.419	240.98
815.598	277.84
815.776	148.82
815.955	314.7
816.133	255.31
816.312	277.84
816.49	200.02
816.669	288.08
816.847	251.22
817.026	257.36
817.204	206.16
817.383	152.92
817.561	275.79
817.74	267.6
817.918	232.79
818.097	208.21
818.275	300.37
818.453	261.46
818.632	208.21
818.81	177.49
818.988	197.97
819.167	177.49
819.345	247.12
819.523	204.11
819.701	259.41
819.879	259.41
820.058	193.87
820.236	177.49
820.414	245.07
820.592	208.21
820.77	269.65
820.948	183.63
821.127	257.36
821.305	288.08
821.483	206.16
821.661	216.4
821.839	298.32
822.017	142.68
822.195	175.44
822.373	206.16
822.551	193.87
822.729	200.02
822.907	218.45
823.085	238.93
823.262	202.07
823.44	197.97
823.618	202.07
823.796	167.25
823.974	183.63
824.152	206.16
824.329	230.74
824.507	177.49
824.685	202.07
824.863	175.44
825.04	220.5
825.218	251.22
825.396	165.2
825.574	165.2
825.751	208.21
825.929	216.4
826.107	83.28
826.284	257.36
826.462	238.93
826.639	171.35
826.817	140.63
826.994	185.68
827.172	157.01
827.349	238.93
827.527	185.68
827.704	220.5
827.882	232.79
828.059	238.93
828.237	167.25
828.414	232.79
828.591	136.53
828.769	163.15
828.946	116.05
829.124	193.87
829.301	279.89
829.478	114
829.655	171.35
829.833	177.49
830.01	124.24
830.187	185.68
830.364	183.63
830.542	109.91
830.719	167.25
830.896	243.03
831.073	105.81
831.25	222.55
831.427	230.74
831.604	238.93
831.782	105.81
831.959	138.58
832.136	118.1
832.313	111.96
832.49	134.48
832.667	154.96
832.844	75.09
833.021	140.63
833.198	101.72
833.374	56.66
833.551	202.07
833.728	122.2
833.905	150.87
834.082	105.81
834.259	163.15
834.436	152.92
834.612	124.24
834.789	179.54
834.966	132.44
835.143	152.92
835.319	83.28
835.496	97.62
835.673	89.43
835.85	81.24
836.026	208.21
836.203	152.92
836.38	107.86
836.556	136.53
836.733	30.04
836.909	167.25
837.086	68.95
837.262	105.81
837.439	99.67
837.616	103.76
837.792	136.53
837.968	130.39
838.145	1.37
838.321	138.58
838.498	189.78
838.674	191.83
838.851	161.11
839.027	142.68
839.203	46.42
839.38	183.63
839.556	175.44
839.732	212.31
839.909	85.33
840.085	101.72
840.261	103.76
840.437	152.92
840.614	34.13
840.79	187.73
840.966	81.24
841.142	60.76
841.318	44.37
841.494	120.15
841.671	97.62
841.847	111.96
842.023	44.37
842.199	99.67
842.375	167.25
842.551	60.76
842.727	73.04
842.903	114
843.079	30.04
843.255	142.68
843.431	73.04
843.607	114
843.783	25.94
843.959	144.72
844.134	71
844.31	93.52
844.486	140.63
844.662	30.04
844.838	83.28
845.013	105.81
845.189	103.76
845.365	97.62
845.541	68.95
845.716	101.72
845.892	140.63
846.068	19.8
846.244	148.82
846.419	146.77
846.595	13.65
846.77	-17.07
846.946	91.48
847.122	77.14
847.297	77.14
847.473	93.52
847.648	107.86
847.824	109.91
847.999	-27.31
848.175	56.66
848.35	150.87
848.526	19.8
848.701	126.29
848.876	36.18
849.052	50.52
849.227	34.13
849.403	93.52
849.578	105.81
849.753	73.04
849.929	142.68
850.104	-53.93
850.279	56.66
850.454	73.04
850.63	81.24
850.805	54.61
850.98	109.91
851.155	36.18
851.33	50.52
851.505	36.18
851.681	52.56
851.856	111.96
852.031	64.85
852.206	11.61
852.381	17.75
852.556	54.61
852.731	163.15
852.906	68.95
853.081	107.86
853.256	126.29
853.431	91.48
853.606	7.51
853.781	52.56
853.956	75.09
854.131	77.14
854.305	93.52
854.48	50.52
854.655	71
854.83	54.61
855.005	85.33
855.18	116.05
855.354	85.33
855.529	167.25
855.704	7.51
855.879	128.34
856.053	19.8
856.228	87.38
856.403	25.94
856.577	136.53
856.752	-41.64
856.926	97.62
857.101	126.29
857.276	-43.69
857.45	79.19
857.625	77.14
857.799	150.87
857.974	27.99
858.148	1.37
858.323	-27.31
858.497	42.32
858.672	34.13
858.846	46.42
859.02	73.04
859.195	56.66
859.369	85.33
859.543	-8.87
859.718	30.04
859.892	-49.83
860.066	85.33
860.241	15.7
860.415	36.18
860.589	3.41
860.763	13.65
860.938	142.68
861.112	23.89
861.286	79.19
861.46	56.66
861.634	46.42
861.808	56.66
861.982	-21.16
862.157	11.61
862.331	56.66
862.505	17.75
862.679	56.66
862.853	68.95
863.027	11.61
863.201	130.39
863.375	21.85
863.549	105.81
863.722	97.62
863.896	103.76
864.07	23.89
864.244	-53.93
864.418	68.95
864.592	97.62
864.766	5.46
864.939	66.9
865.113	79.19
865.287	204.11
865.461	7.51
865.634	52.56
865.808	81.24
865.982	21.85
866.156	-35.5
866.329	-19.11
866.503	68.95
866.676	79.19
866.85	103.76
867.024	48.47
867.197	5.46
867.371	81.24
867.544	-55.98
867.718	-17.07
867.891	36.18
868.065	99.67
868.238	68.95
868.412	23.89
868.585	17.75
868.759	87.38
868.932	32.08
869.105	11.61
869.279	25.94
869.452	42.32
869.625	-12.97
869.799	103.76
869.972	1.37
870.145	23.89
870.319	68.95
870.492	-27.31
870.665	52.56
870.838	52.56
871.011	-33.45
871.185	-17.07
871.358	-17.07
871.531	111.96
871.704	36.18
871.877	60.76
872.05	48.47
872.223	1.37
872.396	71
872.569	23.89
872.742	54.61
872.915	52.56
873.088	34.13
873.261	46.42
873.434	128.34
873.607	17.75
873.78	103.76
873.953	27.99
874.126	40.28
874.299	54.61
874.471	62.8
874.644	46.42
874.817	95.57
874.99	97.62
875.163	54.61
875.335	-0.68
875.508	-12.97
875.681	42.32
875.853	21.85
876.026	38.23
876.199	107.86
876.371	54.61
876.544	9.56
876.717	-21.16
876.889	1.37
877.062	60.76
877.234	38.23
877.407	71
877.579	-62.12
877.752	40.28
877.924	23.89
878.097	23.89
878.269	62.8
878.442	56.66
878.614	81.24
878.786	34.13
878.959	19.8
879.131	36.18
879.303	-27.31
879.476	13.65
879.648	34.13
879.82	9.56
879.993	25.94
880.165	83.28
880.337	-62.12
880.509	3.41
880.681	-37.55
880.854	19.8
881.026	134.48
881.198	93.52
881.37	60.76
881.542	7.51
881.714	44.37
881.886	11.61
882.058	40.28
882.23	-10.92
882.402	30.04
882.574	46.42
882.746	-25.26
882.918	68.95
883.09	36.18
883.262	38.23
883.434	52.56
883.606	-47.79
883.778	40.28
883.95	81.24
884.122	-62.12
884.293	73.04
884.465	-62.12
884.637	81.24
884.809	50.52
884.98	-21.16
885.152	60.76
885.324	54.61
885.496	-8.87
885.667	27.99
885.839	77.14
886.011	95.57
886.182	71
886.354	36.18
886.525	-2.73
886.697	77.14
886.869	5.46
887.04	-12.97
887.212	107.86
887.383	152.92
887.555	64.85
887.726	27.99
887.897	17.75
888.069	1.37
888.24	89.43
888.412	1.37
888.583	48.47
888.754	-10.92
888.926	-33.45
889.097	11.61
889.268	-88.75
889.44	15.7
889.611	48.47
889.782	46.42
889.953	-49.83
890.125	122.2
890.296	-12.97
890.467	-8.87
890.638	32.08
890.809	30.04
890.98	71
891.151	44.37
891.323	165.2
891.494	34.13
891.665	-12.97
891.836	60.76
892.007	-6.83
892.178	38.23
892.349	34.13
892.52	36.18
892.691	42.32
892.862	-21.16
893.032	-10.92
893.203	-43.69
893.374	19.8
893.545	21.85
893.716	38.23
893.887	89.43
894.057	-43.69
894.228	38.23
894.399	-64.17
894.57	27.99
894.74	5.46
894.911	25.94
895.082	40.28
895.253	-58.03
895.423	89.43
895.594	17.75
895.764	32.08
895.935	3.41
896.106	52.56
896.276	93.52
896.447	15.7
896.617	34.13
896.788	-15.02
896.958	30.04
897.129	11.61
897.299	-12.97
897.47	52.56
897.64	54.61
897.81	-15.02
897.981	1.37
898.151	50.52
898.322	-21.16
898.492	13.65
898.662	3.41
898.832	1.37
899.003	40.28
899.173	46.42
899.343	15.7
899.513	15.7
