Data from USB4F104151__45__13-05-22-244.txt Node

Date: Fri Mar 14 13:05:22 EDT 2025
User: louis
Spectrometer: USB4F10415
Trigger mode: 4
Integration Time (sec): 4.000000E-2
Scans to average: 1
Electric dark correction enabled: true
Nonlinearity correction enabled: false
Boxcar width: 0
XAxis mode: Wavelengths
Number of Pixels in Spectrum: 3648
>>>>>Begin Spectral Data<<<<<
178.204	-244.22
178.424	-244.22
178.644	-244.22
178.864	-215.55
179.084	-172.54
179.304	-20.99
179.524	-8.7
179.744	1.54
179.964	103.93
180.184	-31.23
180.404	-2.56
180.624	-4.61
180.844	-31.23
181.064	-68.09
181.283	9.73
181.503	-14.85
181.723	67.07
181.943	-27.14
182.163	101.89
182.383	36.35
182.602	-2.56
182.822	17.92
183.042	30.21
183.262	3.58
183.482	120.32
183.701	11.78
183.921	91.65
184.141	-20.99
184.361	34.3
184.58	11.78
184.8	50.69
185.02	5.63
185.239	93.69
185.459	67.07
185.679	97.79
185.898	-4.61
186.118	110.08
186.338	30.21
186.557	67.07
186.777	54.78
186.997	-18.94
187.216	13.82
187.436	73.21
187.655	62.98
187.875	116.22
188.095	17.92
188.314	83.45
188.534	155.13
188.753	62.98
188.973	52.74
189.192	75.26
189.412	60.93
189.631	52.74
189.851	89.6
190.07	140.8
190.29	13.82
190.509	48.64
190.729	-6.66
190.948	34.3
191.168	175.61
191.387	77.31
191.607	22.02
191.826	108.03
192.045	-78.33
192.265	-12.8
192.484	44.54
192.704	62.98
192.923	-72.19
193.142	108.03
193.362	73.21
193.581	91.65
193.8	75.26
194.02	138.75
194.239	-35.33
194.458	22.02
194.678	62.98
194.897	71.17
195.116	44.54
195.335	9.73
195.555	42.5
195.774	67.07
195.993	24.06
196.212	17.92
196.432	26.11
196.651	-27.14
196.87	-25.09
197.089	50.69
197.308	153.09
197.528	103.93
197.747	-33.28
197.966	-6.66
198.185	108.03
198.404	-2.56
198.623	24.06
198.842	71.17
199.062	81.41
199.281	112.13
199.5	-4.61
199.719	30.21
199.938	50.69
200.157	28.16
200.376	44.54
200.595	17.92
200.814	103.93
201.033	36.35
201.252	58.88
201.471	85.5
201.69	101.89
201.909	128.51
202.128	44.54
202.347	-18.94
202.566	9.73
202.785	38.4
203.004	-18.94
203.223	69.12
203.442	3.58
203.661	36.35
203.879	44.54
204.098	56.83
204.317	19.97
204.536	34.3
204.755	11.78
204.974	34.3
205.193	99.84
205.411	116.22
205.63	132.61
205.849	52.74
206.068	-20.99
206.287	52.74
206.505	89.6
206.724	7.68
206.943	22.02
207.162	7.68
207.381	40.45
207.599	67.07
207.818	-0.51
208.037	24.06
208.255	40.45
208.474	75.26
208.693	65.02
208.911	17.92
209.13	1.54
209.349	22.02
209.567	36.35
209.786	79.36
210.005	62.98
210.223	50.69
210.442	-43.52
210.661	83.45
210.879	95.74
211.098	-31.23
211.316	146.94
211.535	95.74
211.753	1.54
211.972	11.78
212.191	15.87
212.409	-6.66
212.628	71.17
212.846	81.41
213.065	30.21
213.283	81.41
213.502	65.02
213.72	3.58
213.938	-16.9
214.157	65.02
214.375	46.59
214.594	50.69
214.812	34.3
215.031	5.63
215.249	17.92
215.467	30.21
215.686	38.4
215.904	93.69
216.122	34.3
216.341	151.04
216.559	15.87
216.778	69.12
216.996	67.07
217.214	-8.7
217.432	71.17
217.651	-6.66
217.869	38.4
218.087	-37.38
218.306	-18.94
218.524	52.74
218.742	-4.61
218.96	38.4
219.179	56.83
219.397	44.54
219.615	97.79
219.833	46.59
220.051	-12.8
220.27	122.37
220.488	40.45
220.706	124.41
220.924	22.02
221.142	67.07
221.36	-4.61
221.578	11.78
221.796	11.78
222.015	40.45
222.233	26.11
222.451	108.03
222.669	9.73
222.887	91.65
223.105	101.89
223.323	-47.62
223.541	-23.04
223.759	54.78
223.977	40.45
224.195	99.84
224.413	44.54
224.631	120.32
224.849	15.87
225.067	101.89
225.285	11.78
225.503	19.97
225.721	-4.61
225.939	11.78
226.157	91.65
226.375	194.05
226.592	28.16
226.81	52.74
227.028	93.69
227.246	87.55
227.464	42.5
227.682	38.4
227.9	132.61
228.117	93.69
228.335	-23.04
228.553	56.83
228.771	5.63
228.989	67.07
229.206	46.59
229.424	-31.23
229.642	-37.38
229.86	-51.71
230.077	67.07
230.295	44.54
230.513	-6.66
230.731	73.21
230.948	52.74
231.166	142.85
231.384	46.59
231.601	-23.04
231.819	103.93
232.037	30.21
232.254	-4.61
232.472	-4.61
232.689	-20.99
232.907	67.07
233.125	13.82
233.342	38.4
233.56	-0.51
233.777	99.84
233.995	83.45
234.213	34.3
234.43	95.74
234.648	75.26
234.865	1.54
235.083	7.68
235.3	-4.61
235.518	97.79
235.735	95.74
235.953	48.64
236.17	54.78
236.388	151.04
236.605	56.83
236.822	67.07
237.04	-23.04
237.257	17.92
237.475	-29.18
237.692	60.93
237.909	-0.51
238.127	32.26
238.344	83.45
238.562	36.35
238.779	-39.42
238.996	-29.18
239.214	17.92
239.431	36.35
239.648	-43.52
239.865	77.31
240.083	11.78
240.3	5.63
240.517	-2.56
240.735	58.88
240.952	58.88
241.169	17.92
241.386	26.11
241.603	15.87
241.821	54.78
242.038	52.74
242.255	130.56
242.472	7.68
242.689	71.17
242.907	58.88
243.124	116.22
243.341	75.26
243.558	11.78
243.775	48.64
243.992	1.54
244.209	65.02
244.426	114.17
244.643	118.27
244.86	38.4
245.078	46.59
245.295	79.36
245.512	52.74
245.729	11.78
245.946	-2.56
246.163	75.26
246.38	3.58
246.597	34.3
246.814	103.93
247.031	60.93
247.248	93.69
247.464	-12.8
247.681	83.45
247.898	67.07
248.115	99.84
248.332	-27.14
248.549	126.46
248.766	116.22
248.983	5.63
249.2	62.98
249.417	101.89
249.633	32.26
249.85	108.03
250.067	67.07
250.284	140.8
250.501	44.54
250.717	5.63
250.934	34.3
251.151	-70.14
251.368	116.22
251.585	7.68
251.801	30.21
252.018	58.88
252.235	26.11
252.451	-12.8
252.668	77.31
252.885	75.26
253.102	69.12
253.318	11.78
253.535	52.74
253.752	19.97
253.968	58.88
254.185	-37.38
254.401	142.85
254.618	69.12
254.835	34.3
255.051	105.98
255.268	89.6
255.484	140.8
255.701	26.11
255.917	134.65
256.134	-39.42
256.351	73.21
256.567	19.97
256.784	40.45
257	-18.94
257.217	38.4
257.433	52.74
257.65	69.12
257.866	67.07
258.082	-25.09
258.299	46.59
258.515	151.04
258.732	17.92
258.948	28.16
259.165	50.69
259.381	34.3
259.597	56.83
259.814	85.5
260.03	103.93
260.246	34.3
260.463	30.21
260.679	93.69
260.895	101.89
261.112	91.65
261.328	40.45
261.544	1.54
261.761	69.12
261.977	118.27
262.193	34.3
262.409	126.46
262.626	60.93
262.842	134.65
263.058	56.83
263.274	67.07
263.49	9.73
263.707	48.64
263.923	-16.9
264.139	54.78
264.355	26.11
264.571	44.54
264.787	13.82
265.004	48.64
265.22	54.78
265.436	46.59
265.652	58.88
265.868	38.4
266.084	-8.7
266.3	42.5
266.516	9.73
266.732	108.03
266.948	91.65
267.164	56.83
267.38	19.97
267.596	75.26
267.812	120.32
268.028	34.3
268.244	101.89
268.46	50.69
268.676	3.58
268.892	44.54
269.108	19.97
269.324	28.16
269.54	7.68
269.756	65.02
269.972	77.31
270.188	24.06
270.403	-10.75
270.619	79.36
270.835	99.84
271.051	62.98
271.267	83.45
271.483	-23.04
271.698	62.98
271.914	79.36
272.13	-14.85
272.346	44.54
272.562	22.02
272.777	85.5
272.993	-37.38
273.209	52.74
273.425	67.07
273.64	-8.7
273.856	22.02
274.072	24.06
274.287	30.21
274.503	40.45
274.719	40.45
274.934	87.55
275.15	-39.42
275.366	67.07
275.581	-0.51
275.797	34.3
276.012	97.79
276.228	-4.61
276.444	65.02
276.659	161.28
276.875	32.26
277.09	38.4
277.306	-2.56
277.521	46.59
277.737	62.98
277.952	48.64
278.168	48.64
278.383	28.16
278.599	83.45
278.814	75.26
279.03	-47.62
279.245	122.37
279.461	44.54
279.676	38.4
279.892	-6.66
280.107	34.3
280.322	75.26
280.538	105.98
280.753	13.82
280.969	93.69
281.184	67.07
281.399	140.8
281.615	48.64
281.83	69.12
282.045	-64
282.26	-14.85
282.476	77.31
282.691	38.4
282.906	22.02
283.122	87.55
283.337	65.02
283.552	85.5
283.767	95.74
283.983	99.84
284.198	42.5
284.413	34.3
284.628	34.3
284.843	44.54
285.058	7.68
285.274	28.16
285.489	13.82
285.704	136.7
285.919	34.3
286.134	56.83
286.349	1.54
286.564	46.59
286.779	118.27
286.995	114.17
287.21	48.64
287.425	116.22
287.64	-10.75
287.855	13.82
288.07	-14.85
288.285	77.31
288.5	105.98
288.715	81.41
288.93	52.74
289.145	11.78
289.36	87.55
289.575	19.97
289.79	87.55
290.004	-6.66
290.219	83.45
290.434	58.88
290.649	62.98
290.864	-10.75
291.079	40.45
291.294	40.45
291.509	79.36
291.724	-41.47
291.938	13.82
292.153	42.5
292.368	81.41
292.583	101.89
292.798	46.59
293.012	93.69
293.227	73.21
293.442	3.58
293.657	85.5
293.871	89.6
294.086	36.35
294.301	22.02
294.516	44.54
294.73	58.88
294.945	22.02
295.16	42.5
295.374	83.45
295.589	89.6
295.804	-23.04
296.018	30.21
296.233	126.46
296.447	67.07
296.662	9.73
296.877	81.41
297.091	71.17
297.306	52.74
297.52	60.93
297.735	124.41
297.949	26.11
298.164	-25.09
298.378	1.54
298.593	24.06
298.807	28.16
299.022	122.37
299.236	56.83
299.451	-6.66
299.665	28.16
299.88	-2.56
300.094	83.45
300.309	9.73
300.523	42.5
300.737	-27.14
300.952	46.59
301.166	93.69
301.381	69.12
301.595	5.63
301.809	-18.94
302.024	-6.66
302.238	30.21
302.452	83.45
302.667	89.6
302.881	95.74
303.095	95.74
303.309	58.88
303.524	-8.7
303.738	79.36
303.952	32.26
304.166	169.47
304.381	-29.18
304.595	132.61
304.809	9.73
305.023	34.3
305.237	-10.75
305.452	46.59
305.666	62.98
305.88	7.68
306.094	11.78
306.308	50.69
306.522	89.6
306.736	58.88
306.95	83.45
307.164	93.69
307.379	11.78
307.593	118.27
307.807	69.12
308.021	132.61
308.235	48.64
308.449	17.92
308.663	-8.7
308.877	175.61
309.091	38.4
309.305	30.21
309.519	93.69
309.733	83.45
309.947	50.69
310.161	56.83
310.374	-6.66
310.588	83.45
310.802	22.02
311.016	54.78
311.23	19.97
311.444	58.88
311.658	54.78
311.872	151.04
312.085	38.4
312.299	114.17
312.513	177.66
312.727	-10.75
312.941	-14.85
313.154	5.63
313.368	50.69
313.582	46.59
313.796	62.98
314.009	83.45
314.223	28.16
314.437	40.45
314.651	22.02
314.864	26.11
315.078	24.06
315.292	28.16
315.505	34.3
315.719	15.87
315.933	26.11
316.146	1.54
316.36	-16.9
316.573	89.6
316.787	40.45
317.001	83.45
317.214	-4.61
317.428	13.82
317.641	87.55
317.855	-12.8
318.068	-14.85
318.282	-27.14
318.495	181.76
318.709	54.78
318.922	13.82
319.136	83.45
319.349	75.26
319.563	11.78
319.776	83.45
319.99	-76.29
320.203	85.5
320.417	38.4
320.63	67.07
320.843	54.78
321.057	-6.66
321.27	54.78
321.483	71.17
321.697	161.28
321.91	42.5
322.124	40.45
322.337	122.37
322.55	22.02
322.763	77.31
322.977	83.45
323.19	-20.99
323.403	73.21
323.617	19.97
323.83	71.17
324.043	52.74
324.256	44.54
324.469	36.35
324.683	77.31
324.896	44.54
325.109	75.26
325.322	-20.99
325.535	46.59
325.748	9.73
325.962	65.02
326.175	140.8
326.388	73.21
326.601	58.88
326.814	67.07
327.027	28.16
327.24	77.31
327.453	-51.71
327.666	62.98
327.879	1.54
328.092	22.02
328.305	36.35
328.518	48.64
328.731	42.5
328.944	7.68
329.157	110.08
329.37	3.58
329.583	124.41
329.796	93.69
330.009	-6.66
330.222	103.93
330.435	116.22
330.648	116.22
330.861	71.17
331.073	58.88
331.286	28.16
331.499	75.26
331.712	-0.51
331.925	54.78
332.138	40.45
332.35	95.74
332.563	-23.04
332.776	13.82
332.989	71.17
333.202	60.93
333.414	34.3
333.627	99.84
333.84	58.88
334.053	85.5
334.265	1.54
334.478	28.16
334.691	56.83
334.903	26.11
335.116	-78.33
335.329	-8.7
335.541	62.98
335.754	85.5
335.966	38.4
336.179	71.17
336.392	40.45
336.604	132.61
336.817	136.7
337.029	116.22
337.242	28.16
337.454	50.69
337.667	-47.62
337.88	58.88
338.092	77.31
338.305	155.13
338.517	48.64
338.729	116.22
338.942	83.45
339.154	38.4
339.367	-29.18
339.579	79.36
339.792	71.17
340.004	54.78
340.217	46.59
340.429	44.54
340.641	62.98
340.854	73.21
341.066	67.07
341.278	99.84
341.491	159.23
341.703	60.93
341.915	-4.61
342.128	110.08
342.34	67.07
342.552	36.35
342.764	65.02
342.977	38.4
343.189	44.54
343.401	36.35
343.613	-66.05
343.826	103.93
344.038	-43.52
344.25	28.16
344.462	-2.56
344.674	77.31
344.886	54.78
345.099	67.07
345.311	108.03
345.523	91.65
345.735	-10.75
345.947	116.22
346.159	38.4
346.371	50.69
346.583	58.88
346.795	67.07
347.007	38.4
347.219	13.82
347.431	28.16
347.643	91.65
347.855	93.69
348.067	77.31
348.279	-51.71
348.491	-33.28
348.703	56.83
348.915	44.54
349.127	71.17
349.339	132.61
349.551	79.36
349.763	155.13
349.975	1.54
350.187	89.6
350.399	108.03
350.61	108.03
350.822	1.54
351.034	75.26
351.246	89.6
351.458	99.84
351.669	36.35
351.881	62.98
352.093	50.69
352.305	34.3
352.517	91.65
352.728	87.55
352.94	30.21
353.152	120.32
353.363	120.32
353.575	87.55
353.787	69.12
353.999	11.78
354.21	110.08
354.422	69.12
354.633	-2.56
354.845	58.88
355.057	101.89
355.268	48.64
355.48	69.12
355.692	22.02
355.903	54.78
356.115	-8.7
356.326	5.63
356.538	81.41
356.749	38.4
356.961	118.27
357.172	32.26
357.384	1.54
357.595	130.56
357.807	42.5
358.018	48.64
358.23	60.93
358.441	159.23
358.653	69.12
358.864	58.88
359.075	9.73
359.287	71.17
359.498	110.08
359.709	13.82
359.921	44.54
360.132	19.97
360.344	93.69
360.555	-43.52
360.766	110.08
360.977	46.59
361.189	134.65
361.4	13.82
361.611	48.64
361.823	71.17
362.034	62.98
362.245	-37.38
362.456	28.16
362.667	69.12
362.879	67.07
363.09	116.22
363.301	103.93
363.512	34.3
363.723	19.97
363.935	5.63
364.146	105.98
364.357	56.83
364.568	65.02
364.779	-23.04
364.99	67.07
365.201	-18.94
365.412	153.09
365.623	48.64
365.834	44.54
366.045	11.78
366.256	93.69
366.467	126.46
366.678	-4.61
366.889	69.12
367.1	3.58
367.311	52.74
367.522	-14.85
367.733	83.45
367.944	52.74
368.155	-2.56
368.366	148.99
368.577	52.74
368.788	40.45
368.999	32.26
369.209	-27.14
369.42	118.27
369.631	175.61
369.842	38.4
370.053	11.78
370.264	52.74
370.474	40.45
370.685	30.21
370.896	7.68
371.107	93.69
371.317	83.45
371.528	58.88
371.739	136.7
371.95	79.36
372.16	26.11
372.371	-82.43
372.582	-6.66
372.792	85.5
373.003	17.92
373.214	50.69
373.424	9.73
373.635	-25.09
373.846	128.51
374.056	58.88
374.267	42.5
374.477	136.7
374.688	9.73
374.898	13.82
375.109	75.26
375.319	54.78
375.53	97.79
375.74	54.78
375.951	58.88
376.161	-2.56
376.372	148.99
376.582	60.93
376.793	40.45
377.003	91.65
377.214	79.36
377.424	28.16
377.635	32.26
377.845	67.07
378.055	69.12
378.266	48.64
378.476	28.16
378.686	140.8
378.897	73.21
379.107	91.65
379.317	46.59
379.528	95.74
379.738	126.46
379.948	69.12
380.158	48.64
380.369	19.97
380.579	101.89
380.789	32.26
380.999	134.65
381.21	97.79
381.42	214.52
381.63	103.93
381.84	87.55
382.05	73.21
382.261	69.12
382.471	91.65
382.681	9.73
382.891	103.93
383.101	56.83
383.311	50.69
383.521	-4.61
383.731	52.74
383.941	163.33
384.151	85.5
384.361	56.83
384.571	95.74
384.781	103.93
384.991	157.18
385.201	171.52
385.411	112.13
385.621	95.74
385.831	-2.56
386.041	-4.61
386.251	44.54
386.461	116.22
386.671	13.82
386.881	124.41
387.091	85.5
387.301	110.08
387.511	48.64
387.72	105.98
387.93	114.17
388.14	-6.66
388.35	142.85
388.56	132.61
388.769	120.32
388.979	62.98
389.189	69.12
389.399	34.3
389.609	46.59
389.818	140.8
390.028	116.22
390.238	24.06
390.447	69.12
390.657	148.99
390.867	-6.66
391.076	87.55
391.286	91.65
391.496	38.4
391.705	99.84
391.915	89.6
392.125	71.17
392.334	26.11
392.544	138.75
392.753	120.32
392.963	67.07
393.172	112.13
393.382	97.79
393.591	138.75
393.801	60.93
394.01	159.23
394.22	116.22
394.429	67.07
394.639	134.65
394.848	108.03
395.058	79.36
395.267	116.22
395.477	167.42
395.686	34.3
395.895	75.26
396.105	87.55
396.314	83.45
396.524	79.36
396.733	40.45
396.942	124.41
397.152	116.22
397.361	93.69
397.57	62.98
397.78	67.07
397.989	91.65
398.198	226.81
398.407	93.69
398.617	73.21
398.826	58.88
399.035	126.46
399.244	58.88
399.453	142.85
399.663	103.93
399.872	134.65
400.081	79.36
400.29	144.89
400.499	15.87
400.708	79.36
400.917	151.04
401.127	138.75
401.336	99.84
401.545	144.89
401.754	226.81
401.963	202.24
402.172	140.8
402.381	124.41
402.59	42.5
402.799	151.04
403.008	124.41
403.217	136.7
403.426	95.74
403.635	134.65
403.844	142.85
404.053	124.41
404.262	60.93
404.471	142.85
404.68	140.8
404.888	200.19
405.097	144.89
405.306	161.28
405.515	146.94
405.724	222.72
405.933	247.29
406.142	175.61
406.35	214.52
406.559	157.18
406.768	185.85
406.977	237.05
407.185	95.74
407.394	171.52
407.603	157.18
407.812	210.43
408.02	257.53
408.229	169.47
408.438	280.06
408.646	157.18
408.855	269.82
409.064	251.39
409.272	202.24
409.481	222.72
409.69	222.72
409.898	247.29
410.107	267.77
410.315	304.64
410.524	273.92
410.733	361.98
410.941	376.31
411.15	284.16
411.358	351.74
411.567	402.94
411.775	366.07
411.984	355.83
412.192	409.08
412.401	376.31
412.609	513.53
412.818	423.42
413.026	495.1
413.234	468.47
413.443	454.14
413.651	454.14
413.86	491
414.068	611.83
414.276	540.15
414.485	574.97
414.693	605.69
414.901	683.51
415.11	542.2
415.318	525.82
415.526	622.07
415.734	636.41
415.943	699.89
416.151	693.75
416.359	706.04
416.567	820.72
416.776	790
416.984	912.88
417.192	865.78
417.4	822.77
417.608	828.92
417.817	933.36
418.025	976.37
418.233	1019.38
418.441	1013.23
418.649	935.41
418.857	1084.91
419.065	1123.82
419.273	1127.92
419.481	1189.36
419.689	1293.8
419.897	1271.28
420.105	1267.18
420.313	1312.24
420.521	1431.02
420.729	1385.96
420.937	1414.63
421.145	1611.24
421.353	1531.37
421.561	1732.07
421.769	1693.16
421.977	1781.22
422.185	1783.27
422.393	1832.42
422.601	2018.79
422.809	1908.19
423.017	1945.06
423.224	2016.74
423.432	2229.73
423.64	2205.15
423.848	2420.19
424.056	2108.9
424.263	2379.23
424.471	2450.91
424.679	2434.52
424.887	2573.78
425.094	2622.94
425.302	2850.26
425.51	2704.85
425.718	2844.12
425.925	2878.93
426.133	3077.59
426.341	3188.18
426.548	3335.63
426.756	3399.12
426.964	3392.97
427.171	3577.29
427.379	3648.97
427.586	3667.4
427.794	3986.88
428.001	4173.25
428.209	4208.06
428.417	4165.06
428.624	4576.7
428.832	4529.59
429.039	4343.23
429.247	4543.93
429.454	4898.23
429.662	5178.8
429.869	4765.11
430.076	5311.92
430.284	5186.99
430.491	5385.65
430.699	5545.39
430.906	5635.5
431.114	5610.92
431.321	5844.39
431.528	6135.2
431.736	6358.43
431.943	6448.54
432.15	6469.02
432.358	6583.71
432.565	6718.87
432.772	6765.98
432.979	7259.54
433.187	7292.3
433.394	7318.93
433.601	7785.87
433.808	7888.26
434.016	7779.72
434.223	8093.06
434.43	8719.74
434.637	8463.74
434.844	9069.94
435.052	9147.76
435.259	9213.3
435.466	9026.93
435.673	9244.02
435.88	9868.65
436.087	10122.6
436.294	10452.32
436.501	10018.15
436.708	10118.5
436.915	10790.24
437.122	11068.76
437.329	10906.97
437.537	11396.43
437.743	11461.97
437.95	11504.98
438.157	11945.29
438.364	12647.74
438.571	12354.88
438.778	12383.56
438.985	13583.66
439.192	13088.06
439.399	13544.75
439.606	13288.76
439.813	13993.26
440.02	14871.84
440.227	14757.15
440.433	14685.47
440.64	14771.49
440.847	14800.16
441.054	15361.3
441.261	15942.92
441.467	16055.56
441.674	16307.46
441.881	17050.88
442.088	16903.42
442.294	16694.53
442.501	16985.34
442.708	17599.73
442.914	18418.92
443.121	19117.28
443.328	18568.42
443.534	19965.14
443.741	19131.61
443.948	18881.76
444.154	20438.22
444.361	20374.73
444.568	20270.28
444.774	20481.22
444.981	20733.12
445.187	21335.23
445.394	22201.52
445.6	22217.9
445.807	24077.46
446.013	22983.84
446.22	23319.71
446.426	24507.53
446.633	24302.73
446.839	25214.08
447.046	24501.39
447.252	25748.6
447.459	25973.88
447.665	25545.85
447.871	26815.59
448.078	27802.71
448.284	27173.99
448.491	27382.88
448.697	28740.68
448.903	29160.52
449.11	29123.65
449.316	28423.25
449.522	29316.16
449.728	30348.34
449.935	30362.67
450.141	30059.57
450.347	30860.33
450.553	30184.5
450.76	30352.43
450.966	31319.07
451.172	31104.04
451.378	32060.44
451.584	31155.24
451.791	32267.28
451.997	32222.23
452.203	32433.17
452.409	32601.1
452.615	32343.06
452.821	31134.76
453.027	30960.68
453.233	32453.65
453.44	31265.83
453.646	31763.48
453.852	31818.78
454.058	32744.46
454.264	31048.74
454.47	31749.15
454.676	31138.85
454.882	32414.74
455.088	29570.11
455.294	30088.24
455.5	30913.58
455.705	31052.84
455.911	29910.07
456.117	28687.43
456.323	28628.04
456.529	27313.25
456.735	28544.08
456.941	27743.32
457.147	27323.49
457.352	26459.24
457.558	26217.58
457.764	26172.53
457.97	25724.02
458.176	25040
458.381	25490.56
458.587	24077.46
458.793	24048.79
458.999	22713.51
459.204	24198.29
459.41	23680.15
459.616	22002.86
459.821	22381.74
460.027	21947.57
460.233	21548.22
460.438	20372.68
460.644	20722.88
460.85	19981.52
461.055	19481.81
461.261	19553.49
461.466	17814.77
461.672	17353.98
461.878	18656.48
462.083	17583.35
462.289	17087.74
462.494	17005.82
462.7	16139.53
462.905	15949.07
463.111	16477.44
463.316	16211.21
463.522	15994.12
463.727	15889.68
463.932	15852.81
464.138	15746.32
464.343	15949.07
464.549	15416.6
464.754	15967.5
464.959	15824.14
465.165	15635.73
465.37	15054.11
465.575	14640.42
465.781	15234.33
465.986	15330.58
466.191	14603.55
466.397	14290.21
466.602	13585.71
466.807	14355.75
467.012	14187.82
467.218	14081.32
467.423	13952.3
467.628	14089.51
467.833	14677.28
468.038	14140.71
468.244	13471.03
468.449	14267.69
468.654	13917.48
468.859	13591.86
469.064	13468.98
469.269	13028.67
469.474	13266.23
469.679	13403.44
469.885	13073.72
470.09	13282.61
470.295	13299
470.5	12846.4
470.705	12981.56
470.91	12864.83
471.115	12657.98
471.32	12688.7
471.525	12744
471.73	12447.04
471.935	12240.2
472.139	11662.67
472.344	11922.76
472.549	12074.31
472.754	11840.84
472.959	11519.31
473.164	11283.8
473.369	11343.19
473.574	11705.68
473.778	11621.71
473.983	11271.51
474.188	11081.05
474.393	10806.62
474.598	10853.72
474.802	10714.46
475.007	10794.33
475.212	10650.97
475.417	10311.01
475.621	10351.97
475.826	10282.34
476.031	10233.19
476.235	9934.18
476.44	9932.14
476.645	9938.28
476.849	9782.63
477.054	9940.33
477.259	9598.32
477.463	9854.31
477.668	9475.44
477.872	9555.31
478.077	9547.12
478.282	9201.01
478.486	9237.88
478.691	8973.69
478.895	8924.54
479.1	8942.97
479.304	8967.54
479.509	8734.07
479.713	8887.67
479.918	8734.07
480.122	8285.57
480.326	8711.55
480.531	8732.03
480.735	8492.41
480.94	8377.73
481.144	8842.62
481.348	8349.06
481.553	8351.1
481.757	8209.79
481.961	8363.39
482.166	8527.23
482.37	8439.17
482.574	8338.82
482.778	8263.04
482.983	8367.49
483.187	8209.79
483.391	8377.73
483.595	8142.21
483.8	8230.27
484.004	8091.01
484.208	8439.17
484.412	8371.58
484.616	8295.81
484.821	8424.83
485.025	8076.68
485.229	8367.49
485.433	8119.68
485.637	8279.43
485.841	7927.18
486.045	8129.92
486.249	8338.82
486.453	8121.73
486.657	8156.55
486.861	8306.05
487.065	8082.82
487.269	8242.56
487.473	7857.54
487.677	8256.9
487.881	8426.88
488.085	8297.86
488.289	8433.02
488.493	8197.51
488.697	8242.56
488.901	8342.91
489.105	8328.58
489.309	8328.58
489.512	8482.17
489.716	8369.54
489.92	8402.3
490.124	8258.95
490.328	8539.52
490.531	8570.24
490.735	8443.26
490.939	8424.83
491.143	8594.81
491.346	8459.65
491.55	8615.29
491.754	8486.27
491.958	8672.64
492.161	8549.76
492.365	8824.19
492.569	8553.85
492.772	8707.45
492.976	8490.37
493.18	8848.76
493.383	8846.71
493.587	8856.95
493.79	9067.89
493.994	8926.58
494.197	9049.46
494.401	9106.81
494.605	9205.11
494.808	9158
495.012	9377.14
495.215	9403.76
495.419	9358.71
495.622	9366.9
495.825	9414
496.029	9719.15
496.232	9655.66
496.436	9592.17
496.639	9995.62
496.843	10028.39
497.046	10128.74
497.249	10091.88
497.453	10159.46
497.656	10251.62
497.859	10304.87
498.063	10454.37
498.266	10665.31
498.469	10513.76
498.673	10675.55
498.876	11070.81
499.079	10798.43
499.282	10974.55
499.485	11269.46
499.689	11130.2
499.892	11439.44
500.095	11537.74
500.298	11781.45
500.501	11476.3
500.705	11928.91
500.908	11933
501.111	12311.88
501.314	12252.49
501.517	12662.08
501.72	12342.6
501.923	12608.83
502.126	12936.51
502.329	13106.49
502.532	13129.02
502.735	13174.07
502.938	13423.92
503.141	13339.96
503.344	13649.2
503.547	13968.68
503.75	13780.27
503.953	14132.52
504.156	14275.88
504.359	14359.84
504.562	14548.26
504.765	14611.75
504.968	14933.28
505.17	15191.32
505.373	15185.18
505.576	15385.88
505.779	15279.38
505.982	15635.73
506.185	16053.52
506.387	16166.15
506.59	16069.9
506.793	16538.88
506.996	16356.61
507.198	16930.05
507.401	16739.58
507.604	16790.78
507.807	17298.68
508.009	17368.31
508.212	17298.68
508.415	17671.41
508.617	17704.18
508.82	17982.7
509.022	17968.37
509.225	18519.27
509.428	18494.69
509.63	18691.3
509.833	18818.27
510.035	19256.54
510.238	19289.31
510.44	19317.98
510.643	19686.61
510.845	19649.75
511.048	19854.55
511.25	20239.56
511.453	20354.25
511.655	20978.88
511.858	20485.32
512.06	20794.56
512.262	21064.89
512.465	21130.43
512.667	21585.08
512.87	21687.48
513.072	21458.1
513.274	22140.08
513.477	22547.62
513.679	22516.9
513.881	22711.46
514.084	22961.31
514.286	23020.7
514.488	23092.38
514.69	23954.58
514.893	23950.48
515.095	23970.96
515.297	24212.62
515.499	24384.65
515.701	24571.02
515.904	25021.57
516.106	25179.26
516.308	25382.01
516.51	25212.03
516.712	25496.7
516.914	25906.29
517.116	26330.22
517.318	26328.17
517.52	26635.37
517.722	26596.46
517.925	27225.18
518.127	27464.8
518.329	27536.48
518.531	27255.9
518.733	27923.54
518.935	28218.45
519.136	28525.64
519.338	28408.91
519.54	28800.07
519.742	29101.12
519.944	29322.3
520.146	29488.19
520.348	30012.47
520.55	29629.5
520.752	29850.68
520.954	30465.07
521.155	30440.5
521.357	30911.53
521.559	30893.1
521.761	31446.05
521.963	31380.51
522.164	31937.56
522.366	31890.46
522.568	32171.03
522.77	32439.31
522.971	32853
523.173	32523.28
523.375	32791.56
523.576	33000.46
523.778	32744.46
523.98	33336.32
524.181	33821.69
524.383	33666.05
524.584	34067.45
524.786	34042.87
524.988	34063.35
525.189	34599.92
525.391	34597.87
525.592	35025.9
525.794	35116.01
525.995	35193.83
526.197	35202.02
526.398	35224.55
526.6	35451.88
526.801	35580.9
527.003	35728.35
527.204	35675.1
527.406	36539.35
527.607	36135.9
527.808	36516.82
528.01	36283.35
528.211	36479.96
528.412	37211.08
528.614	36682.7
528.815	36826.06
529.016	37608.39
529.218	37024.72
529.419	37014.48
529.62	37037
529.822	36787.15
530.023	37444.55
530.224	37577.67
530.425	37518.28
530.626	37485.51
530.828	37399.49
531.029	38452.15
531.23	37483.46
531.431	37563.33
531.632	37886.91
531.833	38095.8
532.035	38073.28
532.236	38103.99
532.437	38034.36
532.638	38042.56
532.839	38777.78
533.04	38474.68
533.241	38079.42
533.442	38800.3
533.643	38611.89
533.844	38689.71
534.045	38546.36
534.246	38327.22
534.447	38753.2
534.648	38577.08
534.849	38843.31
535.05	38290.36
535.251	38572.98
535.451	38663.09
535.652	38751.15
535.853	38753.2
536.054	38958
536.255	38767.54
536.456	38644.66
536.657	38882.22
536.857	38579.12
537.058	38708.15
537.259	38966.19
537.46	38486.96
537.66	38642.61
537.861	38638.51
538.062	38517.68
538.263	38745.01
538.463	38886.32
538.664	38638.51
538.865	38714.29
539.065	39021.48
539.266	38755.25
539.466	38761.39
539.667	38298.55
539.868	39386.02
540.068	38833.07
540.269	38769.58
540.469	38867.89
540.67	38808.5
540.87	38710.19
541.071	38511.54
541.271	39044.01
541.472	38626.23
541.672	38597.56
541.873	38331.32
542.073	38286.26
542.274	38775.73
542.474	38663.09
542.675	38540.21
542.875	38810.54
543.075	38755.25
543.276	37979.07
543.476	39033.77
543.676	38245.3
543.877	38591.41
544.077	38816.69
544.277	38718.39
544.478	38273.98
544.678	38583.22
544.878	38362.04
545.078	38554.55
545.279	38198.2
545.479	38388.66
545.679	38478.77
545.879	38513.59
546.079	38417.33
546.28	38525.88
546.48	38040.51
546.68	38446.01
546.88	38566.84
547.08	38222.78
547.28	38552.5
547.48	38251.45
547.68	38249.4
547.88	38280.12
548.081	38169.53
548.281	38335.42
548.481	38253.5
548.681	38290.36
548.881	38521.78
549.081	38484.92
549.28	38181.82
549.48	38407.09
549.68	38505.4
549.88	39136.17
550.08	38190.01
550.28	38337.46
550.48	37911.49
550.68	38370.23
550.88	37833.66
551.08	38060.99
551.279	38185.91
551.479	37974.97
551.679	38280.12
551.879	37845.95
552.079	38237.11
552.278	38208.44
552.478	38167.48
552.678	37974.97
552.878	38273.98
553.077	37970.88
553.277	37426.12
553.477	38054.84
553.676	37895.1
553.876	37893.05
554.076	37790.66
554.275	37704.64
554.475	37129.16
554.674	37938.11
554.874	37551.04
555.074	37622.72
555.273	38005.69
555.473	38050.75
555.672	37755.84
555.872	37442.5
556.071	37843.9
556.271	37843.9
556.47	37428.16
556.67	37200.84
556.869	37381.06
557.068	37438.4
557.268	37573.57
557.467	37061.58
557.667	37350.34
557.866	37290.95
558.065	36768.72
558.265	36883.41
558.464	36813.77
558.663	37172.17
558.863	36328.41
559.062	37342.15
559.261	36930.51
559.461	36848.59
559.66	36592.59
559.859	36819.92
560.058	36328.41
560.258	36565.97
560.457	36207.58
560.656	36578.26
560.855	36383.7
561.054	36412.37
561.253	35953.63
561.453	36230.1
561.652	36318.17
561.851	36512.72
562.05	36144.09
562.249	35853.28
562.448	36096.99
562.647	36338.65
562.846	35992.54
563.045	35840.99
563.244	35310.57
563.443	35791.84
563.642	34976.75
563.841	35558.37
564.04	35320.81
564.239	35748.83
564.438	34964.46
564.637	35296.23
564.836	35130.34
565.035	34694.13
565.234	34911.21
565.432	35122.15
565.631	34943.98
565.83	34843.63
566.029	34477.04
566.228	34354.16
566.427	34460.66
566.625	34425.84
566.824	33713.15
567.023	34452.47
567.222	33952.76
567.42	34249.72
567.619	34020.34
567.818	33997.82
568.016	33776.64
568.215	34096.12
568.414	33633.28
568.612	33547.26
568.811	33356.8
569.01	33805.31
569.208	33123.33
569.407	33436.67
569.605	33258.5
569.804	33104.9
570.002	32674.83
570.201	32953.35
570.4	33072.14
570.598	32566.29
570.797	32801.8
570.995	32658.45
571.193	32547.86
571.392	32853
571.59	32554
571.789	32615.44
571.987	32298
572.186	32064.53
572.384	31986.71
572.582	32220.18
572.781	31917.08
572.979	31654.94
573.177	31726.62
573.376	31896.6
573.574	31683.61
573.772	31892.51
573.971	31579.17
574.169	31511.58
574.367	31308.83
574.565	31474.72
574.763	31124.52
574.962	31126.57
575.16	30702.64
575.358	30727.21
575.556	30845.99
575.754	31007.78
575.952	30377.01
576.151	30956.58
576.349	30338.1
576.547	30176.31
576.745	30184.5
576.943	30520.37
577.141	29965.37
577.339	30397.49
577.537	30161.97
577.735	29811.77
577.933	29615.16
578.131	30000.18
578.329	29840.44
578.527	29723.71
578.725	29822.01
578.923	29729.85
579.121	29365.31
579.319	29371.46
579.516	29379.65
579.714	29606.97
579.912	29350.98
580.11	28757.07
580.308	28970.05
580.506	28925
580.704	28580.94
580.901	28707.91
581.099	29307.97
581.297	28367.95
581.495	28355.66
581.692	28447.82
581.89	28378.19
582.088	28695.63
582.285	28263.5
582.483	28269.65
582.681	27993.17
582.878	28208.21
583.076	27518.04
583.274	28036.18
583.471	27532.38
583.669	27602.01
583.866	27716.7
584.064	27792.47
584.262	27475.04
584.459	27733.08
584.657	27503.71
584.854	27538.52
585.052	26995.81
585.249	27382.88
585.447	26954.85
585.644	26657.9
585.841	26983.52
586.039	27040.87
586.236	26543.21
586.434	26858.6
586.631	26580.07
586.828	26621.03
587.026	26635.37
587.223	26121.33
587.42	26305.65
587.618	26201.2
587.815	25834.61
588.012	25851
588.21	25889.91
588.407	26317.93
588.604	25732.22
588.801	25828.47
588.999	25511.03
589.196	25691.26
589.393	25564.28
589.59	25519.23
589.787	25533.56
589.984	25234.56
590.182	25011.33
590.379	25349.25
590.576	25050.24
590.773	24962.18
590.97	25277.57
591.167	24798.34
591.364	24732.81
591.561	24784.01
591.758	24751.24
591.955	24466.57
592.152	24575.11
592.349	24263.82
592.546	24417.42
592.743	24480.91
592.94	23960.72
593.137	24294.54
593.334	24173.71
593.531	23778.45
593.727	24218.77
593.924	23628.95
594.121	23684.25
594.318	24091.79
594.515	23434.39
594.712	24011.92
594.908	23340.19
595.105	23450.78
595.302	23338.14
595.499	23823.51
595.696	23168.16
595.892	22965.41
596.089	23254.17
596.286	23086.24
596.482	22996.13
596.679	22803.62
596.876	23069.86
597.072	22607.02
597.269	23002.27
597.466	22674.6
597.662	22477.99
597.859	22471.85
598.055	22408.36
598.252	22752.42
598.448	22459.56
598.645	22353.07
598.841	22404.27
599.038	22318.25
599.234	21925.04
599.431	21947.57
599.627	22019.25
599.824	21953.71
600.02	21867.7
600.217	21877.94
600.413	21746.87
600.609	21642.42
600.806	21707.96
601.002	21804.21
601.198	21566.65
601.395	21367.99
601.591	21284.03
601.787	21259.45
601.984	21003.46
602.18	21423.29
602.376	21034.18
602.572	21124.29
602.769	20688.07
602.965	20761.8
603.161	20802.75
603.357	20827.33
603.553	20651.2
603.75	20587.72
603.946	20438.22
604.142	20327.63
604.338	20153.55
604.534	20397.26
604.73	20161.74
604.926	20108.49
605.122	20145.36
605.318	20143.31
605.514	19791.06
605.71	20112.59
605.906	19969.23
606.102	20004.05
606.298	20214.99
606.494	19694.8
606.69	20116.69
606.886	19981.52
607.082	19612.88
607.278	19475.67
607.474	19375.32
607.67	19789.01
607.866	19260.63
608.062	19709.14
608.257	19408.09
608.453	19195.1
608.649	19408.09
608.845	18920.67
609.041	19182.81
609.236	19186.91
609.432	19002.59
609.628	19123.42
609.824	18791.65
610.019	18859.23
610.215	18801.89
610.411	19041.5
610.606	18799.84
610.802	18668.77
610.998	18691.3
611.193	18824.42
611.389	18711.78
611.584	18644.2
611.78	18664.68
611.976	18662.63
612.171	18611.43
612.367	18261.23
612.562	18414.82
612.758	18121.96
612.953	18224.36
613.149	18427.11
613.344	18224.36
613.539	18392.3
613.735	18117.87
613.93	18300.14
614.126	18132.2
614.321	18447.59
614.517	17949.93
614.712	17634.55
614.907	17951.98
615.103	17972.46
615.298	17798.38
615.493	18134.25
615.688	17421.56
615.884	17788.14
616.079	17493.24
616.274	17956.08
616.47	17564.92
616.665	17652.98
616.86	17429.75
617.055	17442.04
617.25	17437.94
617.445	17655.03
617.641	17292.54
617.836	17292.54
618.031	17052.92
618.226	17540.34
618.421	17380.6
618.616	17229.05
618.811	17126.65
619.006	17351.93
619.201	16991.48
619.396	17020.16
619.591	16688.39
619.786	16919.81
619.981	16536.84
620.176	16983.29
620.371	16377.09
620.566	16506.12
620.761	16385.29
620.956	16323.85
621.151	16037.13
621.346	16534.79
621.541	16207.11
621.735	16225.54
621.93	15912.21
622.125	16063.75
622.32	15695.12
622.515	15940.88
622.709	15834.38
622.904	15822.09
623.099	15844.62
623.294	15424.79
623.488	15492.37
623.683	15271.19
623.878	15150.36
624.072	15252.76
624.267	15488.28
624.462	15166.74
624.656	14746.91
624.851	14781.73
625.046	14927.13
625.24	14781.73
625.435	14636.32
625.629	14746.91
625.824	14599.46
626.018	14599.46
626.213	14173.48
626.407	14214.44
626.602	14069.03
626.796	14017.83
626.991	14150.95
627.185	13892.91
627.38	14255.4
627.574	13874.48
627.768	13825.33
627.963	13905.2
628.157	13514.03
628.352	13616.43
628.546	13346.1
628.74	13407.54
628.935	13399.35
629.129	13436.21
629.323	13217.08
629.517	13139.26
629.712	12981.56
629.906	12952.89
630.1	12856.64
630.294	12954.94
630.489	12758.33
630.683	12733.76
630.877	12500.29
631.071	12795.2
631.265	12430.66
631.459	12549.44
631.653	11996.49
631.848	12336.45
632.042	12340.55
632.236	11937.1
632.43	12029.26
632.624	12195.14
632.818	12068.17
633.012	12006.73
633.206	11808.08
633.4	11674.96
633.594	11597.14
633.788	11793.74
633.982	11838.8
634.176	11779.4
634.369	11418.96
634.563	11371.86
634.757	11418.96
634.951	11451.73
635.145	11459.92
635.339	11218.26
635.533	11136.34
635.726	11353.43
635.92	11085.14
636.114	10984.79
636.308	10845.53
636.501	11089.24
636.695	10929.5
636.889	10898.78
637.083	10788.19
637.276	10450.27
637.47	10497.38
637.664	10683.74
637.857	10564.96
638.051	10607.97
638.244	10419.55
638.438	10390.88
638.632	10163.56
638.825	10091.88
639.019	10034.53
639.212	10278.24
639.406	10057.06
639.599	9917.8
639.793	9995.62
639.986	9909.61
640.18	9911.66
640.373	9796.97
640.567	9721.2
640.76	9844.07
640.954	9629.04
641.147	9596.27
641.34	9612.65
641.534	9471.34
641.727	9424.24
641.92	9500.02
642.114	9338.23
642.307	9289.07
642.5	9287.03
642.694	9135.48
642.887	9127.28
643.08	9256.31
643.273	9266.55
643.467	8928.63
643.66	9080.18
643.853	8850.81
644.046	8824.19
644.239	8756.6
644.432	8883.58
644.626	8744.31
644.819	8801.66
645.012	8805.75
645.205	8668.54
645.398	8643.96
645.591	8457.6
645.784	8404.35
645.977	8426.88
646.17	8392.06
646.363	8209.79
646.556	8103.3
646.749	8220.03
646.942	8291.71
647.135	8158.6
647.328	8064.39
647.521	8195.46
647.714	7927.18
647.907	8099.2
648.099	8064.39
648.292	7931.27
648.485	7927.18
648.678	7622.03
648.871	7789.96
649.064	7701.9
649.256	7730.57
649.449	7609.74
649.642	7660.94
649.835	7427.47
650.027	7640.46
650.22	7374.22
650.413	7433.61
650.605	7372.18
650.798	7415.18
650.991	7210.39
651.183	7368.08
651.376	7284.11
651.568	7333.26
651.761	7179.67
651.954	7194
652.146	7144.85
652.339	7136.66
652.531	7107.99
652.724	7155.09
652.916	6870.42
653.109	7079.32
653.301	6909.33
653.494	6966.68
653.686	6800.79
653.879	6780.31
654.071	6682.01
654.263	6577.56
654.456	6751.64
654.648	6782.36
654.84	6540.7
655.033	6735.26
655.225	6614.43
655.417	6440.35
655.61	6362.53
655.802	6706.59
655.994	6415.77
656.186	6526.36
656.379	6368.67
656.571	6342.05
656.763	6426.01
656.955	6098.34
657.148	6423.97
657.34	6260.13
657.532	6069.67
657.724	6110.63
657.916	6161.83
658.108	5977.51
658.3	6264.22
658.492	6247.84
658.684	6086.05
658.876	5813.67
659.068	5940.65
659.26	5952.93
659.452	5893.54
659.644	5844.39
659.836	5950.89
660.028	5905.83
660.22	5641.64
660.412	5688.75
660.604	5756.33
660.796	5815.72
660.988	5692.84
661.18	5760.42
661.372	5559.72
661.563	5670.31
661.755	5483.95
661.947	5442.99
662.139	5537.2
662.331	5465.52
662.522	5393.84
662.714	5424.56
662.906	5373.36
663.097	5219.76
663.289	5352.88
663.481	5363.12
663.673	5322.16
663.864	5279.15
664.056	5402.03
664.247	5178.8
664.439	5248.43
664.631	5301.68
664.822	5205.42
665.014	5199.28
665.205	5174.71
665.397	5141.94
665.588	5217.71
665.78	5100.98
665.971	5045.68
666.163	4994.48
666.354	5092.79
666.546	4982.2
666.737	4974
666.929	5033.4
667.12	4928.95
667.311	4865.46
667.503	4892.09
667.694	4828.6
667.885	4906.42
668.077	4912.57
668.268	4634.04
668.459	4816.31
668.651	4869.56
668.842	4769.21
669.033	4840.89
669.224	4697.53
669.416	4812.21
669.607	4588.99
669.798	4689.34
669.989	4750.78
670.18	4697.53
670.371	4703.67
670.563	4539.83
670.754	4621.75
670.945	4525.5
671.136	4595.13
671.327	4459.96
671.518	4500.92
671.709	4591.03
671.9	4609.47
672.091	4586.94
672.282	4582.84
672.473	4431.29
672.664	4482.49
672.855	4607.42
673.046	4613.56
673.237	4523.45
673.428	4564.41
673.619	4539.83
673.809	4509.12
674	4457.92
674.191	4531.64
674.382	4326.85
674.573	4294.08
674.764	4416.96
674.954	4390.33
675.145	4363.71
675.336	4367.81
675.527	4390.33
675.717	4474.3
675.908	4314.56
676.099	4308.41
676.289	4304.32
676.48	4273.6
676.671	4376
676.861	4259.26
677.052	4326.85
677.243	4427.2
677.433	4175.3
677.624	4416.96
677.814	4257.22
678.005	4275.65
678.195	4277.69
678.386	4302.27
678.576	4236.74
678.767	4222.4
678.957	4206.02
679.148	4320.7
679.338	4208.06
679.529	4283.84
679.719	4191.68
679.909	4326.85
680.1	4304.32
680.29	4384.19
680.481	4191.68
680.671	4255.17
680.861	4361.66
681.052	4242.88
681.242	4263.36
681.432	4257.22
681.622	4322.75
681.813	4158.91
682.003	4171.2
682.193	4185.54
682.383	4146.62
682.573	4206.02
682.764	4101.57
682.954	4304.32
683.144	4203.97
683.334	4099.52
683.524	4156.86
683.714	4216.26
683.904	4074.95
684.094	4072.9
684.284	4240.83
684.474	4040.13
684.664	4154.82
684.854	4099.52
685.044	4140.48
685.234	4142.53
685.424	4138.43
685.614	4175.3
685.804	4130.24
685.994	4136.38
686.184	4107.71
686.374	4193.73
686.564	4052.42
686.753	3988.93
686.943	4148.67
687.133	3921.35
687.323	4068.8
687.513	4060.61
687.702	3909.06
687.892	3878.34
688.082	3827.14
688.272	3900.87
688.461	3859.91
688.651	3841.48
688.841	3784.13
689.03	3810.76
689.22	3808.71
689.41	3929.54
689.599	3792.33
689.789	3829.19
689.979	3739.08
690.168	3755.46
690.358	3667.4
690.547	3716.55
690.737	3554.76
690.926	3556.81
691.116	3665.35
691.305	3646.92
691.495	3485.13
691.684	3597.77
691.874	3550.67
692.063	3679.69
692.252	3583.43
692.442	3528.14
692.631	3286.48
692.82	3569.1
693.01	3468.75
693.199	3403.21
693.388	3272.14
693.578	3515.85
693.767	3491.27
693.956	3466.7
694.146	3562.95
694.335	3325.39
694.524	3390.92
694.713	3288.53
694.902	3450.32
695.092	3349.96
695.281	3206.61
695.47	3345.87
695.659	3386.83
695.848	3319.25
696.037	3298.77
696.226	3429.84
696.415	3345.87
696.604	3358.16
696.793	3378.64
696.982	3343.82
697.171	3409.36
697.36	3143.12
697.549	3212.75
697.738	3212.75
697.927	3200.46
698.116	3356.11
698.305	3323.34
698.494	3196.37
698.683	3177.94
698.872	3358.16
699.061	3247.57
699.25	3263.95
699.438	3239.37
699.627	3268.05
699.816	3192.27
700.005	3200.46
700.193	3202.51
700.382	3210.7
700.571	3259.85
700.76	3153.36
700.948	3229.13
701.137	3247.57
701.326	3239.37
701.514	3182.03
701.703	3204.56
701.892	3190.22
702.08	3333.58
702.269	3255.76
702.457	3214.8
702.646	3243.47
702.834	3128.78
703.023	3139.02
703.212	3196.37
703.4	3296.72
703.589	3288.53
703.777	3204.56
703.965	3155.41
704.154	3292.62
704.342	3214.8
704.531	3198.42
704.719	3284.43
704.907	3233.23
705.096	3163.6
705.284	3247.57
705.472	3050.96
705.661	3298.77
705.849	3261.9
706.037	3335.63
706.226	3233.23
706.414	3251.66
706.602	3266
706.79	3343.82
706.979	3161.55
707.167	3304.91
707.355	3225.04
707.543	3343.82
707.731	3341.77
707.919	3272.14
708.107	3241.42
708.296	3388.88
708.484	3239.37
708.672	3339.73
708.86	3280.33
709.048	3222.99
709.236	3415.5
709.424	3294.67
709.612	3335.63
709.8	3347.92
709.988	3204.56
710.176	3339.73
710.364	3419.6
710.551	3321.29
710.739	3270.09
710.927	3352.01
711.115	3290.57
711.303	3384.78
711.491	3345.87
711.679	3225.04
711.866	3360.2
712.054	3435.98
712.242	3333.58
712.43	3423.69
712.617	3327.44
712.805	3366.35
712.993	3386.83
713.181	3278.29
713.368	3395.02
713.556	3335.63
713.744	3323.34
713.931	3456.46
714.119	3413.45
714.306	3319.25
714.494	3444.17
714.682	3399.12
714.869	3384.78
715.057	3462.6
715.244	3476.94
715.432	3618.25
715.619	3323.34
715.807	3466.7
715.994	3550.67
716.182	3349.96
716.369	3474.89
716.556	3409.36
716.744	3474.89
716.931	3548.62
717.119	3567.05
717.306	3335.63
717.493	3509.71
717.681	3542.47
717.868	3364.3
718.055	3565
718.242	3544.52
718.43	3483.08
718.617	3616.2
718.804	3397.07
718.991	3591.63
719.179	3505.61
719.366	3552.71
719.553	3581.39
719.74	3712.46
719.927	3524.04
720.114	3601.87
720.301	3503.56
720.488	3511.75
720.676	3603.91
720.863	3657.16
721.05	3732.94
721.237	3567.05
721.424	3591.63
721.611	3620.3
721.798	3519.95
721.985	3614.15
722.172	3702.22
722.358	3591.63
722.545	3599.82
722.732	3597.77
722.919	3667.4
723.106	3651.02
723.293	3638.73
723.48	3618.25
723.667	3636.68
723.853	3597.77
724.04	3640.78
724.227	3818.95
724.414	3612.1
724.6	3712.46
724.787	3728.84
724.974	3749.32
725.161	3546.57
725.347	3554.76
725.534	3769.8
725.72	3675.59
725.907	3665.35
726.094	3642.82
726.28	3626.44
726.467	3704.26
726.653	3683.78
726.84	3689.93
727.027	3739.08
727.213	3634.63
727.4	3931.59
727.586	3679.69
727.773	3777.99
727.959	3698.12
728.145	3679.69
728.332	3722.7
728.518	3751.37
728.705	3739.08
728.891	3698.12
729.077	3741.13
729.264	3601.87
729.45	3749.32
729.636	3782.09
729.823	3753.41
730.009	3847.62
730.195	3759.56
730.382	3751.37
730.568	3780.04
730.754	3751.37
730.94	3706.31
731.126	3679.69
731.313	3708.36
731.499	3767.75
731.685	3761.61
731.871	3767.75
732.057	3755.46
732.243	3716.55
732.429	3747.27
732.615	3847.62
732.801	3845.57
732.987	3739.08
733.173	3763.65
733.359	3720.65
733.545	3839.43
733.731	3741.13
733.917	3857.86
734.103	3777.99
734.289	3810.76
734.475	3716.55
734.661	3784.13
734.847	3786.18
735.033	3730.89
735.219	3593.67
735.404	3698.12
735.59	3767.75
735.776	3626.44
735.962	3868.1
736.148	3786.18
736.333	3812.81
736.519	3788.23
736.705	3780.04
736.89	3823.05
737.076	3659.21
737.262	3788.23
737.447	3790.28
737.633	3730.89
737.819	3718.6
738.004	3753.41
738.19	3683.78
738.375	3675.59
738.561	3757.51
738.747	3773.89
738.932	3534.28
739.118	3751.37
739.303	3683.78
739.489	3771.85
739.674	3481.03
739.859	3708.36
740.045	3792.33
740.23	3655.11
740.416	3481.03
740.601	3638.73
740.786	3468.75
740.972	3620.3
741.157	3593.67
741.342	3403.21
741.528	3532.23
741.713	3581.39
741.898	3593.67
742.084	3556.81
742.269	3567.05
742.454	3454.41
742.639	3548.62
742.824	3577.29
743.01	3595.72
743.195	3421.64
743.38	3548.62
743.565	3507.66
743.75	3390.92
743.935	3376.59
744.12	3440.08
744.305	3378.64
744.49	3433.93
744.675	3210.7
744.86	3315.15
745.045	3419.6
745.23	3196.37
745.415	3263.95
745.6	3417.55
745.785	3122.64
745.97	3296.72
746.155	3179.98
746.34	3329.49
746.525	3118.54
746.71	3198.42
746.895	3206.61
747.079	3237.33
747.264	3175.89
747.449	3141.07
747.634	3114.45
747.819	3139.02
748.003	3018.19
748.188	3053.01
748.373	3003.86
748.557	2889.17
748.742	3036.63
748.927	2930.13
749.111	3001.81
749.296	2872.79
749.481	2837.97
749.665	2921.94
749.85	2878.93
750.034	2809.3
750.219	2960.85
750.404	2821.59
750.588	2966.99
750.773	2713.05
750.957	2833.88
751.141	2862.55
751.326	2772.44
751.51	2698.71
751.695	2708.95
751.879	2586.07
752.064	2762.2
752.248	2674.14
752.432	2692.57
752.617	2498.01
752.801	2768.34
752.985	2436.57
753.17	2575.83
753.354	2444.76
753.538	2579.93
753.722	2500.06
753.907	2459.1
754.091	2428.38
754.275	2428.38
754.459	2481.63
754.643	2381.28
754.828	2352.6
755.012	2338.27
755.196	2309.6
755.38	2336.22
755.564	2321.88
755.748	2336.22
755.932	2315.74
756.116	2129.38
756.3	2307.55
756.484	2246.11
756.668	2239.97
756.852	2156
757.036	2305.5
757.22	2256.35
757.404	2151.9
757.588	2106.85
757.772	2182.62
757.956	2065.89
758.14	2176.48
758.323	1986.02
758.507	2244.06
758.691	2147.81
758.875	2041.31
759.059	2059.74
759.242	2074.08
759.426	2024.93
759.61	2108.9
759.794	2029.03
759.977	1996.26
760.161	2108.9
760.345	2006.5
760.528	1988.07
760.712	2033.12
760.895	1887.72
761.079	1967.59
761.263	2008.55
761.446	1916.39
761.63	1768.93
761.813	1807.84
761.997	1816.04
762.18	1873.38
762.364	1785.32
762.547	1861.09
762.731	1736.17
762.914	1867.24
763.098	1717.73
763.281	1807.84
763.464	1824.23
763.648	1787.36
763.831	1705.45
764.015	1689.06
764.198	1744.36
764.381	1773.03
764.564	1664.49
764.748	1719.78
764.931	1621.48
765.114	1736.17
765.297	1756.65
765.481	1553.9
765.664	1693.16
765.847	1689.06
766.03	1656.29
766.213	1666.53
766.397	1664.49
766.58	1617.38
766.763	1633.77
766.946	1533.42
767.129	1623.53
767.312	1474.03
767.495	1631.72
767.678	1555.94
767.861	1623.53
768.044	1633.77
768.227	1570.28
768.41	1490.41
768.593	1500.65
768.776	1578.47
768.959	1492.46
769.142	1580.52
769.324	1398.25
769.507	1476.07
769.69	1363.44
769.873	1416.68
770.056	1601
770.239	1428.97
770.421	1500.65
770.604	1471.98
770.787	1517.03
770.97	1377.77
771.152	1402.35
771.335	1361.39
771.518	1375.72
771.7	1500.65
771.883	1496.55
772.066	1406.44
772.248	1338.86
772.431	1406.44
772.613	1297.9
772.796	1402.35
772.978	1353.2
773.161	1365.48
773.343	1281.52
773.526	1175.02
773.708	1263.08
773.891	1236.46
774.073	1263.08
774.256	1234.41
774.438	1332.72
774.621	1263.08
774.803	1250.8
774.985	1177.07
775.168	1250.8
775.35	1140.21
775.532	1279.47
775.715	1226.22
775.897	1172.97
776.079	1156.59
776.261	1076.72
776.444	1152.49
776.626	1166.83
776.808	1197.55
776.99	1140.21
777.173	1185.26
777.355	1121.77
777.537	1105.39
777.719	1177.07
777.901	1117.68
778.083	1103.34
778.265	1025.52
778.447	1054.19
778.629	1117.68
778.811	986.61
778.993	992.75
779.175	1041.9
779.357	968.18
779.539	1027.57
779.721	990.7
779.903	1062.38
780.085	984.56
780.267	951.79
780.449	996.85
780.631	959.99
780.812	1041.9
780.994	945.65
781.176	968.18
781.358	976.37
781.54	820.72
781.721	916.98
781.903	968.18
782.085	880.11
782.267	894.45
782.448	812.53
782.63	818.68
782.812	884.21
782.993	763.38
783.175	937.46
783.357	771.57
783.538	906.74
783.72	792.05
783.901	710.13
784.083	773.62
784.264	812.53
784.446	646.65
784.627	697.85
784.809	781.81
784.99	800.24
785.172	790
785.353	747
785.535	812.53
785.716	781.81
785.897	716.28
786.079	667.13
786.26	796.15
786.441	775.67
786.623	724.47
786.804	564.73
786.985	714.23
787.167	642.55
787.348	742.9
787.529	720.37
787.71	787.96
787.891	642.55
788.073	654.84
788.254	632.31
788.435	718.33
788.616	693.75
788.797	607.73
788.978	558.58
789.159	607.73
789.34	718.33
789.522	667.13
789.703	558.58
789.884	648.69
790.065	591.35
790.246	710.13
790.427	593.4
790.607	617.97
790.788	658.93
790.969	501.24
791.15	642.55
791.331	538.1
791.512	556.54
791.693	554.49
791.874	577.02
792.054	615.93
792.235	568.82
792.416	505.34
792.597	585.21
792.778	529.91
792.958	577.02
793.139	501.24
793.32	529.91
793.5	429.56
793.681	570.87
793.862	583.16
794.042	468.47
794.223	501.24
794.404	488.95
794.584	433.66
794.765	470.52
794.945	445.95
795.126	491
795.306	501.24
795.487	493.05
795.667	482.81
795.848	486.9
796.028	462.33
796.209	431.61
796.389	482.81
796.57	402.94
796.75	458.23
796.93	456.19
797.111	402.94
797.291	411.13
797.471	452.09
797.652	402.94
797.832	394.75
798.012	562.68
798.192	452.09
798.373	388.6
798.553	390.65
798.733	447.99
798.913	421.37
799.093	321.02
799.274	441.85
799.454	495.1
799.634	458.23
799.814	470.52
799.994	394.75
800.174	349.69
800.354	431.61
800.534	339.45
800.714	478.71
800.894	353.79
801.074	321.02
801.254	394.75
801.434	394.75
801.614	421.37
801.794	353.79
801.974	1332.72
802.154	392.7
802.334	361.98
802.514	353.79
802.693	335.35
802.873	304.64
803.053	474.62
803.233	419.32
803.413	372.22
803.592	337.4
803.772	341.5
803.952	366.07
804.131	396.79
804.311	382.46
804.491	380.41
804.67	278.01
804.85	327.16
805.03	364.03
805.209	337.4
805.389	310.78
805.568	345.59
805.748	411.13
805.928	353.79
806.107	376.31
806.287	212.48
806.466	308.73
806.646	249.34
806.825	280.06
807.004	310.78
807.184	331.26
807.363	318.97
807.543	247.29
807.722	323.07
807.901	452.09
808.081	343.55
808.26	206.33
808.439	218.62
808.619	306.68
808.798	345.59
808.977	226.81
809.156	327.16
809.336	292.35
809.515	347.64
809.694	210.43
809.873	247.29
810.052	321.02
810.231	230.91
810.411	282.11
810.59	280.06
810.769	208.38
810.948	251.39
811.127	255.48
811.306	255.48
811.485	278.01
811.664	312.83
811.843	259.58
812.022	300.54
812.201	224.76
812.38	230.91
812.559	177.66
812.737	265.72
812.916	222.72
813.095	224.76
813.274	361.98
813.453	212.48
813.632	253.44
813.811	288.25
813.989	142.85
814.168	280.06
814.347	224.76
814.526	308.73
814.704	314.88
814.883	249.34
815.062	169.47
815.24	273.92
815.419	204.28
815.598	265.72
815.776	196.09
815.955	181.76
816.133	175.61
816.312	208.38
816.49	218.62
816.669	212.48
816.847	249.34
817.026	304.64
817.204	257.53
817.383	267.77
817.561	208.38
817.74	302.59
817.918	165.37
818.097	187.9
818.275	169.47
818.453	251.39
818.632	282.11
818.81	204.28
818.988	169.47
819.167	226.81
819.345	228.86
819.523	155.13
819.701	230.91
819.879	196.09
820.058	239.1
820.236	370.17
820.414	196.09
820.592	114.17
820.77	265.72
820.948	189.95
821.127	159.23
821.305	120.32
821.483	161.28
821.661	183.81
821.839	216.57
822.017	167.42
822.195	204.28
822.373	247.29
822.551	161.28
822.729	226.81
822.907	196.09
823.085	273.92
823.262	56.83
823.44	85.5
823.618	99.84
823.796	189.95
823.974	148.99
824.152	142.85
824.329	202.24
824.507	224.76
824.685	210.43
824.863	165.37
825.04	128.51
825.218	189.95
825.396	189.95
825.574	144.89
825.751	153.09
825.929	171.52
826.107	126.46
826.284	200.19
826.462	196.09
826.639	222.72
826.817	67.07
826.994	146.94
827.172	79.36
827.349	304.64
827.527	220.67
827.704	148.99
827.882	142.85
828.059	210.43
828.237	142.85
828.414	224.76
828.591	110.08
828.769	146.94
828.946	73.21
829.124	196.09
829.301	259.58
829.478	167.42
829.655	157.18
829.833	192
830.01	91.65
830.187	132.61
830.364	142.85
830.542	148.99
830.719	218.62
830.896	163.33
831.073	185.85
831.25	165.37
831.427	171.52
831.604	144.89
831.782	142.85
831.959	101.89
832.136	208.38
832.313	138.75
832.49	91.65
832.667	132.61
832.844	103.93
833.021	183.81
833.198	108.03
833.374	101.89
833.551	165.37
833.728	101.89
833.905	132.61
834.082	-35.33
834.259	122.37
834.436	179.71
834.612	124.41
834.789	103.93
834.966	93.69
835.143	103.93
835.319	69.12
835.496	99.84
835.673	110.08
835.85	122.37
836.026	192
836.203	206.33
836.38	108.03
836.556	138.75
836.733	67.07
836.909	161.28
837.086	91.65
837.262	116.22
837.439	83.45
837.616	108.03
837.792	79.36
837.968	71.17
838.145	24.06
838.321	124.41
838.498	132.61
838.674	97.79
838.851	132.61
839.027	91.65
839.203	32.26
839.38	126.46
839.556	118.27
839.732	153.09
839.909	60.93
840.085	91.65
840.261	56.83
840.437	167.42
840.614	-10.75
840.79	157.18
840.966	67.07
841.142	136.7
841.318	110.08
841.494	194.05
841.671	142.85
841.847	67.07
842.023	42.5
842.199	165.37
842.375	52.74
842.551	97.79
842.727	34.3
842.903	134.65
843.079	130.56
843.255	134.65
843.431	79.36
843.607	95.74
843.783	62.98
843.959	67.07
844.134	112.13
844.31	140.8
844.486	42.5
844.662	157.18
844.838	44.54
845.013	112.13
845.189	153.09
845.365	77.31
845.541	151.04
845.716	67.07
845.892	58.88
846.068	44.54
846.244	99.84
846.419	144.89
846.595	26.11
846.77	77.31
846.946	105.98
847.122	148.99
847.297	91.65
847.473	175.61
847.648	19.97
847.824	11.78
847.999	-4.61
848.175	95.74
848.35	183.81
848.526	112.13
848.701	171.52
848.876	24.06
849.052	95.74
849.227	44.54
849.403	89.6
849.578	79.36
849.753	77.31
849.929	124.41
850.104	65.02
850.279	67.07
850.454	69.12
850.63	26.11
850.805	126.46
850.98	142.85
851.155	34.3
851.33	54.78
851.505	36.35
851.681	157.18
851.856	30.21
852.031	101.89
852.206	24.06
852.381	13.82
852.556	54.78
852.731	128.51
852.906	97.79
853.081	116.22
853.256	99.84
853.431	-14.85
853.606	71.17
853.781	22.02
853.956	-51.71
854.131	30.21
854.305	-0.51
854.48	19.97
854.655	50.69
854.83	67.07
855.005	15.87
855.18	69.12
855.354	46.59
855.529	30.21
855.704	54.78
855.879	110.08
856.053	15.87
856.228	110.08
856.403	28.16
856.577	46.59
856.752	34.3
856.926	38.4
857.101	75.26
857.276	71.17
857.45	87.55
857.625	69.12
857.799	62.98
857.974	38.4
858.148	-20.99
858.323	101.89
858.497	81.41
858.672	15.87
858.846	-49.66
859.02	85.5
859.195	-6.66
859.369	83.45
859.543	62.98
859.718	54.78
859.892	73.21
860.066	56.83
860.241	22.02
860.415	67.07
860.589	101.89
860.763	19.97
860.938	5.63
861.112	46.59
861.286	-35.33
861.46	69.12
861.634	30.21
861.808	87.55
861.982	36.35
862.157	9.73
862.331	-29.18
862.505	-6.66
862.679	-4.61
862.853	28.16
863.027	46.59
863.201	173.57
863.375	1.54
863.549	75.26
863.722	81.41
863.896	69.12
864.07	5.63
864.244	-14.85
864.418	48.64
864.592	93.69
864.766	120.32
864.939	-10.75
865.113	-18.94
865.287	77.31
865.461	73.21
865.634	36.35
865.808	9.73
865.982	83.45
866.156	1.54
866.329	5.63
866.503	79.36
866.676	11.78
866.85	58.88
867.024	36.35
867.197	114.17
867.371	93.69
867.544	40.45
867.718	7.68
867.891	89.6
868.065	3.58
868.238	62.98
868.412	130.56
868.585	99.84
868.759	-4.61
868.932	17.92
869.105	52.74
869.279	7.68
869.452	-14.85
869.625	26.11
869.799	1.54
869.972	5.63
870.145	46.59
870.319	69.12
870.492	-27.14
870.665	60.93
870.838	-64
871.011	-16.9
871.185	-47.62
871.358	-70.14
871.531	73.21
871.704	3.58
871.877	56.83
872.05	-14.85
872.223	-43.52
872.396	54.78
872.569	9.73
872.742	-18.94
872.915	26.11
873.088	-10.75
873.261	-2.56
873.434	77.31
873.607	77.31
873.78	54.78
873.953	42.5
874.126	67.07
874.299	132.61
874.471	40.45
874.644	50.69
874.817	15.87
874.99	13.82
875.163	-8.7
875.335	46.59
875.508	-27.14
875.681	67.07
875.853	-41.47
876.026	-39.42
876.199	19.97
876.371	13.82
876.544	5.63
876.717	60.93
876.889	-6.66
877.062	15.87
877.234	-8.7
877.407	89.6
877.579	103.93
877.752	46.59
877.924	30.21
878.097	44.54
878.269	-10.75
878.442	13.82
878.614	42.5
878.786	65.02
878.959	48.64
879.131	19.97
879.303	-55.81
879.476	-4.61
879.648	-6.66
879.82	124.41
879.993	-53.76
880.165	75.26
880.337	26.11
880.509	62.98
880.681	38.4
880.854	32.26
881.026	58.88
881.198	75.26
881.37	24.06
881.542	17.92
881.714	-20.99
881.886	38.4
882.058	-39.42
882.23	34.3
882.402	24.06
882.574	17.92
882.746	17.92
882.918	65.02
883.09	7.68
883.262	77.31
883.434	103.93
883.606	62.98
883.778	26.11
883.95	34.3
884.122	-55.81
884.293	52.74
884.465	148.99
884.637	-23.04
884.809	42.5
884.98	7.68
885.152	50.69
885.324	30.21
885.496	32.26
885.667	105.98
885.839	32.26
886.011	75.26
886.182	26.11
886.354	36.35
886.525	-35.33
886.697	28.16
886.869	-27.14
887.04	5.63
887.212	97.79
887.383	28.16
887.555	32.26
887.726	34.3
887.897	67.07
888.069	-39.42
888.24	42.5
888.412	5.63
888.583	-6.66
888.754	69.12
888.926	-47.62
889.097	-33.28
889.268	-18.94
889.44	26.11
889.611	1.54
889.782	26.11
889.953	-35.33
890.125	69.12
890.296	-29.18
890.467	-25.09
890.638	1.54
890.809	-39.42
890.98	-25.09
891.151	108.03
891.323	-4.61
891.494	77.31
891.665	93.69
891.836	11.78
892.007	38.4
892.178	-12.8
892.349	52.74
892.52	7.68
892.691	24.06
892.862	36.35
893.032	3.58
893.203	1.54
893.374	24.06
893.545	28.16
893.716	17.92
893.887	50.69
894.057	-12.8
894.228	-37.38
894.399	28.16
894.57	75.26
894.74	71.17
894.911	73.21
895.082	69.12
895.253	36.35
895.423	28.16
895.594	81.41
895.764	-43.52
895.935	-12.8
896.106	36.35
896.276	1.54
896.447	38.4
896.617	19.97
896.788	22.02
896.958	-18.94
897.129	32.26
897.299	-29.18
897.47	28.16
897.64	65.02
897.81	1.54
897.981	58.88
898.151	-94.72
898.322	-18.94
898.492	50.69
898.662	-64
898.832	-20.99
899.003	7.68
899.173	62.98
899.343	9.73
899.513	1.54
