Data from USB4F104151__18__13-04-31-250.txt Node

Date: Fri Mar 14 13:04:31 EDT 2025
User: louis
Spectrometer: USB4F10415
Trigger mode: 4
Integration Time (sec): 4.000000E-2
Scans to average: 1
Electric dark correction enabled: true
Nonlinearity correction enabled: false
Boxcar width: 0
XAxis mode: Wavelengths
Number of Pixels in Spectrum: 3648
>>>>>Begin Spectral Data<<<<<
178.204	-189.27
178.424	-189.27
178.644	-189.27
178.864	-172.88
179.084	-176.98
179.304	-4.95
179.524	13.48
179.744	-11.09
179.964	48.3
180.184	25.77
180.404	-56.15
180.624	38.06
180.844	-29.52
181.064	-115.54
181.283	29.87
181.503	-9.05
181.723	70.83
181.943	-90.96
182.163	79.02
182.383	29.87
182.602	134.31
182.822	81.07
183.042	-19.29
183.262	76.97
183.482	54.44
183.701	-25.43
183.921	-2.9
184.141	-4.95
184.361	72.87
184.58	-19.29
184.8	15.53
185.02	48.3
185.239	99.5
185.459	-41.81
185.679	107.69
185.898	-0.85
186.118	70.83
186.338	33.96
186.557	105.64
186.777	3.24
186.997	48.3
187.216	64.68
187.436	105.64
187.655	3.24
187.875	48.3
188.095	9.39
188.314	48.3
188.534	128.17
188.753	-50
188.973	122.02
189.192	60.59
189.412	1.19
189.631	42.15
189.851	5.29
190.07	144.55
190.29	60.59
190.509	31.91
190.729	15.53
190.948	83.11
191.168	201.9
191.387	79.02
191.607	48.3
191.826	50.35
192.045	13.48
192.265	95.4
192.484	66.73
192.704	-35.67
192.923	-86.87
193.142	169.13
193.362	124.07
193.581	136.36
193.8	17.58
194.02	128.17
194.239	38.06
194.458	-54.1
194.678	-2.9
194.897	44.2
195.116	23.72
195.335	27.82
195.555	87.21
195.774	60.59
195.993	50.35
196.212	21.67
196.432	-27.48
196.651	31.91
196.87	-39.76
197.089	119.98
197.308	48.3
197.528	62.63
197.747	-33.62
197.966	72.87
198.185	128.17
198.404	99.5
198.623	15.53
198.842	-39.76
199.062	91.31
199.281	68.78
199.5	54.44
199.719	44.2
199.938	154.79
200.157	87.21
200.376	93.35
200.595	68.78
200.814	128.17
201.033	3.24
201.252	50.35
201.471	48.3
201.69	48.3
201.909	38.06
202.128	62.63
202.347	91.31
202.566	101.55
202.785	-11.09
203.004	-4.95
203.223	107.69
203.442	68.78
203.661	13.48
203.879	72.87
204.098	83.11
204.317	-15.19
204.536	89.26
204.755	52.39
204.974	40.11
205.193	-4.95
205.411	124.07
205.63	46.25
205.849	101.55
206.068	60.59
206.287	7.34
206.505	-58.2
206.724	46.25
206.943	21.67
207.162	-11.09
207.381	-39.76
207.599	21.67
207.818	62.63
208.037	19.63
208.255	23.72
208.474	83.11
208.693	-11.09
208.911	-15.19
209.13	64.68
209.349	48.3
209.567	54.44
209.786	46.25
210.005	5.29
210.223	40.11
210.442	-17.24
210.661	-7
210.879	-13.14
211.098	1.19
211.316	42.15
211.535	-27.48
211.753	81.07
211.972	115.88
212.191	-9.05
212.409	-4.95
212.628	42.15
212.846	-37.72
213.065	79.02
213.283	115.88
213.502	-2.9
213.72	136.36
213.938	-11.09
214.157	-13.14
214.375	89.26
214.594	36.01
214.812	46.25
215.031	70.83
215.249	-2.9
215.467	7.34
215.686	72.87
215.904	99.5
216.122	25.77
216.341	99.5
216.559	70.83
216.778	76.97
216.996	85.16
217.214	89.26
217.432	27.82
217.651	15.53
217.869	13.48
218.087	50.35
218.306	38.06
218.524	79.02
218.742	-7
218.96	38.06
219.179	44.2
219.397	-19.29
219.615	99.5
219.833	128.17
220.051	-11.09
220.27	95.4
220.488	138.41
220.706	54.44
220.924	54.44
221.142	54.44
221.36	44.2
221.578	23.72
221.796	-43.86
222.015	17.58
222.233	-13.14
222.451	19.63
222.669	-17.24
222.887	40.11
223.105	11.43
223.323	-0.85
223.541	-13.14
223.759	83.11
223.977	-11.09
224.195	185.51
224.413	38.06
224.631	54.44
224.849	117.93
225.067	177.32
225.285	-2.9
225.503	-41.81
225.721	-27.48
225.939	29.87
226.157	19.63
226.375	142.5
226.592	-11.09
226.81	-4.95
227.028	83.11
227.246	56.49
227.464	15.53
227.682	21.67
227.9	-37.72
228.117	93.35
228.335	81.07
228.553	54.44
228.771	66.73
228.989	79.02
229.206	11.43
229.424	38.06
229.642	-41.81
229.86	-2.9
230.077	81.07
230.295	46.25
230.513	13.48
230.731	81.07
230.948	101.55
231.166	58.54
231.384	31.91
231.601	1.19
231.819	60.59
232.037	15.53
232.254	-23.38
232.472	76.97
232.689	21.67
232.907	152.74
233.125	-2.9
233.342	-19.29
233.56	1.19
233.777	-4.95
233.995	97.45
234.213	119.98
234.43	81.07
234.648	5.29
234.865	64.68
235.083	76.97
235.3	60.59
235.518	83.11
235.735	105.64
235.953	87.21
236.17	11.43
236.388	-21.33
236.605	87.21
236.822	1.19
237.04	85.16
237.257	9.39
237.475	62.63
237.692	103.59
237.909	105.64
238.127	33.96
238.344	36.01
238.562	72.87
238.779	21.67
238.996	-82.77
239.214	11.43
239.431	83.11
239.648	29.87
239.865	76.97
240.083	54.44
240.3	25.77
240.517	5.29
240.735	-4.95
240.952	64.68
241.169	93.35
241.386	85.16
241.603	-56.15
241.821	56.49
242.038	70.83
242.255	109.74
242.472	19.63
242.689	48.3
242.907	48.3
243.124	54.44
243.341	-39.76
243.558	-47.96
243.775	38.06
243.992	1.19
244.209	58.54
244.426	171.18
244.643	31.91
244.86	23.72
245.078	46.25
245.295	87.21
245.512	19.63
245.729	-17.24
245.946	115.88
246.163	95.4
246.38	99.5
246.597	9.39
246.814	-9.05
247.031	29.87
247.248	11.43
247.464	89.26
247.681	99.5
247.898	46.25
248.115	38.06
248.332	11.43
248.549	76.97
248.766	117.93
248.983	70.83
249.2	72.87
249.417	171.18
249.633	42.15
249.85	142.5
250.067	-19.29
250.284	70.83
250.501	60.59
250.717	29.87
250.934	40.11
251.151	11.43
251.368	-2.9
251.585	99.5
251.801	93.35
252.018	13.48
252.235	50.35
252.451	-15.19
252.668	44.2
252.885	52.39
253.102	40.11
253.318	95.4
253.535	13.48
253.752	36.01
253.968	9.39
254.185	-33.62
254.401	23.72
254.618	58.54
254.835	40.11
255.051	171.18
255.268	89.26
255.484	31.91
255.701	103.59
255.917	5.29
256.134	-72.53
256.351	81.07
256.567	-11.09
256.784	21.67
257	11.43
257.217	62.63
257.433	38.06
257.65	62.63
257.866	64.68
258.082	-39.76
258.299	-41.81
258.515	91.31
258.732	38.06
258.948	36.01
259.165	-7
259.381	15.53
259.597	83.11
259.814	3.24
260.03	62.63
260.246	54.44
260.463	1.19
260.679	62.63
260.895	19.63
261.112	15.53
261.328	17.58
261.544	17.58
261.761	154.79
261.977	25.77
262.193	46.25
262.409	52.39
262.626	54.44
262.842	81.07
263.058	-29.52
263.274	56.49
263.49	132.26
263.707	89.26
263.923	56.49
264.139	-35.67
264.355	62.63
264.571	72.87
264.787	54.44
265.004	56.49
265.22	70.83
265.436	21.67
265.652	13.48
265.868	46.25
266.084	7.34
266.3	103.59
266.516	91.31
266.732	46.25
266.948	-35.67
267.164	31.91
267.38	68.78
267.596	33.96
267.812	56.49
268.028	31.91
268.244	-9.05
268.46	40.11
268.676	1.19
268.892	62.63
269.108	76.97
269.324	25.77
269.54	19.63
269.756	52.39
269.972	36.01
270.188	46.25
270.403	25.77
270.619	-19.29
270.835	56.49
271.051	19.63
271.267	62.63
271.483	58.54
271.698	72.87
271.914	23.72
272.13	66.73
272.346	17.58
272.562	72.87
272.777	122.02
272.993	7.34
273.209	-9.05
273.425	25.77
273.64	-86.87
273.856	52.39
274.072	1.19
274.287	-72.53
274.503	54.44
274.719	74.92
274.934	117.93
275.15	-27.48
275.366	72.87
275.581	5.29
275.797	7.34
276.012	-23.38
276.228	-35.67
276.444	85.16
276.659	124.07
276.875	21.67
277.09	99.5
277.306	-0.85
277.521	66.73
277.737	-43.86
277.952	79.02
278.168	66.73
278.383	23.72
278.599	48.3
278.814	50.35
279.03	44.2
279.245	46.25
279.461	54.44
279.676	119.98
279.892	44.2
280.107	46.25
280.322	11.43
280.538	50.35
280.753	33.96
280.969	95.4
281.184	1.19
281.399	70.83
281.615	115.88
281.83	62.63
282.045	48.3
282.26	-9.05
282.476	144.55
282.691	-9.05
282.906	-9.05
283.122	36.01
283.337	-50
283.552	52.39
283.767	74.92
283.983	95.4
284.198	15.53
284.413	9.39
284.628	62.63
284.843	64.68
285.058	62.63
285.274	15.53
285.489	60.59
285.704	70.83
285.919	36.01
286.134	13.48
286.349	42.15
286.564	9.39
286.779	105.64
286.995	58.54
287.21	33.96
287.425	25.77
287.64	46.25
287.855	132.26
288.07	-31.57
288.285	111.78
288.5	54.44
288.715	64.68
288.93	48.3
289.145	-7
289.36	42.15
289.575	17.58
289.79	46.25
290.004	23.72
290.219	101.55
290.434	-52.05
290.649	7.34
290.864	21.67
291.079	58.54
291.294	74.92
291.509	5.29
291.724	46.25
291.938	56.49
292.153	40.11
292.368	13.48
292.583	138.41
292.798	126.12
293.012	5.29
293.227	83.11
293.442	-4.95
293.657	58.54
293.871	58.54
294.086	83.11
294.301	113.83
294.516	58.54
294.73	56.49
294.945	-17.24
295.16	13.48
295.374	93.35
295.589	29.87
295.804	-41.81
296.018	23.72
296.233	95.4
296.447	62.63
296.662	7.34
296.877	138.41
297.091	87.21
297.306	23.72
297.52	119.98
297.735	111.78
297.949	72.87
298.164	58.54
298.378	-37.72
298.593	5.29
298.807	-7
299.022	-11.09
299.236	119.98
299.451	38.06
299.665	17.58
299.88	107.69
300.094	132.26
300.309	-0.85
300.523	72.87
300.737	29.87
300.952	72.87
301.166	46.25
301.381	-52.05
301.595	46.25
301.809	38.06
302.024	17.58
302.238	-29.52
302.452	31.91
302.667	31.91
302.881	58.54
303.095	101.55
303.309	72.87
303.524	-47.96
303.738	-4.95
303.952	5.29
304.166	105.64
304.381	-39.76
304.595	70.83
304.809	31.91
305.023	48.3
305.237	52.39
305.452	33.96
305.666	103.59
305.88	122.02
306.094	140.46
306.308	62.63
306.522	60.59
306.736	21.67
306.95	5.29
307.164	29.87
307.379	70.83
307.593	138.41
307.807	36.01
308.021	38.06
308.235	46.25
308.449	-25.43
308.663	5.29
308.877	142.5
309.091	58.54
309.305	42.15
309.519	-15.19
309.733	128.17
309.947	-23.38
310.161	17.58
310.374	76.97
310.588	171.18
310.802	50.35
311.016	17.58
311.23	97.45
311.444	-4.95
311.658	91.31
311.872	89.26
312.085	62.63
312.299	42.15
312.513	58.54
312.727	109.74
312.941	3.24
313.154	60.59
313.368	3.24
313.582	36.01
313.796	99.5
314.009	76.97
314.223	91.31
314.437	64.68
314.651	122.02
314.864	50.35
315.078	40.11
315.292	21.67
315.505	46.25
315.719	115.88
315.933	146.6
316.146	-58.2
316.36	42.15
316.573	83.11
316.787	5.29
317.001	81.07
317.214	-17.24
317.428	1.19
317.641	-21.33
317.855	48.3
318.068	21.67
318.282	25.77
318.495	128.17
318.709	48.3
318.922	76.97
319.136	158.89
319.349	126.12
319.563	-25.43
319.776	44.2
319.99	40.11
320.203	136.36
320.417	38.06
320.63	124.07
320.843	113.83
321.057	128.17
321.27	13.48
321.483	54.44
321.697	103.59
321.91	122.02
322.124	42.15
322.337	5.29
322.55	-7
322.763	62.63
322.977	-39.76
323.19	13.48
323.403	27.82
323.617	128.17
323.83	74.92
324.043	29.87
324.256	89.26
324.469	-37.72
324.683	15.53
324.896	62.63
325.109	7.34
325.322	-74.58
325.535	144.55
325.748	87.21
325.962	7.34
326.175	23.72
326.388	62.63
326.601	138.41
326.814	60.59
327.027	97.45
327.24	97.45
327.453	-11.09
327.666	154.79
327.879	105.64
328.092	95.4
328.305	81.07
328.518	72.87
328.731	85.16
328.944	-11.09
329.157	64.68
329.37	44.2
329.583	66.73
329.796	79.02
330.009	-37.72
330.222	9.39
330.435	95.4
330.648	87.21
330.861	-11.09
331.073	97.45
331.286	72.87
331.499	72.87
331.712	13.48
331.925	27.82
332.138	60.59
332.35	177.32
332.563	17.58
332.776	132.26
332.989	15.53
333.202	95.4
333.414	79.02
333.627	46.25
333.84	-2.9
334.053	56.49
334.265	5.29
334.478	33.96
334.691	13.48
334.903	25.77
335.116	81.07
335.329	87.21
335.541	48.3
335.754	109.74
335.966	46.25
336.179	9.39
336.392	38.06
336.604	42.15
336.817	60.59
337.029	11.43
337.242	-4.95
337.454	38.06
337.667	60.59
337.88	70.83
338.092	64.68
338.305	113.83
338.517	27.82
338.729	105.64
338.942	91.31
339.154	-41.81
339.367	25.77
339.579	113.83
339.792	87.21
340.004	158.89
340.217	48.3
340.429	19.63
340.641	33.96
340.854	-17.24
341.066	-37.72
341.278	79.02
341.491	158.89
341.703	46.25
341.915	79.02
342.128	66.73
342.34	-0.85
342.552	101.55
342.764	21.67
342.977	79.02
343.189	23.72
343.401	83.11
343.613	-39.76
343.826	130.22
344.038	-39.76
344.25	99.5
344.462	89.26
344.674	50.35
344.886	76.97
345.099	103.59
345.311	89.26
345.523	113.83
345.735	5.29
345.947	54.44
346.159	9.39
346.371	89.26
346.583	29.87
346.795	136.36
347.007	-0.85
347.219	122.02
347.431	-15.19
347.643	87.21
347.855	-31.57
348.067	62.63
348.279	-13.14
348.491	58.54
348.703	99.5
348.915	48.3
349.127	74.92
349.339	103.59
349.551	44.2
349.763	15.53
349.975	105.64
350.187	81.07
350.399	119.98
350.61	15.53
350.822	3.24
351.034	38.06
351.246	44.2
351.458	40.11
351.669	64.68
351.881	58.54
352.093	68.78
352.305	210.09
352.517	105.64
352.728	44.2
352.94	27.82
353.152	91.31
353.363	58.54
353.575	44.2
353.787	117.93
353.999	70.83
354.21	144.55
354.422	58.54
354.633	-2.9
354.845	95.4
355.057	48.3
355.268	-4.95
355.48	138.41
355.692	29.87
355.903	44.2
356.115	25.77
356.326	36.01
356.538	89.26
356.749	122.02
356.961	99.5
357.172	5.29
357.384	56.49
357.595	134.31
357.807	46.25
358.018	66.73
358.23	50.35
358.441	85.16
358.653	40.11
358.864	42.15
359.075	7.34
359.287	140.46
359.498	136.36
359.709	56.49
359.921	66.73
360.132	70.83
360.344	5.29
360.555	25.77
360.766	142.5
360.977	-17.24
361.189	38.06
361.4	62.63
361.611	44.2
361.823	119.98
362.034	64.68
362.245	-41.81
362.456	1.19
362.667	91.31
362.879	54.44
363.09	31.91
363.301	62.63
363.512	152.74
363.723	31.91
363.935	3.24
364.146	62.63
364.357	91.31
364.568	93.35
364.779	29.87
364.99	101.55
365.201	11.43
365.412	169.13
365.623	7.34
365.834	70.83
366.045	40.11
366.256	60.59
366.467	21.67
366.678	31.91
366.889	23.72
367.1	29.87
367.311	64.68
367.522	101.55
367.733	38.06
367.944	48.3
368.155	58.54
368.366	99.5
368.577	101.55
368.788	97.45
368.999	76.97
369.209	70.83
369.42	179.37
369.631	189.61
369.842	13.48
370.053	-11.09
370.264	124.07
370.474	95.4
370.685	60.59
370.896	-4.95
371.107	124.07
371.317	48.3
371.528	52.39
371.739	79.02
371.95	99.5
372.16	17.58
372.371	-23.38
372.582	50.35
372.792	83.11
373.003	62.63
373.214	50.35
373.424	95.4
373.635	60.59
373.846	50.35
374.056	109.74
374.267	103.59
374.477	-0.85
374.688	19.63
374.898	38.06
375.109	79.02
375.319	23.72
375.53	101.55
375.74	154.79
375.951	160.94
376.161	79.02
376.372	169.13
376.582	50.35
376.793	138.41
377.003	58.54
377.214	23.72
377.424	62.63
377.635	-2.9
377.845	-13.14
378.055	54.44
378.266	1.19
378.476	42.15
378.686	119.98
378.897	89.26
379.107	33.96
379.317	105.64
379.528	62.63
379.738	119.98
379.948	13.48
380.158	128.17
380.369	46.25
380.579	50.35
380.789	-4.95
380.999	117.93
381.21	48.3
381.42	97.45
381.63	48.3
381.84	124.07
382.05	62.63
382.261	122.02
382.471	107.69
382.681	21.67
382.891	40.11
383.101	99.5
383.311	70.83
383.521	70.83
383.731	115.88
383.941	117.93
384.151	87.21
384.361	64.68
384.571	115.88
384.781	66.73
384.991	160.94
385.201	58.54
385.411	48.3
385.621	89.26
385.831	89.26
386.041	117.93
386.251	126.12
386.461	105.64
386.671	85.16
386.881	95.4
387.091	101.55
387.301	103.59
387.511	91.31
387.72	56.49
387.93	3.24
388.14	50.35
388.35	54.44
388.56	119.98
388.769	128.17
388.979	70.83
389.189	1.19
389.399	134.31
389.609	85.16
389.818	103.59
390.028	64.68
390.238	72.87
390.447	85.16
390.657	29.87
390.867	103.59
391.076	103.59
391.286	138.41
391.496	66.73
391.705	81.07
391.915	119.98
392.125	111.78
392.334	119.98
392.544	177.32
392.753	56.49
392.963	58.54
393.172	140.46
393.382	154.79
393.591	195.75
393.801	46.25
394.01	144.55
394.22	64.68
394.429	103.59
394.639	74.92
394.848	113.83
395.058	107.69
395.267	91.31
395.477	54.44
395.686	152.74
395.895	165.03
396.105	197.8
396.314	148.65
396.524	95.4
396.733	115.88
396.942	48.3
397.152	91.31
397.361	144.55
397.57	101.55
397.78	136.36
397.989	144.55
398.198	136.36
398.407	31.91
398.617	111.78
398.826	156.84
399.035	162.98
399.244	142.5
399.453	81.07
399.663	122.02
399.872	224.42
400.081	99.5
400.29	165.03
400.499	177.32
400.708	181.42
400.917	187.56
401.127	128.17
401.336	124.07
401.545	242.85
401.754	187.56
401.963	201.9
402.172	201.9
402.381	76.97
402.59	177.32
402.799	154.79
403.008	66.73
403.217	218.28
403.426	183.46
403.635	148.65
403.844	126.12
404.053	130.22
404.262	105.64
404.471	234.66
404.68	224.42
404.888	167.08
405.097	212.14
405.306	210.09
405.515	177.32
405.724	177.32
405.933	232.62
406.142	210.09
406.35	312.49
406.559	257.19
406.768	205.99
406.977	277.67
407.185	218.28
407.394	253.09
407.603	296.1
407.812	226.47
408.02	300.2
408.229	349.35
408.438	232.62
408.646	199.85
408.855	357.54
409.064	324.77
409.272	386.21
409.481	318.63
409.69	308.39
409.898	369.83
410.107	429.22
410.315	416.93
410.524	292.01
410.733	455.84
410.941	365.73
411.15	449.7
411.358	453.8
411.567	498.85
411.775	537.76
411.984	468.13
412.192	582.82
412.401	570.53
412.609	642.21
412.818	580.77
413.026	586.91
413.234	611.49
413.443	574.63
413.651	656.54
413.86	652.45
414.068	713.89
414.276	799.9
414.485	703.65
414.693	832.67
414.901	887.97
415.11	781.47
415.318	836.77
415.526	853.15
415.734	926.88
415.943	1006.75
416.151	1051.8
416.359	922.78
416.567	1008.8
416.776	1045.66
416.984	1197.21
417.192	1232.02
417.4	1168.54
417.608	1111.19
417.817	1139.87
418.025	1393.81
418.233	1449.11
418.441	1348.76
418.649	1361.05
418.857	1442.96
419.065	1617.04
419.273	1524.88
419.481	1522.84
419.689	1717.39
419.897	1758.35
420.105	1789.07
420.313	1827.98
420.521	1866.89
420.729	2012.3
420.937	2104.46
421.145	2100.36
421.353	2198.67
421.561	2182.28
421.769	2350.21
421.977	2477.19
422.185	2530.44
422.393	2577.54
422.601	2659.46
422.809	2798.72
423.017	2657.41
423.224	2878.59
423.432	2991.23
423.64	3161.21
423.848	3286.14
424.056	3253.37
424.263	3521.65
424.471	3439.73
424.679	3454.07
424.887	3685.49
425.094	3832.94
425.302	3894.38
425.51	3949.68
425.718	4068.46
425.925	4203.63
426.133	4314.22
426.341	4402.28
426.548	4664.42
426.756	4650.08
426.964	4697.19
427.171	5102.68
427.379	5141.6
427.586	5299.29
427.794	5499.99
428.001	5768.27
428.209	5878.86
428.417	5864.53
428.624	6413.38
428.832	6229.07
429.039	6294.6
429.247	6073.42
429.454	6595.65
429.662	7253.05
429.869	6837.31
430.076	7294.01
430.284	7064.64
430.491	7291.96
430.699	7851.06
430.906	7973.94
431.114	7865.39
431.321	8305.71
431.528	8494.12
431.736	8803.36
431.943	9329.69
432.15	9229.34
432.358	9227.29
432.565	9765.91
432.772	9559.06
432.979	10093.58
433.187	10325.01
433.394	10142.74
433.601	10945.54
433.808	11072.51
434.016	11267.07
434.223	11373.57
434.43	12168.18
434.637	11877.37
434.844	12688.36
435.052	12958.69
435.259	12803.05
435.466	13032.42
435.673	12915.69
435.88	13679.58
436.087	14615.5
436.294	14207.95
436.501	13974.49
436.708	14191.57
436.915	14945.22
437.122	15563.71
437.329	15356.86
437.537	16081.85
437.743	16087.99
437.95	16118.71
438.157	16886.7
438.364	17617.82
438.571	17707.93
438.778	17597.34
438.985	19164.04
439.192	18365.33
439.399	19090.31
439.606	18529.17
439.813	19737.47
440.02	20945.77
440.227	20358
440.433	20288.37
440.64	21166.95
440.847	20923.24
441.054	21314.41
441.261	23165.77
441.467	22518.61
441.674	23300.94
441.881	23843.65
442.088	24070.97
442.294	23401.29
442.501	24062.78
442.708	24640.31
442.914	25477.93
443.121	26499.86
443.328	25795.36
443.534	27742.98
443.741	27130.64
443.948	26741.52
444.154	28881.65
444.361	28664.57
444.568	28848.88
444.774	29025.01
444.981	28969.71
445.187	30079.71
445.394	31310.54
445.6	30962.39
445.807	33721
446.013	32318.14
446.22	33114.8
446.426	34189.98
446.633	34585.24
446.839	35627.66
447.046	34060.96
447.252	36027.01
447.459	36221.57
447.665	36067.97
447.871	37972.58
448.078	39352.91
448.284	37321.33
448.491	38568.54
448.697	39979.59
448.903	40743.48
449.11	40448.58
449.316	40282.69
449.522	40880.7
449.728	42162.73
449.935	42437.16
450.141	42156.58
450.347	43231.77
450.553	41935.4
450.76	42502.69
450.966	43702.8
451.172	43397.65
451.378	44089.87
451.584	43704.85
451.791	45074.94
451.997	44495.36
452.203	45296.12
452.409	45703.67
452.615	45259.26
452.821	43536.91
453.027	43010.59
453.233	45373.94
453.44	43829.77
453.646	44079.63
453.852	44327.43
454.058	45193.72
454.264	43866.64
454.47	44644.87
454.676	43596.31
454.882	45249.02
455.088	41359.92
455.294	41814.57
455.5	42381.86
455.705	42648.1
455.911	41333.3
456.117	40385.09
456.323	40125
456.529	37757.55
456.735	39531.09
456.941	38204
457.147	37931.62
457.352	36860.54
457.558	36057.73
457.764	36467.33
457.97	35799.69
458.176	35189.39
458.381	34880.15
458.587	33473.2
458.793	33428.14
458.999	31464.14
459.204	33747.62
459.41	32836.28
459.616	30489.31
459.821	30810.84
460.027	30397.15
460.233	30319.32
460.438	28441.34
460.644	28971.76
460.85	27292.43
461.055	27071.25
461.261	27284.23
461.466	25144.11
461.672	24439.61
461.878	25887.52
462.083	24322.87
462.289	23743.3
462.494	23515.97
462.7	22715.22
462.905	22238.04
463.111	22899.53
463.316	22770.51
463.522	22520.66
463.727	22332.25
463.932	22418.26
464.138	21947.23
464.343	22322.01
464.549	21637.98
464.754	21967.71
464.959	22057.82
465.165	21594.98
465.37	20833.13
465.575	20286.33
465.781	21250.92
465.986	21373.8
466.191	20394.87
466.397	20095.86
466.602	19190.66
466.807	19989.37
467.012	19954.55
467.218	19821.44
467.423	19778.43
467.628	19878.78
467.833	20339.57
468.038	19436.42
468.244	19215.24
468.449	19946.36
468.654	19344.26
468.859	19067.78
469.064	18938.76
469.269	18609.04
469.474	18383.76
469.679	18715.53
469.885	18307.99
470.09	18570.13
470.295	18236.31
470.5	17914.78
470.705	18097.05
470.91	17484.7
471.115	17494.94
471.32	17912.73
471.525	17644.45
471.73	17122.21
471.935	17107.88
472.139	16462.77
472.344	16901.03
472.549	17060.77
472.754	16495.53
472.959	16167.86
473.164	15676.35
473.369	15801.27
473.574	16196.53
473.778	16051.13
473.983	15827.9
474.188	15776.7
474.393	15133.64
474.598	15287.23
474.802	14814.15
475.007	14943.17
475.212	14887.88
475.417	14547.92
475.621	14310.35
475.826	14543.82
476.031	14285.78
476.235	14066.64
476.44	14197.71
476.645	13827.03
476.849	13867.99
477.054	13622.23
477.259	13368.29
477.463	13261.79
477.668	13259.74
477.872	13458.4
478.077	13259.74
478.282	12835.81
478.486	12618.73
478.691	12528.62
478.895	12473.32
479.1	12538.86
479.304	12407.79
479.509	12106.74
479.713	12289.01
479.918	12082.16
480.122	11914.23
480.326	12067.83
480.531	12022.77
480.735	11678.71
480.94	11777.01
481.144	12125.17
481.348	11523.07
481.553	11572.22
481.757	11473.92
481.961	11641.85
482.166	11613.18
482.37	11828.21
482.574	11379.71
482.778	11588.6
482.983	11764.73
483.187	11531.26
483.391	11541.5
483.595	11346.94
483.8	11295.74
484.004	11650.04
484.208	11713.53
484.412	11402.24
484.616	11453.44
484.821	11449.34
485.025	11346.94
485.229	11490.3
485.433	11179.01
485.637	11265.02
485.841	11412.48
486.045	11353.09
486.249	11525.11
486.453	11295.74
486.657	11555.83
486.861	11617.27
487.065	11267.07
487.269	11453.44
487.473	11201.54
487.677	11521.02
487.881	11820.02
488.085	11457.53
488.289	11527.16
488.493	11377.66
488.697	11471.87
488.901	11523.07
489.105	11594.75
489.309	11527.16
489.512	11588.6
489.716	11631.61
489.92	11695.1
490.124	11725.82
490.328	11772.92
490.531	11572.22
490.735	11803.64
490.939	11707.38
491.143	11805.69
491.346	11789.3
491.55	11981.81
491.754	11731.96
491.958	11981.81
492.161	11944.95
492.365	11903.99
492.569	11924.47
492.772	11996.15
492.976	12088.31
493.18	12297.2
493.383	12344.3
493.587	12229.62
493.79	12487.66
493.994	12458.99
494.197	12399.6
494.401	12424.17
494.605	12733.42
494.808	12669.93
495.012	12956.64
495.215	13149.15
495.419	12864.49
495.622	13077.48
495.825	13100
496.029	13126.63
496.232	13536.22
496.436	13489.12
496.639	13566.94
496.843	13904.85
497.046	13923.29
497.249	14046.16
497.453	14197.71
497.656	14336.98
497.859	14339.02
498.063	14466
498.266	14711.75
498.469	14552.01
498.673	14787.53
498.876	15147.97
499.079	15195.07
499.282	15158.21
499.485	15578.04
499.689	15653.82
499.892	16106.42
500.095	15920.06
500.298	16206.77
500.501	16235.44
500.705	16731.05
500.908	16917.42
501.111	17032.1
501.314	17068.97
501.517	17333.15
501.72	17691.55
501.923	17589.15
502.126	17939.35
502.329	18035.61
502.532	18396.05
502.735	18406.29
502.938	18969.48
503.141	18764.68
503.344	19174.28
503.547	18799.5
503.75	19168.13
503.953	19649.41
504.156	19989.37
504.359	19968.89
504.562	20052.86
504.765	20317.04
504.968	20652.91
505.17	20910.96
505.373	20972.39
505.576	21265.25
505.779	21738.33
505.982	21623.65
506.185	22078.3
506.387	22182.74
506.59	22360.92
506.793	22686.54
506.996	22711.12
507.198	23591.75
507.401	23319.37
507.604	23030.6
507.807	23802.69
508.009	24232.76
508.212	24343.35
508.415	24412.98
508.617	24951.6
508.82	25027.37
509.022	24867.63
509.225	25457.45
509.428	25588.52
509.63	25625.38
509.833	25625.38
510.035	26561.3
510.238	26336.02
510.44	26954.51
510.643	27173.64
510.845	27339.53
511.048	27405.06
511.25	28214.01
511.453	27898.62
511.655	28979.95
511.858	28844.79
512.06	28936.95
512.262	29012.72
512.465	29285.1
512.667	29422.31
512.87	29917.92
513.072	29936.35
513.274	30571.22
513.477	30730.97
513.679	30878.42
513.881	31212.24
514.084	31468.23
514.286	31523.53
514.488	31724.23
514.69	32699.06
514.893	32492.22
515.095	32543.42
515.297	33190.58
515.499	33434.28
515.701	33434.28
515.904	33962.66
516.106	34007.72
516.308	34933.4
516.51	34839.19
516.712	34828.95
516.914	35308.18
517.116	35402.38
517.318	36176.51
517.52	36512.38
517.722	36127.36
517.925	36833.91
518.127	37616.24
518.329	37229.17
518.531	37409.39
518.733	38111.85
518.935	38001.25
519.136	38494.82
519.338	38681.18
519.54	39264.85
519.742	39477.84
519.944	39592.53
520.146	39754.32
520.348	40325.7
520.55	40522.3
520.752	40798.78
520.954	41337.4
521.155	41038.39
521.357	41722.41
521.559	41859.63
521.761	42537.51
521.963	42631.71
522.164	42752.54
522.366	42830.37
522.568	43237.91
522.77	43829.77
522.971	44229.13
523.173	43985.42
523.375	44528.13
523.576	44132.87
523.778	44700.16
523.98	44970.49
524.181	45253.11
524.383	45337.08
524.584	45615.6
524.786	45912.56
524.988	45926.89
525.189	46232.04
525.391	46148.07
525.592	46219.75
525.794	46862.82
525.995	46735.84
526.197	47065.56
526.398	47188.44
526.6	47442.39
526.801	47903.18
527.003	47792.59
527.204	48165.32
527.406	48712.13
527.607	48849.35
527.808	48900.54
528.01	48046.54
528.211	48611.78
528.412	49349.05
528.614	49086.91
528.815	49242.56
529.016	49764.79
529.218	48984.51
529.419	49879.47
529.62	49531.32
529.822	49514.94
530.023	49787.31
530.224	49828.27
530.425	49916.34
530.626	49807.79
530.828	49770.93
531.029	50692.52
531.23	50080.17
531.431	50074.03
531.632	50524.58
531.833	50356.65
532.035	50405.8
532.236	50708.9
532.437	50952.61
532.638	50530.73
532.839	50708.9
533.04	50907.55
533.241	50266.54
533.442	51192.22
533.643	51063.2
533.844	50852.26
534.045	50999.71
534.246	50424.23
534.447	50909.6
534.648	51067.3
534.849	51280.28
535.05	51087.78
535.251	51331.48
535.451	50868.64
535.652	51728.79
535.853	50956.71
536.054	51091.87
536.255	51265.95
536.456	50667.94
536.657	51851.67
536.857	51073.44
537.058	51198.37
537.259	51810.71
537.46	51181.98
537.66	51200.41
537.861	51224.99
538.062	51089.82
538.263	51231.13
538.463	51026.34
538.664	51044.77
538.865	51167.65
539.065	51526.04
539.266	51147.17
539.466	51659.16
539.667	50569.64
539.868	51487.13
540.068	51016.1
540.269	50676.13
540.469	51452.31
540.67	50891.17
540.87	51098.01
541.071	50702.76
541.271	51167.65
541.472	50844.07
541.672	51081.63
541.873	50768.29
542.073	51028.38
542.274	51298.72
542.474	50989.47
542.675	50782.63
542.875	51181.98
543.075	50801.06
543.276	50905.51
543.476	51466.65
543.676	50934.18
543.877	51257.76
544.077	51149.21
544.277	50657.7
544.478	51171.74
544.678	51319.2
544.878	51014.05
545.078	50586.02
545.279	50647.46
545.479	50067.89
545.679	51347.87
545.879	50577.83
546.079	50450.86
546.28	50282.92
546.48	50420.14
546.68	50766.24
546.88	50850.21
547.08	50751.91
547.28	50688.42
547.48	50391.47
547.68	51169.69
547.88	50067.89
548.081	50870.69
548.281	50532.78
548.481	50153.9
548.681	50901.41
548.881	50579.88
549.081	50454.95
549.28	50375.08
549.48	50835.87
549.68	50278.83
549.88	51198.37
550.08	50330.03
550.28	50907.55
550.48	50352.55
550.68	50375.08
550.88	50743.72
551.08	50164.14
551.279	50518.44
551.479	49807.79
551.679	50442.66
551.879	49912.24
552.079	50383.27
552.278	50098.61
552.478	50053.55
552.678	50028.98
552.878	50440.62
553.077	50520.49
553.277	49758.64
553.477	50479.53
553.676	49699.25
553.876	50084.27
554.076	49623.48
554.275	50014.64
554.475	49234.36
554.674	49754.55
554.874	49777.08
555.074	49334.71
555.273	50190.76
555.473	49951.15
555.672	49328.57
555.872	49478.07
556.071	49576.37
556.271	49707.44
556.47	49461.69
556.67	49029.57
556.869	49342.91
557.068	49652.15
557.268	49058.24
557.467	49136.06
557.667	49129.92
557.866	49650.1
558.065	49039.81
558.265	48998.85
558.464	49101.25
558.663	49105.34
558.863	48677.32
559.062	49361.34
559.261	48493
559.461	49357.24
559.66	48191.95
559.859	48867.78
560.058	48048.59
560.258	48628.16
560.457	47841.74
560.656	48525.77
560.855	47989.2
561.054	48237
561.253	47522.26
561.453	47870.42
561.652	47903.18
561.851	48239.05
562.05	47284.7
562.249	47639
562.448	47514.07
562.647	47575.51
562.846	47837.65
563.045	47411.67
563.244	47253.98
563.443	47495.64
563.642	46596.58
563.841	46782.94
564.04	46942.69
564.239	47354.33
564.438	46858.72
564.637	46983.65
564.836	46903.77
565.035	46408.17
565.234	46731.75
565.432	46277.1
565.631	45822.45
565.83	46492.13
566.029	46176.75
566.228	45855.21
566.427	46037.48
566.625	45394.42
566.824	45285.88
567.023	45892.08
567.222	45158.91
567.42	46098.92
567.619	45558.26
567.818	45292.02
568.016	45167.1
568.215	45304.31
568.414	45124.09
568.612	45068.79
568.811	44984.83
569.01	45027.84
569.208	44544.51
569.407	44997.12
569.605	44487.17
569.804	44786.18
570.002	44444.16
570.201	44249.61
570.4	44038.67
570.598	44233.22
570.797	43665.94
570.995	43778.57
571.193	43416.08
571.392	43844.11
571.59	43272.73
571.789	43657.74
571.987	43391.51
572.186	43133.46
572.384	42967.58
572.582	43096.6
572.781	42986.01
572.979	42451.49
573.177	42932.76
573.376	42672.67
573.574	42437.16
573.772	42856.99
573.971	42461.73
574.169	41964.07
574.367	42062.38
574.565	42345
574.763	41710.13
574.962	41746.99
575.16	41353.78
575.358	41507.38
575.556	41273.91
575.754	41919.02
575.952	41271.86
576.151	41771.57
576.349	41007.67
576.547	41218.61
576.745	41200.18
576.943	41019.96
577.141	40903.23
577.339	41040.44
577.537	40796.73
577.735	40763.96
577.933	40059.46
578.131	40401.47
578.329	40088.13
578.527	39735.88
578.725	40335.94
578.923	40219.2
579.121	39815.76
579.319	39897.67
579.516	40020.55
579.714	39629.39
579.912	39660.11
580.11	39373.39
580.308	39606.86
580.506	39342.67
580.704	38787.67
580.901	38988.38
581.099	39522.9
581.297	38701.66
581.495	38677.08
581.692	39092.82
581.89	38414.94
582.088	38552.16
582.285	38355.55
582.483	38548.06
582.681	38529.63
582.878	38238.82
583.076	37880.42
583.274	37937.77
583.471	37626.48
583.669	38013.54
583.866	37462.64
584.064	37741.16
584.262	37120.63
584.459	37409.39
584.657	37538.41
584.854	37190.26
585.052	36964.98
585.249	37206.64
585.447	37069.43
585.644	36938.36
585.841	37057.14
586.039	36315.78
586.236	36434.56
586.434	36205.19
586.631	36430.46
586.828	36328.06
587.026	36227.71
587.223	36065.92
587.42	36153.99
587.618	35730.06
587.815	35433.1
588.012	35623.56
588.21	35406.48
588.407	35629.71
588.604	35410.57
588.801	35226.26
588.999	35404.43
589.196	34802.33
589.393	35162.77
589.59	34552.48
589.787	34552.48
589.984	34640.54
590.182	34298.53
590.379	34716.31
590.576	34091.68
590.773	34380.45
590.97	33925.8
591.167	34319.01
591.364	33563.31
591.561	34050.72
591.758	34009.76
591.955	34280.1
592.152	34009.76
592.349	33311.41
592.546	33598.12
592.743	33952.42
592.94	32717.5
593.137	33202.86
593.334	33190.58
593.531	32991.92
593.727	33112.75
593.924	32895.67
594.121	32500.41
594.318	32991.92
594.515	32170.69
594.712	32955.06
594.908	32639.67
595.105	32436.92
595.302	32094.91
595.499	32033.47
595.696	31623.88
595.892	31855.3
596.089	31728.33
596.286	31865.54
596.482	31814.34
596.679	31492.81
596.876	31640.26
597.072	31627.98
597.269	31351.5
597.466	31423.18
597.662	31099.6
597.859	30767.83
598.055	30810.84
598.252	30413.53
598.448	30878.42
598.645	30827.22
598.841	30481.11
599.038	30663.38
599.234	30597.85
599.431	29934.31
599.627	30208.73
599.824	30278.36
600.02	29838.05
600.217	30036.7
600.413	30024.42
600.609	29715.17
600.806	29645.54
601.002	29518.57
601.198	29125.36
601.395	29467.37
601.591	29291.24
601.787	29407.98
601.984	28842.74
602.18	29410.03
602.376	29225.71
602.572	29131.5
602.769	28506.87
602.965	28844.79
603.161	28867.31
603.357	28498.68
603.553	28658.42
603.75	28412.67
603.946	28214.01
604.142	28281.6
604.338	27955.97
604.534	27998.98
604.73	27671.3
604.926	27857.67
605.122	27921.15
605.318	27548.42
605.514	27421.45
605.71	27474.7
605.906	27431.69
606.102	27431.69
606.298	27388.68
606.494	27423.5
606.69	27044.62
606.886	27212.56
607.082	26678.04
607.278	27392.78
607.474	26716.95
607.67	27417.35
607.866	26485.53
608.062	27153.16
608.257	26626.84
608.453	26856.21
608.649	27003.66
608.845	26465.05
609.041	26475.29
609.236	26540.82
609.432	26186.52
609.628	26540.82
609.824	26309.4
610.019	26180.38
610.215	26233.63
610.411	26200.86
610.606	26307.35
610.802	26096.41
610.998	25731.87
611.193	26047.26
611.389	25785.12
611.584	25828.13
611.78	25787.17
611.976	25873.18
612.171	25596.71
612.367	25500.45
612.562	25373.48
612.758	25213.74
612.953	25072.43
613.149	25588.52
613.344	25191.21
613.539	25502.5
613.735	25328.42
613.93	25318.18
614.126	25113.39
614.321	25236.27
614.517	25049.9
614.712	24775.47
614.907	25115.44
615.103	24789.81
615.298	24830.77
615.493	25160.49
615.688	24654.64
615.884	25240.36
616.079	24386.36
616.274	24836.91
616.47	24388.41
616.665	24394.55
616.86	24394.55
617.055	24232.76
617.25	24208.19
617.445	24384.31
617.641	23853.89
617.836	24331.06
618.031	23814.98
618.226	24032.06
618.421	23737.15
618.616	24046.4
618.811	23595.84
619.006	24038.2
619.201	23270.22
619.396	23681.86
619.591	23337.8
619.786	23726.91
619.981	23180.1
620.176	23262.02
620.371	23075.66
620.566	23245.64
620.761	23022.41
620.956	23038.8
621.151	22317.91
621.346	22965.07
621.541	22344.53
621.735	22631.25
621.93	22362.97
622.125	22303.57
622.32	22029.15
622.515	22063.96
622.709	21629.79
622.904	22291.29
623.099	21717.86
623.294	21625.7
623.488	21533.54
623.683	21373.8
623.878	21121.9
624.072	21381.99
624.267	21373.8
624.462	20984.68
624.656	20771.69
624.851	20740.97
625.046	20661.1
625.24	20527.99
625.435	20444.02
625.629	20353.91
625.824	20212.6
626.018	20226.93
626.213	19733.37
626.407	19987.32
626.602	19690.37
626.796	19800.96
626.991	19784.57
627.185	19432.32
627.38	19039.11
627.574	19127.17
627.768	19301.25
627.963	19039.11
628.157	18807.69
628.352	18920.33
628.546	18451.35
628.74	18848.65
628.935	18334.61
629.129	18580.37
629.323	18299.8
629.517	18242.45
629.712	18316.18
629.906	18000.79
630.1	17869.72
630.294	18129.81
630.489	17976.22
630.683	17867.67
630.877	17519.52
631.071	17613.73
631.265	17697.69
631.459	16972.71
631.653	17183.65
631.848	17226.66
632.042	16999.34
632.236	17062.82
632.43	16954.28
632.624	16898.98
632.818	16835.5
633.012	16499.63
633.206	16618.41
633.4	16518.06
633.594	16067.51
633.788	16145.33
633.982	16231.35
634.176	16317.36
634.369	16112.56
634.563	15932.34
634.757	15848.38
634.951	16251.83
635.145	15766.46
635.339	15801.27
635.533	15571.9
635.726	15559.61
635.92	15348.67
636.114	15516.61
636.308	15391.68
636.501	15143.88
636.695	15145.92
636.889	14953.41
637.083	14932.93
637.276	14988.23
637.47	14638.03
637.664	14638.03
637.857	14715.85
638.051	14586.83
638.244	14556.11
638.438	14259.15
638.632	14429.13
638.825	14119.89
639.019	14144.47
639.212	14119.89
639.406	14103.51
639.599	13857.75
639.793	14023.64
639.986	13755.35
640.18	13870.04
640.373	13915.09
640.567	13700.06
640.76	13792.22
640.954	13480.92
641.147	13450.21
641.34	13272.03
641.534	13243.36
641.727	13143.01
641.92	13022.18
642.114	13194.21
642.307	12880.87
642.5	13063.14
642.694	12848.1
642.887	12831.72
643.08	13050.85
643.273	12977.12
643.467	12334.06
643.66	12530.67
643.853	12381.17
644.046	12151.79
644.239	12399.6
644.432	12442.6
644.626	12303.34
644.819	11951.09
645.012	12082.16
645.205	12014.58
645.398	12006.39
645.591	11918.32
645.784	11973.62
645.977	11787.25
646.17	11760.63
646.363	11758.58
646.556	11492.35
646.749	11615.23
646.942	11619.32
647.135	11582.46
647.328	11465.72
647.521	11365.37
647.714	11252.73
647.907	11125.76
648.099	11052.03
648.292	11289.6
648.485	10959.88
648.678	10910.72
648.871	10970.12
649.064	10855.43
649.256	10888.2
649.449	10701.83
649.642	10658.82
649.835	10648.58
650.027	10664.97
650.22	10607.62
650.413	10271.76
650.605	10345.48
650.798	10288.14
650.991	10318.86
651.183	10171.41
651.376	10167.31
651.568	10200.08
651.761	10089.49
651.954	10066.96
652.146	10083.34
652.339	9997.33
652.531	9999.38
652.724	9913.36
652.916	9640.98
653.109	9606.17
653.301	9845.78
653.494	9767.96
653.686	9532.44
653.879	9735.19
654.071	9516.06
654.263	9358.36
654.456	9280.54
654.648	9524.25
654.84	9114.66
655.033	9286.68
655.225	9163.81
655.417	9174.05
655.61	9188.38
655.802	9188.38
655.994	9124.9
656.186	9055.26
656.379	8789.03
656.571	8977.44
656.763	8954.91
656.955	8647.72
657.148	8911.91
657.34	8889.38
657.532	8602.66
657.724	8614.95
657.916	8692.77
658.108	8717.35
658.3	8586.28
658.492	8479.79
658.684	8336.43
658.876	8399.91
659.068	8297.52
659.26	8336.43
659.452	8447.02
659.644	8221.74
659.836	8240.17
660.028	7967.79
660.22	7943.22
660.412	8049.71
660.604	8062
660.796	7904.31
660.988	7982.13
661.18	7920.69
661.372	7717.94
661.563	8080.43
661.755	7531.58
661.947	7816.24
662.139	7699.51
662.331	7656.5
662.522	7597.11
662.714	7621.69
662.906	7449.66
663.097	7472.18
663.289	7318.59
663.481	7369.79
663.673	7504.95
663.864	7343.16
664.056	7402.55
664.247	7255.1
664.439	7208
664.631	7455.8
664.822	7541.82
665.014	7283.77
665.205	7216.19
665.397	7156.8
665.588	7205.95
665.78	6974.53
665.971	6995.01
666.163	7072.83
666.354	7058.49
666.546	6894.66
666.737	6931.52
666.929	6941.76
667.12	6929.47
667.311	6847.55
667.503	6812.74
667.694	6833.22
667.885	6855.75
668.077	6751.3
668.268	6718.53
668.459	6669.38
668.651	6630.47
668.842	6808.64
669.033	6673.48
669.224	6517.83
669.416	6685.76
669.607	6609.99
669.798	6370.38
669.989	6636.61
670.18	6460.49
670.371	6386.76
670.563	6370.38
670.754	6562.89
670.945	6464.58
671.136	6417.48
671.327	6519.88
671.518	6249.55
671.709	6411.34
671.9	6497.35
672.091	6194.25
672.282	6206.54
672.473	6220.88
672.664	6272.07
672.855	6341.71
673.046	6124.62
673.237	6206.54
673.428	6110.29
673.619	6216.78
673.809	6224.97
674	6079.57
674.191	6265.93
674.382	6145.1
674.573	6089.81
674.764	6179.92
674.954	6001.74
675.145	6038.61
675.336	5934.16
675.527	5975.12
675.717	6075.47
675.908	6093.9
676.099	5946.45
676.289	6024.27
676.48	6011.98
676.671	5971.02
676.861	5936.21
677.052	5887.06
677.243	5942.35
677.433	5932.11
677.624	6052.94
677.814	5940.3
678.005	6091.85
678.195	6032.46
678.386	5792.85
678.576	5809.23
678.767	6038.61
678.957	5934.16
679.148	6042.7
679.338	5928.02
679.529	5870.67
679.719	5870.67
679.909	5971.02
680.1	5905.49
680.29	5876.82
680.481	5723.22
680.671	5882.96
680.861	5764.18
681.052	5784.66
681.242	5776.47
681.432	5758.03
681.622	5637.2
681.813	5895.25
682.003	5737.56
682.193	5710.93
682.383	5534.81
682.573	5798.99
682.764	5749.84
682.954	5780.56
683.144	5694.55
683.334	5534.81
683.524	5651.54
683.714	5725.27
683.904	5641.3
684.094	5588.05
684.284	5686.36
684.474	5665.88
684.664	5524.57
684.854	5612.63
685.044	5477.46
685.234	5381.21
685.424	5672.02
685.614	5684.31
685.804	5510.23
685.994	5403.74
686.184	5524.57
686.374	5522.52
686.564	5463.13
686.753	5471.32
686.943	5213.28
687.133	5366.87
687.323	5348.44
687.513	5297.24
687.702	5366.87
687.892	5307.48
688.082	5295.19
688.272	5178.46
688.461	5209.18
688.651	5155.93
688.841	5129.31
689.03	5117.02
689.22	5108.83
689.41	5102.68
689.599	5020.77
689.789	5102.68
689.979	4928.61
690.168	5176.41
690.358	4865.12
690.547	4875.36
690.737	4785.25
690.926	4932.7
691.116	4895.84
691.305	4871.26
691.495	4734.05
691.684	4680.8
691.874	4865.12
692.063	4600.93
692.252	4783.2
692.442	4715.62
692.631	4668.52
692.82	4574.31
693.01	4615.27
693.199	4707.43
693.388	4682.85
693.578	4588.64
693.767	4568.16
693.956	4525.16
694.146	4422.76
694.335	4428.9
694.524	4441.19
694.713	4400.23
694.902	4318.31
695.092	4441.19
695.281	4224.11
695.47	4496.49
695.659	4265.07
695.848	4291.69
696.037	4289.64
696.226	4238.44
696.415	4455.53
696.604	4306.02
696.793	4150.38
696.982	4195.43
697.171	4240.49
697.36	4125.8
697.549	4043.88
697.738	3982.45
697.927	4103.28
698.116	4181.1
698.305	4113.52
698.494	4209.77
698.683	4330.6
698.872	4351.08
699.061	4127.85
699.25	4064.36
699.438	4156.52
699.627	4099.18
699.816	4281.45
700.005	4062.32
700.193	4047.98
700.382	4158.57
700.571	4168.81
700.76	4011.12
700.948	4070.51
701.137	4129.9
701.326	4191.34
701.514	4134
701.703	4109.42
701.892	4017.26
702.08	4242.54
702.269	4117.61
702.457	3951.73
702.646	3955.82
702.834	4043.88
703.023	3966.06
703.212	4109.42
703.4	4070.51
703.589	3898.48
703.777	3996.78
703.965	4052.08
704.154	3923.05
704.342	4029.55
704.531	4035.69
704.719	3931.25
704.907	3880.05
705.096	3972.21
705.284	3941.49
705.472	4062.32
705.661	4142.19
705.849	4127.85
706.037	3951.73
706.226	3959.92
706.414	4095.08
706.602	3961.97
706.79	4086.89
706.979	4031.6
707.167	4084.84
707.355	3873.9
707.543	4011.12
707.731	3982.45
707.919	4056.17
708.107	3916.91
708.296	3978.35
708.484	4031.6
708.672	4031.6
708.86	4076.65
709.048	4007.02
709.236	3906.67
709.424	4060.27
709.612	3986.54
709.8	4039.79
709.988	3978.35
710.176	4074.6
710.364	4154.48
710.551	4031.6
710.739	3894.38
710.927	4004.97
711.115	4066.41
711.303	4093.04
711.491	3951.73
711.679	3970.16
711.866	4150.38
712.054	4039.79
712.242	4015.21
712.43	4078.7
712.617	4191.34
712.805	4050.03
712.993	4111.47
713.181	4004.97
713.368	3972.21
713.556	4158.57
713.744	3933.29
713.931	4203.63
714.119	3964.01
714.306	4033.65
714.494	3912.81
714.682	4142.19
714.869	4019.31
715.057	4111.47
715.244	3994.73
715.432	4244.59
715.619	4138.09
715.807	4156.52
715.994	4201.58
716.182	4148.33
716.369	4082.8
716.556	4154.48
716.744	4086.89
716.931	4052.08
717.119	4174.95
717.306	4174.95
717.493	4074.6
717.681	4007.02
717.868	3994.73
718.055	3986.54
718.242	4281.45
718.43	4150.38
718.617	4217.96
718.804	4127.85
718.991	4387.94
719.179	4158.57
719.366	4201.58
719.553	4291.69
719.74	4181.1
719.927	4326.5
720.114	4215.91
720.301	4158.57
720.488	4097.13
720.676	4150.38
720.863	4344.94
721.05	4316.26
721.237	4199.53
721.424	4283.5
721.611	4187.24
721.798	4224.11
721.985	4318.31
722.172	4148.33
722.358	4234.35
722.545	4346.98
722.732	4226.15
722.919	4179.05
723.106	4183.15
723.293	4199.53
723.48	4209.77
723.667	4250.73
723.853	4166.76
724.04	4154.48
724.227	4322.41
724.414	4406.38
724.6	4312.17
724.787	4228.2
724.974	4207.72
725.161	4361.32
725.347	4226.15
725.534	4140.14
725.72	4306.02
725.907	4265.07
726.094	4199.53
726.28	4199.53
726.467	4191.34
726.653	4193.39
726.84	4381.8
727.027	4453.48
727.213	4197.48
727.4	4283.5
727.586	4283.5
727.773	4256.87
727.959	4398.18
728.145	4346.98
728.332	4295.79
728.518	4293.74
728.705	4242.54
728.891	4260.97
729.077	4134
729.264	4154.48
729.45	4303.98
729.636	4426.86
729.823	4297.83
730.009	4410.47
730.195	4191.34
730.382	4324.46
730.568	4383.85
730.754	4318.31
730.94	4322.41
731.126	4303.98
731.313	4297.83
731.499	4396.14
731.685	4398.18
731.871	4488.29
732.057	4322.41
732.243	4289.64
732.429	4410.47
732.615	4387.94
732.801	4344.94
732.987	4467.81
733.173	4265.07
733.359	4330.6
733.545	4330.6
733.731	4121.71
733.917	4242.54
734.103	4306.02
734.289	4265.07
734.475	4367.46
734.661	4461.67
734.847	4303.98
735.033	4328.55
735.219	4269.16
735.404	4275.31
735.59	4203.63
735.776	4248.68
735.962	4215.91
736.148	4441.19
736.333	4334.7
736.519	4017.26
736.705	4375.66
736.89	4136.04
737.076	4303.98
737.262	4170.86
737.447	4220.01
737.633	4170.86
737.819	4193.39
738.004	4265.07
738.19	4242.54
738.375	4185.19
738.561	4330.6
738.747	4138.09
738.932	4281.45
739.118	4158.57
739.303	4336.74
739.489	4142.19
739.674	4193.39
739.859	4103.28
740.045	4127.85
740.23	4197.48
740.416	4019.31
740.601	4123.76
740.786	3988.59
740.972	4045.93
741.157	4134
741.342	3984.49
741.528	4007.02
741.713	3894.38
741.898	3959.92
742.084	3976.3
742.269	4031.6
742.454	4013.17
742.639	4191.34
742.824	3900.53
743.01	4093.04
743.195	3998.83
743.38	3923.05
743.565	3798.13
743.75	3992.69
743.935	3822.7
744.12	3916.91
744.305	3767.41
744.49	3839.09
744.675	3863.66
744.86	3810.42
745.045	3806.32
745.23	3855.47
745.415	3617.91
745.6	3671.15
745.785	3671.15
745.97	3615.86
746.155	3724.4
746.34	3705.97
746.525	3583.09
746.71	3748.98
746.895	3525.75
747.079	3421.3
747.264	3478.65
747.449	3503.22
747.634	3562.61
747.819	3609.72
748.003	3349.62
748.188	3345.53
748.373	3497.08
748.557	3429.49
748.742	3359.86
748.927	3415.16
749.111	3220.6
749.296	3259.51
749.481	3239.03
749.665	3222.65
749.85	3325.05
750.034	3415.16
750.219	3239.03
750.404	3167.35
750.588	3239.03
750.773	3165.31
750.957	3142.78
751.141	3122.3
751.326	3130.49
751.51	2870.4
751.695	3030.14
751.879	2983.04
752.064	3050.62
752.248	2948.22
752.432	3052.67
752.617	2903.17
752.801	2919.55
752.985	2888.83
753.17	2978.94
753.354	2827.39
753.538	2860.16
753.722	2815.1
753.907	2774.14
754.091	2638.98
754.275	2755.71
754.459	2749.57
754.643	2794.62
754.828	2761.86
755.012	2651.27
755.196	2622.59
755.38	2636.93
755.564	2696.32
755.748	2522.24
755.932	2688.13
756.116	2434.18
756.3	2600.07
756.484	2464.9
756.668	2622.59
756.852	2409.61
757.036	2473.09
757.22	2487.43
757.404	2393.22
757.588	2540.68
757.772	2425.99
757.956	2356.36
758.14	2432.13
758.323	2348.17
758.507	2286.73
758.691	2288.78
758.875	2382.98
759.059	2227.34
759.242	2339.97
759.426	2221.19
759.61	2249.86
759.794	2145.42
759.977	2213
760.161	2350.21
760.345	2258.06
760.528	2186.38
760.712	2184.33
760.895	2047.12
761.079	2147.47
761.263	2120.84
761.446	2122.89
761.63	2098.31
761.813	2233.48
761.997	2034.83
762.18	2036.88
762.364	2010.25
762.547	2047.12
762.731	2061.45
762.914	1973.39
763.098	2061.45
763.281	1997.96
763.464	1942.67
763.648	2081.93
763.831	1891.47
764.015	1930.38
764.198	1977.48
764.381	1862.8
764.564	1914
764.748	1950.86
764.931	1903.76
765.114	1959.05
765.297	1989.77
765.481	1893.52
765.664	1727.63
765.847	1834.13
766.03	1875.09
766.213	1879.18
766.397	1817.74
766.58	1836.17
766.763	1776.78
766.946	1750.16
767.129	1709.2
767.312	1805.46
767.495	1807.5
767.678	1813.65
767.861	1684.62
768.044	1741.97
768.227	1672.34
768.41	1793.17
768.593	1741.97
768.776	1676.43
768.959	1655.95
769.142	1688.72
769.324	1602.71
769.507	1639.57
769.69	1686.67
769.873	1639.57
770.056	1672.34
770.239	1735.82
770.421	1727.63
770.604	1690.77
770.787	1643.67
770.97	1516.69
771.152	1580.18
771.335	1574.03
771.518	1539.22
771.7	1719.44
771.883	1612.95
772.066	1524.88
772.248	1539.22
772.431	1545.36
772.613	1574.03
772.796	1445.01
772.978	1469.59
773.161	1516.69
773.343	1457.3
773.526	1481.88
773.708	1473.68
773.891	1356.95
774.073	1414.29
774.256	1492.12
774.438	1442.96
774.621	1379.48
774.803	1488.02
774.985	1350.81
775.168	1295.51
775.35	1367.19
775.532	1348.76
775.715	1313.94
775.897	1377.43
776.079	1250.46
776.261	1324.18
776.444	1258.65
776.626	1332.37
776.808	1234.07
776.99	1285.27
777.173	1285.27
777.355	1250.46
777.537	1277.08
777.719	1162.39
777.901	1234.07
778.083	1172.63
778.265	1270.94
778.447	1240.22
778.629	1150.11
778.811	1293.46
778.993	1195.16
779.175	1221.78
779.357	1193.11
779.539	1086.62
779.721	1043.61
779.903	1105.05
780.085	1053.85
780.267	1148.06
780.449	1016.99
780.631	1162.39
780.812	1176.73
780.994	1039.51
781.176	1103
781.358	1037.47
781.54	1012.89
781.721	978.08
781.903	1023.13
782.085	963.74
782.267	1059.99
782.448	955.55
782.63	920.73
782.812	990.36
782.993	1035.42
783.175	957.6
783.357	926.88
783.538	924.83
783.72	922.78
783.901	867.49
784.083	971.93
784.264	906.4
784.446	900.25
784.627	826.53
784.809	810.14
784.99	887.97
785.172	939.16
785.353	908.44
785.535	816.29
785.716	810.14
785.897	871.58
786.079	767.13
786.26	844.96
786.441	924.83
786.623	785.57
786.804	752.8
786.985	820.38
787.167	816.29
787.348	804
787.529	849.05
787.71	822.43
787.891	740.51
788.073	726.18
788.254	728.22
788.435	777.37
788.616	767.13
788.797	711.84
788.978	717.98
789.159	652.45
789.34	660.64
789.522	646.3
789.703	720.03
789.884	658.59
790.065	734.37
790.246	713.89
790.427	658.59
790.607	697.5
790.788	670.88
790.969	586.91
791.15	578.72
791.331	656.54
791.512	595.11
791.693	648.35
791.874	681.12
792.054	726.18
792.235	586.91
792.416	537.76
792.597	548
792.778	658.59
792.958	705.7
793.139	685.22
793.32	648.35
793.5	545.95
793.681	666.78
793.862	660.64
794.042	494.76
794.223	492.71
794.404	521.38
794.584	480.42
794.765	529.57
794.945	545.95
795.126	611.49
795.306	558.24
795.487	517.28
795.667	535.71
795.848	607.39
796.028	531.62
796.209	554.15
796.389	562.34
796.57	490.66
796.75	480.42
796.93	511.14
797.111	521.38
797.291	564.39
797.471	533.67
797.652	492.71
797.832	496.8
798.012	531.62
798.192	482.47
798.373	402.6
798.553	492.71
798.733	410.79
798.913	502.95
799.093	500.9
799.274	470.18
799.454	447.65
799.634	478.37
799.814	511.14
799.994	478.37
800.174	498.85
800.354	425.12
800.534	455.84
800.714	556.19
800.894	388.26
801.074	453.8
801.254	408.74
801.434	482.47
801.614	402.6
801.794	373.92
801.974	1303.7
802.154	349.35
802.334	492.71
802.514	472.23
802.693	418.98
802.873	394.4
803.053	480.42
803.233	386.21
803.413	314.53
803.592	361.64
803.772	357.54
803.952	445.6
804.131	367.78
804.311	324.77
804.491	382.12
804.67	410.79
804.85	367.78
805.03	349.35
805.209	318.63
805.389	343.21
805.568	330.92
805.748	359.59
805.928	335.01
806.107	371.88
806.287	396.45
806.466	480.42
806.646	406.69
806.825	357.54
807.004	382.12
807.184	359.59
807.363	414.88
807.543	326.82
807.722	302.25
807.901	246.95
808.081	375.97
808.26	349.35
808.439	390.31
808.619	330.92
808.798	330.92
808.977	332.97
809.156	345.25
809.336	287.91
809.515	371.88
809.694	378.02
809.873	324.77
810.052	347.3
810.231	359.59
810.411	316.58
810.59	378.02
810.769	382.12
810.948	380.07
811.127	261.29
811.306	292.01
811.485	261.29
811.664	437.41
811.843	314.53
812.022	267.43
812.201	275.62
812.38	302.25
812.559	292.01
812.737	324.77
812.916	216.23
813.095	300.2
813.274	308.39
813.453	249
813.632	277.67
813.811	339.11
813.989	283.81
814.168	283.81
814.347	193.7
814.526	236.71
814.704	318.63
814.883	388.26
815.062	167.08
815.24	285.86
815.419	230.57
815.598	265.38
815.776	152.74
815.955	255.14
816.133	115.88
816.312	304.29
816.49	240.81
816.669	263.33
816.847	308.39
817.026	296.1
817.204	244.9
817.383	208.04
817.561	154.79
817.74	242.85
817.918	208.04
818.097	230.57
818.275	244.9
818.453	302.25
818.632	210.09
818.81	205.99
818.988	251.05
819.167	226.47
819.345	244.9
819.523	195.75
819.701	244.9
819.879	261.29
820.058	275.62
820.236	183.46
820.414	269.48
820.592	199.85
820.77	246.95
820.948	210.09
821.127	230.57
821.305	181.42
821.483	232.62
821.661	279.72
821.839	171.18
822.017	150.7
822.195	238.76
822.373	283.81
822.551	230.57
822.729	228.52
822.907	255.14
823.085	232.62
823.262	150.7
823.44	113.83
823.618	205.99
823.796	210.09
823.974	197.8
824.152	226.47
824.329	181.42
824.507	113.83
824.685	294.05
824.863	152.74
825.04	226.47
825.218	269.48
825.396	136.36
825.574	124.07
825.751	169.13
825.929	249
826.107	203.94
826.284	244.9
826.462	179.37
826.639	142.5
826.817	189.61
826.994	95.4
827.172	140.46
827.349	212.14
827.527	167.08
827.704	177.32
827.882	205.99
828.059	107.69
828.237	218.28
828.414	165.03
828.591	38.06
828.769	193.7
828.946	158.89
829.124	160.94
829.301	218.28
829.478	146.6
829.655	183.46
829.833	148.65
830.01	97.45
830.187	122.02
830.364	175.27
830.542	165.03
830.719	197.8
830.896	126.12
831.073	169.13
831.25	185.51
831.427	201.9
831.604	48.3
831.782	128.17
831.959	113.83
832.136	132.26
832.313	64.68
832.49	218.28
832.667	85.16
832.844	126.12
833.021	173.22
833.198	138.41
833.374	160.94
833.551	81.07
833.728	132.26
833.905	165.03
834.082	111.78
834.259	136.36
834.436	154.79
834.612	122.02
834.789	130.22
834.966	136.36
835.143	111.78
835.319	111.78
835.496	105.64
835.673	128.17
835.85	128.17
836.026	107.69
836.203	111.78
836.38	113.83
836.556	72.87
836.733	66.73
836.909	195.75
837.086	165.03
837.262	1.19
837.439	46.25
837.616	81.07
837.792	117.93
837.968	138.41
838.145	83.11
838.321	171.18
838.498	156.84
838.674	158.89
838.851	119.98
839.027	46.25
839.203	68.78
839.38	154.79
839.556	83.11
839.732	167.08
839.909	72.87
840.085	113.83
840.261	113.83
840.437	117.93
840.614	36.01
840.79	160.94
840.966	111.78
841.142	150.7
841.318	29.87
841.494	140.46
841.671	115.88
841.847	83.11
842.023	42.15
842.199	136.36
842.375	130.22
842.551	97.45
842.727	101.55
842.903	138.41
843.079	193.7
843.255	105.64
843.431	185.51
843.607	95.4
843.783	23.72
843.959	165.03
844.134	64.68
844.31	119.98
844.486	87.21
844.662	103.59
844.838	91.31
845.013	138.41
845.189	95.4
845.365	93.35
845.541	83.11
845.716	74.92
845.892	177.32
846.068	89.26
846.244	36.01
846.419	128.17
846.595	25.77
846.77	-9.05
846.946	136.36
847.122	66.73
847.297	13.48
847.473	138.41
847.648	-35.67
847.824	25.77
847.999	66.73
848.175	38.06
848.35	111.78
848.526	150.7
848.701	119.98
848.876	193.7
849.052	107.69
849.227	21.67
849.403	64.68
849.578	62.63
849.753	85.16
849.929	66.73
850.104	64.68
850.279	97.45
850.454	99.5
850.63	56.49
850.805	122.02
850.98	99.5
851.155	70.83
851.33	156.84
851.505	-19.29
851.681	95.4
851.856	56.49
852.031	87.21
852.206	76.97
852.381	74.92
852.556	64.68
852.731	91.31
852.906	87.21
853.081	117.93
853.256	109.74
853.431	64.68
853.606	31.91
853.781	29.87
853.956	-43.86
854.131	15.53
854.305	13.48
854.48	-19.29
854.655	50.35
854.83	40.11
855.005	107.69
855.18	70.83
855.354	60.59
855.529	21.67
855.704	56.49
855.879	105.64
856.053	-2.9
856.228	40.11
856.403	-52.05
856.577	99.5
856.752	33.96
856.926	181.42
857.101	111.78
857.276	27.82
857.45	66.73
857.625	187.56
857.799	46.25
857.974	1.19
858.148	50.35
858.323	87.21
858.497	-15.19
858.672	52.39
858.846	46.25
859.02	122.02
859.195	21.67
859.369	56.49
859.543	95.4
859.718	83.11
859.892	105.64
860.066	38.06
860.241	50.35
860.415	33.96
860.589	19.63
860.763	70.83
860.938	27.82
861.112	50.35
861.286	-21.33
861.46	87.21
861.634	56.49
861.808	54.44
861.982	-43.86
862.157	31.91
862.331	48.3
862.505	29.87
862.679	33.96
862.853	36.01
863.027	-80.72
863.201	66.73
863.375	17.58
863.549	72.87
863.722	42.15
863.896	48.3
864.07	21.67
864.244	-15.19
864.418	46.25
864.592	115.88
864.766	50.35
864.939	15.53
865.113	74.92
865.287	70.83
865.461	17.58
865.634	-2.9
865.808	134.31
865.982	-43.86
866.156	113.83
866.329	-37.72
866.503	95.4
866.676	29.87
866.85	66.73
867.024	76.97
867.197	91.31
867.371	1.19
867.544	50.35
867.718	11.43
867.891	33.96
868.065	13.48
868.238	68.78
868.412	177.32
868.585	29.87
868.759	-9.05
868.932	-2.9
869.105	33.96
869.279	62.63
869.452	-9.05
869.625	7.34
869.799	79.02
869.972	29.87
870.145	76.97
870.319	87.21
870.492	29.87
870.665	-21.33
870.838	52.39
871.011	-64.34
871.185	23.72
871.358	7.34
871.531	56.49
871.704	72.87
871.877	52.39
872.05	38.06
872.223	-11.09
872.396	21.67
872.569	-0.85
872.742	3.24
872.915	105.64
873.088	-37.72
873.261	-52.05
873.434	70.83
873.607	11.43
873.78	33.96
873.953	-70.48
874.126	70.83
874.299	40.11
874.471	29.87
874.644	46.25
874.817	79.02
874.99	19.63
875.163	-2.9
875.335	103.59
875.508	46.25
875.681	101.55
875.853	27.82
876.026	11.43
876.199	-13.14
876.371	68.78
876.544	46.25
876.717	33.96
876.889	-2.9
877.062	56.49
877.234	40.11
877.407	33.96
877.579	-7
877.752	62.63
877.924	52.39
878.097	21.67
878.269	31.91
878.442	-4.95
878.614	60.59
878.786	68.78
878.959	-29.52
879.131	52.39
879.303	-68.44
879.476	-50
879.648	66.73
879.82	60.59
879.993	1.19
880.165	-31.57
880.337	-35.67
880.509	44.2
880.681	-41.81
880.854	25.77
881.026	58.54
881.198	152.74
881.37	-43.86
881.542	9.39
881.714	31.91
881.886	38.06
882.058	11.43
882.23	21.67
882.402	-25.43
882.574	36.01
882.746	101.55
882.918	27.82
883.09	91.31
883.262	25.77
883.434	-4.95
883.606	-2.9
883.778	58.54
883.95	95.4
884.122	81.07
884.293	85.16
884.465	23.72
884.637	81.07
884.809	15.53
884.98	93.35
885.152	-50
885.324	50.35
885.496	-74.58
885.667	23.72
885.839	-2.9
886.011	58.54
886.182	48.3
886.354	21.67
886.525	58.54
886.697	33.96
886.869	-4.95
887.04	-15.19
887.212	103.59
887.383	52.39
887.555	66.73
887.726	33.96
887.897	-25.43
888.069	-82.77
888.24	36.01
888.412	85.16
888.583	9.39
888.754	-4.95
888.926	-19.29
889.097	31.91
889.268	-37.72
889.44	74.92
889.611	-25.43
889.782	44.2
889.953	-60.24
890.125	62.63
890.296	15.53
890.467	-19.29
890.638	1.19
890.809	-2.9
890.98	-50
891.151	40.11
891.323	-2.9
891.494	23.72
891.665	5.29
891.836	13.48
892.007	23.72
892.178	48.3
892.349	-41.81
892.52	15.53
892.691	-0.85
892.862	-35.67
893.032	-72.53
893.203	31.91
893.374	46.25
893.545	91.31
893.716	-17.24
893.887	85.16
894.057	-66.39
894.228	27.82
894.399	-4.95
894.57	44.2
894.74	83.11
894.911	-15.19
895.082	17.58
895.253	-35.67
895.423	48.3
895.594	62.63
895.764	27.82
895.935	-4.95
896.106	74.92
896.276	-29.52
896.447	58.54
896.617	-27.48
896.788	-7
896.958	-43.86
897.129	-19.29
897.299	-60.24
897.47	87.21
897.64	105.64
897.81	15.53
897.981	136.36
898.151	13.48
898.322	15.53
898.492	46.25
898.662	-7
898.832	-2.9
899.003	9.39
899.173	74.92
899.343	-23.38
899.513	-33.62
