Data from USB4F104151__40__13-05-15-285.txt Node

Date: Fri Mar 14 13:05:15 EDT 2025
User: louis
Spectrometer: USB4F10415
Trigger mode: 4
Integration Time (sec): 4.000000E-2
Scans to average: 1
Electric dark correction enabled: true
Nonlinearity correction enabled: false
Boxcar width: 0
XAxis mode: Wavelengths
Number of Pixels in Spectrum: 3648
>>>>>Begin Spectral Data<<<<<
178.204	-139.77
178.424	-139.77
178.644	-139.77
178.864	-197.12
179.084	-158.21
179.304	7.68
179.524	-41.47
179.744	-41.47
179.964	58.88
180.184	-37.38
180.404	30.21
180.624	-35.33
180.844	42.5
181.064	-90.62
181.283	56.83
181.503	17.92
181.723	32.26
181.943	5.63
182.163	40.45
182.383	40.45
182.602	69.12
182.822	95.74
183.042	62.98
183.262	42.5
183.482	34.3
183.701	19.97
183.921	26.11
184.141	-0.51
184.361	95.74
184.58	60.93
184.8	-57.86
185.02	44.54
185.239	91.65
185.459	-8.7
185.679	65.02
185.898	-43.52
186.118	136.7
186.338	50.69
186.557	44.54
186.777	28.16
186.997	56.83
187.216	-23.04
187.436	196.09
187.655	19.97
187.875	26.11
188.095	48.64
188.314	52.74
188.534	146.94
188.753	42.5
188.973	75.26
189.192	52.74
189.412	38.4
189.631	85.5
189.851	85.5
190.07	32.26
190.29	73.21
190.509	-10.75
190.729	103.93
190.948	75.26
191.168	196.09
191.387	56.83
191.607	-27.14
191.826	48.64
192.045	22.02
192.265	48.64
192.484	97.79
192.704	-45.57
192.923	7.68
193.142	157.18
193.362	1.54
193.581	144.89
193.8	13.82
194.02	40.45
194.239	52.74
194.458	-14.85
194.678	52.74
194.897	52.74
195.116	-4.61
195.335	44.54
195.555	52.74
195.774	-14.85
195.993	65.02
196.212	24.06
196.432	13.82
196.651	24.06
196.87	5.63
197.089	194.05
197.308	36.35
197.528	71.17
197.747	-8.7
197.966	-4.61
198.185	34.3
198.404	34.3
198.623	69.12
198.842	81.41
199.062	67.07
199.281	101.89
199.5	97.79
199.719	32.26
199.938	60.93
200.157	32.26
200.376	48.64
200.595	97.79
200.814	50.69
201.033	56.83
201.252	44.54
201.471	-47.62
201.69	101.89
201.909	122.37
202.128	99.84
202.347	81.41
202.566	26.11
202.785	65.02
203.004	1.54
203.223	65.02
203.442	153.09
203.661	-14.85
203.879	-49.66
204.098	28.16
204.317	1.54
204.536	34.3
204.755	40.45
204.974	79.36
205.193	26.11
205.411	101.89
205.63	42.5
205.849	97.79
206.068	60.93
206.287	-0.51
206.505	126.46
206.724	114.17
206.943	24.06
207.162	58.88
207.381	69.12
207.599	126.46
207.818	32.26
208.037	-39.42
208.255	50.69
208.474	116.22
208.693	60.93
208.911	42.5
209.13	36.35
209.349	93.69
209.567	105.98
209.786	81.41
210.005	81.41
210.223	56.83
210.442	17.92
210.661	-12.8
210.879	110.08
211.098	-64
211.316	77.31
211.535	36.35
211.753	42.5
211.972	15.87
212.191	28.16
212.409	48.64
212.628	40.45
212.846	17.92
213.065	110.08
213.283	73.21
213.502	71.17
213.72	48.64
213.938	42.5
214.157	93.69
214.375	26.11
214.594	-37.38
214.812	114.17
215.031	60.93
215.249	-12.8
215.467	28.16
215.686	28.16
215.904	99.84
216.122	36.35
216.341	34.3
216.559	7.68
216.778	54.78
216.996	91.65
217.214	-41.47
217.432	32.26
217.651	-57.86
217.869	40.45
218.087	81.41
218.306	1.54
218.524	17.92
218.742	85.5
218.96	17.92
219.179	48.64
219.397	60.93
219.615	91.65
219.833	52.74
220.051	34.3
220.27	75.26
220.488	58.88
220.706	24.06
220.924	-10.75
221.142	54.78
221.36	46.59
221.578	26.11
221.796	-23.04
222.015	60.93
222.233	19.97
222.451	75.26
222.669	-0.51
222.887	65.02
223.105	69.12
223.323	-4.61
223.541	-4.61
223.759	28.16
223.977	-10.75
224.195	130.56
224.413	112.13
224.631	28.16
224.849	17.92
225.067	120.32
225.285	-25.09
225.503	97.79
225.721	11.78
225.939	19.97
226.157	-10.75
226.375	198.14
226.592	34.3
226.81	-12.8
227.028	105.98
227.246	73.21
227.464	50.69
227.682	56.83
227.9	65.02
228.117	108.03
228.335	75.26
228.553	62.98
228.771	52.74
228.989	83.45
229.206	46.59
229.424	101.89
229.642	24.06
229.86	-41.47
230.077	36.35
230.295	69.12
230.513	110.08
230.731	77.31
230.948	171.52
231.166	136.7
231.384	3.58
231.601	52.74
231.819	71.17
232.037	-49.66
232.254	-4.61
232.472	-20.99
232.689	-14.85
232.907	42.5
233.125	-0.51
233.342	19.97
233.56	-8.7
233.777	42.5
233.995	34.3
234.213	26.11
234.43	-12.8
234.648	-39.42
234.865	95.74
235.083	67.07
235.3	-8.7
235.518	110.08
235.735	65.02
235.953	87.55
236.17	81.41
236.388	73.21
236.605	58.88
236.822	91.65
237.04	85.5
237.257	26.11
237.475	-27.14
237.692	7.68
237.909	-12.8
238.127	44.54
238.344	-20.99
238.562	52.74
238.779	26.11
238.996	-49.66
239.214	-4.61
239.431	122.37
239.648	97.79
239.865	38.4
240.083	81.41
240.3	9.73
240.517	44.54
240.735	17.92
240.952	44.54
241.169	81.41
241.386	83.45
241.603	24.06
241.821	-64
242.038	67.07
242.255	81.41
242.472	9.73
242.689	81.41
242.907	89.6
243.124	91.65
243.341	26.11
243.558	48.64
243.775	-53.76
243.992	-37.38
244.209	42.5
244.426	179.71
244.643	85.5
244.86	28.16
245.078	62.98
245.295	67.07
245.512	28.16
245.729	54.78
245.946	60.93
246.163	148.99
246.38	42.5
246.597	67.07
246.814	-2.56
247.031	44.54
247.248	48.64
247.464	24.06
247.681	151.04
247.898	65.02
248.115	-23.04
248.332	-20.99
248.549	148.99
248.766	52.74
248.983	62.98
249.2	5.63
249.417	24.06
249.633	-10.75
249.85	89.6
250.067	-4.61
250.284	54.78
250.501	69.12
250.717	93.69
250.934	-43.52
251.151	17.92
251.368	75.26
251.585	40.45
251.801	26.11
252.018	-37.38
252.235	134.65
252.451	-16.9
252.668	81.41
252.885	30.21
253.102	-18.94
253.318	50.69
253.535	38.4
253.752	-16.9
253.968	71.17
254.185	-49.66
254.401	48.64
254.618	85.5
254.835	11.78
255.051	130.56
255.268	40.45
255.484	65.02
255.701	32.26
255.917	83.45
256.134	71.17
256.351	105.98
256.567	34.3
256.784	22.02
257	-6.66
257.217	75.26
257.433	32.26
257.65	65.02
257.866	60.93
258.082	13.82
258.299	32.26
258.515	11.78
258.732	97.79
258.948	-61.95
259.165	62.98
259.381	1.54
259.597	-27.14
259.814	40.45
260.03	40.45
260.246	22.02
260.463	83.45
260.679	17.92
260.895	44.54
261.112	97.79
261.328	77.31
261.544	32.26
261.761	120.32
261.977	24.06
262.193	-10.75
262.409	56.83
262.626	65.02
262.842	38.4
263.058	9.73
263.274	122.37
263.49	65.02
263.707	136.7
263.923	-16.9
264.139	3.58
264.355	24.06
264.571	44.54
264.787	60.93
265.004	73.21
265.22	-6.66
265.436	36.35
265.652	19.97
265.868	-23.04
266.084	79.36
266.3	17.92
266.516	9.73
266.732	34.3
266.948	26.11
267.164	-27.14
267.38	56.83
267.596	65.02
267.812	62.98
268.028	7.68
268.244	48.64
268.46	3.58
268.676	40.45
268.892	48.64
269.108	65.02
269.324	7.68
269.54	32.26
269.756	81.41
269.972	-82.43
270.188	-31.23
270.403	19.97
270.619	36.35
270.835	116.22
271.051	17.92
271.267	32.26
271.483	15.87
271.698	69.12
271.914	28.16
272.13	-16.9
272.346	118.27
272.562	30.21
272.777	65.02
272.993	-8.7
273.209	73.21
273.425	32.26
273.64	-2.56
273.856	87.55
274.072	-0.51
274.287	26.11
274.503	40.45
274.719	116.22
274.934	32.26
275.15	65.02
275.366	42.5
275.581	52.74
275.797	83.45
276.012	89.6
276.228	50.69
276.444	-6.66
276.659	-16.9
276.875	-66.05
277.09	105.98
277.306	32.26
277.521	112.13
277.737	7.68
277.952	91.65
278.168	71.17
278.383	1.54
278.599	15.87
278.814	81.41
279.03	15.87
279.245	67.07
279.461	101.89
279.676	130.56
279.892	-41.47
280.107	-16.9
280.322	-59.9
280.538	3.58
280.753	28.16
280.969	73.21
281.184	52.74
281.399	56.83
281.615	17.92
281.83	34.3
282.045	36.35
282.26	24.06
282.476	-31.23
282.691	122.37
282.906	13.82
283.122	97.79
283.337	-4.61
283.552	142.85
283.767	71.17
283.983	89.6
284.198	71.17
284.413	110.08
284.628	32.26
284.843	34.3
285.058	48.64
285.274	60.93
285.489	5.63
285.704	65.02
285.919	108.03
286.134	50.69
286.349	40.45
286.564	13.82
286.779	105.98
286.995	7.68
287.21	-39.42
287.425	30.21
287.64	13.82
287.855	146.94
288.07	-23.04
288.285	67.07
288.5	24.06
288.715	118.27
288.93	26.11
289.145	-10.75
289.36	87.55
289.575	-16.9
289.79	42.5
290.004	58.88
290.219	5.63
290.434	19.97
290.649	19.97
290.864	56.83
291.079	146.94
291.294	36.35
291.509	54.78
291.724	24.06
291.938	44.54
292.153	69.12
292.368	93.69
292.583	54.78
292.798	77.31
293.012	-6.66
293.227	-35.33
293.442	81.41
293.657	40.45
293.871	181.76
294.086	32.26
294.301	105.98
294.516	65.02
294.73	87.55
294.945	34.3
295.16	48.64
295.374	54.78
295.589	124.41
295.804	73.21
296.018	-6.66
296.233	108.03
296.447	71.17
296.662	11.78
296.877	42.5
297.091	85.5
297.306	13.82
297.52	-25.09
297.735	103.93
297.949	5.63
298.164	124.41
298.378	26.11
298.593	-37.38
298.807	60.93
299.022	34.3
299.236	65.02
299.451	87.55
299.665	17.92
299.88	73.21
300.094	9.73
300.309	40.45
300.523	-6.66
300.737	48.64
300.952	65.02
301.166	52.74
301.381	-10.75
301.595	-8.7
301.809	48.64
302.024	-0.51
302.238	28.16
302.452	93.69
302.667	60.93
302.881	46.59
303.095	105.98
303.309	73.21
303.524	38.4
303.738	56.83
303.952	-61.95
304.166	-72.19
304.381	-12.8
304.595	116.22
304.809	13.82
305.023	9.73
305.237	75.26
305.452	89.6
305.666	26.11
305.88	97.79
306.094	67.07
306.308	65.02
306.522	105.98
306.736	122.37
306.95	58.88
307.164	-4.61
307.379	3.58
307.593	130.56
307.807	40.45
308.021	108.03
308.235	91.65
308.449	34.3
308.663	38.4
308.877	159.23
309.091	93.69
309.305	44.54
309.519	28.16
309.733	120.32
309.947	-6.66
310.161	42.5
310.374	34.3
310.588	83.45
310.802	28.16
311.016	65.02
311.23	54.78
311.444	-37.38
311.658	9.73
311.872	134.65
312.085	65.02
312.299	48.64
312.513	73.21
312.727	26.11
312.941	32.26
313.154	38.4
313.368	52.74
313.582	118.27
313.796	7.68
314.009	65.02
314.223	77.31
314.437	101.89
314.651	56.83
314.864	13.82
315.078	67.07
315.292	-16.9
315.505	-29.18
315.719	65.02
315.933	36.35
316.146	24.06
316.36	32.26
316.573	7.68
316.787	44.54
317.001	67.07
317.214	26.11
317.428	91.65
317.641	-33.28
317.855	5.63
318.068	48.64
318.282	-4.61
318.495	32.26
318.709	67.07
318.922	60.93
319.136	175.61
319.349	36.35
319.563	42.5
319.776	9.73
319.99	-10.75
320.203	46.59
320.417	50.69
320.63	73.21
320.843	93.69
321.057	60.93
321.27	44.54
321.483	30.21
321.697	56.83
321.91	91.65
322.124	69.12
322.337	110.08
322.55	-12.8
322.763	1.54
322.977	42.5
323.19	30.21
323.403	40.45
323.617	128.51
323.83	58.88
324.043	-4.61
324.256	91.65
324.469	-29.18
324.683	42.5
324.896	114.17
325.109	-8.7
325.322	-66.05
325.535	118.27
325.748	52.74
325.962	-12.8
326.175	73.21
326.388	32.26
326.601	71.17
326.814	-16.9
327.027	116.22
327.24	175.61
327.453	-12.8
327.666	48.64
327.879	196.09
328.092	46.59
328.305	50.69
328.518	11.78
328.731	93.69
328.944	108.03
329.157	38.4
329.37	48.64
329.583	108.03
329.796	159.23
330.009	15.87
330.222	50.69
330.435	79.36
330.648	85.5
330.861	75.26
331.073	-20.99
331.286	13.82
331.499	85.5
331.712	28.16
331.925	67.07
332.138	67.07
332.35	79.36
332.563	-25.09
332.776	97.79
332.989	67.07
333.202	48.64
333.414	60.93
333.627	-74.24
333.84	65.02
334.053	26.11
334.265	-2.56
334.478	24.06
334.691	40.45
334.903	44.54
335.116	36.35
335.329	67.07
335.541	77.31
335.754	93.69
335.966	-6.66
336.179	85.5
336.392	-6.66
336.604	-8.7
336.817	89.6
337.029	5.63
337.242	60.93
337.454	95.74
337.667	-6.66
337.88	87.55
338.092	120.32
338.305	3.58
338.517	22.02
338.729	42.5
338.942	91.65
339.154	9.73
339.367	62.98
339.579	83.45
339.792	56.83
340.004	48.64
340.217	95.74
340.429	87.55
340.641	65.02
340.854	54.78
341.066	65.02
341.278	46.59
341.491	79.36
341.703	77.31
341.915	46.59
342.128	83.45
342.34	13.82
342.552	17.92
342.764	44.54
342.977	26.11
343.189	77.31
343.401	77.31
343.613	32.26
343.826	103.93
344.038	24.06
344.25	52.74
344.462	69.12
344.674	7.68
344.886	22.02
345.099	32.26
345.311	-39.42
345.523	54.78
345.735	19.97
345.947	91.65
346.159	-51.71
346.371	42.5
346.583	32.26
346.795	175.61
347.007	7.68
347.219	-20.99
347.431	34.3
347.643	105.98
347.855	-53.76
348.067	122.37
348.279	-47.62
348.491	26.11
348.703	87.55
348.915	44.54
349.127	-4.61
349.339	52.74
349.551	-31.23
349.763	24.06
349.975	40.45
350.187	83.45
350.399	69.12
350.61	1.54
350.822	69.12
351.034	91.65
351.246	52.74
351.458	30.21
351.669	24.06
351.881	99.84
352.093	30.21
352.305	65.02
352.517	153.09
352.728	97.79
352.94	48.64
353.152	77.31
353.363	56.83
353.575	62.98
353.787	44.54
353.999	69.12
354.21	159.23
354.422	22.02
354.633	44.54
354.845	85.5
355.057	77.31
355.268	58.88
355.48	52.74
355.692	13.82
355.903	5.63
356.115	60.93
356.326	17.92
356.538	108.03
356.749	73.21
356.961	108.03
357.172	81.41
357.384	1.54
357.595	142.85
357.807	97.79
358.018	28.16
358.23	40.45
358.441	81.41
358.653	134.65
358.864	81.41
359.075	89.6
359.287	40.45
359.498	87.55
359.709	17.92
359.921	28.16
360.132	91.65
360.344	81.41
360.555	83.45
360.766	93.69
360.977	56.83
361.189	151.04
361.4	48.64
361.611	67.07
361.823	122.37
362.034	44.54
362.245	-51.71
362.456	77.31
362.667	105.98
362.879	7.68
363.09	81.41
363.301	142.85
363.512	114.17
363.723	-0.51
363.935	75.26
364.146	62.98
364.357	52.74
364.568	65.02
364.779	13.82
364.99	40.45
365.201	50.69
365.412	114.17
365.623	-10.75
365.834	65.02
366.045	58.88
366.256	122.37
366.467	5.63
366.678	48.64
366.889	22.02
367.1	-33.28
367.311	52.74
367.522	42.5
367.733	56.83
367.944	62.98
368.155	13.82
368.366	99.84
368.577	77.31
368.788	46.59
368.999	75.26
369.209	26.11
369.42	175.61
369.631	122.37
369.842	130.56
370.053	15.87
370.264	97.79
370.474	-4.61
370.685	3.58
370.896	19.97
371.107	110.08
371.317	50.69
371.528	-2.56
371.739	42.5
371.95	48.64
372.16	73.21
372.371	5.63
372.582	83.45
372.792	83.45
373.003	101.89
373.214	24.06
373.424	120.32
373.635	40.45
373.846	75.26
374.056	36.35
374.267	110.08
374.477	101.89
374.688	77.31
374.898	69.12
375.109	105.98
375.319	19.97
375.53	85.5
375.74	155.13
375.951	-0.51
376.161	110.08
376.372	146.94
376.582	15.87
376.793	28.16
377.003	48.64
377.214	48.64
377.424	56.83
377.635	32.26
377.845	65.02
378.055	93.69
378.266	9.73
378.476	97.79
378.686	114.17
378.897	42.5
379.107	44.54
379.317	114.17
379.528	24.06
379.738	81.41
379.948	79.36
380.158	44.54
380.369	75.26
380.579	83.45
380.789	50.69
380.999	52.74
381.21	75.26
381.42	153.09
381.63	-49.66
381.84	126.46
382.05	56.83
382.261	126.46
382.471	114.17
382.681	89.6
382.891	237.05
383.101	73.21
383.311	3.58
383.521	60.93
383.731	134.65
383.941	120.32
384.151	58.88
384.361	65.02
384.571	87.55
384.781	105.98
384.991	208.38
385.201	153.09
385.411	54.78
385.621	62.98
385.831	79.36
386.041	32.26
386.251	71.17
386.461	105.98
386.671	89.6
386.881	-0.51
387.091	73.21
387.301	71.17
387.511	56.83
387.72	122.37
387.93	73.21
388.14	52.74
388.35	42.5
388.56	77.31
388.769	101.89
388.979	101.89
389.189	19.97
389.399	89.6
389.609	103.93
389.818	142.85
390.028	93.69
390.238	71.17
390.447	132.61
390.657	52.74
390.867	50.69
391.076	1.54
391.286	71.17
391.496	120.32
391.705	26.11
391.915	126.46
392.125	103.93
392.334	40.45
392.544	105.98
392.753	130.56
392.963	24.06
393.172	99.84
393.382	-0.51
393.591	181.76
393.801	79.36
394.01	155.13
394.22	85.5
394.429	56.83
394.639	97.79
394.848	138.75
395.058	19.97
395.267	132.61
395.477	69.12
395.686	138.75
395.895	132.61
396.105	97.79
396.314	132.61
396.524	-10.75
396.733	89.6
396.942	103.93
397.152	77.31
397.361	159.23
397.57	93.69
397.78	155.13
397.989	171.52
398.198	148.99
398.407	108.03
398.617	54.78
398.826	134.65
399.035	-4.61
399.244	122.37
399.453	28.16
399.663	83.45
399.872	75.26
400.081	157.18
400.29	128.51
400.499	-12.8
400.708	130.56
400.917	99.84
401.127	165.37
401.336	126.46
401.545	187.9
401.754	83.45
401.963	159.23
402.172	122.37
402.381	167.42
402.59	114.17
402.799	110.08
403.008	187.9
403.217	95.74
403.426	122.37
403.635	89.6
403.844	103.93
404.053	161.28
404.262	99.84
404.471	261.63
404.68	181.76
404.888	122.37
405.097	196.09
405.306	226.81
405.515	239.1
405.724	122.37
405.933	181.76
406.142	208.38
406.35	251.39
406.559	187.9
406.768	169.47
406.977	228.86
407.185	224.76
407.394	173.57
407.603	212.48
407.812	222.72
408.02	171.52
408.229	163.33
408.438	255.48
408.646	247.29
408.855	239.1
409.064	280.06
409.272	204.28
409.481	335.35
409.69	296.44
409.898	263.68
410.107	316.92
410.315	310.78
410.524	290.3
410.733	396.79
410.941	282.11
411.15	380.41
411.358	376.31
411.567	388.6
411.775	368.12
411.984	347.64
412.192	472.57
412.401	468.47
412.609	468.47
412.818	474.62
413.026	423.42
413.234	417.27
413.443	466.42
413.651	507.38
413.86	548.34
414.068	591.35
414.276	617.97
414.485	597.49
414.693	744.95
414.901	785.91
415.11	648.69
415.318	681.46
415.526	736.76
415.734	769.52
415.943	810.48
416.151	828.92
416.359	765.43
416.567	839.16
416.776	865.78
416.984	892.4
417.192	921.07
417.4	888.31
417.608	1074.67
417.817	1084.91
418.025	1066.48
418.233	1211.89
418.441	1074.67
418.649	1146.35
418.857	1201.65
419.065	1240.56
419.273	1246.7
419.481	1265.13
419.689	1310.19
419.897	1416.68
420.105	1431.02
420.313	1449.45
420.521	1568.23
420.729	1410.54
420.937	1703.4
421.145	1633.77
421.353	1748.45
421.561	2016.74
421.769	1861.09
421.977	1973.73
422.185	1938.91
422.393	2022.88
422.601	2158.05
422.809	2221.53
423.017	2094.56
423.224	2338.27
423.432	2436.57
423.64	2293.21
423.848	2700.76
424.056	2571.74
424.263	2727.38
424.471	2760.15
424.679	2803.16
424.887	3001.81
425.094	3014.1
425.302	3108.3
425.51	3196.37
425.718	3276.24
425.925	3302.86
426.133	3493.32
426.341	3659.21
426.548	3841.48
426.756	3771.85
426.964	3751.37
427.171	4003.27
427.379	4279.74
427.586	4058.56
427.794	4351.42
428.001	4472.25
428.209	4767.16
428.417	4691.38
428.624	4990.39
428.832	4931
429.039	4976.05
429.247	4939.19
429.454	5647.79
429.662	5836.2
429.869	5447.08
430.076	5778.86
430.284	5848.49
430.491	5993.89
430.699	6178.21
430.906	6194.59
431.114	6292.9
431.321	6555.04
431.528	6702.49
431.736	7071.12
431.943	7450
432.15	7290.26
432.358	7316.88
432.565	7808.39
432.772	7579.02
432.979	8035.72
433.187	8203.65
433.394	8332.67
433.601	8852.86
433.808	8750.46
434.016	8723.83
434.223	9313.65
434.43	9858.41
434.637	9520.49
434.844	10089.83
435.052	10360.16
435.259	10370.4
435.466	10489.18
435.673	10136.93
435.88	10947.93
436.087	11504.98
436.294	11478.35
436.501	11191.64
436.708	11580.75
436.915	11713.87
437.122	12348.74
437.329	12315.97
437.537	12739.9
437.743	12754.24
437.95	12911.93
438.157	13475.12
438.364	13995.31
438.571	14056.75
438.778	13950.25
438.985	15449.36
439.192	14769.44
439.399	15226.14
439.606	14968.09
439.813	15801.61
440.02	16567.56
440.227	16344.33
440.433	16186.63
440.64	16538.88
440.847	16719.1
441.054	16993.53
441.261	18310.38
441.467	18054.38
441.674	18549.99
441.881	19141.85
442.088	19100.89
442.294	18775.27
442.501	19657.94
442.708	19555.54
442.914	20401.35
443.121	21511.35
443.328	20982.98
443.534	22318.25
443.741	21642.42
443.948	21222.59
444.154	22928.55
444.361	23016.61
444.568	22985.89
444.774	23049.38
444.981	23504.03
445.187	23891.09
445.394	24773.77
445.6	24736.9
445.807	27042.92
446.013	26057.84
446.22	26385.52
446.426	27253.86
446.633	27411.55
446.839	28515.4
447.046	27126.88
447.252	28712.01
447.459	29113.41
447.665	28959.81
447.871	30485.55
448.078	31505.44
448.284	30252.08
448.491	30889
448.697	32003.1
448.903	32605.2
449.11	33039.37
449.316	32033.82
449.522	32547.86
449.728	33864.7
449.935	33819.64
450.141	33803.26
450.347	34515.95
450.553	33334.28
450.76	34235.38
450.966	35396.58
451.172	34554.86
451.378	36023.26
451.584	34946.03
451.791	35843.04
451.997	35836.89
452.203	36283.35
452.409	36496.34
452.615	36522.96
452.821	34817
453.027	34847.72
453.233	36334.55
453.44	35025.9
453.646	35376.1
453.852	35632.1
454.058	36096.99
454.264	35052.52
454.47	35894.24
454.676	34997.23
454.882	36465.62
455.088	32941.07
455.294	33420.29
455.5	34573.3
455.705	34778.09
455.911	33336.32
456.117	32777.23
456.323	32322.58
456.529	30526.51
456.735	32029.72
456.941	31353.89
457.147	30827.56
457.352	29824.06
457.558	29484.09
457.764	29504.57
457.97	28892.23
458.176	28261.46
458.381	28222.55
458.587	26971.24
458.793	26588.27
458.999	25164.93
459.204	27321.44
459.41	26377.33
459.616	24986.75
459.821	25101.44
460.027	24753.29
460.233	23921.81
460.438	23162.01
460.644	23401.63
460.85	22330.54
461.055	22045.87
461.261	21580.98
461.466	20167.88
461.672	19414.23
461.878	20839.62
462.083	19543.25
462.289	19131.61
462.494	18926.82
462.7	18248.94
462.905	17483
463.111	18181.35
463.316	18390.25
463.522	18054.38
463.727	17943.79
463.932	17968.37
464.138	17562.87
464.343	17775.86
464.549	17294.58
464.754	17865.97
464.959	17591.54
465.165	17560.82
465.37	16698.63
465.575	16301.32
465.781	17196.28
465.986	17239.29
466.191	16416.01
466.397	16104.71
466.602	15191.32
466.807	15801.61
467.012	16080.14
467.218	15766.8
467.423	15609.11
467.628	15781.14
467.833	16250.12
468.038	15693.07
468.244	15383.83
468.449	16000.27
468.654	15273.24
468.859	15299.86
469.064	15303.96
469.269	14867.74
469.474	14777.63
469.679	15093.02
469.885	14679.33
470.09	14951.71
470.295	14941.47
470.5	14157.1
470.705	14474.53
470.91	14005.55
471.115	14071.08
471.32	14148.9
471.525	14173.48
471.73	13899.05
471.935	13802.8
472.139	13231.41
472.344	13571.38
472.549	13235.51
472.754	13223.22
472.959	13178.17
473.164	12844.35
473.369	12584.26
473.574	13010.23
473.778	12723.52
473.983	12815.68
474.188	12582.21
474.393	12131.65
474.598	12174.66
474.802	11998.54
475.007	11973.96
475.212	12019.02
475.417	11654.48
475.621	11611.47
475.826	11775.31
476.031	11335
476.235	11013.46
476.44	11171.16
476.645	11238.74
476.849	11205.97
477.054	11040.09
477.259	10866.01
477.463	10730.84
477.668	10777.95
477.872	10548.58
478.077	10519.9
478.282	10095.97
478.486	10362.21
478.691	10333.54
478.895	10102.12
479.1	9909.61
479.304	10194.28
479.509	9735.53
479.713	9919.85
479.918	9731.44
480.122	9583.98
480.326	9622.89
480.531	9725.29
480.735	9702.76
480.94	9491.82
481.144	9575.79
481.348	9524.59
481.553	9600.37
481.757	9223.54
481.961	9391.47
482.166	9411.95
482.37	9270.64
482.574	9176.44
482.778	9346.42
482.983	9463.15
483.187	9379.18
483.391	9264.5
483.595	9264.5
483.8	9129.33
484.004	9348.47
484.208	9373.04
484.412	9155.96
484.616	9192.82
484.821	9272.69
485.025	9149.81
485.229	9618.8
485.433	9182.58
485.637	9037.17
485.841	9184.63
486.045	9026.93
486.249	9235.83
486.453	9180.53
486.657	9370.99
486.861	9149.81
487.065	8983.93
487.269	9235.83
487.473	9076.09
487.677	9067.89
487.881	9387.38
488.085	9006.45
488.289	9368.95
488.493	9203.06
488.697	9233.78
488.901	9260.4
489.105	9209.2
489.309	9338.23
489.512	9307.51
489.716	9303.41
489.92	9387.38
490.124	9502.06
490.328	9524.59
490.531	9598.32
490.735	9358.71
490.939	9583.98
491.143	9403.76
491.346	9565.55
491.55	9618.8
491.754	9649.52
491.958	9727.34
492.161	9571.69
492.365	9661.8
492.569	9710.96
492.772	9672.04
492.976	9876.84
493.18	9796.97
493.383	10036.58
493.587	9977.19
493.79	10048.87
493.994	10069.35
494.197	9846.12
494.401	10198.37
494.605	10210.66
494.808	10474.85
495.012	10425.7
495.215	10460.51
495.419	10497.38
495.622	10630.49
495.825	10480.99
496.029	10718.56
496.232	11005.27
496.436	10837.34
496.639	11402.58
496.843	11083.09
497.046	11248.98
497.249	11433.3
497.453	11533.65
497.656	11572.56
497.859	11435.35
498.063	11744.59
498.266	12295.49
498.469	11844.94
498.673	12041.54
498.876	12375.36
499.079	12221.77
499.282	12272.96
499.485	12580.16
499.689	12596.54
499.892	12879.16
500.095	12922.17
500.298	13190.45
500.501	12973.37
500.705	13464.88
500.908	13440.31
501.111	13585.71
501.314	13839.66
501.517	13890.86
501.72	14085.42
501.923	14171.43
502.126	14378.28
502.329	14837.02
502.532	14654.75
502.735	14918.94
502.938	14853.41
503.141	15086.87
503.344	15260.95
503.547	15402.26
503.75	15650.07
503.953	15803.66
504.156	15965.45
504.359	16190.73
504.562	16084.23
504.765	16649.47
504.968	16751.87
505.17	16778.5
505.373	16573.7
505.576	17198.33
505.779	17218.81
505.982	17632.5
506.185	17810.67
506.387	18035.95
506.59	17868.02
506.793	18226.41
506.996	18337
507.198	18973.92
507.401	18586.85
507.604	18904.29
507.807	19221.72
508.009	19356.89
508.212	19408.09
508.415	19590.36
508.617	20184.27
508.82	19922.13
509.022	19727.57
509.225	20673.73
509.428	20677.83
509.63	20653.25
509.833	20917.44
510.035	21533.88
510.238	21144.77
510.44	21591.22
510.643	22027.44
510.845	21978.29
511.048	21834.93
511.25	22205.61
511.453	22348.97
511.655	23356.57
511.858	23319.71
512.06	23090.34
512.262	23295.13
512.465	23807.12
512.667	23671.96
512.87	24075.41
513.072	24310.93
513.274	24773.77
513.477	24790.15
513.679	24827.01
513.881	25320.57
514.084	25556.09
514.286	25449.6
514.488	25988.21
514.69	26598.51
514.893	26383.47
515.095	26719.34
515.297	27006.05
515.499	27032.68
515.701	27464.8
515.904	27612.25
516.106	27733.08
516.308	28132.43
516.51	28177.49
516.712	28638.28
516.914	28509.26
517.116	28916.81
517.318	29064.26
517.52	29191.23
517.722	29746.23
517.925	29842.49
518.127	30219.31
518.329	30452.78
518.531	30381.1
518.733	31001.64
518.935	31093.8
519.136	31501.34
519.338	31702.04
519.54	31896.6
519.742	31863.83
519.944	32240.66
520.146	32627.73
520.348	32697.36
520.55	33176.58
520.752	33070.09
520.954	33870.84
521.155	33715.2
521.357	34155.51
521.559	34309.11
521.761	34698.22
521.963	34823.15
522.164	34935.79
522.366	34991.08
522.568	35296.23
522.77	35929.05
522.971	36148.18
523.173	35869.66
523.375	36490.2
523.576	36176.86
523.778	36420.56
523.98	36637.65
524.181	37155.79
524.383	36934.6
524.584	37403.59
524.786	37424.07
524.988	37497.8
525.189	38022.08
525.391	38521.78
525.592	38390.71
525.794	38413.24
525.995	38263.74
526.197	38790.06
526.398	38869.93
526.6	39158.7
526.801	39476.13
527.003	39623.59
527.204	39201.71
527.406	39981.98
527.607	39478.18
527.808	40348.57
528.01	39416.74
528.211	39693.22
528.412	40524.69
528.614	40442.77
528.815	40983.44
529.016	41302.92
529.218	40438.68
529.419	40545.17
529.62	40989.58
529.822	40778.64
530.023	40946.58
530.224	41134.99
530.425	41175.95
530.626	40909.71
530.828	40645.52
531.029	42036.09
531.23	41630.6
531.431	41382.79
531.632	41653.12
531.833	41825.15
532.035	41524.1
532.236	41597.83
532.437	42275.71
532.638	41888.64
532.839	41735.04
533.04	42144.64
533.241	41380.74
533.442	42302.33
533.643	42056.57
533.844	42040.19
534.045	42341.24
534.246	41907.07
534.447	42677.11
534.648	42429.3
534.849	41974.66
535.05	41974.66
535.251	42165.12
535.451	42380.15
535.652	42638.2
535.853	42271.61
536.054	42314.62
536.255	42412.92
536.456	42257.28
536.657	42947.44
536.857	42482.55
537.058	42212.22
537.259	42750.84
537.46	42793.84
537.66	42281.85
537.861	42535.8
538.062	42331
538.263	42410.87
538.463	42257.28
538.664	42167.16
538.865	42451.83
539.065	42498.94
539.266	42019.71
539.466	42650.49
539.667	41737.09
539.868	42783.6
540.068	42560.37
540.269	42331
540.469	42578.81
540.67	42111.87
540.87	42623.86
541.071	42550.13
541.271	42478.46
541.472	42017.66
541.672	42251.13
541.873	41978.75
542.073	41526.15
542.274	42560.37
542.474	42023.81
542.675	42040.19
542.875	42431.35
543.075	42218.36
543.276	41806.72
543.476	42324.86
543.676	42378.11
543.877	42173.31
544.077	41802.63
544.277	42453.88
544.478	42279.8
544.678	42046.33
544.878	42158.97
545.078	42007.42
545.279	42046.33
545.479	41679.75
545.679	42365.82
545.879	42324.86
546.079	42109.82
546.28	41669.51
546.48	41438.09
546.68	42122.11
546.88	42089.34
547.08	42154.88
547.28	41671.56
547.48	41589.64
547.68	41935.74
547.88	41546.63
548.081	41964.42
548.281	41716.61
548.481	41929.6
548.681	42175.36
548.881	41823.11
549.081	41972.61
549.28	41669.51
549.48	42193.79
549.68	41862.02
549.88	42273.66
550.08	41520.01
550.28	42064.77
550.48	41700.23
550.68	42236.8
550.88	41556.87
551.08	41802.63
551.279	42089.34
551.479	41167.76
551.679	41827.2
551.879	41524.1
552.079	41636.74
552.278	41733
552.478	41810.82
552.678	42062.72
552.878	41892.74
553.077	41581.45
553.277	40885.14
553.477	41829.25
553.676	41446.28
553.876	41542.53
554.076	41495.43
554.275	41038.73
554.475	41018.25
554.674	41425.8
554.874	41290.63
555.074	40698.77
555.273	41280.39
555.473	41710.47
555.672	40715.15
555.872	41362.31
556.071	40909.71
556.271	41280.39
556.47	40764.31
556.67	40711.06
556.869	40887.18
557.068	41108.36
557.268	41010.06
557.467	40586.13
557.667	40631.19
557.866	40536.98
558.065	40643.48
558.265	40266.65
558.464	40477.59
558.663	40786.83
558.863	39865.25
559.062	40725.39
559.261	40006.56
559.461	40698.77
559.66	39537.57
559.859	39924.64
560.058	39820.19
560.258	40059.8
560.457	39674.79
560.656	40201.11
560.855	40102.81
561.054	39787.42
561.253	39373.74
561.453	39607.2
561.652	39963.55
561.851	39533.48
562.05	39150.51
562.249	39484.33
562.448	39748.51
562.647	39048.11
562.846	39271.34
563.045	39173.03
563.244	38882.22
563.443	39467.94
563.642	38319.03
563.841	38718.39
564.04	38415.29
564.239	38990.77
564.438	38284.22
564.637	38642.61
564.836	38433.72
565.035	38144.95
565.234	38620.08
565.432	37823.42
565.631	37901.25
565.83	38196.15
566.029	37917.63
566.228	38142.91
566.427	38124.47
566.625	37725.12
566.824	37376.97
567.023	37917.63
567.222	37315.53
567.42	37776.32
567.619	37485.51
567.818	37041.1
568.016	37069.77
568.215	37821.37
568.414	37178.31
568.612	37247.94
568.811	36625.36
569.01	36821.97
569.208	36107.23
569.407	36776.91
569.605	36316.12
569.804	36948.94
570.002	36029.4
570.201	36678.61
570.4	36471.76
570.598	35752.93
570.797	36113.37
570.995	36148.18
571.193	35378.15
571.392	36047.83
571.59	35728.35
571.789	35623.9
571.987	35797.98
572.186	35519.46
572.384	35269.61
572.582	35472.35
572.781	35767.26
572.979	34743.28
573.177	34759.66
573.376	35177.45
573.574	34868.2
573.772	35324.9
573.971	34642.93
574.169	34546.67
574.367	34452.47
574.565	34993.13
574.763	34407.41
574.962	34450.42
575.16	33883.13
575.358	34204.66
575.556	33735.68
575.754	33973.24
575.952	33762.3
576.151	33922.04
576.349	33639.42
576.547	33709.05
576.745	33530.88
576.943	33829.88
577.141	33340.42
577.339	33250.31
577.537	33188.87
577.735	33135.62
577.933	32914.44
578.131	32881.67
578.329	32601.1
578.527	32621.58
578.725	32621.58
578.923	32619.53
579.121	32775.18
579.319	32484.37
579.516	32414.74
579.714	32384.02
579.912	32242.71
580.11	32398.35
580.308	32211.99
580.506	32095.25
580.704	32005.14
580.901	31687.71
581.099	31896.6
581.297	31241.25
581.495	31730.72
581.692	31446.05
581.89	31075.37
582.088	31755.29
582.285	31196.2
582.483	31257.64
582.681	31216.68
582.878	31106.09
583.076	30702.64
583.274	31325.22
583.471	30532.65
583.669	30786.6
583.866	30184.5
584.064	30905.38
584.262	30321.71
584.459	30587.95
584.657	30143.54
584.854	30512.17
585.052	30125.11
585.249	30018.61
585.447	30098.48
585.644	29494.33
585.841	30018.61
586.039	30049.33
586.236	29762.62
586.434	29572.16
586.631	29461.57
586.828	29652.03
587.026	29516.86
587.223	29451.33
587.42	29240.39
587.618	29195.33
587.815	29070.4
588.012	28615.76
588.21	28578.89
588.407	28873.8
588.604	28806.22
588.801	28589.13
588.999	28566.6
589.196	28554.32
589.393	28486.73
589.59	28351.57
589.787	28195.92
589.984	28116.05
590.182	27970.65
590.379	28257.36
590.576	27991.12
590.773	27980.89
590.97	27698.27
591.167	27870.29
591.364	27548.76
591.561	27751.51
591.758	27712.6
591.955	27143.27
592.152	27440.22
592.349	27190.37
592.546	27219.04
592.743	27442.27
592.94	26891.37
593.137	26868.84
593.334	27278.43
593.531	26711.14
593.727	26819.69
593.924	26883.17
594.121	26176.62
594.318	26479.72
594.515	26371.18
594.712	26805.35
594.908	26150
595.105	26393.71
595.302	25601.15
595.499	25959.54
595.696	25998.45
595.892	25779.32
596.089	25957.49
596.286	25769.08
596.482	25502.84
596.679	25562.23
596.876	25640.06
597.072	25435.26
597.269	25525.37
597.466	25181.31
597.662	25117.82
597.859	24992.9
598.055	25181.31
598.252	24767.62
598.448	24771.72
598.645	24552.59
598.841	24763.53
599.038	24646.79
599.234	24628.36
599.431	24435.85
599.627	24321.16
599.824	24519.82
600.02	24196.24
600.217	24229.01
600.413	24351.88
600.609	24200.33
600.806	24099.98
601.002	24124.56
601.198	23692.44
601.395	23688.34
601.591	23684.25
601.787	23626.9
601.984	23534.74
602.18	23626.9
602.376	23487.64
602.572	23319.71
602.769	23360.67
602.965	23205.02
603.161	23026.85
603.357	22940.83
603.553	23084.19
603.75	23100.58
603.946	22903.97
604.142	23008.42
604.338	22863.01
604.534	22914.21
604.73	22719.65
604.926	22465.71
605.122	22623.4
605.318	22428.84
605.514	22328.49
605.71	22219.95
605.906	22273.2
606.102	22238.38
606.298	22127.79
606.494	22029.49
606.69	22052.02
606.886	22064.3
607.082	21869.75
607.278	21961.9
607.474	21501.11
607.67	21814.45
607.866	21347.51
608.062	22015.15
608.257	21494.97
608.453	21562.55
608.649	21544.12
608.845	21421.24
609.041	21351.61
609.236	21505.21
609.432	21468.34
609.628	21236.92
609.824	21222.59
610.019	20970.69
610.215	21044.41
610.411	21308.6
610.606	20778.18
610.802	21228.73
610.998	21146.81
611.193	20911.3
611.389	20825.28
611.584	20849.86
611.78	20741.32
611.976	20587.72
612.171	20921.54
612.367	20559.05
612.562	20681.92
612.758	20485.32
612.953	20225.23
613.149	20774.08
613.344	20341.96
613.539	20729.03
613.735	20284.62
613.93	20606.15
614.126	20204.75
614.321	20421.83
614.517	20286.67
614.712	20341.96
614.907	20133.07
615.103	20368.59
615.298	20040.91
615.493	20151.5
615.688	19944.66
615.884	20315.34
616.079	19651.8
616.274	19875.02
616.47	19743.95
616.665	19932.37
616.86	19887.31
617.055	19559.64
617.25	19621.08
617.445	19838.16
617.641	19395.8
617.836	19647.7
618.031	19279.07
618.226	19520.73
618.421	19399.9
618.616	19287.26
618.811	18914.53
619.006	19100.89
619.201	18824.42
619.396	19127.52
619.591	18674.92
619.786	18853.09
619.981	18590.95
620.176	18668.77
620.371	18545.89
620.566	18724.07
620.761	18345.19
620.956	18865.38
621.151	18246.89
621.346	18324.71
621.541	18289.9
621.735	18304.23
621.93	18029.8
622.125	17947.89
622.32	17659.12
622.515	17825.01
622.709	17661.17
622.904	17487.09
623.099	17130.75
623.294	17609.97
623.488	17341.69
623.683	17542.39
623.878	16987.39
624.072	17472.76
624.267	17104.12
624.462	16743.68
624.656	16704.77
624.851	16954.62
625.046	16678.15
625.24	16899.33
625.435	16227.59
625.629	16411.91
625.824	16284.94
626.018	16149.77
626.213	15877.39
626.407	16303.37
626.602	16071.95
626.796	15996.17
626.991	15959.31
627.185	15535.38
627.38	15478.04
627.574	15578.39
627.768	15457.56
627.963	15301.91
628.157	15377.69
628.352	15185.18
628.546	15031.58
628.74	15295.77
628.935	14986.52
629.129	15109.4
629.323	14884.12
629.517	14525.73
629.712	14535.97
629.906	14533.92
630.1	14445.86
630.294	14626.08
630.489	14433.57
630.683	14441.76
630.877	14083.37
631.071	14101.8
631.265	14308.65
631.459	14095.66
631.653	13509.94
631.848	14058.79
632.042	13837.61
632.236	13884.72
632.43	13606.19
632.624	13612.34
632.818	13626.67
633.012	13364.53
633.206	13362.48
633.4	13421.88
633.594	13030.71
633.788	13260.09
633.982	13294.9
634.176	13024.57
634.369	13110.58
634.563	12922.17
634.757	12715.33
634.951	12868.92
635.145	12614.98
635.339	12952.89
635.533	12539.2
635.726	12404.03
635.92	12510.53
636.114	12451.14
636.308	12100.94
636.501	12363.08
636.695	12303.68
636.889	11910.47
637.083	12242.25
637.276	11928.91
637.47	12029.26
637.664	11840.84
637.857	11996.49
638.051	11877.71
638.244	11582.8
638.438	11564.37
638.632	11677.01
638.825	11394.39
639.019	11253.08
639.212	11238.74
639.406	11353.43
639.599	11097.43
639.793	11205.97
639.986	11017.56
640.18	10857.82
640.373	11107.67
640.567	10941.79
640.76	11091.29
640.954	10845.53
641.147	10777.95
641.34	10579.29
641.534	10710.36
641.727	10616.16
641.92	10614.11
642.114	10554.72
642.307	10415.46
642.5	10468.7
642.694	10216.8
642.887	10247.52
643.08	10358.11
643.273	10358.11
643.467	10030.44
643.66	9891.18
643.853	10024.3
644.046	9925.99
644.239	9885.03
644.432	9993.58
644.626	9864.55
644.819	9590.13
645.012	9616.75
645.205	9753.96
645.398	9637.23
645.591	9649.52
645.784	9493.87
645.977	9397.62
646.17	9444.72
646.363	9520.49
646.556	9276.79
646.749	9235.83
646.942	9164.15
647.135	9223.54
647.328	9033.08
647.521	9098.61
647.714	8871.29
647.907	9031.03
648.099	9065.85
648.292	9026.93
648.485	8852.86
648.678	8732.03
648.871	8717.69
649.064	8680.83
649.256	8936.82
649.449	8844.67
649.642	8600.96
649.835	8443.26
650.027	8433.02
650.22	8441.22
650.413	8461.69
650.605	8580.48
650.798	8351.1
650.991	8361.34
651.183	8359.3
651.376	8101.25
651.568	8435.07
651.761	8015.24
651.954	8355.2
652.146	8062.34
652.339	8152.45
652.531	8045.96
652.724	7841.16
652.916	7830.92
653.109	7708.04
653.301	8000.9
653.494	7802.25
653.686	7730.57
653.879	7927.18
654.071	7511.44
654.263	7622.03
654.456	7636.36
654.648	7613.84
654.84	7615.88
655.033	7388.56
655.225	7472.53
655.417	7382.42
655.61	7558.54
655.802	7376.27
655.994	7161.23
656.186	7210.39
656.379	7335.31
656.571	7132.56
656.763	7187.86
656.955	7159.19
657.148	7110.04
657.34	6938.01
657.532	7126.42
657.724	6995.35
657.916	7001.49
658.108	6995.35
658.3	6725.02
658.492	6827.42
658.684	6827.42
658.876	6694.3
659.068	6864.28
659.26	6454.69
659.452	6794.65
659.644	6774.17
659.836	6720.92
660.028	6602.14
660.22	6503.84
660.412	6573.47
660.604	6651.29
660.796	6284.7
660.988	6475.17
661.18	6368.67
661.372	6421.92
661.563	6524.32
661.755	6327.71
661.947	6292.9
662.139	6170.02
662.331	6178.21
662.522	6178.21
662.714	6167.97
662.906	6235.55
663.097	6059.43
663.289	5981.6
663.481	6088.1
663.673	6026.66
663.864	6063.52
664.056	5997.99
664.247	5881.25
664.439	5997.99
664.631	5852.58
664.822	5934.5
665.014	5754.28
665.205	5737.9
665.397	5668.27
665.588	5696.94
665.78	5791.14
665.971	5664.17
666.163	5741.99
666.354	5580.2
666.546	5676.46
666.737	5559.72
666.929	5721.51
667.12	5486
667.311	5641.64
667.503	5473.71
667.694	5340.59
667.885	5561.77
668.077	5514.67
668.268	5285.3
668.459	5553.58
668.651	5377.45
668.842	5561.77
669.033	5299.63
669.224	5311.92
669.416	5516.72
669.607	5414.32
669.798	5275.06
669.989	5350.83
670.18	5258.67
670.371	5393.84
670.563	5146.03
670.754	5186.99
670.945	5211.57
671.136	5115.31
671.327	5129.65
671.518	5139.89
671.709	5285.3
671.9	5205.42
672.091	4982.2
672.282	5078.45
672.473	4996.53
672.664	5025.2
672.855	5006.77
673.046	5178.8
673.237	5047.73
673.428	5017.01
673.619	5021.11
673.809	4982.2
674	5150.13
674.191	4996.53
674.382	4953.52
674.573	4908.47
674.764	4738.49
674.954	5117.36
675.145	4777.4
675.336	4906.42
675.527	4824.5
675.717	4957.62
675.908	4916.66
676.099	4896.18
676.289	4967.86
676.48	4836.79
676.671	4881.85
676.861	4795.83
677.052	4660.66
677.243	4814.26
677.433	4863.41
677.624	4777.4
677.814	4818.36
678.005	4701.62
678.195	4826.55
678.386	4687.29
678.576	4797.88
678.767	4738.49
678.957	4804.02
679.148	4904.37
679.338	4761.02
679.529	4920.76
679.719	4795.83
679.909	4922.8
680.1	4963.76
680.29	4808.12
680.481	4761.02
680.671	4740.54
680.861	4613.56
681.052	4879.8
681.242	4677.05
681.432	4771.26
681.622	4685.24
681.813	4763.06
682.003	4763.06
682.193	4629.95
682.383	4677.05
682.573	4572.6
682.764	4615.61
682.954	4672.95
683.144	4777.4
683.334	4459.96
683.524	4631.99
683.714	4652.47
683.904	4543.93
684.094	4713.91
684.284	4621.75
684.474	4722.1
684.664	4558.27
684.854	4576.7
685.044	4672.95
685.234	4275.65
685.424	4548.03
685.614	4419
685.804	4470.2
685.994	4609.47
686.184	4588.99
686.374	4574.65
686.564	4492.73
686.753	4419
686.943	4400.57
687.133	4425.15
687.323	4351.42
687.513	4386.24
687.702	4427.2
687.892	4242.88
688.082	4341.18
688.272	4253.12
688.461	4251.07
688.651	4449.72
688.841	4136.38
689.03	4120
689.22	4144.58
689.41	4144.58
689.599	4048.32
689.789	4031.94
689.979	4171.2
690.168	4064.71
690.358	4226.5
690.547	4076.99
690.737	4072.9
690.926	3986.88
691.116	3859.91
691.305	3968.45
691.495	3888.58
691.684	3919.3
691.874	3763.65
692.063	3956.16
692.252	3988.93
692.442	3853.77
692.631	3837.38
692.82	3775.94
693.01	3726.79
693.199	3917.25
693.388	3632.58
693.578	3671.5
693.767	3745.22
693.956	3642.82
694.146	3632.58
694.335	3620.3
694.524	3691.98
694.713	3761.61
694.902	3505.61
695.092	3718.6
695.281	3669.45
695.47	3489.23
695.659	3571.15
695.848	3628.49
696.037	3571.15
696.226	3718.6
696.415	3485.13
696.604	3632.58
696.793	3442.12
696.982	3507.66
697.171	3556.81
697.36	3558.86
697.549	3464.65
697.738	3431.88
697.927	3433.93
698.116	3511.75
698.305	3538.38
698.494	3509.71
698.683	3440.08
698.872	3487.18
699.061	3356.11
699.25	3384.78
699.438	3374.54
699.627	3413.45
699.816	3415.5
700.005	3374.54
700.193	3399.12
700.382	3472.84
700.571	3395.02
700.76	3433.93
700.948	3413.45
701.137	3558.86
701.326	3567.05
701.514	3466.7
701.703	3448.27
701.892	3440.08
702.08	3626.44
702.269	3456.46
702.457	3294.67
702.646	3401.16
702.834	3442.12
703.023	3468.75
703.212	3517.9
703.4	3417.55
703.589	3306.96
703.777	3444.17
703.965	3360.2
704.154	3419.6
704.342	3472.84
704.531	3251.66
704.719	3415.5
704.907	3509.71
705.096	3392.97
705.284	3466.7
705.472	3444.17
705.661	3401.16
705.849	3517.9
706.037	3368.4
706.226	3360.2
706.414	3435.98
706.602	3218.89
706.79	3554.76
706.979	3384.78
707.167	3513.8
707.355	3481.03
707.543	3438.03
707.731	3341.77
707.919	3325.39
708.107	3505.61
708.296	3368.4
708.484	3438.03
708.672	3511.75
708.86	3487.18
709.048	3360.2
709.236	3440.08
709.424	3499.47
709.612	3390.92
709.8	3411.4
709.988	3356.11
710.176	3470.8
710.364	3515.85
710.551	3392.97
710.739	3603.91
710.927	3360.2
711.115	3360.2
711.303	3476.94
711.491	3567.05
711.679	3562.95
711.866	3470.8
712.054	3538.38
712.242	3472.84
712.43	3552.71
712.617	3546.57
712.805	3599.82
712.993	3550.67
713.181	3335.63
713.368	3513.8
713.556	3597.77
713.744	3368.4
713.931	3599.82
714.119	3618.25
714.306	3593.67
714.494	3630.54
714.682	3515.85
714.869	3532.23
715.057	3548.62
715.244	3513.8
715.432	3608.01
715.619	3573.19
715.807	3407.31
715.994	3816.9
716.182	3493.32
716.369	3542.47
716.556	3622.34
716.744	3640.78
716.931	3579.34
717.119	3597.77
717.306	3661.26
717.493	3538.38
717.681	3610.06
717.868	3601.87
718.055	3648.97
718.242	3681.74
718.43	3661.26
718.617	3694.02
718.804	3653.06
718.991	3638.73
719.179	3786.18
719.366	3798.47
719.553	3732.94
719.74	3622.34
719.927	3726.79
720.114	3565
720.301	3745.22
720.488	3677.64
720.676	3601.87
720.863	3628.49
721.05	3663.3
721.237	3603.91
721.424	3677.64
721.611	3884.48
721.798	3667.4
721.985	3704.26
722.172	3636.68
722.358	3634.63
722.545	3712.46
722.732	3837.38
722.919	3648.97
723.106	3571.15
723.293	3743.17
723.48	3694.02
723.667	3694.02
723.853	3759.56
724.04	3851.72
724.227	3759.56
724.414	3710.41
724.6	3800.52
724.787	3788.23
724.974	3751.37
725.161	3802.57
725.347	3698.12
725.534	3833.29
725.72	3687.88
725.907	3663.3
726.094	3866.05
726.28	3726.79
726.467	3685.83
726.653	3714.5
726.84	3782.09
727.027	3876.29
727.213	3679.69
727.4	3788.23
727.586	3751.37
727.773	3880.39
727.959	3886.53
728.145	3876.29
728.332	3775.94
728.518	3800.52
728.705	3909.06
728.891	3847.62
729.077	3839.43
729.264	3806.66
729.45	3915.2
729.636	3900.87
729.823	3624.39
730.009	3773.89
730.195	3777.99
730.382	3886.53
730.568	3861.96
730.754	3777.99
730.94	3720.65
731.126	3718.6
731.313	3761.61
731.499	3816.9
731.685	3874.24
731.871	3837.38
732.057	3816.9
732.243	3915.2
732.429	3857.86
732.615	3800.52
732.801	3976.64
732.987	3816.9
733.173	3769.8
733.359	3734.98
733.545	3724.74
733.731	3630.54
733.917	3784.13
734.103	3794.37
734.289	3808.71
734.475	3661.26
734.661	3876.29
734.847	3694.02
735.033	3929.54
735.219	3927.49
735.404	3823.05
735.59	3712.46
735.776	3775.94
735.962	3782.09
736.148	3714.5
736.333	3853.77
736.519	3655.11
736.705	3808.71
736.89	3855.81
737.076	3653.06
737.262	3784.13
737.447	3702.22
737.633	3696.07
737.819	3677.64
738.004	3638.73
738.19	3642.82
738.375	3577.29
738.561	3812.81
738.747	3724.74
738.932	3648.97
739.118	3737.03
739.303	3614.15
739.489	3767.75
739.674	3667.4
739.859	3577.29
740.045	3632.58
740.23	3526.09
740.416	3587.53
740.601	3636.68
740.786	3718.6
740.972	3503.56
741.157	3671.5
741.342	3595.72
741.528	3528.14
741.713	3579.34
741.898	3497.42
742.084	3581.39
742.269	3552.71
742.454	3503.56
742.639	3546.57
742.824	3390.92
743.01	3513.8
743.195	3509.71
743.38	3409.36
743.565	3499.47
743.75	3452.36
743.935	3450.32
744.12	3538.38
744.305	3362.25
744.49	3474.89
744.675	3206.61
744.86	3311.05
745.045	3411.4
745.23	3198.42
745.415	3317.2
745.6	3409.36
745.785	3153.36
745.97	3292.62
746.155	3358.16
746.34	3153.36
746.525	3071.44
746.71	3259.85
746.895	3222.99
747.079	3167.7
747.264	3214.8
747.449	3128.78
747.634	3188.18
747.819	3196.37
748.003	2971.09
748.188	2950.61
748.373	2964.95
748.557	2997.71
748.742	2913.75
748.927	2899.41
749.111	2956.75
749.296	2774.49
749.481	3030.48
749.665	2844.12
749.85	2905.56
750.034	2809.3
750.219	2848.21
750.404	2870.74
750.588	2674.14
750.773	2772.44
750.957	2741.72
751.141	2692.57
751.326	2731.48
751.51	2690.52
751.695	2637.27
751.879	2639.32
752.064	2706.9
752.248	2586.07
752.432	2739.67
752.617	2645.46
752.801	2565.59
752.985	2618.84
753.17	2557.4
753.354	2561.5
753.538	2518.49
753.722	2571.74
753.907	2571.74
754.091	2461.15
754.275	2506.2
754.459	2397.66
754.643	2426.33
754.828	2313.69
755.012	2465.24
755.196	2291.17
755.38	2291.17
755.564	2350.56
755.748	2280.93
755.932	2309.6
756.116	2211.29
756.3	2129.38
756.484	2211.29
756.668	2221.53
756.852	2162.14
757.036	2207.2
757.22	2078.18
757.404	2139.62
757.588	2211.29
757.772	2115.04
757.956	2104.8
758.14	2172.38
758.323	2022.88
758.507	2178.53
758.691	2031.07
758.875	2102.75
759.059	2078.18
759.242	2043.36
759.426	1949.15
759.61	2205.15
759.794	1998.31
759.977	2022.88
760.161	2100.7
760.345	1961.44
760.528	1975.78
760.712	1924.58
760.895	2045.41
761.079	2010.59
761.263	1842.66
761.446	1777.12
761.63	1793.51
761.813	1957.35
761.997	1842.66
762.18	1691.11
762.364	1832.42
762.547	1680.87
762.731	1811.94
762.914	1707.49
763.098	1715.69
763.281	1742.31
763.464	1754.6
763.648	1730.02
763.831	1699.3
764.015	1699.3
764.198	1691.11
764.381	1764.84
764.564	1672.68
764.748	1715.69
764.931	1730.02
765.114	1601
765.297	1609.19
765.481	1560.04
765.664	1613.29
765.847	1613.29
766.03	1738.21
766.213	1555.94
766.397	1557.99
766.58	1474.03
766.763	1644.01
766.946	1639.91
767.129	1508.84
767.312	1478.12
767.495	1674.73
767.678	1543.66
767.861	1539.56
768.044	1490.41
768.227	1576.42
768.41	1562.09
768.593	1500.65
768.776	1500.65
768.959	1560.04
769.142	1482.22
769.324	1553.9
769.507	1498.6
769.69	1447.4
769.873	1482.22
770.056	1494.51
770.239	1410.54
770.421	1375.72
770.604	1396.2
770.787	1398.25
770.97	1400.3
771.152	1408.49
771.335	1441.26
771.518	1388.01
771.7	1525.22
771.883	1437.16
772.066	1351.15
772.248	1306.09
772.431	1373.68
772.613	1396.2
772.796	1289.71
772.978	1404.39
773.161	1424.87
773.343	1406.44
773.526	1293.8
773.708	1314.28
773.891	1211.89
774.073	1236.46
774.256	1236.46
774.438	1156.59
774.621	1277.42
774.803	1285.61
774.985	1275.37
775.168	1215.98
775.35	1279.47
775.532	1168.88
775.715	1148.4
775.897	1246.7
776.079	1136.11
776.261	1146.35
776.444	1129.97
776.626	1019.38
776.808	1121.77
776.99	1041.9
777.173	1154.54
777.355	1115.63
777.537	1037.81
777.719	1142.25
777.901	1144.3
778.083	1072.62
778.265	990.7
778.447	1023.47
778.629	1052.14
778.811	1007.09
778.993	1058.29
779.175	1013.23
779.357	953.84
779.539	982.51
779.721	982.51
779.903	1023.47
780.085	1031.66
780.267	976.37
780.449	974.32
780.631	1076.72
780.812	966.13
780.994	812.53
781.176	937.46
781.358	886.26
781.54	861.68
781.721	925.17
781.903	935.41
782.085	919.03
782.267	869.87
782.448	818.68
782.63	867.83
782.812	880.11
782.993	867.83
783.175	787.96
783.357	810.48
783.538	861.68
783.72	816.63
783.901	816.63
784.083	783.86
784.264	894.45
784.446	810.48
784.627	777.72
784.809	878.07
784.99	720.37
785.172	792.05
785.353	812.53
785.535	771.57
785.716	691.7
785.897	796.15
786.079	757.24
786.26	706.04
786.441	785.91
786.623	613.88
786.804	601.59
786.985	703.99
787.167	714.23
787.348	634.36
787.529	722.42
787.71	687.61
787.891	585.21
788.073	609.78
788.254	652.79
788.435	667.13
788.616	765.43
788.797	681.46
788.978	628.21
789.159	663.03
789.34	632.31
789.522	558.58
789.703	626.17
789.884	613.88
790.065	613.88
790.246	691.7
790.427	665.08
790.607	634.36
790.788	597.49
790.969	605.69
791.15	640.5
791.331	558.58
791.512	628.21
791.693	462.33
791.874	488.95
792.054	693.75
792.235	531.96
792.416	503.29
792.597	523.77
792.778	570.87
792.958	583.16
793.139	525.82
793.32	574.97
793.5	491
793.681	511.48
793.862	548.34
794.042	568.82
794.223	546.3
794.404	482.81
794.584	452.09
794.765	517.62
794.945	468.47
795.126	472.57
795.306	503.29
795.487	507.38
795.667	499.19
795.848	458.23
796.028	445.95
796.209	574.97
796.389	400.89
796.57	386.55
796.75	378.36
796.93	429.56
797.111	400.89
797.291	425.47
797.471	456.19
797.652	468.47
797.832	421.37
798.012	402.94
798.192	441.85
798.373	423.42
798.553	413.18
798.733	435.71
798.913	427.51
799.093	378.36
799.274	380.41
799.454	474.62
799.634	364.03
799.814	370.17
799.994	468.47
800.174	443.9
800.354	380.41
800.534	355.83
800.714	404.99
800.894	409.08
801.074	359.93
801.254	343.55
801.434	491
801.614	327.16
801.794	353.79
801.974	1355.24
802.154	316.92
802.334	386.55
802.514	374.27
802.693	390.65
802.873	364.03
803.053	370.17
803.233	400.89
803.413	372.22
803.592	349.69
803.772	331.26
803.952	355.83
804.131	269.82
804.311	413.18
804.491	359.93
804.67	273.92
804.85	325.12
805.03	359.93
805.209	333.31
805.389	220.67
805.568	335.35
805.748	327.16
805.928	278.01
806.107	263.68
806.287	296.44
806.466	368.12
806.646	351.74
806.825	343.55
807.004	239.1
807.184	278.01
807.363	329.21
807.543	296.44
807.722	239.1
807.901	321.02
808.081	343.55
808.26	249.34
808.439	290.3
808.619	300.54
808.798	280.06
808.977	304.64
809.156	230.91
809.336	318.97
809.515	331.26
809.694	189.95
809.873	288.25
810.052	237.05
810.231	339.45
810.411	310.78
810.59	380.41
810.769	294.4
810.948	327.16
811.127	226.81
811.306	212.48
811.485	222.72
811.664	335.35
811.843	323.07
812.022	306.68
812.201	251.39
812.38	232.96
812.559	228.86
812.737	292.35
812.916	208.38
813.095	245.24
813.274	253.44
813.453	192
813.632	269.82
813.811	273.92
813.989	204.28
814.168	245.24
814.347	239.1
814.526	208.38
814.704	288.25
814.883	302.59
815.062	179.71
815.24	237.05
815.419	204.28
815.598	216.57
815.776	196.09
815.955	228.86
816.133	126.46
816.312	196.09
816.49	220.67
816.669	165.37
816.847	232.96
817.026	294.4
817.204	189.95
817.383	198.14
817.561	173.57
817.74	204.28
817.918	261.63
818.097	194.05
818.275	198.14
818.453	230.91
818.632	224.76
818.81	189.95
818.988	183.81
819.167	224.76
819.345	216.57
819.523	136.7
819.701	267.77
819.879	196.09
820.058	224.76
820.236	228.86
820.414	204.28
820.592	187.9
820.77	196.09
820.948	171.52
821.127	148.99
821.305	177.66
821.483	187.9
821.661	220.67
821.839	230.91
822.017	155.13
822.195	206.33
822.373	173.57
822.551	189.95
822.729	198.14
822.907	185.85
823.085	146.94
823.262	187.9
823.44	196.09
823.618	179.71
823.796	220.67
823.974	146.94
824.152	214.52
824.329	192
824.507	228.86
824.685	245.24
824.863	140.8
825.04	132.61
825.218	214.52
825.396	183.81
825.574	228.86
825.751	187.9
825.929	169.47
826.107	200.19
826.284	79.36
826.462	167.42
826.639	89.6
826.817	179.71
826.994	196.09
827.172	146.94
827.349	165.37
827.527	144.89
827.704	130.56
827.882	198.14
828.059	126.46
828.237	140.8
828.414	124.41
828.591	87.55
828.769	187.9
828.946	99.84
829.124	159.23
829.301	228.86
829.478	73.21
829.655	89.6
829.833	163.33
830.01	24.06
830.187	138.75
830.364	204.28
830.542	122.37
830.719	202.24
830.896	126.46
831.073	169.47
831.25	130.56
831.427	83.45
831.604	46.59
831.782	62.98
831.959	237.05
832.136	189.95
832.313	183.81
832.49	122.37
832.667	138.75
832.844	50.69
833.021	153.09
833.198	155.13
833.374	114.17
833.551	157.18
833.728	85.5
833.905	148.99
834.082	17.92
834.259	153.09
834.436	167.42
834.612	101.89
834.789	169.47
834.966	148.99
835.143	91.65
835.319	118.27
835.496	159.23
835.673	77.31
835.85	153.09
836.026	118.27
836.203	171.52
836.38	138.75
836.556	103.93
836.733	52.74
836.909	198.14
837.086	81.41
837.262	91.65
837.439	136.7
837.616	83.45
837.792	120.32
837.968	91.65
838.145	-10.75
838.321	146.94
838.498	118.27
838.674	179.71
838.851	97.79
839.027	97.79
839.203	120.32
839.38	132.61
839.556	120.32
839.732	148.99
839.909	110.08
840.085	161.28
840.261	38.4
840.437	124.41
840.614	46.59
840.79	118.27
840.966	120.32
841.142	138.75
841.318	122.37
841.494	91.65
841.671	91.65
841.847	83.45
842.023	34.3
842.199	97.79
842.375	67.07
842.551	81.41
842.727	15.87
842.903	179.71
843.079	83.45
843.255	91.65
843.431	65.02
843.607	89.6
843.783	3.58
843.959	54.78
844.134	108.03
844.31	99.84
844.486	65.02
844.662	-35.33
844.838	138.75
845.013	112.13
845.189	142.85
845.365	52.74
845.541	79.36
845.716	142.85
845.892	17.92
846.068	7.68
846.244	81.41
846.419	138.75
846.595	28.16
846.77	17.92
846.946	130.56
847.122	34.3
847.297	114.17
847.473	97.79
847.648	65.02
847.824	24.06
847.999	159.23
848.175	15.87
848.35	73.21
848.526	67.07
848.701	89.6
848.876	97.79
849.052	118.27
849.227	81.41
849.403	32.26
849.578	97.79
849.753	77.31
849.929	97.79
850.104	42.5
850.279	65.02
850.454	91.65
850.63	105.98
850.805	60.93
850.98	89.6
851.155	19.97
851.33	120.32
851.505	11.78
851.681	124.41
851.856	24.06
852.031	122.37
852.206	24.06
852.381	56.83
852.556	42.5
852.731	97.79
852.906	110.08
853.081	103.93
853.256	58.88
853.431	9.73
853.606	75.26
853.781	38.4
853.956	-4.61
854.131	42.5
854.305	-16.9
854.48	42.5
854.655	-16.9
854.83	87.55
855.005	50.69
855.18	75.26
855.354	81.41
855.529	134.65
855.704	30.21
855.879	19.97
856.053	114.17
856.228	128.51
856.403	58.88
856.577	48.64
856.752	-41.47
856.926	22.02
857.101	44.54
857.276	48.64
857.45	48.64
857.625	46.59
857.799	91.65
857.974	81.41
858.148	15.87
858.323	73.21
858.497	7.68
858.672	7.68
858.846	-43.52
859.02	93.69
859.195	-16.9
859.369	73.21
859.543	30.21
859.718	52.74
859.892	108.03
860.066	65.02
860.241	62.98
860.415	67.07
860.589	7.68
860.763	95.74
860.938	3.58
861.112	40.45
861.286	34.3
861.46	48.64
861.634	60.93
861.808	93.69
861.982	-33.28
862.157	97.79
862.331	-29.18
862.505	75.26
862.679	-2.56
862.853	60.93
863.027	30.21
863.201	153.09
863.375	40.45
863.549	-6.66
863.722	69.12
863.896	81.41
864.07	67.07
864.244	-12.8
864.418	101.89
864.592	-20.99
864.766	36.35
864.939	32.26
865.113	56.83
865.287	112.13
865.461	79.36
865.634	58.88
865.808	-45.57
865.982	42.5
866.156	3.58
866.329	-12.8
866.503	17.92
866.676	28.16
866.85	48.64
867.024	26.11
867.197	26.11
867.371	112.13
867.544	-20.99
867.718	52.74
867.891	87.55
868.065	-0.51
868.238	116.22
868.412	32.26
868.585	-70.14
868.759	-53.76
868.932	-47.62
869.105	-8.7
869.279	-6.66
869.452	15.87
869.625	60.93
869.799	11.78
869.972	-0.51
870.145	32.26
870.319	36.35
870.492	-4.61
870.665	40.45
870.838	69.12
871.011	-0.51
871.185	67.07
871.358	-0.51
871.531	42.5
871.704	11.78
871.877	48.64
872.05	-70.14
872.223	-68.09
872.396	5.63
872.569	83.45
872.742	-43.52
872.915	19.97
873.088	40.45
873.261	-57.86
873.434	17.92
873.607	75.26
873.78	99.84
873.953	-18.94
874.126	60.93
874.299	89.6
874.471	-8.7
874.644	17.92
874.817	54.78
874.99	22.02
875.163	48.64
875.335	77.31
875.508	-59.9
875.681	15.87
875.853	-0.51
876.026	32.26
876.199	26.11
876.371	-39.42
876.544	5.63
876.717	15.87
876.889	-25.09
877.062	46.59
877.234	-25.09
877.407	-27.14
877.579	46.59
877.752	44.54
877.924	17.92
878.097	81.41
878.269	3.58
878.442	-0.51
878.614	30.21
878.786	9.73
878.959	58.88
879.131	34.3
879.303	-72.19
879.476	-25.09
879.648	67.07
879.82	48.64
879.993	48.64
880.165	9.73
880.337	-2.56
880.509	15.87
880.681	15.87
880.854	-6.66
881.026	15.87
881.198	40.45
881.37	103.93
881.542	-55.81
881.714	56.83
881.886	3.58
882.058	130.56
882.23	32.26
882.402	54.78
882.574	-0.51
882.746	40.45
882.918	44.54
883.09	58.88
883.262	3.58
883.434	-33.28
883.606	17.92
883.778	5.63
883.95	26.11
884.122	-2.56
884.293	75.26
884.465	128.51
884.637	79.36
884.809	60.93
884.98	40.45
885.152	85.5
885.324	52.74
885.496	-14.85
885.667	13.82
885.839	5.63
886.011	58.88
886.182	48.64
886.354	15.87
886.525	65.02
886.697	56.83
886.869	-8.7
887.04	-31.23
887.212	65.02
887.383	75.26
887.555	36.35
887.726	26.11
887.897	-41.47
888.069	-25.09
888.24	17.92
888.412	40.45
888.583	15.87
888.754	-27.14
888.926	-29.18
889.097	-16.9
889.268	-45.57
889.44	114.17
889.611	-35.33
889.782	3.58
889.953	19.97
890.125	48.64
890.296	-29.18
890.467	36.35
890.638	-57.86
890.809	-16.9
890.98	-14.85
891.151	132.61
891.323	38.4
891.494	-6.66
891.665	32.26
891.836	-29.18
892.007	-23.04
892.178	15.87
892.349	54.78
892.52	60.93
892.691	-51.71
892.862	-35.33
893.032	-16.9
893.203	34.3
893.374	-12.8
893.545	-6.66
893.716	11.78
893.887	42.5
894.057	-45.57
894.228	30.21
894.399	28.16
894.57	73.21
894.74	58.88
894.911	22.02
895.082	-45.57
895.253	75.26
895.423	3.58
895.594	11.78
895.764	-55.81
895.935	-61.95
896.106	56.83
896.276	-12.8
896.447	42.5
896.617	-51.71
896.788	52.74
896.958	7.68
897.129	-35.33
897.299	-6.66
897.47	15.87
897.64	60.93
897.81	34.3
897.981	32.26
898.151	36.35
898.322	17.92
898.492	-18.94
898.662	-33.28
898.832	-12.8
899.003	5.63
899.173	46.59
899.343	-23.04
899.513	22.02
