Data from USB4F104151__29__13-04-49-567.txt Node

Date: Fri Mar 14 13:04:49 EDT 2025
User: louis
Spectrometer: USB4F10415
Trigger mode: 4
Integration Time (sec): 4.000000E-2
Scans to average: 1
Electric dark correction enabled: true
Nonlinearity correction enabled: false
Boxcar width: 0
XAxis mode: Wavelengths
Number of Pixels in Spectrum: 3648
>>>>>Begin Spectral Data<<<<<
178.204	-160.94
178.424	-160.94
178.644	-160.94
178.864	-197.8
179.084	-218.28
179.304	-56.49
179.524	-91.31
179.744	-42.15
179.964	29.52
180.184	60.24
180.404	-38.06
180.624	25.43
180.844	13.14
181.064	-11.43
181.283	9.05
181.503	27.48
181.723	74.58
181.943	-13.48
182.163	64.34
182.383	-48.3
182.602	60.24
182.822	7
183.042	23.38
183.262	-91.31
183.482	25.43
183.701	-13.48
183.921	-9.39
184.141	23.38
184.361	15.19
184.58	27.48
184.8	33.62
185.02	-91.31
185.239	23.38
185.459	-13.48
185.679	109.4
185.898	-11.43
186.118	150.36
186.338	-13.48
186.557	35.67
186.777	-33.96
186.997	11.09
187.216	-1.19
187.436	103.25
187.655	86.87
187.875	90.96
188.095	76.63
188.314	7
188.534	31.57
188.753	13.14
188.973	90.96
189.192	80.72
189.412	21.33
189.631	41.81
189.851	60.24
190.07	107.35
190.29	-46.25
190.509	-11.43
190.729	-17.58
190.948	78.68
191.168	211.79
191.387	27.48
191.607	19.29
191.826	11.09
192.045	84.82
192.265	129.88
192.484	4.95
192.704	52.05
192.923	2.9
193.142	109.4
193.362	88.92
193.581	64.34
193.8	39.76
194.02	2.9
194.239	74.58
194.458	68.44
194.678	7
194.897	25.43
195.116	35.67
195.335	31.57
195.555	45.91
195.774	88.92
195.993	74.58
196.212	19.29
196.432	19.29
196.651	-27.82
196.87	15.19
197.089	-1.19
197.308	35.67
197.528	76.63
197.747	-25.77
197.966	15.19
198.185	74.58
198.404	23.38
198.623	33.62
198.842	50
199.062	-33.96
199.281	64.34
199.5	21.33
199.719	56.15
199.938	84.82
200.157	-17.58
200.376	13.14
200.595	97.11
200.814	50
201.033	-33.96
201.252	78.68
201.471	74.58
201.69	109.4
201.909	27.48
202.128	4.95
202.347	86.87
202.566	41.81
202.785	-36.01
203.004	-25.77
203.223	84.82
203.442	33.62
203.661	52.05
203.879	13.14
204.098	52.05
204.317	9.05
204.536	50
204.755	7
204.974	97.11
205.193	-7.34
205.411	99.16
205.63	144.21
205.849	70.48
206.068	25.43
206.287	15.19
206.505	72.53
206.724	-23.72
206.943	47.96
207.162	17.24
207.381	-31.91
207.599	2.9
207.818	76.63
208.037	-27.82
208.255	15.19
208.474	23.38
208.693	64.34
208.911	41.81
209.13	27.48
209.349	129.88
209.567	39.76
209.786	19.29
210.005	-58.54
210.223	72.53
210.442	9.05
210.661	56.15
210.879	15.19
211.098	80.72
211.316	27.48
211.535	103.25
211.753	4.95
211.972	27.48
212.191	15.19
212.409	-50.35
212.628	-38.06
212.846	-36.01
213.065	131.92
213.283	37.72
213.502	27.48
213.72	29.52
213.938	35.67
214.157	-48.3
214.375	62.29
214.594	-5.29
214.812	2.9
215.031	-19.63
215.249	-9.39
215.467	-15.53
215.686	25.43
215.904	47.96
216.122	-5.29
216.341	133.97
216.559	54.1
216.778	82.77
216.996	93.01
217.214	9.05
217.432	113.49
217.651	15.19
217.869	21.33
218.087	-17.58
218.306	-1.19
218.524	39.76
218.742	-13.48
218.96	27.48
219.179	0.85
219.397	105.3
219.615	93.01
219.833	47.96
220.051	-40.11
220.27	84.82
220.488	121.68
220.706	2.9
220.924	-25.77
221.142	25.43
221.36	15.19
221.578	25.43
221.796	15.19
222.015	-27.82
222.233	35.67
222.451	82.77
222.669	47.96
222.887	78.68
223.105	4.95
223.323	70.48
223.541	-68.78
223.759	35.67
223.977	31.57
224.195	105.3
224.413	45.91
224.631	88.92
224.849	47.96
225.067	99.16
225.285	-72.87
225.503	43.86
225.721	-9.39
225.939	70.48
226.157	80.72
226.375	156.5
226.592	52.05
226.81	9.05
227.028	88.92
227.246	56.15
227.464	-11.43
227.682	-13.48
227.9	31.57
228.117	119.64
228.335	25.43
228.553	-48.3
228.771	19.29
228.989	11.09
229.206	33.62
229.424	52.05
229.642	41.81
229.86	9.05
230.077	47.96
230.295	23.38
230.513	86.87
230.731	25.43
230.948	74.58
231.166	88.92
231.384	-23.72
231.601	-44.2
231.819	72.53
232.037	-9.39
232.254	19.29
232.472	37.72
232.689	37.72
232.907	66.39
233.125	54.1
233.342	29.52
233.56	7
233.777	2.9
233.995	-54.44
234.213	74.58
234.43	64.34
234.648	2.9
234.865	47.96
235.083	0.85
235.3	-42.15
235.518	-5.29
235.735	113.49
235.953	0.85
236.17	9.05
236.388	-7.34
236.605	78.68
236.822	64.34
237.04	82.77
237.257	-5.29
237.475	56.15
237.692	84.82
237.909	43.86
238.127	-38.06
238.344	9.05
238.562	86.87
238.779	-29.87
238.996	21.33
239.214	-50.35
239.431	97.11
239.648	-3.24
239.865	25.43
240.083	68.44
240.3	37.72
240.517	23.38
240.735	-44.2
240.952	19.29
241.169	72.53
241.386	-17.58
241.603	29.52
241.821	-15.53
242.038	82.77
242.255	60.24
242.472	7
242.689	47.96
242.907	93.01
243.124	13.14
243.341	41.81
243.558	23.38
243.775	17.24
243.992	-105.64
244.209	9.05
244.426	138.07
244.643	41.81
244.86	-60.59
245.078	31.57
245.295	50
245.512	113.49
245.729	-1.19
245.946	93.01
246.163	52.05
246.38	80.72
246.597	-25.77
246.814	64.34
247.031	23.38
247.248	21.33
247.464	31.57
247.681	50
247.898	-5.29
248.115	43.86
248.332	-23.72
248.549	9.05
248.766	117.59
248.983	58.2
249.2	66.39
249.417	84.82
249.633	-9.39
249.85	50
250.067	-1.19
250.284	31.57
250.501	17.24
250.717	64.34
250.934	-64.68
251.151	78.68
251.368	58.2
251.585	70.48
251.801	17.24
252.018	-7.34
252.235	9.05
252.451	27.48
252.668	27.48
252.885	88.92
253.102	-21.67
253.318	27.48
253.535	21.33
253.752	-115.88
253.968	-42.15
254.185	-74.92
254.401	39.76
254.618	41.81
254.835	-29.87
255.051	70.48
255.268	21.33
255.484	56.15
255.701	-1.19
255.917	-3.24
256.134	-11.43
256.351	54.1
256.567	-29.87
256.784	56.15
257	-7.34
257.217	84.82
257.433	47.96
257.65	2.9
257.866	2.9
258.082	39.76
258.299	35.67
258.515	2.9
258.732	-54.44
258.948	21.33
259.165	37.72
259.381	-29.87
259.597	95.06
259.814	105.3
260.03	37.72
260.246	47.96
260.463	113.49
260.679	60.24
260.895	-17.58
261.112	99.16
261.328	-58.54
261.544	-7.34
261.761	129.88
261.977	-17.58
262.193	-36.01
262.409	125.78
262.626	45.91
262.842	31.57
263.058	19.29
263.274	70.48
263.49	7
263.707	88.92
263.923	-54.44
264.139	-9.39
264.355	29.52
264.571	113.49
264.787	15.19
265.004	97.11
265.22	17.24
265.436	47.96
265.652	68.44
265.868	52.05
266.084	17.24
266.3	21.33
266.516	15.19
266.732	84.82
266.948	-23.72
267.164	64.34
267.38	50
267.596	41.81
267.812	99.16
268.028	27.48
268.244	-23.72
268.46	50
268.676	60.24
268.892	13.14
269.108	33.62
269.324	62.29
269.54	-33.96
269.756	68.44
269.972	-48.3
270.188	19.29
270.403	43.86
270.619	-23.72
270.835	0.85
271.051	0.85
271.267	27.48
271.483	-9.39
271.698	9.05
271.914	-36.01
272.13	15.19
272.346	-27.82
272.562	-23.72
272.777	19.29
272.993	-17.58
273.209	13.14
273.425	45.91
273.64	-21.67
273.856	50
274.072	-5.29
274.287	-25.77
274.503	39.76
274.719	17.24
274.934	78.68
275.15	-38.06
275.366	-13.48
275.581	-60.59
275.797	-11.43
276.012	27.48
276.228	84.82
276.444	41.81
276.659	146.26
276.875	17.24
277.09	37.72
277.306	-17.58
277.521	80.72
277.737	-7.34
277.952	113.49
278.168	19.29
278.383	-21.67
278.599	56.15
278.814	113.49
279.03	-5.29
279.245	109.4
279.461	11.09
279.676	82.77
279.892	-9.39
280.107	-23.72
280.322	88.92
280.538	66.39
280.753	21.33
280.969	43.86
281.184	-81.07
281.399	66.39
281.615	-29.87
281.83	84.82
282.045	113.49
282.26	-3.24
282.476	35.67
282.691	47.96
282.906	15.19
283.122	23.38
283.337	29.52
283.552	21.33
283.767	66.39
283.983	23.38
284.198	35.67
284.413	101.2
284.628	29.52
284.843	19.29
285.058	58.2
285.274	58.2
285.489	72.53
285.704	33.62
285.919	-1.19
286.134	-38.06
286.349	-33.96
286.564	-15.53
286.779	86.87
286.995	-42.15
287.21	-58.54
287.425	101.2
287.64	-46.25
287.855	74.58
288.07	9.05
288.285	23.38
288.5	2.9
288.715	33.62
288.93	56.15
289.145	64.34
289.36	29.52
289.575	35.67
289.79	68.44
290.004	21.33
290.219	101.2
290.434	-3.24
290.649	-5.29
290.864	45.91
291.079	-31.91
291.294	31.57
291.509	7
291.724	70.48
291.938	-44.2
292.153	101.2
292.368	31.57
292.583	43.86
292.798	64.34
293.012	27.48
293.227	47.96
293.442	-38.06
293.657	86.87
293.871	25.43
294.086	88.92
294.301	31.57
294.516	39.76
294.73	60.24
294.945	2.9
295.16	11.09
295.374	99.16
295.589	64.34
295.804	-3.24
296.018	-27.82
296.233	50
296.447	86.87
296.662	31.57
296.877	4.95
297.091	41.81
297.306	90.96
297.52	31.57
297.735	17.24
297.949	-13.48
298.164	7
298.378	47.96
298.593	15.19
298.807	19.29
299.022	-9.39
299.236	101.2
299.451	101.2
299.665	62.29
299.88	-33.96
300.094	103.25
300.309	52.05
300.523	15.19
300.737	58.2
300.952	-17.58
301.166	13.14
301.381	-27.82
301.595	23.38
301.809	58.2
302.024	17.24
302.238	-58.54
302.452	97.11
302.667	-52.39
302.881	31.57
303.095	105.3
303.309	68.44
303.524	21.33
303.738	-19.63
303.952	-13.48
304.166	2.9
304.381	-17.58
304.595	181.07
304.809	-29.87
305.023	39.76
305.237	62.29
305.452	-38.06
305.666	37.72
305.88	103.25
306.094	41.81
306.308	52.05
306.522	82.77
306.736	35.67
306.95	17.24
307.164	103.25
307.379	17.24
307.593	99.16
307.807	105.3
308.021	17.24
308.235	68.44
308.449	25.43
308.663	66.39
308.877	111.44
309.091	68.44
309.305	119.64
309.519	-48.3
309.733	90.96
309.947	-11.43
310.161	76.63
310.374	39.76
310.588	140.12
310.802	0.85
311.016	39.76
311.23	101.2
311.444	-23.72
311.658	41.81
311.872	105.3
312.085	15.19
312.299	117.59
312.513	97.11
312.727	-15.53
312.941	-23.72
313.154	123.73
313.368	17.24
313.582	66.39
313.796	131.92
314.009	19.29
314.223	84.82
314.437	31.57
314.651	-70.83
314.864	-23.72
315.078	15.19
315.292	-95.4
315.505	52.05
315.719	80.72
315.933	47.96
316.146	35.67
316.36	-46.25
316.573	111.44
316.787	56.15
317.001	66.39
317.214	17.24
317.428	7
317.641	31.57
317.855	23.38
318.068	95.06
318.282	13.14
318.495	140.12
318.709	56.15
318.922	47.96
319.136	88.92
319.349	-25.77
319.563	39.76
319.776	70.48
319.99	-31.91
320.203	31.57
320.417	109.4
320.63	121.68
320.843	162.64
321.057	76.63
321.27	43.86
321.483	27.48
321.697	99.16
321.91	-17.58
322.124	58.2
322.337	7
322.55	-11.43
322.763	97.11
322.977	62.29
323.19	-42.15
323.403	66.39
323.617	62.29
323.83	93.01
324.043	-7.34
324.256	17.24
324.469	19.29
324.683	27.48
324.896	4.95
325.109	66.39
325.322	-13.48
325.535	31.57
325.748	97.11
325.962	17.24
326.175	17.24
326.388	56.15
326.601	66.39
326.814	88.92
327.027	-15.53
327.24	117.59
327.453	-33.96
327.666	58.2
327.879	41.81
328.092	70.48
328.305	64.34
328.518	43.86
328.731	0.85
328.944	23.38
329.157	52.05
329.37	41.81
329.583	140.12
329.796	99.16
330.009	-74.92
330.222	66.39
330.435	70.48
330.648	-17.58
330.861	11.09
331.073	68.44
331.286	54.1
331.499	50
331.712	-19.63
331.925	9.05
332.138	54.1
332.35	31.57
332.563	41.81
332.776	105.3
332.989	-44.2
333.202	72.53
333.414	35.67
333.627	58.2
333.84	56.15
334.053	99.16
334.265	9.05
334.478	80.72
334.691	-19.63
334.903	47.96
335.116	-17.58
335.329	29.52
335.541	52.05
335.754	84.82
335.966	25.43
336.179	60.24
336.392	25.43
336.604	72.53
336.817	64.34
337.029	113.49
337.242	-33.96
337.454	74.58
337.667	-3.24
337.88	131.92
338.092	41.81
338.305	52.05
338.517	-7.34
338.729	35.67
338.942	86.87
339.154	-25.77
339.367	-3.24
339.579	52.05
339.792	-3.24
340.004	148.31
340.217	-9.39
340.429	105.3
340.641	23.38
340.854	62.29
341.066	-48.3
341.278	133.97
341.491	136.02
341.703	43.86
341.915	-15.53
342.128	80.72
342.34	60.24
342.552	41.81
342.764	23.38
342.977	21.33
343.189	35.67
343.401	54.1
343.613	47.96
343.826	64.34
344.038	68.44
344.25	52.05
344.462	15.19
344.674	27.48
344.886	43.86
345.099	56.15
345.311	105.3
345.523	41.81
345.735	68.44
345.947	66.39
346.159	35.67
346.371	9.05
346.583	-17.58
346.795	99.16
347.007	25.43
347.219	56.15
347.431	123.73
347.643	88.92
347.855	43.86
348.067	56.15
348.279	11.09
348.491	-5.29
348.703	60.24
348.915	-42.15
349.127	31.57
349.339	4.95
349.551	88.92
349.763	70.48
349.975	58.2
350.187	86.87
350.399	52.05
350.61	47.96
350.822	41.81
351.034	56.15
351.246	27.48
351.458	111.44
351.669	45.91
351.881	72.53
352.093	39.76
352.305	115.54
352.517	111.44
352.728	52.05
352.94	64.34
353.152	86.87
353.363	62.29
353.575	60.24
353.787	119.64
353.999	97.11
354.21	154.45
354.422	82.77
354.633	45.91
354.845	50
355.057	66.39
355.268	64.34
355.48	105.3
355.692	17.24
355.903	-33.96
356.115	15.19
356.326	15.19
356.538	97.11
356.749	2.9
356.961	84.82
357.172	-13.48
357.384	-15.53
357.595	146.26
357.807	45.91
358.018	-31.91
358.23	56.15
358.441	99.16
358.653	-7.34
358.864	66.39
359.075	52.05
359.287	2.9
359.498	52.05
359.709	76.63
359.921	-1.19
360.132	9.05
360.344	88.92
360.555	78.68
360.766	80.72
360.977	105.3
361.189	99.16
361.4	52.05
361.611	84.82
361.823	25.43
362.034	56.15
362.245	-40.11
362.456	9.05
362.667	72.53
362.879	13.14
363.09	56.15
363.301	105.3
363.512	-21.67
363.723	50
363.935	29.52
364.146	97.11
364.357	86.87
364.568	58.2
364.779	-1.19
364.99	99.16
365.201	21.33
365.412	52.05
365.623	25.43
365.834	115.54
366.045	39.76
366.256	97.11
366.467	35.67
366.678	29.52
366.889	-1.19
367.1	90.96
367.311	29.52
367.522	68.44
367.733	56.15
367.944	37.72
368.155	21.33
368.366	93.01
368.577	90.96
368.788	72.53
368.999	0.85
369.209	72.53
369.42	47.96
369.631	199.51
369.842	70.48
370.053	66.39
370.264	97.11
370.474	9.05
370.685	97.11
370.896	-11.43
371.107	64.34
371.317	74.58
371.528	35.67
371.739	54.1
371.95	93.01
372.16	136.02
372.371	-25.77
372.582	95.06
372.792	7
373.003	11.09
373.214	97.11
373.424	103.25
373.635	35.67
373.846	58.2
374.056	113.49
374.267	127.83
374.477	123.73
374.688	-21.67
374.898	68.44
375.109	52.05
375.319	33.62
375.53	88.92
375.74	31.57
375.951	111.44
376.161	0.85
376.372	99.16
376.582	-1.19
376.793	109.4
377.003	-58.54
377.214	90.96
377.424	56.15
377.635	88.92
377.845	131.92
378.055	121.68
378.266	29.52
378.476	39.76
378.686	47.96
378.897	101.2
379.107	64.34
379.317	119.64
379.528	97.11
379.738	58.2
379.948	41.81
380.158	80.72
380.369	41.81
380.579	39.76
380.789	35.67
380.999	64.34
381.21	52.05
381.42	119.64
381.63	31.57
381.84	62.29
382.05	19.29
382.261	140.12
382.471	37.72
382.681	45.91
382.891	109.4
383.101	113.49
383.311	15.19
383.521	-9.39
383.731	117.59
383.941	45.91
384.151	62.29
384.361	45.91
384.571	13.14
384.781	58.2
384.991	37.72
385.201	115.54
385.411	113.49
385.621	50
385.831	41.81
386.041	-56.49
386.251	13.14
386.461	103.25
386.671	58.2
386.881	80.72
387.091	95.06
387.301	129.88
387.511	19.29
387.72	138.07
387.93	9.05
388.14	21.33
388.35	148.31
388.56	138.07
388.769	64.34
388.979	58.2
389.189	-19.63
389.399	80.72
389.609	70.48
389.818	127.83
390.028	88.92
390.238	129.88
390.447	35.67
390.657	-15.53
390.867	37.72
391.076	25.43
391.286	70.48
391.496	105.3
391.705	37.72
391.915	131.92
392.125	113.49
392.334	39.76
392.544	72.53
392.753	52.05
392.963	84.82
393.172	27.48
393.382	90.96
393.591	176.98
393.801	88.92
394.01	62.29
394.22	62.29
394.429	17.24
394.639	95.06
394.848	164.69
395.058	121.68
395.267	119.64
395.477	54.1
395.686	43.86
395.895	230.23
396.105	160.59
396.314	117.59
396.524	109.4
396.733	103.25
396.942	133.97
397.152	90.96
397.361	150.36
397.57	142.16
397.78	115.54
397.989	109.4
398.198	224.08
398.407	121.68
398.617	109.4
398.826	56.15
399.035	121.68
399.244	70.48
399.453	170.83
399.663	86.87
399.872	115.54
400.081	99.16
400.29	138.07
400.499	103.25
400.708	129.88
400.917	88.92
401.127	88.92
401.336	101.2
401.545	119.64
401.754	142.16
401.963	111.44
402.172	125.78
402.381	74.58
402.59	107.35
402.799	105.3
403.008	99.16
403.217	230.23
403.426	246.61
403.635	115.54
403.844	158.55
404.053	127.83
404.262	113.49
404.471	287.57
404.68	172.88
404.888	90.96
405.097	158.55
405.306	191.31
405.515	244.56
405.724	213.84
405.933	240.47
406.142	140.12
406.35	314.19
406.559	256.85
406.768	275.28
406.977	287.57
407.185	215.89
407.394	269.14
407.603	236.37
407.812	262.99
408.02	359.25
408.229	138.07
408.438	238.42
408.646	275.28
408.855	295.76
409.064	273.23
409.272	297.81
409.481	375.63
409.69	381.78
409.898	408.4
410.107	332.62
410.315	367.44
410.524	353.1
410.733	521.04
410.941	316.24
411.15	432.97
411.358	475.98
411.567	506.7
411.775	557.9
411.984	478.03
412.192	463.69
412.401	510.8
412.609	645.96
412.818	592.72
413.026	580.43
413.234	533.33
413.443	674.64
413.651	650.06
413.86	641.87
414.068	779.08
414.276	807.75
414.485	637.77
414.693	822.09
414.901	770.89
415.11	813.9
415.318	760.65
415.526	893.77
415.734	893.77
415.943	879.43
416.151	987.97
416.359	1067.85
416.567	936.78
416.776	1057.61
416.984	1125.19
417.192	1250.11
417.4	1114.95
417.608	1104.71
417.817	1194.82
418.025	1346.37
418.233	1432.38
418.441	1368.9
418.649	1325.89
418.857	1518.4
419.065	1571.65
419.273	1495.87
419.481	1657.66
419.689	1719.1
419.897	1692.48
420.105	1792.83
420.313	1862.46
420.521	1903.42
420.729	1983.29
420.937	2032.44
421.145	2138.93
421.353	2251.57
421.561	2392.88
421.769	2286.39
421.977	2370.35
422.185	2429.74
422.393	2507.57
422.601	2661.16
422.809	2714.41
423.017	2722.6
423.224	2718.51
423.432	2964.26
423.64	2898.73
423.848	3257.12
424.056	3148.58
424.263	3410.72
424.471	3367.71
424.679	3605.28
424.887	3691.29
425.094	3808.03
425.302	3711.77
425.51	3801.88
425.718	4113.17
425.925	4125.46
426.133	4365.07
426.341	4451.09
426.548	4639.5
426.756	4760.33
426.964	4711.18
427.171	4879.11
427.379	5077.77
427.586	5196.55
427.794	5518.08
428.001	5550.85
428.209	5917.44
428.417	5903.1
428.624	6183.67
428.832	6122.23
429.039	6234.87
429.247	6181.62
429.454	6886.12
429.662	7113.45
429.869	6658.8
430.076	7344.87
430.284	7109.35
430.491	7359.21
430.699	7817.95
430.906	7699.17
431.114	7994.08
431.321	8133.34
431.528	8553.17
431.736	8755.92
431.943	9210.57
432.15	8985.29
432.358	9147.08
432.565	9755.33
432.772	9534.15
432.979	10097.34
433.187	10195.64
433.394	10222.27
433.601	11045.55
433.808	10945.2
434.016	10961.58
434.223	11502.25
434.43	12094.11
434.637	11772.58
434.844	12597.91
435.052	12782.23
435.259	12878.48
435.466	12835.47
435.673	12733.08
435.88	13740.68
436.087	14217.85
436.294	14377.59
436.501	14056.06
436.708	14432.89
436.915	14678.65
437.122	15559.27
437.329	15254.12
437.537	15987.3
437.743	16128.61
437.95	16097.89
438.157	16974.42
438.364	17490.51
438.571	17607.24
438.778	17531.47
438.985	18997.81
439.192	18276.93
439.399	19024.44
439.606	18721.34
439.813	19923.49
440.02	20826.65
440.227	20699.67
440.433	20177.44
440.64	20941.33
440.847	20718.11
441.054	21068.31
441.261	22645.24
441.467	22215.17
441.674	22952.44
441.881	23814.63
442.088	23325.17
442.294	23210.48
442.501	24146.4
442.708	24611.29
442.914	25352.66
443.121	26649.02
443.328	25661.9
443.534	27742.64
443.741	26900.92
443.948	26757.57
444.154	28561.83
444.361	28572.07
444.568	28619.17
444.774	28561.83
444.981	28766.62
445.187	29688.21
445.394	30714.24
445.6	30673.28
445.807	33214.81
446.013	32313.7
446.22	32860.51
446.426	33904.98
446.633	34255.18
446.839	35404.09
447.046	34138.44
447.252	35789.11
447.459	36249.9
447.665	35881.27
447.871	37519.64
448.078	39026.95
448.284	37206.3
448.491	38177.04
448.697	39627
448.903	40265.97
449.11	40558.83
449.316	39944.44
449.522	40583.4
449.728	41507.04
449.935	41875.67
450.141	41773.27
450.347	42815.69
450.553	41709.78
450.76	42141.91
450.966	43565.24
451.172	43286.72
451.378	44341.42
451.584	43243.71
451.791	44277.94
451.997	44415.15
452.203	44931.24
452.409	44949.67
452.615	44484.78
452.821	43368.64
453.027	42784.97
453.233	45039.78
453.44	43342.02
453.646	43880.63
453.852	44085.43
454.058	44773.55
454.264	43276.48
454.47	44286.13
454.676	43264.19
454.882	44261.55
455.088	40835.3
455.294	41677.02
455.5	42291.41
455.705	42434.77
455.911	40909.03
456.117	40585.45
456.323	39622.9
456.529	37599.51
456.735	39241.98
456.941	38168.85
457.147	37767.45
457.352	36516.14
457.558	36124.97
457.764	36661.54
457.97	35567.93
458.176	34668.87
458.381	34738.5
458.587	33343.83
458.793	32989.53
458.999	31553.91
459.204	33907.02
459.41	32747.87
459.616	30800.26
459.821	30638.47
460.027	30128.52
460.233	30017.93
460.438	28385.7
460.644	28729.76
460.85	27482.55
461.055	26851.77
461.261	26995.13
461.466	24728.03
461.672	24074.73
461.878	25500.11
462.083	24013.29
462.289	23728.62
462.494	23435.76
462.7	22233.6
462.905	21950.98
463.111	22534.65
463.316	22927.86
463.522	21957.13
463.727	21946.89
463.932	22262.27
464.138	21787.14
464.343	22159.88
464.549	21244.43
464.754	21899.78
464.959	22010.37
465.165	21660.17
465.37	20695.58
465.575	20046.37
465.781	21203.47
465.986	21080.6
466.191	20230.69
466.397	20015.65
466.602	19096.11
466.807	19585.58
467.012	19773.99
467.218	19649.07
467.423	19237.42
467.628	19397.17
467.833	20460.06
468.038	19276.34
468.244	18973.24
468.449	19946.02
468.654	19231.28
468.859	19184.18
469.064	19098.16
469.269	18152
469.474	18207.3
469.679	18477.63
469.885	17959.49
470.09	18135.62
470.295	18152
470.5	17801.8
470.705	17812.04
470.91	17422.92
471.115	17439.31
471.32	17773.13
471.525	17535.56
471.73	17234.51
471.935	16972.37
472.139	16538.2
472.344	16495.19
472.549	16607.83
472.754	16411.23
472.959	16085.6
473.164	15739.49
473.369	15524.46
473.574	16433.75
473.778	15565.42
473.983	15714.92
474.188	15546.98
474.393	15145.58
474.598	15078
474.802	14809.72
475.007	14752.37
475.212	14914.16
475.417	14121.6
475.621	14355.07
475.826	14344.83
476.031	13824.64
476.235	13851.27
476.44	13941.38
476.645	13453.96
476.849	13705.86
477.054	13560.45
477.259	13142.67
477.463	13247.12
477.668	12984.98
477.872	13169.29
478.077	12835.47
478.282	12528.28
478.486	12384.92
478.691	12448.41
478.895	12376.73
479.1	12489.37
479.304	12495.51
479.509	11801.25
479.713	12231.32
479.918	11661.99
480.122	11672.23
480.326	12047.01
480.531	11942.56
480.735	11917.98
480.94	11678.37
481.144	12167.84
481.348	11492.01
481.553	11575.97
481.757	11412.14
481.961	11301.54
482.166	11643.56
482.37	11874.98
482.574	11434.66
482.778	11276.97
482.983	11657.89
483.187	11440.81
483.391	11461.29
483.595	11291.31
483.8	11260.59
484.004	11541.16
484.208	11483.81
484.412	11375.27
484.616	11416.23
484.821	11395.75
485.025	11180.71
485.229	11375.27
485.433	11168.43
485.637	11301.54
485.841	11221.67
486.045	11311.78
486.249	11266.73
486.453	10777.26
486.657	11203.24
486.861	11432.61
487.065	11098.8
487.269	11291.31
487.473	11127.47
487.677	11528.87
487.881	11547.3
488.085	11262.63
488.289	11563.68
488.493	11399.85
488.697	11322.02
488.901	11311.78
489.105	11315.88
489.309	11436.71
489.512	11451.05
489.716	11504.29
489.92	11631.27
490.124	11618.98
490.328	11729.57
490.531	11520.68
490.735	11641.51
490.939	11559.59
491.143	11612.84
491.346	11682.47
491.55	11858.59
491.754	12028.57
491.958	11760.29
492.161	11815.59
492.365	12087.96
492.569	11887.26
492.772	11797.15
492.976	12040.86
493.18	12075.68
493.383	12284.57
493.587	12311.19
493.79	12337.82
493.994	12348.06
494.197	12595.86
494.401	12608.15
494.605	12403.35
494.808	12745.36
495.012	12980.88
495.215	12878.48
495.419	13036.17
495.622	13068.94
495.825	13388.43
496.029	13355.66
496.232	13560.45
496.436	13423.24
496.639	13841.03
496.843	13712
497.046	13986.43
497.249	14086.78
497.453	14119.55
497.656	14342.78
497.859	14224
498.063	14406.27
498.266	14862.96
498.469	14897.78
498.673	15108.72
498.876	14735.99
499.079	15061.62
499.282	15108.72
499.485	15581.8
499.689	15415.91
499.892	15864.42
500.095	15891.04
500.298	16413.27
500.501	16034.4
500.705	16505.43
500.908	16867.92
501.111	16906.84
501.314	17228.37
501.517	17066.58
501.72	17474.12
501.923	17515.08
502.126	17777.22
502.329	18094.66
502.532	18145.86
502.735	18233.92
502.938	18451
503.141	18754.1
503.344	18848.31
503.547	19028.53
503.75	19341.87
503.953	19642.92
504.156	19806.76
504.359	19804.71
504.562	19698.22
504.765	20335.14
504.968	20724.25
505.17	21037.59
505.373	20912.66
505.576	21264.91
505.779	21471.76
505.982	21242.39
506.185	21953.03
506.387	21969.41
506.59	22338.05
506.793	22712.83
506.996	22516.22
507.198	23390.7
507.401	23060.98
507.604	23493.1
507.807	24058.34
508.009	24158.69
508.212	24293.86
508.415	24492.51
508.617	24746.46
508.82	24779.23
509.022	24672.73
509.225	25448.91
509.428	25536.98
509.63	26079.69
509.833	25723.34
510.035	26716.61
510.238	26259.91
510.44	26884.54
510.643	27367.86
510.845	27505.07
511.048	27277.75
511.25	27886
511.453	28078.5
511.655	28580.26
511.858	28459.43
512.06	28809.63
512.262	29366.68
512.465	29120.92
512.667	29868.43
512.87	30161.29
513.072	29825.42
513.274	30388.61
513.477	30587.27
513.679	30796.16
513.881	31213.95
514.084	31633.78
514.286	31553.91
514.488	32039.28
514.69	32749.92
514.893	32827.74
515.095	32754.02
515.297	33497.43
515.499	33253.72
515.701	33685.84
515.904	34068.81
516.106	34333
516.308	34603.33
516.51	34771.27
516.712	34978.11
516.914	35262.78
517.116	35569.97
517.318	36260.14
517.52	36172.08
517.722	36460.84
517.925	36841.76
518.127	37583.13
518.329	37447.96
518.531	37331.23
518.733	37878.04
518.935	38719.75
519.136	38342.92
519.338	39160.06
519.54	39217.41
519.742	39282.94
519.944	39860.47
520.146	40009.97
520.348	40159.47
520.55	40593.64
520.752	40583.4
520.954	41502.94
521.155	41199.84
521.357	41722.07
521.559	41760.98
521.761	42627.27
521.963	42588.36
522.164	42733.77
522.366	42905.8
522.568	43518.14
522.77	43348.16
522.971	44513.45
523.173	43686.07
523.375	44116.15
523.576	44071.09
523.778	44384.43
523.98	45404.32
524.181	45170.85
524.383	44867.75
524.584	46041.24
524.786	45566.11
524.988	45693.08
525.189	46399.63
525.391	46483.6
525.592	46995.59
525.794	47141
525.995	47337.6
526.197	47235.2
526.398	47052.94
526.6	47630.46
526.801	47796.35
527.003	48138.36
527.204	48666.73
527.406	48691.31
527.607	48322.68
527.808	48689.26
528.01	48351.35
528.211	48654.45
528.412	49633.38
528.614	49627.23
528.815	49166.44
529.016	49887.32
529.218	49913.95
529.419	49739.87
529.62	49608.8
529.822	49817.69
530.023	50053.21
530.224	50534.48
530.425	50411.6
530.626	50366.55
530.828	49844.32
531.029	50892.88
531.23	49930.33
531.431	50356.31
531.632	50890.83
531.833	50749.52
532.035	50761.81
532.236	50614.35
532.437	50747.47
532.638	50284.63
532.839	51075.15
533.04	51345.48
533.241	50602.07
533.442	51509.32
533.643	51222.6
533.844	50880.59
534.045	51447.88
534.246	50952.27
534.447	51552.32
534.648	51185.74
534.849	51570.75
535.05	51183.69
535.251	51308.61
535.451	51380.29
535.652	51206.22
535.853	51388.49
536.054	51693.63
536.255	51445.83
536.456	51226.7
536.657	51843.13
536.857	50729.04
537.058	51155.02
537.259	51656.77
537.46	51611.71
537.66	51263.56
537.861	51374.15
538.062	51458.12
538.263	51624
538.463	51138.63
538.664	51382.34
538.865	51589.19
539.065	51767.36
539.266	51234.89
539.466	51546.18
539.667	51232.84
539.868	51761.22
540.068	51695.68
540.269	51050.57
540.469	51628.1
540.67	51193.93
540.87	51202.12
541.071	50593.87
541.271	51386.44
541.472	51486.79
541.672	51140.68
541.873	50810.96
542.073	50841.68
542.274	51558.47
542.474	51310.66
542.675	51007.56
542.875	51447.88
543.075	51226.7
543.276	50663.5
543.476	51370.05
543.676	51142.73
543.877	50948.17
544.077	51484.74
544.277	50980.94
544.478	50890.83
544.678	51220.55
544.878	50667.6
545.078	50784.33
545.279	50704.46
545.479	50901.07
545.679	50980.94
545.879	51009.61
546.079	51433.54
546.28	50694.22
546.48	50401.36
546.68	51077.19
546.88	51214.41
547.08	51206.22
547.28	50692.18
547.48	50258.01
547.68	50911.31
547.88	50649.17
548.081	51079.24
548.281	50903.12
548.481	50735.18
548.681	51177.54
548.881	51015.75
549.081	50911.31
549.28	50292.82
549.48	51210.31
549.68	50833.49
549.88	51333.19
550.08	50403.41
550.28	50661.46
550.48	50204.76
550.68	51243.08
550.88	50485.33
551.08	50298.97
551.279	50858.06
551.479	50075.74
551.679	50376.79
551.879	50305.11
552.079	50440.28
552.278	50509.91
552.478	50341.97
552.678	50305.11
552.878	50442.32
553.077	50487.38
553.277	49842.27
553.477	50559.06
553.676	49959
553.876	49746.01
554.076	49737.82
554.275	49932.38
554.475	49492.07
554.674	50475.09
554.874	50260.05
555.074	49743.97
555.273	50014.3
555.473	50006.11
555.672	49584.22
555.872	49860.7
556.071	49541.22
556.271	49952.86
556.47	49397.86
556.67	48820.33
556.869	49305.7
557.068	49817.69
557.268	49064.04
557.467	49221.73
557.667	49289.32
557.866	49100.9
558.065	49258.6
558.265	49016.94
558.464	48785.52
558.663	49125.48
558.863	48474.23
559.062	49424.48
559.261	48654.45
559.461	49678.43
559.66	48502.9
559.859	48871.53
560.058	47972.47
560.258	48183.41
560.457	48097.4
560.656	48459.89
560.855	48461.94
561.054	48562.29
561.253	47847.55
561.453	48007.29
561.652	48201.85
561.851	47673.47
562.05	47956.09
562.249	47945.85
562.448	48203.89
562.647	47925.37
562.846	47685.76
563.045	47450.24
563.244	47452.29
563.443	47806.59
563.642	46801.04
563.841	47118.47
564.04	46768.27
564.239	47423.62
564.438	46704.78
564.637	46798.99
564.836	47204.49
565.035	46545.04
565.234	46788.75
565.432	46504.08
565.631	46401.68
565.83	46567.57
566.029	46321.81
566.228	45899.93
566.427	46301.33
566.625	45879.45
566.824	45535.39
567.023	46002.33
567.222	45367.46
567.42	46104.73
567.619	45279.39
567.818	45332.64
568.016	45398.18
568.215	45508.77
568.414	45074.6
568.612	45033.64
568.811	44693.68
569.01	44880.04
569.208	43989.17
569.407	45103.27
569.605	44187.83
569.804	44984.49
570.002	44189.88
570.201	44275.89
570.4	44038.33
570.598	43819.19
570.797	43749.56
570.995	44009.65
571.193	43411.65
571.392	43882.68
571.59	43075.78
571.789	43407.55
571.987	43544.76
572.186	43395.26
572.384	43364.54
572.582	43077.83
572.781	43174.08
572.979	42260.69
573.177	43286.72
573.376	42858.7
573.574	42082.52
573.772	42543.31
573.971	42301.65
574.169	41877.72
574.367	42008.79
574.565	42301.65
574.763	42203.35
574.962	42047.7
575.16	41357.53
575.358	41482.46
575.556	41361.63
575.754	42143.95
575.952	41156.83
576.151	41445.6
576.349	40599.79
576.547	41195.74
576.745	40931.56
576.943	40618.22
577.141	40616.17
577.339	40851.69
577.537	40700.14
577.735	40499.44
577.933	40100.08
578.131	40392.94
578.329	40255.73
578.527	39993.59
578.725	40038.64
578.923	39846.13
579.121	39852.28
579.319	39627
579.516	40063.22
579.714	39500.03
579.912	39588.09
580.11	39385.34
580.308	39469.31
580.506	39235.84
580.704	38906.12
580.901	39094.53
581.099	39328
581.297	38719.75
581.495	38566.15
581.692	38852.87
581.89	38482.19
582.088	38910.21
582.285	38523.15
582.483	38416.65
582.681	38234.38
582.878	37857.56
583.076	37832.98
583.274	38082.83
583.471	37576.98
583.669	37923.09
583.866	37378.33
584.064	37478.68
584.262	37251.36
584.459	37364
584.657	37337.37
584.854	37206.3
585.052	36804.9
585.249	37224.73
585.447	36868.39
585.644	36720.93
585.841	36383.02
586.039	36495.66
586.236	36243.76
586.434	35973.42
586.631	36071.73
586.828	36161.84
587.026	35957.04
587.223	35901.75
587.42	36010.29
587.618	35731.76
587.815	35668.28
588.012	35699
588.21	35096.89
588.407	35580.21
588.604	34935.1
588.801	34992.45
588.999	35103.04
589.196	34869.57
589.393	35084.61
589.59	34910.53
589.787	34285.9
589.984	34666.82
590.182	34120.01
590.379	34490.7
590.576	34281.8
590.773	33976.65
590.97	33694.04
591.167	34210.12
591.364	34023.76
591.561	34007.37
591.758	33358.17
591.955	33655.12
592.152	33872.21
592.349	33479
592.546	33483.09
592.743	33288.54
592.94	32821.6
593.137	33198.43
593.334	33093.98
593.531	32450.92
593.727	32932.19
593.924	32760.16
594.121	32186.73
594.318	32874.85
594.515	32022.89
594.712	32289.13
594.908	32309.61
595.105	32127.34
595.302	31975.79
595.499	32375.14
595.696	31781.23
595.892	31250.81
596.089	31799.66
596.286	31584.63
596.482	31547.76
596.679	31177.08
596.876	31277.43
597.072	31220.09
597.269	31515
597.466	31093.11
597.662	31154.55
597.859	31091.07
598.055	30843.26
598.252	30632.32
598.448	30738.82
598.645	30544.26
598.841	30032.27
599.038	30474.63
599.234	30464.39
599.431	29909.39
599.627	29970.83
599.824	30128.52
600.02	29956.49
600.217	29608.34
600.413	29815.18
600.609	29274.52
600.806	29342.1
601.002	29350.29
601.198	29256.09
601.395	29135.26
601.591	29321.62
601.787	29098.39
601.984	29299.09
602.18	29239.7
602.376	28817.82
602.572	28539.3
602.769	28895.64
602.965	28133.8
603.161	28467.62
603.357	28207.53
603.553	28434.85
603.75	28670.37
603.946	28135.85
604.142	27990.44
604.338	27879.85
604.534	27857.32
604.73	27771.31
604.926	27564.46
605.122	27759.02
605.318	27480.5
605.514	27470.26
605.71	27519.41
605.906	27523.51
606.102	27281.85
606.298	27419.06
606.494	27058.62
606.69	27238.84
606.886	27134.39
607.082	27011.51
607.278	26995.13
607.474	26925.5
607.67	26929.59
607.866	26255.81
608.062	27046.33
608.257	26624.45
608.453	26417.6
608.649	26286.53
608.845	26462.66
609.041	26421.7
609.236	26638.78
609.432	26376.64
609.628	26319.3
609.824	26165.7
610.019	26053.06
610.215	25958.86
610.411	26114.5
610.606	26294.72
610.802	26003.91
610.998	26157.51
611.193	25967.05
611.389	25414.1
611.584	25414.1
611.78	25340.37
611.976	25543.12
612.171	25407.95
612.367	25639.37
612.562	25160.15
612.758	25037.27
612.953	25233.88
613.149	25346.51
613.344	24889.82
613.539	25182.68
613.735	24938.97
613.93	25407.95
614.126	25326.03
614.321	25303.51
614.517	25057.75
614.712	24867.29
614.907	24828.38
615.103	24842.71
615.298	24588.77
615.493	25156.05
615.688	24347.11
615.884	24850.91
616.079	24527.33
616.274	24426.98
616.47	24371.68
616.665	24490.46
616.86	24187.36
617.055	24275.43
617.25	23953.9
617.445	24410.59
617.641	23761.39
617.836	24130.02
618.031	23884.26
618.226	24111.59
618.421	23728.62
618.616	23978.47
618.811	23630.32
619.006	24392.16
619.201	23063.03
619.396	23425.52
619.591	23359.98
619.786	23394.8
619.981	23030.26
620.176	23523.82
620.371	22661.63
620.566	22958.58
620.761	22813.18
620.956	22733.31
621.151	22370.82
621.346	22622.72
621.541	22264.32
621.735	22303.23
621.93	22166.02
622.125	22217.22
622.32	21748.23
622.515	22163.97
622.709	21674.51
622.904	21608.97
623.099	21600.78
623.294	21371.41
623.488	21369.36
623.683	21299.73
623.878	21096.98
624.072	21062.16
624.267	20797.98
624.462	20677.15
624.656	20548.12
624.851	20838.94
625.046	20509.21
625.24	20574.75
625.435	20109.86
625.629	20314.66
625.824	19878.44
626.018	20085.28
626.213	19558.95
626.407	19757.61
626.602	19622.44
626.796	19841.57
626.991	19604.01
627.185	19548.72
627.38	19288.62
627.574	18973.24
627.768	18944.56
627.963	18909.75
628.157	18801.21
628.352	18833.97
628.546	18590.27
628.74	18690.62
628.935	18317.89
629.129	18274.88
629.323	18281.02
629.517	17900.1
629.712	17922.63
629.906	17994.31
630.1	17705.54
630.294	18061.89
630.489	17492.55
630.683	17787.46
630.877	17431.12
631.071	17381.96
631.265	17244.75
631.459	17107.54
631.653	17150.54
631.848	17275.47
632.042	16990.8
632.236	16923.22
632.43	16933.46
632.624	16802.39
632.818	16550.49
633.012	16308.83
633.206	16671.32
633.4	16591.45
633.594	16308.83
633.788	16325.21
633.982	16388.7
634.176	16233.05
634.369	15964.77
634.563	15819.36
634.757	15735.4
634.951	15768.16
635.145	15534.7
635.339	15649.38
635.533	15528.55
635.726	15475.31
635.92	14981.74
636.114	15223.41
636.308	15022.7
636.501	15059.57
636.695	15219.31
636.889	15041.14
637.083	14789.24
637.276	14834.29
637.47	14664.31
637.664	14602.87
637.857	14611.06
638.051	14271.1
638.244	14312.06
638.438	14492.28
638.632	14117.5
638.825	14017.15
639.019	14080.64
639.212	14056.06
639.406	14367.35
639.599	13630.09
639.793	13863.55
639.986	13609.61
640.18	13742.72
640.373	13550.21
640.567	13456.01
640.76	13603.46
640.954	13496.97
641.147	13443.72
641.34	13263.5
641.534	13210.25
641.727	13130.38
641.92	12858
642.114	12890.77
642.307	12956.3
642.5	12966.54
642.694	12663.44
642.887	12814.99
643.08	12780.18
643.273	12755.6
643.467	12481.17
643.66	12468.89
643.853	12145.31
644.046	12262.04
644.239	12266.14
644.432	12059.29
644.626	12061.34
644.819	11877.02
645.012	12083.87
645.205	12108.44
645.398	12155.55
645.591	11684.52
645.784	11733.67
645.977	11569.83
646.17	11793.06
646.363	11606.69
646.556	11326.12
646.749	11401.9
646.942	11735.71
647.135	11160.24
647.328	11401.9
647.521	11313.83
647.714	10969.77
647.907	11291.31
648.099	10988.21
648.292	10953.39
648.485	10943.15
648.678	10656.43
648.871	10840.75
649.064	10728.11
649.256	10797.74
649.449	10556.08
649.642	10406.58
649.835	10427.06
650.027	10531.51
650.22	10226.36
650.413	10431.16
650.605	10228.41
650.798	10230.46
650.991	10214.07
651.183	10295.99
651.376	9908.93
651.568	9960.13
651.761	9882.3
651.954	9824.96
652.146	10025.66
652.339	9898.69
652.531	9855.68
652.724	9564.87
652.916	9648.83
653.109	9794.24
653.301	9681.6
653.494	9648.83
653.686	9368.26
653.879	9581.25
654.071	9341.64
654.263	9214.66
654.456	9454.28
654.648	9382.6
654.84	9222.86
655.033	9122.51
655.225	9202.38
655.417	9079.5
655.61	9079.5
655.802	9106.12
655.994	9007.82
656.186	8889.04
656.379	8862.41
656.571	8790.74
656.763	8766.16
656.955	8698.58
657.148	8760.02
657.34	8757.97
657.532	8536.79
657.724	8420.05
657.916	8538.84
658.108	8536.79
658.3	8370.9
658.492	8424.15
658.684	8346.33
658.876	8372.95
659.068	8422.1
659.26	8223.45
659.452	8327.89
659.644	8157.91
659.836	8010.46
660.028	7989.98
660.22	8026.84
660.412	7820
660.604	8022.75
660.796	7969.5
660.988	8063.71
661.18	7920.35
661.372	7848.67
661.563	7875.29
661.755	7789.28
661.947	7725.79
662.139	7736.03
662.331	7594.72
662.522	7539.43
662.714	7598.82
662.906	7426.79
663.097	7422.69
663.289	7324.39
663.481	7453.41
663.673	7398.12
663.864	7305.96
664.056	7240.42
664.247	7371.49
664.439	7158.5
664.631	7215.85
664.822	7107.3
665.014	7150.31
665.205	7189.22
665.397	7072.49
665.588	7092.97
665.78	7035.63
665.971	6966
666.163	6951.66
666.354	7009
666.546	6843.12
666.737	6796.01
666.929	7054.06
667.12	6841.07
667.311	6922.99
667.503	6791.92
667.694	6855.4
667.885	6791.92
668.077	6773.49
668.268	6527.73
668.459	6677.23
668.651	6552.31
668.842	6662.9
669.033	6599.41
669.224	6560.5
669.416	6720.24
669.607	6593.26
669.798	6519.54
669.989	6556.4
670.18	6378.23
670.371	6484.72
670.563	6388.47
670.754	6472.43
670.945	6267.64
671.136	6511.35
671.327	6263.54
671.518	6343.41
671.709	6335.22
671.9	6183.67
672.091	6331.12
672.282	6101.75
672.473	6300.41
672.664	6251.25
672.855	6183.67
673.046	6245.11
673.237	6042.36
673.428	6177.53
673.619	6257.4
673.809	6138.62
674	6025.98
674.191	6103.8
674.382	6048.51
674.573	5982.97
674.764	6071.03
674.954	6134.52
675.145	5899
675.336	6073.08
675.527	5978.87
675.717	6046.46
675.908	6001.4
676.099	5931.77
676.289	6009.59
676.48	5899
676.671	5800.7
676.861	5864.19
677.052	5972.73
677.243	5847.8
677.433	5878.52
677.624	5894.91
677.814	5925.63
678.005	5888.76
678.195	5798.65
678.386	5821.18
678.576	5741.31
678.767	5829.37
678.957	6036.22
679.148	5892.86
679.338	5835.52
679.529	5966.59
679.719	5839.61
679.909	5985.02
680.1	5743.36
680.29	5753.6
680.481	5778.17
680.671	5872.38
680.861	5702.4
681.052	5612.29
681.242	5651.2
681.432	5755.65
681.622	5731.07
681.813	5513.99
682.003	5677.82
682.193	5722.88
682.383	5796.6
682.573	5683.97
682.764	5741.31
682.954	5757.69
683.144	5741.31
683.334	5708.54
683.524	5661.44
683.714	5614.34
683.904	5565.18
684.094	5645.06
684.284	5710.59
684.474	5745.41
684.664	5640.96
684.854	5610.24
685.044	5647.1
685.234	5589.76
685.424	5565.18
685.614	5470.98
685.804	5487.36
685.994	5520.13
686.184	5546.75
686.374	5331.72
686.564	5593.86
686.753	5464.83
686.943	5380.87
687.133	5376.77
687.323	5280.52
687.513	5483.27
687.702	5239.56
687.892	5227.27
688.082	5139.21
688.272	5167.88
688.461	5212.93
688.651	5194.5
688.841	5069.58
689.03	5145.35
689.22	5073.67
689.41	5149.45
689.599	4840.2
689.789	5137.16
689.979	4983.56
690.168	4969.23
690.358	4907.79
690.547	4897.55
690.737	4893.45
690.926	4852.49
691.116	5014.28
691.305	4909.83
691.495	4768.52
691.684	4700.94
691.874	4762.38
692.063	4784.91
692.252	4686.61
692.442	4772.62
692.631	4602.64
692.82	4586.26
693.01	4696.85
693.199	4659.98
693.388	4490
693.578	4504.34
693.767	4451.09
693.956	4483.86
694.146	4582.16
694.335	4471.57
694.524	4578.06
694.713	4313.88
694.902	4422.42
695.092	4363.03
695.281	4311.83
695.47	4340.5
695.659	4274.96
695.848	4385.55
696.037	4354.83
696.226	4301.59
696.415	4207.38
696.604	4236.05
696.793	4227.86
696.982	4307.73
697.171	4340.5
697.36	4291.35
697.549	4211.48
697.738	4182.81
697.927	4178.71
698.116	4115.22
698.305	4309.78
698.494	4195.09
698.683	4277.01
698.872	4297.49
699.061	4178.71
699.25	4117.27
699.438	4180.76
699.627	4160.28
699.816	4178.71
700.005	4123.41
700.193	4117.27
700.382	4070.17
700.571	4219.67
700.76	4115.22
700.948	4193.05
701.137	4070.17
701.326	4127.51
701.514	3990.3
701.703	4166.42
701.892	3990.3
702.08	4168.47
702.269	3980.06
702.457	4119.32
702.646	4102.93
702.834	3988.25
703.023	4191
703.212	3980.06
703.4	4031.26
703.589	4006.68
703.777	4104.98
703.965	3947.29
704.154	4107.03
704.342	3990.3
704.531	3906.33
704.719	3930.91
704.907	4209.43
705.096	4018.97
705.284	4090.65
705.472	4125.46
705.661	4004.63
705.849	4119.32
706.037	4168.47
706.226	4072.22
706.414	4049.69
706.602	3982.1
706.79	4029.21
706.979	4084.5
707.167	4094.74
707.355	3973.91
707.543	4100.89
707.731	4061.98
707.919	4023.06
708.107	3992.34
708.296	4066.07
708.484	4117.27
708.672	4031.26
708.86	4012.82
709.048	4184.85
709.236	4076.31
709.424	4086.55
709.612	4057.88
709.8	4031.26
709.988	4176.66
710.176	4021.02
710.364	4107.03
710.551	4035.35
710.739	4018.97
710.927	4037.4
711.115	4160.28
711.303	4139.8
711.491	4166.42
711.679	4129.56
711.866	3992.34
712.054	4111.13
712.242	4041.5
712.43	4274.96
712.617	4119.32
712.805	4203.29
712.993	4291.35
713.181	4152.09
713.368	4174.61
713.556	4055.83
713.744	4086.55
713.931	3988.25
714.119	4176.66
714.306	4205.33
714.494	4164.37
714.682	4307.73
714.869	3971.86
715.057	4203.29
715.244	4104.98
715.432	4272.92
715.619	4166.42
715.807	4248.34
715.994	4240.15
716.182	4264.72
716.369	4209.43
716.556	4158.23
716.744	4078.36
716.931	4184.85
717.119	4227.86
717.306	4244.24
717.493	4289.3
717.681	4244.24
717.868	4311.83
718.055	4213.53
718.242	4322.07
718.43	4356.88
718.617	4291.35
718.804	4311.83
718.991	4299.54
719.179	4363.03
719.366	4186.9
719.553	4143.89
719.74	4248.34
719.927	4350.74
720.114	4252.44
720.301	4383.51
720.488	4258.58
720.676	4180.76
720.863	4332.31
721.05	4381.46
721.237	4348.69
721.424	4326.16
721.611	4363.03
721.798	4375.31
721.985	4158.23
722.172	4260.63
722.358	4303.64
722.545	4209.43
722.732	4268.82
722.919	4281.11
723.106	4203.29
723.293	4401.94
723.48	4375.31
723.667	4295.44
723.853	4340.5
724.04	4498.19
724.227	4340.5
724.414	4297.49
724.6	4291.35
724.787	4381.46
724.974	4287.25
725.161	4434.71
725.347	4320.02
725.534	4434.71
725.72	4535.06
725.907	4457.23
726.094	4455.19
726.28	4412.18
726.467	4408.08
726.653	4375.31
726.84	4344.6
727.027	4436.75
727.213	4358.93
727.4	4528.91
727.586	4492.05
727.773	4391.7
727.959	4500.24
728.145	4461.33
728.332	4373.27
728.518	4303.64
728.705	4543.25
728.891	4442.9
729.077	4451.09
729.264	4498.19
729.45	4438.8
729.636	4524.82
729.823	4559.63
730.009	4387.6
730.195	4365.07
730.382	4522.77
730.568	4389.65
730.754	4373.27
730.94	4326.16
731.126	4475.67
731.313	4553.49
731.499	4305.68
731.685	4461.33
731.871	4518.67
732.057	4434.71
732.243	4494.1
732.429	4455.19
732.615	4477.71
732.801	4297.49
732.987	4399.89
733.173	4446.99
733.359	4381.46
733.545	4395.79
733.731	4332.31
733.917	4358.93
734.103	4514.58
734.289	4426.51
734.475	4426.51
734.661	4393.75
734.847	4332.31
735.033	4297.49
735.219	4442.9
735.404	4236.05
735.59	4545.3
735.776	4369.17
735.962	4487.95
736.148	4451.09
736.333	4395.79
736.519	4352.79
736.705	4436.75
736.89	4170.52
737.076	4424.47
737.262	4197.14
737.447	4385.55
737.633	4406.03
737.819	4432.66
738.004	4303.64
738.19	4287.25
738.375	4348.69
738.561	4490
738.747	4279.06
738.932	4299.54
739.118	4483.86
739.303	4285.2
739.489	4281.11
739.674	4209.43
739.859	4289.3
740.045	4219.67
740.23	4227.86
740.416	4180.76
740.601	4283.16
740.786	4203.29
740.972	4152.09
741.157	4248.34
741.342	4193.05
741.528	4154.13
741.713	4172.57
741.898	4125.46
742.084	4121.37
742.269	4047.64
742.454	4137.75
742.639	4193.05
742.824	3945.24
743.01	4080.41
743.195	4045.59
743.38	4059.93
743.565	3930.91
743.75	4066.07
743.935	4068.12
744.12	4027.16
744.305	3767.07
744.49	3840.79
744.675	3885.85
744.86	3857.18
745.045	3859.23
745.23	3797.79
745.415	3961.62
745.6	3873.56
745.785	3734.3
745.97	3787.55
746.155	3799.84
746.34	3664.67
746.525	3676.96
746.71	3758.88
746.895	3728.16
747.079	3652.38
747.264	3717.92
747.449	3668.77
747.634	3773.21
747.819	3664.67
748.003	3642.14
748.188	3474.21
748.373	3523.36
748.557	3496.74
748.742	3535.65
748.927	3566.37
749.111	3468.06
749.296	3261.22
749.481	3439.39
749.665	3306.27
749.85	3216.16
750.034	3289.89
750.219	3261.22
750.404	3261.22
750.588	3269.41
750.773	3199.78
750.957	3185.44
751.141	3136.29
751.326	3267.36
751.51	3128.1
751.695	3124.01
751.879	3087.14
752.064	3115.81
752.248	3025.7
752.432	3171.11
752.617	3148.58
752.801	3013.42
752.985	2882.35
753.17	3011.37
753.354	2859.82
753.538	2935.59
753.722	2986.79
753.907	2853.67
754.091	2865.96
754.275	2894.63
754.459	2825
754.643	2761.52
754.828	2788.14
755.012	2763.56
755.196	2642.73
755.38	2712.36
755.564	2669.36
755.748	2655.02
755.932	2798.38
756.116	2695.98
756.3	2628.4
756.484	2415.41
756.668	2499.38
756.852	2515.76
757.036	2626.35
757.22	2480.94
757.404	2534.19
757.588	2513.71
757.772	2478.9
757.956	2401.07
758.14	2468.66
758.323	2345.78
758.507	2515.76
758.691	2472.75
758.875	2288.43
759.059	2335.54
759.242	2308.91
759.426	2341.68
759.61	2278.19
759.794	2331.44
759.977	2290.48
760.161	2427.7
760.345	2241.33
760.528	2313.01
760.712	2272.05
760.895	2159.41
761.079	2102.07
761.263	2108.21
761.446	2153.27
761.63	2143.03
761.813	2169.65
761.997	2136.88
762.18	2112.31
762.364	2145.08
762.547	2048.82
762.731	2093.88
762.914	1993.53
763.098	1977.14
763.281	2063.16
763.464	2014.01
763.648	2069.3
763.831	1975.1
764.015	1946.42
764.198	1917.75
764.381	1917.75
764.564	2106.17
764.748	1911.61
764.931	1901.37
765.114	1997.62
765.297	1940.28
765.481	1889.08
765.664	1934.14
765.847	1899.32
766.03	1997.62
766.213	1862.46
766.397	1809.21
766.58	1780.54
766.763	1932.09
766.946	1872.7
767.129	1846.07
767.312	1862.46
767.495	1764.15
767.678	1751.87
767.861	1753.91
768.044	1841.98
768.227	1745.72
768.41	1663.8
768.593	1837.88
768.776	1690.43
768.959	1692.48
769.142	1854.27
769.324	1704.76
769.507	1735.48
769.69	1708.86
769.873	1706.81
770.056	1727.29
770.239	1674.04
770.421	1817.4
770.604	1743.67
770.787	1612.6
770.97	1598.27
771.152	1547.07
771.335	1600.32
771.518	1495.87
771.7	1608.51
771.883	1616.7
772.066	1641.28
772.248	1532.73
772.431	1592.13
772.613	1563.45
772.796	1493.82
772.978	1481.53
773.161	1653.56
773.343	1489.73
773.526	1514.3
773.708	1506.11
773.891	1418.05
774.073	1600.32
774.256	1377.09
774.438	1588.03
774.621	1323.84
774.803	1411.9
774.985	1473.34
775.168	1461.06
775.35	1450.82
775.532	1438.53
775.715	1344.32
775.897	1403.71
776.079	1366.85
776.261	1311.55
776.444	1418.05
776.626	1268.55
776.808	1366.85
776.99	1289.03
777.173	1309.51
777.355	1256.26
777.537	1368.9
777.719	1207.11
777.901	1211.2
778.083	1186.63
778.265	1149.76
778.447	1262.4
778.629	1178.44
778.811	1225.54
778.993	1231.68
779.175	1299.27
779.357	1067.85
779.539	1137.48
779.721	1166.15
779.903	1139.52
780.085	1176.39
780.267	1073.99
780.449	1108.8
780.631	1123.14
780.812	1112.9
780.994	1137.48
781.176	1035.08
781.358	1000.26
781.54	1063.75
781.721	1069.89
781.903	1106.76
782.085	1016.65
782.267	1004.36
782.448	1055.56
782.63	1022.79
782.812	1000.26
782.993	957.25
783.175	955.21
783.357	942.92
783.538	965.45
783.72	987.97
783.901	908.1
784.083	987.97
784.264	944.97
784.446	869.19
784.627	908.1
784.809	887.62
784.99	838.47
785.172	834.38
785.353	867.14
785.535	772.94
785.716	867.14
785.897	781.13
786.079	762.7
786.26	813.9
786.441	881.48
786.623	789.32
786.804	750.41
786.985	760.65
787.167	795.47
787.348	709.45
787.529	750.41
787.71	772.94
787.891	799.56
788.073	713.55
788.254	709.45
788.435	785.23
788.616	774.99
788.797	736.07
788.978	746.31
789.159	719.69
789.34	817.99
789.522	676.68
789.703	748.36
789.884	785.23
790.065	695.11
790.246	754.51
790.427	781.13
790.607	707.4
790.788	770.89
790.969	543.57
791.15	693.07
791.331	588.62
791.512	709.45
791.693	699.21
791.874	607.05
792.054	766.79
792.235	656.2
792.416	656.2
792.597	596.81
792.778	631.63
792.958	645.96
793.139	686.92
793.32	568.14
793.5	553.8
793.681	648.01
793.862	613.2
794.042	521.04
794.223	514.89
794.404	623.44
794.584	529.23
794.765	478.03
794.945	551.76
795.126	582.48
795.306	559.95
795.487	559.95
795.667	498.51
795.848	518.99
796.028	516.94
796.209	562
796.389	480.08
796.57	406.35
796.75	518.99
796.93	512.85
797.111	420.69
797.291	492.37
797.471	529.23
797.652	539.47
797.832	527.18
798.012	555.85
798.192	418.64
798.373	486.22
798.553	516.94
798.733	574.28
798.913	441.17
799.093	359.25
799.274	451.41
799.454	541.52
799.634	453.45
799.814	521.04
799.994	555.85
800.174	467.79
800.354	469.84
800.534	379.73
800.714	469.84
800.894	367.44
801.074	428.88
801.254	430.93
801.434	535.37
801.614	416.59
801.794	379.73
801.974	1262.4
802.154	383.82
802.334	428.88
802.514	377.68
802.693	467.79
802.873	424.78
803.053	408.4
803.233	344.91
803.413	365.39
803.592	428.88
803.772	326.48
803.952	381.78
804.131	332.62
804.311	408.4
804.491	457.55
804.67	367.44
804.85	367.44
805.03	340.82
805.209	402.26
805.389	400.21
805.568	389.97
805.748	330.58
805.928	445.26
806.107	344.91
806.287	387.92
806.466	406.35
806.646	363.34
806.825	377.68
807.004	416.59
807.184	351.06
807.363	338.77
807.543	379.73
807.722	310.1
807.901	344.91
808.081	414.54
808.26	281.43
808.439	306
808.619	361.3
808.798	312.14
808.977	336.72
809.156	340.82
809.336	359.25
809.515	295.76
809.694	279.38
809.873	262.99
810.052	355.15
810.231	303.95
810.411	314.19
810.59	273.23
810.769	287.57
810.948	367.44
811.127	269.14
811.306	265.04
811.485	250.71
811.664	394.06
811.843	369.49
812.022	277.33
812.201	222.03
812.38	219.99
812.559	277.33
812.737	346.96
812.916	258.9
813.095	224.08
813.274	258.9
813.453	275.28
813.632	287.57
813.811	322.38
813.989	156.5
814.168	303.95
814.347	187.22
814.526	260.95
814.704	215.89
814.883	281.43
815.062	283.47
815.24	334.67
815.419	248.66
815.598	308.05
815.776	193.36
815.955	226.13
816.133	183.12
816.312	297.81
816.49	238.42
816.669	242.51
816.847	224.08
817.026	301.9
817.204	236.37
817.383	201.55
817.561	195.41
817.74	252.75
817.918	199.51
818.097	219.99
818.275	197.46
818.453	219.99
818.632	170.83
818.81	187.22
818.988	207.7
819.167	230.23
819.345	207.7
819.523	213.84
819.701	314.19
819.879	193.36
820.058	254.8
820.236	234.32
820.414	283.47
820.592	316.24
820.77	244.56
820.948	191.31
821.127	232.27
821.305	217.94
821.483	183.12
821.661	242.51
821.839	185.17
822.017	156.5
822.195	172.88
822.373	322.38
822.551	189.27
822.729	297.81
822.907	176.98
823.085	254.8
823.262	215.89
823.44	160.59
823.618	187.22
823.796	168.79
823.974	109.4
824.152	224.08
824.329	234.32
824.507	244.56
824.685	158.55
824.863	236.37
825.04	129.88
825.218	232.27
825.396	123.73
825.574	138.07
825.751	90.96
825.929	136.02
826.107	90.96
826.284	154.45
826.462	154.45
826.639	203.6
826.817	174.93
826.994	181.07
827.172	170.83
827.349	187.22
827.527	125.78
827.704	127.83
827.882	209.75
828.059	146.26
828.237	86.87
828.414	150.36
828.591	129.88
828.769	246.61
828.946	144.21
829.124	144.21
829.301	199.51
829.478	172.88
829.655	179.03
829.833	148.31
830.01	54.1
830.187	199.51
830.364	138.07
830.542	164.69
830.719	181.07
830.896	197.46
831.073	97.11
831.25	170.83
831.427	125.78
831.604	156.5
831.782	82.77
831.959	146.26
832.136	133.97
832.313	138.07
832.49	47.96
832.667	154.45
832.844	129.88
833.021	93.01
833.198	105.3
833.374	35.67
833.551	115.54
833.728	101.2
833.905	80.72
834.082	103.25
834.259	80.72
834.436	121.68
834.612	72.53
834.789	162.64
834.966	99.16
835.143	154.45
835.319	60.24
835.496	150.36
835.673	172.88
835.85	68.44
836.026	76.63
836.203	136.02
836.38	125.78
836.556	113.49
836.733	62.29
836.909	179.03
837.086	174.93
837.262	50
837.439	107.35
837.616	93.01
837.792	107.35
837.968	133.97
838.145	101.2
838.321	66.39
838.498	54.1
838.674	68.44
838.851	113.49
839.027	68.44
839.203	93.01
839.38	103.25
839.556	121.68
839.732	131.92
839.909	95.06
840.085	70.48
840.261	138.07
840.437	158.55
840.614	33.62
840.79	189.27
840.966	78.68
841.142	144.21
841.318	86.87
841.494	125.78
841.671	121.68
841.847	9.05
842.023	76.63
842.199	50
842.375	172.88
842.551	29.52
842.727	119.64
842.903	99.16
843.079	138.07
843.255	140.12
843.431	76.63
843.607	97.11
843.783	-23.72
843.959	107.35
844.134	39.76
844.31	105.3
844.486	86.87
844.662	56.15
844.838	80.72
845.013	123.73
845.189	129.88
845.365	62.29
845.541	72.53
845.716	33.62
845.892	68.44
846.068	7
846.244	17.24
846.419	74.58
846.595	41.81
846.77	27.48
846.946	47.96
847.122	29.52
847.297	25.43
847.473	109.4
847.648	15.19
847.824	115.54
847.999	41.81
848.175	31.57
848.35	74.58
848.526	150.36
848.701	78.68
848.876	60.24
849.052	142.16
849.227	60.24
849.403	45.91
849.578	60.24
849.753	80.72
849.929	103.25
850.104	88.92
850.279	80.72
850.454	21.33
850.63	97.11
850.805	47.96
850.98	82.77
851.155	113.49
851.33	60.24
851.505	-11.43
851.681	156.5
851.856	47.96
852.031	129.88
852.206	-17.58
852.381	-21.67
852.556	23.38
852.731	39.76
852.906	66.39
853.081	-7.34
853.256	113.49
853.431	72.53
853.606	2.9
853.781	37.72
853.956	-33.96
854.131	31.57
854.305	70.48
854.48	-25.77
854.655	60.24
854.83	47.96
855.005	17.24
855.18	50
855.354	-42.15
855.529	97.11
855.704	97.11
855.879	-9.39
856.053	-33.96
856.228	103.25
856.403	140.12
856.577	19.29
856.752	-83.11
856.926	64.34
857.101	23.38
857.276	-3.24
857.45	9.05
857.625	131.92
857.799	19.29
857.974	66.39
858.148	-25.77
858.323	-7.34
858.497	-1.19
858.672	56.15
858.846	-25.77
859.02	74.58
859.195	-50.35
859.369	64.34
859.543	11.09
859.718	88.92
859.892	31.57
860.066	54.1
860.241	35.67
860.415	4.95
860.589	9.05
860.763	21.33
860.938	29.52
861.112	66.39
861.286	-7.34
861.46	88.92
861.634	74.58
861.808	72.53
861.982	9.05
862.157	35.67
862.331	58.2
862.505	-11.43
862.679	-7.34
862.853	74.58
863.027	43.86
863.201	82.77
863.375	60.24
863.549	39.76
863.722	47.96
863.896	74.58
864.07	27.48
864.244	-64.68
864.418	7
864.592	50
864.766	0.85
864.939	47.96
865.113	7
865.287	37.72
865.461	-17.58
865.634	50
865.808	47.96
865.982	78.68
866.156	-13.48
866.329	-19.63
866.503	39.76
866.676	41.81
866.85	64.34
867.024	-29.87
867.197	72.53
867.371	31.57
867.544	23.38
867.718	-31.91
867.891	11.09
868.065	25.43
868.238	-13.48
868.412	50
868.585	39.76
868.759	33.62
868.932	47.96
869.105	0.85
869.279	9.05
869.452	-21.67
869.625	4.95
869.799	23.38
869.972	9.05
870.145	31.57
870.319	-1.19
870.492	-40.11
870.665	17.24
870.838	-48.3
871.011	-83.11
871.185	15.19
871.358	-5.29
871.531	64.34
871.704	27.48
871.877	43.86
872.05	-13.48
872.223	-62.63
872.396	-36.01
872.569	-23.72
872.742	-21.67
872.915	117.59
873.088	-46.25
873.261	-60.59
873.434	35.67
873.607	-19.63
873.78	41.81
873.953	35.67
874.126	-11.43
874.299	4.95
874.471	70.48
874.644	-27.82
874.817	47.96
874.99	140.12
875.163	0.85
875.335	56.15
875.508	-31.91
875.681	66.39
875.853	-74.92
876.026	-25.77
876.199	107.35
876.371	41.81
876.544	29.52
876.717	43.86
876.889	0.85
877.062	39.76
877.234	37.72
877.407	17.24
877.579	7
877.752	31.57
877.924	74.58
878.097	-11.43
878.269	56.15
878.442	33.62
878.614	-17.58
878.786	-1.19
878.959	41.81
879.131	17.24
879.303	-46.25
879.476	-31.91
879.648	76.63
879.82	9.05
879.993	7
880.165	2.9
880.337	35.67
880.509	95.06
880.681	-68.78
880.854	-42.15
881.026	105.3
881.198	97.11
881.37	0.85
881.542	-23.72
881.714	-70.83
881.886	-13.48
882.058	27.48
882.23	11.09
882.402	31.57
882.574	-7.34
882.746	31.57
882.918	27.48
883.09	9.05
883.262	-17.58
883.434	9.05
883.606	-87.21
883.778	9.05
883.95	52.05
884.122	-7.34
884.293	27.48
884.465	45.91
884.637	72.53
884.809	-38.06
884.98	-17.58
885.152	23.38
885.324	15.19
885.496	64.34
885.667	-21.67
885.839	54.1
886.011	58.2
886.182	19.29
886.354	43.86
886.525	-15.53
886.697	9.05
886.869	2.9
887.04	-15.53
887.212	31.57
887.383	76.63
887.555	29.52
887.726	-74.92
887.897	-9.39
888.069	-3.24
888.24	64.34
888.412	-1.19
888.583	37.72
888.754	25.43
888.926	21.33
889.097	-50.35
889.268	-76.97
889.44	27.48
889.611	11.09
889.782	25.43
889.953	-42.15
890.125	43.86
890.296	-91.31
890.467	31.57
890.638	-36.01
890.809	-21.67
890.98	-13.48
891.151	25.43
891.323	33.62
891.494	43.86
891.665	-23.72
891.836	-74.92
892.007	45.91
892.178	-46.25
892.349	43.86
892.52	-66.73
892.691	2.9
892.862	-36.01
893.032	-68.78
893.203	-13.48
893.374	15.19
893.545	-21.67
893.716	-44.2
893.887	-1.19
894.057	-19.63
894.228	0.85
894.399	-17.58
894.57	19.29
894.74	60.24
894.911	15.19
895.082	0.85
895.253	-40.11
895.423	31.57
895.594	-89.26
895.764	9.05
895.935	-29.87
896.106	56.15
896.276	-5.29
896.447	0.85
896.617	-5.29
896.788	-54.44
896.958	-48.3
897.129	-7.34
897.299	-33.96
897.47	15.19
897.64	23.38
897.81	-38.06
897.981	43.86
898.151	-79.02
898.322	29.52
898.492	15.19
898.662	9.05
898.832	-21.67
899.003	-95.4
899.173	43.86
899.343	-83.11
899.513	-62.63
