Data from USB4F104151__3__13-04-07-772.txt Node

Date: Fri Mar 14 13:04:07 EDT 2025
User: louis
Spectrometer: USB4F10415
Trigger mode: 4
Integration Time (sec): 4.000000E-2
Scans to average: 1
Electric dark correction enabled: true
Nonlinearity correction enabled: false
Boxcar width: 0
XAxis mode: Wavelengths
Number of Pixels in Spectrum: 3648
>>>>>Begin Spectral Data<<<<<
178.204	-204.8
178.424	-204.8
178.644	-204.8
178.864	-147.45
179.084	-143.36
179.304	2.05
179.524	-24.58
179.744	8.19
179.964	92.16
180.184	-8.19
180.404	90.11
180.624	-22.53
180.844	0
181.064	-71.68
181.283	6.14
181.503	-63.49
181.723	-8.19
181.943	-16.38
182.163	77.82
182.383	26.62
182.602	104.45
182.822	-16.38
183.042	-6.14
183.262	24.58
183.482	38.91
183.701	57.34
183.921	-10.24
184.141	24.58
184.361	83.97
184.58	59.39
184.8	18.43
185.02	-43.01
185.239	51.2
185.459	79.87
185.679	75.77
185.898	-69.63
186.118	73.73
186.338	-38.91
186.557	100.35
186.777	-10.24
186.997	45.06
187.216	2.05
187.436	77.82
187.655	30.72
187.875	63.49
188.095	16.38
188.314	55.3
188.534	167.93
188.753	20.48
188.973	20.48
189.192	77.82
189.412	-10.24
189.631	55.3
189.851	-6.14
190.07	90.11
190.29	-20.48
190.509	-18.43
190.729	-63.49
190.948	65.54
191.168	190.46
191.387	32.77
191.607	22.53
191.826	38.91
192.045	12.29
192.265	36.86
192.484	38.91
192.704	38.91
192.923	-81.92
193.142	94.21
193.362	71.68
193.581	81.92
193.8	-10.24
194.02	57.34
194.239	-10.24
194.458	32.77
194.678	-8.19
194.897	47.1
195.116	30.72
195.335	-18.43
195.555	22.53
195.774	-2.05
195.993	59.39
196.212	26.62
196.432	32.77
196.651	6.14
196.87	-38.91
197.089	83.97
197.308	28.67
197.528	110.59
197.747	96.25
197.966	40.96
198.185	88.06
198.404	-6.14
198.623	77.82
198.842	63.49
199.062	47.1
199.281	67.58
199.5	36.86
199.719	30.72
199.938	51.2
200.157	90.11
200.376	26.62
200.595	24.58
200.814	-2.05
201.033	59.39
201.252	92.16
201.471	22.53
201.69	36.86
201.909	73.73
202.128	55.3
202.347	98.3
202.566	2.05
202.785	20.48
203.004	20.48
203.223	61.44
203.442	57.34
203.661	24.58
203.879	4.1
204.098	53.25
204.317	-36.86
204.536	34.82
204.755	55.3
204.974	16.38
205.193	83.97
205.411	202.75
205.63	79.87
205.849	-12.29
206.068	16.38
206.287	-30.72
206.505	53.25
206.724	32.77
206.943	67.58
207.162	14.34
207.381	45.06
207.599	14.34
207.818	14.34
208.037	90.11
208.255	73.73
208.474	88.06
208.693	108.54
208.911	-8.19
209.13	86.01
209.349	47.1
209.567	30.72
209.786	57.34
210.005	77.82
210.223	-8.19
210.442	-12.29
210.661	55.3
210.879	0
211.098	38.91
211.316	51.2
211.535	104.45
211.753	32.77
211.972	90.11
212.191	51.2
212.409	102.4
212.628	108.54
212.846	14.34
213.065	79.87
213.283	79.87
213.502	-6.14
213.72	59.39
213.938	40.96
214.157	55.3
214.375	61.44
214.594	30.72
214.812	26.62
215.031	38.91
215.249	40.96
215.467	71.68
215.686	88.06
215.904	180.22
216.122	14.34
216.341	151.55
216.559	34.82
216.778	18.43
216.996	73.73
217.214	77.82
217.432	24.58
217.651	-12.29
217.869	20.48
218.087	51.2
218.306	90.11
218.524	36.86
218.742	8.19
218.96	47.1
219.179	26.62
219.397	-14.34
219.615	100.35
219.833	14.34
220.051	-10.24
220.27	116.73
220.488	57.34
220.706	-2.05
220.924	8.19
221.142	65.54
221.36	47.1
221.578	65.54
221.796	30.72
222.015	47.1
222.233	-36.86
222.451	77.82
222.669	-40.96
222.887	53.25
223.105	26.62
223.323	49.15
223.541	40.96
223.759	98.3
223.977	63.49
224.195	83.97
224.413	16.38
224.631	36.86
224.849	8.19
225.067	114.69
225.285	86.01
225.503	-22.53
225.721	-40.96
225.939	112.64
226.157	34.82
226.375	282.62
226.592	8.19
226.81	67.58
227.028	38.91
227.246	120.83
227.464	75.77
227.682	57.34
227.9	43.01
228.117	102.4
228.335	22.53
228.553	88.06
228.771	98.3
228.989	18.43
229.206	36.86
229.424	34.82
229.642	53.25
229.86	18.43
230.077	30.72
230.295	53.25
230.513	135.17
230.731	-2.05
230.948	90.11
231.166	67.58
231.384	45.06
231.601	-4.1
231.819	71.68
232.037	22.53
232.254	22.53
232.472	61.44
232.689	-51.2
232.907	83.97
233.125	-51.2
233.342	36.86
233.56	24.58
233.777	34.82
233.995	14.34
234.213	55.3
234.43	71.68
234.648	110.59
234.865	-67.58
235.083	71.68
235.3	34.82
235.518	133.12
235.735	116.73
235.953	47.1
236.17	8.19
236.388	-24.58
236.605	43.01
236.822	165.89
237.04	28.67
237.257	45.06
237.475	79.87
237.692	12.29
237.909	22.53
238.127	0
238.344	36.86
238.562	55.3
238.779	43.01
238.996	57.34
239.214	-4.1
239.431	104.45
239.648	-43.01
239.865	51.2
240.083	-18.43
240.3	47.1
240.517	-22.53
240.735	-8.19
240.952	40.96
241.169	30.72
241.386	8.19
241.603	49.15
241.821	-38.91
242.038	63.49
242.255	104.45
242.472	-4.1
242.689	8.19
242.907	73.73
243.124	-26.62
243.341	32.77
243.558	-16.38
243.775	40.96
243.992	-47.1
244.209	24.58
244.426	139.26
244.643	57.34
244.86	86.01
245.078	53.25
245.295	26.62
245.512	-2.05
245.729	-30.72
245.946	8.19
246.163	63.49
246.38	53.25
246.597	-6.14
246.814	18.43
247.031	38.91
247.248	75.77
247.464	8.19
247.681	18.43
247.898	77.82
248.115	49.15
248.332	53.25
248.549	83.97
248.766	129.02
248.983	79.87
249.2	0
249.417	26.62
249.633	26.62
249.85	24.58
250.067	16.38
250.284	61.44
250.501	63.49
250.717	14.34
250.934	14.34
251.151	26.62
251.368	-14.34
251.585	34.82
251.801	20.48
252.018	63.49
252.235	71.68
252.451	-75.77
252.668	24.58
252.885	61.44
253.102	34.82
253.318	14.34
253.535	-28.67
253.752	38.91
253.968	-4.1
254.185	18.43
254.401	12.29
254.618	-88.06
254.835	-28.67
255.051	108.54
255.268	-24.58
255.484	40.96
255.701	26.62
255.917	12.29
256.134	112.64
256.351	0
256.567	12.29
256.784	55.3
257	-40.96
257.217	71.68
257.433	96.25
257.65	71.68
257.866	98.3
258.082	-14.34
258.299	-8.19
258.515	104.45
258.732	53.25
258.948	43.01
259.165	28.67
259.381	-20.48
259.597	26.62
259.814	18.43
260.03	-53.25
260.246	81.92
260.463	83.97
260.679	22.53
260.895	10.24
261.112	108.54
261.328	6.14
261.544	-65.53
261.761	129.02
261.977	-71.68
262.193	38.91
262.409	81.92
262.626	137.21
262.842	30.72
263.058	55.3
263.274	75.77
263.49	57.34
263.707	49.15
263.923	83.97
264.139	45.06
264.355	4.1
264.571	106.49
264.787	-92.16
265.004	43.01
265.22	63.49
265.436	8.19
265.652	12.29
265.868	36.86
266.084	10.24
266.3	67.58
266.516	-51.2
266.732	32.77
266.948	6.14
267.164	57.34
267.38	26.62
267.596	65.54
267.812	110.59
268.028	112.64
268.244	34.82
268.46	18.43
268.676	-20.48
268.892	0
269.108	-8.19
269.324	-8.19
269.54	-30.72
269.756	24.58
269.972	-2.05
270.188	10.24
270.403	-18.43
270.619	8.19
270.835	94.21
271.051	0
271.267	20.48
271.483	55.3
271.698	30.72
271.914	49.15
272.13	92.16
272.346	4.1
272.562	-30.72
272.777	16.38
272.993	24.58
273.209	6.14
273.425	98.3
273.64	-8.19
273.856	67.58
274.072	34.82
274.287	-4.1
274.503	79.87
274.719	55.3
274.934	65.54
275.15	-53.25
275.366	28.67
275.581	-6.14
275.797	94.21
276.012	4.1
276.228	61.44
276.444	77.82
276.659	69.63
276.875	2.05
277.09	10.24
277.306	-10.24
277.521	141.31
277.737	-61.44
277.952	38.91
278.168	126.97
278.383	57.34
278.599	34.82
278.814	45.06
279.03	28.67
279.245	40.96
279.461	38.91
279.676	47.1
279.892	-32.77
280.107	26.62
280.322	36.86
280.538	83.97
280.753	-40.96
280.969	16.38
281.184	-10.24
281.399	94.21
281.615	92.16
281.83	20.48
282.045	-22.53
282.26	-8.19
282.476	-6.14
282.691	83.97
282.906	81.92
283.122	-61.44
283.337	28.67
283.552	53.25
283.767	-28.67
283.983	86.01
284.198	88.06
284.413	92.16
284.628	-10.24
284.843	163.84
285.058	43.01
285.274	22.53
285.489	-30.72
285.704	71.68
285.919	-2.05
286.134	45.06
286.349	61.44
286.564	24.58
286.779	100.35
286.995	57.34
287.21	-2.05
287.425	102.4
287.64	12.29
287.855	79.87
288.07	28.67
288.285	104.45
288.5	98.3
288.715	30.72
288.93	-32.77
289.145	57.34
289.36	104.45
289.575	47.1
289.79	24.58
290.004	100.35
290.219	96.25
290.434	-18.43
290.649	32.77
290.864	0
291.079	2.05
291.294	10.24
291.509	26.62
291.724	45.06
291.938	-14.34
292.153	61.44
292.368	16.38
292.583	22.53
292.798	71.68
293.012	22.53
293.227	102.4
293.442	92.16
293.657	96.25
293.871	73.73
294.086	-6.14
294.301	133.12
294.516	77.82
294.73	0
294.945	-8.19
295.16	92.16
295.374	110.59
295.589	18.43
295.804	-63.49
296.018	47.1
296.233	104.45
296.447	45.06
296.662	-20.48
296.877	-32.77
297.091	32.77
297.306	51.2
297.52	38.91
297.735	96.25
297.949	16.38
298.164	135.17
298.378	-30.72
298.593	-4.1
298.807	12.29
299.022	55.3
299.236	104.45
299.451	24.58
299.665	22.53
299.88	4.1
300.094	-10.24
300.309	-6.14
300.523	14.34
300.737	49.15
300.952	8.19
301.166	65.54
301.381	26.62
301.595	57.34
301.809	26.62
302.024	18.43
302.238	-6.14
302.452	104.45
302.667	-14.34
302.881	59.39
303.095	59.39
303.309	6.14
303.524	4.1
303.738	49.15
303.952	-14.34
304.166	-4.1
304.381	-18.43
304.595	116.73
304.809	2.05
305.023	71.68
305.237	59.39
305.452	71.68
305.666	40.96
305.88	102.4
306.094	10.24
306.308	47.1
306.522	40.96
306.736	-20.48
306.95	24.58
307.164	61.44
307.379	18.43
307.593	51.2
307.807	28.67
308.021	0
308.235	75.77
308.449	30.72
308.663	-40.96
308.877	94.21
309.091	49.15
309.305	10.24
309.519	-49.15
309.733	131.07
309.947	-26.62
310.161	51.2
310.374	57.34
310.588	90.11
310.802	4.1
311.016	-6.14
311.23	57.34
311.444	2.05
311.658	22.53
311.872	139.26
312.085	69.63
312.299	161.79
312.513	-22.53
312.727	47.1
312.941	83.97
313.154	40.96
313.368	57.34
313.582	98.3
313.796	-2.05
314.009	38.91
314.223	110.59
314.437	49.15
314.651	77.82
314.864	2.05
315.078	-6.14
315.292	-14.34
315.505	-10.24
315.719	8.19
315.933	55.3
316.146	14.34
316.36	-18.43
316.573	53.25
316.787	98.3
317.001	57.34
317.214	-47.1
317.428	40.96
317.641	16.38
317.855	4.1
318.068	73.73
318.282	6.14
318.495	114.69
318.709	145.41
318.922	24.58
319.136	34.82
319.349	43.01
319.563	51.2
319.776	43.01
319.99	-61.44
320.203	18.43
320.417	32.77
320.63	47.1
320.843	155.65
321.057	-30.72
321.27	8.19
321.483	32.77
321.697	79.87
321.91	-10.24
322.124	88.06
322.337	20.48
322.55	-40.96
322.763	-34.82
322.977	90.11
323.19	16.38
323.403	55.3
323.617	49.15
323.83	51.2
324.043	-30.72
324.256	26.62
324.469	-53.25
324.683	-14.34
324.896	20.48
325.109	10.24
325.322	10.24
325.535	88.06
325.748	2.05
325.962	14.34
326.175	71.68
326.388	63.49
326.601	106.49
326.814	47.1
327.027	18.43
327.24	137.21
327.453	-16.38
327.666	14.34
327.879	61.44
328.092	40.96
328.305	45.06
328.518	47.1
328.731	38.91
328.944	163.84
329.157	43.01
329.37	57.34
329.583	57.34
329.796	98.3
330.009	-14.34
330.222	20.48
330.435	122.88
330.648	-2.05
330.861	77.82
331.073	38.91
331.286	102.4
331.499	88.06
331.712	24.58
331.925	90.11
332.138	47.1
332.35	8.19
332.563	-4.1
332.776	88.06
332.989	28.67
333.202	16.38
333.414	28.67
333.627	55.3
333.84	94.21
334.053	26.62
334.265	14.34
334.478	16.38
334.691	20.48
334.903	16.38
335.116	8.19
335.329	45.06
335.541	22.53
335.754	163.84
335.966	-30.72
336.179	6.14
336.392	6.14
336.604	36.86
336.817	2.05
337.029	104.45
337.242	90.11
337.454	65.54
337.667	114.69
337.88	92.16
338.092	4.1
338.305	36.86
338.517	67.58
338.729	-4.1
338.942	110.59
339.154	-40.96
339.367	-22.53
339.579	88.06
339.792	34.82
340.004	92.16
340.217	53.25
340.429	32.77
340.641	20.48
340.854	59.39
341.066	20.48
341.278	83.97
341.491	129.02
341.703	57.34
341.915	20.48
342.128	67.58
342.34	28.67
342.552	32.77
342.764	98.3
342.977	110.59
343.189	26.62
343.401	10.24
343.613	53.25
343.826	98.3
344.038	-49.15
344.25	40.96
344.462	73.73
344.674	14.34
344.886	86.01
345.099	47.1
345.311	4.1
345.523	34.82
345.735	-55.3
345.947	108.54
346.159	26.62
346.371	4.1
346.583	71.68
346.795	96.25
347.007	-20.48
347.219	63.49
347.431	83.97
347.643	79.87
347.855	63.49
348.067	24.58
348.279	-16.38
348.491	71.68
348.703	-45.06
348.915	73.73
349.127	71.68
349.339	51.2
349.551	-24.58
349.763	59.39
349.975	55.3
350.187	114.69
350.399	133.12
350.61	28.67
350.822	-57.34
351.034	-30.72
351.246	51.2
351.458	40.96
351.669	114.69
351.881	116.73
352.093	75.77
352.305	92.16
352.517	100.35
352.728	106.49
352.94	10.24
353.152	131.07
353.363	-38.91
353.575	88.06
353.787	49.15
353.999	22.53
354.21	116.73
354.422	73.73
354.633	10.24
354.845	24.58
355.057	14.34
355.268	51.2
355.48	92.16
355.692	-32.77
355.903	38.91
356.115	-18.43
356.326	-12.29
356.538	98.3
356.749	59.39
356.961	110.59
357.172	57.34
357.384	-2.05
357.595	112.64
357.807	0
358.018	8.19
358.23	112.64
358.441	100.35
358.653	100.35
358.864	71.68
359.075	40.96
359.287	30.72
359.498	24.58
359.709	79.87
359.921	137.21
360.132	32.77
360.344	86.01
360.555	71.68
360.766	83.97
360.977	-26.62
361.189	38.91
361.4	26.62
361.611	180.22
361.823	0
362.034	86.01
362.245	-14.34
362.456	4.1
362.667	45.06
362.879	-30.72
363.09	34.82
363.301	38.91
363.512	81.92
363.723	51.2
363.935	57.34
364.146	71.68
364.357	43.01
364.568	14.34
364.779	-63.49
364.99	40.96
365.201	-20.48
365.412	114.69
365.623	-43.01
365.834	22.53
366.045	26.62
366.256	-10.24
366.467	6.14
366.678	40.96
366.889	55.3
367.1	14.34
367.311	102.4
367.522	53.25
367.733	145.41
367.944	137.21
368.155	14.34
368.366	73.73
368.577	61.44
368.788	118.78
368.999	-10.24
369.209	18.43
369.42	94.21
369.631	131.07
369.842	40.96
370.053	24.58
370.264	88.06
370.474	83.97
370.685	69.63
370.896	73.73
371.107	92.16
371.317	51.2
371.528	94.21
371.739	16.38
371.95	55.3
372.16	192.51
372.371	51.2
372.582	26.62
372.792	133.12
373.003	55.3
373.214	75.77
373.424	94.21
373.635	38.91
373.846	112.64
374.056	90.11
374.267	75.77
374.477	86.01
374.688	81.92
374.898	12.29
375.109	22.53
375.319	2.05
375.53	65.54
375.74	86.01
375.951	30.72
376.161	63.49
376.372	129.02
376.582	12.29
376.793	-32.77
377.003	6.14
377.214	28.67
377.424	24.58
377.635	90.11
377.845	-57.34
378.055	180.22
378.266	6.14
378.476	71.68
378.686	12.29
378.897	61.44
379.107	22.53
379.317	43.01
379.528	73.73
379.738	86.01
379.948	10.24
380.158	32.77
380.369	24.58
380.579	90.11
380.789	30.72
380.999	65.54
381.21	49.15
381.42	120.83
381.63	71.68
381.84	108.54
382.05	65.54
382.261	67.58
382.471	30.72
382.681	73.73
382.891	75.77
383.101	81.92
383.311	8.19
383.521	98.3
383.731	94.21
383.941	90.11
384.151	24.58
384.361	106.49
384.571	71.68
384.781	129.02
384.991	106.49
385.201	102.4
385.411	153.6
385.621	43.01
385.831	-28.67
386.041	47.1
386.251	45.06
386.461	-10.24
386.671	12.29
386.881	155.65
387.091	71.68
387.301	98.3
387.511	92.16
387.72	16.38
387.93	133.12
388.14	18.43
388.35	51.2
388.56	106.49
388.769	55.3
388.979	14.34
389.189	-32.77
389.399	12.29
389.609	108.54
389.818	110.59
390.028	38.91
390.238	96.25
390.447	22.53
390.657	47.1
390.867	38.91
391.076	47.1
391.286	120.83
391.496	100.35
391.705	-8.19
391.915	86.01
392.125	10.24
392.334	92.16
392.544	198.65
392.753	61.44
392.963	4.1
393.172	4.1
393.382	79.87
393.591	98.3
393.801	47.1
394.01	75.77
394.22	43.01
394.429	108.54
394.639	36.86
394.848	55.3
395.058	118.78
395.267	63.49
395.477	133.12
395.686	96.25
395.895	161.79
396.105	149.5
396.314	79.87
396.524	145.41
396.733	63.49
396.942	94.21
397.152	112.64
397.361	139.26
397.57	40.96
397.78	102.4
397.989	145.41
398.198	131.07
398.407	40.96
398.617	96.25
398.826	98.3
399.035	61.44
399.244	139.26
399.453	59.39
399.663	4.1
399.872	147.45
400.081	73.73
400.29	110.59
400.499	63.49
400.708	96.25
400.917	133.12
401.127	55.3
401.336	90.11
401.545	98.3
401.754	145.41
401.963	40.96
402.172	55.3
402.381	96.25
402.59	114.69
402.799	86.01
403.008	118.78
403.217	83.97
403.426	204.8
403.635	79.87
403.844	155.65
404.053	139.26
404.262	124.93
404.471	204.8
404.68	131.07
404.888	137.21
405.097	129.02
405.306	169.98
405.515	212.99
405.724	100.35
405.933	161.79
406.142	147.45
406.35	180.22
406.559	172.03
406.768	133.12
406.977	276.48
407.185	137.21
407.394	215.04
407.603	133.12
407.812	204.8
408.02	221.18
408.229	182.27
408.438	260.09
408.646	192.51
408.855	204.8
409.064	235.52
409.272	172.03
409.481	221.18
409.69	272.38
409.898	253.95
410.107	284.67
410.315	368.63
410.524	217.08
410.733	325.63
410.941	358.39
411.15	360.44
411.358	405.5
411.567	356.35
411.775	376.83
411.984	360.44
412.192	456.7
412.401	475.13
412.609	487.42
412.818	479.22
413.026	524.28
413.234	514.04
413.443	610.29
413.651	475.13
413.86	524.28
414.068	630.77
414.276	661.49
414.485	598.01
414.693	665.59
414.901	669.69
415.11	686.07
415.318	684.02
415.526	751.6
415.734	837.62
415.943	800.76
416.151	804.85
416.359	811
416.567	727.03
416.776	878.58
416.984	866.29
417.192	940.02
417.4	894.96
417.608	933.87
417.817	966.64
418.025	1046.51
418.233	1103.86
418.441	1013.74
418.649	1163.25
418.857	1228.78
419.065	1198.06
419.273	1200.11
419.481	1222.64
419.689	1382.38
419.897	1363.95
420.105	1538.02
420.313	1548.26
420.521	1576.94
420.729	1578.98
420.937	1712.1
421.145	1681.38
421.353	1718.25
421.561	1900.52
421.769	1884.13
421.977	1949.67
422.185	1996.77
422.393	2066.4
422.601	2142.18
422.809	2236.38
423.017	2238.43
423.224	2236.38
423.432	2523.1
423.64	2398.17
423.848	2627.54
424.056	2566.1
424.263	2727.89
424.471	2731.99
424.679	2871.25
424.887	2932.69
425.094	3162.06
425.302	3203.02
425.51	3131.34
425.718	3323.85
425.925	3246.03
426.133	3504.07
426.341	3663.82
426.548	3796.93
426.756	3647.43
426.964	3704.78
427.171	4175.81
427.379	4200.38
427.586	4339.65
427.794	4394.94
428.001	4476.86
428.209	4734.9
428.417	4743.1
428.624	5009.33
428.832	5042.1
429.039	5089.2
429.247	4980.66
429.454	5633.96
429.662	5937.06
429.869	5599.15
430.076	6000.55
430.284	5760.94
430.491	6098.85
430.699	6387.61
430.906	6262.69
431.114	6385.57
431.321	6739.87
431.528	6698.91
431.736	7137.17
431.943	7505.81
432.15	7194.51
432.358	7389.07
432.565	7903.11
432.772	7655.31
432.979	8017.8
433.187	8277.89
433.394	8658.81
433.601	8908.66
433.808	8935.29
434.016	8910.71
434.223	9230.2
434.43	10139.49
434.637	9664.36
434.844	10274.66
435.052	10501.98
435.259	10139.49
435.466	10440.54
435.673	10403.68
435.88	10942.3
436.087	11706.19
436.294	11784.01
436.501	11611.98
436.708	11607.89
436.915	12019.53
437.122	12568.38
437.329	12396.35
437.537	12977.98
437.743	13150.01
437.95	13170.49
438.157	13807.41
438.364	14151.46
438.571	14264.1
438.778	14214.95
438.985	15398.68
439.192	15007.51
439.399	15494.93
439.606	15144.73
439.813	15838.99
440.02	16776.96
440.227	17018.62
440.433	16414.47
440.64	17073.92
440.847	16729.86
441.054	17301.24
441.261	18530.02
441.467	18167.53
441.674	18732.77
441.881	19363.54
442.088	19248.86
442.294	19162.84
442.501	19723.99
442.708	20145.87
442.914	20670.15
443.121	22011.57
443.328	21124.8
443.534	22691.49
443.741	22042.29
443.948	21714.61
444.154	23393.95
444.361	23236.25
444.568	23285.4
444.774	23301.79
444.981	23703.19
445.187	24379.02
445.394	25355.9
445.6	24811.14
445.807	27502.17
446.013	26117.75
446.22	26947.17
446.426	27719.26
446.633	27999.83
446.839	29085.25
447.046	27643.48
447.252	29288
447.459	29271.62
447.665	29230.66
447.871	30752.3
448.078	31897.11
448.284	30563.89
448.491	31477.28
448.697	32615.95
448.903	33037.83
449.11	33275.4
449.316	32716.3
449.522	33494.53
449.728	34211.32
449.935	34508.27
450.141	34121.21
450.347	34911.72
450.553	34059.77
450.76	34465.27
450.966	35741.15
451.172	35364.32
451.378	36197.85
451.584	35284.45
451.791	36558.29
451.997	36066.78
452.203	36732.37
452.409	36799.95
452.615	36711.89
452.821	35452.39
453.027	34950.63
453.233	37086.67
453.44	35378.66
453.646	35548.64
453.852	35923.42
454.058	36206.04
454.264	35325.41
454.47	36462.04
454.676	35202.53
454.882	36124.12
455.088	33240.58
455.294	33467.91
455.5	34145.78
455.705	34604.53
455.911	33216.01
456.117	32577.04
456.323	32118.29
456.529	30367.28
456.735	31821.34
456.941	31004.2
457.147	30635.56
457.352	29328.96
457.558	29134.4
457.764	29175.36
457.97	28624.46
458.176	28048.98
458.381	27766.36
458.587	26674.79
458.793	26465.9
458.999	25202.3
459.204	26832.49
459.41	26508.91
459.616	24479.37
459.821	24528.52
460.027	24673.93
460.233	23729.81
460.438	22619.81
460.644	22937.25
460.85	22050.48
461.055	21444.28
461.261	21761.72
461.466	20133.58
461.672	19291.87
461.878	20582.09
462.083	19318.49
462.289	18964.19
462.494	18765.54
462.7	17880.82
462.905	17653.49
463.111	18259.69
463.316	18456.29
463.522	17823.47
463.727	17741.55
463.932	17981.17
464.138	17643.25
464.343	17630.96
464.549	17327.86
464.754	17657.59
464.959	17524.47
465.165	17352.44
465.37	16576.26
465.575	16404.23
465.781	16883.45
465.986	17256.18
466.191	16615.17
466.397	16000.78
466.602	15515.41
466.807	15920.91
467.012	16029.45
467.218	16047.88
467.423	15570.71
467.628	15859.47
467.833	16264.97
468.038	15744.78
468.244	15466.26
468.449	15838.99
468.654	15456.02
468.859	15388.44
469.064	15171.35
469.269	14716.7
469.474	14950.17
469.679	14995.23
469.885	14487.33
470.09	14800.67
470.295	14712.61
470.5	14151.46
470.705	14473
470.91	13981.48
471.115	13827.89
471.32	14389.03
471.525	14329.64
471.73	13571.89
471.935	13887.28
472.139	13465.39
472.344	13426.48
472.549	13332.28
472.754	13283.13
472.959	12967.74
473.164	12646.21
473.369	12500.8
473.574	13023.03
473.778	12730.17
473.983	12599.1
474.188	12539.71
474.393	11999.05
474.598	12216.13
474.802	12121.93
475.007	12052.3
475.212	12003.14
475.417	11442
475.621	11611.98
475.826	11624.27
476.031	11413.33
476.235	11241.3
476.44	11171.67
476.645	11188.05
476.849	11085.65
477.054	10792.8
477.259	10819.42
477.463	10950.49
477.668	10458.98
477.872	10803.04
478.077	10516.32
478.282	10289
478.486	10213.22
478.691	9928.55
478.895	9824.11
479.1	9873.26
479.304	9940.84
479.509	9537.39
479.713	9817.96
479.918	9602.93
480.122	9518.96
480.326	9762.67
480.531	9740.14
480.735	9664.36
480.94	9498.48
481.144	9789.29
481.348	9215.86
481.553	9504.62
481.757	9191.28
481.961	9373.55
482.166	9310.07
482.37	9408.37
482.574	9224.05
482.778	9291.63
482.983	9434.99
483.187	9457.52
483.391	9377.65
483.595	9277.3
483.8	9283.44
484.004	9361.27
484.208	9498.48
484.412	9181.04
484.616	9283.44
484.821	9250.67
485.025	9017.21
485.229	9367.41
485.433	9138.04
485.637	9179
485.841	9336.69
486.045	9111.41
486.249	9422.7
486.453	9254.77
486.657	9236.34
486.861	9150.32
487.065	9277.3
487.269	9230.2
487.473	9232.24
487.677	9260.91
487.881	9398.13
488.085	9400.18
488.289	9336.69
488.493	9142.13
488.697	9541.49
488.901	9338.74
489.105	9326.45
489.309	9361.27
489.512	9471.86
489.716	9406.32
489.92	9416.56
490.124	9490.29
490.328	9447.28
490.531	9635.69
490.735	9576.3
490.939	9559.92
491.143	9527.15
491.346	9709.42
491.55	9654.12
491.754	9699.18
491.958	9891.69
492.161	9639.79
492.365	9801.58
492.569	9723.76
492.772	9903.98
492.976	9774.95
493.18	9754.48
493.383	10129.25
493.587	10045.29
493.79	10014.57
493.994	10186.6
494.197	10104.68
494.401	10248.04
494.605	10366.82
494.808	10389.35
495.012	10444.64
495.215	10557.28
495.419	10684.25
495.622	10573.66
495.825	10809.18
496.029	11040.6
496.232	10973.02
496.436	11181.91
496.639	11394.9
496.843	11071.32
497.046	11337.56
497.249	11663.18
497.453	11427.67
497.656	11624.27
497.859	11804.49
498.063	11958.09
498.266	12201.8
498.469	12150.6
498.673	12179.27
498.876	12693.31
499.079	12474.18
499.282	12437.31
499.485	12967.74
499.689	12881.72
499.892	12934.97
500.095	13002.55
500.298	13358.9
500.501	13309.75
500.705	13682.48
500.908	13686.58
501.111	13946.67
501.314	14010.15
501.517	14233.38
501.72	14429.99
501.923	14278.44
502.126	14544.67
502.329	15013.66
502.532	15146.78
502.735	15056.67
502.938	15316.76
503.141	15587.09
503.344	15595.28
503.547	15867.66
503.75	15853.33
503.953	16242.44
504.156	16217.86
504.359	16137.99
504.562	16463.62
504.765	16926.46
504.968	17028.86
505.17	17346.3
505.373	17239.8
505.576	17282.81
505.779	17686.26
505.982	17856.24
506.185	18138.86
506.387	18394.86
506.59	18441.96
506.793	18869.98
506.996	18661.09
507.198	19168.99
507.401	19076.83
507.604	19492.57
507.807	19801.81
508.009	19799.76
508.212	19652.31
508.415	20125.39
508.617	20225.74
508.82	20313.8
509.022	20412.1
509.225	20967.1
509.428	21073.6
509.63	21505.72
509.833	21143.23
510.035	21878.45
510.238	21993.14
510.44	22265.52
510.643	22560.42
510.845	22556.33
511.048	22279.85
511.25	22759.08
511.453	22884
511.655	23899.8
511.858	23398.04
512.06	23557.78
512.262	23979.67
512.465	23815.83
512.667	24442.51
512.87	24745.61
513.072	24747.65
513.274	25394.81
513.477	25532.03
513.679	25599.61
513.881	25636.47
514.084	26347.12
514.286	26592.87
514.488	26291.82
514.69	26914.41
514.893	27084.39
515.095	27137.63
515.297	27514.46
515.499	27694.68
515.701	27776.6
515.904	27948.63
516.106	28296.78
516.308	28649.03
516.51	29013.57
516.712	28974.66
516.914	29531.71
517.116	29779.51
517.318	29840.95
517.52	30025.27
517.722	30154.29
517.925	30875.18
518.127	31204.9
518.329	31065.64
518.531	31149.6
518.733	31634.97
518.935	31807
519.136	32253.46
519.338	32960.01
519.54	32863.75
519.742	32845.32
519.944	32894.47
520.146	33674.75
520.348	33879.55
520.55	33771
520.752	33979.9
520.954	34645.49
521.155	34528.75
521.357	34954.73
521.559	35333.6
521.761	35532.26
521.963	35519.97
522.164	36074.97
522.366	36050.39
522.568	36443.6
522.77	36470.23
522.971	37066.19
523.173	37025.23
523.375	37144.01
523.576	37424.58
523.778	37328.33
523.98	37998.01
524.181	37940.67
524.383	38030.78
524.584	38526.39
524.786	38284.73
524.988	38137.27
525.189	39167.4
525.391	39138.73
525.592	39769.51
525.794	39558.56
525.995	39855.52
526.197	39777.7
526.398	40301.98
526.6	40261.02
526.801	40279.45
527.003	40369.56
527.204	40697.24
527.406	41225.61
527.607	40629.65
527.808	41143.69
528.01	40816.02
528.211	41192.84
528.412	42227.07
528.614	41627.01
528.815	41917.82
529.016	42341.75
529.218	41774.47
529.419	42063.23
529.62	41837.95
529.822	41594.25
530.023	42208.64
530.224	42583.41
530.425	42296.7
530.626	42216.83
530.828	42225.02
531.029	43015.54
531.23	42657.14
531.431	42644.85
531.632	42718.58
531.833	43355.5
532.035	43396.46
532.236	43234.67
532.437	43191.66
532.638	42909.04
532.839	43410.79
533.04	43765.09
533.241	42880.37
533.442	43679.08
533.643	43877.73
533.844	43668.84
534.045	43685.22
534.246	43212.14
534.447	43564.39
534.648	43697.51
534.849	43945.31
535.05	43345.26
535.251	43998.56
535.451	43769.19
535.652	43801.96
535.853	43580.78
536.054	43619.69
536.255	43849.06
536.456	43521.38
536.657	44160.35
536.857	43828.58
537.058	43517.29
537.259	43509.1
537.46	43865.44
537.66	43713.89
537.861	43879.78
538.062	43701.61
538.263	43670.89
538.463	43644.26
538.664	43232.62
538.865	43898.21
539.065	43902.31
539.266	43771.24
539.466	43869.54
539.667	43091.31
539.868	44217.69
540.068	43744.61
540.269	43699.56
540.469	43885.92
540.67	43328.87
540.87	43634.02
541.071	43795.81
541.271	43488.62
541.472	43390.31
541.672	43621.73
541.873	43722.08
542.073	43023.73
542.274	43980.13
542.474	43652.45
542.675	43314.54
542.875	43445.61
543.075	43505
543.276	43119.98
543.476	43742.56
543.676	43074.93
543.877	43359.59
544.077	43447.66
544.277	43423.08
544.478	43345.26
544.678	43652.45
544.878	43263.34
545.078	43109.74
545.279	42845.55
545.479	43214.19
545.679	43517.29
545.879	43048.3
546.079	43398.51
546.28	43267.44
546.48	43156.85
546.68	43332.97
546.88	43306.35
547.08	43210.09
547.28	43255.15
547.48	42982.77
547.68	43144.56
547.88	43208.04
548.081	43402.6
548.281	43246.96
548.481	42884.47
548.681	43357.55
548.881	43189.61
549.081	43138.41
549.28	42964.34
549.48	43359.59
549.68	42921.33
549.88	43543.91
550.08	42929.52
550.28	42863.99
550.48	43154.8
550.68	43292.01
550.88	42726.77
551.08	43246.96
551.279	42700.15
551.479	42536.31
551.679	43048.3
551.879	42714.48
552.079	43158.89
552.278	42880.37
552.478	42927.47
552.678	42638.71
552.878	43328.87
553.077	42530.17
553.277	42413.43
553.477	43300.2
553.676	42679.67
553.876	42820.98
554.076	42478.97
554.275	42448.25
554.475	42251.64
554.674	42863.99
554.874	42466.68
555.074	42669.43
555.273	42675.57
555.473	42796.4
555.672	42120.57
555.872	42120.57
556.071	42444.15
556.271	42556.79
556.47	42265.98
556.67	41708.93
556.869	42061.18
557.068	42284.41
557.268	41371.02
557.467	41897.34
557.667	42052.99
557.866	41897.34
558.065	42235.26
558.265	41778.56
558.464	41633.16
558.663	42042.75
558.863	41201.04
559.062	42456.44
559.261	41291.15
559.461	41930.11
559.66	41160.08
559.859	41579.91
560.058	41117.07
560.258	41133.45
560.457	41137.55
560.656	41256.33
560.855	41211.28
561.054	41051.53
561.253	40658.32
561.453	40992.14
561.652	40957.33
561.851	40787.35
562.05	40533.4
562.249	39923.1
562.448	40658.32
562.647	40881.55
562.846	40377.75
563.045	40504.73
563.244	39779.74
563.443	40349.08
563.642	39880.1
563.841	39988.64
564.04	39708.07
564.239	40150.43
564.438	39777.7
564.637	39531.94
564.836	39568.8
565.035	39407.01
565.234	39290.28
565.432	39441.83
565.631	39757.22
565.83	39552.42
566.029	39159.21
566.228	39191.98
566.427	39206.31
566.625	38776.24
566.824	38241.72
567.023	38665.65
567.222	38217.14
567.42	38927.79
567.619	38489.52
567.818	38047.16
568.016	38266.3
568.215	38675.89
568.414	38110.65
568.612	38776.24
568.811	37565.89
569.01	38010.3
569.208	37862.85
569.407	37645.76
569.605	37668.29
569.804	37830.08
570.002	37164.49
570.201	37574.08
570.4	37053.9
570.598	37141.96
570.797	37039.56
570.995	37531.08
571.193	37006.8
571.392	36857.29
571.59	36754.9
571.789	36838.86
571.987	36410.84
572.186	36390.36
572.384	36238.81
572.582	36386.26
572.781	36077.02
572.979	35636.7
573.177	35718.62
573.376	35835.36
573.574	35837.41
573.772	35610.08
573.971	35466.72
574.169	35376.61
574.367	35261.93
574.565	35495.39
574.763	34926.06
574.962	35282.41
575.16	34721.26
575.358	35003.88
575.556	34674.16
575.754	34903.53
575.952	34633.2
576.151	34332.15
576.349	34467.31
576.547	34309.62
576.745	34455.03
576.943	34135.54
577.141	34295.28
577.339	34219.51
577.537	34260.47
577.735	34041.34
577.933	33220.1
578.131	33906.17
578.329	33603.07
578.527	33232.39
578.725	33396.23
578.923	33433.09
579.121	33396.23
579.319	33048.07
579.516	33656.32
579.714	33338.88
579.912	33064.46
580.11	33093.13
580.308	32964.1
580.506	32818.7
580.704	32364.05
580.901	32753.16
581.099	33078.79
581.297	32030.23
581.495	32261.65
581.692	32716.3
581.89	32290.32
582.088	32212.5
582.285	31802.91
582.483	32058.9
582.681	32067.09
582.878	31954.46
583.076	31452.7
583.274	31518.24
583.471	31278.63
583.669	31321.63
583.866	31114.79
584.064	31563.29
584.262	30934.57
584.459	31143.46
584.657	30678.57
584.854	30940.71
585.052	30795.31
585.249	30932.52
585.447	30631.47
585.644	30432.82
585.841	30574.13
586.039	30684.72
586.236	30127.67
586.434	30352.94
586.631	30010.93
586.828	30205.49
587.026	29931.06
587.223	29881.91
587.42	29439.55
587.618	29908.54
587.815	29912.63
588.012	29369.92
588.21	29558.33
588.407	29748.79
588.604	29290.05
588.801	29113.92
588.999	29265.47
589.196	29036.1
589.393	29212.23
589.59	29179.46
589.787	28862.02
589.984	28876.36
590.182	28513.87
590.379	28608.08
590.576	28507.72
590.773	28264.02
590.97	28444.24
591.167	28329.55
591.364	28051.03
591.561	28304.98
591.758	27711.07
591.955	27909.72
592.152	27709.02
592.349	27549.28
592.546	27741.78
592.743	27780.7
592.94	27168.35
593.137	27522.65
593.334	27586.14
593.531	27117.15
593.727	27254.37
593.924	27235.94
594.121	26953.32
594.318	27391.58
594.515	26889.83
594.712	27037.28
594.908	26914.41
595.105	26773.1
595.302	26517.1
595.499	26807.91
595.696	26072.69
595.892	26009.2
596.089	26570.35
596.286	26312.3
596.482	26322.54
596.679	26144.37
596.876	26103.41
597.072	25939.57
597.269	26033.78
597.466	25765.49
597.662	25575.03
597.859	25501.31
598.055	25763.45
598.252	25360
598.448	25507.45
598.645	25495.16
598.841	25140.86
599.038	25298.56
599.234	25134.72
599.431	25183.87
599.627	24811.14
599.824	25077.38
600.02	24694.41
600.217	24663.69
600.413	24508.04
600.609	24417.93
600.806	24303.25
601.002	24612.49
601.198	24489.61
601.395	24256.14
601.591	24137.36
601.787	24329.87
601.984	23707.29
602.18	24213.13
602.376	23924.37
602.572	23817.88
602.769	23744.15
602.965	23262.88
603.161	23842.45
603.357	23342.75
603.553	23486.11
603.75	23398.04
603.946	23221.92
604.142	23365.28
604.338	22824.61
604.534	23334.56
604.73	22867.62
604.926	23096.99
605.122	22785.7
605.318	22757.03
605.514	22652.58
605.71	22668.97
605.906	22738.6
606.102	22681.25
606.298	22484.65
606.494	22435.5
606.69	22662.82
606.886	22607.53
607.082	22265.52
607.278	22589.1
607.474	22116.01
607.67	21968.56
607.866	21917.36
608.062	22169.26
608.257	22027.95
608.453	21700.28
608.649	21663.41
608.845	21857.97
609.041	21847.73
609.236	21798.58
609.432	21554.87
609.628	21423.8
609.824	21565.11
610.019	21423.8
610.215	21601.97
610.411	21581.49
610.606	21407.42
610.802	21415.61
610.998	21503.67
611.193	21219
611.389	21151.42
611.584	21053.12
611.78	21042.88
611.976	20899.52
612.171	21370.55
612.367	21038.78
612.562	21081.79
612.758	20518.6
612.953	20856.51
613.149	21163.71
613.344	20735.68
613.539	20905.67
613.735	20795.07
613.93	21079.74
614.126	20551.37
614.321	20840.13
614.517	20752.07
614.712	20520.65
614.907	20199.12
615.103	20256.46
615.298	20448.97
615.493	20659.91
615.688	20123.34
615.884	20567.75
616.079	20168.4
616.274	20395.72
616.47	20055.76
616.665	20344.52
616.86	20057.81
617.055	19982.03
617.25	20115.15
617.445	20268.75
617.641	19543.77
617.836	20014.8
618.031	19412.7
618.226	19689.17
618.421	19680.98
618.616	19945.17
618.811	19443.42
619.006	19410.65
619.201	19095.26
619.396	19611.35
619.591	19214.04
619.786	19424.98
619.981	19162.84
620.176	19101.4
620.371	18837.22
620.566	18874.08
620.761	18896.61
620.956	18935.52
621.151	18577.12
621.346	18704.1
621.541	18372.33
621.735	18855.65
621.93	18030.32
622.125	18523.88
622.32	17966.83
622.515	18188.01
622.709	17868.53
622.904	17825.52
623.099	17602.29
623.294	17837.81
623.488	17372.92
623.683	17653.49
623.878	17092.35
624.072	17544.95
624.267	17051.39
624.462	17207.03
624.656	17002.24
624.851	16914.17
625.046	17112.83
625.24	16711.42
625.435	16623.36
625.629	16776.96
625.824	16488.2
626.018	16373.51
626.213	15963.92
626.407	16432.9
626.602	16426.76
626.796	16174.86
626.991	16082.7
627.185	15816.46
627.38	15939.34
627.574	15714.06
627.768	15660.82
627.963	15750.93
628.157	15345.43
628.352	15441.68
628.546	15206.17
628.74	15398.68
628.935	15255.32
629.129	15197.98
629.323	14980.89
629.517	15017.75
629.712	14808.86
629.906	14874.4
630.1	14628.64
630.294	14657.31
630.489	14620.45
630.683	14765.85
630.877	14192.42
631.071	14268.2
631.265	14358.31
631.459	14243.62
631.653	13946.67
631.848	14151.46
632.042	13891.37
632.236	14038.83
632.43	14090.02
632.624	13807.41
632.818	13539.12
633.012	13510.45
633.206	13586.22
633.4	13725.49
633.594	13121.34
633.788	13440.82
633.982	13328.18
634.176	13211.45
634.369	12992.31
634.563	13150.01
634.757	12767.04
634.951	13111.1
635.145	12904.25
635.339	13031.23
635.533	12816.19
635.726	12672.83
635.92	12465.99
636.114	12531.52
636.308	12269.38
636.501	12271.43
636.695	12314.44
636.889	12109.64
637.083	12336.96
637.276	12166.98
637.47	12103.5
637.664	11900.75
637.857	12234.57
638.051	11906.89
638.244	11820.88
638.438	11624.27
638.632	11890.51
638.825	11550.54
639.019	11319.12
639.212	11474.77
639.406	11409.23
639.599	11343.7
639.793	11462.48
639.986	10948.44
640.18	11269.97
640.373	11071.32
640.567	11124.57
640.76	11087.7
640.954	10854.23
641.147	10913.63
641.34	10817.37
641.534	10805.08
641.727	10755.93
641.92	10438.5
642.114	10561.37
642.307	10547.04
642.5	10635.1
642.694	10409.83
642.887	10323.81
643.08	10622.81
643.273	10381.15
643.467	10178.4
643.66	10037.09
643.853	10209.12
644.046	9957.22
644.239	10084.2
644.432	10082.15
644.626	9906.02
644.819	9664.36
645.012	10063.72
645.205	9727.85
645.398	9641.84
645.591	9807.72
645.784	9715.56
645.977	9467.76
646.17	9596.78
646.363	9322.35
646.556	9222
646.749	9498.48
646.942	9498.48
647.135	9191.28
647.328	9316.21
647.521	9131.89
647.714	8951.67
647.907	9152.37
648.099	9115.51
648.292	9158.52
648.485	9222
648.678	8925.05
648.871	8681.34
649.064	8861.56
649.256	8695.68
649.449	8710.01
649.642	8718.2
649.835	8630.14
650.027	8314.75
650.22	8435.58
650.413	8351.62
650.605	8451.97
650.798	8263.55
650.991	8312.71
651.183	8396.67
651.376	8216.45
651.568	8308.61
651.761	8208.26
651.954	8230.79
652.146	8187.78
652.339	8148.87
652.531	7993.22
652.724	8144.77
652.916	7757.71
653.109	7792.52
653.301	7806.86
653.494	8134.53
653.686	7944.07
653.879	7860.1
654.071	7618.44
654.263	7534.48
654.456	7683.98
654.648	7823.24
654.84	7557
655.033	7514
655.225	7499.66
655.417	7395.22
655.61	7616.4
655.802	7407.5
655.994	7589.77
656.186	7384.98
656.379	7362.45
656.571	7321.49
656.763	7217.04
656.955	7188.37
657.148	7202.71
657.34	6952.85
657.532	7004.05
657.724	6967.19
657.916	6868.89
658.108	7008.15
658.3	7022.48
658.492	6928.28
658.684	6741.91
658.876	6883.22
659.068	6750.1
659.26	6813.59
659.452	6844.31
659.644	6651.8
659.836	6729.63
660.028	6741.91
660.22	6485.92
660.412	6612.89
660.604	6463.39
660.796	6657.95
660.988	6467.49
661.18	6408.09
661.372	6498.2
661.563	6287.26
661.755	6453.15
661.947	6453.15
662.139	6430.62
662.331	6227.87
662.522	6182.82
662.714	6281.12
662.906	6160.29
663.097	6223.78
663.289	5986.21
663.481	6016.93
663.673	6119.33
663.864	6182.82
664.056	5814.18
664.247	6049.7
664.439	5973.92
664.631	6107.04
664.822	5996.45
665.014	5928.87
665.205	5867.43
665.397	5801.9
665.588	6008.74
665.78	5810.09
665.971	5652.39
666.163	5734.31
666.354	5855.14
666.546	5760.94
666.737	5713.83
666.929	5564.33
667.12	5679.02
667.311	5627.82
667.503	5568.43
667.694	5683.11
667.885	5642.15
668.077	5701.55
668.268	5441.45
668.459	5572.52
668.651	5480.36
668.842	5556.14
669.033	5380.01
669.224	5412.78
669.416	5468.08
669.607	5400.49
669.798	5418.93
669.989	5511.08
670.18	5355.44
670.371	5334.96
670.563	5265.33
670.754	5343.15
670.945	5402.54
671.136	5359.53
671.327	5328.81
671.518	5185.46
671.709	5285.81
671.9	5339.05
672.091	5294
672.282	5169.07
672.473	5250.99
672.664	5144.5
672.855	5169.07
673.046	5210.03
673.237	5269.42
673.428	5179.31
673.619	5236.66
673.809	5087.15
674	5109.68
674.191	5199.79
674.382	4968.37
674.573	4814.77
674.764	5289.9
674.954	5154.74
675.145	5019.57
675.336	5103.54
675.527	5064.63
675.717	4978.61
675.908	4839.35
676.099	4968.37
676.289	5005.24
676.48	5091.25
676.671	5076.91
676.861	5035.96
677.052	5052.34
677.243	4884.41
677.433	4956.08
677.624	5013.43
677.814	4960.18
678.005	4956.08
678.195	4868.02
678.386	4956.08
678.576	5113.78
678.767	5066.67
678.957	4982.71
679.148	5035.96
679.338	4964.28
679.529	5009.33
679.719	4913.08
679.909	5019.57
680.1	4900.79
680.29	4835.25
680.481	4753.34
680.671	4771.77
680.861	4954.04
681.052	5050.29
681.242	4886.45
681.432	5066.67
681.622	4882.36
681.813	4822.97
682.003	4964.28
682.193	4657.08
682.383	4947.89
682.573	4784.06
682.764	4915.12
682.954	4894.65
683.144	4954.04
683.334	4691.9
683.524	4888.5
683.714	4878.26
683.904	4882.36
684.094	4945.84
684.284	4857.78
684.474	4833.21
684.664	4978.61
684.854	4878.26
685.044	4700.09
685.234	4870.07
685.424	4800.44
685.614	4868.02
685.804	4878.26
685.994	4755.38
686.184	4833.21
686.374	4736.95
686.564	4714.42
686.753	4581.31
686.943	4663.22
687.133	4720.57
687.323	4470.72
687.513	4558.78
687.702	4609.98
687.892	4526.01
688.082	4532.15
688.272	4478.91
688.461	4497.34
688.651	4423.61
688.841	4564.92
689.03	4501.44
689.22	4214.72
689.41	4278.21
689.599	4440
689.789	4499.39
689.979	4339.65
690.168	4366.27
690.358	4208.58
690.547	4300.73
690.737	4210.62
690.926	4237.25
691.116	4050.88
691.305	4362.17
691.495	4083.65
691.684	4143.04
691.874	4179.9
692.063	4014.02
692.252	4194.24
692.442	4030.4
692.631	4009.92
692.82	3907.52
693.01	3999.68
693.199	4073.41
693.388	3903.43
693.578	3958.72
693.767	3815.37
693.956	4016.07
694.146	4050.88
694.335	3872.71
694.524	4001.73
694.713	3874.76
694.902	3905.48
695.092	3790.79
695.281	3862.47
695.47	3971.01
695.659	3860.42
695.848	3780.55
696.037	3712.97
696.226	3766.21
696.415	3733.45
696.604	3780.55
696.793	3741.64
696.982	3819.46
697.171	3772.36
697.36	3829.7
697.549	3725.26
697.738	3764.17
697.927	3721.16
698.116	3760.07
698.305	3786.69
698.494	3786.69
698.683	3700.68
698.872	3710.92
699.061	3698.63
699.25	3657.67
699.438	3727.3
699.627	3807.17
699.816	3659.72
700.005	3573.71
700.193	3626.95
700.382	3760.07
700.571	3581.9
700.76	3645.38
700.948	3610.57
701.137	3522.51
701.326	3626.95
701.514	3557.32
701.703	3682.25
701.892	3583.95
702.08	3733.45
702.269	3624.9
702.457	3545.03
702.646	3569.61
702.834	3520.46
703.023	3463.12
703.212	3680.2
703.4	3700.68
703.589	3729.35
703.777	3702.73
703.965	3618.76
704.154	3647.43
704.342	3479.5
704.531	3762.12
704.719	3717.06
704.907	3629
705.096	3524.55
705.284	3645.38
705.472	3694.54
705.661	3698.63
705.849	3659.72
706.037	3794.89
706.226	3610.57
706.414	3624.9
706.602	3661.77
706.79	3655.62
706.979	3692.49
707.167	3735.49
707.355	3704.78
707.543	3792.84
707.731	3672.01
707.919	3758.02
708.107	3624.9
708.296	3723.21
708.484	3524.55
708.672	3690.44
708.86	3649.48
709.048	3663.82
709.236	3772.36
709.424	3776.45
709.612	3688.39
709.8	3631.05
709.988	3880.9
710.176	3903.43
710.364	3708.87
710.551	3624.9
710.739	3749.83
710.927	3692.49
711.115	3782.6
711.303	3880.9
711.491	3686.34
711.679	3809.22
711.866	3741.64
712.054	3831.75
712.242	3762.12
712.43	3831.75
712.617	3991.49
712.805	3782.6
712.993	3815.37
713.181	3753.93
713.368	3870.66
713.556	3835.85
713.744	3905.48
713.931	3985.35
714.119	3844.04
714.306	3891.14
714.494	3708.87
714.682	3833.8
714.869	3768.26
715.057	4003.78
715.244	3790.79
715.432	3903.43
715.619	3923.91
715.807	3925.96
715.994	4102.08
716.182	3915.72
716.369	3987.4
716.556	4046.79
716.744	3770.31
716.931	3895.24
717.119	4020.16
717.306	3956.68
717.493	3932.1
717.681	3850.18
717.868	4100.03
718.055	4001.73
718.242	3971.01
718.43	3958.72
718.617	3944.39
718.804	3993.54
718.991	3952.58
719.179	3991.49
719.366	4011.97
719.553	3891.14
719.74	4028.35
719.927	4054.98
720.114	4143.04
720.301	4069.31
720.488	4073.41
720.676	4044.74
720.863	4054.98
721.05	4036.55
721.237	4167.62
721.424	3989.44
721.611	4128.7
721.798	4018.11
721.985	4120.51
722.172	4145.09
722.358	4140.99
722.545	4126.66
722.732	4024.26
722.919	4208.58
723.106	4014.02
723.293	4165.57
723.48	4085.7
723.667	4077.51
723.853	4048.83
724.04	4251.58
724.227	4245.44
724.414	4134.85
724.6	4194.24
724.787	4263.87
724.974	4190.14
725.161	4206.53
725.347	4263.87
725.534	4304.83
725.72	4175.81
725.907	4372.41
726.094	4143.04
726.28	4237.25
726.467	4255.68
726.653	4194.24
726.84	4200.38
727.027	4286.4
727.213	4097.99
727.4	4134.85
727.586	4255.68
727.773	4259.78
727.959	4265.92
728.145	4364.22
728.332	4265.92
728.518	4251.58
728.705	4251.58
728.891	4188.1
729.077	4294.59
729.264	4249.54
729.45	4356.03
729.636	4380.61
729.823	4308.93
730.009	4286.4
730.195	4378.56
730.382	4247.49
730.568	4298.69
730.754	4300.73
730.94	4282.3
731.126	4376.51
731.313	4249.54
731.499	4315.07
731.685	4302.78
731.871	4345.79
732.057	4401.08
732.243	4276.16
732.429	4321.21
732.615	4392.89
732.801	4470.72
732.987	4491.2
733.173	4317.12
733.359	4366.27
733.545	4310.97
733.731	4255.68
733.917	4339.65
734.103	4442.04
734.289	4421.56
734.475	4335.55
734.661	4431.8
734.847	4466.62
735.033	4483
735.219	4327.36
735.404	4368.32
735.59	4306.88
735.776	4353.98
735.962	4345.79
736.148	4429.76
736.333	4204.48
736.519	4384.7
736.705	4374.46
736.89	4257.73
737.076	4247.49
737.262	4087.75
737.447	4292.54
737.633	4259.78
737.819	4292.54
738.004	4153.28
738.19	4306.88
738.375	4143.04
738.561	4382.65
738.747	4190.14
738.932	4161.47
739.118	4298.69
739.303	4308.93
739.489	4206.53
739.674	4216.77
739.859	4057.03
740.045	4208.58
740.23	4114.37
740.416	3903.43
740.601	4151.23
740.786	4122.56
740.972	4069.31
741.157	4196.29
741.342	4087.75
741.528	4063.17
741.713	4036.55
741.898	4067.27
742.084	4104.13
742.269	4095.94
742.454	4028.35
742.639	4188.1
742.824	4014.02
743.01	4048.83
743.195	3909.57
743.38	4040.64
743.565	3919.81
743.75	4093.89
743.935	3905.48
744.12	3991.49
744.305	3971.01
744.49	3909.57
744.675	3805.13
744.86	3784.65
745.045	3766.21
745.23	3749.83
745.415	3694.54
745.6	3897.28
745.785	3727.3
745.97	3801.03
746.155	3755.97
746.34	3749.83
746.525	3594.19
746.71	3594.19
746.895	3751.88
747.079	3612.62
747.264	3610.57
747.449	3610.57
747.634	3520.46
747.819	3530.7
748.003	3590.09
748.188	3487.69
748.373	3424.2
748.557	3465.16
748.742	3428.3
748.927	3463.12
749.111	3278.8
749.296	3418.06
749.481	3311.57
749.665	3362.76
749.85	3276.75
750.034	3373
750.219	3200.98
750.404	3289.04
750.588	3246.03
750.773	3190.74
750.957	3184.59
751.141	3137.49
751.326	3155.92
751.51	3131.34
751.695	3069.91
751.879	3162.06
752.064	3227.6
752.248	3112.91
752.432	3049.43
752.617	3147.73
752.801	3055.57
752.985	3004.37
753.17	3041.23
753.354	3020.75
753.538	2910.16
753.722	2932.69
753.907	3012.56
754.091	2764.76
754.275	2922.45
754.459	2865.11
754.643	2856.92
754.828	2783.19
755.012	2639.83
755.196	2750.42
755.38	2684.89
755.564	2742.23
755.748	2656.22
755.932	2809.81
756.116	2588.63
756.3	2582.49
756.484	2586.58
756.668	2592.73
756.852	2467.8
757.036	2549.72
757.22	2416.6
757.404	2414.56
757.588	2451.42
757.772	2576.34
757.956	2430.94
758.14	2451.42
758.323	2324.44
758.507	2392.03
758.691	2514.91
758.875	2342.88
759.059	2377.69
759.242	2344.92
759.426	2392.03
759.61	2293.73
759.794	2129.89
759.977	2457.56
760.161	2385.88
760.345	2303.96
760.528	2301.92
760.712	2236.38
760.895	2142.18
761.079	2142.18
761.263	2117.6
761.446	2140.13
761.63	2090.98
761.813	2148.32
761.997	2041.82
762.18	2088.93
762.364	2127.84
762.547	2011.11
762.731	2121.7
762.914	2164.7
763.098	2136.03
763.281	2103.26
763.464	2045.92
763.648	2076.64
763.831	2103.26
764.015	1951.71
764.198	2031.59
764.381	1953.76
764.564	2007.01
764.748	2054.11
764.931	1957.86
765.114	1920.99
765.297	1955.81
765.481	1939.43
765.664	1906.66
765.847	1902.56
766.03	2019.3
766.213	1906.66
766.397	1777.64
766.58	1834.98
766.763	1949.67
766.946	1794.02
767.129	1818.6
767.312	1755.11
767.495	1783.78
767.678	1810.4
767.861	1718.25
768.044	1757.16
768.227	1898.47
768.41	1712.1
768.593	1769.45
768.776	1744.87
768.959	1654.76
769.142	1699.81
769.324	1665
769.507	1769.45
769.69	1679.33
769.873	1675.24
770.056	1771.49
770.239	1734.63
770.421	1669.09
770.604	1718.25
770.787	1656.81
770.97	1613.8
771.152	1611.75
771.335	1652.71
771.518	1617.9
771.7	1701.86
771.883	1540.07
772.066	1632.23
772.248	1597.42
772.431	1554.41
772.613	1593.32
772.796	1607.66
772.978	1521.64
773.161	1595.37
773.343	1535.98
773.526	1466.35
773.708	1609.7
773.891	1439.72
774.073	1597.42
774.256	1535.98
774.438	1439.72
774.621	1460.2
774.803	1382.38
774.985	1443.82
775.168	1413.1
775.35	1400.81
775.532	1359.85
775.715	1325.04
775.897	1406.95
776.079	1353.71
776.261	1343.47
776.444	1337.32
776.626	1216.49
776.808	1247.21
776.99	1259.5
777.173	1345.52
777.355	1351.66
777.537	1263.6
777.719	1310.7
777.901	1208.3
778.083	1265.64
778.265	1179.63
778.447	1290.22
778.629	1204.21
778.811	1286.12
778.993	1150.96
779.175	1185.77
779.357	1046.51
779.539	1155.05
779.721	1122.29
779.903	1189.87
780.085	1079.28
780.267	1097.71
780.449	1095.66
780.631	1062.9
780.812	1128.43
780.994	1073.14
781.176	1189.87
781.358	1077.23
781.54	1023.98
781.721	1058.8
781.903	1040.37
782.085	948.21
782.267	1054.7
782.448	1038.32
782.63	925.68
782.812	1046.51
782.993	964.59
783.175	909.3
783.357	886.77
783.538	942.07
783.72	917.49
783.901	974.83
784.083	876.53
784.264	937.97
784.446	827.38
784.627	796.66
784.809	944.11
784.99	849.91
785.172	884.72
785.353	870.39
785.535	837.62
785.716	872.43
785.897	796.66
786.079	903.15
786.26	860.15
786.441	778.23
786.623	798.71
786.804	845.81
786.985	856.05
787.167	831.48
787.348	741.36
787.529	794.61
787.71	860.15
787.891	737.27
788.073	749.56
788.254	743.41
788.435	733.17
788.616	712.69
788.797	837.62
788.978	753.65
789.159	673.78
789.34	763.89
789.522	702.45
789.703	665.59
789.884	688.12
790.065	739.32
790.246	743.41
790.427	667.64
790.607	776.18
790.788	702.45
790.969	641.01
791.15	673.78
791.331	661.49
791.512	647.16
791.693	559.1
791.874	595.96
792.054	720.89
792.235	587.77
792.416	600.05
792.597	671.73
792.778	555
792.958	663.54
793.139	593.91
793.32	573.43
793.5	577.53
793.681	632.82
793.862	628.73
794.042	548.86
794.223	518.14
794.404	555
794.584	585.72
794.765	579.58
794.945	520.18
795.126	563.19
795.306	655.35
795.487	563.19
795.667	491.51
795.848	534.52
796.028	518.14
796.209	563.19
796.389	532.47
796.57	598.01
796.75	501.75
796.93	456.7
797.111	475.13
797.291	528.38
797.471	503.8
797.652	440.31
797.832	509.94
798.012	550.9
798.192	497.66
798.373	444.41
798.553	395.26
798.733	485.37
798.913	430.07
799.093	458.75
799.274	475.13
799.454	485.37
799.634	542.71
799.814	448.51
799.994	483.32
800.174	499.7
800.354	507.9
800.534	395.26
800.714	511.99
800.894	425.98
801.074	374.78
801.254	385.02
801.434	526.33
801.614	425.98
801.794	477.18
801.974	1183.73
802.154	468.98
802.334	483.32
802.514	438.27
802.693	415.74
802.873	403.45
803.053	468.98
803.233	440.31
803.413	411.64
803.592	452.6
803.772	366.59
803.952	337.91
804.131	286.72
804.311	382.97
804.491	374.78
804.67	282.62
804.85	344.06
805.03	464.89
805.209	452.6
805.389	425.98
805.568	374.78
805.748	313.34
805.928	417.79
806.107	350.2
806.287	301.05
806.466	415.74
806.646	366.59
806.825	260.09
807.004	325.63
807.184	454.65
807.363	358.39
807.543	393.21
807.722	368.63
807.901	434.17
808.081	430.07
808.26	270.33
808.439	227.32
808.619	419.83
808.798	301.05
808.977	292.86
809.156	382.97
809.336	385.02
809.515	387.07
809.694	292.86
809.873	221.18
810.052	305.15
810.231	358.39
810.411	342.01
810.59	342.01
810.769	217.08
810.948	333.82
811.127	229.37
811.306	317.44
811.485	290.81
811.664	325.63
811.843	270.33
812.022	264.19
812.201	237.56
812.38	270.33
812.559	272.38
812.737	231.42
812.916	294.91
813.095	282.62
813.274	329.72
813.453	307.2
813.632	284.67
813.811	317.44
813.989	270.33
814.168	264.19
814.347	219.13
814.526	227.32
814.704	387.07
814.883	350.2
815.062	272.38
815.24	321.53
815.419	202.75
815.598	317.44
815.776	163.84
815.955	215.04
816.133	245.76
816.312	313.34
816.49	247.8
816.669	276.48
816.847	292.86
817.026	309.24
817.204	194.56
817.383	188.41
817.561	253.95
817.74	243.71
817.918	266.24
818.097	186.37
818.275	159.74
818.453	278.52
818.632	272.38
818.81	192.51
818.988	200.7
819.167	231.42
819.345	206.84
819.523	182.27
819.701	274.43
819.879	262.14
820.058	200.7
820.236	284.67
820.414	292.86
820.592	208.89
820.77	227.32
820.948	194.56
821.127	178.17
821.305	204.8
821.483	155.65
821.661	212.99
821.839	159.74
822.017	174.08
822.195	198.65
822.373	266.24
822.551	145.41
822.729	221.18
822.907	243.71
823.085	206.84
823.262	245.76
823.44	155.65
823.618	176.13
823.796	186.37
823.974	145.41
824.152	174.08
824.329	180.22
824.507	178.17
824.685	167.93
824.863	131.07
825.04	174.08
825.218	202.75
825.396	212.99
825.574	210.94
825.751	188.41
825.929	260.09
826.107	151.55
826.284	204.8
826.462	251.9
826.639	153.6
826.817	94.21
826.994	169.98
827.172	116.73
827.349	190.46
827.527	217.08
827.704	174.08
827.882	235.52
828.059	180.22
828.237	133.12
828.414	245.76
828.591	79.87
828.769	172.03
828.946	153.6
829.124	184.32
829.301	182.27
829.478	188.41
829.655	210.94
829.833	198.65
830.01	79.87
830.187	153.6
830.364	182.27
830.542	104.45
830.719	249.85
830.896	151.55
831.073	112.64
831.25	108.54
831.427	118.78
831.604	151.55
831.782	53.25
831.959	153.6
832.136	227.32
832.313	149.5
832.49	141.31
832.667	155.65
832.844	67.58
833.021	114.69
833.198	63.49
833.374	182.27
833.551	163.84
833.728	53.25
833.905	227.32
834.082	69.63
834.259	145.41
834.436	145.41
834.612	133.12
834.789	157.69
834.966	61.44
835.143	176.13
835.319	153.6
835.496	153.6
835.673	196.61
835.85	188.41
836.026	161.79
836.203	149.5
836.38	126.97
836.556	90.11
836.733	-22.53
836.909	161.79
837.086	131.07
837.262	106.49
837.439	137.21
837.616	100.35
837.792	65.54
837.968	139.26
838.145	116.73
838.321	169.98
838.498	53.25
838.674	145.41
838.851	141.31
839.027	98.3
839.203	92.16
839.38	114.69
839.556	81.92
839.732	133.12
839.909	83.97
840.085	172.03
840.261	40.96
840.437	73.73
840.614	53.25
840.79	137.21
840.966	116.73
841.142	47.1
841.318	36.86
841.494	153.6
841.671	88.06
841.847	32.77
842.023	92.16
842.199	57.34
842.375	106.49
842.551	57.34
842.727	51.2
842.903	163.84
843.079	98.3
843.255	188.41
843.431	102.4
843.607	129.02
843.783	30.72
843.959	110.59
844.134	63.49
844.31	165.89
844.486	47.1
844.662	-6.14
844.838	77.82
845.013	165.89
845.189	81.92
845.365	114.69
845.541	102.4
845.716	92.16
845.892	129.02
846.068	57.34
846.244	73.73
846.419	47.1
846.595	45.06
846.77	88.06
846.946	38.91
847.122	75.77
847.297	30.72
847.473	129.02
847.648	34.82
847.824	141.31
847.999	75.77
848.175	90.11
848.35	116.73
848.526	145.41
848.701	159.74
848.876	73.73
849.052	51.2
849.227	14.34
849.403	14.34
849.578	79.87
849.753	16.38
849.929	30.72
850.104	-2.05
850.279	61.44
850.454	28.67
850.63	79.87
850.805	67.58
850.98	94.21
851.155	104.45
851.33	88.06
851.505	51.2
851.681	32.77
851.856	20.48
852.031	51.2
852.206	135.17
852.381	-6.14
852.556	55.3
852.731	98.3
852.906	106.49
853.081	73.73
853.256	176.13
853.431	14.34
853.606	71.68
853.781	38.91
853.956	2.05
854.131	38.91
854.305	30.72
854.48	-22.53
854.655	-14.34
854.83	-32.77
855.005	0
855.18	67.58
855.354	18.43
855.529	75.77
855.704	79.87
855.879	43.01
856.053	34.82
856.228	40.96
856.403	51.2
856.577	28.67
856.752	75.77
856.926	98.3
857.101	45.06
857.276	-36.86
857.45	40.96
857.625	43.01
857.799	153.6
857.974	6.14
858.148	-55.3
858.323	75.77
858.497	-12.29
858.672	73.73
858.846	61.44
859.02	57.34
859.195	71.68
859.369	14.34
859.543	14.34
859.718	55.3
859.892	112.64
860.066	6.14
860.241	47.1
860.415	104.45
860.589	49.15
860.763	104.45
860.938	34.82
861.112	92.16
861.286	-22.53
861.46	-53.25
861.634	14.34
861.808	32.77
861.982	55.3
862.157	34.82
862.331	2.05
862.505	-71.68
862.679	47.1
862.853	43.01
863.027	-26.62
863.201	133.12
863.375	12.29
863.549	106.49
863.722	53.25
863.896	122.88
864.07	-38.91
864.244	131.07
864.418	-47.1
864.592	6.14
864.766	4.1
864.939	4.1
865.113	47.1
865.287	-2.05
865.461	67.58
865.634	34.82
865.808	104.45
865.982	47.1
866.156	-112.64
866.329	-28.67
866.503	8.19
866.676	73.73
866.85	-24.58
867.024	-4.1
867.197	63.49
867.371	90.11
867.544	57.34
867.718	10.24
867.891	-2.05
868.065	63.49
868.238	49.15
868.412	30.72
868.585	73.73
868.759	-14.34
868.932	-14.34
869.105	0
869.279	-34.82
869.452	61.44
869.625	51.2
869.799	155.65
869.972	-20.48
870.145	0
870.319	18.43
870.492	10.24
870.665	45.06
870.838	-10.24
871.011	-63.49
871.185	-61.44
871.358	-2.05
871.531	73.73
871.704	43.01
871.877	26.62
872.05	61.44
872.223	36.86
872.396	-16.38
872.569	45.06
872.742	-81.92
872.915	98.3
873.088	-34.82
873.261	-40.96
873.434	4.1
873.607	-22.53
873.78	-4.1
873.953	-32.77
874.126	106.49
874.299	26.62
874.471	86.01
874.644	2.05
874.817	14.34
874.99	-24.58
875.163	20.48
875.335	69.63
875.508	8.19
875.681	38.91
875.853	6.14
876.026	47.1
876.199	88.06
876.371	-32.77
876.544	-26.62
876.717	30.72
876.889	100.35
877.062	55.3
877.234	-8.19
877.407	-34.82
877.579	20.48
877.752	67.58
877.924	77.82
878.097	155.65
878.269	38.91
878.442	90.11
878.614	63.49
878.786	34.82
878.959	71.68
879.131	6.14
879.303	30.72
879.476	18.43
879.648	112.64
879.82	51.2
879.993	2.05
880.165	-28.67
880.337	-10.24
880.509	10.24
880.681	-26.62
880.854	-6.14
881.026	-8.19
881.198	135.17
881.37	-22.53
881.542	51.2
881.714	-26.62
881.886	36.86
882.058	-43.01
882.23	55.3
882.402	2.05
882.574	30.72
882.746	18.43
882.918	30.72
883.09	12.29
883.262	-10.24
883.434	26.62
883.606	-47.1
883.778	2.05
883.95	57.34
884.122	-40.96
884.293	75.77
884.465	-38.91
884.637	94.21
884.809	-6.14
884.98	14.34
885.152	77.82
885.324	53.25
885.496	-22.53
885.667	-14.34
885.839	32.77
886.011	79.87
886.182	65.54
886.354	-12.29
886.525	-2.05
886.697	81.92
886.869	49.15
887.04	38.91
887.212	94.21
887.383	83.97
887.555	-43.01
887.726	-20.48
887.897	6.14
888.069	-75.77
888.24	47.1
888.412	16.38
888.583	53.25
888.754	10.24
888.926	-79.87
889.097	-18.43
889.268	-6.14
889.44	14.34
889.611	-51.2
889.782	-55.3
889.953	-30.72
890.125	45.06
890.296	-10.24
890.467	38.91
890.638	-8.19
890.809	40.96
890.98	-10.24
891.151	-32.77
891.323	83.97
891.494	-36.86
891.665	-55.3
891.836	47.1
892.007	-57.34
892.178	49.15
892.349	34.82
892.52	-26.62
892.691	-18.43
892.862	47.1
893.032	18.43
893.203	-2.05
893.374	-2.05
893.545	16.38
893.716	22.53
893.887	0
894.057	-22.53
894.228	45.06
894.399	4.1
894.57	94.21
894.74	4.1
894.911	-12.29
895.082	6.14
895.253	18.43
895.423	28.67
895.594	-10.24
895.764	36.86
895.935	-26.62
896.106	-28.67
896.276	8.19
896.447	-12.29
896.617	-83.97
896.788	-45.06
896.958	16.38
897.129	2.05
897.299	-4.1
897.47	88.06
897.64	94.21
897.81	-16.38
897.981	24.58
898.151	-47.1
898.322	2.05
898.492	47.1
898.662	-14.34
898.832	-4.1
899.003	22.53
899.173	-43.01
899.343	-61.44
899.513	-2.05
