Data from USB4F104151__10__13-04-21-410.txt Node

Date: Fri Mar 14 13:04:21 EDT 2025
User: louis
Spectrometer: USB4F10415
Trigger mode: 4
Integration Time (sec): 4.000000E-2
Scans to average: 1
Electric dark correction enabled: true
Nonlinearity correction enabled: false
Boxcar width: 0
XAxis mode: Wavelengths
Number of Pixels in Spectrum: 3648
>>>>>Begin Spectral Data<<<<<
178.204	-135.68
178.424	-135.68
178.644	-135.68
178.864	-182.78
179.084	-188.93
179.304	-33.28
179.524	-43.52
179.744	-8.7
179.964	44.54
180.184	17.92
180.404	5.63
180.624	-27.14
180.844	30.21
181.064	-72.19
181.283	42.5
181.503	-14.85
181.723	58.88
181.943	-2.56
182.163	120.32
182.383	-12.8
182.602	101.89
182.822	79.36
183.042	32.26
183.262	22.02
183.482	-35.33
183.701	48.64
183.921	-10.75
184.141	-27.14
184.361	50.69
184.58	73.21
184.8	89.6
185.02	22.02
185.239	153.09
185.459	15.87
185.679	140.8
185.898	-23.04
186.118	77.31
186.338	67.07
186.557	13.82
186.777	24.06
186.997	-27.14
187.216	42.5
187.436	73.21
187.655	22.02
187.875	34.3
188.095	79.36
188.314	22.02
188.534	40.45
188.753	19.97
188.973	26.11
189.192	54.78
189.412	-10.75
189.631	79.36
189.851	67.07
190.07	142.85
190.29	83.45
190.509	1.54
190.729	7.68
190.948	38.4
191.168	187.9
191.387	81.41
191.607	17.92
191.826	93.69
192.045	50.69
192.265	38.4
192.484	17.92
192.704	62.98
192.923	-4.61
193.142	60.93
193.362	42.5
193.581	95.74
193.8	42.5
194.02	-51.71
194.239	62.98
194.458	132.61
194.678	28.16
194.897	34.3
195.116	79.36
195.335	32.26
195.555	79.36
195.774	73.21
195.993	81.41
196.212	40.45
196.432	9.73
196.651	-23.04
196.87	-8.7
197.089	79.36
197.308	3.58
197.528	40.45
197.747	-39.42
197.966	105.98
198.185	75.26
198.404	87.55
198.623	105.98
198.842	103.93
199.062	19.97
199.281	62.98
199.5	11.78
199.719	116.22
199.938	62.98
200.157	62.98
200.376	177.66
200.595	153.09
200.814	24.06
201.033	40.45
201.252	89.6
201.471	11.78
201.69	50.69
201.909	30.21
202.128	36.35
202.347	42.5
202.566	46.59
202.785	42.5
203.004	54.78
203.223	171.52
203.442	69.12
203.661	-27.14
203.879	17.92
204.098	56.83
204.317	9.73
204.536	108.03
204.755	38.4
204.974	91.65
205.193	69.12
205.411	118.27
205.63	71.17
205.849	93.69
206.068	22.02
206.287	-55.81
206.505	155.13
206.724	26.11
206.943	-39.42
207.162	5.63
207.381	62.98
207.599	36.35
207.818	89.6
208.037	50.69
208.255	56.83
208.474	40.45
208.693	75.26
208.911	93.69
209.13	-0.51
209.349	89.6
209.567	89.6
209.786	65.02
210.005	22.02
210.223	103.93
210.442	-14.85
210.661	81.41
210.879	52.74
211.098	-23.04
211.316	46.59
211.535	67.07
211.753	58.88
211.972	91.65
212.191	36.35
212.409	38.4
212.628	95.74
212.846	-35.33
213.065	126.46
213.283	171.52
213.502	44.54
213.72	38.4
213.938	124.41
214.157	97.79
214.375	136.7
214.594	62.98
214.812	112.13
215.031	17.92
215.249	54.78
215.467	58.88
215.686	28.16
215.904	101.89
216.122	17.92
216.341	26.11
216.559	36.35
216.778	67.07
216.996	97.79
217.214	79.36
217.432	22.02
217.651	-23.04
217.869	71.17
218.087	-2.56
218.306	36.35
218.524	67.07
218.742	54.78
218.96	83.45
219.179	1.54
219.397	-18.94
219.615	65.02
219.833	58.88
220.051	1.54
220.27	108.03
220.488	144.89
220.706	34.3
220.924	-35.33
221.142	89.6
221.36	-0.51
221.578	89.6
221.796	17.92
222.015	38.4
222.233	140.8
222.451	122.37
222.669	-2.56
222.887	54.78
223.105	-39.42
223.323	103.93
223.541	62.98
223.759	89.6
223.977	89.6
224.195	126.46
224.413	79.36
224.631	34.3
224.849	5.63
225.067	67.07
225.285	58.88
225.503	-20.99
225.721	-0.51
225.939	32.26
226.157	65.02
226.375	138.75
226.592	-29.18
226.81	26.11
227.028	116.22
227.246	122.37
227.464	91.65
227.682	79.36
227.9	85.5
228.117	52.74
228.335	7.68
228.553	40.45
228.771	32.26
228.989	48.64
229.206	124.41
229.424	1.54
229.642	-74.24
229.86	30.21
230.077	130.56
230.295	30.21
230.513	136.7
230.731	54.78
230.948	81.41
231.166	124.41
231.384	-4.61
231.601	89.6
231.819	34.3
232.037	42.5
232.254	48.64
232.472	116.22
232.689	-20.99
232.907	157.18
233.125	87.55
233.342	30.21
233.56	54.78
233.777	42.5
233.995	17.92
234.213	105.98
234.43	83.45
234.648	38.4
234.865	24.06
235.083	-35.33
235.3	71.17
235.518	34.3
235.735	108.03
235.953	71.17
236.17	50.69
236.388	48.64
236.605	42.5
236.822	134.65
237.04	81.41
237.257	62.98
237.475	38.4
237.692	26.11
237.909	110.08
238.127	17.92
238.344	85.5
238.562	5.63
238.779	13.82
238.996	-31.23
239.214	32.26
239.431	97.79
239.648	-12.8
239.865	97.79
240.083	112.13
240.3	40.45
240.517	19.97
240.735	-43.52
240.952	165.37
241.169	81.41
241.386	93.69
241.603	17.92
241.821	32.26
242.038	32.26
242.255	124.41
242.472	19.97
242.689	44.54
242.907	114.17
243.124	65.02
243.341	13.82
243.558	-0.51
243.775	-8.7
243.992	-10.75
244.209	30.21
244.426	85.5
244.643	91.65
244.86	34.3
245.078	62.98
245.295	24.06
245.512	71.17
245.729	-51.71
245.946	99.84
246.163	81.41
246.38	75.26
246.597	69.12
246.814	9.73
247.031	77.31
247.248	112.13
247.464	44.54
247.681	7.68
247.898	77.31
248.115	28.16
248.332	42.5
248.549	77.31
248.766	89.6
248.983	122.37
249.2	24.06
249.417	-18.94
249.633	-35.33
249.85	91.65
250.067	65.02
250.284	91.65
250.501	56.83
250.717	56.83
250.934	22.02
251.151	32.26
251.368	42.5
251.585	1.54
251.801	44.54
252.018	-27.14
252.235	83.45
252.451	-70.14
252.668	108.03
252.885	71.17
253.102	38.4
253.318	13.82
253.535	13.82
253.752	38.4
253.968	-14.85
254.185	-27.14
254.401	40.45
254.618	65.02
254.835	-0.51
255.051	120.32
255.268	136.7
255.484	15.87
255.701	95.74
255.917	91.65
256.134	26.11
256.351	-16.9
256.567	-0.51
256.784	79.36
257	-10.75
257.217	44.54
257.433	34.3
257.65	83.45
257.866	108.03
258.082	-82.43
258.299	-0.51
258.515	110.08
258.732	-8.7
258.948	-68.09
259.165	40.45
259.381	75.26
259.597	89.6
259.814	65.02
260.03	103.93
260.246	54.78
260.463	13.82
260.679	40.45
260.895	153.09
261.112	71.17
261.328	77.31
261.544	-66.05
261.761	103.93
261.977	-2.56
262.193	32.26
262.409	22.02
262.626	122.37
262.842	73.21
263.058	44.54
263.274	9.73
263.49	75.26
263.707	165.37
263.923	67.07
264.139	28.16
264.355	65.02
264.571	79.36
264.787	-8.7
265.004	85.5
265.22	17.92
265.436	-0.51
265.652	24.06
265.868	34.3
266.084	-18.94
266.3	93.69
266.516	62.98
266.732	3.58
266.948	105.98
267.164	62.98
267.38	103.93
267.596	50.69
267.812	67.07
268.028	60.93
268.244	-27.14
268.46	116.22
268.676	-16.9
268.892	32.26
269.108	-8.7
269.324	-16.9
269.54	-41.47
269.756	42.5
269.972	-59.9
270.188	79.36
270.403	67.07
270.619	58.88
270.835	52.74
271.051	24.06
271.267	19.97
271.483	79.36
271.698	-0.51
271.914	7.68
272.13	69.12
272.346	30.21
272.562	17.92
272.777	95.74
272.993	26.11
273.209	42.5
273.425	83.45
273.64	22.02
273.856	46.59
274.072	22.02
274.287	73.21
274.503	26.11
274.719	50.69
274.934	32.26
275.15	26.11
275.366	22.02
275.581	-53.76
275.797	36.35
276.012	77.31
276.228	19.97
276.444	-47.62
276.659	128.51
276.875	-29.18
277.09	69.12
277.306	28.16
277.521	87.55
277.737	1.54
277.952	38.4
278.168	91.65
278.383	9.73
278.599	87.55
278.814	83.45
279.03	79.36
279.245	5.63
279.461	67.07
279.676	110.08
279.892	-37.38
280.107	-10.75
280.322	46.59
280.538	103.93
280.753	97.79
280.969	48.64
281.184	62.98
281.399	87.55
281.615	58.88
281.83	46.59
282.045	42.5
282.26	30.21
282.476	-12.8
282.691	77.31
282.906	9.73
283.122	95.74
283.337	-35.33
283.552	136.7
283.767	-6.66
283.983	101.89
284.198	38.4
284.413	58.88
284.628	-109.05
284.843	62.98
285.058	65.02
285.274	46.59
285.489	60.93
285.704	62.98
285.919	11.78
286.134	32.26
286.349	30.21
286.564	71.17
286.779	83.45
286.995	52.74
287.21	93.69
287.425	105.98
287.64	7.68
287.855	50.69
288.07	-8.7
288.285	163.33
288.5	124.41
288.715	34.3
288.93	-10.75
289.145	13.82
289.36	71.17
289.575	19.97
289.79	62.98
290.004	-37.38
290.219	62.98
290.434	44.54
290.649	11.78
290.864	81.41
291.079	56.83
291.294	50.69
291.509	22.02
291.724	32.26
291.938	44.54
292.153	79.36
292.368	19.97
292.583	54.78
292.798	-8.7
293.012	54.78
293.227	89.6
293.442	91.65
293.657	95.74
293.871	175.61
294.086	81.41
294.301	73.21
294.516	112.13
294.73	17.92
294.945	38.4
295.16	46.59
295.374	62.98
295.589	83.45
295.804	-33.28
296.018	50.69
296.233	93.69
296.447	32.26
296.662	28.16
296.877	114.17
297.091	46.59
297.306	22.02
297.52	87.55
297.735	42.5
297.949	13.82
298.164	46.59
298.378	58.88
298.593	81.41
298.807	46.59
299.022	24.06
299.236	38.4
299.451	15.87
299.665	15.87
299.88	24.06
300.094	126.46
300.309	-2.56
300.523	28.16
300.737	9.73
300.952	87.55
301.166	50.69
301.381	-47.62
301.595	77.31
301.809	17.92
302.024	5.63
302.238	-12.8
302.452	120.32
302.667	-8.7
302.881	163.33
303.095	130.56
303.309	58.88
303.524	-37.38
303.738	7.68
303.952	24.06
304.166	165.37
304.381	-78.33
304.595	97.79
304.809	46.59
305.023	22.02
305.237	-29.18
305.452	-33.28
305.666	44.54
305.88	38.4
306.094	60.93
306.308	-31.23
306.522	46.59
306.736	24.06
306.95	60.93
307.164	22.02
307.379	32.26
307.593	136.7
307.807	36.35
308.021	42.5
308.235	56.83
308.449	-51.71
308.663	-8.7
308.877	105.98
309.091	48.64
309.305	-8.7
309.519	-45.57
309.733	93.69
309.947	-53.76
310.161	30.21
310.374	62.98
310.588	130.56
310.802	17.92
311.016	65.02
311.23	79.36
311.444	-2.56
311.658	19.97
311.872	105.98
312.085	17.92
312.299	42.5
312.513	108.03
312.727	-2.56
312.941	60.93
313.154	52.74
313.368	36.35
313.582	83.45
313.796	50.69
314.009	-8.7
314.223	56.83
314.437	116.22
314.651	99.84
314.864	11.78
315.078	52.74
315.292	-2.56
315.505	1.54
315.719	32.26
315.933	52.74
316.146	9.73
316.36	11.78
316.573	83.45
316.787	93.69
317.001	79.36
317.214	30.21
317.428	24.06
317.641	-55.81
317.855	17.92
318.068	-2.56
318.282	-8.7
318.495	46.59
318.709	128.51
318.922	30.21
319.136	87.55
319.349	65.02
319.563	-25.09
319.776	77.31
319.99	24.06
320.203	9.73
320.417	24.06
320.63	56.83
320.843	126.46
321.057	58.88
321.27	19.97
321.483	24.06
321.697	108.03
321.91	50.69
322.124	97.79
322.337	-2.56
322.55	11.78
322.763	79.36
322.977	99.84
323.19	40.45
323.403	79.36
323.617	44.54
323.83	140.8
324.043	32.26
324.256	-6.66
324.469	26.11
324.683	105.98
324.896	-16.9
325.109	52.74
325.322	-0.51
325.535	34.3
325.748	26.11
325.962	-8.7
326.175	56.83
326.388	95.74
326.601	130.56
326.814	13.82
327.027	83.45
327.24	171.52
327.453	-20.99
327.666	50.69
327.879	122.37
328.092	101.89
328.305	122.37
328.518	75.26
328.731	-35.33
328.944	-4.61
329.157	77.31
329.37	7.68
329.583	108.03
329.796	85.5
330.009	22.02
330.222	81.41
330.435	108.03
330.648	54.78
330.861	83.45
331.073	40.45
331.286	38.4
331.499	85.5
331.712	-47.62
331.925	9.73
332.138	22.02
332.35	157.18
332.563	22.02
332.776	38.4
332.989	-10.75
333.202	60.93
333.414	65.02
333.627	89.6
333.84	-49.66
334.053	-39.42
334.265	26.11
334.478	11.78
334.691	126.46
334.903	34.3
335.116	-2.56
335.329	22.02
335.541	-23.04
335.754	24.06
335.966	-10.75
336.179	60.93
336.392	-29.18
336.604	67.07
336.817	71.17
337.029	7.68
337.242	13.82
337.454	67.07
337.667	26.11
337.88	71.17
338.092	99.84
338.305	-10.75
338.517	19.97
338.729	93.69
338.942	71.17
339.154	17.92
339.367	-39.42
339.579	83.45
339.792	-14.85
340.004	46.59
340.217	50.69
340.429	65.02
340.641	-10.75
340.854	-25.09
341.066	24.06
341.278	93.69
341.491	87.55
341.703	79.36
341.915	52.74
342.128	54.78
342.34	-16.9
342.552	-57.86
342.764	-10.75
342.977	-0.51
343.189	-2.56
343.401	89.6
343.613	38.4
343.826	15.87
344.038	5.63
344.25	48.64
344.462	-37.38
344.674	112.13
344.886	91.65
345.099	26.11
345.311	36.35
345.523	99.84
345.735	-33.28
345.947	85.5
346.159	22.02
346.371	60.93
346.583	130.56
346.795	71.17
347.007	-10.75
347.219	-0.51
347.431	85.5
347.643	36.35
347.855	5.63
348.067	30.21
348.279	7.68
348.491	40.45
348.703	30.21
348.915	22.02
349.127	13.82
349.339	60.93
349.551	-39.42
349.763	77.31
349.975	38.4
350.187	46.59
350.399	44.54
350.61	75.26
350.822	79.36
351.034	44.54
351.246	52.74
351.458	97.79
351.669	44.54
351.881	71.17
352.093	15.87
352.305	38.4
352.517	36.35
352.728	97.79
352.94	24.06
353.152	30.21
353.363	42.5
353.575	95.74
353.787	114.17
353.999	93.69
354.21	67.07
354.422	40.45
354.633	22.02
354.845	42.5
355.057	38.4
355.268	58.88
355.48	71.17
355.692	42.5
355.903	60.93
356.115	54.78
356.326	-51.71
356.538	13.82
356.749	103.93
356.961	87.55
357.172	3.58
357.384	1.54
357.595	151.04
357.807	38.4
358.018	32.26
358.23	38.4
358.441	89.6
358.653	73.21
358.864	91.65
359.075	81.41
359.287	1.54
359.498	34.3
359.709	38.4
359.921	-10.75
360.132	-2.56
360.344	9.73
360.555	-53.76
360.766	-16.9
360.977	17.92
361.189	157.18
361.4	1.54
361.611	89.6
361.823	32.26
362.034	42.5
362.245	67.07
362.456	13.82
362.667	36.35
362.879	54.78
363.09	50.69
363.301	40.45
363.512	124.41
363.723	60.93
363.935	30.21
364.146	95.74
364.357	13.82
364.568	130.56
364.779	-10.75
364.99	75.26
365.201	60.93
365.412	81.41
365.623	-0.51
365.834	71.17
366.045	42.5
366.256	44.54
366.467	54.78
366.678	-6.66
366.889	-59.9
367.1	75.26
367.311	67.07
367.522	-66.05
367.733	50.69
367.944	62.98
368.155	28.16
368.366	79.36
368.577	95.74
368.788	114.17
368.999	26.11
369.209	-23.04
369.42	124.41
369.631	194.05
369.842	73.21
370.053	83.45
370.264	73.21
370.474	13.82
370.685	91.65
370.896	42.5
371.107	54.78
371.317	93.69
371.528	91.65
371.739	40.45
371.95	136.7
372.16	32.26
372.371	-2.56
372.582	-2.56
372.792	138.75
373.003	44.54
373.214	56.83
373.424	75.26
373.635	-12.8
373.846	124.41
374.056	-2.56
374.267	28.16
374.477	24.06
374.688	38.4
374.898	52.74
375.109	112.13
375.319	46.59
375.53	128.51
375.74	126.46
375.951	24.06
376.161	22.02
376.372	126.46
376.582	42.5
376.793	79.36
377.003	48.64
377.214	69.12
377.424	116.22
377.635	-29.18
377.845	17.92
378.055	126.46
378.266	-12.8
378.476	32.26
378.686	134.65
378.897	83.45
379.107	50.69
379.317	65.02
379.528	26.11
379.738	79.36
379.948	40.45
380.158	136.7
380.369	24.06
380.579	44.54
380.789	81.41
380.999	13.82
381.21	114.17
381.42	140.8
381.63	28.16
381.84	48.64
382.05	62.98
382.261	108.03
382.471	79.36
382.681	60.93
382.891	132.61
383.101	67.07
383.311	9.73
383.521	71.17
383.731	95.74
383.941	130.56
384.151	65.02
384.361	54.78
384.571	30.21
384.781	54.78
384.991	81.41
385.201	138.75
385.411	-10.75
385.621	112.13
385.831	146.94
386.041	62.98
386.251	122.37
386.461	151.04
386.671	-31.23
386.881	126.46
387.091	15.87
387.301	118.27
387.511	60.93
387.72	136.7
387.93	71.17
388.14	32.26
388.35	13.82
388.56	122.37
388.769	52.74
388.979	110.08
389.189	15.87
389.399	91.65
389.609	52.74
389.818	146.94
390.028	146.94
390.238	17.92
390.447	-8.7
390.657	56.83
390.867	46.59
391.076	5.63
391.286	-0.51
391.496	48.64
391.705	40.45
391.915	73.21
392.125	91.65
392.334	105.98
392.544	91.65
392.753	13.82
392.963	108.03
393.172	-10.75
393.382	89.6
393.591	140.8
393.801	42.5
394.01	136.7
394.22	91.65
394.429	112.13
394.639	62.98
394.848	50.69
395.058	15.87
395.267	73.21
395.477	112.13
395.686	181.76
395.895	105.98
396.105	204.28
396.314	79.36
396.524	97.79
396.733	161.28
396.942	65.02
397.152	112.13
397.361	140.8
397.57	75.26
397.78	62.98
397.989	65.02
398.198	171.52
398.407	22.02
398.617	60.93
398.826	167.42
399.035	50.69
399.244	97.79
399.453	83.45
399.663	114.17
399.872	183.81
400.081	73.21
400.29	138.75
400.499	40.45
400.708	112.13
400.917	83.45
401.127	71.17
401.336	157.18
401.545	194.05
401.754	126.46
401.963	124.41
402.172	93.69
402.381	73.21
402.59	97.79
402.799	122.37
403.008	138.75
403.217	151.04
403.426	110.08
403.635	62.98
403.844	118.27
404.053	71.17
404.262	83.45
404.471	130.56
404.68	153.09
404.888	105.98
405.097	120.32
405.306	140.8
405.515	128.51
405.724	75.26
405.933	130.56
406.142	165.37
406.35	171.52
406.559	99.84
406.768	93.69
406.977	196.09
407.185	148.99
407.394	95.74
407.603	99.84
407.812	173.57
408.02	202.24
408.229	202.24
408.438	140.8
408.646	161.28
408.855	181.76
409.064	196.09
409.272	206.33
409.481	235
409.69	218.62
409.898	181.76
410.107	210.43
410.315	259.58
410.524	278.01
410.733	255.48
410.941	269.82
411.15	214.52
411.358	376.31
411.567	343.55
411.775	392.7
411.984	316.92
412.192	357.88
412.401	329.21
412.609	382.46
412.818	396.79
413.026	474.62
413.234	361.98
413.443	421.37
413.651	392.7
413.86	464.38
414.068	458.23
414.276	548.34
414.485	441.85
414.693	515.58
414.901	544.25
415.11	605.69
415.318	493.05
415.526	515.58
415.734	542.2
415.943	570.87
416.151	638.45
416.359	628.21
416.567	669.17
416.776	650.74
416.984	714.23
417.192	734.71
417.4	824.82
417.608	669.17
417.817	734.71
418.025	765.43
418.233	970.23
418.441	808.44
418.649	869.87
418.857	1025.52
419.065	931.31
419.273	892.4
419.481	972.27
419.689	1197.55
419.897	1111.54
420.105	1089.01
420.313	1150.45
420.521	1193.45
420.729	1261.04
420.937	1314.28
421.145	1228.27
421.353	1375.72
421.561	1369.58
421.769	1428.97
421.977	1469.93
422.185	1385.96
422.393	1629.67
422.601	1678.82
422.809	1652.2
423.017	1668.58
423.224	1687.01
423.432	1842.66
423.64	1891.81
423.848	1902.05
424.056	1922.53
424.263	2112.99
424.471	2098.66
424.679	2266.59
424.887	2235.87
425.094	2268.64
425.302	2356.7
425.51	2506.2
425.718	2541.02
425.925	2608.6
426.133	2690.52
426.341	2694.61
426.548	2880.98
426.756	2936.28
426.964	2948.56
427.171	3069.39
427.379	3206.61
427.586	3208.66
427.794	3440.08
428.001	3493.32
428.209	3708.36
428.417	3595.72
428.624	3907.01
428.832	3763.65
429.039	3747.27
429.247	3786.18
429.454	4144.58
429.662	4486.59
429.869	4152.77
430.076	4631.99
430.284	4189.63
430.491	4595.13
430.699	4750.78
430.906	4767.16
431.114	4758.97
431.321	5057.97
431.528	5254.58
431.736	5520.81
431.943	5559.72
432.15	5467.56
432.358	5625.26
432.565	6122.91
432.772	5825.96
432.979	6378.91
433.187	6356.38
433.394	6315.42
433.601	6890.9
433.808	6882.71
434.016	6745.5
434.223	7126.42
434.43	7493.01
434.637	7396.75
434.844	7714.19
435.052	7875.98
435.259	7837.06
435.466	8048.01
435.673	7816.58
435.88	8494.46
436.087	8639.87
436.294	8824.19
436.501	8609.15
436.708	8869.24
436.915	9147.76
437.122	9606.51
437.329	9543.02
437.537	9788.78
437.743	9971.05
437.95	10018.15
438.157	10437.98
438.364	10634.59
438.571	10581.34
438.778	10653.02
438.985	11689.29
439.192	11365.71
439.399	11775.31
439.606	11367.76
439.813	12047.69
440.02	12989.75
440.227	12698.94
440.433	12492.1
440.64	12961.08
440.847	12821.82
441.054	12930.36
441.261	14353.7
441.467	13851.95
441.674	13950.25
441.881	14636.32
442.088	14433.57
442.294	14245.16
442.501	14892.32
442.708	15058.2
442.914	15705.36
443.121	16356.61
443.328	15842.57
443.534	17343.74
443.741	16555.27
443.948	16250.12
444.154	17523.96
444.361	17636.59
444.568	17603.83
444.774	17865.97
444.981	17734.9
445.187	18267.37
445.394	19053.79
445.6	18828.51
445.807	20638.92
446.013	19985.62
446.22	20305.1
446.426	21021.89
446.633	21013.7
446.839	22049.97
447.046	20796.61
447.252	22365.35
447.459	22107.31
447.665	22375.59
447.871	23151.77
448.078	24442
448.284	23102.62
448.491	23970.96
448.697	24714.37
448.903	25019.52
449.11	25515.13
449.316	24728.71
449.522	25314.43
449.728	26301.55
449.935	26020.98
450.141	26203.25
450.347	26864.74
450.553	25851
450.76	26426.48
450.966	27182.18
451.172	26780.78
451.378	27655.26
451.584	27085.92
451.791	27685.98
451.997	27577.44
452.203	27724.89
452.409	28238.93
452.615	28087.38
452.821	27087.97
453.027	26537.07
453.233	28185.68
453.44	26928.23
453.646	27124.83
453.852	27239.52
454.058	27780.18
454.264	26897.51
454.47	27481.18
454.676	26868.84
454.882	28222.55
455.088	25287.81
455.294	25785.46
455.5	26066.03
455.705	26412.14
455.911	25191.55
456.117	24878.21
456.323	24587.4
456.529	23338.14
456.735	24095.89
456.941	23657.62
457.147	23186.59
457.352	22789.28
457.558	22678.69
457.764	22518.95
457.97	21978.29
458.176	21216.44
458.381	21312.7
458.587	20389.06
458.793	20458.7
458.999	19346.65
459.204	21019.84
459.41	20301
459.616	19227.87
459.821	19135.71
460.027	18732.26
460.233	18609.38
460.438	17452.28
460.644	17884.4
460.85	17028.35
461.055	16563.46
461.261	16475.4
461.466	15463.7
461.672	14941.47
461.878	15805.71
462.083	14877.98
462.289	14456.1
462.494	14314.79
462.7	13796.65
462.905	13600.05
463.111	13917.48
463.316	13919.53
463.522	13737.26
463.727	13651.25
463.932	13704.49
464.138	13428.02
464.343	13714.73
464.549	13176.12
464.754	13579.57
464.959	13647.15
465.165	13526.32
465.37	12932.41
465.575	12483.91
465.781	12778.81
465.986	13024.57
466.191	12412.23
466.397	12193.09
466.602	11717.97
466.807	12150.09
467.012	12232.01
467.218	12350.79
467.423	12051.78
467.628	12082.5
467.833	12447.04
468.038	12141.89
468.244	11973.96
468.449	12232.01
468.654	11664.72
468.859	11769.16
469.064	11568.46
469.269	11425.11
469.474	11335
469.679	11572.56
469.885	11214.16
470.09	11564.37
470.295	11335
470.5	11013.46
470.705	11175.25
470.91	10978.65
471.115	10872.15
471.32	10927.45
471.525	11091.29
471.73	10607.97
471.935	10714.46
472.139	10329.44
472.344	10311.01
472.549	10308.96
472.754	9958.76
472.959	10181.99
473.164	9799.02
473.369	9641.32
473.574	9907.56
473.778	9794.92
473.983	9749.87
474.188	9500.02
474.393	9244.02
474.598	9364.85
474.802	9362.8
475.007	9182.58
475.212	9135.48
475.417	8830.33
475.621	8861.05
475.826	9012.6
476.031	8887.67
476.235	8525.18
476.44	8824.19
476.645	8576.38
476.849	8516.99
477.054	8367.49
477.259	8467.84
477.463	8347.01
477.668	8246.66
477.872	8142.21
478.077	7978.37
478.282	7939.46
478.486	7871.88
478.691	7714.19
478.895	7652.75
479.1	7552.4
479.304	7738.76
479.509	7558.54
479.713	7660.94
479.918	7400.85
480.122	7241.11
480.326	7536.01
480.531	7536.01
480.735	7366.03
480.94	7323.02
481.144	7458.19
481.348	7198.1
481.553	7296.4
481.757	7157.14
481.961	7214.48
482.166	7351.7
482.37	7179.67
482.574	7091.6
482.778	7091.6
482.983	7396.75
483.187	7222.67
483.391	7347.6
483.595	7167.38
483.8	7007.64
484.004	7140.76
484.208	6974.87
484.412	7087.51
484.616	7230.87
484.821	7232.91
485.025	7034.26
485.229	7185.81
485.433	7077.27
485.637	6958.49
485.841	6878.62
486.045	7183.76
486.249	7093.65
486.453	7081.36
486.657	7234.96
486.861	7054.74
487.065	6897.05
487.269	7214.48
487.473	6845.85
487.677	7093.65
487.881	7353.74
488.085	7093.65
488.289	7118.23
488.493	6976.92
488.697	7159.19
488.901	7097.75
489.105	7069.08
489.309	7087.51
489.512	7318.93
489.716	7093.65
489.92	7320.98
490.124	7085.46
490.328	7396.75
490.531	7216.53
490.735	7320.98
490.939	7406.99
491.143	7288.21
491.346	7339.41
491.55	7286.16
491.754	7261.59
491.958	7587.21
492.161	7382.42
492.365	7509.39
492.569	7656.84
492.772	7560.59
492.976	7603.6
493.18	7613.84
493.383	7576.97
493.587	7697.8
493.79	7552.4
493.994	7646.6
494.197	7865.74
494.401	7763.34
494.605	8041.86
494.808	8078.72
495.012	8086.92
495.215	8131.97
495.419	8162.69
495.622	8097.16
495.825	8332.67
496.029	8254.85
496.232	8512.89
496.436	8324.48
496.639	8617.34
496.843	8439.17
497.046	8572.29
497.249	8834.43
497.453	8994.17
497.656	8746.36
497.859	8996.21
498.063	9102.71
498.266	9301.36
498.469	9297.27
498.673	9436.53
498.876	9317.75
499.079	9510.25
499.282	9528.69
499.485	10048.87
499.689	9762.16
499.892	10038.63
500.095	10020.2
500.298	10274.15
500.501	10083.69
500.705	10517.86
500.908	10521.95
501.111	10681.69
501.314	10802.52
501.517	10769.76
501.72	11011.42
501.923	10966.36
502.126	11074.9
502.329	11482.45
502.532	11248.98
502.735	11337.04
502.938	11550.03
503.141	11748.68
503.344	12000.58
503.547	11806.03
503.75	12141.89
503.953	12334.4
504.156	12262.72
504.359	12555.58
504.562	12531.01
504.765	12942.65
504.968	13206.84
505.17	13032.76
505.373	12950.84
505.576	13542.71
505.779	13450.55
505.982	13440.31
506.185	14021.93
506.387	13669.68
506.59	13866.28
506.793	14255.4
506.996	14284.07
507.198	14753.05
507.401	14484.77
507.604	14794.01
507.807	15009.05
508.009	15125.79
508.212	15381.78
508.415	15664.4
508.617	15691.02
508.82	15815.95
509.022	15562
509.225	16090.38
509.428	15844.62
509.63	16182.54
509.833	16131.34
510.035	16864.51
510.238	16661.76
510.44	16971.01
510.643	17376.5
510.845	17521.91
511.048	17366.26
511.25	17534.2
511.453	17892.59
511.655	18380.01
511.858	18093.29
512.06	18087.15
512.262	18543.85
512.465	18476.26
512.667	18683.11
512.87	18756.83
513.072	19160.28
513.274	19301.59
513.477	19385.56
513.679	19602.64
513.881	19883.22
514.084	20155.6
514.286	20155.6
514.488	20432.07
514.69	20774.08
514.893	20808.9
515.095	20862.15
515.297	21304.51
515.499	21404.86
515.701	21458.1
515.904	21935.28
516.106	21968.05
516.308	22037.68
516.51	22359.21
516.712	22723.75
516.914	22826.15
517.116	23626.9
517.318	23162.01
517.52	23360.67
517.722	23313.56
517.925	23692.44
518.127	23745.69
518.329	24145.04
518.531	23975.06
518.733	24446.09
518.935	24630.41
519.136	24747.14
519.338	25199.74
519.54	25398.4
519.742	25408.64
519.944	25955.44
520.146	25992.31
520.348	26219.63
520.55	26606.7
520.752	26283.12
520.954	27196.51
521.155	26793.06
521.357	27432.03
521.559	27575.39
521.761	28097.62
521.963	27808.86
522.164	28048.47
522.366	28316.75
522.568	28607.56
522.77	28486.73
522.971	29113.41
523.173	28951.62
523.375	29080.64
523.576	29146.18
523.778	29113.41
523.98	29848.63
524.181	29844.54
524.383	29830.2
524.584	30530.61
524.786	30159.92
524.988	30297.14
525.189	30489.65
525.391	30684.2
525.592	30809.13
525.794	30831.66
525.995	31116.33
526.197	31210.53
526.398	31384.61
526.6	31573.02
526.801	31783.96
527.003	31794.2
527.204	32117.78
527.406	32259.09
527.607	32658.45
527.808	32629.77
528.01	32224.28
528.211	32683.02
528.412	33457.15
528.614	33317.89
528.815	33121.29
529.016	33424.39
529.218	33119.24
529.419	33176.58
529.62	33281.03
529.822	33457.15
530.023	33541.12
530.224	33324.04
530.425	33561.6
530.626	33336.32
530.828	33461.25
531.029	34259.96
531.23	33807.36
531.431	33776.64
531.632	34057.21
531.833	34059.26
532.035	34149.37
532.236	34245.62
532.437	34194.42
532.638	33979.39
532.839	34436.08
533.04	34356.21
533.241	34028.54
533.442	34780.14
533.643	34546.67
533.844	34282.48
534.045	34849.77
534.246	34388.98
534.447	34759.66
534.648	34542.58
534.849	34730.99
535.05	34503.67
535.251	34464.75
535.451	34575.34
535.652	34796.53
535.853	34687.98
536.054	34841.58
536.255	34771.95
536.456	34462.71
536.657	35234.79
536.857	34790.38
537.058	34509.81
537.259	35116.01
537.46	34679.79
537.66	34577.39
537.861	34917.36
538.062	34788.33
538.263	34894.83
538.463	34923.5
538.664	34884.59
538.865	34706.41
539.065	35032.04
539.266	34659.31
539.466	34872.3
539.667	34341.88
539.868	35091.43
540.068	34862.06
540.269	34884.59
540.469	34819.05
540.67	34952.17
540.87	34640.88
541.071	34575.34
541.271	35124.2
541.472	34939.88
541.672	34851.82
541.873	34812.91
542.073	34399.22
542.274	34878.44
542.474	34733.04
542.675	34685.93
542.875	34714.61
543.075	34675.69
543.276	34542.58
543.476	35062.76
543.676	34358.26
543.877	34806.76
544.077	34747.37
544.277	34962.41
544.478	34702.32
544.678	35044.33
544.878	34849.77
545.078	34946.03
545.279	34388.98
545.479	34511.86
545.679	34599.92
545.879	34671.6
546.079	34589.68
546.28	34505.71
546.48	34274.29
546.68	34837.48
546.88	34513.91
547.08	34534.39
547.28	34421.75
547.48	34325.49
547.68	34776.05
547.88	34528.24
548.081	34827.24
548.281	34749.42
548.481	34270.2
548.681	34890.73
548.881	34563.06
549.081	34577.39
549.28	34724.85
549.48	34681.84
549.68	34395.12
549.88	34952.17
550.08	34317.3
550.28	34640.88
550.48	34356.21
550.68	34956.27
550.88	34139.13
551.08	34520.05
551.279	34477.04
551.479	34044.92
551.679	34759.66
551.879	34198.52
552.079	34741.23
552.278	34167.8
552.478	34298.87
552.678	34227.19
552.878	34399.22
553.077	34333.68
553.277	33819.64
553.477	34540.53
553.676	33989.63
553.876	34278.39
554.076	34268.15
554.275	33969.15
554.475	33649.66
554.674	34243.57
554.874	34364.4
555.074	34022.39
555.273	33833.98
555.473	33938.43
555.672	33917.95
555.872	33881.08
556.071	33833.98
556.271	34059.26
556.47	33895.42
556.67	33561.6
556.869	33991.67
557.068	34020.34
557.268	33623.04
557.467	33510.4
557.667	33496.06
557.866	33559.55
558.065	33342.47
558.265	33526.78
558.464	33481.73
558.663	33649.66
558.863	32642.06
559.062	33780.73
559.261	32820.24
559.461	33604.61
559.66	32893.96
559.859	32902.15
560.058	32726.03
560.258	33029.13
560.457	32830.48
560.656	32723.98
560.855	32566.29
561.054	33047.56
561.253	32517.14
561.453	32670.73
561.652	32633.87
561.851	32498.7
562.05	32424.98
562.249	32463.89
562.448	32478.22
562.647	32263.19
562.846	32164.89
563.045	32289.81
563.244	31693.85
563.443	32105.49
563.642	31738.91
563.841	32295.96
564.04	31874.07
564.239	31867.93
564.438	31751.2
564.637	31566.88
564.836	31450.14
565.035	31380.51
565.234	31493.15
565.432	30932.01
565.631	31034.41
565.83	31288.35
566.029	31003.69
566.228	30805.03
566.427	31124.52
566.625	30530.61
566.824	30153.78
567.023	30643.24
567.222	29963.32
567.42	30624.81
567.619	30583.85
567.818	30497.84
568.016	30241.84
568.215	30587.95
568.414	30266.42
568.612	30346.29
568.811	30155.83
569.01	30131.25
569.208	29854.78
569.407	29932.6
569.605	29482.05
569.804	29658.17
570.002	29125.7
570.201	29520.96
570.4	29172.8
570.598	29103.17
570.797	28972.1
570.995	29006.92
571.193	28859.46
571.392	29199.43
571.59	28838.98
571.789	29099.08
571.987	28572.75
572.186	28689.48
572.384	28531.79
572.582	28908.61
572.781	28671.05
572.979	28197.97
573.177	27835.48
573.376	28431.44
573.574	28288.08
573.772	27917.4
573.971	27968.6
574.169	27851.86
574.367	27591.77
574.565	28001.36
574.763	27661.4
574.962	27300.96
575.16	27124.83
575.358	27636.83
575.556	27126.88
575.754	27602.01
575.952	26799.21
576.151	27337.82
576.349	26860.65
576.547	26748.01
576.745	27010.15
576.943	27024.48
577.141	26895.46
577.339	26731.62
577.537	26639.47
577.735	26434.67
577.933	26395.76
578.131	26360.94
578.329	26426.48
578.527	26106.99
578.725	26272.88
578.923	26375.28
579.121	25986.16
579.319	26102.9
579.516	26053.75
579.714	25668.73
579.912	25562.23
580.11	25799.8
580.308	25773.17
580.506	25625.72
580.704	25199.74
580.901	25519.23
581.099	25597.05
581.297	25240.7
581.495	25113.73
581.692	25558.14
581.89	25027.71
582.088	25345.15
582.285	24806.53
582.483	24904.84
582.681	24931.46
582.878	24855.68
583.076	24714.37
583.274	25021.57
583.471	24380.56
583.669	24450.19
583.866	24585.35
584.064	24622.22
584.262	24233.1
584.459	24229.01
584.657	24171.66
584.854	24177.81
585.052	24013.97
585.249	24095.89
585.447	24241.29
585.644	23573.66
585.841	23917.72
586.039	23917.72
586.236	23532.7
586.434	23405.72
586.631	23606.42
586.828	23424.15
587.026	23487.64
587.223	23110.82
587.42	23375
587.618	23368.86
587.815	23184.54
588.012	22897.83
588.21	23256.22
588.407	23237.79
588.604	22899.87
588.801	22875.3
588.999	22840.48
589.196	22613.16
589.393	22672.55
589.59	22729.89
589.787	22387.88
589.984	22375.59
590.182	22203.57
590.379	22549.67
590.576	21871.79
590.773	22219.95
590.97	22043.82
591.167	22105.26
591.364	21963.95
591.561	22285.48
591.758	21879.99
591.955	21779.64
592.152	21740.72
592.349	21851.31
592.546	21671.09
592.743	21630.13
592.94	21298.36
593.137	21617.85
593.334	21765.3
593.531	20982.98
593.727	21152.96
593.924	21374.14
594.121	21052.61
594.318	21052.61
594.515	20856
594.712	21138.62
594.908	20812.99
595.105	21056.7
595.302	20595.91
595.499	20827.33
595.696	20784.32
595.892	20597.96
596.089	20632.77
596.286	20534.47
596.482	20329.67
596.679	20202.7
596.876	20335.82
597.072	19944.66
597.269	20137.16
597.466	20124.88
597.662	20051.15
597.859	19956.94
598.055	19926.22
598.252	19746
598.448	19889.36
598.645	19723.48
598.841	19719.38
599.038	19674.32
599.234	19551.45
599.431	19459.29
599.627	19397.85
599.824	19533.01
600.02	19236.06
600.217	19451.1
600.413	18916.58
600.609	19096.8
600.806	18973.92
601.002	19074.27
601.198	18875.62
601.395	18863.33
601.591	18693.35
601.787	18791.65
601.984	18863.33
602.18	18953.44
602.376	18439.4
602.572	18640.1
602.769	18715.87
602.965	18253.03
603.161	18525.41
603.357	18363.62
603.553	18341.1
603.75	18398.44
603.946	18175.21
604.142	18328.81
604.338	18017.52
604.534	18183.4
604.73	17954.03
604.926	17984.75
605.122	18023.66
605.318	17894.64
605.514	17839.34
605.71	17913.07
605.906	17806.58
606.102	17765.62
606.298	17681.65
606.494	17493.24
606.69	17542.39
606.886	17480.95
607.082	17243.38
607.278	17145.08
607.474	17159.42
607.67	17458.42
607.866	16962.81
608.062	17270.01
608.257	17067.26
608.453	17028.35
608.649	16956.67
608.845	17102.08
609.041	17110.27
609.236	17200.38
609.432	17011.96
609.628	17032.44
609.824	16801.02
610.019	16553.22
610.215	16661.76
610.411	16745.73
610.606	16536.84
610.802	16213.26
610.998	16747.78
611.193	16655.62
611.389	16397.57
611.584	16399.62
611.78	16317.7
611.976	16346.37
612.171	16440.58
612.367	16334.09
612.562	16407.81
612.758	16028.94
612.953	16106.76
613.149	16424.2
613.344	16084.23
613.539	16358.66
613.735	15983.88
613.93	16315.66
614.126	16063.75
614.321	16012.56
614.517	16022.8
614.712	15877.39
614.907	16012.56
615.103	16039.18
615.298	15942.92
615.493	15922.45
615.688	15607.06
615.884	16166.15
616.079	15691.02
616.274	15830.29
616.47	15746.32
616.665	15744.27
616.86	15562
617.055	15437.08
617.25	15430.93
617.445	15570.19
617.641	15213.85
617.836	15654.16
618.031	15271.19
618.226	15355.16
618.421	15154.46
618.616	15439.12
618.811	15127.83
619.006	15209.75
619.201	14769.44
619.396	15058.2
619.591	14697.76
619.786	14961.95
619.981	14560.55
620.176	14839.07
620.371	14578.98
620.566	14572.83
620.761	14595.36
620.956	14703.9
621.151	14210.34
621.346	14593.31
621.541	14222.63
621.735	14615.84
621.93	13884.72
622.125	14247.21
622.32	13710.64
622.515	14066.99
622.709	13921.58
622.904	14036.27
623.099	13751.6
623.294	13872.43
623.488	13577.52
623.683	13757.74
623.878	13348.15
624.072	13538.61
624.267	13532.47
624.462	13423.92
624.656	13258.04
624.851	13180.21
625.046	13194.55
625.24	13047.1
625.435	12965.18
625.629	12885.31
625.824	12977.47
626.018	12926.27
626.213	12627.26
626.407	12610.88
626.602	12498.24
626.796	12473.67
626.991	12451.14
627.185	12461.38
627.38	12262.72
627.574	12139.85
627.768	12309.83
627.963	12186.95
628.157	12129.61
628.352	12084.55
628.546	11803.98
628.74	11912.52
628.935	11720.01
629.129	11787.6
629.323	11568.46
629.517	11771.21
629.712	11355.47
629.906	11486.54
630.1	11384.15
630.294	11416.91
630.489	11263.32
630.683	11273.56
630.877	11083.09
631.071	11025.75
631.265	11173.21
631.459	10945.88
631.653	10958.17
631.848	11103.57
632.042	10952.02
632.236	10833.24
632.43	10577.25
632.624	10693.98
632.818	10607.97
633.012	10466.66
633.206	10650.97
633.4	10587.49
633.594	10286.44
633.788	10540.38
633.982	10452.32
634.176	10448.22
634.369	10167.65
634.563	10159.46
634.757	10052.97
634.951	10159.46
635.145	10079.59
635.339	10009.96
635.533	9938.28
635.726	9985.38
635.92	9848.17
636.114	9651.56
636.308	9837.93
636.501	9653.61
636.695	9610.61
636.889	9428.34
637.083	9444.72
637.276	9407.86
637.47	9393.52
637.664	9497.97
637.857	9198.96
638.051	9274.74
638.244	8942.97
638.438	9112.95
638.632	9143.67
638.825	9010.55
639.019	9065.85
639.212	8854.9
639.406	9088.37
639.599	8889.72
639.793	8908.15
639.986	8775.03
640.18	8697.21
640.373	8883.58
640.567	8576.38
640.76	8623.48
640.954	8512.89
641.147	8312.19
641.34	8461.69
641.534	8492.41
641.727	8279.43
641.92	8330.62
642.114	8344.96
642.307	8234.37
642.5	8134.02
642.694	7937.41
642.887	8000.9
643.08	8228.23
643.273	8166.79
643.467	8205.7
643.66	7722.38
643.853	7906.7
644.046	7845.26
644.239	7619.98
644.432	7693.71
644.626	7677.32
644.819	7744.91
645.012	7767.43
645.205	7652.75
645.398	7579.02
645.591	7662.99
645.784	7630.22
645.977	7427.47
646.17	7472.53
646.363	7216.53
646.556	7173.52
646.749	7345.55
646.942	7116.18
647.135	7107.99
647.328	7222.67
647.521	7050.64
647.714	7009.69
647.907	6991.25
648.099	7034.26
648.292	7067.03
648.485	6987.16
648.678	6909.33
648.871	6765.98
649.064	6796.7
649.256	6811.03
649.449	6974.87
649.642	6645.15
649.835	6600.09
650.027	6552.99
650.22	6620.57
650.413	6692.25
650.605	6802.84
650.798	6452.64
650.991	6600.09
651.183	6561.18
651.376	6565.28
651.568	6464.93
651.761	6358.43
651.954	6284.7
652.146	6370.72
652.339	6340
652.531	6256.03
652.724	6192.55
652.916	6149.54
653.109	6184.35
653.301	6225.31
653.494	6200.74
653.686	6053.28
653.879	6186.4
654.071	6055.33
654.263	5860.77
654.456	6063.52
654.648	6012.32
654.84	5819.82
655.033	5756.33
655.225	5830.06
655.417	5809.58
655.61	5832.1
655.802	5678.51
655.994	5809.58
656.186	5778.86
656.379	5891.49
656.571	5580.2
656.763	5584.3
656.955	5543.34
657.148	5658.03
657.34	5641.64
657.532	5551.53
657.724	5549.48
657.916	5473.71
658.108	5252.53
658.3	5461.42
658.492	5457.32
658.684	5352.88
658.876	5377.45
659.068	5420.46
659.26	5201.33
659.452	5215.66
659.644	5279.15
659.836	5270.96
660.028	5363.12
660.22	5074.35
660.412	5230
660.604	5158.32
660.796	5133.75
660.988	5162.42
661.18	5035.44
661.372	4879.8
661.563	4978.1
661.755	4904.37
661.947	4943.28
662.139	4890.04
662.331	4908.47
662.522	4953.52
662.714	4967.86
662.906	4670.9
663.097	4763.06
663.289	4591.03
663.481	4715.96
663.673	4705.72
663.864	4675
664.056	4601.27
664.247	4799.93
664.439	4681.14
664.631	4675
664.822	4738.49
665.014	4838.84
665.205	4605.37
665.397	4648.38
665.588	4517.31
665.78	4507.07
665.971	4621.75
666.163	4558.27
666.354	4621.75
666.546	4431.29
666.737	4353.47
666.929	4498.88
667.12	4453.82
667.311	4425.15
667.503	4427.2
667.694	4470.2
667.885	4382.14
668.077	4388.29
668.268	4480.44
668.459	4341.18
668.651	4314.56
668.842	4339.13
669.033	4224.45
669.224	4285.89
669.416	4388.29
669.607	4275.65
669.798	4310.46
669.989	4343.23
670.18	4085.19
670.371	4175.3
670.563	4238.78
670.754	4146.62
670.945	4160.96
671.136	4158.91
671.327	4146.62
671.518	4187.58
671.709	4136.38
671.9	4201.92
672.091	4181.44
672.282	4062.66
672.473	4031.94
672.664	4210.11
672.855	4070.85
673.046	4101.57
673.237	4144.58
673.428	4105.67
673.619	3927.49
673.809	4167.1
674	4101.57
674.191	4115.91
674.382	3950.02
674.573	4140.48
674.764	4117.95
674.954	4154.82
675.145	4060.61
675.336	4120
675.527	4048.32
675.717	3986.88
675.908	4046.27
676.099	3990.98
676.289	4048.32
676.48	4003.27
676.671	3915.2
676.861	3939.78
677.052	4167.1
677.243	3909.06
677.433	4101.57
677.624	4210.11
677.814	4249.02
678.005	4054.47
678.195	4109.76
678.386	4105.67
678.576	3872.2
678.767	4046.27
678.957	3956.16
679.148	4068.8
679.338	4011.46
679.529	4095.43
679.719	3995.08
679.909	4199.87
680.1	3974.6
680.29	3997.12
680.481	3956.16
680.671	4062.66
680.861	4025.79
681.052	4117.95
681.242	3931.59
681.432	4050.37
681.622	3896.77
681.813	4103.62
682.003	4007.36
682.193	3954.12
682.383	4117.95
682.573	4115.91
682.764	3890.63
682.954	4013.51
683.144	4076.99
683.334	4052.42
683.524	3984.84
683.714	4203.97
683.904	4029.89
684.094	4058.56
684.284	4076.99
684.474	4068.8
684.664	3995.08
684.854	4109.76
685.044	3995.08
685.234	4033.99
685.424	4003.27
685.614	3929.54
685.804	3890.63
685.994	3945.92
686.184	3939.78
686.374	3974.6
686.564	3962.31
686.753	3937.73
686.943	3751.37
687.133	3765.7
687.323	3855.81
687.513	3724.74
687.702	3696.07
687.892	3794.37
688.082	3849.67
688.272	3970.5
688.461	3780.04
688.651	3782.09
688.841	3675.59
689.03	3730.89
689.22	3640.78
689.41	3765.7
689.599	3579.34
689.789	3681.74
689.979	3620.3
690.168	3581.39
690.358	3661.26
690.547	3503.56
690.737	3671.5
690.926	3481.03
691.116	3483.08
691.305	3610.06
691.495	3384.78
691.684	3532.23
691.874	3384.78
692.063	3460.56
692.252	3427.79
692.442	3472.84
692.631	3241.42
692.82	3376.59
693.01	3374.54
693.199	3315.15
693.388	3225.04
693.578	3339.73
693.767	3257.81
693.956	3237.33
694.146	3220.94
694.335	3124.69
694.524	3220.94
694.713	3177.94
694.902	3155.41
695.092	3055.06
695.281	3249.61
695.47	3165.65
695.659	3210.7
695.848	3055.06
696.037	3145.17
696.226	3268.05
696.415	3083.73
696.604	3253.71
696.793	3184.08
696.982	3161.55
697.171	3124.69
697.36	3065.3
697.549	3130.83
697.738	3167.7
697.927	3065.3
698.116	3089.87
698.305	3016.15
698.494	3096.02
698.683	3087.82
698.872	3091.92
699.061	3184.08
699.25	3042.77
699.438	3114.45
699.627	3028.43
699.816	3337.68
700.005	3089.87
700.193	3100.11
700.382	3073.49
700.571	3069.39
700.76	3044.82
700.948	3106.26
701.137	3116.5
701.326	3134.93
701.514	3116.5
701.703	3024.34
701.892	3136.98
702.08	3018.19
702.269	3186.13
702.457	3210.7
702.646	3104.21
702.834	3012.05
703.023	3077.59
703.212	3151.31
703.4	3153.36
703.589	2969.04
703.777	3153.36
703.965	3016.15
704.154	3010
704.342	3126.74
704.531	2962.9
704.719	2954.71
704.907	3192.27
705.096	3040.72
705.284	3229.13
705.472	3161.55
705.661	3218.89
705.849	3155.41
706.037	3165.65
706.226	3196.37
706.414	3110.35
706.602	3022.29
706.79	3167.7
706.979	3104.21
707.167	3116.5
707.355	3014.1
707.543	3114.45
707.731	3077.59
707.919	3098.06
708.107	3091.92
708.296	3143.12
708.484	3069.39
708.672	3251.66
708.86	3249.61
709.048	3298.77
709.236	3042.77
709.424	3124.69
709.612	3327.44
709.8	3110.35
709.988	3210.7
710.176	3061.2
710.364	3302.86
710.551	3294.67
710.739	3298.77
710.927	3278.29
711.115	3266
711.303	3276.24
711.491	3233.23
711.679	3206.61
711.866	3339.73
712.054	3257.81
712.242	3212.75
712.43	3290.57
712.617	3251.66
712.805	3364.3
712.993	3323.34
713.181	3313.1
713.368	3413.45
713.556	3429.84
713.744	3331.53
713.931	3452.36
714.119	3345.87
714.306	3288.53
714.494	3368.4
714.682	3454.41
714.869	3386.83
715.057	3421.64
715.244	3225.04
715.432	3331.53
715.619	3438.03
715.807	3524.04
715.994	3317.2
716.182	3272.14
716.369	3376.59
716.556	3528.14
716.744	3485.13
716.931	3364.3
717.119	3556.81
717.306	3491.27
717.493	3622.34
717.681	3390.92
717.868	3440.08
718.055	3595.72
718.242	3593.67
718.43	3651.02
718.617	3556.81
718.804	3603.91
718.991	3536.33
719.179	3591.63
719.366	3554.76
719.553	3485.13
719.74	3569.1
719.927	3497.42
720.114	3536.33
720.301	3524.04
720.488	3540.43
720.676	3552.71
720.863	3601.87
721.05	3710.41
721.237	3501.51
721.424	3622.34
721.611	3657.16
721.798	3634.63
721.985	3515.85
722.172	3548.62
722.358	3532.23
722.545	3532.23
722.732	3515.85
722.919	3747.27
723.106	3640.78
723.293	3612.1
723.48	3620.3
723.667	3665.35
723.853	3696.07
724.04	3749.32
724.227	3655.11
724.414	3628.49
724.6	3712.46
724.787	3648.97
724.974	3743.17
725.161	3667.4
725.347	3608.01
725.534	3864.01
725.72	3806.66
725.907	3714.5
726.094	3790.28
726.28	3716.55
726.467	3689.93
726.653	3702.22
726.84	3741.13
727.027	3870.15
727.213	3753.41
727.4	3747.27
727.586	3810.76
727.773	3718.6
727.959	3872.2
728.145	3818.95
728.332	3720.65
728.518	3786.18
728.705	3913.16
728.891	3855.81
729.077	3620.3
729.264	3749.32
729.45	3825.09
729.636	3917.25
729.823	3866.05
730.009	3837.38
730.195	3823.05
730.382	3943.88
730.568	3831.24
730.754	3956.16
730.94	3847.62
731.126	3886.53
731.313	3874.24
731.499	3814.85
731.685	3837.38
731.871	3874.24
732.057	3886.53
732.243	4015.55
732.429	3784.13
732.615	3999.17
732.801	3902.92
732.987	4003.27
733.173	3816.9
733.359	3925.44
733.545	3888.58
733.731	3831.24
733.917	3956.16
734.103	3904.96
734.289	4019.65
734.475	3952.07
734.661	3835.33
734.847	3886.53
735.033	3923.4
735.219	4068.8
735.404	3829.19
735.59	3933.64
735.776	3835.33
735.962	3937.73
736.148	3890.63
736.333	3829.19
736.519	3794.37
736.705	3976.64
736.89	3831.24
737.076	3866.05
737.262	3757.51
737.447	3898.82
737.633	3835.33
737.819	3859.91
738.004	3941.83
738.19	3945.92
738.375	3818.95
738.561	3892.68
738.747	3855.81
738.932	3724.74
739.118	3888.58
739.303	3831.24
739.489	3749.32
739.674	3608.01
739.859	3749.32
740.045	3734.98
740.23	3831.24
740.416	3706.31
740.601	3849.67
740.786	3714.5
740.972	3808.71
741.157	3626.44
741.342	3636.68
741.528	3724.74
741.713	3743.17
741.898	3743.17
742.084	3567.05
742.269	3749.32
742.454	3761.61
742.639	3681.74
742.824	3487.18
743.01	3528.14
743.195	3708.36
743.38	3468.75
743.565	3581.39
743.75	3651.02
743.935	3499.47
744.12	3610.06
744.305	3489.23
744.49	3505.61
744.675	3485.13
744.86	3349.96
745.045	3528.14
745.23	3546.57
745.415	3503.56
745.6	3495.37
745.785	3386.83
745.97	3526.09
746.155	3464.65
746.34	3382.73
746.525	3249.61
746.71	3448.27
746.895	3370.44
747.079	3216.85
747.264	3309.01
747.449	3309.01
747.634	3331.53
747.819	3175.89
748.003	3114.45
748.188	3065.3
748.373	3139.02
748.557	3098.06
748.742	3136.98
748.927	3155.41
749.111	3065.3
749.296	3042.77
749.481	3044.82
749.665	3010
749.85	3065.3
750.034	3007.95
750.219	2999.76
750.404	2801.11
750.588	2833.88
750.773	2942.42
750.957	3038.67
751.141	2897.36
751.326	2850.26
751.51	2717.14
751.695	2762.2
751.879	2596.31
752.064	2946.52
752.248	2786.77
752.432	2647.51
752.617	2756.05
752.801	2672.09
752.985	2696.66
753.17	2581.98
753.354	2635.22
753.538	2647.51
753.722	2584.02
753.907	2631.13
754.091	2612.7
754.275	2495.96
754.459	2561.5
754.643	2487.77
754.828	2631.13
755.012	2573.78
755.196	2348.51
755.38	2399.71
755.564	2381.28
755.748	2399.71
755.932	2340.32
756.116	2403.8
756.3	2403.8
756.484	2250.21
756.668	2438.62
756.852	2151.9
757.036	2266.59
757.22	2270.69
757.404	2225.63
757.588	2338.27
757.772	2295.26
757.956	2254.3
758.14	2156
758.323	2115.04
758.507	2110.94
758.691	2151.9
758.875	2172.38
759.059	2156
759.242	2012.64
759.426	2006.5
759.61	2135.52
759.794	2069.98
759.977	2069.98
760.161	2143.71
760.345	1957.35
760.528	2039.26
760.712	1983.97
760.895	1904.1
761.079	1955.3
761.263	1955.3
761.446	2002.4
761.63	1977.83
761.813	2043.36
761.997	1902.05
762.18	1838.56
762.364	1869.28
762.547	1816.04
762.731	1922.53
762.914	1805.8
763.098	1893.86
763.281	1813.99
763.464	1828.32
763.648	1828.32
763.831	1775.08
764.015	1752.55
764.198	1775.08
764.381	1711.59
764.564	1760.74
764.748	1672.68
764.931	1754.6
765.114	1744.36
765.297	1785.32
765.481	1715.69
765.664	1689.06
765.847	1709.54
766.03	1687.01
766.213	1691.11
766.397	1687.01
766.58	1582.57
766.763	1711.59
766.946	1658.34
767.129	1662.44
767.312	1598.95
767.495	1687.01
767.678	1603.05
767.861	1627.62
768.044	1693.16
768.227	1494.51
768.41	1578.47
768.593	1615.34
768.776	1619.43
768.959	1631.72
769.142	1537.51
769.324	1504.75
769.507	1547.75
769.69	1588.71
769.873	1644.01
770.056	1578.47
770.239	1564.14
770.421	1564.14
770.604	1433.07
770.787	1525.22
770.97	1496.55
771.152	1562.09
771.335	1412.59
771.518	1373.68
771.7	1365.48
771.883	1408.49
772.066	1406.44
772.248	1484.27
772.431	1437.16
772.613	1377.77
772.796	1345
772.978	1422.83
773.161	1467.88
773.343	1377.77
773.526	1332.72
773.708	1242.61
773.891	1369.58
774.073	1314.28
774.256	1390.06
774.438	1406.44
774.621	1324.52
774.803	1283.56
774.985	1312.24
775.168	1359.34
775.35	1218.03
775.532	1289.71
775.715	1199.6
775.897	1258.99
776.079	1185.26
776.261	1197.55
776.444	1297.9
776.626	1201.65
776.808	1097.2
776.99	1070.58
777.173	1150.45
777.355	1072.62
777.537	1127.92
777.719	1084.91
777.901	1013.23
778.083	1023.47
778.265	1086.96
778.447	1148.4
778.629	1070.58
778.811	1074.67
778.993	1070.58
779.175	1007.09
779.357	1066.48
779.539	1007.09
779.721	982.51
779.903	1025.52
780.085	1031.66
780.267	1097.2
780.449	992.75
780.631	1043.95
780.812	947.7
780.994	933.36
781.176	916.98
781.358	929.27
781.54	943.6
781.721	962.03
781.903	986.61
782.085	900.59
782.267	982.51
782.448	859.63
782.63	857.59
782.812	986.61
782.993	867.83
783.175	902.64
783.357	835.06
783.538	921.07
783.72	857.59
783.901	841.2
784.083	876.02
784.264	869.87
784.446	751.09
784.627	747
784.809	849.4
784.99	701.94
785.172	820.72
785.353	830.96
785.535	808.44
785.716	740.85
785.897	691.7
786.079	779.76
786.26	796.15
786.441	802.29
786.623	660.98
786.804	769.52
786.985	630.26
787.167	673.27
787.348	736.76
787.529	658.93
787.71	736.76
787.891	728.56
788.073	620.02
788.254	611.83
788.435	808.44
788.616	706.04
788.797	613.88
788.978	710.13
789.159	706.04
789.34	638.45
789.522	671.22
789.703	663.03
789.884	591.35
790.065	638.45
790.246	620.02
790.427	556.54
790.607	587.26
790.788	572.92
790.969	591.35
791.15	591.35
791.331	527.86
791.512	529.91
791.693	574.97
791.874	583.16
792.054	574.97
792.235	570.87
792.416	534.01
792.597	550.39
792.778	620.02
792.958	628.21
793.139	540.15
793.32	517.62
793.5	564.73
793.681	550.39
793.862	611.83
794.042	454.14
794.223	423.42
794.404	542.2
794.584	519.67
794.765	517.62
794.945	538.1
795.126	570.87
795.306	491
795.487	529.91
795.667	538.1
795.848	425.47
796.028	450.04
796.209	431.61
796.389	523.77
796.57	394.75
796.75	427.51
796.93	447.99
797.111	439.8
797.291	435.71
797.471	454.14
797.652	433.66
797.832	466.42
798.012	497.14
798.192	404.99
798.373	396.79
798.553	544.25
798.733	417.27
798.913	447.99
799.093	407.03
799.274	390.65
799.454	359.93
799.634	431.61
799.814	407.03
799.994	484.86
800.174	435.71
800.354	435.71
800.534	407.03
800.714	400.89
800.894	374.27
801.074	370.17
801.254	364.03
801.434	472.57
801.614	425.47
801.794	378.36
801.974	1322.48
802.154	392.7
802.334	415.23
802.514	427.51
802.693	445.95
802.873	345.59
803.053	402.94
803.233	413.18
803.413	386.55
803.592	290.3
803.772	376.31
803.952	327.16
804.131	267.77
804.311	441.85
804.491	333.31
804.67	316.92
804.85	366.07
805.03	374.27
805.209	333.31
805.389	316.92
805.568	427.51
805.748	349.69
805.928	304.64
806.107	310.78
806.287	407.03
806.466	333.31
806.646	321.02
806.825	347.64
807.004	275.96
807.184	349.69
807.363	339.45
807.543	312.83
807.722	224.76
807.901	296.44
808.081	329.21
808.26	228.86
808.439	284.16
808.619	355.83
808.798	280.06
808.977	329.21
809.156	290.3
809.336	288.25
809.515	345.59
809.694	235
809.873	263.68
810.052	368.12
810.231	331.26
810.411	273.92
810.59	357.88
810.769	216.57
810.948	257.53
811.127	237.05
811.306	290.3
811.485	222.72
811.664	327.16
811.843	294.4
812.022	288.25
812.201	255.48
812.38	300.54
812.559	218.62
812.737	294.4
812.916	189.95
813.095	179.71
813.274	265.72
813.453	204.28
813.632	304.64
813.811	243.2
813.989	241.15
814.168	220.67
814.347	327.16
814.526	263.68
814.704	282.11
814.883	333.31
815.062	267.77
815.24	243.2
815.419	196.09
815.598	243.2
815.776	181.76
815.955	177.66
816.133	112.13
816.312	237.05
816.49	216.57
816.669	218.62
816.847	228.86
817.026	275.96
817.204	220.67
817.383	192
817.561	110.08
817.74	177.66
817.918	273.92
818.097	235
818.275	171.52
818.453	259.58
818.632	171.52
818.81	245.24
818.988	194.05
819.167	212.48
819.345	278.01
819.523	235
819.701	210.43
819.879	181.76
820.058	210.43
820.236	202.24
820.414	179.71
820.592	179.71
820.77	120.32
820.948	210.43
821.127	200.19
821.305	230.91
821.483	89.6
821.661	259.58
821.839	202.24
822.017	153.09
822.195	142.85
822.373	261.63
822.551	189.95
822.729	202.24
822.907	138.75
823.085	185.85
823.262	120.32
823.44	202.24
823.618	169.47
823.796	157.18
823.974	65.02
824.152	148.99
824.329	192
824.507	275.96
824.685	265.72
824.863	118.27
825.04	128.51
825.218	183.81
825.396	204.28
825.574	220.67
825.751	177.66
825.929	218.62
826.107	140.8
826.284	134.65
826.462	241.15
826.639	130.56
826.817	210.43
826.994	194.05
827.172	120.32
827.349	321.02
827.527	198.14
827.704	122.37
827.882	155.13
828.059	112.13
828.237	95.74
828.414	157.18
828.591	73.21
828.769	159.23
828.946	155.13
829.124	136.7
829.301	126.46
829.478	171.52
829.655	136.7
829.833	108.03
830.01	22.02
830.187	206.33
830.364	81.41
830.542	118.27
830.719	136.7
830.896	124.41
831.073	194.05
831.25	99.84
831.427	155.13
831.604	128.51
831.782	42.5
831.959	204.28
832.136	97.79
832.313	116.22
832.49	136.7
832.667	144.89
832.844	81.41
833.021	218.62
833.198	116.22
833.374	167.42
833.551	177.66
833.728	65.02
833.905	235
834.082	46.59
834.259	99.84
834.436	194.05
834.612	128.51
834.789	128.51
834.966	153.09
835.143	136.7
835.319	155.13
835.496	192
835.673	194.05
835.85	181.76
836.026	108.03
836.203	196.09
836.38	54.78
836.556	93.69
836.733	67.07
836.909	114.17
837.086	118.27
837.262	118.27
837.439	112.13
837.616	112.13
837.792	95.74
837.968	120.32
838.145	50.69
838.321	-2.56
838.498	124.41
838.674	163.33
838.851	112.13
839.027	81.41
839.203	75.26
839.38	136.7
839.556	60.93
839.732	130.56
839.909	32.26
840.085	62.98
840.261	67.07
840.437	108.03
840.614	101.89
840.79	136.7
840.966	136.7
841.142	62.98
841.318	24.06
841.494	214.52
841.671	122.37
841.847	32.26
842.023	5.63
842.199	79.36
842.375	140.8
842.551	81.41
842.727	93.69
842.903	134.65
843.079	58.88
843.255	122.37
843.431	144.89
843.607	134.65
843.783	54.78
843.959	40.45
844.134	-29.18
844.31	169.47
844.486	108.03
844.662	65.02
844.838	56.83
845.013	95.74
845.189	65.02
845.365	105.98
845.541	116.22
845.716	136.7
845.892	91.65
846.068	-0.51
846.244	17.92
846.419	112.13
846.595	46.59
846.77	30.21
846.946	65.02
847.122	85.5
847.297	48.64
847.473	120.32
847.648	17.92
847.824	120.32
847.999	-18.94
848.175	130.56
848.35	116.22
848.526	97.79
848.701	103.93
848.876	153.09
849.052	134.65
849.227	44.54
849.403	69.12
849.578	83.45
849.753	122.37
849.929	95.74
850.104	-23.04
850.279	112.13
850.454	103.93
850.63	128.51
850.805	62.98
850.98	67.07
851.155	103.93
851.33	69.12
851.505	13.82
851.681	69.12
851.856	62.98
852.031	52.74
852.206	171.52
852.381	22.02
852.556	-8.7
852.731	116.22
852.906	87.55
853.081	116.22
853.256	105.98
853.431	46.59
853.606	65.02
853.781	52.74
853.956	-2.56
854.131	46.59
854.305	87.55
854.48	15.87
854.655	65.02
854.83	112.13
855.005	1.54
855.18	75.26
855.354	60.93
855.529	52.74
855.704	40.45
855.879	22.02
856.053	79.36
856.228	75.26
856.403	-57.86
856.577	91.65
856.752	-2.56
856.926	83.45
857.101	91.65
857.276	99.84
857.45	44.54
857.625	54.78
857.799	62.98
857.974	101.89
858.148	19.97
858.323	62.98
858.497	22.02
858.672	44.54
858.846	-14.85
859.02	101.89
859.195	-10.75
859.369	26.11
859.543	91.65
859.718	40.45
859.892	46.59
860.066	9.73
860.241	48.64
860.415	-4.61
860.589	60.93
860.763	69.12
860.938	22.02
861.112	69.12
861.286	9.73
861.46	73.21
861.634	42.5
861.808	30.21
861.982	85.5
862.157	32.26
862.331	-66.05
862.505	108.03
862.679	34.3
862.853	9.73
863.027	1.54
863.201	67.07
863.375	99.84
863.549	77.31
863.722	116.22
863.896	116.22
864.07	40.45
864.244	126.46
864.418	58.88
864.592	73.21
864.766	28.16
864.939	50.69
865.113	28.16
865.287	87.55
865.461	-14.85
865.634	-4.61
865.808	5.63
865.982	99.84
866.156	83.45
866.329	105.98
866.503	67.07
866.676	118.27
866.85	67.07
867.024	36.35
867.197	138.75
867.371	105.98
867.544	81.41
867.718	-12.8
867.891	87.55
868.065	7.68
868.238	26.11
868.412	75.26
868.585	38.4
868.759	-2.56
868.932	87.55
869.105	26.11
869.279	17.92
869.452	34.3
869.625	48.64
869.799	-4.61
869.972	52.74
870.145	79.36
870.319	79.36
870.492	30.21
870.665	40.45
870.838	62.98
871.011	-4.61
871.185	46.59
871.358	15.87
871.531	46.59
871.704	87.55
871.877	19.97
872.05	-51.71
872.223	17.92
872.396	77.31
872.569	-18.94
872.742	32.26
872.915	126.46
873.088	15.87
873.261	40.45
873.434	24.06
873.607	34.3
873.78	73.21
873.953	-8.7
874.126	15.87
874.299	-23.04
874.471	-20.99
874.644	79.36
874.817	56.83
874.99	81.41
875.163	17.92
875.335	-10.75
875.508	83.45
875.681	30.21
875.853	87.55
876.026	7.68
876.199	38.4
876.371	36.35
876.544	42.5
876.717	30.21
876.889	54.78
877.062	95.74
877.234	-4.61
877.407	46.59
877.579	-18.94
877.752	112.13
877.924	24.06
878.097	22.02
878.269	26.11
878.442	65.02
878.614	79.36
878.786	91.65
878.959	38.4
879.131	-6.66
879.303	-18.94
879.476	9.73
879.648	46.59
879.82	114.17
879.993	3.58
880.165	-14.85
880.337	-16.9
880.509	42.5
880.681	-31.23
880.854	-0.51
881.026	-10.75
881.198	130.56
881.37	54.78
881.542	15.87
881.714	-10.75
881.886	9.73
882.058	42.5
882.23	-0.51
882.402	73.21
882.574	87.55
882.746	17.92
882.918	69.12
883.09	118.27
883.262	13.82
883.434	97.79
883.606	-27.14
883.778	24.06
883.95	89.6
884.122	11.78
884.293	105.98
884.465	40.45
884.637	60.93
884.809	52.74
884.98	24.06
885.152	89.6
885.324	5.63
885.496	-6.66
885.667	-27.14
885.839	-10.75
886.011	71.17
886.182	56.83
886.354	62.98
886.525	7.68
886.697	7.68
886.869	60.93
887.04	15.87
887.212	157.18
887.383	75.26
887.555	22.02
887.726	-8.7
887.897	-64
888.069	-0.51
888.24	65.02
888.412	-64
888.583	5.63
888.754	3.58
888.926	-47.62
889.097	67.07
889.268	-0.51
889.44	1.54
889.611	-18.94
889.782	-25.09
889.953	-12.8
890.125	75.26
890.296	24.06
890.467	-27.14
890.638	-33.28
890.809	-25.09
890.98	30.21
891.151	44.54
891.323	15.87
891.494	-6.66
891.665	-25.09
891.836	17.92
892.007	38.4
892.178	7.68
892.349	69.12
892.52	-2.56
892.691	65.02
892.862	30.21
893.032	-2.56
893.203	-27.14
893.374	-6.66
893.545	79.36
893.716	-16.9
893.887	79.36
894.057	5.63
894.228	26.11
894.399	-64
894.57	48.64
894.74	-8.7
894.911	30.21
895.082	1.54
895.253	-0.51
895.423	-53.76
895.594	-4.61
895.764	22.02
895.935	-6.66
896.106	7.68
896.276	-33.28
896.447	44.54
896.617	-23.04
896.788	79.36
896.958	-6.66
897.129	5.63
897.299	67.07
897.47	34.3
897.64	13.82
897.81	38.4
897.981	38.4
898.151	-10.75
898.322	5.63
898.492	52.74
898.662	32.26
898.832	17.92
899.003	11.78
899.173	-18.94
899.343	46.59
899.513	-72.19
