Data from USB4F104151__1__13-04-07-172.txt Node

Date: Fri Mar 14 13:04:07 EDT 2025
User: louis
Spectrometer: USB4F10415
Trigger mode: 4
Integration Time (sec): 4.000000E-2
Scans to average: 1
Electric dark correction enabled: true
Nonlinearity correction enabled: false
Boxcar width: 0
XAxis mode: Wavelengths
Number of Pixels in Spectrum: 3648
>>>>>Begin Spectral Data<<<<<
178.204	-120.32
178.424	-120.32
178.644	-120.32
178.864	-192
179.084	-159.23
179.304	14.85
179.524	45.57
179.744	29.18
179.964	18.94
180.184	55.81
180.404	20.99
180.624	57.86
180.844	-67.07
181.064	-54.78
181.283	2.56
181.503	-52.74
181.723	-71.17
181.943	-38.4
182.163	80.38
182.383	0.51
182.602	100.86
182.822	18.94
183.042	4.61
183.262	-36.35
183.482	23.04
183.701	49.66
183.921	-48.64
184.141	4.61
184.361	53.76
184.58	39.42
184.8	27.14
185.02	64
185.239	55.81
185.459	33.28
185.679	35.33
185.898	10.75
186.118	88.57
186.338	43.52
186.557	80.38
186.777	33.28
186.997	-28.16
187.216	27.14
187.436	164.35
187.655	51.71
187.875	33.28
188.095	-11.78
188.314	82.43
188.534	59.9
188.753	37.38
188.973	92.67
189.192	86.53
189.412	113.15
189.631	10.75
189.851	107.01
190.07	100.86
190.29	4.61
190.509	59.9
190.729	10.75
190.948	47.62
191.168	188.93
191.387	113.15
191.607	49.66
191.826	45.57
192.045	6.66
192.265	37.38
192.484	6.66
192.704	-3.58
192.923	-15.87
193.142	143.87
193.362	68.09
193.581	100.86
193.8	68.09
194.02	78.33
194.239	66.05
194.458	35.33
194.678	2.56
194.897	141.82
195.116	102.91
195.335	76.29
195.555	55.81
195.774	-44.54
195.993	113.15
196.212	-3.58
196.432	-30.21
196.651	12.8
196.87	41.47
197.089	47.62
197.308	41.47
197.528	78.33
197.747	-11.78
197.966	59.9
198.185	80.38
198.404	45.57
198.623	43.52
198.842	66.05
199.062	109.05
199.281	61.95
199.5	59.9
199.719	31.23
199.938	100.86
200.157	59.9
200.376	98.81
200.595	45.57
200.814	12.8
201.033	47.62
201.252	121.34
201.471	-3.58
201.69	86.53
201.909	92.67
202.128	102.91
202.347	72.19
202.566	23.04
202.785	8.7
203.004	49.66
203.223	113.15
203.442	45.57
203.661	33.28
203.879	41.47
204.098	47.62
204.317	-97.79
204.536	43.52
204.755	90.62
204.974	31.23
205.193	12.8
205.411	96.77
205.63	49.66
205.849	61.95
206.068	90.62
206.287	-3.58
206.505	80.38
206.724	18.94
206.943	33.28
207.162	53.76
207.381	51.71
207.599	-38.4
207.818	64
208.037	37.38
208.255	6.66
208.474	51.71
208.693	-5.63
208.911	72.19
209.13	29.18
209.349	104.96
209.567	51.71
209.786	49.66
210.005	98.81
210.223	29.18
210.442	20.99
210.661	-17.92
210.879	92.67
211.098	76.29
211.316	47.62
211.535	14.85
211.753	53.76
211.972	64
212.191	-24.06
212.409	27.14
212.628	10.75
212.846	51.71
213.065	-5.63
213.283	61.95
213.502	76.29
213.72	20.99
213.938	61.95
214.157	16.9
214.375	88.57
214.594	8.7
214.812	59.9
215.031	27.14
215.249	111.1
215.467	109.05
215.686	57.86
215.904	139.77
216.122	-3.58
216.341	107.01
216.559	117.25
216.778	115.2
216.996	70.14
217.214	-13.82
217.432	0.51
217.651	31.23
217.869	-15.87
218.087	59.9
218.306	-22.02
218.524	66.05
218.742	0.51
218.96	61.95
219.179	2.56
219.397	39.42
219.615	47.62
219.833	59.9
220.051	29.18
220.27	92.67
220.488	80.38
220.706	94.72
220.924	35.33
221.142	-17.92
221.36	68.09
221.578	76.29
221.796	68.09
222.015	49.66
222.233	70.14
222.451	53.76
222.669	31.23
222.887	20.99
223.105	-50.69
223.323	51.71
223.541	39.42
223.759	115.2
223.977	70.14
224.195	53.76
224.413	82.43
224.631	39.42
224.849	64
225.067	176.64
225.285	39.42
225.503	64
225.721	-22.02
225.939	57.86
226.157	55.81
226.375	180.73
226.592	8.7
226.81	12.8
227.028	72.19
227.246	92.67
227.464	-11.78
227.682	-24.06
227.9	127.49
228.117	59.9
228.335	4.61
228.553	84.48
228.771	37.38
228.989	88.57
229.206	35.33
229.424	90.62
229.642	53.76
229.86	53.76
230.077	41.47
230.295	66.05
230.513	86.53
230.731	66.05
230.948	59.9
231.166	20.99
231.384	-15.87
231.601	-5.63
231.819	88.57
232.037	10.75
232.254	23.04
232.472	27.14
232.689	59.9
232.907	154.11
233.125	20.99
233.342	-9.73
233.56	27.14
233.777	68.09
233.995	78.33
234.213	113.15
234.43	113.15
234.648	113.15
234.865	-24.06
235.083	33.28
235.3	61.95
235.518	80.38
235.735	39.42
235.953	25.09
236.17	94.72
236.388	45.57
236.605	88.57
236.822	80.38
237.04	96.77
237.257	115.2
237.475	20.99
237.692	98.81
237.909	-7.68
238.127	20.99
238.344	121.34
238.562	84.48
238.779	-9.73
238.996	18.94
239.214	80.38
239.431	96.77
239.648	64
239.865	76.29
240.083	109.05
240.3	29.18
240.517	8.7
240.735	43.52
240.952	72.19
241.169	98.81
241.386	-13.82
241.603	37.38
241.821	6.66
242.038	53.76
242.255	94.72
242.472	20.99
242.689	113.15
242.907	92.67
243.124	-9.73
243.341	29.18
243.558	100.86
243.775	61.95
243.992	-5.63
244.209	64
244.426	115.2
244.643	59.9
244.86	20.99
245.078	45.57
245.295	2.56
245.512	29.18
245.729	18.94
245.946	27.14
246.163	14.85
246.38	94.72
246.597	80.38
246.814	43.52
247.031	45.57
247.248	31.23
247.464	74.24
247.681	14.85
247.898	82.43
248.115	12.8
248.332	0.51
248.549	29.18
248.766	96.77
248.983	98.81
249.2	57.86
249.417	102.91
249.633	-7.68
249.85	33.28
250.067	-3.58
250.284	94.72
250.501	102.91
250.717	72.19
250.934	-46.59
251.151	27.14
251.368	47.62
251.585	12.8
251.801	29.18
252.018	18.94
252.235	98.81
252.451	-36.35
252.668	35.33
252.885	76.29
253.102	35.33
253.318	-34.3
253.535	-9.73
253.752	35.33
253.968	35.33
254.185	-9.73
254.401	-22.02
254.618	84.48
254.835	29.18
255.051	59.9
255.268	82.43
255.484	41.47
255.701	37.38
255.917	23.04
256.134	-58.88
256.351	-7.68
256.567	80.38
256.784	35.33
257	8.7
257.217	147.97
257.433	121.34
257.65	-3.58
257.866	98.81
258.082	10.75
258.299	-17.92
258.515	18.94
258.732	25.09
258.948	20.99
259.165	61.95
259.381	-62.98
259.597	-9.73
259.814	33.28
260.03	47.62
260.246	33.28
260.463	90.62
260.679	109.05
260.895	27.14
261.112	14.85
261.328	78.33
261.544	74.24
261.761	125.44
261.977	-69.12
262.193	47.62
262.409	47.62
262.626	37.38
262.842	35.33
263.058	78.33
263.274	43.52
263.49	-11.78
263.707	74.24
263.923	72.19
264.139	20.99
264.355	41.47
264.571	152.06
264.787	25.09
265.004	133.63
265.22	82.43
265.436	20.99
265.652	8.7
265.868	125.44
266.084	0.51
266.3	100.86
266.516	-15.87
266.732	41.47
266.948	61.95
267.164	12.8
267.38	102.91
267.596	55.81
267.812	166.4
268.028	68.09
268.244	78.33
268.46	20.99
268.676	53.76
268.892	96.77
269.108	14.85
269.324	18.94
269.54	0.51
269.756	150.01
269.972	-11.78
270.188	-32.26
270.403	51.71
270.619	-30.21
270.835	70.14
271.051	35.33
271.267	90.62
271.483	2.56
271.698	-5.63
271.914	125.44
272.13	29.18
272.346	70.14
272.562	70.14
272.777	18.94
272.993	12.8
273.209	10.75
273.425	43.52
273.64	-1.54
273.856	74.24
274.072	-5.63
274.287	29.18
274.503	47.62
274.719	88.57
274.934	92.67
275.15	-30.21
275.366	-11.78
275.581	33.28
275.797	4.61
276.012	74.24
276.228	-26.11
276.444	55.81
276.659	98.81
276.875	88.57
277.09	43.52
277.306	47.62
277.521	100.86
277.737	31.23
277.952	96.77
278.168	59.9
278.383	72.19
278.599	100.86
278.814	4.61
279.03	37.38
279.245	66.05
279.461	100.86
279.676	55.81
279.892	61.95
280.107	-5.63
280.322	80.38
280.538	80.38
280.753	45.57
280.969	78.33
281.184	29.18
281.399	96.77
281.615	10.75
281.83	55.81
282.045	51.71
282.26	-3.58
282.476	20.99
282.691	80.38
282.906	6.66
283.122	18.94
283.337	43.52
283.552	102.91
283.767	18.94
283.983	111.1
284.198	90.62
284.413	18.94
284.628	51.71
284.843	27.14
285.058	119.29
285.274	-15.87
285.489	35.33
285.704	61.95
285.919	4.61
286.134	72.19
286.349	117.25
286.564	64
286.779	20.99
286.995	-13.82
287.21	-56.83
287.425	80.38
287.64	51.71
287.855	59.9
288.07	10.75
288.285	20.99
288.5	66.05
288.715	123.39
288.93	78.33
289.145	47.62
289.36	88.57
289.575	20.99
289.79	16.9
290.004	-9.73
290.219	135.68
290.434	-54.78
290.649	47.62
290.864	45.57
291.079	-9.73
291.294	64
291.509	66.05
291.724	-81.41
291.938	-1.54
292.153	104.96
292.368	4.61
292.583	33.28
292.798	35.33
293.012	8.7
293.227	-11.78
293.442	-28.16
293.657	125.44
293.871	135.68
294.086	4.61
294.301	78.33
294.516	78.33
294.73	43.52
294.945	51.71
295.16	29.18
295.374	33.28
295.589	104.96
295.804	98.81
296.018	23.04
296.233	37.38
296.447	41.47
296.662	76.29
296.877	139.77
297.091	35.33
297.306	2.56
297.52	35.33
297.735	51.71
297.949	55.81
298.164	125.44
298.378	127.49
298.593	8.7
298.807	88.57
299.022	10.75
299.236	119.29
299.451	45.57
299.665	55.81
299.88	-17.92
300.094	86.53
300.309	37.38
300.523	90.62
300.737	10.75
300.952	61.95
301.166	72.19
301.381	-24.06
301.595	10.75
301.809	66.05
302.024	-56.83
302.238	16.9
302.452	29.18
302.667	55.81
302.881	64
303.095	68.09
303.309	27.14
303.524	45.57
303.738	80.38
303.952	45.57
304.166	61.95
304.381	-7.68
304.595	70.14
304.809	70.14
305.023	49.66
305.237	76.29
305.452	78.33
305.666	39.42
305.88	94.72
306.094	29.18
306.308	92.67
306.522	27.14
306.736	8.7
306.95	61.95
307.164	12.8
307.379	23.04
307.593	131.58
307.807	37.38
308.021	96.77
308.235	55.81
308.449	-40.45
308.663	-1.54
308.877	121.34
309.091	57.86
309.305	-11.78
309.519	-65.02
309.733	98.81
309.947	-30.21
310.161	74.24
310.374	113.15
310.588	59.9
310.802	74.24
311.016	39.42
311.23	70.14
311.444	43.52
311.658	104.96
311.872	125.44
312.085	109.05
312.299	102.91
312.513	43.52
312.727	41.47
312.941	-60.93
313.154	47.62
313.368	55.81
313.582	59.9
313.796	39.42
314.009	57.86
314.223	47.62
314.437	53.76
314.651	20.99
314.864	76.29
315.078	20.99
315.292	61.95
315.505	10.75
315.719	45.57
315.933	-17.92
316.146	104.96
316.36	29.18
316.573	123.39
316.787	64
317.001	94.72
317.214	-56.83
317.428	100.86
317.641	45.57
317.855	68.09
318.068	70.14
318.282	70.14
318.495	100.86
318.709	43.52
318.922	113.15
319.136	78.33
319.349	104.96
319.563	10.75
319.776	35.33
319.99	-30.21
320.203	18.94
320.417	53.76
320.63	80.38
320.843	117.25
321.057	43.52
321.27	76.29
321.483	-11.78
321.697	76.29
321.91	37.38
322.124	109.05
322.337	64
322.55	53.76
322.763	59.9
322.977	29.18
323.19	94.72
323.403	43.52
323.617	104.96
323.83	92.67
324.043	-28.16
324.256	80.38
324.469	31.23
324.683	68.09
324.896	-7.68
325.109	27.14
325.322	0.51
325.535	84.48
325.748	31.23
325.962	94.72
326.175	53.76
326.388	6.66
326.601	68.09
326.814	27.14
327.027	49.66
327.24	107.01
327.453	-19.97
327.666	86.53
327.879	55.81
328.092	92.67
328.305	74.24
328.518	37.38
328.731	45.57
328.944	43.52
329.157	72.19
329.37	74.24
329.583	160.25
329.796	4.61
330.009	-38.4
330.222	109.05
330.435	121.34
330.648	45.57
330.861	45.57
331.073	16.9
331.286	29.18
331.499	-46.59
331.712	10.75
331.925	-22.02
332.138	68.09
332.35	92.67
332.563	43.52
332.776	92.67
332.989	6.66
333.202	43.52
333.414	72.19
333.627	41.47
333.84	6.66
334.053	88.57
334.265	64
334.478	41.47
334.691	88.57
334.903	68.09
335.116	57.86
335.329	43.52
335.541	109.05
335.754	104.96
335.966	47.62
336.179	23.04
336.392	59.9
336.604	20.99
336.817	107.01
337.029	35.33
337.242	141.82
337.454	139.77
337.667	51.71
337.88	150.01
338.092	53.76
338.305	29.18
338.517	-3.58
338.729	51.71
338.942	76.29
339.154	47.62
339.367	37.38
339.579	33.28
339.792	-24.06
340.004	51.71
340.217	12.8
340.429	18.94
340.641	53.76
340.854	-5.63
341.066	-32.26
341.278	76.29
341.491	82.43
341.703	78.33
341.915	-44.54
342.128	35.33
342.34	76.29
342.552	47.62
342.764	35.33
342.977	47.62
343.189	45.57
343.401	117.25
343.613	-54.78
343.826	-5.63
344.038	59.9
344.25	76.29
344.462	39.42
344.674	45.57
344.886	27.14
345.099	16.9
345.311	70.14
345.523	23.04
345.735	12.8
345.947	125.44
346.159	2.56
346.371	76.29
346.583	14.85
346.795	174.59
347.007	14.85
347.219	72.19
347.431	31.23
347.643	88.57
347.855	23.04
348.067	104.96
348.279	-52.74
348.491	18.94
348.703	53.76
348.915	23.04
349.127	6.66
349.339	84.48
349.551	20.99
349.763	82.43
349.975	29.18
350.187	143.87
350.399	14.85
350.61	33.28
350.822	59.9
351.034	72.19
351.246	68.09
351.458	43.52
351.669	47.62
351.881	55.81
352.093	131.58
352.305	125.44
352.517	59.9
352.728	37.38
352.94	139.77
353.152	53.76
353.363	20.99
353.575	74.24
353.787	84.48
353.999	94.72
354.21	135.68
354.422	-1.54
354.633	39.42
354.845	43.52
355.057	92.67
355.268	119.29
355.48	57.86
355.692	35.33
355.903	74.24
356.115	-26.11
356.326	27.14
356.538	41.47
356.749	78.33
356.961	119.29
357.172	113.15
357.384	43.52
357.595	102.91
357.807	43.52
358.018	-11.78
358.23	72.19
358.441	150.01
358.653	31.23
358.864	29.18
359.075	2.56
359.287	74.24
359.498	51.71
359.709	109.05
359.921	16.9
360.132	107.01
360.344	43.52
360.555	37.38
360.766	68.09
360.977	-5.63
361.189	92.67
361.4	29.18
361.611	64
361.823	119.29
362.034	92.67
362.245	37.38
362.456	86.53
362.667	100.86
362.879	4.61
363.09	70.14
363.301	55.81
363.512	37.38
363.723	39.42
363.935	51.71
364.146	125.44
364.357	61.95
364.568	55.81
364.779	-7.68
364.99	129.53
365.201	72.19
365.412	53.76
365.623	12.8
365.834	55.81
366.045	92.67
366.256	113.15
366.467	49.66
366.678	53.76
366.889	51.71
367.1	61.95
367.311	29.18
367.522	12.8
367.733	162.3
367.944	4.61
368.155	6.66
368.366	14.85
368.577	96.77
368.788	104.96
368.999	-38.4
369.209	2.56
369.42	127.49
369.631	137.73
369.842	64
370.053	84.48
370.264	129.53
370.474	6.66
370.685	76.29
370.896	37.38
371.107	176.64
371.317	27.14
371.528	2.56
371.739	133.63
371.95	20.99
372.16	76.29
372.371	10.75
372.582	37.38
372.792	80.38
373.003	59.9
373.214	102.91
373.424	115.2
373.635	31.23
373.846	109.05
374.056	66.05
374.267	41.47
374.477	64
374.688	-9.73
374.898	86.53
375.109	104.96
375.319	78.33
375.53	72.19
375.74	51.71
375.951	49.66
376.161	29.18
376.372	143.87
376.582	2.56
376.793	94.72
377.003	57.86
377.214	84.48
377.424	43.52
377.635	94.72
377.845	-34.3
378.055	100.86
378.266	-15.87
378.476	57.86
378.686	94.72
378.897	51.71
379.107	82.43
379.317	59.9
379.528	-3.58
379.738	74.24
379.948	-5.63
380.158	125.44
380.369	68.09
380.579	-5.63
380.789	47.62
380.999	45.57
381.21	27.14
381.42	33.28
381.63	10.75
381.84	131.58
382.05	90.62
382.261	145.92
382.471	104.96
382.681	39.42
382.891	154.11
383.101	31.23
383.311	-24.06
383.521	20.99
383.731	84.48
383.941	29.18
384.151	39.42
384.361	68.09
384.571	109.05
384.781	92.67
384.991	78.33
385.201	129.53
385.411	47.62
385.621	135.68
385.831	86.53
386.041	55.81
386.251	76.29
386.461	135.68
386.671	-44.54
386.881	59.9
387.091	0.51
387.301	10.75
387.511	18.94
387.72	61.95
387.93	127.49
388.14	0.51
388.35	68.09
388.56	180.73
388.769	68.09
388.979	109.05
389.189	131.58
389.399	61.95
389.609	84.48
389.818	145.92
390.028	31.23
390.238	47.62
390.447	90.62
390.657	72.19
390.867	61.95
391.076	31.23
391.286	92.67
391.496	59.9
391.705	49.66
391.915	47.62
392.125	49.66
392.334	59.9
392.544	92.67
392.753	45.57
392.963	6.66
393.172	74.24
393.382	27.14
393.591	176.64
393.801	18.94
394.01	78.33
394.22	133.63
394.429	6.66
394.639	92.67
394.848	141.82
395.058	78.33
395.267	78.33
395.477	10.75
395.686	31.23
395.895	102.91
396.105	176.64
396.314	51.71
396.524	8.7
396.733	41.47
396.942	102.91
397.152	111.1
397.361	168.45
397.57	147.97
397.78	92.67
397.989	68.09
398.198	152.06
398.407	27.14
398.617	90.62
398.826	39.42
399.035	64
399.244	66.05
399.453	51.71
399.663	82.43
399.872	90.62
400.081	-52.74
400.29	111.1
400.499	10.75
400.708	84.48
400.917	127.49
401.127	96.77
401.336	104.96
401.545	180.73
401.754	137.73
401.963	162.3
402.172	98.81
402.381	86.53
402.59	166.4
402.799	94.72
403.008	231.93
403.217	154.11
403.426	68.09
403.635	74.24
403.844	45.57
404.053	150.01
404.262	72.19
404.471	174.59
404.68	137.73
404.888	197.12
405.097	139.77
405.306	137.73
405.515	92.67
405.724	162.3
405.933	115.2
406.142	150.01
406.35	119.29
406.559	217.6
406.768	154.11
406.977	164.35
407.185	168.45
407.394	199.16
407.603	154.11
407.812	205.31
408.02	158.21
408.229	233.98
408.438	201.21
408.646	113.15
408.855	199.16
409.064	334.33
409.272	221.69
409.481	221.69
409.69	137.73
409.898	252.41
410.107	260.6
410.315	289.28
410.524	283.13
410.733	244.22
410.941	289.28
411.15	205.31
411.358	299.52
411.567	412.15
411.775	332.28
411.984	336.38
412.192	377.34
412.401	281.08
412.609	342.52
412.818	315.9
413.026	399.87
413.234	385.53
413.443	440.83
413.651	412.15
413.86	416.25
414.068	512.5
414.276	510.46
414.485	498.17
414.693	461.3
414.901	547.32
415.11	569.85
415.318	543.22
415.526	608.76
415.734	596.47
415.943	619
416.151	610.81
416.359	633.33
416.567	657.91
416.776	623.09
416.984	684.53
417.192	748.02
417.4	696.82
417.608	653.81
417.817	801.27
418.025	864.75
418.233	846.32
418.441	756.21
418.649	907.76
418.857	887.28
419.065	1036.78
419.273	938.48
419.481	1004.02
419.689	1051.12
419.897	1038.83
420.105	1092.08
420.313	1051.12
420.521	1163.76
420.729	1235.44
420.937	1249.77
421.145	1315.31
421.353	1317.36
421.561	1520.1
421.769	1360.36
421.977	1520.1
422.185	1565.16
422.393	1532.39
422.601	1698.28
422.809	1661.41
423.017	1683.94
423.224	1751.53
423.432	1868.26
423.64	1851.88
423.848	2071.01
424.056	1829.35
424.263	2015.71
424.471	2099.68
424.679	2173.41
424.887	2191.84
425.094	2255.33
425.302	2333.15
425.51	2296.28
425.718	2476.51
425.925	2372.06
426.133	2599.38
426.341	2714.07
426.548	2843.09
426.756	2779.61
426.964	2904.53
427.171	3033.55
427.379	3140.05
427.586	3201.49
427.794	3213.77
428.001	3420.62
428.209	3500.49
428.417	3645.9
428.624	3693
428.832	3766.73
429.039	3746.25
429.247	3766.73
429.454	4116.93
429.662	4366.78
429.869	4104.64
430.076	4362.69
430.284	4168.13
430.491	4458.94
430.699	4612.54
430.906	4700.6
431.114	4764.09
431.321	5040.56
431.528	5116.34
431.736	5329.33
431.943	5626.28
432.15	5462.44
432.358	5366.19
432.565	5818.79
432.772	5878.18
432.979	5982.63
433.187	6228.38
433.394	6222.24
433.601	6736.28
433.808	6578.59
434.016	6519.2
434.223	6926.74
434.43	7225.75
434.637	7149.97
434.844	7637.39
435.052	7666.06
435.259	7704.97
435.466	7649.68
435.673	7625.1
435.88	8204.67
436.087	8669.56
436.294	8556.93
436.501	8419.71
436.708	8573.31
436.915	8950.14
437.122	9386.35
437.329	9263.47
437.537	9838.95
437.743	9711.98
437.95	9613.68
438.157	9947.5
438.364	10512.74
438.571	10461.54
438.778	10445.15
438.985	11530.58
439.192	11090.26
439.399	11409.75
439.606	11133.27
439.813	11792.72
440.02	12792.12
440.227	12400.96
440.433	11956.55
440.64	12472.64
440.847	12347.72
441.054	12788.03
441.261	13594.93
441.467	13383.99
441.674	13699.37
441.881	14010.67
442.088	14192.94
442.294	13967.66
442.501	14375.2
442.708	14786.85
442.914	15116.57
443.121	15753.49
443.328	15511.83
443.534	16304.39
443.741	16177.42
443.948	15749.39
444.154	17266.94
444.361	17144.06
444.568	17133.82
444.774	17191.16
444.981	17500.4
445.187	17903.85
445.394	18692.32
445.6	18356.46
445.807	20199.63
446.013	19409.11
446.22	19697.88
446.426	20472.01
446.633	20342.99
446.839	21473.46
447.046	20607.17
447.252	21452.98
447.459	21657.78
447.665	21704.88
447.871	22358.19
448.078	23437.47
448.284	22464.68
448.491	22970.53
448.697	23754.9
448.903	24375.44
449.11	24416.4
449.316	23834.77
449.522	24342.67
449.728	25170.05
449.935	25337.98
450.141	25245.82
450.347	25598.07
450.553	24914.05
450.76	25184.38
450.966	26130.55
451.172	25823.35
451.378	26620.01
451.584	26073.2
451.791	26603.63
451.997	26511.47
452.203	26593.39
452.409	27088.99
452.615	26939.49
452.821	25962.61
453.027	25720.95
453.233	27222.11
453.44	25628.79
453.646	26218.61
453.852	26364.01
454.058	26695.78
454.264	26091.63
454.47	26093.68
454.676	25497.72
454.882	26591.34
455.088	24248.46
455.294	24660.1
455.5	24893.57
455.705	25385.08
455.911	24270.99
456.117	23992.47
456.323	23589.02
456.529	22208.69
456.735	23197.85
456.941	22659.24
457.147	22089.9
457.352	21600.44
457.558	21393.59
457.764	21371.07
457.97	20965.57
458.176	20539.59
458.381	20498.63
458.587	19646.68
458.793	19482.84
458.999	18401.51
459.204	19706.07
459.41	19294.43
459.616	18051.31
459.821	17993.97
460.027	17651.95
460.233	17314.04
460.438	16818.43
460.644	17078.52
460.85	16265.48
461.055	15823.12
461.261	15722.77
461.466	14559.52
461.672	14190.89
461.878	15159.58
462.083	14053.67
462.289	13664.56
462.494	13881.64
462.7	13236.53
462.905	12806.46
463.111	13293.88
463.316	13367.6
463.522	13121.85
463.727	13146.42
463.932	13103.42
464.138	12902.72
464.343	12865.85
464.549	12675.39
464.754	13058.36
464.959	12765.5
465.165	12685.63
465.37	12415.3
465.575	11798.86
465.781	12409.15
465.986	12347.72
466.191	11938.12
466.397	11702.61
466.602	11202.9
466.807	11712.85
467.012	11575.63
467.218	11520.34
467.423	11315.54
467.628	11716.94
467.833	12132.68
468.038	11602.25
468.244	11155.8
468.449	11630.93
468.654	11282.77
468.859	11098.45
469.064	11401.55
469.269	10840.41
469.474	10963.29
469.679	10883.42
469.885	10568.03
470.09	10891.61
470.295	10783.07
470.5	10373.47
470.705	10623.33
470.91	10488.16
471.115	10228.07
471.32	10340.71
471.525	10342.75
471.73	10137.96
471.935	10023.27
472.139	9777.51
472.344	9916.78
472.549	9679.21
472.754	9709.93
472.959	9449.84
473.164	9177.46
473.369	9249.14
473.574	9242.99
473.778	9349.49
473.983	9251.19
474.188	9228.66
474.393	8851.83
474.598	8810.87
474.802	8761.72
475.007	8745.34
475.212	8755.58
475.417	8423.81
475.621	8413.57
475.826	8274.31
476.031	8305.03
476.235	7934.34
476.44	8313.22
476.645	8006.02
476.849	8214.91
477.054	8061.32
477.259	7983.49
477.463	7915.91
477.668	7608.72
477.872	7778.7
478.077	7661.96
478.282	7489.93
478.486	7360.91
478.691	7387.54
478.895	7530.89
479.1	7360.91
479.304	7451.02
479.509	7188.88
479.713	7285.14
479.918	7121.3
480.122	7041.43
480.326	6891.93
480.531	7139.73
480.735	7090.58
480.94	6924.69
481.144	7195.03
481.348	6975.89
481.553	7012.76
481.757	6779.29
481.961	6855.06
482.166	6875.54
482.37	6990.23
482.574	6863.26
482.778	6775.19
482.983	7053.72
483.187	6824.34
483.391	6779.29
483.595	6859.16
483.8	6662.55
484.004	6965.65
484.208	6930.84
484.412	6816.15
484.616	6977.94
484.821	6828.44
485.025	6605.21
485.229	6859.16
485.433	6898.07
485.637	6703.51
485.841	6891.93
486.045	6820.25
486.249	6744.47
486.453	6646.17
486.657	6853.02
486.861	6859.16
487.065	6717.85
487.269	6857.11
487.473	6707.61
487.677	6816.15
487.881	6853.02
488.085	6820.25
488.289	6875.54
488.493	6807.96
488.697	6830.49
488.901	6924.69
489.105	6875.54
489.309	6875.54
489.512	7096.72
489.716	6855.06
489.92	7006.61
490.124	7051.67
490.328	7115.16
490.531	6810.01
490.735	7088.53
490.939	7115.16
491.143	7125.4
491.346	6928.79
491.55	7066
491.754	7035.28
491.958	7188.88
492.161	7252.37
492.365	7149.97
492.569	7227.79
492.772	7211.41
492.976	7344.53
493.18	7297.42
493.383	7608.72
493.587	7489.93
493.79	7475.6
493.994	7465.36
494.197	7614.86
494.401	7915.91
494.605	7696.78
494.808	7860.62
495.012	7858.57
495.215	7829.9
495.419	7862.66
495.622	7797.13
495.825	7905.67
496.029	8114.56
496.232	7971.21
496.436	8104.32
496.639	8448.38
496.843	8200.58
497.046	8493.44
497.249	8501.63
497.453	8612.22
497.656	8640.89
497.859	8716.67
498.063	8794.49
498.266	8989.05
498.469	8788.35
498.673	9116.02
498.876	9204.08
499.079	9367.92
499.282	9083.25
499.485	9628.01
499.689	9367.92
499.892	9689.45
500.095	9619.82
500.298	9931.11
500.501	9779.56
500.705	10090.85
500.908	10047.85
501.111	10537.31
501.314	10463.58
501.517	10459.49
501.72	10832.22
501.923	10414.43
502.126	10981.72
502.329	11077.97
502.532	10989.91
502.735	10920.28
502.938	11479.38
503.141	11329.88
503.344	11671.89
503.547	11639.12
503.75	11600.21
503.953	11878.73
504.156	11966.79
504.359	12124.49
504.562	12151.11
504.765	12513.6
504.968	12476.74
505.17	12824.89
505.373	12587.33
505.576	12978.49
505.779	13257.01
505.982	12900.67
506.185	13519.15
506.387	13457.71
506.59	13572.4
506.793	13887.79
506.996	13840.68
507.198	14352.68
507.401	14088.49
507.604	14387.49
507.807	14438.69
508.009	14598.43
508.212	14641.44
508.415	15139.1
508.617	15169.82
508.82	15186.2
509.022	15128.86
509.225	15485.2
509.428	15747.34
509.63	15937.8
509.833	15681.81
510.035	16568.58
510.238	16093.45
510.44	16386.31
510.643	16689.41
510.845	16939.26
511.048	16820.48
511.25	17168.63
511.453	16873.73
511.655	17873.14
511.858	17486.07
512.06	17649.91
512.262	17690.87
512.465	17963.25
512.667	17903.85
512.87	18434.28
513.072	18317.54
513.274	18989.28
513.477	18819.3
513.679	19206.36
513.881	19167.45
514.084	19531.99
514.286	19392.73
514.488	19513.56
514.69	20310.22
514.893	20347.08
515.095	20271.31
515.297	20447.43
515.499	20605.13
515.701	20799.68
515.904	21158.08
516.106	21487.8
516.308	21584.05
516.51	21702.84
516.712	21706.93
516.914	21893.3
517.116	22474.92
517.318	22227.12
517.52	22376.62
517.722	22825.12
517.925	22986.91
518.127	23187.61
518.329	23462.04
518.531	23236.77
518.733	23890.07
518.935	23871.64
519.136	24082.58
519.338	24381.58
519.54	24281.23
519.742	24819.85
519.944	24848.52
520.146	25270.4
520.348	25143.42
520.55	25442.43
520.752	25262.21
520.954	25972.85
521.155	25948.28
521.357	26386.54
521.559	26359.92
521.761	26810.47
521.963	26919.01
522.164	26859.62
522.366	27224.16
522.568	27320.42
522.77	27598.94
522.971	28121.17
523.173	27803.74
523.375	28233.81
523.576	27854.93
523.778	28168.27
523.98	28618.83
524.181	29065.28
524.383	28780.62
524.584	29089.86
524.786	29136.96
524.988	29091.91
525.189	29546.56
525.391	29562.94
525.592	29706.3
525.794	29892.66
525.995	30437.42
526.197	30523.44
526.398	30455.86
526.6	30437.42
526.801	30672.94
527.003	30904.36
527.204	30984.23
527.406	31193.12
527.607	31217.7
527.808	31469.6
528.01	30869.54
528.211	31223.84
528.412	31922.2
528.614	31924.25
528.815	31549.47
529.016	32380.95
529.218	31770.65
529.419	31997.98
529.62	31905.82
529.822	32047.13
530.023	32458.77
530.224	32184.34
530.425	32030.74
530.626	32016.41
530.828	32122.9
531.029	32886.79
531.23	32374.8
531.431	32606.22
531.632	32911.37
531.833	32737.29
532.035	32974.86
532.236	32911.37
532.437	33245.19
532.638	32735.24
532.839	32985.1
533.04	33206.28
533.241	32919.56
533.442	33753.08
533.643	32981
533.844	33296.39
534.045	33026.06
534.246	32933.9
534.447	33564.67
534.648	33103.88
534.849	33292.29
535.05	33239.04
535.251	33062.92
535.451	33433.6
535.652	33476.61
535.853	33073.16
536.054	33470.47
536.255	33409.03
536.456	33290.24
536.657	33779.71
536.857	33165.32
537.058	33064.97
537.259	33570.82
537.46	33789.95
537.66	33239.04
537.861	33241.09
538.062	33292.29
538.263	33550.34
538.463	33327.11
538.664	33400.83
538.865	33593.34
539.065	33439.75
539.266	33355.78
539.466	33691.65
539.667	33085.45
539.868	33841.15
540.068	33720.32
540.269	33349.64
540.469	33728.51
540.67	33677.31
540.87	33675.26
541.071	33341.44
541.271	33331.2
541.472	33314.82
541.672	33429.51
541.873	33435.65
542.073	33087.5
542.274	33314.82
542.474	33255.43
542.675	32989.19
542.875	33779.71
543.075	33224.71
543.276	33153.03
543.476	33572.86
543.676	33185.8
543.877	33501.18
544.077	33548.29
544.277	33120.26
544.478	33294.34
544.678	33288.2
544.878	33466.37
545.078	33398.79
545.279	33101.83
545.479	33208.33
545.679	33658.88
545.879	33290.24
546.079	33687.55
546.28	32905.23
546.48	32956.43
546.68	33237
546.88	33392.64
547.08	33427.46
547.28	32919.56
547.48	33169.41
547.68	33212.42
547.88	32954.38
548.081	33560.58
548.281	33040.39
548.481	32841.74
548.681	33265.67
548.881	33447.94
549.081	33159.17
549.28	32849.93
549.48	33357.83
549.68	32913.42
549.88	33406.98
550.08	32882.7
550.28	33230.85
550.48	33122.31
550.68	33112.07
550.88	32700.43
551.08	32761.87
551.279	32884.75
551.479	32661.52
551.679	33093.64
551.879	32888.84
552.079	33073.16
552.278	32944.14
552.478	32954.38
552.678	32821.26
552.878	33036.3
553.077	32626.7
553.277	32450.58
553.477	33087.5
553.676	32972.81
553.876	33183.75
554.076	32847.88
554.275	32403.47
554.475	32389.14
554.674	32505.87
554.874	32749.58
555.074	32489.49
555.273	32632.85
555.473	33198.09
555.672	32503.82
555.872	32690.19
556.071	32634.89
556.271	32581.65
556.47	31795.23
556.67	32473.1
556.869	32458.77
557.068	32469.01
557.268	32251.92
557.467	31856.67
557.667	32337.94
557.866	32305.17
558.065	31971.35
558.265	31647.77
558.464	31871
558.663	31997.98
558.863	31645.73
559.062	32215.06
559.261	31399.97
559.461	32114.71
559.66	31481.89
559.859	31559.71
560.058	31316
560.258	31631.39
560.457	31369.25
560.656	31692.83
560.855	31092.77
561.054	31502.37
561.253	30947.37
561.453	30943.27
561.652	31150.12
561.851	31086.63
562.05	30887.98
562.249	30912.55
562.448	30851.11
562.647	31148.07
562.846	30945.32
563.045	30689.32
563.244	30320.69
563.443	30705.71
563.642	30558.25
563.841	30646.32
564.04	30427.18
564.239	30847.02
564.438	30230.58
564.637	30382.13
564.836	30146.61
565.035	29603.9
565.234	30255.15
565.432	30023.73
565.631	29878.33
565.83	29845.56
566.029	30064.69
566.228	29425.73
566.427	29706.3
566.625	29483.07
566.824	29116.48
567.023	29231.17
567.222	28946.5
567.42	29399.1
567.619	28823.62
567.818	28776.52
568.016	29024.33
568.215	29341.76
568.414	28768.33
568.612	29065.28
568.811	28741.71
569.01	28901.45
569.208	28190.8
569.407	28692.55
569.605	28534.86
569.804	28471.37
570.002	28276.82
570.201	28235.86
570.4	28026.96
570.598	28123.22
570.797	27955.29
570.995	27963.48
571.193	27701.34
571.392	27932.76
571.59	27588.7
571.789	27922.52
571.987	27238.5
572.186	27418.72
572.384	27179.11
572.582	27439.2
572.781	27785.3
572.979	26767.46
573.177	26880.1
573.376	26931.3
573.574	26552.43
573.772	26822.76
573.971	26855.53
574.169	26781.8
574.367	26470.51
574.565	26820.71
574.763	26509.42
574.962	26331.25
575.16	26142.83
575.358	26132.59
575.556	26157.17
575.754	26126.45
575.952	26128.5
576.151	26153.07
576.349	25716.86
576.547	26024.05
576.745	26103.92
576.943	25643.13
577.141	25749.62
577.339	25829.49
577.537	25669.75
577.735	25278.59
577.933	25264.25
578.131	25389.18
578.329	25448.57
578.527	24758.41
578.725	25221.25
578.923	24981.63
579.121	25002.11
579.319	24733.83
579.516	25114.75
579.714	24936.58
579.912	24694.92
580.11	25149.57
580.308	24350.86
580.506	24432.78
580.704	24113.3
580.901	24500.36
581.099	24416.4
581.297	24410.25
581.495	24189.07
581.692	24148.11
581.89	23888.02
582.088	24336.52
582.285	23933.07
582.483	23976.08
582.681	23857.3
582.878	23828.63
583.076	23779.48
583.274	23459.99
583.471	23330.97
583.669	23615.64
583.866	23249.05
584.064	23509.15
584.262	22925.47
584.459	23548.06
584.657	23095.46
584.854	23099.55
585.052	22827.17
585.249	23199.9
585.447	22735.01
585.644	22591.66
585.841	23046.3
586.039	23072.93
586.236	22446.25
586.434	22866.08
586.631	22288.56
586.828	22495.4
587.026	22442.15
587.223	22339.76
587.42	22106.29
587.618	22130.86
587.815	22057.14
588.012	22042.8
588.21	21936.31
588.407	21964.98
588.604	22227.12
588.801	21799.09
588.999	21778.61
589.196	21561.53
589.393	21708.98
589.59	21555.38
589.787	21299.39
589.984	21432.5
590.182	21283
590.379	21571.77
590.576	21080.25
590.773	21227.71
590.97	21215.42
591.167	21280.96
591.364	20947.14
591.561	21018.82
591.758	20816.07
591.955	20695.24
592.152	21057.73
592.349	20535.49
592.546	20672.71
592.743	20547.78
592.94	20349.13
593.137	20476.1
593.334	20607.17
593.531	20105.42
593.727	20267.21
593.924	20224.2
594.121	20058.32
594.318	20134.09
594.515	19957.97
594.712	20406.47
594.908	19933.39
595.105	20046.03
595.302	19757.27
595.499	19757.27
595.696	19851.47
595.892	19671.25
596.089	19695.83
596.286	19822.8
596.482	19402.97
596.679	19577.05
596.876	19249.37
597.072	19091.68
597.269	19394.78
597.466	19179.74
597.662	19466.45
597.859	19116.25
598.055	19013.85
598.252	18677.99
598.448	19116.25
598.645	19173.6
598.841	18878.69
599.038	18931.94
599.234	18897.12
599.431	18417.89
599.627	18630.88
599.824	18548.96
600.02	18503.91
600.217	18624.74
600.413	18258.15
600.609	18239.72
600.806	18295.02
601.002	18469.09
601.198	17985.77
601.395	17862.9
601.591	17965.29
601.787	17891.57
601.984	17938.67
602.18	18055.4
602.376	17774.83
602.572	17795.31
602.769	17705.2
602.965	17451.25
603.161	17641.71
603.357	17664.24
603.553	17502.45
603.75	17631.47
603.946	17238.26
604.142	17375.48
604.338	17281.27
604.534	17307.9
604.73	17053.95
604.926	16926.97
605.122	16957.69
605.318	17117.43
605.514	17166.59
605.71	16775.42
605.906	16722.18
606.102	16656.64
606.298	16519.43
606.494	16625.92
606.69	16830.72
606.886	16630.02
607.082	16560.39
607.278	16828.67
607.474	16384.26
607.67	16570.63
607.866	16101.64
608.062	16636.16
608.257	16361.73
608.453	16386.31
608.649	16441.61
608.845	16408.84
609.041	16355.59
609.236	15917.33
609.432	16148.75
609.628	16181.51
609.824	16079.11
610.019	15890.7
610.215	15941.9
610.411	16150.79
610.606	15833.36
610.802	16075.02
610.998	16005.39
611.193	15917.33
611.389	15573.27
611.584	15601.94
611.78	15575.31
611.976	15579.41
612.171	15972.62
612.367	15696.14
612.562	15737.1
612.758	15343.89
612.953	15247.64
613.149	15651.09
613.344	15362.33
613.539	15626.51
613.735	15323.41
613.93	15495.44
614.126	15278.36
614.321	15544.59
614.517	15304.98
614.712	15182.1
614.907	15298.84
615.103	15259.93
615.298	14952.73
615.493	15161.62
615.688	14879
615.884	15202.58
616.079	14913.82
616.274	14950.68
616.47	14991.64
616.665	15036.7
616.86	14715.17
617.055	14817.57
617.25	14903.58
617.445	14838.05
617.641	14551.33
617.836	14610.72
618.031	14334.25
618.226	14784.8
618.421	14674.21
618.616	14600.48
618.811	14338.34
619.006	14457.12
619.201	14321.96
619.396	14403.88
619.591	14313.77
619.786	14369.06
619.981	14143.78
620.176	14076.2
620.371	14051.63
620.566	13998.38
620.761	14008.62
620.956	13855.02
621.151	13936.94
621.346	13877.55
621.541	13631.79
621.735	13834.54
621.93	13414.71
622.125	13549.87
622.32	13232.44
622.515	13181.24
622.709	13248.82
622.904	13285.69
623.099	13164.86
623.294	13070.65
623.488	12865.85
623.683	13109.56
623.878	12757.31
624.072	12726.59
624.267	12769.6
624.462	12630.34
624.656	12603.71
624.851	12603.71
625.046	12489.03
625.24	12253.51
625.435	12345.67
625.629	12431.68
625.824	12185.93
626.018	12460.35
626.213	11917.64
626.407	11985.23
626.602	11907.4
626.796	12167.49
626.991	11856.2
627.185	11690.32
627.38	11897.16
627.574	11624.78
627.768	11477.33
627.963	11526.48
628.157	11510.1
628.352	11583.82
628.546	11278.68
628.74	11663.69
628.935	11123.03
629.129	11250
629.323	10975.58
629.517	10951
629.712	10858.84
629.906	10778.97
630.1	10811.74
630.294	10965.34
630.489	10692.96
630.683	10735.96
630.877	10637.66
631.071	10592.61
631.265	10588.51
631.459	10520.93
631.653	10537.31
631.848	10309.99
632.042	10191.2
632.236	10400.1
632.43	10090.85
632.624	10232.16
632.818	10008.94
633.012	9990.5
633.206	9986.41
633.4	9980.26
633.594	9896.3
633.788	10029.41
633.982	9701.74
634.176	9742.7
634.369	9750.89
634.563	9564.53
634.757	9441.65
634.951	9724.27
635.145	9406.83
635.339	9613.68
635.533	9533.81
635.726	9466.22
635.92	9275.76
636.114	9298.29
636.308	9230.71
636.501	9068.92
636.695	9150.84
636.889	9044.34
637.083	9171.32
637.276	9054.58
637.47	8882.55
637.664	8804.73
637.857	8833.4
638.051	8821.11
638.244	8755.58
638.438	8616.32
638.632	8714.62
638.825	8663.42
639.019	8485.25
639.212	8505.73
639.406	8640.89
639.599	8413.57
639.793	8479.1
639.986	8448.38
640.18	8464.77
640.373	8253.83
640.567	8212.87
640.76	7975.3
640.954	8141.19
641.147	7958.92
641.34	8006.02
641.534	8153.48
641.727	8151.43
641.92	7803.27
642.114	7829.9
642.307	7827.85
642.5	7958.92
642.694	7524.75
642.887	7836.04
643.08	7840.14
643.273	7592.33
643.467	7575.95
643.66	7618.96
643.853	7516.56
644.046	7352.72
644.239	7287.18
644.432	7244.18
644.626	7235.99
644.819	7057.81
645.012	7225.75
645.205	7238.03
645.398	7383.44
645.591	7090.58
645.784	6951.32
645.977	7094.68
646.17	6971.8
646.363	7014.8
646.556	7053.72
646.749	6922.65
646.942	6863.26
647.135	6801.82
647.328	6791.58
647.521	6646.17
647.714	6652.31
647.907	6703.51
648.099	6615.45
648.292	6769.05
648.485	6574.49
648.678	6744.47
648.871	6541.72
649.064	6537.63
649.256	6558.11
649.449	6334.88
649.642	6465.95
649.835	6359.45
650.027	6441.37
650.22	6275.49
650.413	6414.75
650.605	6234.53
650.798	6171.04
650.991	6189.47
651.183	6162.85
651.376	6203.81
651.568	6220.19
651.761	6029.73
651.954	5884.33
652.146	6019.49
652.339	5822.89
652.531	5913
652.724	5837.22
652.916	6023.59
653.109	5728.68
653.301	5812.65
653.494	5712.3
653.686	5771.69
653.879	5839.27
654.071	5755.3
654.263	5630.38
654.456	5605.8
654.648	5673.39
654.84	5657
655.033	5613.99
655.225	5564.84
655.417	5458.35
655.61	5474.73
655.802	5484.97
655.994	5503.4
656.186	5341.61
656.379	5454.25
656.571	5241.26
656.763	5220.78
656.955	5298.61
657.148	5327.28
657.34	5499.31
657.532	5138.87
657.724	5188.02
657.916	5216.69
658.108	5267.89
658.3	5175.73
658.492	5292.46
658.684	5257.65
658.876	5294.51
659.068	4962.74
659.26	4966.84
659.452	4919.73
659.644	5028.28
659.836	4925.88
660.028	4846.01
660.22	4764.09
660.412	5020.08
660.604	4762.04
660.796	4940.21
660.988	4868.53
661.18	4723.13
661.372	4811.19
661.563	4680.12
661.755	4667.83
661.947	4614.59
662.139	4551.1
662.331	4694.46
662.522	4633.02
662.714	4516.28
662.906	4446.65
663.097	4473.28
663.289	4471.23
663.481	4444.6
663.673	4471.23
663.864	4590.01
664.056	4354.49
664.247	4338.11
664.439	4458.94
664.631	4557.24
664.822	4442.56
665.014	4432.32
665.205	4420.03
665.397	4383.17
665.588	4381.12
665.78	4344.25
665.971	4305.34
666.163	4409.79
666.354	4278.72
666.546	4321.73
666.737	4307.39
666.929	4219.33
667.12	4264.38
667.311	4235.71
667.503	4151.74
667.694	4286.91
667.885	4090.31
668.077	4194.75
668.268	4123.07
668.459	4159.94
668.651	4213.18
668.842	4141.5
669.033	4051.39
669.224	4118.98
669.416	4153.79
669.607	4035.01
669.798	4032.96
669.989	4100.55
670.18	3803.59
670.371	4069.83
670.563	3834.31
670.754	3840.45
670.945	4104.64
671.136	4026.82
671.327	4092.35
671.518	4008.39
671.709	3998.15
671.9	3797.45
672.091	4030.91
672.282	3914.18
672.473	4069.83
672.664	3895.75
672.855	3752.39
673.046	3963.33
673.237	3926.47
673.428	3871.17
673.619	3940.8
673.809	3959.24
674	3881.41
674.191	3893.7
674.382	3865.03
674.573	3789.25
674.764	3912.13
674.954	3811.78
675.145	3719.62
675.336	3873.22
675.527	3805.64
675.717	3754.44
675.908	3824.07
676.099	3838.41
676.289	3942.85
676.48	3811.78
676.671	3764.68
676.861	3731.91
677.052	3918.28
677.243	3922.37
677.433	3779.01
677.624	3750.34
677.814	3875.27
678.005	3883.46
678.195	3830.21
678.386	3922.37
678.576	3770.82
678.767	3801.54
678.957	3842.5
679.148	3852.74
679.338	3905.99
679.529	3852.74
679.719	3856.84
679.909	3813.83
680.1	3914.18
680.29	3875.27
680.481	3787.21
680.671	3840.45
680.861	3879.36
681.052	3903.94
681.242	3807.69
681.432	3891.65
681.622	3801.54
681.813	3719.62
682.003	3793.35
682.193	3658.18
682.383	3809.73
682.573	3875.27
682.764	3756.49
682.954	3690.95
683.144	3826.12
683.334	3877.32
683.524	3867.08
683.714	3809.73
683.904	3758.53
684.094	3785.16
684.284	3721.67
684.474	3867.08
684.664	3799.49
684.854	3822.02
685.044	3721.67
685.234	3813.83
685.424	3647.94
685.614	3719.62
685.804	3670.47
685.994	3721.67
686.184	3830.21
686.374	3746.25
686.564	3631.56
686.753	3652.04
686.943	3598.79
687.133	3647.94
687.323	3713.48
687.513	3496.39
687.702	3525.07
687.892	3549.64
688.082	3541.45
688.272	3643.85
688.461	3627.46
688.651	3740.1
688.841	3643.85
689.03	3500.49
689.22	3508.68
689.41	3492.3
689.599	3389.9
689.789	3428.81
689.979	3443.15
690.168	3379.66
690.358	3303.89
690.547	3324.37
690.737	3523.02
690.926	3293.65
691.116	3277.26
691.305	3353.04
691.495	3246.54
691.684	3189.2
691.874	3199.44
692.063	3217.87
692.252	3281.36
692.442	3340.75
692.631	3279.31
692.82	3051.99
693.01	3295.69
693.199	3092.94
693.388	3172.82
693.578	3176.91
693.767	3123.66
693.956	3133.9
694.146	3109.33
694.335	3252.69
694.524	3197.39
694.713	3058.13
694.902	3135.95
695.092	3011.03
695.281	3084.75
695.47	3097.04
695.659	2912.72
695.848	3058.13
696.037	3092.94
696.226	3017.17
696.415	3013.07
696.604	3058.13
696.793	3008.98
696.982	2984.4
697.171	3045.84
697.36	2943.44
697.549	2929.11
697.738	2902.48
697.927	2830.8
698.116	2935.25
698.305	2845.14
698.494	3004.88
698.683	2988.5
698.872	2941.4
699.061	3084.75
699.25	2925.01
699.438	3051.99
699.627	2935.25
699.816	3060.18
700.005	2927.06
700.193	3066.32
700.382	3047.89
700.571	2882
700.76	2890.2
700.948	2998.74
701.137	2843.09
701.326	2963.92
701.514	2961.87
701.703	2976.21
701.892	2877.91
702.08	3082.7
702.269	2943.44
702.457	3000.79
702.646	3056.08
702.834	2908.63
703.023	2931.16
703.212	2976.21
703.4	2927.06
703.589	2873.81
703.777	2873.81
703.965	3004.88
704.154	2957.78
704.342	2826.71
704.531	2996.69
704.719	3011.03
704.907	2953.68
705.096	2927.06
705.284	2951.63
705.472	3035.6
705.661	3037.65
705.849	2974.16
706.037	3183.06
706.226	2992.59
706.414	2947.54
706.602	3035.6
706.79	3023.31
706.979	3066.32
707.167	3033.55
707.355	2970.07
707.543	3140.05
707.731	3148.24
707.919	3113.42
708.107	3043.79
708.296	2959.83
708.484	3017.17
708.672	3043.79
708.86	3174.86
709.048	3172.82
709.236	2994.64
709.424	3174.86
709.612	3019.22
709.8	3000.79
709.988	3082.7
710.176	3262.93
710.364	3164.62
710.551	3060.18
710.739	3049.94
710.927	3064.27
711.115	3221.97
711.303	3215.82
711.491	3150.29
711.679	3189.2
711.866	3076.56
712.054	3232.21
712.242	3176.91
712.43	3287.5
712.617	3226.06
712.805	3201.49
712.993	3060.18
713.181	3213.77
713.368	3217.87
713.556	3279.31
713.744	3162.58
713.931	3346.89
714.119	3262.93
714.306	3199.44
714.494	3174.86
714.682	3273.17
714.869	3236.3
715.057	3293.65
715.244	3219.92
715.432	3359.18
715.619	3250.64
715.807	3283.41
715.994	3314.13
716.182	3279.31
716.369	3439.05
716.556	3301.84
716.744	3295.69
716.931	3326.41
717.119	3408.33
717.306	3408.33
717.493	3267.02
717.681	3355.08
717.868	3330.51
718.055	3367.37
718.242	3361.23
718.43	3557.83
718.617	3547.59
718.804	3492.3
718.991	3361.23
719.179	3400.14
719.366	3373.52
719.553	3410.38
719.74	3506.63
719.927	3490.25
720.114	3467.72
720.301	3307.98
720.488	3453.39
720.676	3363.28
720.863	3490.25
721.05	3482.06
721.237	3461.58
721.424	3559.88
721.611	3578.31
721.798	3525.07
721.985	3631.56
722.172	3434.96
722.358	3566.03
722.545	3463.63
722.732	3449.29
722.919	3719.62
723.106	3598.79
723.293	3457.48
723.48	3658.18
723.667	3482.06
723.853	3588.55
724.04	3557.83
724.227	3520.97
724.414	3568.07
724.6	3617.22
724.787	3656.14
724.974	3783.11
725.161	3625.42
725.347	3416.52
725.534	3641.8
725.72	3566.03
725.907	3617.22
726.094	3707.34
726.28	3582.41
726.467	3717.58
726.653	3623.37
726.84	3770.82
727.027	3699.14
727.213	3547.59
727.4	3684.81
727.586	3760.58
727.773	3625.42
727.959	3762.63
728.145	3697.1
728.332	3654.09
728.518	3848.65
728.705	3807.69
728.891	3537.35
729.077	3733.96
729.264	3592.65
729.45	3764.68
729.636	3768.77
729.823	3721.67
730.009	3664.33
730.195	3756.49
730.382	3750.34
730.568	3770.82
730.754	3668.42
730.94	3736.01
731.126	3672.52
731.313	3819.97
731.499	3660.23
731.685	3690.95
731.871	3774.92
732.057	3772.87
732.243	3807.69
732.429	3805.64
732.615	3758.53
732.801	3758.53
732.987	3770.82
733.173	3752.39
733.359	3883.46
733.545	3756.49
733.731	3693
733.917	3803.59
734.103	3834.31
734.289	3783.11
734.475	3766.73
734.661	3740.1
734.847	3840.45
735.033	3676.62
735.219	3813.83
735.404	3848.65
735.59	3844.55
735.776	3836.36
735.962	3787.21
736.148	3819.97
736.333	3725.77
736.519	3733.96
736.705	3985.86
736.89	3738.05
737.076	3819.97
737.262	3879.36
737.447	3809.73
737.633	3725.77
737.819	3811.78
738.004	3684.81
738.19	3779.01
738.375	3830.21
738.561	3731.91
738.747	3746.25
738.932	3824.07
739.118	3787.21
739.303	3680.71
739.489	3699.14
739.674	3656.14
739.859	3639.75
740.045	3645.9
740.23	3672.52
740.416	3543.5
740.601	3613.13
740.786	3543.5
740.972	3539.4
741.157	3492.3
741.342	3606.98
741.528	3516.87
741.713	3625.42
741.898	3443.15
742.084	3557.83
742.269	3652.04
742.454	3688.9
742.639	3639.75
742.824	3459.53
743.01	3467.72
743.195	3549.64
743.38	3457.48
743.565	3592.65
743.75	3494.35
743.935	3486.15
744.12	3563.98
744.305	3264.97
744.49	3267.02
744.675	3346.89
744.86	3467.72
745.045	3389.9
745.23	3369.42
745.415	3312.08
745.6	3412.43
745.785	3291.6
745.97	3312.08
746.155	3228.11
746.34	3344.84
746.525	3262.93
746.71	3209.68
746.895	3135.95
747.079	3103.18
747.264	3082.7
747.449	3224.01
747.634	3025.36
747.819	3123.66
748.003	3074.51
748.188	2976.21
748.373	3045.84
748.557	3170.77
748.742	3060.18
748.927	3035.6
749.111	3033.55
749.296	2908.63
749.481	3080.66
749.665	3068.37
749.85	2910.68
750.034	2869.72
750.219	2877.91
750.404	2824.66
750.588	2744.79
750.773	2763.22
750.957	2961.87
751.141	2865.62
751.326	2695.64
751.51	2775.51
751.695	2630.1
751.879	2757.08
752.064	2740.69
752.248	2679.26
752.432	2640.34
752.617	2591.19
752.801	2628.06
752.985	2673.11
753.17	2593.24
753.354	2626.01
753.538	2513.37
753.722	2542.04
753.907	2535.9
754.091	2443.74
754.275	2546.14
754.459	2443.74
754.643	2515.42
754.828	2484.7
755.012	2353.63
755.196	2327
755.38	2390.49
755.564	2292.19
755.748	2316.76
755.932	2382.3
756.116	2410.97
756.3	2388.44
756.484	2335.2
756.668	2357.72
756.852	2277.85
757.036	2212.32
757.22	2173.41
757.404	2099.68
757.588	2152.93
757.772	2138.59
757.956	2220.51
758.14	2073.06
758.323	2126.3
758.507	2132.45
758.691	2023.91
758.875	2038.24
759.059	2214.37
759.242	2001.38
759.426	1964.51
759.61	1962.47
759.794	2038.24
759.977	1927.65
760.161	2028
760.345	2101.73
760.528	1968.61
760.712	1903.07
760.895	1935.84
761.079	1868.26
761.263	1847.78
761.446	1794.53
761.63	1855.97
761.813	1960.42
761.997	1821.16
762.18	1849.83
762.364	1821.16
762.547	1929.7
762.731	1765.86
762.914	1849.83
763.098	1774.05
763.281	1858.02
763.464	1735.14
763.648	1860.07
763.831	1669.61
764.015	1667.56
764.198	1761.77
764.381	1815.01
764.564	1647.08
764.748	1763.81
764.931	1642.98
765.114	1663.46
765.297	1778.15
765.481	1628.65
765.664	1665.51
765.847	1733.09
766.03	1710.57
766.213	1591.78
766.397	1552.87
766.58	1642.98
766.763	1579.5
766.946	1616.36
767.129	1518.06
767.312	1647.08
767.495	1513.96
767.678	1563.11
767.861	1581.54
768.044	1436.14
768.227	1575.4
768.41	1638.89
768.593	1665.51
768.776	1567.21
768.959	1530.34
769.142	1563.11
769.324	1501.67
769.507	1520.1
769.69	1348.08
769.873	1593.83
770.056	1591.78
770.239	1489.39
770.421	1518.06
770.604	1364.46
770.787	1450.47
770.97	1403.37
771.152	1446.38
771.335	1362.41
771.518	1374.7
771.7	1456.62
771.883	1505.77
772.066	1405.42
772.248	1337.84
772.431	1303.02
772.613	1395.18
772.796	1303.02
772.978	1323.5
773.161	1372.65
773.343	1309.16
773.526	1364.46
773.708	1260.01
773.891	1282.54
774.073	1233.39
774.256	1331.69
774.438	1288.68
774.621	1221.1
774.803	1241.58
774.985	1223.15
775.168	1245.68
775.35	1227.25
775.532	1253.87
775.715	1270.25
775.897	1167.85
776.079	1147.37
776.261	1165.81
776.444	1200.62
776.626	1257.96
776.808	1120.75
776.99	1167.85
777.173	1194.48
777.355	1092.08
777.537	1145.33
777.719	1049.07
777.901	1096.18
778.083	1020.4
778.265	1155.57
778.447	1102.32
778.629	975.35
778.811	1067.5
778.993	1128.94
779.175	1059.31
779.357	1081.84
779.539	965.11
779.721	1008.11
779.903	1016.3
780.085	977.39
780.267	1018.35
780.449	1049.07
780.631	1006.06
780.812	965.11
780.994	928.24
781.176	997.87
781.358	889.33
781.54	879.09
781.721	977.39
781.903	928.24
782.085	922.1
782.267	862.71
782.448	895.47
782.63	887.28
782.812	788.98
782.993	895.47
783.175	956.91
783.357	864.75
783.538	838.13
783.72	825.84
783.901	901.62
784.083	813.56
784.264	844.28
784.446	725.49
784.627	821.75
784.809	762.36
784.99	807.41
785.172	899.57
785.353	760.31
785.535	805.36
785.716	731.64
785.897	721.4
786.079	813.56
786.26	731.64
786.441	717.3
786.623	702.97
786.804	727.54
786.985	686.58
787.167	743.92
787.348	717.3
787.529	758.26
787.71	770.55
787.891	610.81
788.073	715.25
788.254	651.77
788.435	795.12
788.616	655.86
788.797	635.38
788.978	723.44
789.159	602.61
789.34	633.33
789.522	604.66
789.703	627.19
789.884	705.01
790.065	727.54
790.246	631.29
790.427	569.85
790.607	680.44
790.788	635.38
790.969	631.29
791.15	557.56
791.331	608.76
791.512	582.14
791.693	559.61
791.874	506.36
792.054	659.96
792.235	565.75
792.416	528.89
792.597	600.57
792.778	561.66
792.958	551.42
793.139	553.46
793.32	551.42
793.5	535.03
793.681	528.89
793.862	520.7
794.042	522.74
794.223	522.74
794.404	479.74
794.584	530.94
794.765	463.35
794.945	453.11
795.126	510.46
795.306	569.85
795.487	522.74
795.667	485.88
795.848	500.22
796.028	457.21
796.209	469.5
796.389	516.6
796.57	444.92
796.75	360.95
796.93	510.46
797.111	459.26
797.291	504.31
797.471	457.21
797.652	420.35
797.832	449.02
798.012	494.07
798.192	492.02
798.373	438.78
798.553	514.55
798.733	453.11
798.913	403.96
799.093	449.02
799.274	379.39
799.454	502.26
799.634	455.16
799.814	578.04
799.994	463.35
800.174	473.59
800.354	428.54
800.534	416.25
800.714	356.86
800.894	410.11
801.074	358.91
801.254	371.19
801.434	348.67
801.614	395.77
801.794	356.86
801.974	1227.25
802.154	317.95
802.334	451.07
802.514	365.05
802.693	332.28
802.873	334.33
803.053	412.15
803.233	408.06
803.413	344.57
803.592	397.82
803.772	420.35
803.952	338.43
804.131	293.37
804.311	360.95
804.491	356.86
804.67	383.48
804.85	342.52
805.03	369.15
805.209	356.86
805.389	367.1
805.568	385.53
805.748	254.46
805.928	338.43
806.107	295.42
806.287	354.81
806.466	365.05
806.646	317.95
806.825	338.43
807.004	309.76
807.184	391.67
807.363	350.71
807.543	365.05
807.722	236.03
807.901	375.29
808.081	262.65
808.26	305.66
808.439	367.1
808.619	352.76
808.798	283.13
808.977	281.08
809.156	328.19
809.336	334.33
809.515	334.33
809.694	291.32
809.873	305.66
810.052	342.52
810.231	334.33
810.411	246.27
810.59	272.89
810.769	309.76
810.948	332.28
811.127	207.36
811.306	264.7
811.485	258.56
811.664	389.63
811.843	315.9
812.022	293.37
812.201	315.9
812.38	217.6
812.559	248.32
812.737	291.32
812.916	188.93
813.095	238.08
813.274	254.46
813.453	311.8
813.632	264.7
813.811	332.28
813.989	227.84
814.168	305.66
814.347	203.26
814.526	244.22
814.704	336.38
814.883	281.08
815.062	244.22
815.24	313.85
815.419	180.73
815.598	311.8
815.776	203.26
815.955	223.74
816.133	219.64
816.312	172.54
816.49	258.56
816.669	223.74
816.847	258.56
817.026	246.27
817.204	266.75
817.383	184.83
817.561	236.03
817.74	260.6
817.918	289.28
818.097	145.92
818.275	225.79
818.453	305.66
818.632	217.6
818.81	281.08
818.988	307.71
819.167	209.4
819.345	217.6
819.523	135.68
819.701	205.31
819.879	233.98
820.058	236.03
820.236	227.84
820.414	256.51
820.592	215.55
820.77	135.68
820.948	152.06
821.127	231.93
821.305	188.93
821.483	205.31
821.661	209.4
821.839	240.12
822.017	227.84
822.195	178.69
822.373	152.06
822.551	225.79
822.729	199.16
822.907	193.02
823.085	215.55
823.262	221.69
823.44	154.11
823.618	184.83
823.796	213.5
823.974	139.77
824.152	219.64
824.329	207.36
824.507	180.73
824.685	156.16
824.863	233.98
825.04	168.45
825.218	150.01
825.396	164.35
825.574	174.59
825.751	197.12
825.929	193.02
826.107	147.97
826.284	160.25
826.462	127.49
826.639	98.81
826.817	109.05
826.994	195.07
827.172	141.82
827.349	258.56
827.527	199.16
827.704	193.02
827.882	209.4
828.059	152.06
828.237	190.97
828.414	164.35
828.591	45.57
828.769	117.25
828.946	113.15
829.124	188.93
829.301	233.98
829.478	158.21
829.655	154.11
829.833	51.71
830.01	117.25
830.187	170.49
830.364	156.16
830.542	150.01
830.719	193.02
830.896	145.92
831.073	170.49
831.25	64
831.427	197.12
831.604	152.06
831.782	117.25
831.959	180.73
832.136	102.91
832.313	66.05
832.49	98.81
832.667	125.44
832.844	92.67
833.021	190.97
833.198	158.21
833.374	182.78
833.551	100.86
833.728	150.01
833.905	180.73
834.082	18.94
834.259	115.2
834.436	205.31
834.612	113.15
834.789	184.83
834.966	94.72
835.143	121.34
835.319	55.81
835.496	205.31
835.673	158.21
835.85	102.91
836.026	59.9
836.203	197.12
836.38	68.09
836.556	86.53
836.733	125.44
836.909	125.44
837.086	39.42
837.262	94.72
837.439	88.57
837.616	57.86
837.792	94.72
837.968	115.2
838.145	43.52
838.321	135.68
838.498	117.25
838.674	57.86
838.851	123.39
839.027	55.81
839.203	121.34
839.38	129.53
839.556	86.53
839.732	193.02
839.909	70.14
840.085	129.53
840.261	53.76
840.437	92.67
840.614	37.38
840.79	131.58
840.966	156.16
841.142	121.34
841.318	47.62
841.494	172.54
841.671	119.29
841.847	43.52
842.023	137.73
842.199	119.29
842.375	168.45
842.551	84.48
842.727	102.91
842.903	125.44
843.079	16.9
843.255	100.86
843.431	2.56
843.607	133.63
843.783	86.53
843.959	59.9
844.134	94.72
844.31	80.38
844.486	55.81
844.662	0.51
844.838	113.15
845.013	94.72
845.189	139.77
845.365	104.96
845.541	-15.87
845.716	133.63
845.892	47.62
846.068	68.09
846.244	117.25
846.419	86.53
846.595	20.99
846.77	84.48
846.946	90.62
847.122	133.63
847.297	51.71
847.473	125.44
847.648	61.95
847.824	109.05
847.999	51.71
848.175	82.43
848.35	156.16
848.526	117.25
848.701	96.77
848.876	145.92
849.052	113.15
849.227	111.1
849.403	49.66
849.578	90.62
849.753	94.72
849.929	39.42
850.104	70.14
850.279	107.01
850.454	68.09
850.63	86.53
850.805	86.53
850.98	143.87
851.155	76.29
851.33	129.53
851.505	0.51
851.681	125.44
851.856	4.61
852.031	98.81
852.206	57.86
852.381	-3.58
852.556	117.25
852.731	109.05
852.906	84.48
853.081	100.86
853.256	193.02
853.431	64
853.606	90.62
853.781	76.29
853.956	49.66
854.131	23.04
854.305	61.95
854.48	31.23
854.655	86.53
854.83	68.09
855.005	-13.82
855.18	68.09
855.354	143.87
855.529	135.68
855.704	70.14
855.879	29.18
856.053	92.67
856.228	102.91
856.403	43.52
856.577	119.29
856.752	61.95
856.926	100.86
857.101	76.29
857.276	-34.3
857.45	45.57
857.625	133.63
857.799	4.61
857.974	59.9
858.148	41.47
858.323	119.29
858.497	53.76
858.672	23.04
858.846	55.81
859.02	59.9
859.195	35.33
859.369	6.66
859.543	18.94
859.718	27.14
859.892	64
860.066	84.48
860.241	51.71
860.415	53.76
860.589	53.76
860.763	14.85
860.938	20.99
861.112	113.15
861.286	-7.68
861.46	0.51
861.634	25.09
861.808	76.29
861.982	45.57
862.157	10.75
862.331	-11.78
862.505	68.09
862.679	14.85
862.853	6.66
863.027	2.56
863.201	84.48
863.375	35.33
863.549	78.33
863.722	18.94
863.896	31.23
864.07	109.05
864.244	47.62
864.418	45.57
864.592	43.52
864.766	84.48
864.939	53.76
865.113	45.57
865.287	121.34
865.461	16.9
865.634	33.28
865.808	117.25
865.982	-19.97
866.156	-30.21
866.329	-3.58
866.503	0.51
866.676	41.47
866.85	27.14
867.024	-1.54
867.197	100.86
867.371	-11.78
867.544	111.1
867.718	-40.45
867.891	39.42
868.065	31.23
868.238	-1.54
868.412	27.14
868.585	76.29
868.759	33.28
868.932	35.33
869.105	27.14
869.279	37.38
869.452	6.66
869.625	41.47
869.799	29.18
869.972	-58.88
870.145	-13.82
870.319	68.09
870.492	37.38
870.665	14.85
870.838	43.52
871.011	-17.92
871.185	31.23
871.358	43.52
871.531	100.86
871.704	12.8
871.877	18.94
872.05	-7.68
872.223	0.51
872.396	51.71
872.569	-34.3
872.742	-67.07
872.915	61.95
873.088	0.51
873.261	14.85
873.434	-30.21
873.607	59.9
873.78	47.62
873.953	-62.98
874.126	31.23
874.299	16.9
874.471	14.85
874.644	45.57
874.817	76.29
874.99	137.73
875.163	55.81
875.335	51.71
875.508	27.14
875.681	121.34
875.853	6.66
876.026	8.7
876.199	2.56
876.371	23.04
876.544	27.14
876.717	49.66
876.889	4.61
877.062	20.99
877.234	20.99
877.407	12.8
877.579	25.09
877.752	84.48
877.924	2.56
878.097	117.25
878.269	-13.82
878.442	53.76
878.614	94.72
878.786	33.28
878.959	31.23
879.131	57.86
879.303	51.71
879.476	41.47
879.648	59.9
879.82	33.28
879.993	2.56
880.165	37.38
880.337	-11.78
880.509	80.38
880.681	-17.92
880.854	14.85
881.026	92.67
881.198	123.39
881.37	2.56
881.542	6.66
881.714	10.75
881.886	14.85
882.058	-11.78
882.23	-34.3
882.402	68.09
882.574	31.23
882.746	31.23
882.918	70.14
883.09	70.14
883.262	-69.12
883.434	37.38
883.606	6.66
883.778	-89.6
883.95	70.14
884.122	18.94
884.293	96.77
884.465	55.81
884.637	129.53
884.809	37.38
884.98	76.29
885.152	23.04
885.324	86.53
885.496	-3.58
885.667	76.29
885.839	-79.36
886.011	57.86
886.182	55.81
886.354	80.38
886.525	39.42
886.697	10.75
886.869	-19.97
887.04	37.38
887.212	-22.02
887.383	100.86
887.555	-3.58
887.726	49.66
887.897	45.57
888.069	25.09
888.24	45.57
888.412	55.81
888.583	-11.78
888.754	6.66
888.926	-17.92
889.097	43.52
889.268	-13.82
889.44	37.38
889.611	-22.02
889.782	27.14
889.953	-3.58
890.125	113.15
890.296	-36.35
890.467	0.51
890.638	-30.21
890.809	41.47
890.98	-58.88
891.151	-22.02
891.323	121.34
891.494	10.75
891.665	2.56
891.836	12.8
892.007	-19.97
892.178	2.56
892.349	12.8
892.52	-3.58
892.691	-5.63
892.862	-22.02
893.032	-65.02
893.203	-22.02
893.374	61.95
893.545	74.24
893.716	-60.93
893.887	39.42
894.057	117.25
894.228	-19.97
894.399	0.51
894.57	86.53
894.74	4.61
894.911	61.95
895.082	-34.3
895.253	-112.13
895.423	31.23
895.594	27.14
895.764	123.39
895.935	-69.12
896.106	59.9
896.276	43.52
896.447	23.04
896.617	-56.83
896.788	16.9
896.958	-22.02
897.129	-75.26
897.299	4.61
897.47	39.42
897.64	70.14
897.81	51.71
897.981	45.57
898.151	-7.68
898.322	37.38
898.492	51.71
898.662	4.61
898.832	64
899.003	92.67
899.173	43.52
899.343	-17.92
899.513	12.8
