Data from USB4F104151__34__13-04-51-808.txt Node

Date: Fri Mar 14 13:04:51 EDT 2025
User: louis
Spectrometer: USB4F10415
Trigger mode: 4
Integration Time (sec): 4.000000E-2
Scans to average: 1
Electric dark correction enabled: true
Nonlinearity correction enabled: false
Boxcar width: 0
XAxis mode: Wavelengths
Number of Pixels in Spectrum: 3648
>>>>>Begin Spectral Data<<<<<
178.204	-160.42
178.424	-160.42
178.644	-160.42
178.864	-203.43
179.084	-162.47
179.304	-23.21
179.524	-31.4
179.744	-62.12
179.964	48.47
180.184	62.8
180.404	34.13
180.624	-8.87
180.844	40.28
181.064	-82.6
181.283	25.94
181.503	-21.16
181.723	17.75
181.943	-0.68
182.163	75.09
182.383	-8.87
182.602	48.47
182.822	32.08
183.042	34.13
183.262	-45.74
183.482	-31.4
183.701	-37.55
183.921	-29.35
184.141	-15.02
184.361	73.04
184.58	95.57
184.8	-8.87
185.02	79.19
185.239	36.18
185.459	66.9
185.679	81.24
185.898	-55.98
186.118	79.19
186.338	27.99
186.557	-6.83
186.777	-33.45
186.997	-37.55
187.216	62.8
187.436	128.34
187.655	7.51
187.875	50.52
188.095	-19.11
188.314	44.37
188.534	99.67
188.753	91.48
188.973	148.82
189.192	75.09
189.412	71
189.631	25.94
189.851	36.18
190.07	34.13
190.29	-15.02
190.509	1.37
190.729	17.75
190.948	91.48
191.168	222.55
191.387	93.52
191.607	-21.16
191.826	27.99
192.045	36.18
192.265	7.51
192.484	25.94
192.704	3.41
192.923	-4.78
193.142	142.68
193.362	27.99
193.581	21.85
193.8	83.28
194.02	66.9
194.239	73.04
194.458	25.94
194.678	-33.45
194.897	19.8
195.116	46.42
195.335	21.85
195.555	13.65
195.774	36.18
195.993	93.52
196.212	-6.83
196.432	46.42
196.651	77.14
196.87	44.37
197.089	124.24
197.308	52.56
197.528	54.61
197.747	15.7
197.966	56.66
198.185	79.19
198.404	-68.27
198.623	77.14
198.842	56.66
199.062	114
199.281	126.29
199.5	5.46
199.719	77.14
199.938	54.61
200.157	116.05
200.376	3.41
200.595	77.14
200.814	44.37
201.033	44.37
201.252	142.68
201.471	58.71
201.69	138.58
201.909	62.8
202.128	52.56
202.347	23.89
202.566	-43.69
202.785	-45.74
203.004	3.41
203.223	148.82
203.442	116.05
203.661	17.75
203.879	-10.92
204.098	-8.87
204.317	34.13
204.536	58.71
204.755	-4.78
204.974	75.09
205.193	77.14
205.411	58.71
205.63	42.32
205.849	5.46
206.068	1.37
206.287	124.24
206.505	114
206.724	50.52
206.943	1.37
207.162	-31.4
207.381	1.37
207.599	42.32
207.818	73.04
208.037	11.61
208.255	95.57
208.474	52.56
208.693	71
208.911	32.08
209.13	44.37
209.349	-0.68
209.567	73.04
209.786	36.18
210.005	101.72
210.223	-10.92
210.442	19.8
210.661	79.19
210.879	75.09
211.098	27.99
211.316	68.95
211.535	101.72
211.753	42.32
211.972	118.1
212.191	77.14
212.409	105.81
212.628	116.05
212.846	11.61
213.065	89.43
213.283	87.38
213.502	50.52
213.72	34.13
213.938	50.52
214.157	58.71
214.375	73.04
214.594	-49.83
214.812	-8.87
215.031	54.61
215.249	85.33
215.467	9.56
215.686	34.13
215.904	60.76
216.122	71
216.341	132.44
216.559	42.32
216.778	73.04
216.996	91.48
217.214	54.61
217.432	58.71
217.651	-6.83
217.869	62.8
218.087	81.24
218.306	-58.03
218.524	40.28
218.742	-6.83
218.96	-39.59
219.179	52.56
219.397	66.9
219.615	130.39
219.833	21.85
220.051	-21.16
220.27	83.28
220.488	44.37
220.706	101.72
220.924	9.56
221.142	-39.59
221.36	-2.73
221.578	52.56
221.796	36.18
222.015	73.04
222.233	1.37
222.451	83.28
222.669	44.37
222.887	75.09
223.105	5.46
223.323	-21.16
223.541	-23.21
223.759	38.23
223.977	79.19
224.195	-4.78
224.413	111.96
224.631	17.75
224.849	48.47
225.067	148.82
225.285	-12.97
225.503	79.19
225.721	-0.68
225.939	21.85
226.157	58.71
226.375	142.68
226.592	34.13
226.81	-15.02
227.028	75.09
227.246	107.86
227.464	75.09
227.682	3.41
227.9	64.85
228.117	56.66
228.335	-15.02
228.553	54.61
228.771	54.61
228.989	13.65
229.206	25.94
229.424	36.18
229.642	-15.02
229.86	48.47
230.077	99.67
230.295	19.8
230.513	44.37
230.731	36.18
230.948	60.76
231.166	87.38
231.384	62.8
231.601	25.94
231.819	128.34
232.037	25.94
232.254	54.61
232.472	5.46
232.689	44.37
232.907	89.43
233.125	34.13
233.342	44.37
233.56	-21.16
233.777	40.28
233.995	32.08
234.213	77.14
234.43	-17.07
234.648	27.99
234.865	-15.02
235.083	58.71
235.3	52.56
235.518	3.41
235.735	118.1
235.953	34.13
236.17	58.71
236.388	42.32
236.605	50.52
236.822	83.28
237.04	50.52
237.257	48.47
237.475	-51.88
237.692	58.71
237.909	68.95
238.127	30.04
238.344	1.37
238.562	68.95
238.779	77.14
238.996	36.18
239.214	81.24
239.431	75.09
239.648	5.46
239.865	36.18
240.083	118.1
240.3	66.9
240.517	42.32
240.735	95.57
240.952	140.63
241.169	64.85
241.386	13.65
241.603	17.75
241.821	17.75
242.038	68.95
242.255	103.76
242.472	27.99
242.689	46.42
242.907	38.23
243.124	52.56
243.341	85.33
243.558	-12.97
243.775	3.41
243.992	15.7
244.209	23.89
244.426	32.08
244.643	81.24
244.86	25.94
245.078	62.8
245.295	54.61
245.512	42.32
245.729	-17.07
245.946	17.75
246.163	21.85
246.38	68.95
246.597	27.99
246.814	-15.02
247.031	-17.07
247.248	132.44
247.464	54.61
247.681	46.42
247.898	64.85
248.115	71
248.332	-6.83
248.549	64.85
248.766	44.37
248.983	85.33
249.2	15.7
249.417	103.76
249.633	44.37
249.85	13.65
250.067	-29.35
250.284	-37.55
250.501	83.28
250.717	62.8
250.934	-49.83
251.151	-6.83
251.368	34.13
251.585	159.06
251.801	71
252.018	42.32
252.235	99.67
252.451	-8.87
252.668	19.8
252.885	75.09
253.102	11.61
253.318	52.56
253.535	9.56
253.752	19.8
253.968	54.61
254.185	83.28
254.401	34.13
254.618	83.28
254.835	-53.93
255.051	42.32
255.268	75.09
255.484	60.76
255.701	64.85
255.917	36.18
256.134	58.71
256.351	54.61
256.567	27.99
256.784	1.37
257	19.8
257.217	105.81
257.433	128.34
257.65	132.44
257.866	54.61
258.082	52.56
258.299	34.13
258.515	9.56
258.732	23.89
258.948	38.23
259.165	42.32
259.381	-31.4
259.597	64.85
259.814	64.85
260.03	48.47
260.246	109.91
260.463	-19.11
260.679	54.61
260.895	19.8
261.112	101.72
261.328	64.85
261.544	21.85
261.761	120.15
261.977	30.04
262.193	23.89
262.409	56.66
262.626	-10.92
262.842	19.8
263.058	25.94
263.274	91.48
263.49	107.86
263.707	122.2
263.923	58.71
264.139	126.29
264.355	32.08
264.571	87.38
264.787	21.85
265.004	66.9
265.22	101.72
265.436	27.99
265.652	-15.02
265.868	66.9
266.084	-68.27
266.3	56.66
266.516	66.9
266.732	44.37
266.948	36.18
267.164	-0.68
267.38	17.75
267.596	66.9
267.812	85.33
268.028	13.65
268.244	-29.35
268.46	3.41
268.676	3.41
268.892	75.09
269.108	25.94
269.324	50.52
269.54	-17.07
269.756	122.2
269.972	-55.98
270.188	-21.16
270.403	-19.11
270.619	11.61
270.835	91.48
271.051	95.57
271.267	15.7
271.483	60.76
271.698	77.14
271.914	50.52
272.13	17.75
272.346	-31.4
272.562	93.52
272.777	50.52
272.993	-23.21
273.209	-19.11
273.425	154.96
273.64	77.14
273.856	62.8
274.072	64.85
274.287	9.56
274.503	34.13
274.719	128.34
274.934	46.42
275.15	-25.26
275.366	46.42
275.581	5.46
275.797	73.04
276.012	44.37
276.228	44.37
276.444	32.08
276.659	75.09
276.875	56.66
277.09	-29.35
277.306	36.18
277.521	91.48
277.737	85.33
277.952	75.09
278.168	7.51
278.383	75.09
278.599	-0.68
278.814	83.28
279.03	9.56
279.245	34.13
279.461	19.8
279.676	32.08
279.892	-64.17
280.107	-64.17
280.322	44.37
280.538	25.94
280.753	9.56
280.969	54.61
281.184	68.95
281.399	77.14
281.615	17.75
281.83	56.66
282.045	-19.11
282.26	13.65
282.476	50.52
282.691	-21.16
282.906	79.19
283.122	58.71
283.337	-78.51
283.552	34.13
283.767	7.51
283.983	120.15
284.198	64.85
284.413	25.94
284.628	5.46
284.843	36.18
285.058	58.71
285.274	48.47
285.489	-2.73
285.704	85.33
285.919	27.99
286.134	1.37
286.349	32.08
286.564	1.37
286.779	111.96
286.995	38.23
287.21	71
287.425	38.23
287.64	68.95
287.855	36.18
288.07	23.89
288.285	120.15
288.5	85.33
288.715	54.61
288.93	42.32
289.145	-29.35
289.36	42.32
289.575	60.76
289.79	3.41
290.004	77.14
290.219	75.09
290.434	120.15
290.649	75.09
290.864	11.61
291.079	-55.98
291.294	34.13
291.509	101.72
291.724	42.32
291.938	48.47
292.153	52.56
292.368	7.51
292.583	157.01
292.798	107.86
293.012	60.76
293.227	30.04
293.442	48.47
293.657	60.76
293.871	73.04
294.086	60.76
294.301	197.97
294.516	126.29
294.73	23.89
294.945	-15.02
295.16	-0.68
295.374	120.15
295.589	124.24
295.804	-10.92
296.018	30.04
296.233	197.97
296.447	9.56
296.662	48.47
296.877	52.56
297.091	73.04
297.306	103.76
297.52	85.33
297.735	68.95
297.949	52.56
298.164	66.9
298.378	75.09
298.593	23.89
298.807	101.72
299.022	9.56
299.236	81.24
299.451	-33.45
299.665	34.13
299.88	34.13
300.094	66.9
300.309	50.52
300.523	60.76
300.737	19.8
300.952	42.32
301.166	19.8
301.381	11.61
301.595	48.47
301.809	42.32
302.024	54.61
302.238	-4.78
302.452	111.96
302.667	50.52
302.881	103.76
303.095	68.95
303.309	1.37
303.524	-12.97
303.738	46.42
303.952	40.28
304.166	60.76
304.381	30.04
304.595	107.86
304.809	-8.87
305.023	44.37
305.237	25.94
305.452	-6.83
305.666	130.39
305.88	77.14
306.094	83.28
306.308	56.66
306.522	146.77
306.736	68.95
306.95	109.91
307.164	46.42
307.379	21.85
307.593	68.95
307.807	87.38
308.021	66.9
308.235	54.61
308.449	25.94
308.663	71
308.877	91.48
309.091	32.08
309.305	44.37
309.519	-12.97
309.733	109.91
309.947	17.75
310.161	107.86
310.374	21.85
310.588	101.72
310.802	-29.35
311.016	38.23
311.23	66.9
311.444	-10.92
311.658	7.51
311.872	75.09
312.085	109.91
312.299	50.52
312.513	75.09
312.727	19.8
312.941	-41.64
313.154	17.75
313.368	9.56
313.582	38.23
313.796	32.08
314.009	89.43
314.223	114
314.437	38.23
314.651	32.08
314.864	13.65
315.078	34.13
315.292	48.47
315.505	1.37
315.719	38.23
315.933	34.13
316.146	-39.59
316.36	7.51
316.573	62.8
316.787	36.18
317.001	38.23
317.214	34.13
317.428	9.56
317.641	19.8
317.855	9.56
318.068	126.29
318.282	3.41
318.495	79.19
318.709	54.61
318.922	-4.78
319.136	99.67
319.349	91.48
319.563	34.13
319.776	40.28
319.99	-12.97
320.203	109.91
320.417	126.29
320.63	77.14
320.843	144.72
321.057	42.32
321.27	25.94
321.483	107.86
321.697	32.08
321.91	25.94
322.124	52.56
322.337	68.95
322.55	60.76
322.763	68.95
322.977	19.8
323.19	17.75
323.403	54.61
323.617	1.37
323.83	109.91
324.043	85.33
324.256	17.75
324.469	30.04
324.683	148.82
324.896	56.66
325.109	77.14
325.322	5.46
325.535	99.67
325.748	71
325.962	-27.31
326.175	-10.92
326.388	17.75
326.601	120.15
326.814	85.33
327.027	11.61
327.24	109.91
327.453	-8.87
327.666	50.52
327.879	91.48
328.092	44.37
328.305	27.99
328.518	-25.26
328.731	-23.21
328.944	111.96
329.157	111.96
329.37	101.72
329.583	128.34
329.796	64.85
330.009	-60.07
330.222	23.89
330.435	85.33
330.648	91.48
330.861	42.32
331.073	58.71
331.286	19.8
331.499	66.9
331.712	21.85
331.925	81.24
332.138	19.8
332.35	124.24
332.563	3.41
332.776	52.56
332.989	-6.83
333.202	42.32
333.414	-15.02
333.627	91.48
333.84	1.37
334.053	124.24
334.265	-31.4
334.478	25.94
334.691	-23.21
334.903	116.05
335.116	60.76
335.329	77.14
335.541	46.42
335.754	105.81
335.966	1.37
336.179	50.52
336.392	114
336.604	-29.35
336.817	146.77
337.029	36.18
337.242	21.85
337.454	83.28
337.667	-10.92
337.88	40.28
338.092	66.9
338.305	81.24
338.517	62.8
338.729	-21.16
338.942	161.11
339.154	-23.21
339.367	46.42
339.579	38.23
339.792	-2.73
340.004	27.99
340.217	46.42
340.429	30.04
340.641	3.41
340.854	97.62
341.066	38.23
341.278	54.61
341.491	103.76
341.703	77.14
341.915	58.71
342.128	54.61
342.34	17.75
342.552	54.61
342.764	122.2
342.977	-4.78
343.189	77.14
343.401	46.42
343.613	3.41
343.826	-17.07
344.038	-25.26
344.25	-0.68
344.462	40.28
344.674	107.86
344.886	79.19
345.099	138.58
345.311	107.86
345.523	54.61
345.735	-25.26
345.947	38.23
346.159	36.18
346.371	77.14
346.583	62.8
346.795	124.24
347.007	9.56
347.219	50.52
347.431	40.28
347.643	85.33
347.855	30.04
348.067	71
348.279	5.46
348.491	95.57
348.703	91.48
348.915	85.33
349.127	-0.68
349.339	-12.97
349.551	11.61
349.763	111.96
349.975	1.37
350.187	60.76
350.399	58.71
350.61	89.43
350.822	40.28
351.034	68.95
351.246	27.99
351.458	107.86
351.669	85.33
351.881	130.39
352.093	89.43
352.305	54.61
352.517	83.28
352.728	56.66
352.94	27.99
353.152	75.09
353.363	-55.98
353.575	21.85
353.787	95.57
353.999	93.52
354.21	73.04
354.422	107.86
354.633	30.04
354.845	25.94
355.057	52.56
355.268	60.76
355.48	54.61
355.692	44.37
355.903	101.72
356.115	21.85
356.326	-19.11
356.538	66.9
356.749	99.67
356.961	124.24
357.172	40.28
357.384	75.09
357.595	132.44
357.807	-12.97
358.018	3.41
358.23	34.13
358.441	159.06
358.653	30.04
358.864	36.18
359.075	58.71
359.287	-12.97
359.498	60.76
359.709	75.09
359.921	77.14
360.132	107.86
360.344	89.43
360.555	81.24
360.766	85.33
360.977	-2.73
361.189	68.95
361.4	38.23
361.611	54.61
361.823	77.14
362.034	140.63
362.245	46.42
362.456	-6.83
362.667	50.52
362.879	-39.59
363.09	17.75
363.301	58.71
363.512	48.47
363.723	-35.5
363.935	19.8
364.146	157.01
364.357	-19.11
364.568	32.08
364.779	48.47
364.99	191.83
365.201	126.29
365.412	75.09
365.623	-17.07
365.834	68.95
366.045	81.24
366.256	66.9
366.467	17.75
366.678	75.09
366.889	58.71
367.1	11.61
367.311	42.32
367.522	93.52
367.733	25.94
367.944	124.24
368.155	48.47
368.366	21.85
368.577	71
368.788	32.08
368.999	124.24
369.209	93.52
369.42	130.39
369.631	148.82
369.842	58.71
370.053	9.56
370.264	128.34
370.474	126.29
370.685	132.44
370.896	58.71
371.107	103.76
371.317	77.14
371.528	25.94
371.739	163.15
371.95	42.32
372.16	58.71
372.371	83.28
372.582	42.32
372.792	64.85
373.003	85.33
373.214	52.56
373.424	48.47
373.635	77.14
373.846	50.52
374.056	50.52
374.267	87.38
374.477	40.28
374.688	15.7
374.898	79.19
375.109	83.28
375.319	68.95
375.53	75.09
375.74	114
375.951	44.37
376.161	71
376.372	73.04
376.582	-2.73
376.793	130.39
377.003	25.94
377.214	44.37
377.424	9.56
377.635	73.04
377.845	40.28
378.055	103.76
378.266	-29.35
378.476	62.8
378.686	58.71
378.897	52.56
379.107	66.9
379.317	32.08
379.528	60.76
379.738	25.94
379.948	7.51
380.158	44.37
380.369	111.96
380.579	81.24
380.789	56.66
380.999	50.52
381.21	19.8
381.42	109.91
381.63	154.96
381.84	66.9
382.05	105.81
382.261	165.2
382.471	87.38
382.681	103.76
382.891	52.56
383.101	58.71
383.311	21.85
383.521	50.52
383.731	120.15
383.941	91.48
384.151	128.34
384.361	50.52
384.571	159.06
384.781	97.62
384.991	136.53
385.201	105.81
385.411	114
385.621	124.24
385.831	77.14
386.041	126.29
386.251	93.52
386.461	130.39
386.671	21.85
386.881	36.18
387.091	91.48
387.301	85.33
387.511	-21.16
387.72	107.86
387.93	62.8
388.14	77.14
388.35	42.32
388.56	101.72
388.769	101.72
388.979	66.9
389.189	17.75
389.399	62.8
389.609	54.61
389.818	87.38
390.028	87.38
390.238	79.19
390.447	107.86
390.657	97.62
390.867	7.51
391.076	17.75
391.286	101.72
391.496	83.28
391.705	34.13
391.915	111.96
392.125	200.02
392.334	105.81
392.544	128.34
392.753	38.23
392.963	54.61
393.172	157.01
393.382	93.52
393.591	167.25
393.801	62.8
394.01	118.1
394.22	95.57
394.429	136.53
394.639	134.48
394.848	44.37
395.058	107.86
395.267	111.96
395.477	95.57
395.686	120.15
395.895	185.68
396.105	214.35
396.314	21.85
396.524	42.32
396.733	89.43
396.942	181.59
397.152	152.91
397.361	222.55
397.57	136.53
397.78	163.15
397.989	165.2
398.198	165.2
398.407	165.2
398.617	150.87
398.826	165.2
399.035	109.91
399.244	134.48
399.453	101.72
399.663	136.53
399.872	206.16
400.081	116.05
400.29	224.59
400.499	136.53
400.708	114
400.917	77.14
401.127	91.48
401.336	32.08
401.545	171.35
401.754	197.97
401.963	210.26
402.172	136.53
402.381	144.72
402.59	109.91
402.799	144.72
403.008	140.63
403.217	136.53
403.426	193.87
403.635	152.91
403.844	197.97
404.053	167.25
404.262	206.16
404.471	224.59
404.68	140.63
404.888	154.96
405.097	214.35
405.306	146.77
405.515	208.21
405.724	163.15
405.933	247.12
406.142	277.84
406.35	175.44
406.559	273.75
406.768	210.26
406.977	204.11
407.185	251.22
407.394	255.31
407.603	187.73
407.812	259.41
408.02	333.14
408.229	238.93
408.438	329.04
408.646	230.74
408.855	271.7
409.064	329.04
409.272	288.08
409.481	388.43
409.69	314.7
409.898	288.08
410.107	470.35
410.315	435.53
410.524	357.71
410.733	494.93
410.941	413.01
411.15	433.49
411.358	525.65
411.567	462.16
411.775	523.6
411.984	494.93
412.192	525.65
412.401	658.76
412.609	593.23
412.818	605.52
413.026	607.56
413.234	576.84
413.443	642.38
413.651	623.95
413.86	703.82
414.068	722.25
414.276	712.01
414.485	701.77
414.693	783.69
414.901	834.89
415.11	894.28
415.318	935.24
415.526	916.81
415.734	939.33
415.943	1049.93
416.151	1109.32
416.359	996.68
416.567	1068.36
416.776	1146.18
416.984	1164.61
417.192	1209.67
417.4	1187.14
417.608	1113.41
417.817	1291.59
418.025	1264.96
418.233	1439.04
418.441	1287.49
418.649	1477.95
418.857	1664.32
419.065	1676.6
419.273	1545.53
419.481	1609.02
419.689	1766.71
419.897	1828.15
420.105	1877.3
420.313	1903.93
420.521	1957.18
420.729	1973.56
420.937	2065.72
421.145	2157.88
421.353	2323.76
421.561	2413.87
421.769	2452.78
421.977	2534.7
422.185	2471.22
422.393	2592.05
422.601	2770.22
422.809	2708.78
423.017	2768.17
423.224	3028.26
423.432	3026.22
423.64	3044.65
423.848	3280.16
424.056	3200.29
424.263	3417.38
424.471	3427.62
424.679	3616.03
424.887	3695.9
425.094	3976.47
425.302	3958.04
425.51	3994.9
425.718	4220.18
425.925	4252.95
426.133	4289.81
426.341	4519.18
426.548	4713.74
426.756	4732.17
426.964	4830.48
427.171	5203.21
427.379	5174.53
427.586	5379.33
427.794	5555.46
428.001	5876.99
428.209	6173.94
428.417	5944.57
428.624	6251.77
428.832	6382.84
429.039	6262.01
429.247	6327.54
429.454	6974.7
429.662	7347.43
429.869	6980.84
430.076	7496.93
430.284	7283.94
430.491	7580.9
430.699	7898.33
430.906	7900.38
431.114	7867.61
431.321	8375.51
431.528	8520.92
431.736	9045.2
431.943	9401.54
432.15	9395.4
432.358	9331.91
432.565	9823.42
432.772	9702.59
432.979	10388.66
433.187	10544.31
433.394	10546.36
433.601	11355.3
433.808	11148.46
434.016	11158.7
434.223	11574.44
434.43	12283.03
434.637	12350.62
434.844	12819.6
435.052	13161.61
435.259	13456.52
435.466	13538.44
435.673	13188.24
435.88	13999.23
436.087	15000.69
436.294	14564.47
436.501	14410.87
436.708	14851.19
436.915	15248.49
437.122	15873.12
437.329	15653.99
437.537	16258.14
437.743	16682.07
437.95	16233.57
438.157	17284.17
438.364	17837.13
438.571	17785.93
438.778	18046.02
438.985	19751.98
439.192	18691.13
439.399	19369.01
439.606	19137.59
439.813	20104.23
440.02	21474.32
440.227	20991
440.433	20743.19
440.64	21455.89
440.847	21408.78
441.054	22017.03
441.261	23311.35
441.467	23047.16
441.674	23319.54
441.881	24239.08
442.088	24097.77
442.294	23946.22
442.501	24626.14
442.708	25101.27
442.914	26055.62
443.121	27165.62
443.328	26567.62
443.534	28357.54
443.741	27667.38
443.948	27188.15
444.154	29569.94
444.361	29217.69
444.568	29156.25
444.774	29416.34
444.981	29623.19
445.187	30733.18
445.394	31961.97
445.6	31374.2
445.807	34353.99
446.013	32961.37
446.22	33379.16
446.426	34759.49
446.633	35441.46
446.839	36584.23
447.046	34794.31
447.252	36754.21
447.459	36799.27
447.665	36967.2
447.871	38292.24
448.078	39947
448.284	37739.29
448.491	39021.31
448.697	41009.89
448.903	41343.71
449.11	41560.8
449.316	41102.05
449.522	41499.36
449.728	42846.92
449.935	43182.79
450.141	43066.05
450.347	43698.87
450.553	42644.17
450.76	43053.76
450.966	44442.29
451.172	43977.4
451.378	45157.03
451.584	44569.26
451.791	45527.71
451.997	45417.12
452.203	46162.58
452.409	46002.84
452.615	46035.61
452.821	44038.84
453.027	43958.97
453.233	46054.04
453.44	44288.69
453.646	44745.39
453.852	44921.51
454.058	45417.12
454.264	44278.45
454.47	45492.9
454.676	44208.82
454.882	45976.22
455.088	42091.22
455.294	42808.01
455.5	43178.69
455.705	43516.61
455.911	41673.43
456.117	41276.13
456.323	40858.34
456.529	38830.85
456.735	40284.91
456.941	39547.64
457.147	38802.18
457.352	37509.91
457.558	36780.84
457.764	36936.48
457.97	36168.49
458.176	35765.04
458.381	35627.83
458.587	34073.42
458.793	34089.81
458.999	32123.76
459.204	34278.22
459.41	33256.28
459.616	31128.44
459.821	31193.98
460.027	30987.13
460.233	30368.65
460.438	28806.05
460.644	29678.48
460.85	27945.9
461.055	27665.33
461.261	27550.64
461.466	25498.58
461.672	24663
461.878	26596.29
462.083	24263.65
462.289	24126.44
462.494	23952.36
462.7	23043.06
462.905	22027.27
463.111	23163.89
463.316	23020.53
463.522	22658.04
463.727	22709.24
463.932	22539.26
464.138	22440.96
464.343	22596.6
464.549	21801.99
464.754	22780.92
464.959	22281.22
465.165	22281.22
465.37	21433.36
465.575	20761.62
465.781	21613.58
465.986	21533.71
466.191	20878.36
466.397	20423.71
466.602	19338.29
466.807	20012.07
467.012	20239.39
467.218	19967.01
467.423	20186.15
467.628	20136.99
467.833	20810.78
468.038	20034.6
468.244	19663.91
468.449	20425.76
468.654	19713.06
468.859	19158.06
469.064	19131.44
469.269	18572.35
469.474	18711.61
469.679	19278.9
469.885	18598.97
470.09	18713.66
470.295	18777.14
470.5	18267.2
470.705	18412.6
470.91	17882.18
471.115	17898.56
471.32	18230.34
471.525	17888.32
471.73	17491.02
471.935	17286.22
472.139	16780.37
472.344	16976.98
472.549	16841.81
472.754	17065.04
472.959	16430.17
473.164	16159.84
473.369	15996
473.574	16507.99
473.778	16350.3
473.983	16092.26
474.188	16163.93
474.393	15041.65
474.598	15441
474.802	15119.47
475.007	15121.52
475.212	15393.9
475.417	14797.94
475.621	14546.04
475.826	14521.46
476.031	14244.99
476.235	14167.17
476.44	14584.95
476.645	13991.04
476.849	13886.59
477.054	13919.36
477.259	13489.29
477.463	13640.84
477.668	13325.45
477.872	13616.26
478.077	12977.3
478.282	12737.68
478.486	13038.73
478.691	12729.49
478.895	12758.16
479.1	12551.32
479.304	12645.52
479.509	12332.19
479.713	12600.47
479.918	12225.69
480.122	12305.56
480.326	12313.75
480.531	12213.4
480.735	12049.57
480.94	11799.71
481.144	12219.55
481.348	11898.02
481.553	11801.76
481.757	11685.03
481.961	11777.19
482.166	12037.28
482.37	12002.46
482.574	11504.81
482.778	11697.31
482.983	11904.16
483.187	11807.91
483.391	11977.89
483.595	11668.64
483.8	11508.9
484.004	11685.03
484.208	11742.37
484.412	11375.78
484.616	11650.21
484.821	11850.91
485.025	11556
485.229	11674.79
485.433	11506.85
485.637	11433.13
485.841	11633.83
486.045	11625.64
486.249	11781.28
486.453	11691.17
486.657	11887.78
486.861	11596.96
487.065	11422.89
487.269	11580.58
487.473	11392.17
487.677	11719.84
487.881	11664.55
488.085	11572.39
488.289	11592.87
488.493	11476.13
488.697	11723.94
488.901	11533.48
489.105	11678.88
489.309	11713.7
489.512	11791.52
489.716	11734.18
489.92	11631.78
490.124	11611.3
490.328	11957.41
490.531	11775.14
490.735	11953.31
490.939	11955.36
491.143	11805.86
491.346	11830.43
491.55	12072.09
491.754	11918.5
491.958	12242.07
492.161	11992.22
492.365	12201.12
492.569	12235.93
492.772	12385.43
492.976	12391.58
493.18	12600.47
493.383	12592.28
493.587	12698.77
493.79	12819.6
493.994	12721.3
494.197	12719.25
494.401	12848.27
494.605	12952.72
494.808	13157.52
495.012	13350.03
495.215	13118.61
495.419	13282.44
495.622	13247.63
495.825	13360.27
496.029	13485.19
496.232	13692.04
496.436	13773.96
496.639	14212.22
496.843	13870.21
497.046	14273.66
497.249	14341.24
497.453	14644.34
497.656	14713.97
497.859	14636.15
498.063	14775.41
498.266	15400.04
498.469	15121.52
498.673	15486.06
498.876	15271.02
499.079	15926.37
499.282	15639.65
499.485	15998.05
499.689	15946.85
499.892	16163.93
500.095	16307.29
500.298	16489.56
500.501	16645.21
500.705	17146.96
500.908	17032.27
501.111	17458.25
501.314	17529.93
501.517	17464.39
501.72	17609.8
501.923	17892.42
502.126	18179.14
502.329	18578.49
502.532	18654.26
502.735	18656.31
502.938	19012.66
503.141	19121.2
503.344	19422.25
503.547	19403.82
503.75	19612.71
503.953	19975.2
504.156	20309.02
504.359	20288.54
504.562	20352.03
504.765	20829.21
504.968	21298.19
505.17	21406.73
505.373	21171.22
505.576	21783.56
505.779	21750.79
505.982	22000.65
506.185	22660.09
506.387	22426.62
506.59	22766.59
506.793	23315.44
506.996	23200.76
507.198	23880.68
507.401	23815.15
507.604	23784.43
507.807	24380.39
508.009	24624.09
508.212	24650.72
508.415	24875.99
508.617	25359.31
508.82	25263.06
509.022	25175
509.225	26061.77
509.428	26037.19
509.63	26553.28
509.833	26405.83
510.035	27229.11
510.238	27175.86
510.44	27259.83
510.643	27663.28
510.845	27923.37
511.048	28017.58
511.25	28504.99
511.453	28402.6
511.655	29328.28
511.858	28693.41
512.06	29287.32
512.262	29807.5
512.465	29957
512.667	30303.11
512.87	30802.82
513.072	30370.69
513.274	31112.06
513.477	31288.18
513.679	31609.71
513.881	31759.22
514.084	32101.23
514.286	32021.36
514.488	32404.33
514.69	33456.98
514.893	33764.18
515.095	33465.17
515.297	34028.37
515.499	34014.03
515.701	34366.28
515.904	34874.18
516.106	34900.8
516.308	35427.13
516.51	35670.84
516.712	35676.98
516.914	36197.17
517.116	36660.01
517.318	36864.8
517.52	36977.44
517.722	37255.96
517.925	37323.55
518.127	38003.47
518.329	37985.04
518.531	38212.37
518.733	38832.9
518.935	39381.76
519.136	39217.92
519.338	39963.38
519.54	40205.04
519.742	40237.81
519.944	40409.84
520.146	41114.34
520.348	41388.77
520.55	41763.54
520.752	41599.71
520.954	42298.06
521.155	41999.06
521.357	42619.59
521.559	43039.43
521.761	43055.81
521.963	43395.78
522.164	43655.87
522.366	44204.72
522.568	44190.39
522.77	44825.26
522.971	45406.88
523.173	44806.83
523.375	45240.99
523.576	45566.62
523.778	45632.16
523.98	45806.23
524.181	46193.3
524.383	46197.4
524.584	46840.46
524.786	46897.8
524.988	46832.27
525.189	47202.95
525.391	47524.48
525.592	47716.99
525.794	47915.64
525.995	48015.99
526.197	48181.88
526.398	48478.83
526.6	48933.48
526.801	49005.16
527.003	49287.78
527.204	48972.39
527.406	49338.98
527.607	49922.65
527.808	50147.93
528.01	49150.57
528.211	49691.23
528.412	50960.97
528.614	50311.77
528.815	50313.81
529.016	50653.78
529.218	50279
529.419	50571.86
529.62	51071.56
529.822	51157.58
530.023	50971.21
530.224	51145.29
530.425	51362.37
530.626	50989.64
530.828	50217.56
531.029	51446.34
531.23	51130.95
531.431	51075.66
531.632	51509.83
531.833	51657.28
532.035	51708.48
532.236	52152.89
532.437	51999.29
532.638	51784.26
532.839	51917.37
533.04	52243
533.241	51630.66
533.442	52929.07
533.643	52415.03
533.844	52478.52
534.045	52341.3
534.246	52017.72
534.447	52337.21
534.648	52517.43
534.849	52152.89
535.05	51970.62
535.251	52429.37
535.451	52630.07
535.652	52615.73
535.853	51868.22
536.054	52527.67
536.255	52804.14
536.456	51692.1
536.657	52894.25
536.857	52648.5
537.058	51739.2
537.259	52513.33
537.46	52441.65
537.66	52107.83
537.861	52615.73
538.062	52392.5
538.263	52795.95
538.463	51960.38
538.664	52261.43
538.865	52179.51
539.065	52625.97
539.266	52097.59
539.466	53060.14
539.667	52150.84
539.868	52951.6
540.068	52279.86
540.269	52275.77
540.469	52591.15
540.67	52021.82
540.87	52349.49
541.071	52445.75
541.271	52511.28
541.472	52435.51
541.672	51724.86
541.873	51855.93
542.073	51661.38
542.274	52294.2
542.474	52468.28
542.675	52062.78
542.875	52273.72
543.075	52478.52
543.276	51450.44
543.476	52406.84
543.676	52267.58
543.877	52261.43
544.077	51769.92
544.277	52329.01
544.478	52064.83
544.678	52300.34
544.878	51952.19
545.078	52240.95
545.279	51417.67
545.479	51782.21
545.679	52062.78
545.879	52054.59
546.079	52113.98
546.28	51825.21
546.48	51364.42
546.68	52042.3
546.88	51962.43
547.08	51876.41
547.28	51849.79
547.48	51225.16
547.68	51798.59
547.88	50934.35
548.081	51681.86
548.281	52027.96
548.481	51397.19
548.681	52052.54
548.881	51546.69
549.081	51743.3
549.28	51511.88
549.48	52161.08
549.68	51364.42
549.88	51958.33
550.08	51454.53
550.28	51933.76
550.48	51671.62
550.68	51749.44
550.88	51393.09
551.08	51389
551.279	51634.75
551.479	51501.64
551.679	51606.08
551.879	51466.82
552.079	51579.46
552.278	51442.24
552.478	51485.25
552.678	51049.03
552.878	51147.34
553.077	51126.86
553.277	51110.47
553.477	51530.31
553.676	51069.51
553.876	50858.57
554.076	51139.14
554.275	50557.52
554.475	50788.94
554.674	50907.72
554.874	51094.09
555.074	50766.41
555.273	51159.62
555.473	51432
555.672	50752.08
555.872	50283.09
556.071	50754.13
556.271	50897.48
556.47	50834
556.67	50135.64
556.869	50416.21
557.068	50596.43
557.268	50215.51
557.467	50371.16
557.667	50324.05
557.866	50451.03
558.065	50207.32
558.265	49922.65
558.464	49955.42
558.663	50215.51
558.863	49687.14
559.062	50522.71
559.261	49384.04
559.461	49977.95
559.66	49099.37
559.859	49906.27
560.058	49523.3
560.258	49627.74
560.457	49187.43
560.656	49646.18
560.855	49185.38
561.054	49289.83
561.253	49009.26
561.453	49121.9
561.652	49232.49
561.851	49445.47
562.05	48829.04
562.249	48626.29
562.448	49353.32
562.647	49011.31
562.846	48548.46
563.045	48743.02
563.244	48159.35
563.443	48446.07
563.642	48091.77
563.841	47874.68
564.04	48028.28
564.239	48716.4
564.438	47700.61
564.637	48028.28
564.836	47561.34
565.035	47182.47
565.234	47518.34
565.432	47364.74
565.631	47143.56
565.83	47872.63
566.029	47061.64
566.228	47354.5
566.427	47276.68
566.625	46928.52
566.824	46748.3
567.023	47086.21
567.222	46117.53
567.42	46865.03
567.619	46736.01
567.818	46291.6
568.016	46029.46
568.215	46783.12
568.414	45916.82
568.612	46187.16
568.811	45593.25
569.01	45900.44
569.208	45154.98
569.407	45957.78
569.605	45292.19
569.804	45535.9
570.002	44806.83
570.201	45335.2
570.4	44927.66
570.598	44473.01
570.797	44544.69
570.995	44661.42
571.193	44442.29
571.392	44757.67
571.59	44305.07
571.789	44690.09
571.987	44425.9
572.186	44022.45
572.384	43991.73
572.582	44448.43
572.781	43958.97
572.979	43342.53
573.177	43674.3
573.376	43883.19
573.574	43166.4
573.772	43340.48
573.971	43311.81
574.169	43051.72
574.367	42588.88
574.565	43029.19
574.763	42703.56
574.962	42527.44
575.16	42562.25
575.358	42719.95
575.556	42072.79
575.754	42509
575.952	42058.45
576.151	42523.34
576.349	41820.89
576.547	41679.58
576.745	41857.75
576.943	42322.64
577.141	41581.27
577.339	41515.74
577.537	41179.87
577.735	41611.99
577.933	41226.98
578.131	41442.01
578.329	41061.09
578.527	40850.15
578.725	41147.11
578.923	40846.05
579.121	40624.87
579.319	40516.33
579.516	40796.9
579.714	40686.31
579.912	40184.56
580.11	39934.71
580.308	40190.7
580.506	40174.32
580.704	39498.49
580.901	39994.1
581.099	40313.58
581.297	39488.25
581.495	39379.71
581.692	39688.95
581.89	39537.4
582.088	39541.5
582.285	38953.73
582.483	39269.12
582.681	39197.44
582.878	38937.35
583.076	38308.62
583.274	38779.65
583.471	38603.53
583.669	38411.02
583.866	38234.89
584.064	38404.88
584.262	37884.69
584.459	38159.12
584.657	37810.96
584.854	38286.09
585.052	37344.03
585.249	37673.75
585.447	37735.19
585.644	37110.56
585.841	37292.83
586.039	37575.45
586.236	36999.97
586.434	36827.94
586.631	36985.63
586.828	36848.42
587.026	37040.93
587.223	37194.53
587.42	36639.53
587.618	36754.21
587.815	36182.83
588.012	36111.15
588.21	36012.85
588.407	36475.69
588.604	35832.63
588.801	35740.47
588.999	35849.01
589.196	36057.9
589.393	35789.62
589.59	35382.07
589.787	35177.28
589.984	35318.59
590.182	35404.6
590.379	35175.23
590.576	34849.6
590.773	35038.01
590.97	34882.37
591.167	34935.62
591.364	34622.28
591.561	34364.23
591.758	34110.28
591.955	34337.61
592.152	34480.97
592.349	34112.33
592.546	34460.49
592.743	34141
592.94	33448.79
593.137	34087.76
593.334	33839.95
593.531	33211.23
593.727	33467.22
593.924	33784.66
594.121	33276.76
594.318	33606.48
594.515	32586.6
594.712	33327.96
594.908	32707.43
595.105	33151.84
595.302	32756.58
595.499	32861.02
595.696	32637.8
595.892	32199.53
596.089	32344.94
596.286	32873.31
596.482	32486.25
596.679	32254.83
596.876	32142.19
597.072	32146.28
597.269	31787.89
597.466	31667.06
597.662	31517.56
597.859	31607.67
598.055	31839.09
598.252	31540.08
598.448	31323
598.645	31511.41
598.841	31075.2
599.038	31177.59
599.234	30968.7
599.431	30651.27
599.627	30348.17
599.824	31081.34
600.02	30624.64
600.217	30360.45
600.413	30636.93
600.609	30057.35
600.806	30260.1
601.002	30260.1
601.198	29789.07
601.395	30256.01
601.591	29823.89
601.787	29545.36
601.984	29797.26
602.18	29676.43
602.376	29303.7
602.572	29457.3
602.769	29344.66
602.965	29406.1
603.161	29725.58
603.357	28670.88
603.553	29129.62
603.75	28734.37
603.946	28816.29
604.142	28670.88
604.338	28167.08
604.534	28461.99
604.73	28394.4
604.926	28322.73
605.122	28720.03
605.318	28365.73
605.514	28410.79
605.71	27984.81
605.906	27796.4
606.102	28052.39
606.298	27673.52
606.494	27954.09
606.69	28081.06
606.886	27392.95
607.082	27347.89
607.278	27515.83
607.474	27098.04
607.67	27728.81
607.866	27395
608.062	27734.96
608.257	27182.01
608.453	26946.49
608.649	26962.87
608.845	27018.17
609.041	26786.75
609.236	27118.52
609.432	26852.28
609.628	26608.58
609.824	26733.5
610.019	26598.34
610.215	26612.67
610.411	26940.35
610.606	26426.31
610.802	26563.52
610.998	26592.19
611.193	26160.07
611.389	26305.48
611.584	26139.59
611.78	25834.44
611.976	26362.82
612.171	26338.24
612.367	25813.96
612.562	26016.71
612.758	25203.67
612.953	25699.28
613.149	26293.19
613.344	25670.61
613.539	26074.06
613.735	25942.99
613.93	25691.09
614.126	25566.16
614.321	26029
614.517	25551.82
614.712	25344.98
614.907	25441.23
615.103	25172.95
615.298	25412.56
615.493	25506.77
615.688	25066.45
615.884	25484.24
616.079	24830.94
616.274	24984.54
616.47	25099.22
616.665	25183.19
616.86	24693.72
617.055	24810.46
617.25	24820.7
617.445	24933.34
617.641	24673.24
617.836	24671.2
618.031	24044.52
618.226	24323.04
618.421	24548.32
618.616	24574.94
618.811	24183.78
619.006	24417.25
619.201	23602.16
619.396	23886.82
619.591	23682.03
619.786	23888.87
619.981	23323.63
620.176	23653.36
620.371	23309.3
620.566	23694.32
620.761	23176.18
620.956	23516.14
621.151	22842.36
621.346	22938.62
621.541	22703.1
621.735	23086.07
621.93	22854.65
622.125	22656
622.32	22189.06
622.515	22479.87
622.709	21906.44
622.904	22191.11
623.099	22074.37
623.294	22012.93
623.488	21842.95
623.683	21853.19
623.878	21306.38
624.072	21539.85
624.267	21476.37
624.462	21251.09
624.656	21308.43
624.851	21359.63
625.046	20550.68
625.24	20894.74
625.435	20405.28
625.629	20524.06
625.824	20460.57
626.018	20841.5
626.213	19917.86
626.407	20298.78
626.602	20055.08
626.796	20044.84
626.991	20098.08
627.185	20034.6
627.38	19663.91
627.574	19440.68
627.768	19524.65
627.963	19330.09
628.157	19375.15
628.352	19223.6
628.546	18830.39
628.74	19043.38
628.935	18936.88
629.129	18840.63
629.323	18529.34
629.517	18777.14
629.712	18658.36
629.906	18476.09
630.1	18127.94
630.294	18289.73
630.489	18125.89
630.683	18279.49
630.877	17869.89
631.071	17757.25
631.265	17853.51
631.459	17685.58
631.653	17400.91
631.848	17570.89
632.042	17362
632.236	17226.83
632.43	17114.19
632.624	17149.01
632.818	17019.99
633.012	16755.8
633.206	16696.41
633.4	17079.38
633.594	16473.18
633.788	16741.46
633.982	16557.14
634.176	16792.66
634.369	16374.88
634.563	16110.69
634.757	16000.1
634.951	16131.17
635.145	16204.89
635.339	16176.22
635.533	15719.53
635.726	15699.05
635.92	15623.27
636.114	15557.74
636.308	15496.3
636.501	15631.46
636.695	15123.57
636.889	15195.25
637.083	14992.5
637.276	15039.6
637.47	15008.88
637.664	14857.33
637.857	14789.75
638.051	14904.43
638.244	14722.16
638.438	14644.34
638.632	14677.11
638.825	14316.67
639.019	14552.18
639.212	14335.1
639.406	14056.57
639.599	14255.23
639.793	14060.67
639.986	13980.8
640.18	14163.07
640.373	14091.39
640.567	13868.16
640.76	13747.33
640.954	13757.57
641.147	13646.98
641.34	13286.54
641.534	13444.23
641.727	13477
641.92	13061.26
642.114	13200.52
642.307	13151.37
642.5	13094.03
642.694	12584.09
642.887	12606.61
643.08	13061.26
643.273	12807.31
643.467	12905.62
643.66	12467.35
643.853	12608.66
644.046	12424.34
644.239	12514.45
644.432	12403.86
644.626	12389.53
644.819	12381.34
645.012	12336.28
645.205	12291.23
645.398	12151.96
645.591	12002.46
645.784	12035.23
645.977	12061.85
646.17	11861.15
646.363	11826.34
646.556	11543.72
646.749	11674.79
646.942	11852.96
647.135	11779.23
647.328	11582.63
647.521	11613.35
647.714	11297.96
647.907	11424.93
648.099	11207.85
648.292	11113.64
648.485	11173.03
648.678	10847.41
648.871	11144.36
649.064	10964.14
649.256	11060.4
649.449	10865.84
649.642	10906.8
649.835	10937.52
650.027	10740.91
650.22	10646.71
650.413	10560.69
650.605	10536.12
650.798	10521.78
650.991	10486.97
651.183	10323.13
651.376	10413.24
651.568	10482.87
651.761	10228.92
651.954	10085.56
652.146	10187.96
652.339	10126.52
652.531	10142.91
652.724	9907.39
652.916	9886.91
653.109	10079.42
653.301	9893.05
653.494	10007.74
653.686	9635.01
653.879	9888.96
654.071	9813.18
654.263	9397.45
654.456	9635.01
654.648	9610.43
654.84	9346.25
655.033	9620.67
655.225	9305.29
655.417	9170.12
655.61	9309.38
655.802	9151.69
655.994	9045.2
656.186	9129.16
656.379	9051.34
656.571	9194.7
656.763	8942.8
656.955	8895.69
657.148	8936.65
657.34	8918.22
657.532	8858.83
657.724	8803.53
657.916	8705.23
658.108	8684.75
658.3	8582.35
658.492	8531.16
658.684	8543.44
658.876	8520.92
659.068	8621.27
659.26	8486.1
659.452	8455.38
659.644	8346.84
659.836	8477.91
660.028	8621.27
660.22	8125.66
660.412	8183
660.604	8189.14
660.796	8000.73
660.988	8232.15
661.18	7890.14
661.372	7896.28
661.563	7797.98
661.755	7814.37
661.947	7986.4
662.139	7849.18
662.331	8019.16
662.522	7507.17
662.714	7636.19
662.906	7808.22
663.097	7517.41
663.289	7599.33
663.481	7584.99
663.673	7525.6
663.864	7462.12
664.056	7425.25
664.247	7408.87
664.439	7433.44
664.631	7251.17
664.822	7458.02
665.014	7472.36
665.205	7251.17
665.397	7320.81
665.588	7365.86
665.78	7380.2
665.971	7136.49
666.163	7245.03
666.354	7187.69
666.546	7169.26
666.737	6937.84
666.929	6847.72
667.12	7029.99
667.311	6827.25
667.503	6939.88
667.694	7023.85
667.885	6812.91
668.077	6798.57
668.268	6864.11
668.459	6860.01
668.651	6774
668.842	6718.7
669.033	6706.41
669.224	6724.85
669.416	6749.42
669.607	6583.54
669.798	6474.99
669.989	6685.94
670.18	6628.59
670.371	6685.94
670.563	6423.8
670.754	6675.7
670.945	6683.89
671.136	6507.76
671.327	6491.38
671.518	6563.06
671.709	6397.17
671.9	6483.19
672.091	6546.67
672.282	6481.14
672.473	6442.23
672.664	6448.37
672.855	6384.88
673.046	6229.24
673.237	6294.77
673.428	6305.01
673.619	6147.32
673.809	6376.69
674	6276.34
674.191	6122.74
674.382	6221.05
674.573	6108.41
674.764	6290.68
674.954	6235.38
675.145	6243.57
675.336	6259.96
675.527	5999.87
675.717	6208.76
675.908	6106.36
676.099	6098.17
676.289	6051.06
676.48	6167.8
676.671	6030.59
676.861	6221.05
677.052	6112.5
677.243	6067.45
677.433	5928.19
677.624	6180.09
677.814	6044.92
678.005	6018.3
678.195	6034.68
678.386	5950.71
678.576	6032.63
678.767	5997.82
678.957	5901.56
679.148	5995.77
679.338	5950.71
679.529	6006.01
679.719	5858.56
679.909	6073.59
680.1	5862.65
680.29	5864.7
680.481	5905.66
680.671	5905.66
680.861	5778.69
681.052	5727.49
681.242	5903.61
681.432	6126.84
681.622	6049.02
681.813	5856.51
682.003	5823.74
682.193	5752.06
682.383	5993.72
682.573	5795.07
682.764	5801.21
682.954	5829.88
683.144	5813.5
683.334	5672.19
683.524	5772.54
683.714	5780.73
683.904	5633.28
684.094	5727.49
684.284	5717.25
684.474	5831.93
684.664	5870.84
684.854	5827.84
685.044	5752.06
685.234	5569.79
685.424	5713.15
685.614	5610.75
685.804	5461.25
685.994	5508.35
686.184	5776.64
686.374	5498.11
686.564	5520.64
686.753	5496.07
686.943	5336.32
687.133	5360.9
687.323	5432.58
687.513	5403.91
687.702	5549.31
687.892	5408
688.082	5285.12
688.272	5375.24
688.461	5326.08
688.651	5373.19
688.841	5195.01
689.03	5088.52
689.22	5070.09
689.41	5084.42
689.599	5039.37
689.789	5094.66
689.979	5225.73
690.168	5006.6
690.358	5207.3
690.547	4883.72
690.737	4887.82
690.926	4904.2
691.116	4951.31
691.305	5035.27
691.495	4920.59
691.684	4828.43
691.874	4941.07
692.063	4965.64
692.252	4773.13
692.442	4766.99
692.631	4732.17
692.82	4791.56
693.01	4771.08
693.199	4736.27
693.388	4562.19
693.578	4658.45
693.767	4594.96
693.956	4599.06
694.146	4457.75
694.335	4488.46
694.524	4496.66
694.713	4529.42
694.902	4543.76
695.092	4539.66
695.281	4435.22
695.47	4545.81
695.659	4492.56
695.848	4261.14
696.037	4414.74
696.226	4521.23
696.415	4320.53
696.604	4443.41
696.793	4341.01
696.982	4375.83
697.171	4441.36
697.36	4398.35
697.549	4343.06
697.738	4273.43
697.927	4214.04
698.116	4384.02
698.305	4375.83
698.494	4160.79
698.683	4267.28
698.872	4379.92
699.061	4252.95
699.25	4203.8
699.438	4269.33
699.627	4310.29
699.816	4306.2
700.005	4015.38
700.193	4265.24
700.382	4341.01
700.571	4283.67
700.76	4152.6
700.948	4261.14
701.137	4285.72
701.326	4158.74
701.514	4095.25
701.703	4197.65
701.892	4039.96
702.08	4199.7
702.269	4255
702.457	4054.3
702.646	4017.43
702.834	4066.58
703.023	4101.4
703.212	4087.06
703.4	4130.07
703.589	4125.97
703.777	4205.85
703.965	4054.3
704.154	4050.2
704.342	4279.57
704.531	4203.8
704.719	4058.39
704.907	4265.24
705.096	4031.77
705.284	4107.54
705.472	4156.69
705.661	4144.41
705.849	4197.65
706.037	4230.42
706.226	4140.31
706.414	4230.42
706.602	4082.97
706.79	4273.43
706.979	4263.19
707.167	4134.17
707.355	4175.13
707.543	4224.28
707.731	4121.88
707.919	4277.52
708.107	4144.41
708.296	4168.98
708.484	4062.49
708.672	4252.95
708.86	4224.28
709.048	4171.03
709.236	4187.41
709.424	4287.76
709.612	4150.55
709.8	4082.97
709.988	4222.23
710.176	4142.36
710.364	4142.36
710.551	4334.87
710.739	4209.94
710.927	4179.22
711.115	4189.46
711.303	4236.56
711.491	4201.75
711.679	4248.85
711.866	4121.88
712.054	4318.48
712.242	4228.37
712.43	4250.9
712.617	4207.89
712.805	4359.44
712.993	4132.12
713.181	4070.68
713.368	4211.99
713.556	4259.09
713.744	4207.89
713.931	4398.35
714.119	4230.42
714.306	4287.76
714.494	4164.89
714.682	4273.43
714.869	4121.88
715.057	4197.65
715.244	4328.72
715.432	4398.35
715.619	4334.87
715.807	4336.92
715.994	4388.11
716.182	4316.44
716.369	4310.29
716.556	4293.91
716.744	4261.14
716.931	4396.31
717.119	4291.86
717.306	4295.96
717.493	4267.28
717.681	4310.29
717.868	4353.3
718.055	4220.18
718.242	4273.43
718.43	4338.96
718.617	4285.72
718.804	4506.9
718.991	4255
719.179	4476.18
719.366	4361.49
719.553	4351.25
719.74	4316.44
719.927	4359.44
720.114	4412.69
720.301	4517.14
720.488	4224.28
720.676	4283.67
720.863	4349.2
721.05	4482.32
721.237	4377.87
721.424	4318.48
721.611	4566.29
721.798	4404.5
721.985	4402.45
722.172	4353.3
722.358	4252.95
722.545	4486.42
722.732	4576.53
722.919	4416.79
723.106	4334.87
723.293	4414.74
723.48	4400.4
723.667	4412.69
723.853	4457.75
724.04	4429.07
724.227	4396.31
724.414	4392.21
724.6	4558.1
724.787	4605.2
724.974	4523.28
725.161	4465.94
725.347	4412.69
725.534	4465.94
725.72	4386.07
725.907	4515.09
726.094	4549.9
726.28	4365.59
726.467	4502.8
726.653	4443.41
726.84	4629.77
727.027	4572.43
727.213	4371.73
727.4	4551.95
727.586	4496.66
727.773	4578.58
727.959	4441.36
728.145	4478.23
728.332	4470.03
728.518	4427.03
728.705	4381.97
728.891	4474.13
729.077	4572.43
729.264	4472.08
729.45	4578.58
729.636	4406.55
729.823	4422.93
730.009	4482.32
730.195	4510.99
730.382	4441.36
730.568	4656.4
730.754	4394.26
730.94	4465.94
731.126	4625.68
731.313	4635.92
731.499	4523.28
731.685	4476.18
731.871	4384.02
732.057	4527.38
732.243	4607.25
732.429	4515.09
732.615	4556.05
732.801	4678.93
732.987	4463.89
733.173	4521.23
733.359	4541.71
733.545	4502.8
733.731	4363.54
733.917	4678.93
734.103	4556.05
734.289	4537.62
734.475	4607.25
734.661	4572.43
734.847	4564.24
735.033	4617.49
735.219	4418.83
735.404	4605.2
735.59	4568.34
735.776	4433.17
735.962	4406.55
736.148	4478.23
736.333	4525.33
736.519	4453.65
736.705	4531.47
736.89	4482.32
737.076	4519.18
737.262	4347.15
737.447	4400.4
737.633	4367.63
737.819	4455.7
738.004	4414.74
738.19	4427.03
738.375	4457.75
738.561	4484.37
738.747	4355.35
738.932	4312.34
739.118	4644.11
739.303	4300.05
739.489	4408.59
739.674	4211.99
739.859	4357.39
740.045	4386.07
740.23	4287.76
740.416	4187.41
740.601	4281.62
740.786	4230.42
740.972	4257.04
741.157	4236.56
741.342	4060.44
741.528	4183.32
741.713	4257.04
741.898	4130.07
742.084	4109.59
742.269	4197.65
742.454	4298
742.639	4156.69
742.824	4005.14
743.01	4240.66
743.195	4091.16
743.38	4058.39
743.565	4062.49
743.75	4023.58
743.935	4162.84
744.12	4048.15
744.305	3908.89
744.49	3919.13
744.675	3929.37
744.86	3992.86
745.045	3773.72
745.23	3771.68
745.415	3968.28
745.6	3917.08
745.785	3790.11
745.97	3814.68
746.155	3859.74
746.34	3800.35
746.525	3745.05
746.71	3757.34
746.895	3704.09
747.079	3765.53
747.264	3673.37
747.449	3726.62
747.634	3630.37
747.819	3564.83
748.003	3532.06
748.188	3638.56
748.373	3577.12
748.557	3570.97
748.742	3568.93
748.927	3589.41
749.111	3458.34
749.296	3495.2
749.481	3427.62
749.665	3548.45
749.85	3271.97
750.034	3343.65
750.219	3280.16
750.404	3382.56
750.588	3321.12
750.773	3228.96
750.957	3286.31
751.141	3183.91
751.326	3233.06
751.51	3188
751.695	3114.28
751.879	3087.65
752.064	3245.35
752.248	3087.65
752.432	3089.7
752.617	3173.67
752.801	3083.56
752.985	3190.05
753.17	3097.89
753.354	2966.82
753.538	2962.73
753.722	2964.78
753.907	2948.39
754.091	2882.86
754.275	2876.71
754.459	2897.19
754.643	2850.09
754.828	2831.66
755.012	2753.84
755.196	2772.27
755.38	2772.27
755.564	2729.26
755.748	2737.45
755.932	2690.35
756.116	2741.55
756.3	2594.09
756.484	2696.49
756.668	2737.45
756.852	2428.21
757.036	2581.81
757.22	2542.89
757.404	2510.13
757.588	2469.17
757.772	2479.41
757.956	2549.04
758.14	2503.98
758.323	2489.65
758.507	2479.41
758.691	2616.62
758.875	2501.94
759.059	2469.17
759.242	2426.16
759.426	2319.67
759.61	2313.52
759.794	2295.09
759.977	2358.58
760.161	2362.67
760.345	2315.57
760.528	2262.32
760.712	2237.75
760.895	2186.55
761.079	2176.31
761.263	2213.17
761.446	2192.69
761.63	2096.44
761.813	2192.69
761.997	2057.53
762.18	2106.68
762.364	2245.94
762.547	2102.58
762.731	2133.3
762.914	2141.49
763.098	2080.05
763.281	1985.85
763.464	2118.97
763.648	2186.55
763.831	2016.57
764.015	2024.76
764.198	2051.38
764.381	2092.34
764.564	2035
764.748	1975.61
764.931	1991.99
765.114	1883.45
765.297	1957.18
765.481	1940.79
765.664	1967.42
765.847	1846.59
766.03	1961.27
766.213	1959.22
766.397	1903.93
766.58	1885.5
766.763	1881.4
766.946	1803.58
767.129	1797.43
767.312	1912.12
767.495	1836.35
767.678	1783.1
767.861	1682.75
768.044	1742.14
768.227	1862.97
768.41	1774.91
768.593	1805.63
768.776	1713.47
768.959	1668.41
769.142	1852.73
769.324	1799.48
769.507	1789.24
769.69	1731.9
769.873	1721.66
770.056	1764.67
770.239	1719.61
770.421	1635.64
770.604	1742.14
770.787	1606.97
770.97	1639.74
771.152	1613.12
771.335	1609.02
771.518	1656.12
771.7	1654.08
771.883	1664.32
772.066	1514.81
772.248	1680.7
772.431	1609.02
772.613	1596.73
772.796	1627.45
772.978	1574.21
773.161	1572.16
773.343	1482.05
773.526	1506.62
773.708	1463.62
773.891	1486.14
774.073	1494.33
774.256	1549.63
774.438	1422.66
774.621	1471.81
774.803	1529.15
774.985	1486.14
775.168	1477.95
775.35	1449.28
775.532	1441.09
775.715	1371.46
775.897	1350.98
776.079	1350.98
776.261	1287.49
776.444	1316.16
776.626	1318.21
776.808	1275.2
776.99	1314.11
777.173	1299.78
777.355	1338.69
777.537	1219.91
777.719	1260.87
777.901	1234.24
778.083	1254.72
778.265	1199.43
778.447	1183.04
778.629	1242.43
778.811	1209.67
778.993	1150.28
779.175	1168.71
779.357	1115.46
779.539	1158.47
779.721	1181
779.903	1164.61
780.085	1240.39
780.267	1109.32
780.449	1146.18
780.631	1140.04
780.812	1174.85
780.994	1088.84
781.176	1129.8
781.358	1080.64
781.54	1117.51
781.721	1115.46
781.903	1070.4
782.085	1015.11
782.267	1043.78
782.448	1025.35
782.63	925
782.812	1058.12
782.993	1002.82
783.175	968.01
783.357	890.18
783.538	1011.01
783.72	849.22
783.901	908.62
784.083	900.42
784.264	925
784.446	957.77
784.627	916.81
784.809	898.38
784.99	957.77
785.172	980.29
785.353	888.14
785.535	900.42
785.716	863.56
785.897	818.5
786.079	853.32
786.26	871.75
786.441	920.9
786.623	836.94
786.804	806.22
786.985	791.88
787.167	896.33
787.348	806.22
787.529	816.46
787.71	933.19
787.891	779.59
788.073	761.16
788.254	720.2
788.435	822.6
788.616	773.45
788.797	660.81
788.978	705.87
789.159	705.87
789.34	775.5
789.522	804.17
789.703	746.83
789.884	732.49
790.065	709.96
790.246	771.4
790.427	728.39
790.607	736.59
790.788	689.48
790.969	603.47
791.15	705.87
791.331	664.91
791.512	664.91
791.693	621.9
791.874	679.24
792.054	761.16
792.235	669
792.416	621.9
792.597	613.71
792.778	652.62
792.958	681.29
793.139	730.44
793.32	572.75
793.5	591.18
793.681	722.25
793.862	636.24
794.042	564.56
794.223	605.52
794.404	623.95
794.584	519.5
794.765	636.24
794.945	505.17
795.126	609.61
795.306	603.47
795.487	587.08
795.667	509.26
795.848	560.46
796.028	560.46
796.209	499.02
796.389	566.6
796.57	566.6
796.75	558.41
796.93	580.94
797.111	593.23
797.291	464.21
797.471	517.45
797.652	556.36
797.832	560.46
798.012	492.88
798.192	437.58
798.373	435.53
798.553	533.84
798.733	533.84
798.913	415.06
799.093	517.45
799.274	494.93
799.454	494.93
799.634	404.82
799.814	492.88
799.994	537.93
800.174	511.31
800.354	484.69
800.534	443.73
800.714	494.93
800.894	386.38
801.074	316.75
801.254	419.15
801.434	458.06
801.614	482.64
801.794	472.4
801.974	1363.26
802.154	437.58
802.334	474.45
802.514	402.77
802.693	423.25
802.873	451.92
803.053	515.41
803.233	425.29
803.413	441.68
803.592	390.48
803.772	402.77
803.952	433.49
804.131	378.19
804.311	410.96
804.491	449.87
804.67	331.09
804.85	386.38
805.03	374.1
805.209	404.82
805.389	367.95
805.568	392.53
805.748	345.42
805.928	476.49
806.107	421.2
806.287	468.3
806.466	398.67
806.646	359.76
806.825	333.14
807.004	408.91
807.184	408.91
807.363	365.9
807.543	339.28
807.722	322.9
807.901	359.76
808.081	402.77
808.26	337.23
808.439	365.9
808.619	324.94
808.798	353.62
808.977	363.86
809.156	326.99
809.336	316.75
809.515	380.24
809.694	288.08
809.873	404.82
810.052	271.7
810.231	335.18
810.411	292.18
810.59	402.77
810.769	312.66
810.948	331.09
811.127	267.6
811.306	234.83
811.485	302.42
811.664	341.33
811.843	394.58
812.022	339.28
812.201	243.03
812.38	273.75
812.559	277.84
812.737	314.7
812.916	200.02
813.095	240.98
813.274	318.8
813.453	308.56
813.632	222.55
813.811	314.7
813.989	226.64
814.168	228.69
814.347	281.94
814.526	238.93
814.704	341.33
814.883	326.99
815.062	251.22
815.24	249.17
815.419	316.75
815.598	247.12
815.776	249.17
815.955	296.27
816.133	181.59
816.312	324.94
816.49	202.07
816.669	247.12
816.847	238.93
817.026	240.98
817.204	243.03
817.383	247.12
817.561	200.02
817.74	259.41
817.918	292.18
818.097	179.54
818.275	290.13
818.453	273.75
818.632	181.59
818.81	290.13
818.988	152.91
819.167	228.69
819.345	230.74
819.523	152.91
819.701	257.36
819.879	236.88
820.058	232.79
820.236	226.64
820.414	228.69
820.592	208.21
820.77	177.49
820.948	230.74
821.127	271.7
821.305	230.74
821.483	167.25
821.661	314.7
821.839	245.07
822.017	210.26
822.195	208.21
822.373	148.82
822.551	208.21
822.729	214.35
822.907	185.68
823.085	277.84
823.262	247.12
823.44	179.54
823.618	101.72
823.796	271.7
823.974	245.07
824.152	230.74
824.329	165.2
824.507	187.73
824.685	167.25
824.863	263.51
825.04	210.26
825.218	222.55
825.396	243.03
825.574	183.63
825.751	261.46
825.929	220.5
826.107	111.96
826.284	103.76
826.462	230.74
826.639	197.97
826.817	167.25
826.994	243.03
827.172	167.25
827.349	179.54
827.527	197.97
827.704	126.29
827.882	175.44
828.059	183.63
828.237	175.44
828.414	247.12
828.591	99.67
828.769	200.02
828.946	93.52
829.124	146.77
829.301	152.91
829.478	167.25
829.655	173.39
829.833	136.53
830.01	85.33
830.187	138.58
830.364	240.98
830.542	103.76
830.719	206.16
830.896	243.03
831.073	150.87
831.25	179.54
831.427	152.91
831.604	89.43
831.782	38.23
831.959	165.2
832.136	85.33
832.313	208.21
832.49	99.67
832.667	126.29
832.844	66.9
833.021	183.63
833.198	79.19
833.374	132.44
833.551	210.26
833.728	116.05
833.905	132.44
834.082	103.76
834.259	214.35
834.436	216.4
834.612	140.63
834.789	216.4
834.966	101.72
835.143	85.33
835.319	116.05
835.496	169.3
835.673	136.53
835.85	185.68
836.026	91.48
836.203	238.93
836.38	171.35
836.556	138.58
836.733	163.15
836.909	183.63
837.086	101.72
837.262	81.24
837.439	140.63
837.616	116.05
837.792	175.44
837.968	118.1
838.145	42.32
838.321	140.63
838.498	101.72
838.674	140.63
838.851	128.34
839.027	116.05
839.203	105.81
839.38	138.58
839.556	85.33
839.732	109.91
839.909	124.24
840.085	111.96
840.261	83.28
840.437	99.67
840.614	99.67
840.79	116.05
840.966	109.91
841.142	154.96
841.318	62.8
841.494	173.39
841.671	109.91
841.847	116.05
842.023	11.61
842.199	132.44
842.375	89.43
842.551	36.18
842.727	101.72
842.903	161.11
843.079	34.13
843.255	157.01
843.431	109.91
843.607	116.05
843.783	36.18
843.959	101.72
844.134	50.52
844.31	163.15
844.486	140.63
844.662	36.18
844.838	32.08
845.013	109.91
845.189	77.14
845.365	99.67
845.541	91.48
845.716	42.32
845.892	181.59
846.068	9.56
846.244	50.52
846.419	68.95
846.595	91.48
846.77	36.18
846.946	114
847.122	75.09
847.297	109.91
847.473	152.91
847.648	50.52
847.824	-23.21
847.999	124.24
848.175	116.05
848.35	169.3
848.526	85.33
848.701	68.95
848.876	120.15
849.052	144.72
849.227	52.56
849.403	64.85
849.578	99.67
849.753	60.76
849.929	79.19
850.104	-43.69
850.279	91.48
850.454	54.61
850.63	134.48
850.805	56.66
850.98	75.09
851.155	134.48
851.33	62.8
851.505	40.28
851.681	85.33
851.856	71
852.031	75.09
852.206	75.09
852.381	83.28
852.556	122.2
852.731	73.04
852.906	120.15
853.081	126.29
853.256	202.07
853.431	83.28
853.606	126.29
853.781	30.04
853.956	15.7
854.131	87.38
854.305	15.7
854.48	36.18
854.655	19.8
854.83	9.56
855.005	13.65
855.18	64.85
855.354	-27.31
855.529	87.38
855.704	105.81
855.879	146.77
856.053	-21.16
856.228	83.28
856.403	-6.83
856.577	116.05
856.752	-12.97
856.926	95.57
857.101	81.24
857.276	30.04
857.45	58.71
857.625	97.62
857.799	140.63
857.974	52.56
858.148	-66.22
858.323	-29.35
858.497	17.75
858.672	-0.68
858.846	23.89
859.02	148.82
859.195	-29.35
859.369	36.18
859.543	73.04
859.718	-29.35
859.892	111.96
860.066	62.8
860.241	-51.88
860.415	60.76
860.589	60.76
860.763	-0.68
860.938	25.94
861.112	40.28
861.286	75.09
861.46	9.56
861.634	101.72
861.808	91.48
861.982	85.33
862.157	50.52
862.331	3.41
862.505	27.99
862.679	9.56
862.853	95.57
863.027	89.43
863.201	132.44
863.375	15.7
863.549	62.8
863.722	1.37
863.896	101.72
864.07	17.75
864.244	71
864.418	60.76
864.592	101.72
864.766	66.9
864.939	75.09
865.113	40.28
865.287	103.76
865.461	36.18
865.634	36.18
865.808	56.66
865.982	54.61
866.156	27.99
866.329	-0.68
866.503	60.76
866.676	-6.83
866.85	-8.87
867.024	64.85
867.197	52.56
867.371	58.71
867.544	68.95
867.718	-60.07
867.891	118.1
868.065	17.75
868.238	-8.87
868.412	73.04
868.585	9.56
868.759	25.94
868.932	11.61
869.105	-53.93
869.279	-12.97
869.452	-60.07
869.625	30.04
869.799	19.8
869.972	46.42
870.145	85.33
870.319	36.18
870.492	36.18
870.665	-15.02
870.838	-0.68
871.011	-27.31
871.185	38.23
871.358	-35.5
871.531	44.37
871.704	27.99
871.877	42.32
872.05	23.89
872.223	-21.16
872.396	17.75
872.569	60.76
872.742	-62.12
872.915	38.23
873.088	-66.22
873.261	11.61
873.434	17.75
873.607	-12.97
873.78	56.66
873.953	15.7
874.126	42.32
874.299	48.47
874.471	13.65
874.644	1.37
874.817	34.13
874.99	64.85
875.163	46.42
875.335	19.8
875.508	54.61
875.681	9.56
875.853	64.85
876.026	50.52
876.199	-47.79
876.371	17.75
876.544	-35.5
876.717	75.09
876.889	25.94
877.062	34.13
877.234	23.89
877.407	3.41
877.579	5.46
877.752	62.8
877.924	38.23
878.097	1.37
878.269	-8.87
878.442	79.19
878.614	-12.97
878.786	-17.07
878.959	-41.64
879.131	25.94
879.303	-21.16
879.476	-4.78
879.648	38.23
879.82	-41.64
879.993	-19.11
880.165	17.75
880.337	-25.26
880.509	-39.59
880.681	-19.11
880.854	54.61
881.026	23.89
881.198	97.62
881.37	-39.59
881.542	34.13
881.714	3.41
881.886	34.13
882.058	25.94
882.23	-35.5
882.402	48.47
882.574	34.13
882.746	-8.87
882.918	77.14
883.09	54.61
883.262	85.33
883.434	30.04
883.606	-10.92
883.778	-21.16
883.95	77.14
884.122	-6.83
884.293	54.61
884.465	-25.26
884.637	89.43
884.809	46.42
884.98	38.23
885.152	-12.97
885.324	13.65
885.496	23.89
885.667	-12.97
885.839	25.94
886.011	68.95
886.182	71
886.354	36.18
886.525	9.56
886.697	5.46
886.869	-55.98
887.04	11.61
887.212	107.86
887.383	103.76
887.555	66.9
887.726	-55.98
887.897	25.94
888.069	-31.4
888.24	11.61
888.412	1.37
888.583	77.14
888.754	19.8
888.926	-51.88
889.097	13.65
889.268	-15.02
889.44	77.14
889.611	-29.35
889.782	-101.03
889.953	-12.97
890.125	73.04
890.296	60.76
890.467	-4.78
890.638	-23.21
890.809	-2.73
890.98	-33.45
891.151	34.13
891.323	71
891.494	103.76
891.665	23.89
891.836	13.65
892.007	21.85
892.178	50.52
892.349	-23.21
892.52	-33.45
892.691	-8.87
892.862	-23.21
893.032	-27.31
893.203	34.13
893.374	-4.78
893.545	83.28
893.716	-2.73
893.887	71
894.057	-53.93
894.228	-2.73
894.399	-0.68
894.57	89.43
894.74	-2.73
894.911	-10.92
895.082	3.41
895.253	1.37
895.423	1.37
895.594	-25.26
895.764	71
895.935	66.9
896.106	25.94
896.276	-35.5
896.447	-39.59
896.617	-19.11
896.788	-86.7
896.958	38.23
897.129	-37.55
897.299	-35.5
897.47	34.13
897.64	58.71
897.81	-39.59
897.981	32.08
898.151	-4.78
898.322	42.32
898.492	21.85
898.662	-39.59
898.832	-25.26
899.003	-10.92
899.173	38.23
899.343	-94.89
899.513	-6.83
