Data from USB4F104151__35__13-05-05-446.txt Node

Date: Fri Mar 14 13:05:05 EDT 2025
User: louis
Spectrometer: USB4F10415
Trigger mode: 4
Integration Time (sec): 4.000000E-2
Scans to average: 1
Electric dark correction enabled: true
Nonlinearity correction enabled: false
Boxcar width: 0
XAxis mode: Wavelengths
Number of Pixels in Spectrum: 3648
>>>>>Begin Spectral Data<<<<<
178.204	-152.4
178.424	-152.4
178.644	-152.4
178.864	-176.98
179.084	-189.27
179.304	-15.19
179.524	58.54
179.744	-37.72
179.964	44.2
180.184	-15.19
180.404	-13.14
180.624	58.54
180.844	15.53
181.064	-15.19
181.283	5.29
181.503	-52.05
181.723	-33.62
181.943	-54.1
182.163	27.82
182.383	64.68
182.602	208.04
182.822	85.16
183.042	62.63
183.262	19.63
183.482	38.06
183.701	68.78
183.921	72.87
184.141	-7
184.361	109.74
184.58	7.34
184.8	-2.9
185.02	48.3
185.239	93.35
185.459	50.35
185.679	117.93
185.898	-66.39
186.118	48.3
186.338	3.24
186.557	76.97
186.777	5.29
186.997	3.24
187.216	38.06
187.436	79.02
187.655	89.26
187.875	134.31
188.095	-4.95
188.314	83.11
188.534	38.06
188.753	29.87
188.973	165.03
189.192	167.08
189.412	36.01
189.631	56.49
189.851	-0.85
190.07	44.2
190.29	-11.09
190.509	19.63
190.729	101.55
190.948	101.55
191.168	179.37
191.387	31.91
191.607	13.48
191.826	119.98
192.045	40.11
192.265	79.02
192.484	44.2
192.704	54.44
192.923	-31.57
193.142	70.83
193.362	19.63
193.581	48.3
193.8	42.15
194.02	111.78
194.239	29.87
194.458	29.87
194.678	-7
194.897	38.06
195.116	19.63
195.335	-11.09
195.555	142.5
195.774	76.97
195.993	46.25
196.212	46.25
196.432	38.06
196.651	74.92
196.87	66.73
197.089	76.97
197.308	64.68
197.528	66.73
197.747	-17.24
197.966	66.73
198.185	140.46
198.404	7.34
198.623	107.69
198.842	58.54
199.062	81.07
199.281	79.02
199.5	85.16
199.719	33.96
199.938	93.35
200.157	70.83
200.376	25.77
200.595	101.55
200.814	60.59
201.033	-2.9
201.252	38.06
201.471	48.3
201.69	97.45
201.909	95.4
202.128	38.06
202.347	134.31
202.566	62.63
202.785	38.06
203.004	44.2
203.223	160.94
203.442	76.97
203.661	44.2
203.879	48.3
204.098	89.26
204.317	-13.14
204.536	58.54
204.755	29.87
204.974	15.53
205.193	124.07
205.411	122.02
205.63	-13.14
205.849	97.45
206.068	7.34
206.287	-11.09
206.505	56.49
206.724	66.73
206.943	95.4
207.162	3.24
207.381	48.3
207.599	21.67
207.818	97.45
208.037	54.44
208.255	66.73
208.474	79.02
208.693	87.21
208.911	-17.24
209.13	113.83
209.349	85.16
209.567	81.07
209.786	117.93
210.005	126.12
210.223	109.74
210.442	-27.48
210.661	58.54
210.879	64.68
211.098	52.39
211.316	40.11
211.535	117.93
211.753	97.45
211.972	52.39
212.191	68.78
212.409	36.01
212.628	85.16
212.846	21.67
213.065	33.96
213.283	126.12
213.502	68.78
213.72	27.82
213.938	-86.87
214.157	46.25
214.375	93.35
214.594	60.59
214.812	97.45
215.031	31.91
215.249	83.11
215.467	23.72
215.686	46.25
215.904	136.36
216.122	68.78
216.341	58.54
216.559	40.11
216.778	70.83
216.996	124.07
217.214	60.59
217.432	89.26
217.651	3.24
217.869	27.82
218.087	27.82
218.306	15.53
218.524	52.39
218.742	31.91
218.96	122.02
219.179	40.11
219.397	60.59
219.615	109.74
219.833	44.2
220.051	23.72
220.27	46.25
220.488	50.35
220.706	142.5
220.924	-0.85
221.142	79.02
221.36	21.67
221.578	58.54
221.796	91.31
222.015	103.59
222.233	58.54
222.451	93.35
222.669	62.63
222.887	19.63
223.105	97.45
223.323	46.25
223.541	9.39
223.759	56.49
223.977	-0.85
224.195	52.39
224.413	-43.86
224.631	62.63
224.849	29.87
225.067	95.4
225.285	15.53
225.503	-11.09
225.721	62.63
225.939	31.91
226.157	-29.52
226.375	122.02
226.592	46.25
226.81	31.91
227.028	93.35
227.246	97.45
227.464	31.91
227.682	148.65
227.9	64.68
228.117	36.01
228.335	72.87
228.553	62.63
228.771	19.63
228.989	66.73
229.206	27.82
229.424	23.72
229.642	1.19
229.86	-78.68
230.077	66.73
230.295	64.68
230.513	36.01
230.731	79.02
230.948	105.64
231.166	130.22
231.384	44.2
231.601	42.15
231.819	3.24
232.037	11.43
232.254	19.63
232.472	29.87
232.689	134.31
232.907	72.87
233.125	76.97
233.342	42.15
233.56	15.53
233.777	103.59
233.995	11.43
234.213	181.42
234.43	101.55
234.648	68.78
234.865	19.63
235.083	64.68
235.3	38.06
235.518	79.02
235.735	156.84
235.953	89.26
236.17	85.16
236.388	62.63
236.605	11.43
236.822	76.97
237.04	150.7
237.257	-39.76
237.475	-2.9
237.692	-9.05
237.909	15.53
238.127	124.07
238.344	74.92
238.562	62.63
238.779	-60.24
238.996	31.91
239.214	9.39
239.431	99.5
239.648	68.78
239.865	111.78
240.083	83.11
240.3	81.07
240.517	48.3
240.735	56.49
240.952	99.5
241.169	93.35
241.386	31.91
241.603	85.16
241.821	-25.43
242.038	68.78
242.255	91.31
242.472	-68.44
242.689	119.98
242.907	119.98
243.124	42.15
243.341	93.35
243.558	23.72
243.775	5.29
243.992	52.39
244.209	95.4
244.426	181.42
244.643	68.78
244.86	-9.05
245.078	29.87
245.295	150.7
245.512	-2.9
245.729	101.55
245.946	93.35
246.163	64.68
246.38	58.54
246.597	36.01
246.814	44.2
247.031	44.2
247.248	68.78
247.464	9.39
247.681	79.02
247.898	33.96
248.115	99.5
248.332	44.2
248.549	76.97
248.766	105.64
248.983	64.68
249.2	93.35
249.417	56.49
249.633	48.3
249.85	101.55
250.067	89.26
250.284	23.72
250.501	111.78
250.717	48.3
250.934	25.77
251.151	72.87
251.368	19.63
251.585	70.83
251.801	17.58
252.018	64.68
252.235	91.31
252.451	72.87
252.668	11.43
252.885	70.83
253.102	62.63
253.318	46.25
253.535	52.39
253.752	36.01
253.968	27.82
254.185	5.29
254.401	33.96
254.618	97.45
254.835	-25.43
255.051	152.74
255.268	29.87
255.484	17.58
255.701	54.44
255.917	76.97
256.134	3.24
256.351	85.16
256.567	46.25
256.784	95.4
257	54.44
257.217	76.97
257.433	81.07
257.65	83.11
257.866	72.87
258.082	27.82
258.299	64.68
258.515	-2.9
258.732	81.07
258.948	52.39
259.165	-7
259.381	83.11
259.597	54.44
259.814	48.3
260.03	29.87
260.246	21.67
260.463	99.5
260.679	148.65
260.895	111.78
261.112	83.11
261.328	85.16
261.544	54.44
261.761	175.27
261.977	36.01
262.193	-27.48
262.409	95.4
262.626	119.98
262.842	58.54
263.058	-17.24
263.274	142.5
263.49	97.45
263.707	138.41
263.923	144.55
264.139	-54.1
264.355	91.31
264.571	99.5
264.787	60.59
265.004	87.21
265.22	109.74
265.436	11.43
265.652	23.72
265.868	74.92
266.084	1.19
266.3	72.87
266.516	33.96
266.732	85.16
266.948	21.67
267.164	9.39
267.38	134.31
267.596	81.07
267.812	124.07
268.028	81.07
268.244	38.06
268.46	81.07
268.676	38.06
268.892	126.12
269.108	97.45
269.324	52.39
269.54	1.19
269.756	64.68
269.972	99.5
270.188	3.24
270.403	36.01
270.619	-7
270.835	74.92
271.051	-0.85
271.267	64.68
271.483	44.2
271.698	70.83
271.914	89.26
272.13	7.34
272.346	1.19
272.562	97.45
272.777	93.35
272.993	-17.24
273.209	23.72
273.425	142.5
273.64	19.63
273.856	74.92
274.072	79.02
274.287	11.43
274.503	119.98
274.719	117.93
274.934	46.25
275.15	103.59
275.366	46.25
275.581	27.82
275.797	-17.24
276.012	19.63
276.228	68.78
276.444	19.63
276.659	142.5
276.875	31.91
277.09	25.77
277.306	58.54
277.521	44.2
277.737	27.82
277.952	48.3
278.168	64.68
278.383	58.54
278.599	68.78
278.814	81.07
279.03	109.74
279.245	134.31
279.461	64.68
279.676	130.22
279.892	3.24
280.107	21.67
280.322	-19.29
280.538	79.02
280.753	60.59
280.969	93.35
281.184	44.2
281.399	99.5
281.615	54.44
281.83	105.64
282.045	-15.19
282.26	7.34
282.476	48.3
282.691	119.98
282.906	113.83
283.122	87.21
283.337	-2.9
283.552	97.45
283.767	48.3
283.983	101.55
284.198	72.87
284.413	109.74
284.628	23.72
284.843	13.48
285.058	40.11
285.274	107.69
285.489	-13.14
285.704	144.55
285.919	-23.38
286.134	89.26
286.349	140.46
286.564	52.39
286.779	76.97
286.995	83.11
287.21	62.63
287.425	72.87
287.64	-62.29
287.855	62.63
288.07	-29.52
288.285	89.26
288.5	95.4
288.715	87.21
288.93	-13.14
289.145	93.35
289.36	89.26
289.575	44.2
289.79	101.55
290.004	13.48
290.219	97.45
290.434	85.16
290.649	-23.38
290.864	99.5
291.079	27.82
291.294	38.06
291.509	97.45
291.724	85.16
291.938	33.96
292.153	44.2
292.368	1.19
292.583	134.31
292.798	109.74
293.012	93.35
293.227	46.25
293.442	66.73
293.657	214.18
293.871	126.12
294.086	113.83
294.301	103.59
294.516	46.25
294.73	119.98
294.945	23.72
295.16	101.55
295.374	83.11
295.589	70.83
295.804	113.83
296.018	79.02
296.233	109.74
296.447	52.39
296.662	19.63
296.877	117.93
297.091	38.06
297.306	68.78
297.52	72.87
297.735	58.54
297.949	52.39
298.164	50.35
298.378	83.11
298.593	-15.19
298.807	62.63
299.022	52.39
299.236	29.87
299.451	72.87
299.665	56.49
299.88	21.67
300.094	81.07
300.309	93.35
300.523	5.29
300.737	19.63
300.952	138.41
301.166	109.74
301.381	56.49
301.595	44.2
301.809	7.34
302.024	76.97
302.238	76.97
302.452	70.83
302.667	72.87
302.881	175.27
303.095	42.15
303.309	50.35
303.524	54.44
303.738	33.96
303.952	95.4
304.166	76.97
304.381	27.82
304.595	93.35
304.809	113.83
305.023	79.02
305.237	97.45
305.452	23.72
305.666	103.59
305.88	95.4
306.094	62.63
306.308	117.93
306.522	162.98
306.736	62.63
306.95	72.87
307.164	89.26
307.379	-0.85
307.593	48.3
307.807	66.73
308.021	91.31
308.235	117.93
308.449	81.07
308.663	48.3
308.877	79.02
309.091	79.02
309.305	87.21
309.519	-23.38
309.733	113.83
309.947	36.01
310.161	109.74
310.374	109.74
310.588	128.17
310.802	13.48
311.016	52.39
311.23	54.44
311.444	83.11
311.658	15.53
311.872	60.59
312.085	171.18
312.299	154.79
312.513	48.3
312.727	79.02
312.941	15.53
313.154	44.2
313.368	85.16
313.582	68.78
313.796	54.44
314.009	21.67
314.223	113.83
314.437	107.69
314.651	17.58
314.864	72.87
315.078	60.59
315.292	-13.14
315.505	-29.52
315.719	134.31
315.933	54.44
316.146	60.59
316.36	23.72
316.573	132.26
316.787	52.39
317.001	-13.14
317.214	17.58
317.428	62.63
317.641	42.15
317.855	105.64
318.068	117.93
318.282	64.68
318.495	105.64
318.709	85.16
318.922	134.31
319.136	124.07
319.349	85.16
319.563	89.26
319.776	111.78
319.99	-19.29
320.203	89.26
320.417	38.06
320.63	64.68
320.843	115.88
321.057	54.44
321.27	40.11
321.483	62.63
321.697	54.44
321.91	15.53
322.124	119.98
322.337	105.64
322.55	101.55
322.763	52.39
322.977	29.87
323.19	144.55
323.403	162.98
323.617	152.74
323.83	101.55
324.043	60.59
324.256	64.68
324.469	40.11
324.683	122.02
324.896	11.43
325.109	70.83
325.322	-33.62
325.535	111.78
325.748	66.73
325.962	101.55
326.175	85.16
326.388	117.93
326.601	89.26
326.814	29.87
327.027	38.06
327.24	197.8
327.453	-23.38
327.666	44.2
327.879	81.07
328.092	119.98
328.305	85.16
328.518	19.63
328.731	54.44
328.944	144.55
329.157	117.93
329.37	81.07
329.583	177.32
329.796	109.74
330.009	7.34
330.222	171.18
330.435	85.16
330.648	50.35
330.861	103.59
331.073	-31.57
331.286	25.77
331.499	3.24
331.712	11.43
331.925	79.02
332.138	103.59
332.35	76.97
332.563	36.01
332.776	109.74
332.989	79.02
333.202	87.21
333.414	87.21
333.627	48.3
333.84	76.97
334.053	87.21
334.265	-13.14
334.478	-15.19
334.691	36.01
334.903	60.59
335.116	15.53
335.329	81.07
335.541	36.01
335.754	87.21
335.966	72.87
336.179	74.92
336.392	93.35
336.604	13.48
336.817	109.74
337.029	85.16
337.242	122.02
337.454	111.78
337.667	-21.33
337.88	111.78
338.092	74.92
338.305	70.83
338.517	97.45
338.729	54.44
338.942	68.78
339.154	3.24
339.367	62.63
339.579	111.78
339.792	27.82
340.004	154.79
340.217	5.29
340.429	-17.24
340.641	103.59
340.854	111.78
341.066	21.67
341.278	107.69
341.491	165.03
341.703	56.49
341.915	25.77
342.128	87.21
342.34	29.87
342.552	70.83
342.764	52.39
342.977	87.21
343.189	11.43
343.401	70.83
343.613	7.34
343.826	93.35
344.038	70.83
344.25	74.92
344.462	42.15
344.674	89.26
344.886	107.69
345.099	130.22
345.311	56.49
345.523	-7
345.735	15.53
345.947	83.11
346.159	83.11
346.371	54.44
346.583	5.29
346.795	81.07
347.007	40.11
347.219	111.78
347.431	99.5
347.643	64.68
347.855	42.15
348.067	115.88
348.279	40.11
348.491	50.35
348.703	48.3
348.915	76.97
349.127	19.63
349.339	83.11
349.551	17.58
349.763	85.16
349.975	36.01
350.187	111.78
350.399	124.07
350.61	87.21
350.822	-4.95
351.034	36.01
351.246	29.87
351.458	101.55
351.669	103.59
351.881	132.26
352.093	158.89
352.305	142.5
352.517	72.87
352.728	117.93
352.94	119.98
353.152	103.59
353.363	3.24
353.575	70.83
353.787	72.87
353.999	144.55
354.21	111.78
354.422	56.49
354.633	42.15
354.845	42.15
355.057	40.11
355.268	74.92
355.48	126.12
355.692	-29.52
355.903	17.58
356.115	105.64
356.326	29.87
356.538	134.31
356.749	81.07
356.961	-17.24
357.172	87.21
357.384	58.54
357.595	113.83
357.807	19.63
358.018	93.35
358.23	105.64
358.441	113.83
358.653	76.97
358.864	85.16
359.075	-37.72
359.287	29.87
359.498	50.35
359.709	148.65
359.921	142.5
360.132	81.07
360.344	70.83
360.555	105.64
360.766	93.35
360.977	68.78
361.189	68.78
361.4	-45.91
361.611	130.22
361.823	95.4
362.034	19.63
362.245	36.01
362.456	15.53
362.667	99.5
362.879	74.92
363.09	68.78
363.301	68.78
363.512	44.2
363.723	27.82
363.935	76.97
364.146	136.36
364.357	42.15
364.568	122.02
364.779	83.11
364.99	122.02
365.201	68.78
365.412	79.02
365.623	70.83
365.834	85.16
366.045	109.74
366.256	42.15
366.467	83.11
366.678	60.59
366.889	15.53
367.1	23.72
367.311	150.7
367.522	99.5
367.733	72.87
367.944	126.12
368.155	50.35
368.366	81.07
368.577	150.7
368.788	152.74
368.999	31.91
369.209	70.83
369.42	175.27
369.631	107.69
369.842	17.58
370.053	-35.67
370.264	119.98
370.474	17.58
370.685	62.63
370.896	50.35
371.107	146.6
371.317	79.02
371.528	60.59
371.739	93.35
371.95	162.98
372.16	128.17
372.371	36.01
372.582	27.82
372.792	50.35
373.003	111.78
373.214	31.91
373.424	177.32
373.635	56.49
373.846	58.54
374.056	44.2
374.267	36.01
374.477	95.4
374.688	134.31
374.898	44.2
375.109	60.59
375.319	7.34
375.53	101.55
375.74	111.78
375.951	56.49
376.161	124.07
376.372	212.14
376.582	44.2
376.793	58.54
377.003	76.97
377.214	81.07
377.424	193.7
377.635	68.78
377.845	31.91
378.055	115.88
378.266	15.53
378.476	105.64
378.686	130.22
378.897	-13.14
379.107	74.92
379.317	126.12
379.528	126.12
379.738	101.55
379.948	70.83
380.158	97.45
380.369	79.02
380.579	111.78
380.789	11.43
380.999	113.83
381.21	152.74
381.42	109.74
381.63	27.82
381.84	52.39
382.05	70.83
382.261	93.35
382.471	99.5
382.681	76.97
382.891	146.6
383.101	152.74
383.311	13.48
383.521	3.24
383.731	109.74
383.941	177.32
384.151	64.68
384.361	76.97
384.571	113.83
384.781	50.35
384.991	62.63
385.201	126.12
385.411	93.35
385.621	85.16
385.831	72.87
386.041	101.55
386.251	119.98
386.461	103.59
386.671	93.35
386.881	-19.29
387.091	83.11
387.301	119.98
387.511	109.74
387.72	87.21
387.93	165.03
388.14	62.63
388.35	38.06
388.56	111.78
388.769	126.12
388.979	83.11
389.189	33.96
389.399	38.06
389.609	95.4
389.818	128.17
390.028	103.59
390.238	81.07
390.447	62.63
390.657	152.74
390.867	83.11
391.076	44.2
391.286	72.87
391.496	117.93
391.705	81.07
391.915	162.98
392.125	89.26
392.334	40.11
392.544	115.88
392.753	128.17
392.963	72.87
393.172	136.36
393.382	60.59
393.591	117.93
393.801	113.83
394.01	185.51
394.22	79.02
394.429	115.88
394.639	60.59
394.848	138.41
395.058	93.35
395.267	46.25
395.477	122.02
395.686	136.36
395.895	162.98
396.105	173.22
396.314	38.06
396.524	128.17
396.733	183.46
396.942	189.61
397.152	87.21
397.361	103.59
397.57	113.83
397.78	122.02
397.989	111.78
398.198	165.03
398.407	76.97
398.617	146.6
398.826	70.83
399.035	119.98
399.244	212.14
399.453	150.7
399.663	148.65
399.872	152.74
400.081	115.88
400.29	224.42
400.499	111.78
400.708	181.42
400.917	144.55
401.127	128.17
401.336	31.91
401.545	199.85
401.754	208.04
401.963	111.78
402.172	70.83
402.381	91.31
402.59	255.14
402.799	103.59
403.008	154.79
403.217	122.02
403.426	158.89
403.635	33.96
403.844	208.04
404.053	212.14
404.262	150.7
404.471	234.66
404.68	107.69
404.888	146.6
405.097	187.56
405.306	173.22
405.515	208.04
405.724	144.55
405.933	183.46
406.142	216.23
406.35	234.66
406.559	226.47
406.768	220.33
406.977	322.73
407.185	283.81
407.394	279.72
407.603	183.46
407.812	253.09
408.02	277.67
408.229	296.1
408.438	244.9
408.646	216.23
408.855	259.24
409.064	234.66
409.272	353.45
409.481	367.78
409.69	343.21
409.898	353.45
410.107	345.25
410.315	355.49
410.524	392.36
410.733	480.42
410.941	396.45
411.15	388.26
411.358	476.32
411.567	500.9
411.775	404.64
411.984	482.47
412.192	490.66
412.401	545.95
412.609	480.42
412.818	507.04
413.026	570.53
413.234	552.1
413.443	582.82
413.651	580.77
413.86	650.4
414.068	605.35
414.276	640.16
414.485	601.25
414.693	752.8
414.901	791.71
415.11	795.81
415.318	707.74
415.526	730.27
415.734	857.25
415.943	722.08
416.151	916.64
416.359	920.73
416.567	990.36
416.776	969.88
416.984	988.32
417.192	1129.63
417.4	1119.39
417.608	1035.42
417.817	1125.53
418.025	1176.73
418.233	1232.02
418.441	1279.13
418.649	1297.56
418.857	1313.94
419.065	1449.11
419.273	1334.42
419.481	1553.55
419.689	1543.32
419.897	1600.66
420.105	1549.46
420.313	1678.48
420.521	1768.59
420.729	1864.85
420.937	1770.64
421.145	1860.75
421.353	1950.86
421.561	1989.77
421.769	2096.27
421.977	2221.19
422.185	2143.37
422.393	2288.78
422.601	2411.65
422.809	2342.02
423.017	2452.61
423.224	2489.48
423.432	2555.01
423.64	2643.07
423.848	2933.89
424.056	2808.96
424.263	3046.52
424.471	2884.73
424.679	3114.11
424.887	3191.93
425.094	3353.72
425.302	3492.98
425.51	3556.47
425.718	3540.08
425.925	3593.33
426.133	3703.92
426.341	4021.36
426.548	3904.62
426.756	4099.18
426.964	4076.65
427.171	4473.96
427.379	4568.16
427.586	4566.12
427.794	4830.3
428.001	5076.06
428.209	5272.67
428.417	5127.26
428.624	5467.22
428.832	5651.54
429.039	5690.45
429.247	5563.48
429.454	6022.22
429.662	6421.58
429.869	6151.24
430.076	6294.6
430.284	6175.82
430.491	6556.74
430.699	6906.95
430.906	6851.65
431.114	6958.14
431.321	7294.01
431.528	7375.93
431.736	7840.82
431.943	8287.28
432.15	7887.92
432.358	8131.63
432.565	8641.57
432.772	8326.19
432.979	8807.46
433.187	9139.23
433.394	9104.42
433.601	9661.46
433.808	9731.09
434.016	9735.19
434.223	10228.75
434.43	10843.14
434.637	10464.27
434.844	11136
435.052	11631.61
435.259	11357.18
435.466	11404.28
435.673	11318.27
435.88	12030.96
436.087	12801
436.294	12559.34
436.501	12260.34
436.708	12493.8
436.915	13212.64
437.122	13972.44
437.329	13540.32
437.537	13915.09
437.743	14476.24
437.95	14308.3
438.157	15027.14
438.364	15416.26
438.571	15246.27
438.778	15664.06
438.985	17085.35
439.192	16255.92
439.399	16927.66
439.606	16462.77
439.813	17437.6
440.02	18533.26
440.227	18355.09
440.433	17894.3
440.64	18416.53
440.847	18596.75
441.054	18850.7
441.261	20249.46
441.467	20020.09
441.674	20210.55
441.881	20982.63
442.088	21033.83
442.294	20872.04
442.501	21336.93
442.708	21642.08
442.914	22633.3
443.121	23739.2
443.328	22621.01
443.534	24462.13
443.741	23888.7
443.948	23552.84
444.154	25490.21
444.361	25097
444.568	25410.34
444.774	25522.98
444.981	25897.76
445.187	26356.5
445.394	27636.48
445.6	27198.22
445.807	29756.13
446.013	28574.45
446.22	28877.55
446.426	30251.74
446.633	30472.92
446.839	31476.43
447.046	30401.24
447.252	31843.01
447.459	32119.49
447.665	31584.97
447.871	33596.07
448.078	34740.89
448.284	32758.45
448.491	33796.77
448.697	35297.94
448.903	35779.21
449.11	36186.75
449.316	35283.6
449.522	36096.64
449.728	37251.7
449.935	37411.44
450.141	37505.65
450.347	38507.1
450.553	37147.25
450.76	37698.16
450.966	38689.37
451.172	38496.86
451.378	39346.77
451.584	38240.87
451.791	39512.66
451.997	39451.22
452.203	40088.13
452.409	40016.46
452.615	39991.88
452.821	38361.7
453.027	38148.71
453.233	40311.36
453.44	38460
453.646	39084.63
453.852	39512.66
454.058	39858.76
454.264	38707.8
454.47	39567.95
454.676	38642.27
454.882	40133.19
455.088	36651.64
455.294	36694.65
455.5	37737.07
455.705	37876.33
455.911	36633.21
456.117	35783.3
456.323	35213.97
456.529	33235.63
456.735	34808.47
456.941	33981.09
457.147	33436.33
457.352	32570.04
457.558	32148.16
457.764	32312
457.97	31664.84
458.176	31062.74
458.381	30931.67
458.587	29571.82
458.793	29504.23
458.999	27996.93
459.204	30065.38
459.41	29274.86
459.616	26901.26
459.821	27276.04
460.027	27128.59
460.233	26592.02
460.438	25277.22
460.644	25307.94
460.85	24265.53
461.055	23790.4
461.261	23571.27
461.466	22072.15
461.672	21513.06
461.878	23196.49
462.083	21451.62
462.289	21050.22
462.494	20882.28
462.7	20110.2
462.905	19395.46
463.111	20151.16
463.316	20104.06
463.522	19714.94
463.727	19671.93
463.932	20075.38
464.138	19377.03
464.343	19301.25
464.549	19002.25
464.754	19477.38
464.959	19553.15
465.165	19157.89
465.37	18353.04
465.575	17931.16
465.781	18928.52
465.986	18944.91
466.191	18146.2
466.397	17779.61
466.602	16704.43
466.807	17791.9
467.012	17544.09
467.218	17447.84
467.423	17273.76
467.628	17640.35
467.833	18080.66
468.038	17476.51
468.244	16987.05
468.449	17593.25
468.654	17142.69
468.859	16855.98
469.064	16898.98
469.269	16262.07
469.474	16276.4
469.679	16548.78
469.885	16022.45
470.09	16124.85
470.295	16260.02
470.5	15764.41
470.705	15817.66
470.91	15354.82
471.115	15627.2
471.32	15897.53
471.525	15473.6
471.73	15262.66
471.935	15147.97
472.139	14662.6
472.344	15053.76
472.549	14685.13
472.754	14558.16
472.959	14310.35
473.164	13915.09
473.369	13808.6
473.574	14212.05
473.778	14212.05
473.983	14175.19
474.188	13824.98
474.393	13462.49
474.598	13497.31
474.802	13317.09
475.007	13218.78
475.212	13028.32
475.417	12807.14
475.621	12794.86
475.826	12911.59
476.031	12393.45
476.235	12372.97
476.44	12579.82
476.645	12135.41
476.849	12202.99
477.054	12092.4
477.259	11883.51
477.463	12053.49
477.668	11496.44
477.872	11781.11
478.077	11404.28
478.282	11107.33
478.486	11160.58
478.691	11348.99
478.895	11152.38
479.1	11047.94
479.304	11004.93
479.509	10822.66
479.713	11095.04
479.918	10767.37
480.122	10464.27
480.326	10497.03
480.531	10890.24
480.735	10578.95
480.94	10267.66
481.144	10673.16
481.348	10144.78
481.553	10292.24
481.757	10308.62
481.961	10316.81
482.166	10525.71
482.37	10439.69
482.574	10122.26
482.778	10247.18
482.983	10376.2
483.187	10216.46
483.391	10120.21
483.595	10165.26
483.8	10060.82
484.004	10046.48
484.208	10306.57
484.412	9915.41
484.616	10296.33
484.821	10216.46
485.025	10181.65
485.229	10290.19
485.433	10124.3
485.637	10005.52
485.841	10097.68
486.045	10093.58
486.249	10021.91
486.453	10050.58
486.657	10013.71
486.861	10212.37
487.065	9706.52
487.269	10234.89
487.473	10058.77
487.677	10142.74
487.881	10390.54
488.085	10216.46
488.289	10089.49
488.493	10255.37
488.697	10355.72
488.901	10191.89
489.105	10292.24
489.309	10247.18
489.512	10095.63
489.716	10275.85
489.92	10146.83
490.124	10300.43
490.328	10451.98
490.531	10341.39
490.735	10513.42
490.939	10605.58
491.143	10480.65
491.346	10488.84
491.55	10542.09
491.754	10408.97
491.958	10630.15
492.161	10494.99
492.365	10785.8
492.569	10693.64
492.772	10898.44
492.976	10886.15
493.18	10900.48
493.383	11170.82
493.587	11179.01
493.79	11002.88
493.994	10992.64
494.197	11258.88
494.401	11099.14
494.605	11334.65
494.808	11455.48
495.012	11484.16
495.215	11488.25
495.419	11344.89
495.622	11572.22
495.825	11717.62
496.029	11725.82
496.232	12159.99
496.436	12121.07
496.639	12272.62
496.843	12039.15
497.046	12452.84
497.249	12637.16
497.453	12684.27
497.656	12854.25
497.859	12864.49
498.063	12733.42
498.266	13106.15
498.469	13009.89
498.673	13069.28
498.876	13425.63
499.079	13913.05
499.282	13677.53
499.485	13872.09
499.689	14044.12
499.892	14263.25
500.095	14353.36
500.298	14480.33
500.501	14412.75
500.705	14826.44
500.908	15021
501.111	15125.44
501.314	15256.51
501.517	15156.16
501.72	15569.85
501.923	15479.74
502.126	15848.38
502.329	16145.33
502.532	16059.32
502.735	16270.26
502.938	16706.48
503.141	16743.34
503.344	17177.51
503.547	17200.04
503.75	17181.6
503.953	17519.52
504.156	17759.13
504.359	17863.58
504.562	17841.05
504.765	18402.19
504.968	18598.8
505.17	18797.45
505.373	18566.03
505.576	19063.69
505.779	18862.99
505.982	19528.58
506.185	19690.37
506.387	19825.53
506.59	19755.9
506.793	20278.13
506.996	20169.59
507.198	20880.24
507.401	20659.06
507.604	20996.97
507.807	21277.54
508.009	21416.8
508.212	21695.33
508.415	21844.83
508.617	22141.78
508.82	22149.98
509.022	22154.07
509.225	22907.73
509.428	23003.98
509.63	22983.5
509.833	23192.39
510.035	23808.83
510.238	23610.18
510.44	24048.44
510.643	24283.96
510.845	24714.03
511.048	24148.79
511.25	24884.01
511.453	24890.16
511.655	26106.65
511.858	25467.69
512.06	25660.2
512.262	26100.51
512.465	25912.1
512.667	26796.82
512.87	27077.39
513.072	26680.08
513.274	27456.26
513.477	27771.65
513.679	28029.69
513.881	28295.93
514.084	28441.34
514.286	28629.75
514.488	28455.67
514.69	29768.42
514.893	29516.52
515.095	29737.7
515.297	30071.52
515.499	30137.05
515.701	30397.15
515.904	30890.71
516.106	30915.28
516.308	31279.82
516.51	31363.79
516.712	31529.67
516.914	31611.59
517.116	32549.56
517.318	32631.48
517.52	32885.43
517.722	33084.08
517.925	33505.96
518.127	33624.75
518.329	34144.93
518.531	34026.15
518.733	34568.86
518.935	34663.07
519.136	35009.17
519.338	35177.11
519.54	35158.67
519.742	36102.79
519.944	36018.82
520.146	36711.03
520.348	36407.94
520.55	36819.58
520.752	36784.76
520.954	37853.8
521.155	37595.76
521.357	38027.88
521.559	38212.2
521.761	38984.28
521.963	38586.97
522.164	39307.86
522.366	39043.67
522.568	39469.65
522.77	39778.89
522.971	40026.7
523.173	40116.81
523.375	40684.09
523.576	40884.79
523.778	40829.5
523.98	41208.37
524.181	41605.68
524.383	41572.91
524.584	42396.2
524.786	42117.67
524.988	41814.57
525.189	42764.83
525.391	43094.55
525.592	42906.14
525.794	43074.07
525.995	42949.15
526.197	43706.9
526.398	43610.64
526.6	44075.53
526.801	43846.16
527.003	44073.48
527.204	44265.99
527.406	44683.78
527.607	44714.5
527.808	44888.57
528.01	44399.11
528.211	44837.37
528.412	45599.22
528.614	45636.08
528.815	45433.33
529.016	45636.08
529.218	45402.61
529.419	45513.2
529.62	45978.09
529.822	45795.82
530.023	46406.12
530.224	46275.05
530.425	46322.15
530.626	46107.12
530.828	46131.69
531.029	46901.73
531.23	46529
531.431	46770.66
531.632	46830.05
531.833	47008.22
532.035	46752.23
532.236	47018.46
532.437	46924.25
532.638	46991.84
532.839	47141.34
533.04	47401.43
533.241	47026.65
533.442	47823.31
533.643	47370.71
533.844	47651.28
534.045	47524.31
534.246	46555.62
534.447	47751.63
534.648	47245.79
534.849	47518.17
535.05	46803.42
535.251	47483.35
535.451	47268.31
535.652	47731.15
535.853	47692.24
536.054	47692.24
536.255	48130.51
536.456	47219.16
536.657	48185.8
536.857	47718.87
537.058	47280.6
537.259	47569.36
537.46	47776.21
537.66	47630.8
537.861	47460.82
538.062	47319.51
538.263	47765.97
538.463	47456.73
538.664	47708.63
538.865	47514.07
539.065	47600.08
539.266	47114.72
539.466	48337.35
539.667	47497.69
539.868	47890.9
540.068	47448.53
540.269	47477.21
540.469	47851.98
540.67	47407.58
540.87	47421.91
541.071	47284.7
541.271	47581.65
541.472	47833.55
541.672	47626.71
541.873	47141.34
542.073	46748.13
542.274	48019.92
542.474	47356.38
542.675	47323.61
542.875	47755.73
543.075	47368.66
543.276	47253.98
543.476	47735.25
543.676	46840.29
543.877	47161.82
544.077	47598.04
544.277	47438.29
544.478	47303.13
544.678	47870.42
544.878	47417.82
545.078	47501.78
545.279	47122.91
545.479	47157.72
545.679	47380.95
545.879	47618.52
546.079	47438.29
546.28	47301.08
546.48	47040.99
546.68	47663.57
546.88	47172.06
547.08	47307.22
547.28	47131.1
547.48	46684.64
547.68	46924.25
547.88	46807.52
548.081	47084
548.281	47174.11
548.481	46744.03
548.681	47645.14
548.881	47163.87
549.081	47079.9
549.28	47026.65
549.48	46959.07
549.68	46922.21
549.88	47458.77
550.08	46997.98
550.28	47206.87
550.48	46680.55
550.68	47178.2
550.88	46903.77
551.08	46842.34
551.279	46701.03
551.479	46526.95
551.679	46936.54
551.879	46834.14
552.079	47147.48
552.278	46703.07
552.478	46868.96
552.678	46600.68
552.878	47047.13
553.077	47114.72
553.277	46692.83
553.477	47190.49
553.676	46690.79
553.876	46619.11
554.076	46539.24
554.275	46574.05
554.475	45957.61
554.674	46569.96
554.874	46379.49
555.074	45951.47
555.273	46338.54
555.473	46350.82
555.672	46215.66
555.872	46109.16
556.071	46209.51
556.271	46103.02
556.47	45797.87
556.67	46119.4
556.869	46023.15
557.068	46225.9
557.268	46072.3
557.467	45804.02
557.667	45640.18
557.866	45894.13
558.065	45406.71
558.265	45699.57
558.464	45134.33
558.663	45457.91
558.863	45167.1
559.062	45738.48
559.261	45119.99
559.461	45808.11
559.66	44739.07
559.859	44833.28
560.058	45058.56
560.258	45036.03
560.457	44603.91
560.656	45298.17
560.855	44499.46
561.054	44763.65
561.253	44384.77
561.453	44454.4
561.652	44804.61
561.851	44608
562.05	44304.9
562.249	43698.7
562.448	44466.69
562.647	44014.09
562.846	43850.25
563.045	44063.24
563.244	43502.1
563.443	44360.2
563.642	43516.43
563.841	43287.06
564.04	43207.19
564.239	43577.87
564.438	43325.97
564.637	43518.48
564.836	43352.6
565.035	42766.88
565.234	43117.08
565.432	43100.7
565.631	42926.62
565.83	43172.38
566.029	42541.6
566.228	42355.24
566.427	42388
566.625	41892.4
566.824	41480.75
567.023	42295.85
567.222	41243.19
567.42	42310.18
567.619	41798.19
567.818	41517.62
568.016	41878.06
568.215	41933.35
568.414	41632.3
568.612	41722.41
568.811	41007.67
569.01	41171.51
569.208	40813.12
569.407	41425.46
569.605	40815.16
569.804	40837.69
570.002	41128.5
570.201	41011.77
570.4	40428.1
570.598	39950.92
570.797	40225.35
570.995	40276.55
571.193	40161.86
571.392	40112.71
571.59	40059.46
571.789	40002.12
571.987	39688.78
572.186	39721.55
572.384	39678.54
572.582	39942.73
572.781	39565.9
572.979	38713.95
573.177	39424.59
573.376	39406.16
573.574	38713.95
573.772	38945.37
573.971	38625.89
574.169	38687.32
574.367	38228.58
574.565	38613.6
574.763	38214.24
574.962	38609.5
575.16	37991.01
575.358	38068.84
575.556	37452.4
575.754	38572.64
575.952	37452.4
576.151	38054.5
576.349	37411.44
576.547	37001.85
576.745	37317.23
576.943	37761.64
577.141	37591.66
577.339	37296.75
577.537	36991.61
577.735	37198.45
577.933	36825.72
578.131	37007.99
578.329	36618.88
578.527	36162.18
578.725	36807.29
578.923	36522.62
579.121	36280.96
579.319	36434.56
579.516	36371.07
579.714	36139.65
579.912	35961.48
580.11	36280.96
580.308	35760.78
580.506	35762.82
580.704	34960.02
580.901	35719.82
581.099	35422.86
581.297	35433.1
581.495	34921.11
581.692	35367.57
581.89	35183.25
582.088	35095.19
582.285	35089.04
582.483	35107.47
582.681	34994.84
582.878	34230.94
583.076	34153.12
583.274	34800.28
583.471	33921.7
583.669	34192.03
583.866	34034.34
584.064	34263.71
584.262	33735.34
584.459	34456.22
584.657	33761.96
584.854	34259.62
585.052	33471.15
585.249	33684.14
585.447	33424.04
585.644	33174.19
585.841	33438.38
586.039	33854.12
586.236	32993.97
586.434	32862.9
586.631	32969.4
586.828	32907.96
587.026	32613.05
587.223	32490.17
587.42	32629.43
587.618	32508.6
587.815	32451.26
588.012	32144.06
588.21	32035.52
588.407	32260.8
588.604	32039.62
588.801	31640.26
588.999	31662.79
589.196	31541.96
589.393	31836.87
589.59	31396.56
589.787	31320.78
589.984	31402.7
590.182	30917.33
590.379	31226.57
590.576	31214.29
590.773	31204.05
590.97	30702.29
591.167	30823.12
591.364	30536.41
591.561	30917.33
591.758	30603.99
591.955	30651.09
592.152	30329.56
592.349	30315.23
592.546	30304.99
592.743	30380.76
592.94	29739.75
593.137	29926.11
593.334	29795.04
593.531	29463.27
593.727	29663.97
593.924	29938.4
594.121	29264.62
594.318	29596.39
594.515	29113.07
594.712	29276.91
594.908	29201.13
595.105	28848.88
595.302	29068.02
595.499	29088.49
595.696	29098.73
595.892	28572.41
596.089	28605.17
596.286	28572.41
596.482	28336.89
596.679	28330.75
596.876	28568.31
597.072	28474.1
597.269	28304.12
597.466	27843.33
597.662	28066.56
597.859	27796.23
598.055	27980.54
598.252	27560.71
598.448	27429.64
598.645	27384.58
598.841	27263.75
599.038	27499.27
599.234	27249.42
599.431	27157.26
599.627	26923.79
599.824	27304.71
600.02	26915.6
600.217	27196.17
600.413	26860.3
600.609	26788.63
600.806	26583.83
601.002	26669.84
601.198	26428.18
601.395	26610.45
601.591	26198.81
601.787	26487.57
601.984	26186.52
602.18	26434.33
602.376	26286.87
602.572	25961.25
602.769	26155.8
602.965	25756.45
603.161	25850.66
603.357	25609
603.553	25447.21
603.75	25639.72
603.946	25146.15
604.142	25631.52
604.338	25260.84
604.534	25506.6
604.73	24924.97
604.926	25187.11
605.122	25436.97
605.318	24927.02
605.514	24988.46
605.71	24664.88
605.906	24822.58
606.102	24589.11
606.298	24628.02
606.494	24507.19
606.69	24699.7
606.886	24601.4
607.082	24015.68
607.278	24234.81
607.474	23884.61
607.67	24273.72
607.866	24015.68
608.062	24220.47
608.257	24224.57
608.453	24011.58
608.649	24017.72
608.845	23731.01
609.041	24001.34
609.236	24087.36
609.432	23558.98
609.628	23663.43
609.824	23366.47
610.019	23419.72
610.215	23569.22
610.411	23513.92
610.606	23341.89
610.802	23178.06
610.998	23049.03
611.193	23448.39
611.389	23196.49
611.584	22776.66
611.78	22844.24
611.976	23034.7
612.171	23159.63
612.367	22842.19
612.562	22889.29
612.758	22434.64
612.953	22557.52
613.149	22829.9
613.344	22438.74
613.539	22649.68
613.735	22461.27
613.93	22745.94
614.126	22360.92
614.321	22614.87
614.517	22434.64
614.712	22199.13
614.907	22494.04
615.103	22362.97
615.298	21871.45
615.493	22188.89
615.688	21810.01
615.884	22399.83
616.079	21842.78
616.274	22174.55
616.47	21934.94
616.665	21928.8
616.86	21713.76
617.055	22000.47
617.25	21936.99
617.445	21777.25
617.641	21226.34
617.836	21717.86
618.031	21533.54
618.226	21521.25
618.421	21111.66
618.616	21314.41
618.811	21179.24
619.006	21187.43
619.201	20988.78
619.396	20837.23
619.591	20482.93
619.786	20939.63
619.981	20538.23
620.176	20691.82
620.371	20552.56
620.566	20353.91
620.761	20372.34
620.956	20603.76
621.151	20196.21
621.346	20409.2
621.541	19796.86
621.735	20325.24
621.93	19723.13
622.125	19934.07
622.32	19495.81
622.515	19630.98
622.709	19569.54
622.904	19374.98
623.099	19334.02
623.294	19352.45
623.488	19125.13
623.683	19094.41
623.878	18865.03
624.072	18940.81
624.267	18922.38
624.462	18525.07
624.656	18152.34
624.851	18576.27
625.046	18539.41
625.24	18242.45
625.435	18113.43
625.629	18322.32
625.824	18019.22
626.018	17867.67
626.213	17632.16
626.407	17671.07
626.602	17431.46
626.796	17550.24
626.991	17656.73
627.185	17345.44
627.38	17281.95
627.574	17304.48
627.768	17136.55
627.963	16960.42
628.157	16884.65
628.352	16876.46
628.546	16718.76
628.74	16827.31
628.935	16470.96
629.129	16651.18
629.323	16266.16
629.517	16450.48
629.712	16204.72
629.906	16083.89
630.1	16059.32
630.294	15805.37
630.489	15573.95
630.683	15715.26
630.877	15569.85
631.071	15510.46
631.265	15760.31
631.459	15522.75
631.653	15385.54
631.848	15268.8
632.042	15324.1
632.236	15123.4
632.43	14912.46
632.624	14998.47
632.818	14857.16
633.012	14834.63
633.206	14601.16
633.4	14652.36
633.594	14560.2
633.788	14339.02
633.982	14441.42
634.176	14433.23
634.369	14226.39
634.563	14322.64
634.757	14158.8
634.951	14224.34
635.145	14175.19
635.339	14078.93
635.533	13677.53
635.726	13945.81
635.92	13806.55
636.114	13585.37
636.308	13382.62
636.501	13489.12
636.695	13499.36
636.889	13149.15
637.083	13220.83
637.276	13278.18
637.47	13065.19
637.664	13028.32
637.857	13059.04
638.051	12995.56
638.244	12762.09
638.438	12819.43
638.632	12768.23
638.825	12631.02
639.019	12602.35
639.212	12454.89
639.406	12430.32
639.599	12381.17
639.793	12391.41
639.986	12061.68
640.18	12186.61
640.373	12180.46
640.567	11901.94
640.76	12051.44
640.954	11920.37
641.147	11813.88
641.34	12012.53
641.534	11971.57
641.727	11756.54
641.92	11467.77
642.114	11611.13
642.307	11693.05
642.5	11498.49
642.694	11217.92
642.887	11330.56
643.08	11516.92
643.273	11256.83
643.467	11332.61
643.66	10843.14
643.853	11187.2
644.046	11011.07
644.239	11111.43
644.432	10867.72
644.626	10755.08
644.819	10808.33
645.012	10800.13
645.205	11023.36
645.398	10687.5
645.591	10443.79
645.784	10492.94
645.977	10353.68
646.17	10449.93
646.363	10384.4
646.556	10298.38
646.749	10212.37
646.942	10472.46
647.135	10128.4
647.328	9993.23
647.521	10062.87
647.714	9954.32
647.907	9933.84
648.099	9800.73
648.292	9894.93
648.485	9751.57
648.678	9569.3
648.871	9477.15
649.064	9638.94
649.256	9741.33
649.449	9489.43
649.642	9444.38
649.835	9495.58
650.027	9434.14
650.22	9358.36
650.413	9153.57
650.605	9200.67
650.798	9204.77
650.991	9018.4
651.183	9063.46
651.376	9020.45
651.568	8956.96
651.761	8711.21
651.954	8875.04
652.146	9012.26
652.339	8643.62
652.531	8778.79
652.724	8827.94
652.916	8651.81
653.109	8461.35
653.301	8717.35
653.494	8537.13
653.686	8408.11
653.879	8516.65
654.071	8424.49
654.263	8293.42
654.456	8279.08
654.648	8375.34
654.84	8131.63
655.033	8320.04
655.225	8246.32
655.417	8195.12
655.61	8207.41
655.802	8053.81
655.994	8053.81
656.186	7971.89
656.379	7810.1
656.571	7853.11
656.763	7631.93
656.955	7830.58
657.148	7885.87
657.34	7851.06
657.532	7853.11
657.724	7697.46
657.916	7603.25
658.108	7654.45
658.3	7509.05
658.492	7625.78
658.684	7547.96
658.876	7482.42
659.068	7195.71
659.26	7171.13
659.452	7390.27
659.644	7343.16
659.836	7179.33
660.028	7306.3
660.22	6925.38
660.412	7265.34
660.604	7128.13
660.796	6980.67
660.988	7015.49
661.18	6966.34
661.372	6915.14
661.563	7050.3
661.755	6966.34
661.947	6896.71
662.139	7023.68
662.331	6841.41
662.522	6927.42
662.714	6902.85
662.906	6595.65
663.097	6634.57
663.289	6681.67
663.481	6536.26
663.673	6640.71
663.864	6650.95
664.056	6480.97
664.247	6472.78
664.439	6431.82
664.631	6468.68
664.822	6700.1
665.014	6526.02
665.205	6335.56
665.397	6401.1
665.588	6454.34
665.78	6335.56
665.971	6313.03
666.163	6302.79
666.354	6224.97
666.546	6093.9
666.737	6192.2
666.929	6122.57
667.12	6233.16
667.311	6257.74
667.503	6157.39
667.694	5997.65
667.885	6161.48
668.077	6171.72
668.268	5852.24
668.459	6018.13
668.651	5983.31
668.842	5981.26
669.033	5741.65
669.224	6007.89
669.416	5921.87
669.607	5844.05
669.798	5755.99
669.989	5925.97
670.18	5712.98
670.371	5672.02
670.563	5663.83
670.754	5780.56
670.945	5753.94
671.136	5651.54
671.327	5745.75
671.518	5618.77
671.709	5780.56
671.9	5805.14
672.091	5684.31
672.282	5735.51
672.473	5549.14
672.664	5559.38
672.855	5436.5
673.046	5540.95
673.237	5635.16
673.428	5618.77
673.619	5596.25
673.809	5497.94
674	5528.66
674.191	5555.29
674.382	5485.65
674.573	5610.58
674.764	5530.71
674.954	5559.38
675.145	5450.84
675.336	5430.36
675.527	5336.15
675.717	5368.92
675.908	5442.65
676.099	5377.11
676.289	5266.52
676.48	5262.43
676.671	5301.34
676.861	5379.16
677.052	5258.33
677.243	5284.95
677.433	5307.48
677.624	5278.81
677.814	5287
678.005	5215.32
678.195	5448.79
678.386	5250.14
678.576	5151.84
678.767	5311.58
678.957	5080.16
679.148	5250.14
679.338	5385.3
679.529	5262.43
679.719	5368.92
679.909	5356.63
680.1	5270.62
680.29	5319.77
680.481	5028.96
680.671	5258.33
680.861	5135.45
681.052	5260.38
681.242	5256.28
681.432	5399.64
681.622	5282.91
681.813	5313.63
682.003	5215.32
682.193	5252.19
682.383	5112.92
682.573	5143.64
682.764	5211.23
682.954	5221.47
683.144	5307.48
683.334	5143.64
683.524	5153.88
683.714	5209.18
683.904	5016.67
684.094	5055.58
684.284	5139.55
684.474	5129.31
684.664	5203.04
684.854	5198.94
685.044	5198.94
685.234	4988
685.424	5057.63
685.614	4975.71
685.804	5192.8
685.994	4992.09
686.184	5205.08
686.374	4930.66
686.564	4861.02
686.753	4889.7
686.943	4850.78
687.133	4944.99
687.323	4934.75
687.513	4795.49
687.702	5024.86
687.892	4914.27
688.082	4840.54
688.272	4875.36
688.461	4901.98
688.651	4861.02
688.841	4641.89
689.03	4934.75
689.22	4717.67
689.41	4758.63
689.599	4750.43
689.789	4666.47
689.979	4701.28
690.168	4480.1
690.358	4682.85
690.547	4600.93
690.737	4607.08
690.926	4572.26
691.116	4510.82
691.305	4633.7
691.495	4367.46
691.684	4283.5
691.874	4506.73
692.063	4451.43
692.252	4500.58
692.442	4281.45
692.631	4361.32
692.82	4428.9
693.01	4265.07
693.199	4275.31
693.388	4355.18
693.578	4482.15
693.767	4320.36
693.956	4314.22
694.146	4129.9
694.335	4260.97
694.524	4185.19
694.713	4183.15
694.902	4146.28
695.092	4310.12
695.281	4281.45
695.47	4168.81
695.659	4168.81
695.848	4189.29
696.037	4119.66
696.226	4179.05
696.415	4007.02
696.604	4207.72
696.793	4068.46
696.982	4076.65
697.171	4265.07
697.36	4121.71
697.549	4029.55
697.738	3988.59
697.927	3951.73
698.116	4050.03
698.305	4050.03
698.494	4115.56
698.683	4029.55
698.872	4117.61
699.061	4060.27
699.25	3908.72
699.438	4045.93
699.627	4041.84
699.816	4115.56
700.005	4060.27
700.193	4041.84
700.382	4013.17
700.571	4072.56
700.76	4002.93
700.948	3976.3
701.137	4050.03
701.326	4027.5
701.514	4074.6
701.703	3976.3
701.892	4127.85
702.08	4136.04
702.269	4086.89
702.457	4041.84
702.646	4023.41
702.834	3873.9
703.023	4037.74
703.212	4000.88
703.4	4021.36
703.589	3994.73
703.777	4109.42
703.965	3998.83
704.154	4000.88
704.342	4115.56
704.531	4082.8
704.719	3908.72
704.907	4095.08
705.096	4009.07
705.284	3982.45
705.472	4203.63
705.661	4093.04
705.849	4031.6
706.037	3902.58
706.226	4131.95
706.414	3898.48
706.602	3972.21
706.79	4256.87
706.979	4090.99
707.167	4140.14
707.355	3998.83
707.543	4090.99
707.731	4109.42
707.919	4172.91
708.107	4050.03
708.296	4109.42
708.484	3906.67
708.672	4107.37
708.86	4123.76
709.048	3988.59
709.236	4181.1
709.424	4156.52
709.612	4195.43
709.8	3968.11
709.988	4097.13
710.176	4099.18
710.364	4189.29
710.551	4191.34
710.739	4134
710.927	4177
711.115	4281.45
711.303	4303.98
711.491	4146.28
711.679	4140.14
711.866	4220.01
712.054	4271.21
712.242	4301.93
712.43	4303.98
712.617	4111.47
712.805	4183.15
712.993	4097.13
713.181	4281.45
713.368	4301.93
713.556	4316.26
713.744	4217.96
713.931	4363.37
714.119	4177
714.306	4269.16
714.494	4310.12
714.682	4240.49
714.869	4228.2
715.057	4398.18
715.244	4336.74
715.432	4392.04
715.619	4160.62
715.807	4371.56
715.994	4246.63
716.182	4381.8
716.369	4375.66
716.556	4258.92
716.744	4254.83
716.931	4342.89
717.119	4271.21
717.306	4367.46
717.493	4381.8
717.681	4197.48
717.868	4289.64
718.055	4312.17
718.242	4357.22
718.43	4410.47
718.617	4545.64
718.804	4314.22
718.991	4389.99
719.179	4310.12
719.366	4418.66
719.553	4389.99
719.74	4371.56
719.927	4459.62
720.114	4295.79
720.301	4433
720.488	4414.57
720.676	4406.38
720.863	4555.88
721.05	4508.77
721.237	4625.51
721.424	4422.76
721.611	4426.86
721.798	4306.02
721.985	4320.36
722.172	4492.39
722.358	4551.78
722.545	4441.19
722.732	4529.25
722.919	4519.01
723.106	4506.73
723.293	4465.77
723.48	4430.95
723.667	4469.86
723.853	4502.63
724.04	4654.18
724.227	4478.05
724.414	4523.11
724.6	4478.05
724.787	4619.36
724.974	4504.68
725.161	4496.49
725.347	4500.58
725.534	4656.23
725.72	4549.73
725.907	4508.77
726.094	4504.68
726.28	4455.53
726.467	4631.65
726.653	4506.73
726.84	4643.94
727.027	4768.87
727.213	4359.27
727.4	4660.32
727.586	4568.16
727.773	4633.7
727.959	4492.39
728.145	4621.41
728.332	4514.92
728.518	4568.16
728.705	4605.03
728.891	4435.05
729.077	4521.06
729.264	4619.36
729.45	4713.57
729.636	4793.44
729.823	4570.21
730.009	4607.08
730.195	4514.92
730.382	4736.1
730.568	4750.43
730.754	4693.09
730.94	4596.84
731.126	4490.34
731.313	4617.32
731.499	4572.26
731.685	4631.65
731.871	4652.13
732.057	4725.86
732.243	4627.56
732.429	4541.54
732.615	4598.88
732.801	4666.47
732.987	4723.81
733.173	4623.46
733.359	4664.42
733.545	4490.34
733.731	4631.65
733.917	4580.45
734.103	4639.84
734.289	4611.17
734.475	4539.49
734.661	4838.5
734.847	4590.69
735.033	4654.18
735.219	4695.14
735.404	4670.56
735.59	4732
735.776	4699.23
735.962	4721.76
736.148	4582.5
736.333	4633.7
736.519	4631.65
736.705	4658.28
736.89	4580.45
737.076	4707.43
737.262	4394.09
737.447	4559.97
737.633	4537.45
737.819	4613.22
738.004	4553.83
738.19	4564.07
738.375	4598.88
738.561	4643.94
738.747	4662.37
738.932	4566.12
739.118	4484.2
739.303	4439.14
739.489	4523.11
739.674	4476.01
739.859	4461.67
740.045	4357.22
740.23	4627.56
740.416	4385.9
740.601	4451.43
740.786	4367.46
740.972	4416.62
741.157	4316.26
741.342	4381.8
741.528	4433
741.713	4344.94
741.898	4404.33
742.084	4244.59
742.269	4426.86
742.454	4344.94
742.639	4453.48
742.824	4187.24
743.01	4312.17
743.195	4283.5
743.38	4131.95
743.565	4353.13
743.75	4195.43
743.935	4164.72
744.12	4123.76
744.305	4172.91
744.49	4031.6
744.675	4115.56
744.86	4121.71
745.045	3943.53
745.23	4045.93
745.415	4052.08
745.6	4154.48
745.785	3964.01
745.97	4125.8
746.155	3945.58
746.34	4015.21
746.525	3955.82
746.71	4144.24
746.895	3806.32
747.079	3925.1
747.264	3652.72
747.449	3894.38
747.634	3820.66
747.819	3902.58
748.003	3824.75
748.188	3693.68
748.373	3828.85
748.557	3705.97
748.742	3665.01
748.927	3570.8
749.111	3531.89
749.296	3593.33
749.481	3546.23
749.665	3576.95
749.85	3574.9
750.034	3593.33
750.219	3503.22
750.404	3542.13
750.588	3409.01
750.773	3290.23
750.957	3413.11
751.141	3437.69
751.326	3417.21
751.51	3279.99
751.695	3423.35
751.879	3472.5
752.064	3294.33
752.248	3363.96
752.432	3255.42
752.617	3320.95
752.801	3132.54
752.985	3054.72
753.17	3165.31
753.354	3077.24
753.538	3071.1
753.722	3120.25
753.907	3052.67
754.091	2966.65
754.275	3013.76
754.459	2958.46
754.643	2933.89
754.828	3005.56
755.012	3005.56
755.196	2954.37
755.38	2813.06
755.564	2747.52
755.748	2868.35
755.932	2796.67
756.116	2790.53
756.3	2802.82
756.484	2749.57
756.668	2821.25
756.852	2778.24
757.036	2735.23
757.22	2776.19
757.404	2528.39
757.588	2681.99
757.772	2677.89
757.956	2632.83
758.14	2722.95
758.323	2477.19
758.507	2575.49
758.691	2632.83
758.875	2505.86
759.059	2411.65
759.242	2526.34
759.426	2425.99
759.61	2368.65
759.794	2421.89
759.977	2393.22
760.161	2469
760.345	2354.31
760.528	2372.74
760.712	2458.76
760.895	2337.93
761.079	2305.16
761.263	2313.35
761.446	2208.9
761.63	2272.39
761.813	2215.05
761.997	2180.23
762.18	2192.52
762.364	2321.54
762.547	2184.33
762.731	2208.9
762.914	2313.35
763.098	2208.9
763.281	2145.42
763.464	2053.26
763.648	2077.83
763.831	2167.95
764.015	2239.62
764.198	2104.46
764.381	2227.34
764.564	2104.46
764.748	2036.88
764.931	2124.94
765.114	2038.92
765.297	1985.68
765.481	1948.81
765.664	2012.3
765.847	2112.65
766.03	2051.21
766.213	1916.05
766.397	2002.06
766.58	2012.3
766.763	1940.62
766.946	1856.65
767.129	2012.3
767.312	1868.94
767.495	1973.39
767.678	1907.85
767.861	1883.28
768.044	1944.72
768.227	1934.48
768.41	1922.19
768.593	1842.32
768.776	1905.81
768.959	1930.38
769.142	1916.05
769.324	1813.65
769.507	1862.8
769.69	1715.34
769.873	1787.02
770.056	1883.28
770.239	1739.92
770.421	1903.76
770.604	1764.5
770.787	1866.89
770.97	1868.94
771.152	1764.5
771.335	1764.5
771.518	1658
771.7	1717.39
771.883	1688.72
772.066	1733.78
772.248	1703.06
772.431	1651.86
772.613	1731.73
772.796	1539.22
772.978	1658
773.161	1635.47
773.343	1608.85
773.526	1555.6
773.708	1590.42
773.891	1571.99
774.073	1506.45
774.256	1565.84
774.438	1588.37
774.621	1522.84
774.803	1578.13
774.985	1395.86
775.168	1537.17
775.35	1559.7
775.532	1498.26
775.715	1469.59
775.897	1410.2
776.079	1514.64
776.261	1496.21
776.444	1426.58
776.626	1420.44
776.808	1410.2
776.99	1356.95
777.173	1467.54
777.355	1346.71
777.537	1408.15
777.719	1453.2
777.901	1356.95
778.083	1246.36
778.265	1315.99
778.447	1320.09
778.629	1258.65
778.811	1209.5
778.993	1221.78
779.175	1315.99
779.357	1311.89
779.539	1111.19
779.721	1209.5
779.903	1305.75
780.085	1162.39
780.267	1178.78
780.449	1180.82
780.631	1193.11
780.812	1217.69
780.994	1127.58
781.176	1174.68
781.358	1236.12
781.54	1184.92
781.721	1158.3
781.903	1199.26
782.085	1150.11
782.267	1014.94
782.448	1012.89
782.63	1002.65
782.812	1105.05
782.993	1047.71
783.175	1103
783.357	986.27
783.538	1031.32
783.72	1109.15
783.901	1000.6
784.083	961.69
784.264	949.4
784.446	1051.8
784.627	928.92
784.809	1088.67
784.99	947.36
785.172	902.3
785.353	963.74
785.535	914.59
785.716	912.54
785.897	890.01
786.079	906.4
786.26	918.68
786.441	863.39
786.623	879.77
786.804	885.92
786.985	814.24
787.167	898.2
787.348	797.85
787.529	871.58
787.71	959.64
787.891	799.9
788.073	844.96
788.254	724.13
788.435	861.34
788.616	844.96
788.797	724.13
788.978	810.14
789.159	760.99
789.34	801.95
789.522	752.8
789.703	687.26
789.884	822.43
790.065	779.42
790.246	838.81
790.427	707.74
790.607	902.3
790.788	773.28
790.969	611.49
791.15	728.22
791.331	720.03
791.512	750.75
791.693	695.46
791.874	724.13
792.054	847.01
792.235	765.09
792.416	732.32
792.597	683.17
792.778	687.26
792.958	713.89
793.139	681.12
793.32	703.65
793.5	650.4
793.681	769.18
793.862	693.41
794.042	625.83
794.223	652.45
794.404	629.92
794.584	554.15
794.765	584.87
794.945	613.54
795.126	658.59
795.306	631.97
795.487	601.25
795.667	666.78
795.848	570.53
796.028	586.91
796.209	527.52
796.389	584.87
796.57	566.43
796.75	597.15
796.93	527.52
797.111	509.09
797.291	550.05
797.471	564.39
797.652	545.95
797.832	484.52
798.012	654.5
798.192	486.56
798.373	496.8
798.553	488.61
798.733	597.15
798.913	511.14
799.093	515.23
799.274	560.29
799.454	511.14
799.634	537.76
799.814	527.52
799.994	552.1
800.174	466.08
800.354	496.8
800.534	488.61
800.714	449.7
800.894	498.85
801.074	490.66
801.254	453.8
801.434	455.84
801.614	533.67
801.794	502.95
801.974	1490.07
802.154	451.75
802.334	396.45
802.514	439.46
802.693	457.89
802.873	507.04
803.053	525.47
803.233	455.84
803.413	461.99
803.592	421.03
803.772	371.88
803.952	480.42
804.131	496.8
804.311	453.8
804.491	531.62
804.67	324.77
804.85	382.12
805.03	500.9
805.209	402.6
805.389	404.64
805.568	332.97
805.748	476.32
805.928	355.49
806.107	453.8
806.287	445.6
806.466	423.08
806.646	402.6
806.825	378.02
807.004	320.68
807.184	443.56
807.363	396.45
807.543	359.59
807.722	380.07
807.901	382.12
808.081	418.98
808.26	228.52
808.439	466.08
808.619	386.21
808.798	384.16
808.977	421.03
809.156	341.16
809.336	347.3
809.515	408.74
809.694	369.83
809.873	335.01
810.052	429.22
810.231	474.28
810.411	296.1
810.59	429.22
810.769	392.36
810.948	373.92
811.127	240.81
811.306	324.77
811.485	361.64
811.664	359.59
811.843	412.84
812.022	308.39
812.201	287.91
812.38	308.39
812.559	281.77
812.737	306.34
812.916	275.62
813.095	330.92
813.274	343.21
813.453	349.35
813.632	355.49
813.811	373.92
813.989	220.33
814.168	279.72
814.347	171.18
814.526	257.19
814.704	351.4
814.883	341.16
815.062	339.11
815.24	326.82
815.419	269.48
815.598	283.81
815.776	259.24
815.955	257.19
816.133	298.15
816.312	285.86
816.49	181.42
816.669	314.53
816.847	234.66
817.026	371.88
817.204	212.14
817.383	232.62
817.561	195.75
817.74	298.15
817.918	208.04
818.097	269.48
818.275	259.24
818.453	302.25
818.632	341.16
818.81	259.24
818.988	183.46
819.167	222.38
819.345	197.8
819.523	322.73
819.701	222.38
819.879	281.77
820.058	238.76
820.236	330.92
820.414	316.58
820.592	212.14
820.77	242.85
820.948	165.03
821.127	265.38
821.305	261.29
821.483	230.57
821.661	322.73
821.839	232.62
822.017	216.23
822.195	224.42
822.373	234.66
822.551	208.04
822.729	273.57
822.907	249
823.085	302.25
823.262	246.95
823.44	228.52
823.618	212.14
823.796	212.14
823.974	220.33
824.152	201.9
824.329	203.94
824.507	312.49
824.685	150.7
824.863	158.89
825.04	285.86
825.218	257.19
825.396	165.03
825.574	244.9
825.751	234.66
825.929	216.23
826.107	105.64
826.284	216.23
826.462	261.29
826.639	175.27
826.817	160.94
826.994	232.62
827.172	203.94
827.349	253.09
827.527	244.9
827.704	183.46
827.882	230.57
828.059	134.31
828.237	132.26
828.414	226.47
828.591	169.13
828.769	187.56
828.946	132.26
829.124	259.24
829.301	185.51
829.478	173.22
829.655	232.62
829.833	142.5
830.01	36.01
830.187	185.51
830.364	154.79
830.542	109.74
830.719	216.23
830.896	179.37
831.073	156.84
831.25	234.66
831.427	156.84
831.604	146.6
831.782	191.66
831.959	179.37
832.136	119.98
832.313	160.94
832.49	122.02
832.667	265.38
832.844	109.74
833.021	246.95
833.198	175.27
833.374	234.66
833.551	167.08
833.728	177.32
833.905	273.57
834.082	138.41
834.259	134.31
834.436	242.85
834.612	154.79
834.789	119.98
834.966	183.46
835.143	160.94
835.319	130.22
835.496	130.22
835.673	95.4
835.85	185.51
836.026	162.98
836.203	214.18
836.38	93.35
836.556	160.94
836.733	109.74
836.909	199.85
837.086	111.78
837.262	93.35
837.439	185.51
837.616	122.02
837.792	158.89
837.968	224.42
838.145	160.94
838.321	191.66
838.498	72.87
838.674	160.94
838.851	216.23
839.027	169.13
839.203	158.89
839.38	109.74
839.556	79.02
839.732	175.27
839.909	132.26
840.085	136.36
840.261	87.21
840.437	167.08
840.614	132.26
840.79	171.18
840.966	91.31
841.142	134.31
841.318	138.41
841.494	142.5
841.671	119.98
841.847	148.65
842.023	117.93
842.199	130.22
842.375	175.27
842.551	119.98
842.727	111.78
842.903	130.22
843.079	42.15
843.255	191.66
843.431	93.35
843.607	46.25
843.783	46.25
843.959	171.18
844.134	70.83
844.31	140.46
844.486	132.26
844.662	62.63
844.838	97.45
845.013	162.98
845.189	124.07
845.365	105.64
845.541	205.99
845.716	40.11
845.892	175.27
846.068	93.35
846.244	117.93
846.419	138.41
846.595	11.43
846.77	85.16
846.946	115.88
847.122	130.22
847.297	58.54
847.473	150.7
847.648	107.69
847.824	158.89
847.999	158.89
848.175	97.45
848.35	44.2
848.526	113.83
848.701	97.45
848.876	175.27
849.052	181.42
849.227	83.11
849.403	81.07
849.578	-11.09
849.753	113.83
849.929	148.65
850.104	81.07
850.279	130.22
850.454	70.83
850.63	64.68
850.805	93.35
850.98	122.02
851.155	9.39
851.33	115.88
851.505	136.36
851.681	183.46
851.856	60.59
852.031	79.02
852.206	107.69
852.381	42.15
852.556	93.35
852.731	85.16
852.906	68.78
853.081	85.16
853.256	156.84
853.431	142.5
853.606	60.59
853.781	54.44
853.956	11.43
854.131	87.21
854.305	52.39
854.48	62.63
854.655	103.59
854.83	140.46
855.005	3.24
855.18	79.02
855.354	144.55
855.529	70.83
855.704	17.58
855.879	64.68
856.053	44.2
856.228	36.01
856.403	76.97
856.577	76.97
856.752	31.91
856.926	93.35
857.101	87.21
857.276	87.21
857.45	58.54
857.625	87.21
857.799	119.98
857.974	60.59
858.148	-52.05
858.323	76.97
858.497	-66.39
858.672	31.91
858.846	-27.48
859.02	111.78
859.195	85.16
859.369	95.4
859.543	81.07
859.718	85.16
859.892	91.31
860.066	40.11
860.241	76.97
860.415	60.59
860.589	70.83
860.763	-9.05
860.938	105.64
861.112	54.44
861.286	38.06
861.46	31.91
861.634	23.72
861.808	134.31
861.982	7.34
862.157	19.63
862.331	70.83
862.505	19.63
862.679	23.72
862.853	56.49
863.027	79.02
863.201	76.97
863.375	-29.52
863.549	122.02
863.722	13.48
863.896	101.55
864.07	19.63
864.244	50.35
864.418	15.53
864.592	27.82
864.766	83.11
864.939	76.97
865.113	-21.33
865.287	134.31
865.461	-9.05
865.634	56.49
865.808	-2.9
865.982	15.53
866.156	42.15
866.329	-11.09
866.503	97.45
866.676	101.55
866.85	83.11
867.024	25.77
867.197	91.31
867.371	68.78
867.544	95.4
867.718	-62.29
867.891	101.55
868.065	-27.48
868.238	97.45
868.412	52.39
868.585	66.73
868.759	-11.09
868.932	48.3
869.105	-70.48
869.279	103.59
869.452	62.63
869.625	3.24
869.799	79.02
869.972	31.91
870.145	83.11
870.319	128.17
870.492	44.2
870.665	-21.33
870.838	48.3
871.011	-21.33
871.185	-15.19
871.358	83.11
871.531	21.67
871.704	1.19
871.877	85.16
872.05	-9.05
872.223	1.19
872.396	81.07
872.569	38.06
872.742	11.43
872.915	17.58
873.088	33.96
873.261	-58.2
873.434	66.73
873.607	85.16
873.78	83.11
873.953	-60.24
874.126	101.55
874.299	83.11
874.471	40.11
874.644	25.77
874.817	33.96
874.99	97.45
875.163	-0.85
875.335	113.83
875.508	91.31
875.681	27.82
875.853	9.39
876.026	15.53
876.199	97.45
876.371	64.68
876.544	17.58
876.717	29.87
876.889	66.73
877.062	19.63
877.234	-4.95
877.407	-29.52
877.579	93.35
877.752	101.55
877.924	13.48
878.097	68.78
878.269	44.2
878.442	66.73
878.614	44.2
878.786	83.11
878.959	107.69
879.131	48.3
879.303	-23.38
879.476	-11.09
879.648	70.83
879.82	52.39
879.993	27.82
880.165	-78.68
880.337	23.72
880.509	85.16
880.681	76.97
880.854	-7
881.026	115.88
881.198	87.21
881.37	7.34
881.542	21.67
881.714	56.49
881.886	-7
882.058	-4.95
882.23	17.58
882.402	-0.85
882.574	60.59
882.746	29.87
882.918	97.45
883.09	72.87
883.262	-15.19
883.434	-4.95
883.606	23.72
883.778	21.67
883.95	54.44
884.122	70.83
884.293	101.55
884.465	38.06
884.637	70.83
884.809	-50
884.98	76.97
885.152	38.06
885.324	62.63
885.496	11.43
885.667	52.39
885.839	19.63
886.011	60.59
886.182	44.2
886.354	-15.19
886.525	44.2
886.697	93.35
886.869	9.39
887.04	5.29
887.212	62.63
887.383	119.98
887.555	27.82
887.726	11.43
887.897	95.4
888.069	-21.33
888.24	111.78
888.412	50.35
888.583	36.01
888.754	19.63
888.926	-27.48
889.097	-37.72
889.268	-33.62
889.44	89.26
889.611	-7
889.782	36.01
889.953	-9.05
890.125	52.39
890.296	21.67
890.467	27.82
890.638	-84.82
890.809	-0.85
890.98	48.3
891.151	-0.85
891.323	50.35
891.494	5.29
891.665	-25.43
891.836	-43.86
892.007	38.06
892.178	54.44
892.349	-23.38
892.52	-13.14
892.691	29.87
892.862	-11.09
893.032	-11.09
893.203	-35.67
893.374	21.67
893.545	42.15
893.716	5.29
893.887	173.22
894.057	107.69
894.228	70.83
894.399	19.63
894.57	62.63
894.74	-19.29
894.911	68.78
895.082	19.63
895.253	19.63
895.423	31.91
895.594	54.44
895.764	58.54
895.935	-19.29
896.106	19.63
896.276	-2.9
896.447	83.11
896.617	21.67
896.788	-29.52
896.958	7.34
897.129	17.58
897.299	29.87
897.47	62.63
897.64	31.91
897.81	42.15
897.981	54.44
898.151	-11.09
898.322	66.73
898.492	60.59
898.662	13.48
898.832	-19.29
899.003	21.67
899.173	1.19
899.343	-58.2
899.513	-58.2
