Data from USB4F104151__14__13-04-29-850.txt Node

Date: Fri Mar 14 13:04:29 EDT 2025
User: louis
Spectrometer: USB4F10415
Trigger mode: 4
Integration Time (sec): 4.000000E-2
Scans to average: 1
Electric dark correction enabled: true
Nonlinearity correction enabled: false
Boxcar width: 0
XAxis mode: Wavelengths
Number of Pixels in Spectrum: 3648
>>>>>Begin Spectral Data<<<<<
178.204	-183.29
178.424	-183.29
178.644	-183.29
178.864	-148.48
179.084	-189.44
179.304	-11.26
179.524	-33.79
179.744	-103.42
179.964	56.32
180.184	19.46
180.404	39.94
180.624	76.8
180.844	-62.46
181.064	-44.03
181.283	-9.22
181.503	-1.02
181.723	72.7
181.943	1.02
182.163	115.71
182.383	29.7
182.602	130.05
182.822	113.66
183.042	115.71
183.262	31.74
183.482	1.02
183.701	84.99
183.921	17.41
184.141	25.6
184.361	111.61
184.58	72.7
184.8	93.18
185.02	56.32
185.239	93.18
185.459	66.56
185.679	89.09
185.898	11.26
186.118	44.03
186.338	-29.7
186.557	17.41
186.777	27.65
186.997	-5.12
187.216	39.94
187.436	89.09
187.655	128
187.875	166.91
188.095	52.22
188.314	37.89
188.534	162.81
188.753	5.12
188.973	74.75
189.192	97.28
189.412	9.22
189.631	64.51
189.851	5.12
190.07	82.94
190.29	-17.41
190.509	-50.18
190.729	19.46
190.948	64.51
191.168	144.38
191.387	78.85
191.607	11.26
191.826	93.18
192.045	84.99
192.265	58.37
192.484	130.05
192.704	58.37
192.923	56.32
193.142	119.81
193.362	76.8
193.581	109.57
193.8	13.31
194.02	140.29
194.239	101.37
194.458	48.13
194.678	-5.12
194.897	121.85
195.116	66.56
195.335	33.79
195.555	25.6
195.774	19.46
195.993	58.37
196.212	31.74
196.432	23.55
196.651	31.74
196.87	3.07
197.089	148.48
197.308	19.46
197.528	76.8
197.747	66.56
197.966	-1.02
198.185	101.37
198.404	19.46
198.623	91.13
198.842	56.32
199.062	23.55
199.281	123.9
199.5	44.03
199.719	173.05
199.938	3.07
200.157	97.28
200.376	25.6
200.595	121.85
200.814	97.28
201.033	-1.02
201.252	134.14
201.471	72.7
201.69	54.27
201.909	99.33
202.128	-44.03
202.347	97.28
202.566	68.61
202.785	9.22
203.004	-5.12
203.223	138.24
203.442	105.47
203.661	44.03
203.879	80.89
204.098	68.61
204.317	3.07
204.536	54.27
204.755	70.65
204.974	-13.31
205.193	121.85
205.411	138.24
205.63	105.47
205.849	80.89
206.068	35.84
206.287	-17.41
206.505	25.6
206.724	72.7
206.943	80.89
207.162	37.89
207.381	7.17
207.599	25.6
207.818	37.89
208.037	23.55
208.255	21.5
208.474	54.27
208.693	58.37
208.911	33.79
209.13	89.09
209.349	68.61
209.567	17.41
209.786	87.04
210.005	11.26
210.223	84.99
210.442	-13.31
210.661	44.03
210.879	99.33
211.098	39.94
211.316	74.75
211.535	82.94
211.753	11.26
211.972	103.42
212.191	80.89
212.409	25.6
212.628	89.09
212.846	52.22
213.065	80.89
213.283	97.28
213.502	39.94
213.72	72.7
213.938	-19.46
214.157	-29.7
214.375	21.5
214.594	21.5
214.812	76.8
215.031	33.79
215.249	76.8
215.467	15.36
215.686	130.05
215.904	82.94
216.122	134.14
216.341	62.46
216.559	117.76
216.778	82.94
216.996	128
217.214	56.32
217.432	17.41
217.651	-5.12
217.869	-17.41
218.087	70.65
218.306	93.18
218.524	60.42
218.742	52.22
218.96	144.38
219.179	27.65
219.397	97.28
219.615	164.86
219.833	48.13
220.051	-62.46
220.27	72.7
220.488	72.7
220.706	72.7
220.924	44.03
221.142	82.94
221.36	80.89
221.578	9.22
221.796	23.55
222.015	68.61
222.233	78.85
222.451	84.99
222.669	3.07
222.887	52.22
223.105	46.08
223.323	33.79
223.541	-35.84
223.759	99.33
223.977	78.85
224.195	162.81
224.413	62.46
224.631	72.7
224.849	7.17
225.067	142.33
225.285	37.89
225.503	27.65
225.721	-33.79
225.939	76.8
226.157	15.36
226.375	130.05
226.592	9.22
226.81	39.94
227.028	80.89
227.246	125.95
227.464	78.85
227.682	33.79
227.9	3.07
228.117	97.28
228.335	125.95
228.553	35.84
228.771	37.89
228.989	23.55
229.206	66.56
229.424	17.41
229.642	70.65
229.86	3.07
230.077	76.8
230.295	19.46
230.513	44.03
230.731	97.28
230.948	72.7
231.166	105.47
231.384	7.17
231.601	62.46
231.819	136.19
232.037	64.51
232.254	27.65
232.472	64.51
232.689	52.22
232.907	179.2
233.125	62.46
233.342	9.22
233.56	19.46
233.777	15.36
233.995	39.94
234.213	128
234.43	74.75
234.648	25.6
234.865	78.85
235.083	72.7
235.3	-13.31
235.518	9.22
235.735	64.51
235.953	68.61
236.17	25.6
236.388	39.94
236.605	33.79
236.822	115.71
237.04	87.04
237.257	-21.5
237.475	9.22
237.692	115.71
237.909	89.09
238.127	89.09
238.344	87.04
238.562	82.94
238.779	-82.94
238.996	7.17
239.214	-13.31
239.431	140.29
239.648	68.61
239.865	64.51
240.083	37.89
240.3	37.89
240.517	-3.07
240.735	93.18
240.952	66.56
241.169	99.33
241.386	48.13
241.603	23.55
241.821	89.09
242.038	113.66
242.255	48.13
242.472	78.85
242.689	82.94
242.907	111.61
243.124	9.22
243.341	52.22
243.558	-7.17
243.775	87.04
243.992	3.07
244.209	103.42
244.426	125.95
244.643	7.17
244.86	66.56
245.078	35.84
245.295	76.8
245.512	89.09
245.729	-27.65
245.946	15.36
246.163	27.65
246.38	99.33
246.597	31.74
246.814	72.7
247.031	89.09
247.248	84.99
247.464	66.56
247.681	48.13
247.898	23.55
248.115	72.7
248.332	11.26
248.549	89.09
248.766	72.7
248.983	31.74
249.2	15.36
249.417	136.19
249.633	74.75
249.85	58.37
250.067	58.37
250.284	62.46
250.501	50.18
250.717	35.84
250.934	27.65
251.151	48.13
251.368	27.65
251.585	142.33
251.801	89.09
252.018	37.89
252.235	91.13
252.451	9.22
252.668	-9.22
252.885	52.22
253.102	25.6
253.318	19.46
253.535	9.22
253.752	35.84
253.968	56.32
254.185	58.37
254.401	23.55
254.618	27.65
254.835	-21.5
255.051	64.51
255.268	-17.41
255.484	72.7
255.701	103.42
255.917	99.33
256.134	25.6
256.351	1.02
256.567	39.94
256.784	76.8
257	-25.6
257.217	54.27
257.433	62.46
257.65	80.89
257.866	105.47
258.082	58.37
258.299	50.18
258.515	52.22
258.732	-17.41
258.948	66.56
259.165	19.46
259.381	66.56
259.597	82.94
259.814	13.31
260.03	66.56
260.246	84.99
260.463	70.65
260.679	123.9
260.895	76.8
261.112	19.46
261.328	66.56
261.544	7.17
261.761	117.76
261.977	-7.17
262.193	-74.75
262.409	78.85
262.626	23.55
262.842	132.09
263.058	33.79
263.274	72.7
263.49	37.89
263.707	121.85
263.923	62.46
264.139	74.75
264.355	125.95
264.571	134.14
264.787	66.56
265.004	70.65
265.22	-21.5
265.436	91.13
265.652	44.03
265.868	17.41
266.084	37.89
266.3	66.56
266.516	9.22
266.732	60.42
266.948	48.13
267.164	66.56
267.38	60.42
267.596	56.32
267.812	136.19
268.028	11.26
268.244	-7.17
268.46	-7.17
268.676	52.22
268.892	123.9
269.108	-64.51
269.324	-35.84
269.54	95.23
269.756	160.77
269.972	31.74
270.188	64.51
270.403	5.12
270.619	72.7
270.835	37.89
271.051	56.32
271.267	56.32
271.483	58.37
271.698	89.09
271.914	74.75
272.13	87.04
272.346	132.09
272.562	33.79
272.777	58.37
272.993	58.37
273.209	50.18
273.425	50.18
273.64	74.75
273.856	56.32
274.072	23.55
274.287	39.94
274.503	130.05
274.719	117.76
274.934	7.17
275.15	44.03
275.366	33.79
275.581	-9.22
275.797	89.09
276.012	144.38
276.228	41.98
276.444	68.61
276.659	123.9
276.875	27.65
277.09	97.28
277.306	52.22
277.521	56.32
277.737	115.71
277.952	70.65
278.168	76.8
278.383	58.37
278.599	89.09
278.814	113.66
279.03	39.94
279.245	138.24
279.461	7.17
279.676	140.29
279.892	17.41
280.107	-29.7
280.322	74.75
280.538	5.12
280.753	-58.37
280.969	91.13
281.184	-7.17
281.399	50.18
281.615	17.41
281.83	35.84
282.045	-46.08
282.26	48.13
282.476	66.56
282.691	115.71
282.906	58.37
283.122	35.84
283.337	97.28
283.552	95.23
283.767	-29.7
283.983	91.13
284.198	48.13
284.413	95.23
284.628	-17.41
284.843	58.37
285.058	130.05
285.274	-5.12
285.489	66.56
285.704	80.89
285.919	-5.12
286.134	113.66
286.349	39.94
286.564	29.7
286.779	39.94
286.995	80.89
287.21	-5.12
287.425	103.42
287.64	60.42
287.855	3.07
288.07	41.98
288.285	107.52
288.5	80.89
288.715	29.7
288.93	37.89
289.145	70.65
289.36	115.71
289.575	41.98
289.79	39.94
290.004	60.42
290.219	103.42
290.434	33.79
290.649	46.08
290.864	54.27
291.079	60.42
291.294	54.27
291.509	95.23
291.724	-31.74
291.938	44.03
292.153	50.18
292.368	54.27
292.583	33.79
292.798	130.05
293.012	29.7
293.227	48.13
293.442	109.57
293.657	82.94
293.871	123.9
294.086	31.74
294.301	148.48
294.516	74.75
294.73	84.99
294.945	25.6
295.16	25.6
295.374	72.7
295.589	48.13
295.804	48.13
296.018	117.76
296.233	44.03
296.447	130.05
296.662	-13.31
296.877	164.86
297.091	115.71
297.306	13.31
297.52	-48.13
297.735	87.04
297.949	64.51
298.164	130.05
298.378	23.55
298.593	21.5
298.807	80.89
299.022	50.18
299.236	130.05
299.451	68.61
299.665	99.33
299.88	89.09
300.094	52.22
300.309	11.26
300.523	35.84
300.737	97.28
300.952	31.74
301.166	121.85
301.381	9.22
301.595	9.22
301.809	54.27
302.024	160.77
302.238	35.84
302.452	56.32
302.667	48.13
302.881	197.63
303.095	113.66
303.309	89.09
303.524	46.08
303.738	64.51
303.952	62.46
304.166	148.48
304.381	-35.84
304.595	97.28
304.809	-56.32
305.023	64.51
305.237	17.41
305.452	-19.46
305.666	76.8
305.88	39.94
306.094	76.8
306.308	-1.02
306.522	66.56
306.736	31.74
306.95	58.37
307.164	107.52
307.379	136.19
307.593	37.89
307.807	54.27
308.021	76.8
308.235	11.26
308.449	107.52
308.663	-13.31
308.877	160.77
309.091	107.52
309.305	84.99
309.519	37.89
309.733	64.51
309.947	-37.89
310.161	41.98
310.374	111.61
310.588	132.09
310.802	15.36
311.016	74.75
311.23	7.17
311.444	-11.26
311.658	48.13
311.872	66.56
312.085	74.75
312.299	91.13
312.513	76.8
312.727	31.74
312.941	3.07
313.154	-1.02
313.368	152.57
313.582	103.42
313.796	97.28
314.009	25.6
314.223	84.99
314.437	60.42
314.651	56.32
314.864	58.37
315.078	37.89
315.292	25.6
315.505	64.51
315.719	68.61
315.933	89.09
316.146	97.28
316.36	37.89
316.573	154.62
316.787	125.95
317.001	103.42
317.214	-5.12
317.428	35.84
317.641	-46.08
317.855	105.47
318.068	35.84
318.282	128
318.495	103.42
318.709	97.28
318.922	103.42
319.136	87.04
319.349	72.7
319.563	-29.7
319.776	105.47
319.99	23.55
320.203	60.42
320.417	105.47
320.63	17.41
320.843	150.53
321.057	82.94
321.27	105.47
321.483	87.04
321.697	154.62
321.91	74.75
322.124	117.76
322.337	117.76
322.55	105.47
322.763	52.22
322.977	-25.6
323.19	35.84
323.403	84.99
323.617	121.85
323.83	150.53
324.043	1.02
324.256	89.09
324.469	-58.37
324.683	97.28
324.896	25.6
325.109	66.56
325.322	-35.84
325.535	199.68
325.748	89.09
325.962	56.32
326.175	113.66
326.388	-35.84
326.601	48.13
326.814	25.6
327.027	35.84
327.24	70.65
327.453	1.02
327.666	21.5
327.879	107.52
328.092	117.76
328.305	93.18
328.518	80.89
328.731	15.36
328.944	35.84
329.157	39.94
329.37	-46.08
329.583	156.67
329.796	103.42
330.009	-15.36
330.222	56.32
330.435	64.51
330.648	99.33
330.861	50.18
331.073	125.95
331.286	76.8
331.499	64.51
331.712	70.65
331.925	123.9
332.138	52.22
332.35	52.22
332.563	66.56
332.776	54.27
332.989	29.7
333.202	39.94
333.414	64.51
333.627	62.46
333.84	72.7
334.053	72.7
334.265	5.12
334.478	41.98
334.691	130.05
334.903	44.03
335.116	35.84
335.329	17.41
335.541	31.74
335.754	31.74
335.966	66.56
336.179	66.56
336.392	-31.74
336.604	62.46
336.817	74.75
337.029	130.05
337.242	37.89
337.454	99.33
337.667	72.7
337.88	93.18
338.092	89.09
338.305	107.52
338.517	-9.22
338.729	99.33
338.942	70.65
339.154	21.5
339.367	99.33
339.579	62.46
339.792	5.12
340.004	44.03
340.217	56.32
340.429	48.13
340.641	17.41
340.854	7.17
341.066	70.65
341.278	78.85
341.491	119.81
341.703	87.04
341.915	91.13
342.128	33.79
342.34	105.47
342.552	105.47
342.764	13.31
342.977	48.13
343.189	54.27
343.401	121.85
343.613	-17.41
343.826	105.47
344.038	62.46
344.25	111.61
344.462	-21.5
344.674	64.51
344.886	64.51
345.099	91.13
345.311	5.12
345.523	50.18
345.735	41.98
345.947	82.94
346.159	181.25
346.371	37.89
346.583	48.13
346.795	195.58
347.007	58.37
347.219	66.56
347.431	54.27
347.643	171.01
347.855	5.12
348.067	60.42
348.279	105.47
348.491	9.22
348.703	74.75
348.915	76.8
349.127	13.31
349.339	50.18
349.551	46.08
349.763	72.7
349.975	25.6
350.187	111.61
350.399	72.7
350.61	60.42
350.822	17.41
351.034	150.53
351.246	132.09
351.458	109.57
351.669	66.56
351.881	64.51
352.093	99.33
352.305	113.66
352.517	103.42
352.728	89.09
352.94	89.09
353.152	48.13
353.363	62.46
353.575	113.66
353.787	103.42
353.999	91.13
354.21	134.14
354.422	9.22
354.633	50.18
354.845	78.85
355.057	39.94
355.268	93.18
355.48	156.67
355.692	56.32
355.903	27.65
356.115	74.75
356.326	64.51
356.538	171.01
356.749	54.27
356.961	160.77
357.172	95.23
357.384	101.37
357.595	146.43
357.807	33.79
358.018	50.18
358.23	54.27
358.441	150.53
358.653	66.56
358.864	-19.46
359.075	44.03
359.287	121.85
359.498	66.56
359.709	76.8
359.921	82.94
360.132	56.32
360.344	105.47
360.555	50.18
360.766	66.56
360.977	21.5
361.189	70.65
361.4	1.02
361.611	37.89
361.823	78.85
362.034	52.22
362.245	-1.02
362.456	44.03
362.667	125.95
362.879	13.31
363.09	-23.55
363.301	48.13
363.512	173.05
363.723	95.23
363.935	35.84
364.146	89.09
364.357	68.61
364.568	84.99
364.779	-3.07
364.99	84.99
365.201	105.47
365.412	148.48
365.623	41.98
365.834	138.24
366.045	58.37
366.256	130.05
366.467	101.37
366.678	48.13
366.889	66.56
367.1	-33.79
367.311	58.37
367.522	115.71
367.733	123.9
367.944	103.42
368.155	128
368.366	113.66
368.577	31.74
368.788	187.39
368.999	3.07
369.209	72.7
369.42	128
369.631	171.01
369.842	74.75
370.053	87.04
370.264	80.89
370.474	46.08
370.685	99.33
370.896	46.08
371.107	121.85
371.317	31.74
371.528	15.36
371.739	162.81
371.95	107.52
372.16	109.57
372.371	5.12
372.582	-35.84
372.792	123.9
373.003	74.75
373.214	113.66
373.424	105.47
373.635	50.18
373.846	68.61
374.056	9.22
374.267	64.51
374.477	138.24
374.688	76.8
374.898	9.22
375.109	125.95
375.319	115.71
375.53	64.51
375.74	97.28
375.951	105.47
376.161	31.74
376.372	125.95
376.582	39.94
376.793	80.89
377.003	13.31
377.214	23.55
377.424	95.23
377.635	95.23
377.845	56.32
378.055	148.48
378.266	-15.36
378.476	89.09
378.686	54.27
378.897	121.85
379.107	80.89
379.317	64.51
379.528	97.28
379.738	58.37
379.948	3.07
380.158	123.9
380.369	91.13
380.579	56.32
380.789	87.04
380.999	58.37
381.21	123.9
381.42	166.91
381.63	113.66
381.84	132.09
382.05	95.23
382.261	130.05
382.471	95.23
382.681	13.31
382.891	150.53
383.101	121.85
383.311	1.02
383.521	33.79
383.731	121.85
383.941	82.94
384.151	84.99
384.361	119.81
384.571	105.47
384.781	132.09
384.991	78.85
385.201	105.47
385.411	173.05
385.621	29.7
385.831	183.29
386.041	105.47
386.251	80.89
386.461	117.76
386.671	64.51
386.881	142.33
387.091	154.62
387.301	93.18
387.511	33.79
387.72	74.75
387.93	148.48
388.14	58.37
388.35	62.46
388.56	105.47
388.769	64.51
388.979	72.7
389.189	17.41
389.399	33.79
389.609	160.77
389.818	105.47
390.028	76.8
390.238	125.95
390.447	62.46
390.657	91.13
390.867	128
391.076	33.79
391.286	117.76
391.496	72.7
391.705	70.65
391.915	84.99
392.125	146.43
392.334	107.52
392.544	91.13
392.753	115.71
392.963	132.09
393.172	166.91
393.382	74.75
393.591	99.33
393.801	93.18
394.01	183.29
394.22	142.33
394.429	39.94
394.639	107.52
394.848	148.48
395.058	132.09
395.267	132.09
395.477	76.8
395.686	144.38
395.895	101.37
396.105	199.68
396.314	154.62
396.524	58.37
396.733	66.56
396.942	84.99
397.152	91.13
397.361	134.14
397.57	138.24
397.78	117.76
397.989	99.33
398.198	222.2
398.407	130.05
398.617	103.42
398.826	162.81
399.035	115.71
399.244	181.25
399.453	117.76
399.663	162.81
399.872	187.39
400.081	109.57
400.29	203.77
400.499	39.94
400.708	152.57
400.917	62.46
401.127	179.2
401.336	91.13
401.545	179.2
401.754	181.25
401.963	171.01
402.172	175.1
402.381	203.77
402.59	179.2
402.799	201.72
403.008	183.29
403.217	74.75
403.426	111.61
403.635	154.62
403.844	197.63
404.053	250.88
404.262	175.1
404.471	250.88
404.68	156.67
404.888	240.64
405.097	128
405.306	222.2
405.515	205.82
405.724	246.78
405.933	238.59
406.142	220.16
406.35	261.12
406.559	211.96
406.768	263.16
406.977	326.65
407.185	261.12
407.394	308.22
407.603	250.88
407.812	365.56
408.02	373.75
408.229	320.51
408.438	226.3
408.646	281.6
408.855	297.98
409.064	314.36
409.272	254.97
409.481	383.99
409.69	312.32
409.898	388.09
410.107	435.19
410.315	375.8
410.524	343.03
410.733	439.29
410.941	418.81
411.15	365.56
411.358	467.96
411.567	510.97
411.775	504.82
411.984	539.64
412.192	564.22
412.401	549.88
412.609	596.98
412.818	674.81
413.026	568.31
413.234	590.84
413.443	617.46
413.651	670.71
413.86	637.94
414.068	699.38
414.276	732.15
414.485	699.38
414.693	863.22
414.901	893.94
415.11	775.16
415.318	895.99
415.526	895.99
415.734	975.86
415.943	959.47
416.151	998.38
416.359	1072.11
416.567	1031.15
416.776	1094.64
416.984	1240.05
417.192	1178.61
417.4	1194.99
417.608	1244.14
417.817	1238
418.025	1270.76
418.233	1356.78
418.441	1383.4
418.649	1326.06
418.857	1602.54
419.065	1672.17
419.273	1530.86
419.481	1545.19
419.689	1633.26
419.897	1840.1
420.105	1745.89
420.313	1840.1
420.521	1922.02
420.729	1932.26
420.937	1930.21
421.145	2173.92
421.353	2229.21
421.561	2419.68
421.769	2354.14
421.977	2440.15
422.185	2427.87
422.393	2636.76
422.601	2825.17
422.809	2819.03
423.017	2730.97
423.224	2718.68
423.432	2907.09
423.64	3021.78
423.848	3378.12
424.056	3242.96
424.263	3431.37
424.471	3441.61
424.679	3550.15
424.887	3644.36
425.094	3785.67
425.302	3941.32
425.51	4051.91
425.718	4137.92
425.925	4234.18
426.133	4281.28
426.341	4645.82
426.548	4678.58
426.756	4645.82
426.964	4649.91
427.171	5211.06
427.379	5333.93
427.586	5288.88
427.794	5548.97
428.001	5721
428.209	6054.82
428.417	5938.09
428.624	6341.54
428.832	6126.5
429.039	6286.24
429.247	6316.96
429.454	6837.14
429.662	7291.79
429.869	6710.17
430.076	7320.46
430.284	7170.96
430.491	7529.36
430.699	7984.01
430.906	8029.06
431.114	7932.81
431.321	8231.81
431.528	8539.01
431.736	9116.53
431.943	9470.83
432.15	9130.87
432.358	9296.75
432.565	9704.3
432.772	9653.1
432.979	10167.14
433.187	10187.62
433.394	10251.11
433.601	11205.46
433.808	11027.29
434.016	11088.73
434.223	11686.73
434.43	12106.57
434.637	12133.19
434.844	12731.2
435.052	13048.63
435.259	12907.32
435.466	13087.54
435.673	13235
435.88	13871.92
436.087	14502.69
436.294	14498.59
436.501	14271.27
436.708	14420.77
436.915	14758.69
437.122	15829.77
437.329	15594.26
437.537	16126.73
437.743	16597.76
437.95	16270.09
438.157	16939.77
438.364	17668.85
438.571	17918.7
438.778	17781.49
438.985	19401.43
439.192	18791.14
439.399	19548.89
439.606	18746.08
439.813	19901.14
440.02	21283.52
440.227	20693.7
440.433	20488.9
440.64	21473.98
440.847	21158.59
441.054	21385.91
441.261	22880.93
441.467	22696.61
441.674	23259.81
441.881	24203.92
442.088	24005.27
442.294	23894.68
442.501	24253.07
442.708	25182.85
442.914	25717.37
443.121	27026.02
443.328	26086
443.534	28211.79
443.741	27578.97
443.948	27050.6
444.154	28854.86
444.361	28811.85
444.568	28969.54
444.774	29033.03
444.981	29215.3
445.187	30196.28
445.394	31640.09
445.6	31384.1
445.807	34161.14
446.013	32565.78
446.22	32944.65
446.426	34458.1
446.633	34875.88
446.839	35969.5
447.046	34621.94
447.252	36338.13
447.459	36628.95
447.665	36164.06
447.871	38040
448.078	39553.44
448.284	37970.36
448.491	39035.31
448.697	40628.63
448.903	41011.6
449.11	41388.42
449.316	40565.14
449.522	41243.02
449.728	42514.81
449.935	42633.59
450.141	42510.71
450.347	43731.3
450.553	42459.51
450.76	42910.07
450.966	44155.23
451.172	43942.24
451.378	45064.53
451.584	43821.41
451.791	45199.69
451.997	45085.01
452.203	45754.69
452.409	45459.79
452.615	45435.21
452.821	43821.41
453.027	43778.4
453.233	45578.57
453.44	43723.11
453.646	44329.31
453.852	44781.91
454.058	45418.83
454.264	44345.69
454.47	45097.3
454.676	43954.53
454.882	45316.43
455.088	41165.2
455.294	42092.93
455.5	43090.29
455.705	43383.15
455.911	41492.87
456.117	40735.12
456.323	40427.93
456.529	38541.75
456.735	39963.04
456.941	38910.38
457.147	38037.95
457.352	37175.75
457.558	36737.49
457.764	36895.18
457.97	36014.55
458.176	35305.96
458.381	35498.47
458.587	33720.83
458.793	33831.42
458.999	32002.58
459.204	34148.85
459.41	33356.29
459.616	31218.21
459.821	31226.4
460.027	30904.87
460.233	30104.12
460.438	28987.97
460.644	29354.56
460.85	27751
461.055	27382.37
461.261	27372.13
461.466	25315.97
461.672	24375.95
461.878	26157.68
462.083	24566.41
462.289	23945.87
462.494	24038.03
462.7	22784.68
462.905	22231.72
463.111	23069.34
463.316	23169.69
463.522	22327.98
463.727	22397.61
463.932	22590.12
464.138	22207.15
464.343	22401.71
464.549	21635.77
464.754	22440.62
464.959	22076.08
465.165	21947.06
465.37	21052.09
465.575	20603.59
465.781	21490.36
465.986	21623.48
466.191	20517.57
466.397	20140.75
466.602	19286.75
466.807	20085.45
467.012	20220.62
467.218	19706.58
467.423	19485.4
467.628	19702.48
467.833	20359.88
468.038	19770.07
468.244	19387.1
468.449	20083.41
468.654	19446.49
468.859	19182.3
469.064	19428.06
469.269	18391.78
469.474	18596.58
469.679	18780.9
469.885	18322.15
470.09	18774.75
470.295	18436.84
470.5	18084.59
470.705	18389.74
470.91	17785.58
471.115	17662.71
471.32	17820.4
471.525	17937.13
471.73	17502.96
471.935	17310.46
472.139	16722.69
472.344	16972.54
472.549	16425.73
472.754	16378.63
472.959	16372.49
473.164	15799.05
473.369	15762.19
473.574	16550.66
473.778	16263.94
473.983	16118.54
474.188	15790.86
474.393	15057.69
474.598	15192.86
474.802	15266.58
475.007	15092.51
475.212	14926.62
475.417	14388
475.621	14455.59
475.826	14689.06
476.031	14357.28
476.235	14113.58
476.44	14097.19
476.645	13777.71
476.849	13949.74
477.054	13771.57
477.259	13507.38
477.463	13450.03
477.668	13103.93
477.872	13480.75
478.077	13110.07
478.282	12876.6
478.486	12813.12
478.691	12753.73
478.895	12649.28
479.1	12704.57
479.304	12335.94
479.509	12176.2
479.713	12467.01
479.918	12096.33
480.122	12159.81
480.326	12264.26
480.531	12108.62
480.735	11799.37
480.94	11928.39
481.144	12194.63
481.348	11658.06
481.553	11967.31
481.757	11422.55
481.961	11699.02
482.166	11832.14
482.37	11739.98
482.574	11641.68
482.778	11557.71
482.983	11809.61
483.187	11926.35
483.391	11668.3
483.595	11531.09
483.8	11582.29
484.004	11721.55
484.208	11567.95
484.412	11416.4
484.616	11504.46
484.821	11610.96
485.025	11363.15
485.229	11688.78
485.433	11488.08
485.637	11459.41
485.841	11430.74
486.045	11477.84
486.249	11440.98
486.453	11570
486.657	11707.21
486.861	11576.14
487.065	11420.5
487.269	11774.8
487.473	11260.76
487.677	11715.41
487.881	11813.71
488.085	11563.86
488.289	11350.87
488.493	11686.73
488.697	11699.02
488.901	11717.45
489.105	11500.37
489.309	11619.15
489.512	11813.71
489.716	11619.15
489.92	11680.59
490.124	11576.14
490.328	12038.98
490.531	11727.69
490.735	11848.52
490.939	11866.95
491.143	11914.06
491.346	12041.03
491.55	12098.38
491.754	12135.24
491.958	12149.57
492.161	11934.54
492.365	12360.52
492.569	12194.63
492.772	12030.79
492.976	12364.61
493.18	12489.54
493.383	12526.4
493.587	12682.05
493.79	12806.97
493.994	12540.74
494.197	12659.52
494.401	12749.63
494.605	12768.06
494.808	12981.05
495.012	12825.4
495.215	13042.49
495.419	13327.16
495.622	13028.15
495.825	13349.68
496.029	13318.96
496.232	13781.81
496.436	13488.95
496.639	13943.6
496.843	13863.72
497.046	14195.5
497.249	14220.07
497.453	14318.37
497.656	14218.02
497.859	14627.62
498.063	14664.48
498.266	14916.38
498.469	15016.73
498.673	15010.59
498.876	15387.41
499.079	15526.68
499.282	15231.77
499.485	16018.19
499.689	15760.14
499.892	16089.87
500.095	16046.86
500.298	16499.46
500.501	16397.06
500.705	16782.08
500.908	16945.92
501.111	17040.12
501.314	17629.94
501.517	17472.25
501.72	17744.63
501.923	17605.36
502.126	17885.94
502.329	18082.54
502.532	18387.69
502.735	18529
502.938	18662.12
503.141	19000.03
503.344	19421.91
503.547	19139.29
503.75	19413.72
503.953	19716.82
504.156	19759.83
504.359	19983.06
504.562	20040.4
504.765	20839.11
504.968	20837.06
505.17	21072.57
505.373	21166.78
505.576	21426.87
505.779	21512.89
505.982	21711.54
506.185	22194.86
506.387	22194.86
506.59	22297.26
506.793	22788.77
506.996	22893.22
507.198	23288.48
507.401	23362.2
507.604	23685.78
507.807	24253.07
508.009	24150.67
508.212	24384.14
508.415	24423.05
508.617	24629.9
508.82	25170.56
509.022	24986.24
509.225	25696.89
509.428	25985.65
509.63	26301.04
509.833	26182.26
510.035	26913.38
510.238	26653.29
510.44	26999.4
510.643	27437.66
510.845	27538.01
511.048	27556.44
511.25	27943.51
511.453	28125.78
511.655	28889.67
511.858	28478.03
512.06	28981.83
512.262	29522.49
512.465	29289.03
512.667	29882.94
512.87	30089.78
513.072	30120.5
513.274	30566.96
513.477	31001.13
513.679	31074.85
513.881	31359.52
514.084	31748.64
514.286	32084.5
514.488	32162.33
514.69	32715.28
514.893	32961.03
515.095	33112.58
515.297	33401.35
515.499	33436.16
515.701	33769.98
515.904	34505.2
516.106	34603.5
516.308	34888.17
516.51	35000.81
516.712	35127.78
516.914	35705.31
517.116	36020.7
517.318	36211.16
517.52	36456.92
517.722	36788.69
517.925	37020.11
518.127	37478.85
518.329	37951.93
518.531	37632.45
518.733	38283.7
518.935	38760.88
519.136	38891.95
519.338	39231.91
519.54	39172.52
519.742	39870.88
519.944	39944.61
520.146	40253.85
520.348	40552.85
520.55	40782.23
520.752	40892.82
520.954	41529.73
521.155	41609.61
521.357	42299.77
521.559	42615.16
521.761	43377
521.963	42799.47
522.164	43063.66
522.366	43071.85
522.568	43157.87
522.77	44005.73
522.971	44460.38
523.173	44110.17
523.375	44804.44
523.576	44470.62
523.778	44738.9
523.98	45384.01
524.181	45445.45
524.383	45435.21
524.584	46100.8
524.786	46098.75
524.988	46029.12
525.189	46745.91
525.391	46827.83
525.592	47182.13
525.794	47210.8
525.995	47251.76
526.197	47358.25
526.398	47403.31
526.6	48300.32
526.801	48226.59
527.003	48326.94
527.204	48134.43
527.406	49164.56
527.607	48867.61
527.808	49084.69
528.01	48472.35
528.211	48918.81
528.412	50008.32
528.614	49568.01
528.815	49482
529.016	50286.85
529.218	49645.83
529.419	49897.73
529.62	49993.99
529.822	49697.03
530.023	49938.69
530.224	50073.86
530.425	50213.12
530.626	49746.18
530.828	49969.41
531.029	50960.63
531.23	50024.71
531.431	50671.87
531.632	51187.95
531.833	50759.93
532.035	50870.52
532.236	51286.26
532.437	51249.39
532.638	51278.07
532.839	50897.14
533.04	51237.11
533.241	51007.73
533.442	51767.53
533.643	51060.98
533.844	51493.1
534.045	51796.2
534.246	51169.52
534.447	51384.56
534.648	51441.9
534.849	51665.13
535.05	51204.34
535.251	51472.62
535.451	51126.52
535.652	51769.58
535.853	51464.43
536.054	51589.36
536.255	52082.92
536.456	50985.21
536.657	52181.22
536.857	51523.82
537.058	51562.73
537.259	52113.64
537.46	51783.91
537.66	51714.28
537.861	51935.46
538.062	51753.19
538.263	51773.67
538.463	51394.8
538.664	51702
538.865	51548.4
539.065	51914.98
539.266	51310.83
539.466	51892.46
539.667	51388.66
539.868	52082.92
540.068	51980.52
540.269	51271.92
540.469	52025.57
540.67	51648.75
540.87	51523.82
541.071	52003.05
541.271	51867.88
541.472	51325.17
541.672	51433.71
541.873	51362.03
542.073	50868.47
542.274	51818.73
542.474	51269.87
542.675	50608.38
542.875	51740.91
543.075	51108.08
543.276	51009.78
543.476	51951.85
543.676	51245.3
543.877	51402.99
544.077	51603.69
544.277	51427.57
544.478	51005.69
544.678	51462.38
544.878	51470.57
545.078	51204.34
545.279	50862.33
545.479	50843.9
545.679	51411.18
545.879	51362.03
546.079	50651.39
546.28	51253.49
546.48	51212.53
546.68	50897.14
546.88	51460.33
547.08	51333.36
547.28	51083.51
547.48	50780.41
547.68	51169.52
547.88	50958.58
548.081	51122.42
548.281	50825.46
548.481	51028.21
548.681	50938.1
548.881	51108.08
549.081	51087.6
549.28	50596.09
549.48	51013.88
549.68	50952.44
549.88	51255.54
550.08	50415.87
550.28	50841.85
550.48	50804.98
550.68	51224.82
550.88	50120.96
551.08	50716.92
551.279	50682.11
551.479	50413.82
551.679	50628.86
551.879	50405.63
552.079	50946.29
552.278	50526.46
552.478	50606.33
552.678	50671.87
552.878	50874.62
553.077	50475.26
553.277	50032.9
553.477	51038.45
553.676	50370.82
553.876	50567.42
554.076	50153.73
554.275	50233.6
554.475	49559.82
554.674	50389.25
554.874	50493.69
555.074	50528.51
555.273	50585.85
555.473	50538.75
555.672	49787.14
555.872	49529.1
556.071	49989.89
556.271	50037
556.47	49869.06
556.67	49404.17
556.869	49781
557.068	49979.65
557.268	49391.89
557.467	49363.21
557.667	49496.33
557.866	49459.47
558.065	49307.92
558.265	49359.12
558.464	49027.35
558.663	49342.74
558.863	48681.24
559.062	49451.28
559.261	48970
559.461	49328.4
559.66	48558.36
559.859	49010.96
560.058	48443.68
560.258	48894.23
560.457	48396.57
560.656	48945.43
560.855	47941.92
561.054	48722.2
561.253	48415.01
561.453	48621.85
561.652	48671
561.851	48734.49
562.05	48222.5
562.249	47632.68
562.448	48574.75
562.647	47720.74
562.846	47966.5
563.045	47997.22
563.244	47442.22
563.443	47986.98
563.642	47171.89
563.841	47579.43
564.04	47284.53
564.239	47716.65
564.438	47335.73
564.637	47401.26
564.836	46936.37
565.035	46713.14
565.234	46889.27
565.432	46434.62
565.631	46627.13
565.83	46528.83
566.029	46229.82
566.228	46582.07
566.427	46639.42
566.625	46465.34
566.824	45949.25
567.023	46504.25
567.222	45482.31
567.42	46518.59
567.619	45826.37
567.818	45793.61
568.016	45300.04
568.215	45699.4
568.414	45590.86
568.612	45568.33
568.811	45011.28
569.01	45168.97
569.208	44732.76
569.407	45068.62
569.605	44888.4
569.804	45263.18
570.002	44554.58
570.201	45117.78
570.4	44693.85
570.598	44573.02
570.797	43735.4
570.995	44169.57
571.193	43303.28
571.392	44214.62
571.59	43503.98
571.789	43753.83
571.987	43678.05
572.186	43276.65
572.384	43174.25
572.582	43946.34
572.781	43612.52
572.979	42828.15
573.177	43125.1
573.376	43069.81
573.574	43006.32
573.772	42830.19
573.971	42613.11
574.169	42289.53
574.367	42344.83
574.565	42482.04
574.763	42316.15
574.962	42144.12
575.16	41734.53
575.358	41943.42
575.556	41384.33
575.754	41933.18
575.952	41519.49
576.151	41982.34
576.349	41580.93
576.547	41179.53
576.745	41617.8
576.943	41720.2
577.141	41326.99
577.339	41130.38
577.537	40823.19
577.735	40982.93
577.933	40704.4
578.131	40870.29
578.329	40505.75
578.527	40382.87
578.725	40415.64
578.923	40247.71
579.121	40294.81
579.319	39719.33
579.516	40225.18
579.714	39928.22
579.912	40034.72
580.11	39453.09
580.308	39754.15
580.506	39487.91
580.704	38746.54
580.901	39233.96
581.099	39539.11
581.297	39248.3
581.495	39322.02
581.692	39029.16
581.89	38908.33
582.088	39322.02
582.285	38738.35
582.483	38943.15
582.681	38762.93
582.878	38484.4
583.076	37996.99
583.274	38490.55
583.471	38050.24
583.669	38365.62
583.866	37913.02
584.064	38252.98
584.262	37601.73
584.459	37937.6
584.657	37894.59
584.854	37472.71
585.052	36897.23
585.249	37530.05
585.447	37321.16
585.644	36860.37
585.841	37056.97
586.039	37327.3
586.236	36737.49
586.434	36346.33
586.631	36657.62
586.828	36448.72
587.026	36710.86
587.223	36587.99
587.42	36301.27
587.618	36248.02
587.815	35486.18
588.012	36078.04
588.21	35699.17
588.407	36311.51
588.604	35582.43
588.801	35633.63
588.999	35402.21
589.196	35156.46
589.393	35150.31
589.59	35101.16
589.787	35033.58
589.984	35045.87
590.182	34894.32
590.379	34914.8
590.576	34480.63
590.773	34507.25
590.97	34427.38
591.167	34468.34
591.364	34132.47
591.561	34292.21
591.758	33583.62
591.955	33892.86
592.152	34265.59
592.349	33655.29
592.546	33767.93
592.743	33917.43
592.94	33520.13
593.137	33282.56
593.334	33544.7
593.531	33090.06
593.727	33352.2
593.924	32979.46
594.121	32778.76
594.318	33421.83
594.515	32586.25
594.712	32791.05
594.908	32602.64
595.105	32459.28
595.302	32266.77
595.499	32815.63
595.696	32487.95
595.892	32162.33
596.089	32446.99
596.286	32162.33
596.482	31918.62
596.679	31959.58
596.876	31746.59
597.072	31459.87
597.269	31572.51
597.466	31439.39
597.662	31271.46
597.859	31056.42
598.055	31226.4
598.252	30857.77
598.448	31124.01
598.645	30794.28
598.841	30526
599.038	30706.22
599.234	30853.67
599.431	30429.74
599.627	30462.51
599.824	30353.97
600.02	30245.43
600.217	30534.19
600.413	30247.47
600.609	29887.03
600.806	29905.46
601.002	30138.93
601.198	29661.76
601.395	29225.54
601.591	29565.5
601.787	29334.08
601.984	29628.99
602.18	29696.57
602.376	29237.83
602.572	29047.36
602.769	28996.17
602.965	28613.2
603.161	28863.05
603.357	28619.34
603.553	28756.55
603.75	28756.55
603.946	28562
604.142	28605
604.338	28101.2
604.534	28260.94
604.73	28308.05
604.926	27769.43
605.122	28041.81
605.318	27920.98
605.514	28158.55
605.71	27751
605.906	27771.48
606.102	27425.37
606.298	27812.44
606.494	27695.71
606.69	27787.86
606.886	27378.27
607.082	27046.5
607.278	27169.38
607.474	26901.09
607.67	27527.77
607.866	26868.33
608.062	27298.4
608.257	26933.86
608.453	26978.92
608.649	27134.56
608.845	26298.99
609.041	26868.33
609.236	26641
609.432	26632.81
609.628	26677.86
609.824	26444.4
610.019	26497.64
610.215	26401.39
610.411	26677.86
610.606	26118.77
610.802	26405.49
610.998	26333.81
611.193	26141.3
611.389	26219.12
611.584	25913.97
611.78	25838.2
611.976	25737.85
612.171	26016.37
612.367	25479.8
612.562	25963.12
612.758	25383.55
612.953	25232
613.149	25991.8
613.344	25649.78
613.539	25805.43
613.735	25406.08
613.93	25449.08
614.126	25143.94
614.321	25490.04
614.517	25434.75
614.712	24988.29
614.907	25277.05
615.103	25467.52
615.298	25205.38
615.493	25121.41
615.688	24849.03
615.884	25301.63
616.079	24500.87
616.274	24871.56
616.47	24775.3
616.665	24828.55
616.86	24525.45
617.055	24748.68
617.25	24431.24
617.445	24726.15
617.641	24124.05
617.836	24529.55
618.031	24267.41
618.226	24236.69
618.421	24142.48
618.616	24312.46
618.811	23954.07
619.006	24138.38
619.201	23792.28
619.396	23814.8
619.591	23515.8
619.786	23755.41
619.981	23354.01
620.176	23589.53
620.371	23372.44
620.566	23337.63
620.761	23351.96
620.956	23179.93
621.151	22731.43
621.346	22788.77
621.541	22579.88
621.735	22833.83
621.93	22305.45
622.125	22545.06
622.32	22301.36
622.515	22436.52
622.709	22026.93
622.904	22117.04
623.099	22141.61
623.294	22098.61
623.488	21535.42
623.683	21729.97
623.878	21402.3
624.072	21709.49
624.267	21111.49
624.462	21248.7
624.656	21127.87
624.851	20984.51
625.046	20830.91
625.24	20507.34
625.435	20671.17
625.629	20822.72
625.824	20519.62
626.018	20482.76
626.213	19727.06
626.407	20105.93
626.602	19882.7
626.796	19825.36
626.991	19993.29
627.185	19839.7
627.38	19622.61
627.574	19395.29
627.768	19084
627.963	19049.18
628.157	19028.7
628.352	18922.21
628.546	18864.86
628.74	18782.95
628.935	18817.76
629.129	18934.5
629.323	18318.06
629.517	18389.74
629.712	18496.23
629.906	18234.09
630.1	17875.7
630.294	18184.94
630.489	17951.47
630.683	18103.02
630.877	17896.17
631.071	17814.26
631.265	17629.94
631.459	17545.97
631.653	17457.91
631.848	17236.73
632.042	17394.42
632.236	17322.74
632.43	17031.93
632.624	17115.9
632.818	16663.3
633.012	16907.01
633.206	16640.77
633.4	16562.95
633.594	16575.24
633.788	16560.9
633.982	16354.05
634.176	16012.04
634.369	16313.1
634.563	16073.48
634.757	16067.34
634.951	16071.43
635.145	15993.61
635.339	15928.08
635.533	15571.73
635.726	15663.89
635.92	15549.2
636.114	15651.6
636.308	15436.56
636.501	15215.38
636.695	15457.04
636.889	15330.07
637.083	15434.52
637.276	15174.42
637.47	14621.47
637.664	14803.74
637.857	14885.66
638.051	14711.58
638.244	14734.11
638.438	14488.35
638.632	14334.76
638.825	14426.92
639.019	14222.12
639.212	14240.55
639.406	14129.96
639.599	13921.07
639.793	14256.93
639.986	13790
640.18	13880.11
640.373	13820.72
640.567	13620.02
640.76	13880.11
640.954	13597.49
641.147	13450.03
641.34	13550.39
641.534	13407.03
641.727	13519.67
641.92	13331.25
642.114	13296.44
642.307	13093.69
642.5	13165.37
642.694	12737.34
642.887	12999.48
643.08	13097.78
643.273	12897.08
643.467	12665.66
643.66	12471.11
643.853	12600.13
644.046	12487.49
644.239	12862.27
644.432	12350.28
644.626	12294.98
644.819	12122.95
645.012	12350.28
645.205	12323.65
645.398	12075.85
645.591	11893.58
645.784	12018.5
645.977	11785.04
646.17	11955.02
646.363	11692.88
646.556	11529.04
646.749	11772.75
646.942	11680.59
647.135	11334.48
647.328	11469.65
647.521	11459.41
647.714	11162.45
647.907	11373.39
648.099	10965.85
648.292	11172.69
648.485	11070.3
648.678	10961.75
648.871	10894.17
649.064	10849.11
649.256	10892.12
649.449	11006.81
649.642	10654.56
649.835	10713.95
650.027	10650.46
650.22	10593.12
650.413	10689.37
650.605	10480.48
650.798	10404.71
650.991	10271.59
651.183	10304.35
651.376	10199.91
651.568	10140.52
651.761	10339.17
651.954	10156.9
652.146	10093.41
652.339	10019.69
652.531	9933.67
652.724	9970.54
652.916	9757.55
653.109	9784.17
653.301	9685.87
653.494	9702.25
653.686	9790.31
653.879	9784.17
654.071	9550.7
654.263	9481.07
654.456	9476.98
654.648	9698.16
654.84	9436.02
655.033	9329.52
655.225	9354.1
655.417	9184.12
655.61	9309.04
655.802	9261.94
655.994	9061.24
656.186	8878.97
656.379	9134.96
656.571	8999.8
656.763	9126.77
656.955	8801.15
657.148	8901.5
657.34	8817.53
657.532	8805.24
657.724	8842.11
657.916	8760.19
658.108	8680.32
658.3	8829.82
658.492	8500.09
658.684	8500.09
658.876	8590.2
659.068	8428.42
659.26	8381.31
659.452	8440.7
659.644	8231.81
659.836	8381.31
660.028	8358.78
660.22	8209.28
660.412	8215.43
660.604	8149.89
660.796	7955.33
660.988	7963.53
661.18	8121.22
661.372	7904.14
661.563	8018.82
661.755	7838.6
661.947	7881.61
662.139	7977.86
662.331	7822.22
662.522	7650.19
662.714	7662.48
662.906	7596.94
663.097	7529.36
663.289	7433.1
663.481	7535.5
663.673	7805.83
663.864	7517.07
664.056	7662.48
664.247	7506.83
664.439	7431.05
664.631	7410.57
664.822	7392.14
665.014	7170.96
665.205	7281.55
665.397	7316.37
665.588	7273.36
665.78	7125.91
665.971	7111.57
666.163	7201.68
666.354	6980.5
666.546	6941.59
666.737	6976.41
666.929	7043.99
667.12	6853.53
667.311	6998.93
667.503	6990.74
667.694	7115.67
667.885	6790.04
668.077	6953.88
668.268	6661.02
668.459	6671.26
668.651	6626.2
668.842	6849.43
669.033	6802.33
669.224	6628.25
669.416	6708.12
669.607	6663.07
669.798	6519.71
669.989	6695.83
670.18	6640.54
670.371	6728.6
670.563	6538.14
670.754	6525.85
670.945	6384.54
671.136	6497.18
671.327	6525.85
671.518	6478.75
671.709	6273.95
671.9	6331.3
672.091	6472.61
672.282	6343.58
672.473	6413.21
672.664	6249.38
672.855	6192.03
673.046	6194.08
673.237	6384.54
673.428	6515.61
673.619	6282.14
673.809	6206.37
674	6167.46
674.191	6265.76
674.382	6144.93
674.573	6239.14
674.764	6101.92
674.954	6232.99
675.145	6022.05
675.336	6132.64
675.527	6189.99
675.717	6093.73
675.908	6144.93
676.099	6124.45
676.289	6030.24
676.48	6077.35
676.671	6007.72
676.861	6175.65
677.052	5772.2
677.243	5901.22
677.433	5946.28
677.624	5999.52
677.814	6028.2
678.005	6050.72
678.195	6087.59
678.386	5940.13
678.576	6028.2
678.767	5839.78
678.957	5845.93
679.148	5882.79
679.338	5874.6
679.529	5997.48
679.719	5737.38
679.909	6030.24
680.1	5858.21
680.29	5870.5
680.481	5766.06
680.671	5913.51
680.861	5761.96
681.052	5909.41
681.242	5815.21
681.432	5923.75
681.622	5753.77
681.813	5743.53
682.003	5764.01
682.193	5882.79
682.383	5757.86
682.573	5888.93
682.764	5721
682.954	5696.43
683.144	5784.49
683.334	5839.78
683.524	5804.97
683.714	5878.69
683.904	5702.57
684.094	5632.94
684.284	5684.14
684.474	5850.02
684.664	5716.9
684.854	5686.19
685.044	5751.72
685.234	5430.19
685.424	5716.9
685.614	5467.05
685.804	5542.83
685.994	5553.07
686.184	5436.33
686.374	5589.93
686.564	5602.22
686.753	5417.9
686.943	5360.56
687.133	5524.4
687.323	5458.86
687.513	5442.48
687.702	5370.8
687.892	5354.41
688.082	5252.02
688.272	5270.45
688.461	5295.02
688.651	5227.44
688.841	5170.1
689.03	5188.53
689.22	5264.3
689.41	5157.81
689.599	5288.88
689.789	5004.21
689.979	5012.4
690.168	4985.78
690.358	4889.53
690.547	4942.77
690.737	4836.28
690.926	4864.95
691.116	4762.55
691.305	4889.53
691.495	4701.11
691.684	4737.98
691.874	4756.41
692.063	4676.54
692.252	4674.49
692.442	4723.64
692.631	4465.6
692.82	4733.88
693.01	4766.65
693.199	4651.96
693.388	4635.58
693.578	4637.63
693.767	4617.15
693.956	4656.06
694.146	4422.59
694.335	4522.94
694.524	4471.74
694.713	4418.49
694.902	4309.95
695.092	4504.51
695.281	4262.85
695.47	4338.62
695.659	4244.42
695.848	4326.33
696.037	4529.08
696.226	4264.89
696.415	4389.82
696.604	4180.93
696.793	4250.56
696.982	4152.26
697.171	4219.84
697.36	4197.31
697.549	4066.24
697.738	4209.6
697.927	4062.15
698.116	4301.76
698.305	4209.6
698.494	4199.36
698.683	4129.73
698.872	4244.42
699.061	4334.53
699.25	4228.03
699.438	4012.99
699.627	4154.3
699.816	4189.12
700.005	4094.91
700.193	4113.35
700.382	4137.92
700.571	3992.52
700.76	4002.75
700.948	4129.73
701.137	4096.96
701.326	4142.02
701.514	3963.84
701.703	4017.09
701.892	3982.28
702.08	4191.17
702.269	4088.77
702.457	3912.64
702.646	3935.17
702.834	4000.71
703.023	4115.39
703.212	4209.6
703.4	4123.59
703.589	3908.55
703.777	3957.7
703.965	3994.56
704.154	4029.38
704.342	4004.8
704.531	4041.67
704.719	3840.97
704.907	4225.98
705.096	3886.02
705.284	4021.19
705.472	4002.75
705.661	3982.28
705.849	3937.22
706.037	3990.47
706.226	4084.67
706.414	4113.35
706.602	3947.46
706.79	4139.97
706.979	4064.19
707.167	4029.38
707.355	3963.84
707.543	4021.19
707.731	4113.35
707.919	4096.96
708.107	4000.71
708.296	4033.47
708.484	3982.28
708.672	4025.28
708.86	4008.9
709.048	3998.66
709.236	4000.71
709.424	4035.52
709.612	4074.43
709.8	4064.19
709.988	4015.04
710.176	4152.26
710.364	4008.9
710.551	3998.66
710.739	4076.48
710.927	4035.52
711.115	3947.46
711.303	4148.16
711.491	4053.95
711.679	4084.67
711.866	4117.44
712.054	3969.99
712.242	4086.72
712.43	4168.64
712.617	4168.64
712.805	4092.87
712.993	4070.34
713.181	4103.11
713.368	4180.93
713.556	4103.11
713.744	4135.87
713.931	4099.01
714.119	4133.82
714.306	3965.89
714.494	4164.54
714.682	4029.38
714.869	3982.28
715.057	4176.83
715.244	4201.41
715.432	4107.2
715.619	4127.68
715.807	4180.93
715.994	4174.78
716.182	4105.15
716.369	4129.73
716.556	4131.78
716.744	4154.3
716.931	4105.15
717.119	4293.57
717.306	4176.83
717.493	4133.82
717.681	4174.78
717.868	4256.7
718.055	4201.41
718.242	4258.75
718.43	4096.96
718.617	4178.88
718.804	4187.07
718.991	4144.06
719.179	4373.44
719.366	4107.2
719.553	4160.45
719.74	4221.89
719.927	4199.36
720.114	4254.66
720.301	4312
720.488	4123.59
720.676	4064.19
720.863	4125.63
721.05	4182.98
721.237	4336.57
721.424	4193.22
721.611	4277.18
721.798	4187.07
721.985	4148.16
722.172	4238.27
722.358	4029.38
722.545	4221.89
722.732	4225.98
722.919	4293.57
723.106	4289.47
723.293	4150.21
723.48	4314.05
723.667	4189.12
723.853	4010.95
724.04	4258.75
724.227	4234.18
724.414	4264.89
724.6	4330.43
724.787	4111.3
724.974	4275.13
725.161	4178.88
725.347	4213.7
725.534	4225.98
725.72	4293.57
725.907	4318.14
726.094	4240.32
726.28	4344.77
726.467	4352.96
726.653	4258.75
726.84	4324.29
727.027	4465.6
727.213	4268.99
727.4	4381.63
727.586	4398.01
727.773	4299.71
727.959	4340.67
728.145	4344.77
728.332	4215.74
728.518	4283.33
728.705	4488.12
728.891	4205.5
729.077	4342.72
729.264	4391.87
729.45	4357.05
729.636	4344.77
729.823	4273.09
730.009	4361.15
730.195	4377.53
730.382	4348.86
730.568	4293.57
730.754	4475.84
730.94	4373.44
731.126	4338.62
731.313	4389.82
731.499	4406.2
731.685	4393.92
731.871	4324.29
732.057	4402.11
732.243	4463.55
732.429	4414.4
732.615	4389.82
732.801	4209.6
732.987	4287.42
733.173	4293.57
733.359	4307.9
733.545	4266.94
733.731	4393.92
733.917	4242.37
734.103	4449.21
734.289	4352.96
734.475	4176.83
734.661	4424.64
734.847	4395.96
735.033	4420.54
735.219	4387.77
735.404	4236.22
735.59	4275.13
735.776	4387.77
735.962	4260.8
736.148	4379.58
736.333	4377.53
736.519	4375.49
736.705	4303.81
736.89	4207.55
737.076	4283.33
737.262	4252.61
737.447	4332.48
737.633	4314.05
737.819	4314.05
738.004	4139.97
738.19	4289.47
738.375	3990.47
738.561	4398.01
738.747	4133.82
738.932	4240.32
739.118	4332.48
739.303	4309.95
739.489	4209.6
739.674	4246.46
739.859	4219.84
740.045	4180.93
740.23	4219.84
740.416	4113.35
740.601	4211.65
740.786	3953.6
740.972	4047.81
741.157	4172.74
741.342	3865.54
741.528	3951.56
741.713	4221.89
741.898	4051.91
742.084	4084.67
742.269	3871.68
742.454	4080.58
742.639	4015.04
742.824	4060.1
743.01	3935.17
743.195	4004.8
743.38	3818.44
743.565	3965.89
743.75	3847.11
743.935	3900.36
744.12	3900.36
744.305	3777.48
744.49	3752.9
744.675	3881.92
744.86	3791.81
745.045	3890.12
745.23	3765.19
745.415	3826.63
745.6	3896.26
745.785	3627.98
745.97	3662.79
746.155	3779.53
746.34	3757
746.525	3648.46
746.71	3660.74
746.895	3380.17
747.079	3564.49
747.264	3441.61
747.449	3670.98
747.634	3527.63
747.819	3509.19
748.003	3531.72
748.188	3408.84
748.373	3326.93
748.557	3369.93
748.742	3345.36
748.927	3318.73
749.111	3296.21
749.296	3245.01
749.481	3228.62
749.665	3355.6
749.85	3163.09
750.034	3316.69
750.219	3312.59
750.404	3105.74
750.588	3175.38
750.773	3017.68
750.957	3128.27
751.141	3140.56
751.326	3091.41
751.51	3144.66
751.695	3034.07
751.879	3036.11
752.064	3136.46
752.248	3005.39
752.432	2964.43
752.617	3040.21
752.801	2833.36
752.985	2995.15
753.17	2921.43
753.354	2984.91
753.538	2821.08
753.722	2776.02
753.907	2651.1
754.091	2735.06
754.275	2812.89
754.459	2743.25
754.643	2720.73
754.828	2687.96
755.012	2735.06
755.196	2673.62
755.38	2667.48
755.564	2671.58
755.748	2638.81
755.932	2577.37
756.116	2606.04
756.3	2636.76
756.484	2591.7
756.668	2517.98
756.852	2487.26
757.036	2483.16
757.22	2460.63
757.404	2550.75
757.588	2436.06
757.772	2397.15
757.956	2446.3
758.14	2395.1
758.323	2429.91
758.507	2329.56
758.691	2257.89
758.875	2325.47
759.059	2307.04
759.242	2327.52
759.426	2282.46
759.61	2298.84
759.794	2169.82
759.977	2337.76
760.161	2169.82
760.345	2298.84
760.528	2229.21
760.712	2253.79
760.895	2167.77
761.079	2198.49
761.263	2040.8
761.446	2147.3
761.63	2270.17
761.813	2112.48
761.997	2108.38
762.18	2096.1
762.364	2069.47
762.547	1901.54
762.731	2016.23
762.914	2038.75
763.098	2003.94
763.281	1883.11
763.464	2083.81
763.648	1971.17
763.831	1926.11
764.015	1940.45
764.198	1983.46
764.381	1924.07
764.564	1868.77
764.748	1989.6
764.931	1993.7
765.114	2014.18
765.297	1825.76
765.481	1811.43
765.664	1870.82
765.847	1874.92
766.03	1895.4
766.213	1833.96
766.397	1866.72
766.58	1860.58
766.763	1825.76
766.946	1827.81
767.129	1838.05
767.312	1770.47
767.495	1743.85
767.678	1749.99
767.861	1663.97
768.044	1817.57
768.227	1633.26
768.41	1711.08
768.593	1788.9
768.776	1749.99
768.959	1715.17
769.142	1768.42
769.324	1641.45
769.507	1768.42
769.69	1561.58
769.873	1645.54
770.056	1686.5
770.239	1553.38
770.421	1645.54
770.604	1596.39
770.787	1692.65
770.97	1569.77
771.152	1653.73
771.335	1698.79
771.518	1596.39
771.7	1629.16
771.883	1575.91
772.066	1506.28
772.248	1659.88
772.431	1616.87
772.613	1534.95
772.796	1504.23
772.978	1512.42
773.161	1516.52
773.343	1631.21
773.526	1493.99
773.708	1356.78
773.891	1307.63
774.073	1514.47
774.256	1477.61
774.438	1567.72
774.621	1416.17
774.803	1461.23
774.985	1371.12
775.168	1397.74
775.35	1352.68
775.532	1395.69
775.715	1336.3
775.897	1399.79
776.079	1397.74
776.261	1387.5
776.444	1291.24
776.626	1301.48
776.808	1260.52
776.99	1307.63
777.173	1340.4
777.355	1254.38
777.537	1223.66
777.719	1199.09
777.901	1201.13
778.083	1207.28
778.265	1194.99
778.447	1258.48
778.629	1231.85
778.811	1149.93
778.993	1145.84
779.175	1194.99
779.357	1203.18
779.539	1080.3
779.721	1145.84
779.903	1244.14
780.085	1188.85
780.267	1121.26
780.449	1168.37
780.631	1043.44
780.812	1205.23
780.994	988.14
781.176	1057.78
781.358	1020.91
781.54	1049.58
781.721	1033.2
781.903	1014.77
782.085	1041.39
782.267	1035.25
782.448	959.47
782.63	883.7
782.812	1082.35
782.993	893.94
783.175	965.62
783.357	1008.62
783.538	1074.16
783.72	973.81
783.901	881.65
784.083	916.47
784.264	869.36
784.446	879.6
784.627	830.45
784.809	930.8
784.99	842.74
785.172	861.17
785.353	920.56
785.535	924.66
785.716	891.89
785.897	769.01
786.079	730.1
786.26	799.73
786.441	785.4
786.623	818.16
786.804	797.68
786.985	818.16
787.167	787.44
787.348	828.4
787.529	791.54
787.71	859.12
787.891	738.29
788.073	779.25
788.254	748.53
788.435	840.69
788.616	795.64
788.797	754.68
788.978	734.2
789.159	674.81
789.34	828.4
789.522	691.19
789.703	744.44
789.884	660.47
790.065	613.37
790.246	732.15
790.427	726
790.607	820.21
790.788	650.23
790.969	637.94
791.15	705.53
791.331	726
791.512	746.48
791.693	730.1
791.874	603.13
792.054	746.48
792.235	699.38
792.416	639.99
792.597	717.81
792.778	678.9
792.958	687.09
793.139	633.85
793.32	560.12
793.5	541.69
793.681	685.05
793.862	607.22
794.042	560.12
794.223	586.74
794.404	558.07
794.584	523.26
794.765	506.87
794.945	564.22
795.126	566.26
795.306	558.07
795.487	556.02
795.667	617.46
795.848	482.3
796.028	508.92
796.209	525.3
796.389	621.56
796.57	490.49
796.75	482.3
796.93	453.63
797.111	535.54
797.291	519.16
797.471	504.82
797.652	490.49
797.832	515.06
798.012	465.91
798.192	519.16
798.373	429.05
798.553	521.21
798.733	494.58
798.913	402.43
799.093	459.77
799.274	541.69
799.454	508.92
799.634	519.16
799.814	465.91
799.994	480.25
800.174	525.3
800.354	525.3
800.534	408.57
800.714	490.49
800.894	427
801.074	443.39
801.254	396.28
801.434	545.78
801.614	467.96
801.794	408.57
801.974	1330.16
802.154	435.19
802.334	408.57
802.514	367.61
802.693	375.8
802.873	392.19
803.053	457.72
803.233	416.76
803.413	457.72
803.592	400.38
803.772	373.75
803.952	398.33
804.131	490.49
804.311	433.15
804.491	447.48
804.67	416.76
804.85	367.61
805.03	445.43
805.209	420.86
805.389	343.03
805.568	324.6
805.748	365.56
805.928	316.41
806.107	414.71
806.287	347.13
806.466	367.61
806.646	404.47
806.825	328.7
807.004	345.08
807.184	410.62
807.363	345.08
807.543	386.04
807.722	285.69
807.901	433.15
808.081	386.04
808.26	338.94
808.439	353.27
808.619	381.95
808.798	345.08
808.977	343.03
809.156	388.09
809.336	289.79
809.515	414.71
809.694	347.13
809.873	308.22
810.052	377.85
810.231	375.8
810.411	295.93
810.59	381.95
810.769	222.2
810.948	326.65
811.127	308.22
811.306	328.7
811.485	312.32
811.664	363.51
811.843	285.69
812.022	300.03
812.201	236.54
812.38	353.27
812.559	297.98
812.737	359.42
812.916	228.35
813.095	259.07
813.274	400.38
813.453	277.5
813.632	308.22
813.811	271.36
813.989	250.88
814.168	261.12
814.347	273.4
814.526	281.6
814.704	371.71
814.883	345.08
815.062	242.68
815.24	363.51
815.419	222.2
815.598	199.68
815.776	203.77
815.955	261.12
816.133	148.48
816.312	324.6
816.49	236.54
816.669	218.11
816.847	205.82
817.026	310.27
817.204	285.69
817.383	162.81
817.561	187.39
817.74	252.92
817.918	295.93
818.097	304.12
818.275	232.44
818.453	191.49
818.632	248.83
818.81	273.4
818.988	207.87
819.167	232.44
819.345	214.01
819.523	220.16
819.701	261.12
819.879	265.21
820.058	216.06
820.236	250.88
820.414	203.77
820.592	220.16
820.77	287.74
820.948	293.88
821.127	171.01
821.305	279.55
821.483	293.88
821.661	322.56
821.839	189.44
822.017	179.2
822.195	203.77
822.373	203.77
822.551	203.77
822.729	263.16
822.907	162.81
823.085	228.35
823.262	244.73
823.44	216.06
823.618	181.25
823.796	222.2
823.974	164.86
824.152	209.92
824.329	148.48
824.507	203.77
824.685	211.96
824.863	179.2
825.04	187.39
825.218	263.16
825.396	117.76
825.574	232.44
825.751	187.39
825.929	254.97
826.107	171.01
826.284	154.62
826.462	160.77
826.639	236.54
826.817	158.72
826.994	195.58
827.172	222.2
827.349	222.2
827.527	175.1
827.704	156.67
827.882	220.16
828.059	197.63
828.237	211.96
828.414	295.93
828.591	72.7
828.769	195.58
828.946	193.53
829.124	185.34
829.301	275.45
829.478	146.43
829.655	168.96
829.833	175.1
830.01	148.48
830.187	254.97
830.364	164.86
830.542	193.53
830.719	228.35
830.896	138.24
831.073	123.9
831.25	166.91
831.427	201.72
831.604	187.39
831.782	183.29
831.959	148.48
832.136	138.24
832.313	193.53
832.49	115.71
832.667	134.14
832.844	117.76
833.021	238.59
833.198	148.48
833.374	146.43
833.551	97.28
833.728	132.09
833.905	117.76
834.082	95.23
834.259	164.86
834.436	105.47
834.612	87.04
834.789	171.01
834.966	109.57
835.143	246.78
835.319	125.95
835.496	211.96
835.673	148.48
835.85	197.63
836.026	128
836.203	175.1
836.38	46.08
836.556	156.67
836.733	56.32
836.909	236.54
837.086	84.99
837.262	54.27
837.439	31.74
837.616	107.52
837.792	80.89
837.968	187.39
838.145	-13.31
838.321	105.47
838.498	148.48
838.674	156.67
838.851	89.09
839.027	70.65
839.203	181.25
839.38	216.06
839.556	113.66
839.732	177.15
839.909	74.75
840.085	128
840.261	11.26
840.437	60.42
840.614	70.65
840.79	164.86
840.966	142.33
841.142	193.53
841.318	162.81
841.494	148.48
841.671	173.05
841.847	123.9
842.023	64.51
842.199	99.33
842.375	244.73
842.551	-1.02
842.727	80.89
842.903	158.72
843.079	111.61
843.255	164.86
843.431	93.18
843.607	72.7
843.783	-31.74
843.959	64.51
844.134	138.24
844.31	105.47
844.486	39.94
844.662	25.6
844.838	134.14
845.013	138.24
845.189	181.25
845.365	117.76
845.541	121.85
845.716	35.84
845.892	117.76
846.068	97.28
846.244	31.74
846.419	76.8
846.595	41.98
846.77	41.98
846.946	74.75
847.122	62.46
847.297	103.42
847.473	171.01
847.648	76.8
847.824	107.52
847.999	-37.89
848.175	52.22
848.35	5.12
848.526	121.85
848.701	125.95
848.876	103.42
849.052	148.48
849.227	15.36
849.403	27.65
849.578	78.85
849.753	50.18
849.929	138.24
850.104	107.52
850.279	140.29
850.454	87.04
850.63	82.94
850.805	152.57
850.98	62.46
851.155	44.03
851.33	142.33
851.505	41.98
851.681	146.43
851.856	60.42
852.031	101.37
852.206	39.94
852.381	23.55
852.556	107.52
852.731	37.89
852.906	136.19
853.081	125.95
853.256	91.13
853.431	11.26
853.606	31.74
853.781	50.18
853.956	35.84
854.131	146.43
854.305	3.07
854.48	60.42
854.655	82.94
854.83	76.8
855.005	103.42
855.18	33.79
855.354	64.51
855.529	130.05
855.704	3.07
855.879	134.14
856.053	78.85
856.228	91.13
856.403	48.13
856.577	31.74
856.752	64.51
856.926	60.42
857.101	105.47
857.276	11.26
857.45	11.26
857.625	35.84
857.799	48.13
857.974	72.7
858.148	60.42
858.323	44.03
858.497	56.32
858.672	37.89
858.846	-35.84
859.02	66.56
859.195	56.32
859.369	62.46
859.543	31.74
859.718	74.75
859.892	58.37
860.066	41.98
860.241	31.74
860.415	19.46
860.589	33.79
860.763	25.6
860.938	7.17
861.112	66.56
861.286	-9.22
861.46	146.43
861.634	62.46
861.808	107.52
861.982	68.61
862.157	58.37
862.331	87.04
862.505	3.07
862.679	7.17
862.853	-5.12
863.027	23.55
863.201	177.15
863.375	29.7
863.549	82.94
863.722	74.75
863.896	-5.12
864.07	37.89
864.244	87.04
864.418	50.18
864.592	19.46
864.766	66.56
864.939	50.18
865.113	-15.36
865.287	82.94
865.461	-3.07
865.634	66.56
865.808	3.07
865.982	21.5
866.156	80.89
866.329	9.22
866.503	64.51
866.676	117.76
866.85	119.81
867.024	44.03
867.197	148.48
867.371	130.05
867.544	72.7
867.718	-1.02
867.891	105.47
868.065	-9.22
868.238	150.53
868.412	82.94
868.585	29.7
868.759	78.85
868.932	-1.02
869.105	-17.41
869.279	82.94
869.452	-93.18
869.625	33.79
869.799	-9.22
869.972	19.46
870.145	99.33
870.319	35.84
870.492	105.47
870.665	21.5
870.838	50.18
871.011	-76.8
871.185	109.57
871.358	39.94
871.531	89.09
871.704	11.26
871.877	-5.12
872.05	58.37
872.223	-1.02
872.396	-27.65
872.569	11.26
872.742	33.79
872.915	54.27
873.088	44.03
873.261	17.41
873.434	50.18
873.607	29.7
873.78	107.52
873.953	-17.41
874.126	35.84
874.299	27.65
874.471	-9.22
874.644	17.41
874.817	-44.03
874.99	7.17
875.163	23.55
875.335	37.89
875.508	48.13
875.681	101.37
875.853	-15.36
876.026	93.18
876.199	52.22
876.371	-25.6
876.544	17.41
876.717	84.99
876.889	-19.46
877.062	48.13
877.234	35.84
877.407	-37.89
877.579	93.18
877.752	107.52
877.924	35.84
878.097	60.42
878.269	-3.07
878.442	64.51
878.614	78.85
878.786	68.61
878.959	5.12
879.131	89.09
879.303	-41.98
879.476	-25.6
879.648	17.41
879.82	62.46
879.993	37.89
880.165	21.5
880.337	27.65
880.509	48.13
880.681	15.36
880.854	11.26
881.026	76.8
881.198	130.05
881.37	117.76
881.542	33.79
881.714	-3.07
881.886	9.22
882.058	-13.31
882.23	68.61
882.402	52.22
882.574	56.32
882.746	-3.07
882.918	121.85
883.09	58.37
883.262	37.89
883.434	9.22
883.606	-64.51
883.778	84.99
883.95	70.65
884.122	109.57
884.293	82.94
884.465	27.65
884.637	89.09
884.809	31.74
884.98	7.17
885.152	62.46
885.324	58.37
885.496	-3.07
885.667	-7.17
885.839	23.55
886.011	50.18
886.182	37.89
886.354	136.19
886.525	-19.46
886.697	13.31
886.869	-9.22
887.04	56.32
887.212	97.28
887.383	103.42
887.555	-46.08
887.726	23.55
887.897	9.22
888.069	-25.6
888.24	128
888.412	84.99
888.583	72.7
888.754	-3.07
888.926	3.07
889.097	19.46
889.268	-46.08
889.44	35.84
889.611	-29.7
889.782	1.02
889.953	5.12
890.125	56.32
890.296	41.98
890.467	39.94
890.638	89.09
890.809	-7.17
890.98	-58.37
891.151	15.36
891.323	58.37
891.494	23.55
891.665	-29.7
891.836	64.51
892.007	105.47
892.178	84.99
892.349	64.51
892.52	13.31
892.691	-62.46
892.862	7.17
893.032	-80.89
893.203	23.55
893.374	33.79
893.545	39.94
893.716	15.36
893.887	72.7
894.057	-64.51
894.228	-41.98
894.399	7.17
894.57	29.7
894.74	-9.22
894.911	19.46
895.082	31.74
895.253	-9.22
895.423	68.61
895.594	117.76
895.764	89.09
895.935	-29.7
896.106	23.55
896.276	-64.51
896.447	109.57
896.617	-15.36
896.788	31.74
896.958	7.17
897.129	-1.02
897.299	74.75
897.47	56.32
897.64	52.22
897.81	66.56
897.981	-17.41
898.151	21.5
898.322	35.84
898.492	3.07
898.662	35.84
898.832	101.37
899.003	-37.89
899.173	19.46
899.343	13.31
899.513	11.26
