Data from USB4F104151__44__13-05-16-685.txt Node

Date: Fri Mar 14 13:05:16 EDT 2025
User: louis
Spectrometer: USB4F10415
Trigger mode: 4
Integration Time (sec): 4.000000E-2
Scans to average: 1
Electric dark correction enabled: true
Nonlinearity correction enabled: false
Boxcar width: 0
XAxis mode: Wavelengths
Number of Pixels in Spectrum: 3648
>>>>>Begin Spectral Data<<<<<
178.204	-225.62
178.424	-225.62
178.644	-225.62
178.864	-182.61
179.084	-155.99
179.304	-8.53
179.524	50.86
179.744	46.76
179.964	57
180.184	-51.54
180.404	44.71
180.624	-31.06
180.844	-0.34
181.064	-39.25
181.283	-49.49
181.503	26.28
181.723	-45.4
181.943	-88.4
182.163	95.91
182.383	9.9
182.602	81.58
182.822	110.25
183.042	48.81
183.262	-59.73
183.482	28.33
183.701	1.71
183.921	26.28
184.141	-0.34
184.361	59.05
184.58	52.91
184.8	20.14
185.02	-33.11
185.239	61.1
185.459	18.09
185.679	155.3
185.898	40.62
186.118	61.1
186.338	95.91
186.557	52.91
186.777	-31.06
186.997	42.67
187.216	52.91
187.436	77.48
187.655	40.62
187.875	79.53
188.095	22.19
188.314	32.43
188.534	118.44
188.753	18.09
188.973	46.76
189.192	124.58
189.412	114.34
189.631	63.15
189.851	20.14
190.07	63.15
190.29	-0.34
190.509	44.71
190.729	38.57
190.948	110.25
191.168	194.22
191.387	124.58
191.607	20.14
191.826	61.1
192.045	40.62
192.265	73.39
192.484	46.76
192.704	-16.73
192.923	20.14
193.142	50.86
193.362	36.52
193.581	120.49
193.8	50.86
194.02	54.95
194.239	118.44
194.458	75.43
194.678	42.67
194.897	16.04
195.116	54.95
195.335	3.75
195.555	136.87
195.774	40.62
195.993	69.29
196.212	22.19
196.432	91.82
196.651	44.71
196.87	-10.58
197.089	124.58
197.308	95.91
197.528	81.58
197.747	-35.16
197.966	97.96
198.185	79.53
198.404	93.87
198.623	38.57
198.842	61.1
199.062	52.91
199.281	151.21
199.5	50.86
199.719	54.95
199.938	69.29
200.157	36.52
200.376	163.5
200.595	167.59
200.814	5.8
201.033	3.75
201.252	91.82
201.471	61.1
201.69	73.39
201.909	97.96
202.128	-14.68
202.347	30.38
202.566	-0.34
202.785	-2.39
203.004	-14.68
203.223	138.92
203.442	104.11
203.661	34.47
203.879	110.25
204.098	61.1
204.317	83.63
204.536	102.06
204.755	77.48
204.974	9.9
205.193	83.63
205.411	169.64
205.63	59.05
205.849	93.87
206.068	24.23
206.287	-14.68
206.505	83.63
206.724	50.86
206.943	75.43
207.162	30.38
207.381	140.97
207.599	7.85
207.818	59.05
208.037	-4.44
208.255	46.76
208.474	-18.77
208.693	104.11
208.911	3.75
209.13	11.95
209.349	54.95
209.567	9.9
209.786	5.8
210.005	59.05
210.223	97.96
210.442	54.95
210.661	75.43
210.879	5.8
211.098	34.47
211.316	52.91
211.535	57
211.753	114.34
211.972	71.34
212.191	-20.82
212.409	-18.77
212.628	59.05
212.846	-22.87
213.065	-0.34
213.283	26.28
213.502	36.52
213.72	16.04
213.938	95.91
214.157	-0.34
214.375	52.91
214.594	42.67
214.812	54.95
215.031	44.71
215.249	-57.68
215.467	97.96
215.686	114.34
215.904	95.91
216.122	54.95
216.341	95.91
216.559	93.87
216.778	36.52
216.996	93.87
217.214	65.19
217.432	-29.01
217.651	-35.16
217.869	7.85
218.087	-0.34
218.306	83.63
218.524	87.72
218.742	-51.54
218.96	87.72
219.179	9.9
219.397	42.67
219.615	124.58
219.833	91.82
220.051	54.95
220.27	71.34
220.488	95.91
220.706	30.38
220.924	36.52
221.142	5.8
221.36	-12.63
221.578	26.28
221.796	20.14
222.015	73.39
222.233	71.34
222.451	52.91
222.669	9.9
222.887	124.58
223.105	40.62
223.323	67.24
223.541	13.99
223.759	79.53
223.977	93.87
224.195	102.06
224.413	52.91
224.631	48.81
224.849	36.52
225.067	95.91
225.285	40.62
225.503	20.14
225.721	-51.54
225.939	50.86
226.157	69.29
226.375	79.53
226.592	16.04
226.81	52.91
227.028	85.67
227.246	120.49
227.464	16.04
227.682	57
227.9	40.62
228.117	50.86
228.335	20.14
228.553	-39.25
228.771	38.57
228.989	85.67
229.206	87.72
229.424	93.87
229.642	-37.2
229.86	-35.16
230.077	91.82
230.295	38.57
230.513	108.2
230.731	38.57
230.948	79.53
231.166	85.67
231.384	-33.11
231.601	48.81
231.819	77.48
232.037	20.14
232.254	28.33
232.472	61.1
232.689	13.99
232.907	67.24
233.125	30.38
233.342	-45.4
233.56	18.09
233.777	-29.01
233.995	7.85
234.213	85.67
234.43	40.62
234.648	-4.44
234.865	-18.77
235.083	77.48
235.3	52.91
235.518	9.9
235.735	75.43
235.953	151.21
236.17	18.09
236.388	44.71
236.605	61.1
236.822	63.15
237.04	73.39
237.257	-22.87
237.475	3.75
237.692	89.77
237.909	69.29
238.127	79.53
238.344	22.19
238.562	50.86
238.779	26.28
238.996	3.75
239.214	34.47
239.431	52.91
239.648	-41.3
239.865	112.3
240.083	79.53
240.3	46.76
240.517	97.96
240.735	11.95
240.952	124.58
241.169	52.91
241.386	77.48
241.603	61.1
241.821	-69.97
242.038	108.2
242.255	52.91
242.472	-26.96
242.689	85.67
242.907	102.06
243.124	1.71
243.341	40.62
243.558	104.11
243.775	5.8
243.992	-4.44
244.209	11.95
244.426	95.91
244.643	110.25
244.86	3.75
245.078	54.95
245.295	126.63
245.512	28.33
245.729	20.14
245.946	13.99
246.163	48.81
246.38	-37.2
246.597	30.38
246.814	36.52
247.031	5.8
247.248	108.2
247.464	40.62
247.681	57
247.898	11.95
248.115	30.38
248.332	9.9
248.549	61.1
248.766	93.87
248.983	110.25
249.2	110.25
249.417	147.11
249.633	57
249.85	122.54
250.067	3.75
250.284	44.71
250.501	59.05
250.717	87.72
250.934	-16.73
251.151	-4.44
251.368	57
251.585	95.91
251.801	24.23
252.018	-74.07
252.235	-24.92
252.451	-63.83
252.668	61.1
252.885	104.11
253.102	48.81
253.318	114.34
253.535	-14.68
253.752	9.9
253.968	24.23
254.185	-76.12
254.401	116.39
254.618	61.1
254.835	-18.77
255.051	114.34
255.268	-18.77
255.484	52.91
255.701	38.57
255.917	63.15
256.134	26.28
256.351	-0.34
256.567	-20.82
256.784	22.19
257	52.91
257.217	79.53
257.433	77.48
257.65	87.72
257.866	126.63
258.082	-14.68
258.299	20.14
258.515	100.01
258.732	-35.16
258.948	-4.44
259.165	-8.53
259.381	3.75
259.597	57
259.814	38.57
260.03	9.9
260.246	102.06
260.463	104.11
260.679	153.26
260.895	44.71
261.112	67.24
261.328	50.86
261.544	50.86
261.761	151.21
261.977	30.38
262.193	-18.77
262.409	91.82
262.626	93.87
262.842	-33.11
263.058	57
263.274	52.91
263.49	-4.44
263.707	132.78
263.923	77.48
264.139	-22.87
264.355	112.3
264.571	46.76
264.787	69.29
265.004	81.58
265.22	40.62
265.436	59.05
265.652	42.67
265.868	34.47
266.084	-12.63
266.3	-43.35
266.516	-6.49
266.732	171.69
266.948	3.75
267.164	20.14
267.38	28.33
267.596	16.04
267.812	124.58
268.028	28.33
268.244	46.76
268.46	87.72
268.676	13.99
268.892	63.15
269.108	-0.34
269.324	-26.96
269.54	52.91
269.756	63.15
269.972	13.99
270.188	20.14
270.403	36.52
270.619	91.82
270.835	69.29
271.051	26.28
271.267	28.33
271.483	-24.92
271.698	77.48
271.914	95.91
272.13	89.77
272.346	54.95
272.562	48.81
272.777	138.92
272.993	52.91
273.209	-12.63
273.425	89.77
273.64	-6.49
273.856	28.33
274.072	26.28
274.287	122.54
274.503	120.49
274.719	114.34
274.934	102.06
275.15	36.52
275.366	75.43
275.581	9.9
275.797	61.1
276.012	69.29
276.228	-12.63
276.444	28.33
276.659	151.21
276.875	22.19
277.09	44.71
277.306	95.91
277.521	40.62
277.737	52.91
277.952	50.86
278.168	54.95
278.383	63.15
278.599	46.76
278.814	87.72
279.03	126.63
279.245	95.91
279.461	79.53
279.676	69.29
279.892	-2.39
280.107	5.8
280.322	-10.58
280.538	91.82
280.753	97.96
280.969	54.95
281.184	95.91
281.399	79.53
281.615	52.91
281.83	44.71
282.045	30.38
282.26	-8.53
282.476	48.81
282.691	69.29
282.906	61.1
283.122	50.86
283.337	-59.73
283.552	50.86
283.767	-18.77
283.983	95.91
284.198	3.75
284.413	114.34
284.628	-69.97
284.843	22.19
285.058	120.49
285.274	40.62
285.489	-20.82
285.704	30.38
285.919	85.67
286.134	104.11
286.349	22.19
286.564	18.09
286.779	89.77
286.995	52.91
287.21	38.57
287.425	83.63
287.64	13.99
287.855	81.58
288.07	1.71
288.285	69.29
288.5	32.43
288.715	1.71
288.93	85.67
289.145	79.53
289.36	52.91
289.575	79.53
289.79	155.3
290.004	79.53
290.219	97.96
290.434	67.24
290.649	134.82
290.864	63.15
291.079	52.91
291.294	71.34
291.509	50.86
291.724	-6.49
291.938	-67.92
292.153	59.05
292.368	61.1
292.583	36.52
292.798	126.63
293.012	69.29
293.227	110.25
293.442	44.71
293.657	134.82
293.871	108.2
294.086	149.16
294.301	110.25
294.516	173.74
294.73	136.87
294.945	-14.68
295.16	85.67
295.374	97.96
295.589	108.2
295.804	52.91
296.018	38.57
296.233	112.3
296.447	34.47
296.662	-51.54
296.877	118.44
297.091	18.09
297.306	67.24
297.52	18.09
297.735	-10.58
297.949	16.04
298.164	151.21
298.378	61.1
298.593	22.19
298.807	36.52
299.022	3.75
299.236	106.15
299.451	30.38
299.665	34.47
299.88	-18.77
300.094	30.38
300.309	63.15
300.523	54.95
300.737	-29.01
300.952	69.29
301.166	7.85
301.381	48.81
301.595	22.19
301.809	22.19
302.024	-2.39
302.238	-20.82
302.452	79.53
302.667	30.38
302.881	143.02
303.095	77.48
303.309	95.91
303.524	28.33
303.738	20.14
303.952	48.81
304.166	79.53
304.381	-67.92
304.595	169.64
304.809	-2.39
305.023	57
305.237	28.33
305.452	81.58
305.666	52.91
305.88	89.77
306.094	71.34
306.308	7.85
306.522	54.95
306.736	44.71
306.95	30.38
307.164	112.3
307.379	18.09
307.593	20.14
307.807	124.58
308.021	32.43
308.235	44.71
308.449	-47.44
308.663	79.53
308.877	108.2
309.091	116.39
309.305	112.3
309.519	11.95
309.733	32.43
309.947	-41.3
310.161	83.63
310.374	44.71
310.588	122.54
310.802	40.62
311.016	-6.49
311.23	85.67
311.444	79.53
311.658	59.05
311.872	95.91
312.085	97.96
312.299	108.2
312.513	93.87
312.727	16.04
312.941	75.43
313.154	9.9
313.368	73.39
313.582	20.14
313.796	75.43
314.009	79.53
314.223	57
314.437	28.33
314.651	11.95
314.864	128.68
315.078	65.19
315.292	79.53
315.505	-18.77
315.719	36.52
315.933	79.53
316.146	28.33
316.36	85.67
316.573	73.39
316.787	57
317.001	63.15
317.214	46.76
317.428	57
317.641	38.57
317.855	48.81
318.068	16.04
318.282	136.87
318.495	181.93
318.709	26.28
318.922	36.52
319.136	102.06
319.349	97.96
319.563	26.28
319.776	38.57
319.99	110.25
320.203	95.91
320.417	69.29
320.63	100.01
320.843	112.3
321.057	16.04
321.27	65.19
321.483	75.43
321.697	163.5
321.91	89.77
322.124	44.71
322.337	57
322.55	81.58
322.763	61.1
322.977	61.1
323.19	16.04
323.403	42.67
323.617	102.06
323.83	59.05
324.043	24.23
324.256	28.33
324.469	48.81
324.683	104.11
324.896	57
325.109	87.72
325.322	-18.77
325.535	40.62
325.748	65.19
325.962	67.24
326.175	85.67
326.388	18.09
326.601	69.29
326.814	91.82
327.027	-12.63
327.24	106.15
327.453	7.85
327.666	97.96
327.879	106.15
328.092	71.34
328.305	5.8
328.518	11.95
328.731	42.67
328.944	20.14
329.157	89.77
329.37	5.8
329.583	122.54
329.796	100.01
330.009	-29.01
330.222	65.19
330.435	104.11
330.648	71.34
330.861	-6.49
331.073	44.71
331.286	61.1
331.499	112.3
331.712	112.3
331.925	75.43
332.138	-12.63
332.35	153.26
332.563	-16.73
332.776	151.21
332.989	52.91
333.202	93.87
333.414	9.9
333.627	91.82
333.84	61.1
334.053	206.5
334.265	11.95
334.478	87.72
334.691	38.57
334.903	79.53
335.116	7.85
335.329	93.87
335.541	95.91
335.754	106.15
335.966	48.81
336.179	71.34
336.392	-0.34
336.604	7.85
336.817	91.82
337.029	69.29
337.242	50.86
337.454	30.38
337.667	34.47
337.88	100.01
338.092	13.99
338.305	120.49
338.517	57
338.729	73.39
338.942	48.81
339.154	-20.82
339.367	32.43
339.579	87.72
339.792	57
340.004	5.8
340.217	40.62
340.429	42.67
340.641	24.23
340.854	65.19
341.066	71.34
341.278	54.95
341.491	200.36
341.703	-6.49
341.915	61.1
342.128	63.15
342.34	59.05
342.552	-45.4
342.764	83.63
342.977	36.52
343.189	91.82
343.401	50.86
343.613	-123.22
343.826	13.99
344.038	-76.12
344.25	63.15
344.462	42.67
344.674	85.67
344.886	65.19
345.099	50.86
345.311	153.26
345.523	26.28
345.735	11.95
345.947	110.25
346.159	7.85
346.371	54.95
346.583	81.58
346.795	163.5
347.007	-16.73
347.219	38.57
347.431	32.43
347.643	143.02
347.855	69.29
348.067	46.76
348.279	63.15
348.491	81.58
348.703	-20.82
348.915	114.34
349.127	22.19
349.339	16.04
349.551	30.38
349.763	97.96
349.975	-6.49
350.187	77.48
350.399	95.91
350.61	57
350.822	22.19
351.034	67.24
351.246	48.81
351.458	61.1
351.669	-8.53
351.881	126.63
352.093	67.24
352.305	157.35
352.517	120.49
352.728	87.72
352.94	97.96
353.152	28.33
353.363	79.53
353.575	77.48
353.787	116.39
353.999	126.63
354.21	143.02
354.422	71.34
354.633	52.91
354.845	124.58
355.057	81.58
355.268	67.24
355.48	110.25
355.692	32.43
355.903	57
356.115	48.81
356.326	-6.49
356.538	124.58
356.749	46.76
356.961	118.44
357.172	52.91
357.384	3.75
357.595	89.77
357.807	114.34
358.018	67.24
358.23	18.09
358.441	147.11
358.653	104.11
358.864	28.33
359.075	-39.25
359.287	63.15
359.498	108.2
359.709	65.19
359.921	3.75
360.132	75.43
360.344	85.67
360.555	22.19
360.766	77.48
360.977	57
361.189	134.82
361.4	71.34
361.611	138.92
361.823	136.87
362.034	75.43
362.245	22.19
362.456	36.52
362.667	69.29
362.879	-2.39
363.09	85.67
363.301	73.39
363.512	114.34
363.723	28.33
363.935	67.24
364.146	112.3
364.357	93.87
364.568	77.48
364.779	34.47
364.99	130.73
365.201	61.1
365.412	102.06
365.623	24.23
365.834	24.23
366.045	59.05
366.256	95.91
366.467	93.87
366.678	89.77
366.889	7.85
367.1	85.67
367.311	71.34
367.522	48.81
367.733	52.91
367.944	124.58
368.155	83.63
368.366	67.24
368.577	85.67
368.788	102.06
368.999	-41.3
369.209	38.57
369.42	122.54
369.631	110.25
369.842	151.21
370.053	67.24
370.264	91.82
370.474	13.99
370.685	77.48
370.896	13.99
371.107	52.91
371.317	122.54
371.528	52.91
371.739	138.92
371.95	-20.82
372.16	69.29
372.371	32.43
372.582	95.91
372.792	75.43
373.003	85.67
373.214	42.67
373.424	77.48
373.635	-12.63
373.846	50.86
374.056	11.95
374.267	46.76
374.477	61.1
374.688	34.47
374.898	11.95
375.109	40.62
375.319	48.81
375.53	89.77
375.74	36.52
375.951	40.62
376.161	65.19
376.372	42.67
376.582	22.19
376.793	81.58
377.003	59.05
377.214	-16.73
377.424	20.14
377.635	136.87
377.845	24.23
378.055	85.67
378.266	34.47
378.476	5.8
378.686	112.3
378.897	67.24
379.107	34.47
379.317	57
379.528	95.91
379.738	116.39
379.948	42.67
380.158	69.29
380.369	59.05
380.579	106.15
380.789	61.1
380.999	126.63
381.21	89.77
381.42	159.4
381.63	9.9
381.84	93.87
382.05	126.63
382.261	85.67
382.471	89.77
382.681	-18.77
382.891	147.11
383.101	57
383.311	-24.92
383.521	75.43
383.731	77.48
383.941	22.19
384.151	50.86
384.361	28.33
384.571	112.3
384.781	112.3
384.991	124.58
385.201	87.72
385.411	87.72
385.621	61.1
385.831	30.38
386.041	100.01
386.251	59.05
386.461	52.91
386.671	93.87
386.881	124.58
387.091	75.43
387.301	118.44
387.511	57
387.72	122.54
387.93	145.06
388.14	3.75
388.35	124.58
388.56	165.54
388.769	126.63
388.979	28.33
389.189	1.71
389.399	40.62
389.609	120.49
389.818	171.69
390.028	91.82
390.238	147.11
390.447	77.48
390.657	77.48
390.867	-0.34
391.076	13.99
391.286	108.2
391.496	108.2
391.705	54.95
391.915	89.77
392.125	106.15
392.334	73.39
392.544	163.5
392.753	128.68
392.963	38.57
393.172	95.91
393.382	26.28
393.591	159.4
393.801	63.15
394.01	138.92
394.22	114.34
394.429	83.63
394.639	48.81
394.848	91.82
395.058	112.3
395.267	93.87
395.477	122.54
395.686	132.78
395.895	194.22
396.105	165.54
396.314	143.02
396.524	89.77
396.733	93.87
396.942	165.54
397.152	143.02
397.361	151.21
397.57	175.78
397.78	143.02
397.989	102.06
398.198	192.17
398.407	89.77
398.617	145.06
398.826	132.78
399.035	24.23
399.244	151.21
399.453	112.3
399.663	149.16
399.872	130.73
400.081	36.52
400.29	118.44
400.499	83.63
400.708	145.06
400.917	112.3
401.127	102.06
401.336	153.26
401.545	175.78
401.754	132.78
401.963	169.64
402.172	81.58
402.381	120.49
402.59	102.06
402.799	151.21
403.008	122.54
403.217	136.87
403.426	235.18
403.635	93.87
403.844	175.78
404.053	104.11
404.262	157.35
404.471	200.36
404.68	179.88
404.888	120.49
405.097	118.44
405.306	143.02
405.515	218.79
405.724	229.03
405.933	212.65
406.142	226.98
406.35	224.94
406.559	140.97
406.768	202.41
406.977	188.07
407.185	247.46
407.394	237.22
407.603	118.44
407.812	247.46
408.02	269.99
408.229	206.5
408.438	243.37
408.646	194.22
408.855	218.79
409.064	220.84
409.272	198.31
409.481	335.53
409.69	300.71
409.898	229.03
410.107	325.29
410.315	327.33
410.524	345.77
410.733	339.62
410.941	323.24
411.15	388.77
411.358	351.91
411.567	388.77
411.775	302.76
411.984	341.67
412.192	476.84
412.401	384.68
412.609	485.03
412.818	454.31
413.026	472.74
413.234	429.73
413.443	460.45
413.651	509.6
413.86	585.38
414.068	597.67
414.276	599.71
414.485	564.9
414.693	628.39
414.901	767.65
415.11	732.83
415.318	700.06
415.526	790.17
415.734	808.61
415.943	773.79
416.151	798.37
416.359	759.46
416.567	808.61
416.776	837.28
416.984	958.11
417.192	1044.12
417.4	1076.89
417.608	923.29
417.817	970.4
418.025	1169.05
418.233	1185.43
418.441	1089.18
418.649	1126.04
418.857	1265.3
419.065	1330.84
419.273	1248.92
419.481	1279.64
419.689	1400.47
419.897	1382.04
420.105	1433.24
420.313	1470.1
420.521	1568.4
420.729	1609.36
420.937	1527.44
421.145	1685.14
421.353	1715.86
421.561	1887.89
421.769	1906.32
421.977	2068.11
422.185	2016.91
422.393	2080.39
422.601	2371.21
422.809	2219.66
423.017	2213.51
423.224	2371.21
423.432	2303.62
423.64	2535.04
423.848	2653.83
424.056	2608.77
424.263	2793.09
424.471	2707.07
424.679	2813.57
424.887	3044.99
425.094	3126.91
425.302	2999.93
425.51	3026.56
425.718	3356.28
425.925	3376.76
426.133	3473.01
426.341	3753.59
426.548	3714.67
426.756	3874.42
426.964	3747.44
427.171	4195.95
427.379	4058.73
427.586	4157.04
427.794	4361.83
428.001	4552.29
428.209	4701.79
428.417	4746.85
428.624	5217.88
428.832	4994.65
429.039	4998.75
429.247	5008.99
429.454	5572.18
429.662	5850.71
429.869	5396.06
430.076	5817.94
430.284	5596.76
430.491	5932.62
430.699	6047.31
430.906	6151.76
431.114	6260.3
431.321	6653.51
431.528	6690.37
431.736	7026.24
431.943	7530.04
432.15	7306.81
432.358	7298.62
432.565	7718.45
432.772	7697.97
432.979	8068.66
433.187	8232.49
433.394	8279.6
433.601	8777.25
433.808	9057.82
434.016	8812.07
434.223	9319.96
434.43	9684.5
434.637	9481.75
434.844	10151.44
435.052	10436.11
435.259	10255.89
435.466	10382.86
435.673	10216.97
435.88	11206.14
436.087	11527.67
436.294	11689.46
436.501	11449.85
436.708	11435.52
436.915	11724.28
437.122	12463.6
437.329	12291.57
437.537	12914.15
437.743	13026.79
437.95	13069.8
438.157	13665.75
438.364	14104.02
438.571	14067.16
438.778	14128.6
438.985	15640
439.192	14763.47
439.399	15371.71
439.606	14765.51
439.813	15945.14
440.02	16682.41
440.227	16543.15
440.433	16192.95
440.64	17028.52
440.847	17005.99
441.054	17407.39
441.261	18484.62
441.467	17921.43
441.674	18630.03
441.881	18957.71
442.088	19117.45
442.294	18789.77
442.501	19522.94
442.708	19924.35
442.914	20209.01
443.121	21593.44
443.328	20837.74
443.534	22705.49
443.741	21654.88
443.948	21394.79
444.154	22938.96
444.361	23383.37
444.568	23358.79
444.774	23074.12
444.981	23457.09
445.187	23819.58
445.394	25097.52
445.6	24573.24
445.807	27153.68
446.013	26256.67
446.22	26320.15
446.426	27223.31
446.633	27782.4
446.839	28806.39
447.046	27596.04
447.252	29215.98
447.459	29017.33
447.665	28951.79
447.871	30350.56
448.078	31499.47
448.284	30151.9
448.491	30784.72
448.697	32218.3
448.903	32838.84
449.11	32816.31
449.316	32439.48
449.522	33090.74
449.728	33760.42
449.935	34051.24
450.141	33856.68
450.347	35024.02
450.553	33977.51
450.76	34188.45
450.966	35464.33
451.172	34892.95
451.378	36170.88
451.584	35204.24
451.791	36140.16
451.997	36064.39
452.203	36146.31
452.409	36674.68
452.615	36252.8
452.821	35396.75
453.027	34645.15
453.233	37080.18
453.44	35402.89
453.646	35525.77
453.852	35671.18
454.058	36410.5
454.264	34815.13
454.47	35972.23
454.676	35398.8
454.882	36385.92
455.088	33221.81
455.294	33756.33
455.5	34471.07
455.705	34921.62
455.911	33510.57
456.117	32666.81
456.323	32246.97
456.529	30543.06
456.735	31868.1
456.941	31272.14
457.147	30461.15
457.352	29426.92
457.558	29680.87
457.764	29715.69
457.97	28779.76
458.176	28224.76
458.381	28108.03
458.587	27067.66
458.793	26858.77
458.999	25625.89
459.204	27434.25
459.41	26475.8
459.616	25001.26
459.821	24927.53
460.027	24640.82
460.233	24577.33
460.438	23219.53
460.644	23242.06
460.85	22422.87
461.055	22109.53
461.261	21488.99
461.466	20360.56
461.672	19742.08
461.878	20991.34
462.083	19529.09
462.289	19393.92
462.494	19107.21
462.7	18181.53
462.905	17743.26
463.111	18474.38
463.316	18576.78
463.522	18120.09
463.727	18062.74
463.932	17937.82
464.138	17610.14
464.343	18054.55
464.549	17415.58
464.754	17915.29
464.959	17720.73
465.165	17593.76
465.37	16928.17
465.575	16328.11
465.781	17141.16
465.986	17386.91
466.191	16528.81
466.397	16246.19
466.602	15535.55
466.807	15996.34
467.012	15928.76
467.218	15998.39
467.423	15674.81
467.628	15855.03
467.833	16471.47
468.038	15932.86
468.244	15275.46
468.449	16061.88
468.654	15658.43
468.859	15281.6
469.064	15447.49
469.269	14751.18
469.474	14894.54
469.679	15093.19
469.885	14792.14
470.09	14585.29
470.295	14968.26
470.5	14501.33
470.705	14691.79
470.91	14331.34
471.115	14099.92
471.32	14327.25
471.525	14314.96
471.73	13817.3
471.935	13792.73
472.139	13348.32
472.344	13581.79
472.549	13522.4
472.754	13200.87
472.959	12983.78
473.164	12670.44
473.369	12666.35
473.574	13086.18
473.778	13000.16
473.983	12809.7
474.188	12623.34
474.393	12316.14
474.598	12328.43
474.802	12191.22
475.007	12023.28
475.212	11996.66
475.417	11415.04
475.621	11689.46
475.826	11582.97
476.031	11466.24
476.235	11290.11
476.44	11554.3
476.645	11001.35
476.849	11230.72
477.054	11144.7
477.259	10876.42
477.463	10890.76
477.668	10829.32
477.872	10706.44
478.077	10454.54
478.282	10192.4
478.486	10067.47
478.691	10153.49
478.895	10083.86
479.1	10030.61
479.304	9967.12
479.509	9686.55
479.713	10085.9
479.918	9756.18
480.122	9444.89
480.326	9692.69
480.531	9879.06
480.735	9725.46
480.94	9795.09
481.144	9852.44
481.348	9258.53
481.553	9453.08
481.757	9178.65
481.961	9463.32
482.166	9532.95
482.37	9367.07
482.574	9307.68
482.778	9297.44
482.983	9440.79
483.187	9168.41
483.391	9391.64
483.595	9326.11
483.8	9285.15
484.004	9168.41
484.208	9399.84
484.412	9416.22
484.616	9344.54
484.821	9377.31
485.025	9188.89
485.229	9299.48
485.433	9311.77
485.637	9305.63
485.841	9418.27
486.045	9252.38
486.249	9223.71
486.453	8998.43
486.657	9209.37
486.861	9184.8
487.065	9053.73
487.269	9223.71
487.473	9209.37
487.677	9281.05
487.881	9432.6
488.085	9279.01
488.289	9381.4
488.493	9393.69
488.697	9369.12
488.901	9457.18
489.105	9031.2
489.309	8973.86
489.512	9481.75
489.716	9436.7
489.92	9446.94
490.124	9156.13
490.328	9584.15
490.531	9455.13
490.735	9575.96
490.939	9569.82
491.143	9186.85
491.346	9565.72
491.55	9721.37
491.754	9655.83
491.958	9711.13
492.161	9596.44
492.365	9664.02
492.569	9709.08
492.772	9868.82
492.976	9770.52
493.18	9899.54
493.383	10034.71
493.587	10040.85
493.79	10165.78
493.994	10020.37
494.197	10278.41
494.401	10116.62
494.605	10450.44
494.808	10530.31
495.012	10397.2
495.215	10534.41
495.419	10628.62
495.622	10706.44
495.825	10653.19
496.029	10667.53
496.232	11064.83
496.436	10632.71
496.639	11283.97
496.843	10784.26
497.046	11273.73
497.249	11501.05
497.453	11560.44
497.656	11486.72
497.859	11578.87
498.063	11554.3
498.266	11933.17
498.469	11779.57
498.673	12004.85
498.876	12260.85
499.079	12254.7
499.282	12447.21
499.485	12973.54
499.689	12791.27
499.892	12731.88
500.095	13088.23
500.298	13180.39
500.501	13125.09
500.705	13481.44
500.908	13522.4
501.111	13583.84
501.314	13848.02
501.517	13964.76
501.72	14081.49
501.923	13979.09
502.126	14357.97
502.329	14663.11
502.532	14634.44
502.735	14941.64
502.938	15230.4
503.141	15044.04
503.344	15302.08
503.547	15508.93
503.75	15721.91
503.953	15932.86
504.156	15861.18
504.359	16139.7
504.562	15865.27
504.765	16594.35
504.968	16686.51
505.17	16950.7
505.373	17081.77
505.576	17468.83
505.779	17501.6
505.982	17616.29
506.185	17773.98
506.387	17845.66
506.59	17821.08
506.793	18306.45
506.996	18425.23
507.198	18992.52
507.401	18638.22
507.604	19008.9
507.807	19404.16
508.009	19336.58
508.212	19545.47
508.415	19565.95
508.617	19715.45
508.82	20118.9
509.022	19936.63
509.225	20706.67
509.428	20536.69
509.63	21013.87
509.833	20753.77
510.035	21482.85
510.238	21370.21
510.44	21783.9
510.643	22035.8
510.845	22275.41
511.048	22252.89
511.25	22373.72
511.453	22744.4
511.655	23344.45
511.858	23016.78
512.06	23377.22
512.262	23233.86
512.465	23453
512.667	24071.48
512.87	24263.99
513.072	24163.64
513.274	24778.03
513.477	24896.81
513.679	25087.28
513.881	25556.26
514.084	25341.22
514.286	25494.82
514.488	25980.19
514.69	26699.03
514.893	26621.2
515.095	26627.35
515.297	27266.31
515.499	26948.88
515.701	27510.02
515.904	27569.41
516.106	27800.83
516.308	28026.11
516.51	28626.17
516.712	28384.51
516.914	28892.4
517.116	29297.9
517.318	29164.78
517.52	29394.15
517.722	29709.54
517.925	29918.43
518.127	30590.17
518.329	30663.89
518.531	30307.55
518.733	31358.16
518.935	31458.51
519.136	31337.68
519.338	32107.71
519.54	31947.97
519.742	32337.09
519.944	32376
520.146	33041.59
520.348	33152.18
520.55	33082.55
520.752	33410.22
520.954	34235.55
521.155	33615.02
521.357	34512.03
521.559	34428.06
521.761	34751.64
521.963	34733.21
522.164	35302.54
522.366	35431.57
522.568	35740.81
522.77	35390.61
522.971	36254.85
523.173	35998.85
523.375	36316.29
523.576	36240.51
523.778	36686.97
523.98	37291.12
524.181	37315.7
524.383	37084.28
524.584	37528.69
524.786	37786.73
524.988	37719.15
525.189	38239.33
525.391	38356.07
525.592	38921.3
525.794	39105.62
525.995	38804.57
526.197	38677.6
526.398	38599.77
526.6	38976.6
526.801	39320.66
527.003	39701.58
527.204	39328.85
527.406	39781.45
527.607	39912.52
527.808	39715.92
528.01	39736.4
528.211	40150.09
528.412	40860.73
528.614	40789.05
528.815	40612.93
529.016	40780.86
529.218	40836.16
529.419	40969.27
529.62	41311.28
529.822	41124.92
530.023	41008.18
530.224	41323.57
530.425	41045.05
530.626	40913.98
530.828	41434.16
531.029	41739.31
531.23	41235.51
531.431	41946.15
531.632	42177.58
531.833	41905.2
532.035	42355.75
532.236	42146.86
532.437	42376.23
532.638	42214.44
532.839	41978.92
533.04	42191.91
533.241	41950.25
533.442	42834.97
533.643	42400.8
533.844	42402.85
534.045	42413.09
534.246	41878.57
534.447	42372.13
534.648	42392.61
534.849	42681.38
535.05	42363.94
535.251	42841.12
535.451	42251.3
535.652	42671.14
535.853	42257.45
536.054	42402.85
536.255	42597.41
536.456	42118.18
536.657	42961.95
536.857	42116.14
537.058	42226.73
537.259	42873.88
537.46	42751.01
537.66	42327.08
537.861	42701.86
538.062	42150.95
538.263	42587.17
538.463	42069.03
538.664	42134.57
538.865	42662.94
539.065	42970.14
539.266	41921.58
539.466	42882.08
539.667	42161.19
539.868	42834.97
540.068	42900.51
540.269	42302.5
540.469	42562.59
540.67	42306.6
540.87	42458.15
541.071	42351.65
541.271	42517.54
541.472	42232.87
541.672	42198.05
541.873	42249.25
542.073	41856.04
542.274	42576.93
542.474	42306.6
542.675	42034.22
542.875	42644.51
543.075	42447.91
543.276	41774.13
543.476	42619.94
543.676	42253.35
543.877	42523.68
544.077	42300.45
544.277	42179.62
544.478	41579.57
544.678	42394.66
544.878	42265.64
545.078	42824.73
545.279	42232.87
545.479	42341.41
545.679	42550.31
545.879	42247.21
546.079	42337.32
546.28	42325.03
546.48	41720.88
546.68	42169.38
546.88	42419.24
547.08	42169.38
547.28	41944.11
547.48	41608.24
547.68	42157.1
547.88	42077.22
548.081	42558.5
548.281	42005.55
548.481	41927.72
548.681	42220.58
548.881	42071.08
549.081	42241.06
549.28	41813.04
549.48	42593.31
549.68	41616.43
549.88	42275.88
550.08	41823.28
550.28	42116.14
550.48	41862.19
550.68	42128.42
550.88	41770.03
551.08	41739.31
551.279	41901.1
551.479	41772.08
551.679	41731.12
551.879	41516.08
552.079	41894.96
552.278	41686.06
552.478	41630.77
552.678	41706.54
552.878	41507.89
553.077	41593.9
553.277	41235.51
553.477	42071.08
553.676	41518.13
553.876	41303.09
554.076	41444.4
554.275	41227.32
554.475	40999.99
554.674	41053.24
554.874	41002.04
555.074	41012.28
555.273	41452.59
555.473	41610.29
555.672	41020.47
555.872	41579.57
556.071	41538.61
556.271	41567.28
556.47	41159.73
556.67	40739.9
556.869	41022.52
557.068	41288.76
557.268	41057.34
557.467	40774.72
557.667	40959.03
557.866	40733.76
558.065	40848.44
558.265	40803.39
558.464	40645.69
558.663	40969.27
558.863	40166.47
559.062	40780.86
559.261	40121.41
559.461	40756.28
559.66	39928.91
559.859	40125.51
560.058	39881.8
560.258	40229.96
560.457	39736.4
560.656	40145.99
560.855	40154.18
561.054	40105.03
561.253	39347.28
561.453	39945.29
561.652	39693.39
561.851	39971.91
562.05	39410.77
562.249	39431.25
562.448	39720.01
562.647	39416.91
562.846	39124.05
563.045	39273.56
563.244	38806.62
563.443	39365.71
563.642	38900.83
563.841	38960.22
564.04	39093.33
564.239	39066.71
564.438	38593.63
564.637	39101.53
564.836	39005.27
565.035	38014.05
565.234	38765.66
565.432	38216.8
565.631	38055.01
565.83	38501.47
566.029	38102.12
566.228	37995.62
566.427	38007.91
566.625	37817.45
566.824	37172.34
567.023	37856.36
567.222	36985.97
567.42	37751.91
567.619	37543.02
567.818	37643.37
568.016	37127.28
568.215	37360.75
568.414	37203.06
568.612	37377.14
568.811	37227.63
569.01	37233.78
569.208	36457.6
569.407	37086.32
569.605	36242.56
569.804	36754.55
570.002	36523.13
570.201	36623.48
570.4	36392.06
570.598	36025.48
570.797	36242.56
570.995	36134.02
571.193	35640.46
571.392	36146.31
571.59	35556.49
571.789	35742.86
571.987	35669.13
572.186	35292.3
572.384	35310.74
572.582	35433.61
572.781	35277.97
572.979	35130.51
573.177	35300.5
573.376	35480.72
573.574	34911.38
573.772	35468.43
573.971	34876.57
574.169	34964.63
574.367	34311.33
574.565	34868.37
574.763	34612.38
574.962	34378.91
575.16	33725.61
575.358	34450.59
575.556	33703.08
575.754	34329.76
575.952	33995.94
576.151	33911.97
576.349	33752.23
576.547	33416.36
576.745	33946.79
576.943	33838.25
577.141	33698.98
577.339	33420.46
577.537	33225.9
577.735	33191.09
577.933	33027.25
578.131	33246.38
578.329	33115.31
578.527	32566.46
578.725	33207.47
578.923	33000.63
579.121	32464.06
579.319	32285.89
579.516	32763.06
579.714	32566.46
579.912	32210.11
580.11	32099.52
580.308	32324.8
580.506	32189.63
580.704	31653.06
580.901	31827.14
581.099	31722.69
581.297	32017.6
581.495	31507.66
581.692	31675.59
581.89	31669.45
582.088	31855.81
582.285	31278.29
582.483	31831.24
582.681	31681.74
582.878	31087.82
583.076	30731.48
583.274	31157.46
583.471	30850.26
583.669	31089.87
583.866	30663.89
584.064	31122.64
584.262	30498.01
584.459	30397.66
584.657	30346.46
584.854	30526.68
585.052	30045.41
585.249	30221.53
585.447	30276.83
585.644	29877.47
585.841	30072.03
586.039	30131.42
586.236	29615.33
586.434	30131.42
586.631	29496.55
586.828	29465.83
587.026	29873.38
587.223	29287.66
587.42	29232.36
587.618	29185.26
587.815	29117.68
588.012	29084.91
588.21	28787.96
588.407	29357.29
588.604	28892.4
588.801	28646.65
588.999	28570.87
589.196	28515.58
589.393	28261.63
589.59	28792.05
589.787	28261.63
589.984	28134.65
590.182	28165.37
590.379	28189.95
590.576	28062.97
590.773	28130.56
590.97	27962.62
591.167	28060.93
591.364	27534.6
591.561	27610.37
591.758	27299.08
591.955	27624.71
592.152	27661.57
592.349	27487.5
592.546	27450.63
592.743	27374.86
592.94	26965.26
593.137	27294.99
593.334	27102.48
593.531	26500.37
593.727	26633.49
593.924	26776.85
594.121	26752.27
594.318	26905.87
594.515	26402.07
594.712	26662.16
594.908	26586.39
595.105	26205.47
595.302	26330.39
595.499	26774.8
595.696	26250.52
595.892	25681.19
596.089	26117.4
596.286	26029.34
596.482	25505.06
596.679	25765.15
596.876	25754.91
597.072	25400.62
597.269	25310.5
597.466	25029.93
597.662	24911.15
597.859	25138.48
598.055	25115.95
598.252	24921.39
598.448	25187.63
598.645	24999.21
598.841	24808.75
599.038	24730.93
599.234	25105.71
599.431	24360.25
599.627	24837.42
599.824	24749.36
600.02	24233.27
600.217	24491.32
600.413	24261.94
600.609	23897.41
600.806	24214.84
601.002	24204.6
601.198	24053.05
601.395	23852.35
601.591	23782.72
601.787	23860.54
601.984	23680.32
602.18	23721.28
602.376	23579.97
602.572	23594.31
602.769	23465.28
602.965	23258.44
603.161	23463.24
603.357	23479.62
603.553	23301.45
603.75	23012.68
603.946	22652.24
604.142	22818.13
604.338	22854.99
604.534	22723.92
604.73	22801.74
604.926	22455.64
605.122	22797.65
605.318	22592.85
605.514	22285.65
605.71	22574.42
605.906	22453.59
606.102	22472.02
606.298	22328.66
606.494	22291.8
606.69	22119.77
606.886	22218.07
607.082	22013.27
607.278	22078.81
607.474	21796.19
607.67	22013.27
607.866	21544.29
608.062	22115.67
608.257	21452.13
608.453	21718.37
608.649	21536.1
608.845	21609.82
609.041	21546.34
609.236	21716.32
609.432	21333.35
609.628	21474.66
609.824	21198.18
610.019	21194.09
610.215	21202.28
610.411	21230.95
610.606	21013.87
610.802	21230.95
610.998	21167.46
611.193	21222.76
611.389	21013.87
611.584	21054.83
611.78	20751.73
611.976	20829.55
612.171	20761.97
612.367	20708.72
612.562	20637.04
612.758	20344.18
612.953	20260.21
613.149	20577.65
613.344	20354.42
613.539	20893.04
613.735	20522.35
613.93	20479.35
614.126	20145.53
614.321	20479.35
614.517	20448.63
614.712	20290.93
614.907	20104.57
615.103	20483.44
615.298	19993.98
615.493	20010.36
615.688	19744.13
615.884	20440.43
616.079	19918.2
616.274	19987.83
616.47	19727.74
616.665	19965.31
616.86	19621.25
617.055	19744.13
617.25	19670.4
617.445	20014.46
617.641	19172.74
617.836	19600.77
618.031	19316.1
618.226	19395.97
618.421	19553.66
618.616	19445.12
618.811	18906.51
619.006	19453.31
619.201	18922.89
619.396	19211.65
619.591	18961.8
619.786	19084.68
619.981	18888.07
620.176	19131.78
620.371	18599.31
620.566	18625.93
620.761	18533.78
620.956	18484.62
621.151	18339.22
621.346	18355.6
621.541	18056.6
621.735	18414.99
621.93	17948.06
622.125	18007.45
622.32	17558.94
622.515	17882.52
622.709	17657.25
622.904	17716.64
623.099	17694.11
623.294	17683.87
623.488	17620.38
623.683	17657.25
623.878	17194.4
624.072	17284.51
624.267	17102.25
624.462	17284.51
624.656	16881.07
624.851	17116.58
625.046	16905.64
625.24	16684.46
625.435	16594.35
625.629	16450.99
625.824	16649.64
626.018	16395.7
626.213	16057.78
626.407	16131.51
626.602	15979.96
626.796	16106.93
626.991	15848.89
627.185	15758.78
627.38	15627.71
627.574	15633.85
627.768	15650.24
627.963	15515.07
628.157	15605.18
628.352	15349.18
628.546	15187.39
628.74	15152.58
628.935	15005.13
629.129	14982.6
629.323	14779.85
629.517	14900.68
629.712	14749.13
629.906	14427.6
630.1	14470.61
630.294	14800.33
630.489	14534.09
630.683	14536.14
630.877	14288.34
631.071	14142.93
631.265	14372.3
631.459	14022.1
631.653	14018
631.848	13938.13
632.042	13706.71
632.236	13843.93
632.43	13714.91
632.624	13829.59
632.818	13632.99
633.012	13420
633.206	13370.85
633.4	13585.88
633.594	13108.71
633.788	13161.95
633.982	13151.71
634.176	13268.45
634.369	12983.78
634.563	12996.07
634.757	12940.77
634.951	13006.31
635.145	12756.46
635.339	12725.74
635.533	12623.34
635.726	12629.48
635.92	12496.36
636.114	12615.15
636.308	12187.12
636.501	12332.53
636.695	12092.91
636.889	12365.29
637.083	12111.35
637.276	11910.64
637.47	11902.45
637.664	11818.49
637.857	11904.5
638.051	11838.97
638.244	11816.44
638.438	11757.05
638.632	11820.53
638.825	11507.2
639.019	11359.74
639.212	11243.01
639.406	11374.08
639.599	11410.94
639.793	11286.01
639.986	11103.75
640.18	11111.94
640.373	11195.9
640.567	10962.44
640.76	11173.38
640.954	10956.29
641.147	10784.26
641.34	10767.88
641.534	10808.84
641.727	10677.77
641.92	10835.46
642.114	10462.73
642.307	10374.67
642.5	10507.79
642.694	10442.25
642.887	10368.52
643.08	10395.15
643.273	10264.08
643.467	10071.57
643.66	9967.12
643.853	9975.31
644.046	10030.61
644.239	9913.88
644.432	9829.91
644.626	9721.37
644.819	9784.85
645.012	9866.77
645.205	9778.71
645.398	9537.05
645.591	9715.22
645.784	9508.38
645.977	9354.78
646.17	9391.64
646.363	9256.48
646.556	9334.3
646.749	9260.57
646.942	9254.43
647.135	9287.2
647.328	9121.31
647.521	9231.9
647.714	9045.54
647.907	9217.57
648.099	8893.99
648.292	9145.89
648.485	9094.69
648.678	8742.44
648.871	8859.17
649.064	8787.49
649.256	8783.4
649.449	8449.58
649.642	8789.54
649.835	8470.06
650.027	8549.93
650.22	8611.37
650.413	8252.97
650.605	8527.4
650.798	8414.76
650.991	8232.49
651.183	8388.14
651.376	8330.8
651.568	8240.68
651.761	8189.49
651.954	8087.09
652.146	8044.08
652.339	8085.04
652.531	8005.17
652.724	7863.86
652.916	7728.69
653.109	7716.4
653.301	7775.8
653.494	8001.07
653.686	7724.6
653.879	7781.94
654.071	7687.73
654.263	7683.64
654.456	7706.17
654.648	7693.88
654.84	7632.44
655.033	7335.48
655.225	7659.06
655.417	7327.29
655.61	7466.55
655.802	7407.16
655.994	7335.48
656.186	7259.71
656.379	7300.67
656.571	7247.42
656.763	7077.44
656.955	6979.14
657.148	7153.21
657.34	7323.19
657.532	7038.53
657.724	7003.71
657.916	6960.7
658.108	7028.29
658.3	6846.02
658.492	6964.8
658.684	6786.63
658.876	6919.75
659.068	6577.73
659.26	6774.34
659.452	6542.92
659.644	6803.01
659.836	6766.15
660.028	6766.15
660.22	6438.47
660.412	6555.21
660.604	6518.34
660.796	6536.77
660.988	6516.3
661.18	6362.7
661.372	6377.03
661.563	6413.9
661.755	6340.17
661.947	6268.49
662.139	6317.64
662.331	6258.25
662.522	6239.82
662.714	6153.8
662.906	6162
663.097	6153.8
663.289	6078.03
663.481	6108.75
663.673	6155.85
663.864	6004.3
664.056	5983.82
664.247	6039.12
664.439	6049.36
664.631	6030.93
664.822	6090.32
665.014	5752.4
665.205	5955.15
665.397	5668.44
665.588	5795.41
665.78	5842.51
665.971	5901.9
666.163	5787.22
666.354	5774.93
666.546	5693.01
666.737	5639.76
666.929	5721.68
667.12	5590.61
667.311	5819.99
667.503	5455.45
667.694	5547.61
667.885	5518.93
668.077	5418.58
668.268	5535.32
668.459	5426.78
668.651	5291.61
668.842	5545.56
669.033	5412.44
669.224	5353.05
669.416	5391.96
669.607	5396.06
669.798	5373.53
669.989	5275.23
670.18	5256.79
670.371	5383.77
670.563	5158.49
670.754	5303.9
670.945	5312.09
671.136	5262.94
671.327	5199.45
671.518	5099.1
671.709	5201.5
671.9	5297.75
672.091	5301.85
672.282	5115.48
672.473	4904.54
672.664	5119.58
672.855	5074.53
673.046	4976.22
673.237	5060.19
673.428	4945.5
673.619	5129.82
673.809	5021.28
674	4992.61
674.191	4986.46
674.382	4677.22
674.573	5140.06
674.764	4933.22
674.954	5004.89
675.145	4806.24
675.336	4953.7
675.527	4959.84
675.717	5043.81
675.908	4867.68
676.099	4916.83
676.289	4892.26
676.48	4970.08
676.671	4812.39
676.861	4896.35
677.052	4963.93
677.243	4775.52
677.433	4812.39
677.624	4742.75
677.814	4888.16
678.005	4882.02
678.195	4748.9
678.386	4744.8
678.576	4755.04
678.767	4705.89
678.957	4830.82
679.148	4865.63
679.338	4968.03
679.529	4824.67
679.719	4740.71
679.909	4908.64
680.1	4798.05
680.29	4804.19
680.481	4636.26
680.671	4941.41
680.861	4763.23
681.052	4841.06
681.242	4755.04
681.432	4796
681.622	4740.71
681.813	4666.98
682.003	4689.51
682.193	4623.97
682.383	4789.86
682.573	4656.74
682.764	4730.47
682.954	4806.24
683.144	4757.09
683.334	4640.36
683.524	4650.6
683.714	4714.08
683.904	4685.41
684.094	4617.83
684.284	4673.12
684.474	4841.06
684.664	4652.64
684.854	4587.11
685.044	4535.91
685.234	4394.6
685.424	4611.68
685.614	4509.29
685.804	4628.07
685.994	4701.79
686.184	4673.12
686.374	4666.98
686.564	4402.79
686.753	4494.95
686.943	4329.06
687.133	4197.99
687.323	4312.68
687.513	4499.05
687.702	4255.34
687.892	4304.49
688.082	4347.5
688.272	4308.58
688.461	4294.25
688.651	4478.57
688.841	4200.04
689.03	4138.6
689.22	4232.81
689.41	4206.19
689.599	4169.32
689.789	4144.75
689.979	4060.78
690.168	4109.93
690.358	4183.66
690.547	4073.07
690.737	4046.44
690.926	4189.8
691.116	3892.85
691.305	4050.54
691.495	3825.26
691.684	3954.29
691.874	3929.71
692.063	3933.81
692.252	3927.66
692.442	4005.49
692.631	3788.4
692.82	3794.54
693.01	3931.76
693.199	3845.74
693.388	3817.07
693.578	3835.5
693.767	3733.11
693.956	3782.26
694.146	3577.46
694.335	3669.62
694.524	3794.54
694.713	3714.67
694.902	3755.63
695.092	3733.11
695.281	3706.48
695.47	3634.8
695.659	3561.08
695.848	3565.17
696.037	3561.08
696.226	3774.07
696.415	3550.84
696.604	3683.95
696.793	3661.43
696.982	3585.65
697.171	3632.76
697.36	3571.32
697.549	3579.51
697.738	3499.64
697.927	3511.93
698.116	3640.95
698.305	3442.29
698.494	3583.6
698.683	3597.94
698.872	3495.54
699.061	3518.07
699.25	3438.2
699.438	3522.16
699.627	3380.86
699.816	3528.31
700.005	3425.91
700.193	3389.05
700.382	3446.39
700.571	3487.35
700.76	3489.4
700.948	3528.31
701.137	3419.77
701.326	3481.21
701.514	3411.57
701.703	3499.64
701.892	3446.39
702.08	3509.88
702.269	3559.03
702.457	3542.64
702.646	3489.4
702.834	3411.57
703.023	3298.94
703.212	3610.23
703.4	3507.83
703.589	3364.47
703.777	3436.15
703.965	3477.11
704.154	3364.47
704.342	3382.9
704.531	3456.63
704.719	3462.77
704.907	3495.54
705.096	3290.74
705.284	3436.15
705.472	3419.77
705.661	3438.2
705.849	3518.07
706.037	3444.34
706.226	3389.05
706.414	3538.55
706.602	3454.58
706.79	3546.74
706.979	3358.33
707.167	3556.98
707.355	3509.88
707.543	3475.06
707.731	3452.53
707.919	3587.7
708.107	3550.84
708.296	3481.21
708.484	3337.85
708.672	3477.11
708.86	3663.47
709.048	3589.75
709.236	3454.58
709.424	3585.65
709.612	3511.93
709.8	3497.59
709.988	3466.87
710.176	3475.06
710.364	3538.55
710.551	3362.42
710.739	3493.49
710.927	3473.01
711.115	3446.39
711.303	3460.73
711.491	3612.28
711.679	3610.23
711.866	3489.4
712.054	3479.16
712.242	3548.79
712.43	3585.65
712.617	3460.73
712.805	3559.03
712.993	3513.97
713.181	3350.14
713.368	3585.65
713.556	3505.78
713.744	3550.84
713.931	3593.84
714.119	3651.19
714.306	3427.96
714.494	3595.89
714.682	3640.95
714.869	3665.52
715.057	3747.44
715.244	3628.66
715.432	3559.03
715.619	3599.99
715.807	3604.08
715.994	3542.64
716.182	3657.33
716.369	3579.51
716.556	3677.81
716.744	3501.69
716.931	3614.32
717.119	3620.47
717.306	3573.36
717.493	3622.52
717.681	3651.19
717.868	3749.49
718.055	3751.54
718.242	3700.34
718.43	3602.04
718.617	3581.56
718.804	3763.83
718.991	3794.54
719.179	3716.72
719.366	3634.8
719.553	3675.76
719.74	3665.52
719.927	3735.15
720.114	3681.91
720.301	3581.56
720.488	3677.81
720.676	3722.87
720.863	3702.39
721.05	3659.38
721.237	3747.44
721.424	3726.96
721.611	3720.82
721.798	3559.03
721.985	3739.25
722.172	3683.95
722.358	3702.39
722.545	3671.67
722.732	3741.3
722.919	3757.68
723.106	3698.29
723.293	3896.94
723.48	3724.91
723.667	3751.54
723.853	3847.79
724.04	3927.66
724.227	3798.64
724.414	3806.83
724.6	3655.28
724.787	3698.29
724.974	3655.28
725.161	3706.48
725.347	3632.76
725.534	3823.22
725.72	3620.47
725.907	3896.94
726.094	3874.42
726.28	3739.25
726.467	3749.49
726.653	3772.02
726.84	3661.43
727.027	3870.32
727.213	3681.91
727.4	3767.92
727.586	3841.65
727.773	3757.68
727.959	3788.4
728.145	3855.98
728.332	3681.91
728.518	3690.1
728.705	3815.02
728.891	3780.21
729.077	3860.08
729.264	3722.87
729.45	3862.13
729.636	3923.57
729.823	3700.34
730.009	3862.13
730.195	3802.74
730.382	3872.37
730.568	3798.64
730.754	3812.98
730.94	3751.54
731.126	3782.26
731.313	3860.08
731.499	3905.14
731.685	3878.51
731.871	3888.75
732.057	3855.98
732.243	3837.55
732.429	3853.94
732.615	3845.74
732.801	3780.21
732.987	3915.37
733.173	3833.46
733.359	3792.5
733.545	3927.66
733.731	3698.29
733.917	3731.06
734.103	3806.83
734.289	3825.26
734.475	3643
734.661	3946.09
734.847	3860.08
735.033	3821.17
735.219	3733.11
735.404	3722.87
735.59	3780.21
735.776	3759.73
735.962	3876.46
736.148	3815.02
736.333	3722.87
736.519	3741.3
736.705	3817.07
736.89	3700.34
737.076	3692.15
737.262	3716.72
737.447	3669.62
737.633	3616.37
737.819	3698.29
738.004	3626.61
738.19	3858.03
738.375	3741.3
738.561	3780.21
738.747	3692.15
738.932	3636.85
739.118	3823.22
739.303	3616.37
739.489	3704.43
739.674	3722.87
739.859	3663.47
740.045	3720.82
740.23	3667.57
740.416	3530.36
740.601	3665.52
740.786	3726.96
740.972	3597.94
741.157	3638.9
741.342	3530.36
741.528	3528.31
741.713	3579.51
741.898	3608.18
742.084	3559.03
742.269	3626.61
742.454	3542.64
742.639	3485.3
742.824	3470.97
743.01	3559.03
743.195	3579.51
743.38	3475.06
743.565	3475.06
743.75	3460.73
743.935	3391.09
744.12	3487.35
744.305	3384.95
744.49	3331.7
744.675	3249.79
744.86	3327.61
745.045	3411.57
745.23	3225.21
745.415	3223.16
745.6	3413.62
745.785	3190.39
745.97	3276.41
746.155	3284.6
746.34	3309.18
746.525	3337.85
746.71	3198.59
746.895	3145.34
747.079	3210.87
747.264	3059.32
747.449	3110.52
747.634	3102.33
747.819	3141.24
748.003	3112.57
748.188	3081.85
748.373	3018.36
748.557	3092.09
748.742	3057.28
748.927	3049.08
749.111	2999.93
749.296	2963.07
749.481	2905.73
749.665	2875.01
749.85	2864.77
750.034	2778.75
750.219	2887.29
750.404	2875.01
750.588	2899.58
750.773	2743.94
750.957	2731.65
751.141	2793.09
751.326	2774.66
751.51	2682.5
751.695	2768.51
751.879	2715.27
752.064	2602.63
752.248	2604.67
752.432	2576
752.617	2602.63
752.801	2639.49
752.985	2393.73
753.17	2578.05
753.354	2496.13
753.538	2453.13
753.722	2446.98
753.907	2428.55
754.091	2518.66
754.275	2506.37
754.459	2406.02
754.643	2475.65
754.828	2512.52
755.012	2356.87
755.196	2279.05
755.38	2299.53
755.564	2363.01
755.748	2334.34
755.932	2281.1
756.116	2207.37
756.3	2348.68
756.484	2207.37
756.668	2225.8
756.852	2199.18
757.036	2174.6
757.22	2252.42
757.404	2109.07
757.588	2184.84
757.772	2119.31
757.956	2123.4
758.14	1945.23
758.323	2047.63
758.507	2145.93
758.691	2070.16
758.875	2035.34
759.059	2047.63
759.242	2035.34
759.426	1984.14
759.61	2059.92
759.794	1973.9
759.977	2070.16
760.161	2129.55
760.345	2010.76
760.528	2031.24
760.712	1971.85
760.895	1937.04
761.079	1959.56
761.263	1863.31
761.446	1861.26
761.63	1857.17
761.813	1916.56
761.997	1842.83
762.18	1904.27
762.364	1894.03
762.547	1750.67
762.731	1767.06
762.914	1838.73
763.098	1775.25
763.281	1818.25
763.464	1818.25
763.648	1785.49
763.831	1836.69
764.015	1724.05
764.198	1797.78
764.381	1756.82
764.564	1717.9
764.748	1650.32
764.931	1658.51
765.114	1617.55
765.297	1711.76
765.481	1635.99
765.664	1603.22
765.847	1715.86
766.03	1635.99
766.213	1715.86
766.397	1707.66
766.58	1603.22
766.763	1556.11
766.946	1498.77
767.129	1580.69
767.312	1572.5
767.495	1535.64
767.678	1556.11
767.861	1531.54
768.044	1500.82
768.227	1644.18
768.41	1562.26
768.593	1662.61
768.776	1521.3
768.959	1556.11
769.142	1654.42
769.324	1523.35
769.507	1382.04
769.69	1459.86
769.873	1416.85
770.056	1570.45
770.239	1570.45
770.421	1568.4
770.604	1472.15
770.787	1461.91
770.97	1347.22
771.152	1474.2
771.335	1447.57
771.518	1400.47
771.7	1457.81
771.883	1457.81
772.066	1320.6
772.248	1343.13
772.431	1355.41
772.613	1296.02
772.796	1361.56
772.978	1250.97
773.161	1357.46
773.343	1248.92
773.526	1316.5
773.708	1273.5
773.891	1226.39
774.073	1304.21
774.256	1353.37
774.438	1267.35
774.621	1253.02
774.803	1365.65
774.985	1128.09
775.168	1328.79
775.35	1156.76
775.532	1271.45
775.715	1226.39
775.897	1228.44
776.079	1203.86
776.261	1187.48
776.444	1257.11
776.626	1150.62
776.808	1179.29
776.99	1115.8
777.173	1121.95
777.355	1181.34
777.537	1093.27
777.719	1099.42
777.901	1083.03
778.083	1177.24
778.265	1023.64
778.447	1136.28
778.629	1074.84
778.811	1035.93
778.993	1058.46
779.175	1072.79
779.357	982.68
779.539	908.96
779.721	974.49
779.903	992.92
780.085	964.25
780.267	970.4
780.449	929.44
780.631	962.2
780.812	1015.45
780.994	947.87
781.176	951.96
781.358	931.48
781.54	884.38
781.721	997.02
781.903	1019.55
782.085	884.38
782.267	933.53
782.448	870.05
782.63	833.18
782.812	847.52
782.993	880.29
783.175	872.09
783.357	855.71
783.538	868
783.72	755.36
783.901	784.03
784.083	890.53
784.264	734.88
784.446	732.83
784.627	671.39
784.809	810.65
784.99	700.06
785.172	851.61
785.353	822.94
785.535	732.83
785.716	761.5
785.897	677.54
786.079	816.8
786.26	726.69
786.441	708.26
786.623	720.54
786.804	556.71
786.985	794.27
787.167	700.06
787.348	667.3
787.529	716.45
787.71	743.07
787.891	736.93
788.073	614.05
788.254	679.58
788.435	736.93
788.616	609.95
788.797	642.72
788.978	675.49
789.159	601.76
789.34	710.3
789.522	544.42
789.703	589.47
789.884	562.85
790.065	560.8
790.246	628.39
790.427	638.62
790.607	558.75
790.788	618.15
790.969	560.8
791.15	530.08
791.331	577.19
791.512	495.27
791.693	532.13
791.874	566.95
792.054	695.97
792.235	579.23
792.416	542.37
792.597	429.73
792.778	544.42
792.958	591.52
793.139	544.42
793.32	597.67
793.5	513.7
793.681	503.46
793.862	566.95
794.042	497.32
794.223	497.32
794.404	462.5
794.584	411.3
794.765	460.45
794.945	499.36
795.126	491.17
795.306	489.12
795.487	476.84
795.667	456.36
795.848	497.32
796.028	417.44
796.209	497.32
796.389	493.22
796.57	501.41
796.75	542.37
796.93	448.16
797.111	425.64
797.291	464.55
797.471	542.37
797.652	347.81
797.832	396.96
798.012	423.59
798.192	388.77
798.373	464.55
798.553	388.77
798.733	458.4
798.913	421.54
799.093	396.96
799.274	454.31
799.454	435.88
799.634	521.89
799.814	495.27
799.994	401.06
800.174	356.01
800.354	425.64
800.534	259.75
800.714	417.44
800.894	331.43
801.074	380.58
801.254	415.4
801.434	446.12
801.614	425.64
801.794	323.24
801.974	1414.81
802.154	356.01
802.334	396.96
802.514	353.96
802.693	267.94
802.873	284.33
803.053	427.68
803.233	368.29
803.413	337.57
803.592	288.42
803.772	335.53
803.952	401.06
804.131	356.01
804.311	394.92
804.491	423.59
804.67	325.29
804.85	343.72
805.03	388.77
805.209	384.68
805.389	347.81
805.568	286.37
805.748	331.43
805.928	325.29
806.107	331.43
806.287	380.58
806.466	282.28
806.646	290.47
806.825	388.77
807.004	335.53
807.184	384.68
807.363	368.29
807.543	374.44
807.722	282.28
807.901	370.34
808.081	347.81
808.26	177.83
808.439	306.85
808.619	335.53
808.798	255.65
808.977	269.99
809.156	331.43
809.336	325.29
809.515	315.05
809.694	274.09
809.873	274.09
810.052	175.78
810.231	347.81
810.411	343.72
810.59	274.09
810.769	161.45
810.948	245.41
811.127	208.55
811.306	243.37
811.485	241.32
811.664	329.38
811.843	257.7
812.022	269.99
812.201	222.89
812.38	167.59
812.559	274.09
812.737	335.53
812.916	296.61
813.095	224.94
813.274	306.85
813.453	241.32
813.632	298.66
813.811	321.19
813.989	138.92
814.168	292.52
814.347	204.46
814.526	206.5
814.704	226.98
814.883	269.99
815.062	177.83
815.24	267.94
815.419	216.74
815.598	243.37
815.776	186.02
815.955	274.09
816.133	167.59
816.312	226.98
816.49	233.13
816.669	229.03
816.847	186.02
817.026	222.89
817.204	241.32
817.383	265.89
817.561	206.5
817.74	290.47
817.918	259.75
818.097	165.54
818.275	120.49
818.453	243.37
818.632	239.27
818.81	202.41
818.988	151.21
819.167	122.54
819.345	143.02
819.523	134.82
819.701	216.74
819.879	214.7
820.058	233.13
820.236	155.3
820.414	186.02
820.592	212.65
820.77	233.13
820.948	226.98
821.127	196.26
821.305	220.84
821.483	159.4
821.661	249.51
821.839	165.54
822.017	130.73
822.195	192.17
822.373	188.07
822.551	177.83
822.729	183.98
822.907	204.46
823.085	149.16
823.262	167.59
823.44	171.69
823.618	167.59
823.796	175.78
823.974	122.54
824.152	134.82
824.329	175.78
824.507	194.22
824.685	188.07
824.863	161.45
825.04	163.5
825.218	171.69
825.396	171.69
825.574	161.45
825.751	83.63
825.929	290.47
826.107	112.3
826.284	147.11
826.462	249.51
826.639	175.78
826.817	143.02
826.994	124.58
827.172	122.54
827.349	179.88
827.527	134.82
827.704	110.25
827.882	245.41
828.059	173.74
828.237	112.3
828.414	253.61
828.591	34.47
828.769	253.61
828.946	120.49
829.124	210.6
829.301	175.78
829.478	122.54
829.655	110.25
829.833	167.59
830.01	65.19
830.187	173.74
830.364	134.82
830.542	173.74
830.719	220.84
830.896	110.25
831.073	32.43
831.25	104.11
831.427	204.46
831.604	85.67
831.782	97.96
831.959	126.63
832.136	69.29
832.313	208.55
832.49	143.02
832.667	167.59
832.844	116.39
833.021	165.54
833.198	132.78
833.374	126.63
833.551	79.53
833.728	145.06
833.905	179.88
834.082	93.87
834.259	153.26
834.436	167.59
834.612	71.34
834.789	134.82
834.966	188.07
835.143	102.06
835.319	149.16
835.496	87.72
835.673	143.02
835.85	163.5
836.026	130.73
836.203	30.38
836.38	61.1
836.556	7.85
836.733	104.11
836.909	126.63
837.086	7.85
837.262	63.15
837.439	118.44
837.616	85.67
837.792	120.49
837.968	138.92
838.145	65.19
838.321	67.24
838.498	114.34
838.674	183.98
838.851	126.63
839.027	73.39
839.203	85.67
839.38	110.25
839.556	44.71
839.732	114.34
839.909	108.2
840.085	143.02
840.261	102.06
840.437	136.87
840.614	138.92
840.79	128.68
840.966	102.06
841.142	61.1
841.318	83.63
841.494	165.54
841.671	93.87
841.847	11.95
842.023	42.67
842.199	57
842.375	208.55
842.551	34.47
842.727	-33.11
842.903	165.54
843.079	28.33
843.255	163.5
843.431	126.63
843.607	87.72
843.783	-10.58
843.959	100.01
844.134	102.06
844.31	128.68
844.486	67.24
844.662	61.1
844.838	112.3
845.013	83.63
845.189	59.05
845.365	38.57
845.541	77.48
845.716	87.72
845.892	124.58
846.068	61.1
846.244	26.28
846.419	81.58
846.595	112.3
846.77	130.73
846.946	57
847.122	89.77
847.297	5.8
847.473	143.02
847.648	48.81
847.824	48.81
847.999	73.39
848.175	63.15
848.35	95.91
848.526	112.3
848.701	73.39
848.876	126.63
849.052	134.82
849.227	-10.58
849.403	161.45
849.578	79.53
849.753	155.3
849.929	157.35
850.104	40.62
850.279	57
850.454	200.36
850.63	93.87
850.805	100.01
850.98	26.28
851.155	79.53
851.33	59.05
851.505	40.62
851.681	95.91
851.856	65.19
852.031	59.05
852.206	124.58
852.381	44.71
852.556	-8.53
852.731	116.39
852.906	104.11
853.081	-26.96
853.256	65.19
853.431	61.1
853.606	16.04
853.781	3.75
853.956	-24.92
854.131	83.63
854.305	-2.39
854.48	18.09
854.655	89.77
854.83	16.04
855.005	38.57
855.18	120.49
855.354	9.9
855.529	89.77
855.704	85.67
855.879	165.54
856.053	61.1
856.228	106.15
856.403	-26.96
856.577	57
856.752	-59.73
856.926	48.81
857.101	9.9
857.276	46.76
857.45	75.43
857.625	91.82
857.799	71.34
857.974	85.67
858.148	24.23
858.323	91.82
858.497	85.67
858.672	34.47
858.846	20.14
859.02	122.54
859.195	83.63
859.369	-26.96
859.543	-22.87
859.718	38.57
859.892	54.95
860.066	104.11
860.241	61.1
860.415	102.06
860.589	-26.96
860.763	36.52
860.938	24.23
861.112	89.77
861.286	22.19
861.46	118.44
861.634	77.48
861.808	126.63
861.982	50.86
862.157	30.38
862.331	-4.44
862.505	-8.53
862.679	79.53
862.853	20.14
863.027	-33.11
863.201	175.78
863.375	-35.16
863.549	71.34
863.722	83.63
863.896	102.06
864.07	40.62
864.244	67.24
864.418	95.91
864.592	77.48
864.766	52.91
864.939	83.63
865.113	63.15
865.287	106.15
865.461	-59.73
865.634	44.71
865.808	61.1
865.982	-53.59
866.156	24.23
866.329	59.05
866.503	71.34
866.676	75.43
866.85	85.67
867.024	34.47
867.197	75.43
867.371	5.8
867.544	32.43
867.718	5.8
867.891	46.76
868.065	18.09
868.238	40.62
868.412	73.39
868.585	26.28
868.759	13.99
868.932	24.23
869.105	-8.53
869.279	22.19
869.452	11.95
869.625	71.34
869.799	-18.77
869.972	5.8
870.145	36.52
870.319	116.39
870.492	30.38
870.665	-4.44
870.838	-12.63
871.011	-35.16
871.185	13.99
871.358	63.15
871.531	61.1
871.704	-16.73
871.877	-61.78
872.05	7.85
872.223	-8.53
872.396	-4.44
872.569	93.87
872.742	11.95
872.915	7.85
873.088	-33.11
873.261	44.71
873.434	-4.44
873.607	9.9
873.78	67.24
873.953	-20.82
874.126	75.43
874.299	40.62
874.471	16.04
874.644	28.33
874.817	67.24
874.99	91.82
875.163	38.57
875.335	40.62
875.508	-29.01
875.681	13.99
875.853	7.85
876.026	3.75
876.199	65.19
876.371	69.29
876.544	34.47
876.717	59.05
876.889	57
877.062	71.34
877.234	-35.16
877.407	-6.49
877.579	11.95
877.752	42.67
877.924	87.72
878.097	67.24
878.269	44.71
878.442	77.48
878.614	22.19
878.786	24.23
878.959	46.76
879.131	77.48
879.303	30.38
879.476	5.8
879.648	44.71
879.82	100.01
879.993	57
880.165	-24.92
880.337	7.85
880.509	143.02
880.681	-86.36
880.854	-26.96
881.026	85.67
881.198	52.91
881.37	73.39
881.542	20.14
881.714	32.43
881.886	44.71
882.058	63.15
882.23	24.23
882.402	40.62
882.574	93.87
882.746	100.01
882.918	52.91
883.09	63.15
883.262	3.75
883.434	20.14
883.606	3.75
883.778	3.75
883.95	93.87
884.122	-16.73
884.293	32.43
884.465	52.91
884.637	59.05
884.809	-47.44
884.98	-47.44
885.152	-6.49
885.324	104.11
885.496	-33.11
885.667	63.15
885.839	1.71
886.011	104.11
886.182	36.52
886.354	9.9
886.525	36.52
886.697	28.33
886.869	32.43
887.04	7.85
887.212	143.02
887.383	118.44
887.555	18.09
887.726	20.14
887.897	48.81
888.069	118.44
888.24	22.19
888.412	-33.11
888.583	-4.44
888.754	67.24
888.926	-37.2
889.097	-14.68
889.268	-115.03
889.44	50.86
889.611	-16.73
889.782	-78.16
889.953	22.19
890.125	93.87
890.296	16.04
890.467	-33.11
890.638	-16.73
890.809	11.95
890.98	-18.77
891.151	18.09
891.323	28.33
891.494	77.48
891.665	61.1
891.836	7.85
892.007	9.9
892.178	13.99
892.349	-4.44
892.52	-18.77
892.691	61.1
892.862	13.99
893.032	-20.82
893.203	-45.4
893.374	-26.96
893.545	85.67
893.716	-92.5
893.887	71.34
894.057	-0.34
894.228	65.19
894.399	28.33
894.57	69.29
894.74	-8.53
894.911	44.71
895.082	54.95
895.253	-12.63
895.423	-6.49
895.594	36.52
895.764	-31.06
895.935	-26.96
896.106	20.14
896.276	20.14
896.447	-2.39
896.617	13.99
896.788	-18.77
896.958	34.47
897.129	79.53
897.299	30.38
897.47	44.71
897.64	24.23
897.81	40.62
897.981	24.23
898.151	13.99
898.322	7.85
898.492	44.71
898.662	3.75
898.832	-86.36
899.003	1.71
899.173	28.33
899.343	40.62
899.513	-24.92
