Data from USB4F104151__39__13-05-06-966.txt Node

Date: Fri Mar 14 13:05:06 EDT 2025
User: louis
Spectrometer: USB4F10415
Trigger mode: 4
Integration Time (sec): 4.000000E-2
Scans to average: 1
Electric dark correction enabled: true
Nonlinearity correction enabled: false
Boxcar width: 0
XAxis mode: Wavelengths
Number of Pixels in Spectrum: 3648
>>>>>Begin Spectral Data<<<<<
178.204	-90.96
178.424	-90.96
178.644	-90.96
178.864	-209.75
179.084	-170.83
179.304	70.83
179.524	-4.95
179.744	-17.24
179.964	5.29
180.184	74.92
180.404	-25.43
180.624	52.39
180.844	-52.05
181.064	-76.63
181.283	27.82
181.503	-27.48
181.723	-27.48
181.943	31.91
182.163	134.31
182.383	27.82
182.602	89.26
182.822	140.46
183.042	85.16
183.262	36.01
183.482	50.35
183.701	64.68
183.921	52.39
184.141	62.63
184.361	115.88
184.58	48.3
184.8	42.15
185.02	-4.95
185.239	148.65
185.459	52.39
185.679	150.7
185.898	-9.05
186.118	136.36
186.338	44.2
186.557	23.72
186.777	25.77
186.997	58.54
187.216	21.67
187.436	130.22
187.655	113.83
187.875	103.59
188.095	36.01
188.314	95.4
188.534	74.92
188.753	15.53
188.973	111.78
189.192	58.54
189.412	115.88
189.631	99.5
189.851	87.21
190.07	111.78
190.29	27.82
190.509	52.39
190.729	119.98
190.948	54.44
191.168	212.14
191.387	83.11
191.607	89.26
191.826	3.24
192.045	97.45
192.265	62.63
192.484	85.16
192.704	17.58
192.923	58.54
193.142	185.51
193.362	119.98
193.581	107.69
193.8	33.96
194.02	91.31
194.239	29.87
194.458	72.87
194.678	173.22
194.897	72.87
195.116	68.78
195.335	76.97
195.555	83.11
195.774	36.01
195.993	58.54
196.212	25.77
196.432	-17.24
196.651	111.78
196.87	60.59
197.089	193.7
197.308	74.92
197.528	74.92
197.747	44.2
197.966	85.16
198.185	-9.05
198.404	50.35
198.623	117.93
198.842	91.31
199.062	156.84
199.281	122.02
199.5	72.87
199.719	197.8
199.938	64.68
200.157	50.35
200.376	130.22
200.595	91.31
200.814	89.26
201.033	66.73
201.252	52.39
201.471	17.58
201.69	52.39
201.909	93.35
202.128	76.97
202.347	83.11
202.566	105.64
202.785	91.31
203.004	-13.14
203.223	201.9
203.442	81.07
203.661	62.63
203.879	31.91
204.098	89.26
204.317	19.63
204.536	97.45
204.755	25.77
204.974	95.4
205.193	15.53
205.411	171.18
205.63	89.26
205.849	56.49
206.068	-37.72
206.287	70.83
206.505	83.11
206.724	48.3
206.943	3.24
207.162	48.3
207.381	56.49
207.599	91.31
207.818	158.89
208.037	64.68
208.255	9.39
208.474	56.49
208.693	136.36
208.911	19.63
209.13	70.83
209.349	36.01
209.567	40.11
209.786	132.26
210.005	126.12
210.223	46.25
210.442	23.72
210.661	52.39
210.879	23.72
211.098	115.88
211.316	-7
211.535	25.77
211.753	48.3
211.972	44.2
212.191	52.39
212.409	76.97
212.628	126.12
212.846	44.2
213.065	99.5
213.283	74.92
213.502	48.3
213.72	68.78
213.938	48.3
214.157	5.29
214.375	130.22
214.594	81.07
214.812	111.78
215.031	91.31
215.249	23.72
215.467	27.82
215.686	140.46
215.904	162.98
216.122	-11.09
216.341	95.4
216.559	64.68
216.778	50.35
216.996	81.07
217.214	56.49
217.432	-9.05
217.651	124.07
217.869	54.44
218.087	40.11
218.306	154.79
218.524	48.3
218.742	101.55
218.96	85.16
219.179	42.15
219.397	-25.43
219.615	122.02
219.833	56.49
220.051	79.02
220.27	126.12
220.488	17.58
220.706	52.39
220.924	85.16
221.142	58.54
221.36	107.69
221.578	48.3
221.796	58.54
222.015	15.53
222.233	11.43
222.451	132.26
222.669	81.07
222.887	117.93
223.105	58.54
223.323	40.11
223.541	97.45
223.759	64.68
223.977	52.39
224.195	113.83
224.413	122.02
224.631	113.83
224.849	38.06
225.067	185.51
225.285	-21.33
225.503	56.49
225.721	-31.57
225.939	29.87
226.157	91.31
226.375	105.64
226.592	72.87
226.81	9.39
227.028	185.51
227.246	101.55
227.464	93.35
227.682	56.49
227.9	111.78
228.117	54.44
228.335	31.91
228.553	9.39
228.771	-17.24
228.989	81.07
229.206	95.4
229.424	-13.14
229.642	-29.52
229.86	40.11
230.077	140.46
230.295	115.88
230.513	66.73
230.731	134.31
230.948	66.73
231.166	146.6
231.384	56.49
231.601	23.72
231.819	107.69
232.037	13.48
232.254	3.24
232.472	42.15
232.689	9.39
232.907	154.79
233.125	85.16
233.342	85.16
233.56	23.72
233.777	17.58
233.995	21.67
234.213	119.98
234.43	97.45
234.648	-17.24
234.865	72.87
235.083	83.11
235.3	50.35
235.518	113.83
235.735	97.45
235.953	95.4
236.17	48.3
236.388	76.97
236.605	-0.85
236.822	132.26
237.04	91.31
237.257	52.39
237.475	-13.14
237.692	152.74
237.909	89.26
238.127	58.54
238.344	-19.29
238.562	130.22
238.779	85.16
238.996	15.53
239.214	3.24
239.431	85.16
239.648	40.11
239.865	117.93
240.083	76.97
240.3	9.39
240.517	-74.58
240.735	74.92
240.952	95.4
241.169	83.11
241.386	44.2
241.603	72.87
241.821	13.48
242.038	117.93
242.255	87.21
242.472	9.39
242.689	72.87
242.907	156.84
243.124	62.63
243.341	128.17
243.558	79.02
243.775	60.59
243.992	-52.05
244.209	31.91
244.426	83.11
244.643	113.83
244.86	48.3
245.078	134.31
245.295	138.41
245.512	93.35
245.729	74.92
245.946	31.91
246.163	79.02
246.38	54.44
246.597	109.74
246.814	70.83
247.031	70.83
247.248	89.26
247.464	126.12
247.681	72.87
247.898	76.97
248.115	25.77
248.332	48.3
248.549	81.07
248.766	132.26
248.983	46.25
249.2	83.11
249.417	128.17
249.633	68.78
249.85	148.65
250.067	-9.05
250.284	58.54
250.501	156.84
250.717	52.39
250.934	60.59
251.151	124.07
251.368	27.82
251.585	68.78
251.801	54.44
252.018	-33.62
252.235	99.5
252.451	13.48
252.668	83.11
252.885	105.64
253.102	38.06
253.318	13.48
253.535	23.72
253.752	81.07
253.968	89.26
254.185	62.63
254.401	115.88
254.618	124.07
254.835	68.78
255.051	136.36
255.268	97.45
255.484	54.44
255.701	58.54
255.917	13.48
256.134	99.5
256.351	74.92
256.567	15.53
256.784	103.59
257	27.82
257.217	79.02
257.433	132.26
257.65	93.35
257.866	138.41
258.082	62.63
258.299	19.63
258.515	68.78
258.732	9.39
258.948	48.3
259.165	36.01
259.381	48.3
259.597	140.46
259.814	62.63
260.03	40.11
260.246	46.25
260.463	113.83
260.679	62.63
260.895	107.69
261.112	68.78
261.328	36.01
261.544	-17.24
261.761	193.7
261.977	81.07
262.193	70.83
262.409	68.78
262.626	91.31
262.842	46.25
263.058	52.39
263.274	7.34
263.49	40.11
263.707	87.21
263.923	74.92
264.139	25.77
264.355	85.16
264.571	70.83
264.787	56.49
265.004	95.4
265.22	76.97
265.436	21.67
265.652	64.68
265.868	48.3
266.084	48.3
266.3	146.6
266.516	91.31
266.732	-9.05
266.948	-17.24
267.164	66.73
267.38	107.69
267.596	146.6
267.812	148.65
268.028	25.77
268.244	40.11
268.46	54.44
268.676	17.58
268.892	99.5
269.108	-39.76
269.324	13.48
269.54	27.82
269.756	126.12
269.972	48.3
270.188	62.63
270.403	-17.24
270.619	56.49
270.835	33.96
271.051	-13.14
271.267	-23.38
271.483	38.06
271.698	103.59
271.914	58.54
272.13	89.26
272.346	36.01
272.562	85.16
272.777	74.92
272.993	111.78
273.209	40.11
273.425	54.44
273.64	46.25
273.856	105.64
274.072	-4.95
274.287	70.83
274.503	60.59
274.719	105.64
274.934	122.02
275.15	7.34
275.366	117.93
275.581	13.48
275.797	138.41
276.012	-64.34
276.228	48.3
276.444	50.35
276.659	130.22
276.875	-31.57
277.09	64.68
277.306	44.2
277.521	19.63
277.737	11.43
277.952	95.4
278.168	87.21
278.383	97.45
278.599	33.96
278.814	58.54
279.03	66.73
279.245	93.35
279.461	23.72
279.676	91.31
279.892	85.16
280.107	-17.24
280.322	66.73
280.538	27.82
280.753	119.98
280.969	21.67
281.184	31.91
281.399	146.6
281.615	89.26
281.83	42.15
282.045	40.11
282.26	91.31
282.476	50.35
282.691	83.11
282.906	56.49
283.122	40.11
283.337	85.16
283.552	140.46
283.767	33.96
283.983	89.26
284.198	62.63
284.413	70.83
284.628	97.45
284.843	74.92
285.058	115.88
285.274	74.92
285.489	99.5
285.704	70.83
285.919	56.49
286.134	-33.62
286.349	50.35
286.564	23.72
286.779	105.64
286.995	25.77
287.21	11.43
287.425	38.06
287.64	74.92
287.855	150.7
288.07	-0.85
288.285	113.83
288.5	142.5
288.715	105.64
288.93	33.96
289.145	-45.91
289.36	101.55
289.575	27.82
289.79	40.11
290.004	68.78
290.219	70.83
290.434	89.26
290.649	-39.76
290.864	15.53
291.079	-9.05
291.294	56.49
291.509	64.68
291.724	19.63
291.938	36.01
292.153	29.87
292.368	66.73
292.583	64.68
292.798	79.02
293.012	150.7
293.227	89.26
293.442	27.82
293.657	5.29
293.871	70.83
294.086	19.63
294.301	54.44
294.516	72.87
294.73	101.55
294.945	40.11
295.16	27.82
295.374	109.74
295.589	122.02
295.804	72.87
296.018	48.3
296.233	89.26
296.447	76.97
296.662	42.15
296.877	165.03
297.091	87.21
297.306	79.02
297.52	42.15
297.735	70.83
297.949	-0.85
298.164	83.11
298.378	85.16
298.593	21.67
298.807	-17.24
299.022	11.43
299.236	15.53
299.451	140.46
299.665	-9.05
299.88	52.39
300.094	89.26
300.309	3.24
300.523	109.74
300.737	42.15
300.952	124.07
301.166	25.77
301.381	15.53
301.595	48.3
301.809	46.25
302.024	23.72
302.238	-7
302.452	173.22
302.667	83.11
302.881	99.5
303.095	58.54
303.309	60.59
303.524	15.53
303.738	95.4
303.952	87.21
304.166	119.98
304.381	52.39
304.595	130.22
304.809	48.3
305.023	68.78
305.237	62.63
305.452	74.92
305.666	81.07
305.88	85.16
306.094	105.64
306.308	11.43
306.522	91.31
306.736	81.07
306.95	99.5
307.164	64.68
307.379	1.19
307.593	154.79
307.807	54.44
308.021	58.54
308.235	76.97
308.449	23.72
308.663	15.53
308.877	122.02
309.091	85.16
309.305	42.15
309.519	-2.9
309.733	72.87
309.947	60.59
310.161	93.35
310.374	109.74
310.588	87.21
310.802	93.35
311.016	62.63
311.23	48.3
311.444	105.64
311.658	72.87
311.872	70.83
312.085	132.26
312.299	117.93
312.513	144.55
312.727	79.02
312.941	31.91
313.154	33.96
313.368	72.87
313.582	42.15
313.796	89.26
314.009	36.01
314.223	52.39
314.437	119.98
314.651	7.34
314.864	-0.85
315.078	-2.9
315.292	85.16
315.505	15.53
315.719	60.59
315.933	52.39
316.146	60.59
316.36	29.87
316.573	107.69
316.787	48.3
317.001	87.21
317.214	56.49
317.428	74.92
317.641	25.77
317.855	33.96
318.068	40.11
318.282	162.98
318.495	177.32
318.709	103.59
318.922	76.97
319.136	7.34
319.349	124.07
319.563	40.11
319.776	76.97
319.99	-25.43
320.203	93.35
320.417	138.41
320.63	136.36
320.843	72.87
321.057	42.15
321.27	25.77
321.483	70.83
321.697	167.08
321.91	17.58
322.124	52.39
322.337	56.49
322.55	46.25
322.763	50.35
322.977	101.55
323.19	66.73
323.403	89.26
323.617	58.54
323.83	101.55
324.043	89.26
324.256	146.6
324.469	62.63
324.683	93.35
324.896	-25.43
325.109	81.07
325.322	-39.76
325.535	130.22
325.748	167.08
325.962	95.4
326.175	89.26
326.388	83.11
326.601	91.31
326.814	103.59
327.027	85.16
327.24	156.84
327.453	17.58
327.666	38.06
327.879	113.83
328.092	109.74
328.305	46.25
328.518	31.91
328.731	46.25
328.944	117.93
329.157	107.69
329.37	50.35
329.583	171.18
329.796	122.02
330.009	60.59
330.222	134.31
330.435	115.88
330.648	83.11
330.861	105.64
331.073	50.35
331.286	74.92
331.499	83.11
331.712	103.59
331.925	25.77
332.138	111.78
332.35	130.22
332.563	79.02
332.776	31.91
332.989	68.78
333.202	89.26
333.414	99.5
333.627	23.72
333.84	64.68
334.053	70.83
334.265	50.35
334.478	-9.05
334.691	31.91
334.903	56.49
335.116	-50
335.329	19.63
335.541	105.64
335.754	111.78
335.966	52.39
336.179	83.11
336.392	40.11
336.604	48.3
336.817	115.88
337.029	81.07
337.242	40.11
337.454	113.83
337.667	83.11
337.88	158.89
338.092	-9.05
338.305	23.72
338.517	17.58
338.729	154.79
338.942	83.11
339.154	31.91
339.367	27.82
339.579	87.21
339.792	-11.09
340.004	124.07
340.217	48.3
340.429	111.78
340.641	64.68
340.854	105.64
341.066	81.07
341.278	122.02
341.491	122.02
341.703	109.74
341.915	72.87
342.128	52.39
342.34	81.07
342.552	31.91
342.764	148.65
342.977	62.63
343.189	76.97
343.401	97.45
343.613	91.31
343.826	40.11
344.038	81.07
344.25	105.64
344.462	27.82
344.674	31.91
344.886	-15.19
345.099	119.98
345.311	33.96
345.523	128.17
345.735	9.39
345.947	74.92
346.159	150.7
346.371	132.26
346.583	31.91
346.795	56.49
347.007	7.34
347.219	99.5
347.431	142.5
347.643	197.8
347.855	91.31
348.067	134.31
348.279	64.68
348.491	97.45
348.703	107.69
348.915	-2.9
349.127	38.06
349.339	103.59
349.551	60.59
349.763	46.25
349.975	99.5
350.187	107.69
350.399	101.55
350.61	130.22
350.822	3.24
351.034	105.64
351.246	64.68
351.458	40.11
351.669	103.59
351.881	113.83
352.093	85.16
352.305	130.22
352.517	91.31
352.728	64.68
352.94	122.02
353.152	60.59
353.363	40.11
353.575	68.78
353.787	146.6
353.999	93.35
354.21	117.93
354.422	91.31
354.633	33.96
354.845	101.55
355.057	146.6
355.268	72.87
355.48	99.5
355.692	91.31
355.903	91.31
356.115	31.91
356.326	-11.09
356.538	169.13
356.749	91.31
356.961	134.31
357.172	107.69
357.384	-15.19
357.595	119.98
357.807	70.83
358.018	87.21
358.23	46.25
358.441	138.41
358.653	11.43
358.864	107.69
359.075	19.63
359.287	142.5
359.498	162.98
359.709	7.34
359.921	85.16
360.132	25.77
360.344	107.69
360.555	107.69
360.766	103.59
360.977	62.63
361.189	79.02
361.4	113.83
361.611	91.31
361.823	146.6
362.034	122.02
362.245	-13.14
362.456	119.98
362.667	167.08
362.879	113.83
363.09	140.46
363.301	33.96
363.512	62.63
363.723	15.53
363.935	83.11
364.146	85.16
364.357	115.88
364.568	97.45
364.779	62.63
364.99	95.4
365.201	11.43
365.412	119.98
365.623	42.15
365.834	105.64
366.045	72.87
366.256	107.69
366.467	91.31
366.678	142.5
366.889	31.91
367.1	126.12
367.311	154.79
367.522	-9.05
367.733	103.59
367.944	154.79
368.155	44.2
368.366	146.6
368.577	76.97
368.788	160.94
368.999	44.2
369.209	74.92
369.42	199.85
369.631	156.84
369.842	130.22
370.053	40.11
370.264	117.93
370.474	79.02
370.685	70.83
370.896	103.59
371.107	185.51
371.317	146.6
371.528	70.83
371.739	193.7
371.95	148.65
372.16	115.88
372.371	38.06
372.582	128.17
372.792	87.21
373.003	101.55
373.214	27.82
373.424	81.07
373.635	91.31
373.846	111.78
374.056	126.12
374.267	74.92
374.477	56.49
374.688	29.87
374.898	91.31
375.109	144.55
375.319	173.22
375.53	81.07
375.74	91.31
375.951	122.02
376.161	134.31
376.372	105.64
376.582	33.96
376.793	48.3
377.003	95.4
377.214	93.35
377.424	93.35
377.635	-11.09
377.845	56.49
378.055	158.89
378.266	29.87
378.476	91.31
378.686	130.22
378.897	146.6
379.107	132.26
379.317	181.42
379.528	76.97
379.738	126.12
379.948	72.87
380.158	52.39
380.369	66.73
380.579	97.45
380.789	83.11
380.999	68.78
381.21	103.59
381.42	124.07
381.63	72.87
381.84	165.03
382.05	81.07
382.261	126.12
382.471	144.55
382.681	107.69
382.891	89.26
383.101	132.26
383.311	15.53
383.521	56.49
383.731	101.55
383.941	93.35
384.151	85.16
384.361	97.45
384.571	146.6
384.781	46.25
384.991	83.11
385.201	130.22
385.411	140.46
385.621	160.94
385.831	72.87
386.041	191.66
386.251	52.39
386.461	109.74
386.671	185.51
386.881	97.45
387.091	154.79
387.301	91.31
387.511	79.02
387.72	74.92
387.93	107.69
388.14	46.25
388.35	72.87
388.56	132.26
388.769	95.4
388.979	107.69
389.189	60.59
389.399	79.02
389.609	171.18
389.818	93.35
390.028	113.83
390.238	173.22
390.447	9.39
390.657	85.16
390.867	50.35
391.076	144.55
391.286	124.07
391.496	89.26
391.705	156.84
391.915	95.4
392.125	85.16
392.334	99.5
392.544	152.74
392.753	76.97
392.963	66.73
393.172	169.13
393.382	21.67
393.591	201.9
393.801	101.55
394.01	158.89
394.22	193.7
394.429	179.37
394.639	62.63
394.848	134.31
395.058	130.22
395.267	156.84
395.477	189.61
395.686	113.83
395.895	203.94
396.105	173.22
396.314	142.5
396.524	113.83
396.733	175.27
396.942	232.62
397.152	177.32
397.361	150.7
397.57	33.96
397.78	144.55
397.989	79.02
398.198	169.13
398.407	154.79
398.617	105.64
398.826	183.46
399.035	119.98
399.244	111.78
399.453	126.12
399.663	124.07
399.872	150.7
400.081	183.46
400.29	214.18
400.499	60.59
400.708	203.94
400.917	152.74
401.127	126.12
401.336	140.46
401.545	150.7
401.754	150.7
401.963	126.12
402.172	136.36
402.381	113.83
402.59	113.83
402.799	68.78
403.008	148.65
403.217	126.12
403.426	203.94
403.635	101.55
403.844	189.61
404.053	230.57
404.262	179.37
404.471	255.14
404.68	230.57
404.888	199.85
405.097	177.32
405.306	236.71
405.515	185.51
405.724	187.56
405.933	226.47
406.142	220.33
406.35	160.94
406.559	253.09
406.768	257.19
406.977	341.16
407.185	246.95
407.394	238.76
407.603	185.51
407.812	265.38
408.02	363.69
408.229	285.86
408.438	242.85
408.646	292.01
408.855	251.05
409.064	267.43
409.272	380.07
409.481	351.4
409.69	312.49
409.898	353.45
410.107	349.35
410.315	312.49
410.524	302.25
410.733	466.08
410.941	468.13
411.15	464.04
411.358	373.92
411.567	494.76
411.775	480.42
411.984	408.74
412.192	541.86
412.401	449.7
412.609	533.67
412.818	601.25
413.026	584.87
413.234	552.1
413.443	642.21
413.651	603.3
413.86	595.11
414.068	756.9
414.276	724.13
414.485	705.7
414.693	812.19
414.901	834.72
415.11	705.7
415.318	734.37
415.526	771.23
415.734	810.14
415.943	863.39
416.151	894.11
416.359	939.16
416.567	990.36
416.776	992.41
416.984	1064.09
417.192	1062.04
417.4	1041.56
417.608	1006.75
417.817	1113.24
418.025	1213.59
418.233	1264.79
418.441	1170.58
418.649	1281.18
418.857	1453.2
419.065	1369.24
419.273	1356.95
419.481	1494.16
419.689	1602.71
419.897	1643.67
420.105	1670.29
420.313	1709.2
420.521	1733.78
420.729	1815.69
420.937	1840.27
421.145	1870.99
421.353	1934.48
421.561	2030.73
421.769	2045.07
421.977	2102.41
422.185	2184.33
422.393	2430.09
422.601	2423.94
422.809	2378.89
423.017	2491.52
423.224	2522.24
423.432	2563.2
423.64	2616.45
423.848	2903.17
424.056	2794.62
424.263	3042.43
424.471	3005.56
424.679	2937.98
424.887	3247.23
425.094	3288.18
425.302	3333.24
425.51	3505.27
425.718	3556.47
425.925	3669.11
426.133	3906.67
426.341	4050.03
426.548	3951.73
426.756	4082.8
426.964	4267.11
427.171	4308.07
427.379	4670.56
427.586	4559.97
427.794	4645.99
428.001	4949.09
428.209	5102.68
428.417	5178.46
428.624	5502.04
428.832	5440.6
429.039	5479.51
429.247	5428.31
429.454	5807.19
429.662	6452.3
429.869	5966.93
430.076	6288.46
430.284	6114.38
430.491	6499.4
430.699	6812.74
430.906	6917.19
431.114	6831.17
431.321	7214.14
431.528	7232.57
431.736	7697.46
431.943	7928.88
432.15	7990.32
432.358	7932.98
432.565	8412.2
432.772	8250.41
432.979	8809.51
433.187	8936.48
433.394	9135.14
433.601	9573.4
433.808	9858.07
434.016	9534.49
434.223	9903.12
434.43	10624.01
434.637	10314.77
434.844	10945.54
435.052	11156.48
435.259	11066.37
435.466	11392
435.673	11310.08
435.88	11727.86
436.087	12334.06
436.294	12555.24
436.501	12213.23
436.708	12499.95
436.915	13085.67
437.122	13460.45
437.329	13530.08
437.537	13931.48
437.743	14191.57
437.95	14105.56
438.157	14691.27
438.364	15201.22
438.571	15320
438.778	15498.17
438.985	16688.04
439.192	16006.07
439.399	16509.87
439.606	16227.25
439.813	17071.01
440.02	18350.99
440.227	17828.76
440.433	17843.1
440.64	18371.47
440.847	18031.51
441.054	18482.06
441.261	19596.16
441.467	19571.58
441.674	20128.63
441.881	20837.23
442.088	20716.4
442.294	20587.38
442.501	20925.29
442.708	21607.26
442.914	22397.78
443.121	23370.57
443.328	22715.22
443.534	24382.26
443.741	23565.12
443.948	23036.75
444.154	25084.72
444.361	24935.21
444.568	25039.66
444.774	25105.2
444.981	25230.12
445.187	25916.19
445.394	27278.09
445.6	26659.6
445.807	29291.24
446.013	28459.77
446.22	28838.64
446.426	29702.89
446.633	30083.81
446.839	31050.45
447.046	30032.61
447.252	31335.12
447.459	31224.53
447.665	31556.3
447.871	32733.88
448.078	34038.44
448.284	32570.04
448.491	33778.34
448.697	34833.05
448.903	35351.18
449.11	35852.94
449.316	35228.31
449.522	35705.48
449.728	36432.51
449.935	36694.65
450.141	36936.31
450.347	37646.96
450.553	36518.53
450.76	37309.04
450.966	38249.06
451.172	38058.6
451.378	38238.82
451.584	37827.18
451.791	38808.15
451.997	38797.91
452.203	38986.33
452.409	39635.53
452.615	39756.36
452.821	37468.78
453.027	37646.96
453.233	39295.57
453.44	37927.53
453.646	38085.22
453.852	38462.05
454.058	39187.03
454.264	38240.87
454.47	39203.41
454.676	37808.75
454.882	38867.55
455.088	35818.12
455.294	36508.29
455.5	36522.62
455.705	37337.71
455.911	35639.95
456.117	35197.59
456.323	34560.67
456.529	32877.24
456.735	33854.12
456.941	33284.78
457.147	33022.64
457.352	31965.89
457.558	31580.87
457.764	31761.09
457.97	30755.54
458.176	30169.82
458.381	30393.05
458.587	28941.04
458.793	28965.62
458.999	27298.57
459.204	29498.09
459.41	28269.31
459.616	26686.23
459.821	26471.19
460.027	26247.96
460.233	25946.91
460.438	24728.37
460.644	25097
460.85	23927.61
461.055	23540.55
461.261	23190.34
461.466	21674.85
461.672	21087.08
461.878	22307.67
462.083	21154.66
462.289	20327.28
462.494	20527.99
462.7	19450.75
462.905	18807.69
463.111	19678.08
463.316	19768.19
463.522	19176.33
463.727	19209.09
463.932	19428.23
464.138	18930.57
464.343	19205
464.549	18527.12
464.754	19184.52
464.959	18805.64
465.165	18922.38
465.37	18336.66
465.575	17666.97
465.781	18635.66
465.986	18195.35
466.191	17732.51
466.397	17478.56
466.602	16778.15
466.807	17257.38
467.012	17146.79
467.218	17169.32
467.423	16978.86
467.628	16960.42
467.833	17759.13
468.038	17175.46
468.244	16602.03
468.449	17236.9
468.654	16710.57
468.859	16606.13
469.064	16616.37
469.269	15944.63
469.474	15983.54
469.679	16374.7
469.885	15786.94
470.09	15975.35
470.295	15969.21
470.5	15385.54
470.705	15745.98
470.91	15244.23
471.115	15115.2
471.32	15416.26
471.525	15428.54
471.73	15051.72
471.935	14863.3
472.139	14609.36
472.344	14396.37
472.549	14638.03
472.754	14246.87
472.959	13986.77
473.164	13757.4
473.369	13532.12
473.574	14156.75
473.778	13908.95
473.983	13837.27
474.188	13966.29
474.393	13106.15
474.598	13067.24
474.802	13104.1
475.007	12915.69
475.212	13081.57
475.417	12549.1
475.621	12661.74
475.826	12545
476.031	12354.54
476.235	11910.13
476.44	12274.67
476.645	11795.45
476.849	11944.95
477.054	11799.54
477.259	11705.34
477.463	11781.11
477.668	11336.7
477.872	11414.52
478.077	11148.29
478.282	11166.72
478.486	11164.67
478.691	11164.67
478.895	11043.84
479.1	10953.73
479.304	10851.33
479.509	10396.68
479.713	10703.88
479.918	10488.84
480.122	10282
480.326	10337.29
480.531	10607.62
480.735	10271.76
480.94	10425.36
481.144	10521.61
481.348	10114.06
481.553	10306.57
481.757	10126.35
481.961	10257.42
482.166	10404.88
482.37	10163.22
482.574	10052.63
482.778	9958.42
482.983	10013.71
483.187	10118.16
483.391	10075.15
483.595	9903.12
483.8	9843.73
484.004	10382.35
484.208	10267.66
484.412	10052.63
484.616	10394.64
484.821	10046.48
485.025	10048.53
485.229	10167.31
485.433	10058.77
485.637	10046.48
485.841	10109.97
486.045	10136.59
486.249	9927.7
486.453	9819.16
486.657	9956.37
486.861	10222.61
487.065	9772.05
487.269	9860.12
487.473	9995.28
487.677	10122.26
487.881	10134.54
488.085	10114.06
488.289	10001.43
488.493	10005.52
488.697	10212.37
488.901	10026
489.105	9915.41
489.309	10136.59
489.512	10175.5
489.716	9813.01
489.92	10101.78
490.124	9948.18
490.328	10355.72
490.531	10202.13
490.735	10318.86
490.939	10206.22
491.143	10112.02
491.346	10619.91
491.55	10429.45
491.754	10472.46
491.958	10415.12
492.161	10347.53
492.365	10585.1
492.569	10335.24
492.772	10339.34
492.976	10546.19
493.18	10730.5
493.383	10941.44
493.587	11004.93
493.79	11099.14
493.994	10867.72
494.197	10927.11
494.401	11242.5
494.605	11117.57
494.808	11244.54
495.012	11508.73
495.215	11344.89
495.419	11383.8
495.622	11342.85
495.825	11740.15
496.029	11637.75
496.232	11873.27
496.436	11932.66
496.639	12178.42
496.843	12073.97
497.046	12516.33
497.249	12547.05
497.453	12471.28
497.656	12760.04
497.859	12696.55
498.063	12860.39
498.266	13073.38
498.469	13036.52
498.673	12925.93
498.876	13396.96
499.079	13493.21
499.282	13368.29
499.485	13695.96
499.689	13880.28
499.892	14064.6
500.095	14074.84
500.298	14576.59
500.501	14156.75
500.705	14599.12
500.908	14762.95
501.111	14973.89
501.314	15012.81
501.517	15225.79
501.72	15485.89
501.923	15418.3
502.126	15698.88
502.329	15989.69
502.532	16044.98
502.735	16182.2
502.938	16624.56
503.141	16614.32
503.344	16847.79
503.547	16704.43
503.75	17023.91
503.953	17349.54
504.156	17443.74
504.359	17474.46
504.562	17730.46
504.765	17826.71
504.968	18332.56
505.17	18453.39
505.373	18506.64
505.576	18715.53
505.779	19008.39
505.982	19065.74
506.185	19544.96
506.387	19530.62
506.59	19549.06
506.793	20362.1
506.996	20028.28
507.198	20351.86
507.401	20634.48
507.604	20675.44
507.807	21144.42
508.009	21252.97
508.212	21494.63
508.415	21742.43
508.617	21744.48
508.82	21982.04
509.022	21697.38
509.225	22514.52
509.428	23044.94
509.63	22981.45
509.833	22911.82
510.035	23337.8
510.238	23544.64
510.44	23761.73
510.643	24175.42
510.845	24253.24
511.048	24294.2
511.25	24427.32
511.453	24738.61
511.655	25666.34
511.858	25398.06
512.06	25598.76
512.262	25684.77
512.465	25899.81
512.667	25987.87
512.87	26340.12
513.072	26643.22
513.274	27005.71
513.477	27245.32
513.679	27503.37
513.881	27740.93
514.084	28171
514.286	28035.84
514.488	28459.77
514.69	29199.09
514.893	29221.61
515.095	28928.75
515.297	29819.62
515.499	29780.71
515.701	30026.46
515.904	30452.44
516.106	30599.9
516.308	30610.14
516.51	31193.81
516.712	31427.28
516.914	31840.96
517.116	31947.46
517.318	32330.43
517.52	32701.11
517.722	32447.16
517.925	33020.59
518.127	33755.82
518.329	33659.56
518.531	33677.99
518.733	34351.77
518.935	34589.34
519.136	34155.17
519.338	35064.47
519.54	34982.55
519.742	35433.1
519.944	35490.45
520.146	35941
520.348	36635.26
520.55	36381.31
520.752	36840.06
520.954	37622.38
521.155	37067.38
521.357	37874.28
521.559	38009.45
521.761	38664.8
521.963	38359.65
522.164	38703.71
522.366	38722.14
522.568	39230.04
522.77	39516.75
522.971	40174.15
523.173	39367.25
523.375	40000.07
523.576	40430.15
523.778	40307.27
523.98	41040.44
524.181	40819.26
524.383	40909.37
524.584	41564.72
524.786	41386.55
524.988	41368.12
525.189	42000.94
525.391	42322.47
525.592	42562.08
525.794	42920.48
525.995	42914.33
526.197	43119.13
526.398	43399.7
526.6	43508.24
526.801	43381.27
527.003	43942.41
527.204	43604.5
527.406	44433.92
527.607	44245.51
527.808	44585.47
528.01	44026.38
528.211	44726.78
528.412	45206.01
528.614	44673.54
528.815	45273.59
529.016	45509.11
529.218	45242.87
529.419	45509.11
529.62	45519.35
529.822	45621.75
530.023	45672.95
530.224	45879.79
530.425	45775.34
530.626	45627.89
530.828	45613.55
531.029	46572
531.23	46039.53
531.431	46299.62
531.632	46506.47
531.833	46363.11
532.035	46807.52
532.236	46621.16
532.437	47133.15
532.638	46635.49
532.839	46471.65
533.04	46739.94
533.241	46238.19
533.442	47305.18
533.643	47266.27
533.844	46858.72
534.045	47290.84
534.246	46522.85
534.447	47370.71
534.648	46889.44
534.849	47395.29
535.05	46588.39
535.251	46920.16
535.451	47204.83
535.652	47190.49
535.853	46877.15
536.054	47315.42
536.255	47286.75
536.456	46754.27
536.657	47487.45
536.857	47233.5
537.058	47219.16
537.259	47657.43
537.46	47325.66
537.66	47266.27
537.861	47225.31
538.062	47188.44
538.263	47565.27
538.463	47251.93
538.664	47110.62
538.865	47362.52
539.065	47679.96
539.266	46840.29
539.466	47907.28
539.667	47188.44
539.868	47618.52
540.068	47120.86
540.269	47481.3
540.469	47333.85
540.67	46883.3
540.87	47327.7
541.071	46856.67
541.271	47751.63
541.472	47442.39
541.672	47067.61
541.873	47186.39
542.073	46328.3
542.274	47583.7
542.474	46848.48
542.675	46993.89
542.875	47159.77
543.075	46948.83
543.276	46598.63
543.476	47411.67
543.676	46918.11
543.877	46842.34
544.077	47266.27
544.277	46950.88
544.478	47120.86
544.678	47208.92
544.878	47075.8
545.078	46991.84
545.279	46643.68
545.479	46989.79
545.679	47139.29
545.879	46737.89
546.079	46424.55
546.28	46471.65
546.48	46631.4
546.68	47008.22
546.88	47008.22
547.08	46809.57
547.28	46672.35
547.48	46815.71
547.68	47090.14
547.88	46494.18
548.081	46569.96
548.281	47026.65
548.481	46776.8
548.681	47178.2
548.881	46715.36
549.081	46981.6
549.28	46442.98
549.48	46762.47
549.68	46633.44
549.88	47380.95
550.08	46389.73
550.28	46815.71
550.48	46264.81
550.68	46805.47
550.88	46004.72
551.08	46344.68
551.279	46232.04
551.479	46166.51
551.679	46803.42
551.879	46215.66
552.079	46621.16
552.278	46531.04
552.478	46586.34
552.678	46645.73
552.878	46645.73
553.077	46502.37
553.277	46035.44
553.477	47098.33
553.676	45994.48
553.876	46424.55
554.076	45752.82
554.275	46334.44
554.475	45718
554.674	45713.91
554.874	45963.76
555.074	45853.17
555.273	45648.37
555.473	46201.32
555.672	45402.61
555.872	45871.6
556.071	45775.34
556.271	45703.67
556.47	45742.58
556.67	45486.58
556.869	45746.67
557.068	45935.09
557.268	45476.34
557.467	45390.33
557.667	45527.54
557.866	45603.31
558.065	45332.98
558.265	45304.31
558.464	44999.16
558.663	45216.25
558.863	44790.27
559.062	45560.31
559.261	44638.72
559.461	45238.78
559.66	44397.06
559.859	45003.26
560.058	44315.14
560.258	44503.56
560.457	44034.57
560.656	44841.47
560.855	44227.08
561.054	44827.13
561.253	43840.01
561.453	44370.44
561.652	44663.3
561.851	44567.04
562.05	43618.83
562.249	43594.26
562.448	44104.2
562.647	43805.2
562.846	43346.45
563.045	43592.21
563.244	43301.4
563.443	44046.86
563.642	43072.03
563.841	43313.69
564.04	42943
564.239	43588.11
564.438	42838.56
564.637	42930.72
564.836	43340.31
565.035	42816.03
565.234	42715.68
565.432	42242.6
565.631	42324.52
565.83	42699.3
566.029	42457.63
566.228	42072.62
566.427	42070.57
566.625	41742.89
566.824	41310.77
567.023	42193.45
567.222	41323.06
567.42	41808.43
567.619	41476.66
567.818	41392.69
568.016	41058.87
568.215	41675.31
568.414	40962.62
568.612	41386.55
568.811	40991.29
569.01	40782.4
569.208	40202.82
569.407	41067.06
569.605	40280.64
569.804	40841.79
570.002	39912.01
570.201	40198.73
570.4	40008.26
570.598	40051.27
570.797	39846.47
570.995	39873.1
571.193	39406.16
571.392	39957.06
571.59	39494.22
571.789	39455.31
571.987	39582.29
572.186	39027.29
572.384	38945.37
572.582	39295.57
572.781	39146.07
572.979	38726.24
573.177	38730.33
573.376	39035.48
573.574	38081.13
573.772	38580.83
573.971	38365.79
574.169	37804.65
574.367	38023.78
574.565	38509.15
574.763	37870.18
574.962	38025.83
575.16	37499.5
575.358	37937.77
575.556	37450.35
575.754	37984.87
575.952	37180.02
576.151	37728.87
576.349	36881.02
576.547	37298.8
576.745	37253.75
576.943	37182.07
577.141	36844.15
577.339	36526.72
577.537	36659.84
577.735	36266.63
577.933	36362.88
578.131	36565.63
578.329	36301.44
578.527	36076.16
578.725	36137.6
578.923	35986.05
579.121	36287.1
579.319	35963.53
579.516	35977.86
579.714	35785.35
579.912	35666.57
580.11	35463.82
580.308	35451.53
580.506	35373.71
580.704	34900.63
580.901	35254.93
581.099	35459.73
581.297	34669.21
581.495	34863.77
581.692	34886.29
581.89	34747.03
582.088	34972.31
582.285	34618.01
582.483	34273.95
582.681	34708.12
582.878	34075.3
583.076	33905.32
583.274	34460.32
583.471	33731.24
583.669	34011.81
583.866	33802.92
584.064	34028.2
584.262	33536.68
584.459	33684.14
584.657	33456.81
584.854	33692.33
585.052	33102.51
585.249	33383.09
585.447	33301.17
585.644	32801.46
585.841	33082.03
586.039	33092.27
586.236	32541.37
586.434	32760.5
586.631	32541.37
586.828	32635.58
587.026	32551.61
587.223	32180.93
587.42	32131.78
587.618	32246.46
587.815	32189.12
588.012	31947.46
588.21	31627.98
588.407	32211.65
588.604	31535.82
588.801	31423.18
588.999	31576.78
589.196	31300.3
589.393	31300.3
589.59	31376.08
589.787	31177.42
589.984	31247.05
590.182	30903
590.379	30800.6
590.576	30587.61
590.773	30788.31
590.97	30663.38
591.167	30505.69
591.364	30276.32
591.561	30427.87
591.758	30008.03
591.955	29737.7
592.152	30178.01
592.349	29930.21
592.546	29807.33
592.743	30051.04
592.94	29510.38
593.137	29768.42
593.334	29848.29
593.531	29119.21
593.727	29559.53
593.924	29246.19
594.121	29256.43
594.318	29491.94
594.515	28791.54
594.712	29184.75
594.908	29123.31
595.105	29242.09
595.302	28467.96
595.499	28459.77
595.696	28449.53
595.892	28351.23
596.089	28537.59
596.286	28543.74
596.482	28275.45
596.679	28228.35
596.876	28195.58
597.072	27974.4
597.269	28025.6
597.466	27888.39
597.662	27398.92
597.859	27728.64
598.055	27775.75
598.252	27343.63
598.448	27357.96
598.645	27589.38
598.841	27120.4
599.038	27368.2
599.234	27249.42
599.431	26931.98
599.627	26825.49
599.824	27175.69
600.02	26753.81
600.217	26624.79
600.413	26608.4
600.609	26415.9
600.806	26350.36
601.002	26884.88
601.198	26424.09
601.395	26147.61
601.591	26077.98
601.787	25967.39
601.984	25793.31
602.18	26077.98
602.376	25561.89
602.572	25787.17
602.769	25832.22
602.965	25402.15
603.161	25625.38
603.357	25496.36
603.553	25461.54
603.75	25301.8
603.946	25180.97
604.142	25318.18
604.338	24763.18
604.534	24945.45
604.73	24804.14
604.926	24890.16
605.122	24847.15
605.318	24873.78
605.514	24759.09
605.71	24431.41
605.906	24535.86
606.102	24281.91
606.298	24367.93
606.494	24009.53
606.69	24195.9
606.886	24351.54
607.082	23960.38
607.278	24206.14
607.474	23700.29
607.67	23931.71
607.866	23470.92
608.062	24286.01
608.257	23534.4
608.453	23477.06
608.649	23810.88
608.845	23419.72
609.041	23464.77
609.236	23393.09
609.432	23524.16
609.628	23319.37
609.824	23022.41
610.019	23083.85
610.215	23413.57
610.411	23419.72
610.606	22958.92
610.802	23096.14
610.998	23122.76
611.193	23196.49
611.389	22745.94
611.584	22711.12
611.78	22612.82
611.976	22692.69
612.171	22817.61
612.367	22565.71
612.562	22322.01
612.758	22104.92
612.953	22465.36
613.149	22811.47
613.344	22182.74
613.539	22774.61
613.735	22598.48
613.93	22334.29
614.126	21980
614.321	22235.99
614.517	22221.66
614.712	22135.64
614.907	21973.85
615.103	22125.4
615.298	22235.99
615.493	22231.9
615.688	21785.44
615.884	22094.68
616.079	21828.45
616.274	21975.9
616.47	21433.19
616.665	21818.21
616.86	21283.69
617.055	21558.11
617.25	21771.1
617.445	21951.32
617.641	21257.06
617.836	21193.58
618.031	20689.77
618.226	21257.06
618.421	21355.36
618.616	21214.05
618.811	21154.66
619.006	21224.29
619.201	20855.66
619.396	21076.84
619.591	20429.68
619.786	20738.93
619.981	20714.35
620.176	20589.42
620.371	20439.92
620.566	20370.29
620.761	20210.55
620.956	20534.13
621.151	19981.18
621.346	19970.94
621.541	19639.17
621.735	20155.26
621.93	19504
622.125	19671.93
622.32	19463.04
622.515	19516.29
622.709	19397.51
622.904	19278.72
623.099	19067.78
623.294	19143.56
623.488	18750.35
623.683	19020.68
623.878	18678.67
624.072	18604.94
624.267	18412.43
624.462	18441.11
624.656	18500.5
624.851	18432.91
625.046	18262.93
625.24	18080.66
625.435	17982.36
625.629	18240.4
625.824	17595.29
626.018	17746.84
626.213	17521.57
626.407	17568.67
626.602	17298.34
626.796	17496.99
626.991	17396.64
627.185	17136.55
627.38	17140.65
627.574	16890.79
627.768	16649.13
627.963	16591.79
628.157	16563.12
628.352	16778.15
628.546	16399.28
628.74	16280.5
628.935	16309.17
629.129	16190.39
629.323	15956.92
629.517	15967.16
629.712	16061.37
629.906	15981.49
630.1	15844.28
630.294	15776.7
630.489	15760.31
630.683	15602.62
630.877	15571.9
631.071	15481.79
631.265	15383.49
631.459	15215.55
631.653	15209.41
631.848	15156.16
632.042	14941.13
632.236	15367.1
632.43	14785.48
632.624	14992.33
632.818	14687.18
633.012	14691.27
633.206	14646.22
633.4	14674.89
633.594	14361.55
633.788	14580.68
633.982	14291.92
634.176	14437.33
634.369	14220.24
634.563	14175.19
634.757	13984.73
634.951	13972.44
635.145	13638.62
635.339	13814.74
635.533	13714.39
635.726	13908.95
635.92	13358.05
636.114	13601.76
636.308	13411.29
636.501	13579.23
636.695	13343.71
636.889	13083.62
637.083	13157.35
637.276	13016.04
637.47	12917.73
637.664	12831.72
637.857	13001.7
638.051	12710.89
638.244	12598.25
638.438	12760.04
638.632	12477.42
638.825	12456.94
639.019	12516.33
639.212	12258.29
639.406	12381.17
639.599	12379.12
639.793	12188.66
639.986	12149.75
640.18	12332.01
640.373	12088.31
640.567	11828.21
640.76	11947
640.954	11785.21
641.147	11623.42
641.34	11793.4
641.534	11588.6
641.727	11815.93
641.92	11658.23
642.114	11764.73
642.307	11471.87
642.5	11330.56
642.694	11326.46
642.887	11224.06
643.08	11121.66
643.273	11187.2
643.467	10970.12
643.66	10912.77
643.853	10988.55
644.046	10966.02
644.239	10841.09
644.432	10824.71
644.626	10621.96
644.819	10529.8
645.012	10771.46
645.205	10613.77
645.398	10585.1
645.591	10251.28
645.784	10462.22
645.977	10056.72
646.17	10327.05
646.363	10396.68
646.556	10083.34
646.749	10195.98
646.942	10083.34
647.135	10062.87
647.328	9839.64
647.521	9882.64
647.714	9767.96
647.907	9972.75
648.099	9632.79
648.292	9882.64
648.485	9542.68
648.678	9485.34
648.871	9411.61
649.064	9475.1
649.256	9471
649.449	9329.69
649.642	9323.55
649.835	9184.29
650.027	9284.64
650.22	9112.61
650.413	9110.56
650.605	9215.01
650.798	9014.31
650.991	9090.08
651.183	8999.97
651.376	8881.19
651.568	8903.71
651.761	8786.98
651.954	8873
652.146	8569.9
652.339	8743.97
652.531	8530.98
652.724	8571.94
652.916	8426.54
653.109	8510.5
653.301	8434.73
653.494	8559.66
653.686	8383.53
653.879	8438.83
654.071	8272.94
654.263	8086.58
654.456	8268.84
654.648	8172.59
654.84	8221.74
655.033	8059.95
655.225	8234.03
655.417	8127.53
655.61	7836.72
655.802	7943.22
655.994	7838.77
656.186	7791.67
656.379	7740.47
656.571	7824.44
656.763	7576.63
656.955	7869.49
657.148	7652.41
657.34	7746.61
657.532	7599.16
657.724	7738.42
657.916	7492.66
658.108	7576.63
658.3	7466.04
658.492	7492.66
658.684	7265.34
658.876	7507
659.068	7494.71
659.26	7263.29
659.452	7324.73
659.644	7257.15
659.836	7224.38
660.028	7175.23
660.22	7085.12
660.412	6904.9
660.604	7029.82
660.796	7038.02
660.988	7001.15
661.18	6833.22
661.372	6884.42
661.563	6892.61
661.755	6892.61
661.947	6984.77
662.139	6714.44
662.331	6659.14
662.522	6607.94
662.714	6730.82
662.906	6689.86
663.097	6718.53
663.289	6589.51
663.481	6564.93
663.673	6620.23
663.864	6603.85
664.056	6614.09
664.247	6521.93
664.439	6347.85
664.631	6417.48
664.822	6405.19
665.014	6272.07
665.205	6308.94
665.397	6435.91
665.588	6077.52
665.78	6241.36
665.971	6276.17
666.163	6153.29
666.354	6284.36
666.546	6206.54
666.737	5983.31
666.929	5999.7
667.12	6044.75
667.311	6057.04
667.503	5864.53
667.694	6071.37
667.885	5991.5
668.077	5950.54
668.268	5971.02
668.459	5895.25
668.651	5835.86
668.842	5815.38
669.033	5885.01
669.224	5864.53
669.416	5809.23
669.607	5805.14
669.798	5618.77
669.989	5872.72
670.18	5817.43
670.371	5698.64
670.563	5651.54
670.754	5741.65
670.945	5559.38
671.136	5676.12
671.327	5645.4
671.518	5735.51
671.709	5672.02
671.9	5665.88
672.091	5635.16
672.282	5577.81
672.473	5479.51
672.664	5639.25
672.855	5442.65
673.046	5499.99
673.237	5688.4
673.428	5442.65
673.619	5633.11
673.809	5456.98
674	5475.42
674.191	5694.55
674.382	5385.3
674.573	5370.97
674.764	5487.7
674.954	5506.13
675.145	5301.34
675.336	5313.63
675.527	5334.11
675.717	5385.3
675.908	5407.83
676.099	5254.23
676.289	5332.06
676.48	5373.02
676.671	5284.95
676.861	5354.58
677.052	5287
677.243	5305.43
677.433	5293.15
677.624	5143.64
677.814	5227.61
678.005	5276.76
678.195	5418.07
678.386	5205.08
678.576	5196.89
678.767	5233.75
678.957	5383.26
679.148	5332.06
679.338	5481.56
679.529	5309.53
679.719	5135.45
679.909	5370.97
680.1	5291.1
680.29	5309.53
680.481	5258.33
680.671	5264.47
680.861	5305.43
681.052	5209.18
681.242	5239.9
681.432	5260.38
681.622	5104.73
681.813	5194.84
682.003	5278.81
682.193	5139.55
682.383	5299.29
682.573	5309.53
682.764	5076.06
682.954	5289.05
683.144	5200.99
683.334	5135.45
683.524	5270.62
683.714	5151.84
683.904	5229.66
684.094	5223.51
684.284	5133.4
684.474	5194.84
684.664	5211.23
684.854	5137.5
685.044	5119.07
685.234	4981.85
685.424	5164.12
685.614	5147.74
685.804	5184.6
685.994	4938.85
686.184	5104.73
686.374	5170.27
686.564	5016.67
686.753	5004.38
686.943	4893.79
687.133	4977.76
687.323	4832.35
687.513	5010.53
687.702	4850.78
687.892	4791.39
688.082	4760.67
688.272	4904.03
688.461	4781.15
688.651	4764.77
688.841	4783.2
689.03	4691.04
689.22	4871.26
689.41	4873.31
689.599	4660.32
689.789	4775.01
689.979	4707.43
690.168	4596.84
690.358	4623.46
690.547	4549.73
690.737	4598.88
690.926	4656.23
691.116	4465.77
691.305	4508.77
691.495	4426.86
691.684	4385.9
691.874	4387.94
692.063	4416.62
692.252	4365.42
692.442	4482.15
692.631	4357.22
692.82	4291.69
693.01	4355.18
693.199	4377.7
693.388	4256.87
693.578	4332.65
693.767	4244.59
693.956	4308.07
694.146	4146.28
694.335	4189.29
694.524	4242.54
694.713	4138.09
694.902	4158.57
695.092	4138.09
695.281	4170.86
695.47	4172.91
695.659	4142.19
695.848	4041.84
696.037	4144.24
696.226	4357.22
696.415	4109.42
696.604	4174.95
696.793	4199.53
696.982	4138.09
697.171	4121.71
697.36	4134
697.549	4000.88
697.738	4156.52
697.927	4062.32
698.116	4031.6
698.305	4095.08
698.494	4078.7
698.683	4197.48
698.872	4011.12
699.061	4072.56
699.25	4033.65
699.438	3988.59
699.627	4064.36
699.816	4115.56
700.005	3990.64
700.193	4031.6
700.382	4078.7
700.571	4054.12
700.76	3976.3
700.948	3988.59
701.137	3996.78
701.326	4047.98
701.514	4043.88
701.703	3943.53
701.892	4070.51
702.08	4250.73
702.269	4101.23
702.457	3988.59
702.646	4045.93
702.834	3894.38
703.023	4037.74
703.212	4035.69
703.4	4115.56
703.589	4136.04
703.777	4150.38
703.965	4021.36
704.154	3964.01
704.342	3910.77
704.531	4076.65
704.719	4043.88
704.907	4158.57
705.096	4047.98
705.284	4129.9
705.472	3869.81
705.661	4140.14
705.849	4054.12
706.037	4056.17
706.226	4125.8
706.414	4119.66
706.602	4045.93
706.79	4168.81
706.979	4025.45
707.167	4187.24
707.355	4095.08
707.543	4113.52
707.731	4105.32
707.919	4088.94
708.107	4052.08
708.296	3902.58
708.484	3986.54
708.672	4222.06
708.86	4187.24
709.048	4109.42
709.236	4015.21
709.424	4111.47
709.612	4039.79
709.8	4004.97
709.988	4131.95
710.176	4234.35
710.364	4119.66
710.551	4115.56
710.739	4070.51
710.927	4177
711.115	4144.24
711.303	4240.49
711.491	4260.97
711.679	4125.8
711.866	4263.02
712.054	4099.18
712.242	4039.79
712.43	4392.04
712.617	4318.31
712.805	4193.39
712.993	4318.31
713.181	4252.78
713.368	4324.46
713.556	4254.83
713.744	4211.82
713.931	4502.63
714.119	4293.74
714.306	4383.85
714.494	4318.31
714.682	4326.5
714.869	4226.15
715.057	4250.73
715.244	4254.83
715.432	4627.56
715.619	4342.89
715.807	4279.4
715.994	4416.62
716.182	4389.99
716.369	4451.43
716.556	4437.09
716.744	4437.09
716.931	4369.51
717.119	4385.9
717.306	4334.7
717.493	4340.84
717.681	4547.69
717.868	4342.89
718.055	4447.33
718.242	4471.91
718.43	4426.86
718.617	4422.76
718.804	4387.94
718.991	4359.27
719.179	4684.9
719.366	4400.23
719.553	4519.01
719.74	4359.27
719.927	4439.14
720.114	4480.1
720.301	4404.33
720.488	4410.47
720.676	4441.19
720.863	4410.47
721.05	4600.93
721.237	4609.12
721.424	4543.59
721.611	4564.07
721.798	4344.94
721.985	4406.38
722.172	4435.05
722.358	4445.29
722.545	4660.32
722.732	4598.88
722.919	4662.37
723.106	4568.16
723.293	4598.88
723.48	4508.77
723.667	4725.86
723.853	4570.21
724.04	4643.94
724.227	4617.32
724.414	4648.04
724.6	4586.6
724.787	4527.21
724.974	4641.89
725.161	4617.32
725.347	4557.93
725.534	4619.36
725.72	4703.33
725.907	4777.06
726.094	4775.01
726.28	4414.57
726.467	4670.56
726.653	4586.6
726.84	4592.74
727.027	4734.05
727.213	4664.42
727.4	4695.14
727.586	4621.41
727.773	4551.78
727.959	4674.66
728.145	4572.26
728.332	4670.56
728.518	4596.84
728.705	4613.22
728.891	4596.84
729.077	4602.98
729.264	4598.88
729.45	4523.11
729.636	4809.83
729.823	4598.88
730.009	4840.54
730.195	4754.53
730.382	4828.26
730.568	4715.62
730.754	4580.45
730.94	4670.56
731.126	4643.94
731.313	4725.86
731.499	4695.14
731.685	4736.1
731.871	4793.44
732.057	4742.24
732.243	4695.14
732.429	4715.62
732.615	4590.69
732.801	4775.01
732.987	4813.92
733.173	4772.96
733.359	4701.28
733.545	4775.01
733.731	4600.93
733.917	4676.71
734.103	4654.18
734.289	4660.32
734.475	4607.08
734.661	4856.93
734.847	4689
735.033	4623.46
735.219	4709.47
735.404	4660.32
735.59	4805.73
735.776	4562.02
735.962	4746.34
736.148	4752.48
736.333	4582.5
736.519	4729.95
736.705	4668.52
736.89	4756.58
737.076	4637.8
737.262	4699.23
737.447	4416.62
737.633	4541.54
737.819	4584.55
738.004	4631.65
738.19	4541.54
738.375	4656.23
738.561	4566.12
738.747	4545.64
738.932	4568.16
739.118	4592.74
739.303	4686.95
739.489	4564.07
739.674	4510.82
739.859	4553.83
740.045	4510.82
740.23	4498.53
740.416	4365.42
740.601	4465.77
740.786	4557.93
740.972	4504.68
741.157	4414.57
741.342	4269.16
741.528	4408.42
741.713	4416.62
741.898	4433
742.084	4367.46
742.269	4359.27
742.454	4406.38
742.639	4516.97
742.824	4332.65
743.01	4410.47
743.195	4383.85
743.38	4316.26
743.565	4291.69
743.75	4351.08
743.935	4201.58
744.12	4357.22
744.305	4090.99
744.49	4127.85
744.675	4203.63
744.86	4152.43
745.045	4283.5
745.23	4058.22
745.415	4154.48
745.6	4177
745.785	4050.03
745.97	4070.51
746.155	4050.03
746.34	3931.25
746.525	4103.28
746.71	3996.78
746.895	3898.48
747.079	4105.32
747.264	3873.9
747.449	3945.58
747.634	3910.77
747.819	4017.26
748.003	3822.7
748.188	3746.93
748.373	3751.03
748.557	3720.31
748.742	3697.78
748.927	3769.46
749.111	3789.94
749.296	3624.05
749.481	3775.6
749.665	3609.72
749.85	3466.36
750.034	3480.69
750.219	3533.94
750.404	3525.75
750.588	3441.78
750.773	3398.77
750.957	3413.11
751.141	3449.97
751.326	3458.17
751.51	3363.96
751.695	3267.7
751.879	3333.24
752.064	3402.87
752.248	3265.66
752.432	3243.13
752.617	3327.1
752.801	3239.03
752.985	3249.27
753.17	3277.94
753.354	3224.7
753.538	3204.22
753.722	3058.81
753.907	3095.68
754.091	3044.48
754.275	3081.34
754.459	3048.57
754.643	2888.83
754.828	3038.33
755.012	2958.46
755.196	2907.26
755.38	2892.93
755.564	2821.25
755.748	2768
755.932	2907.26
756.116	2874.49
756.3	2837.63
756.484	2886.78
756.668	2909.31
756.852	2634.88
757.036	2706.56
757.22	2747.52
757.404	2575.49
757.588	2620.55
757.772	2718.85
757.956	2659.46
758.14	2620.55
758.323	2565.25
758.507	2524.29
758.691	2440.33
758.875	2501.76
759.059	2550.92
759.242	2487.43
759.426	2460.81
759.61	2481.28
759.794	2512
759.977	2477.19
760.161	2532.48
760.345	2415.75
760.528	2452.61
760.712	2458.76
760.895	2342.02
761.079	2436.23
761.263	2247.82
761.446	2335.88
761.63	2194.57
761.813	2362.5
761.997	2157.71
762.18	2176.14
762.364	2317.45
762.547	2155.66
762.731	2233.48
762.914	2143.37
763.098	2112.65
763.281	2153.61
763.464	2079.88
763.648	2126.99
763.831	2204.81
764.015	2260.1
764.198	2155.66
764.381	2161.8
764.564	2092.17
764.748	2071.69
764.931	2038.92
765.114	2051.21
765.297	2092.17
765.481	2083.98
765.664	2106.51
765.847	2010.25
766.03	2180.23
766.213	2063.5
766.397	2016.4
766.58	1981.58
766.763	2004.11
766.946	2049.16
767.129	1965.2
767.312	2038.92
767.495	1944.72
767.678	2028.68
767.861	1965.2
768.044	1991.82
768.227	1973.39
768.41	2012.3
768.593	1991.82
768.776	1891.47
768.959	1791.12
769.142	1940.62
769.324	1776.78
769.507	1850.51
769.69	1866.89
769.873	1791.12
770.056	1815.69
770.239	1811.6
770.421	1948.81
770.604	1688.72
770.787	1678.48
770.97	1838.22
771.152	1760.4
771.335	1776.78
771.518	1662.1
771.7	1793.17
771.883	1727.63
772.066	1686.67
772.248	1670.29
772.431	1703.06
772.613	1635.47
772.796	1641.62
772.978	1639.57
773.161	1721.49
773.343	1678.48
773.526	1592.47
773.708	1545.36
773.891	1541.27
774.073	1543.32
774.256	1582.23
774.438	1664.15
774.621	1508.5
774.803	1516.69
774.985	1576.08
775.168	1498.26
775.35	1625.23
775.532	1490.07
775.715	1551.51
775.897	1447.06
776.079	1526.93
776.261	1545.36
776.444	1473.68
776.626	1453.2
776.808	1410.2
776.99	1336.47
777.173	1481.88
777.355	1471.64
777.537	1356.95
777.719	1281.18
777.901	1447.06
778.083	1326.23
778.265	1346.71
778.447	1324.18
778.629	1254.55
778.811	1328.28
778.993	1361.05
779.175	1330.33
779.357	1348.76
779.539	1256.6
779.721	1287.32
779.903	1164.44
780.085	1201.3
780.267	1186.97
780.449	1111.19
780.631	1219.74
780.812	1207.45
780.994	1176.73
781.176	1225.88
781.358	1105.05
781.54	1184.92
781.721	1080.47
781.903	1170.58
782.085	1062.04
782.267	1119.39
782.448	1133.72
782.63	1072.28
782.812	1055.9
782.993	1096.86
783.175	1035.42
783.357	1064.09
783.538	1121.43
783.72	1049.75
783.901	969.88
784.083	1002.65
784.264	996.51
784.446	1039.51
784.627	969.88
784.809	1100.95
784.99	965.79
785.172	969.88
785.353	945.31
785.535	1027.23
785.716	918.68
785.897	892.06
786.079	910.49
786.26	871.58
786.441	922.78
786.623	861.34
786.804	928.92
786.985	939.16
787.167	879.77
787.348	855.2
787.529	840.86
787.71	1021.08
787.891	730.27
788.073	795.81
788.254	806.05
788.435	873.63
788.616	797.85
788.797	750.75
788.978	902.3
789.159	781.47
789.34	812.19
789.522	816.29
789.703	728.22
789.884	816.29
790.065	744.61
790.246	842.91
790.427	773.28
790.607	838.81
790.788	849.05
790.969	701.6
791.15	742.56
791.331	736.42
791.512	677.02
791.693	705.7
791.874	679.07
792.054	812.19
792.235	738.46
792.416	722.08
792.597	619.68
792.778	595.11
792.958	738.46
793.139	693.41
793.32	703.65
793.5	615.59
793.681	715.94
793.862	687.26
794.042	644.26
794.223	568.48
794.404	691.36
794.584	564.39
794.765	607.39
794.945	720.03
795.126	599.2
795.306	730.27
795.487	685.22
795.667	674.98
795.848	593.06
796.028	560.29
796.209	609.44
796.389	572.58
796.57	674.98
796.75	539.81
796.93	644.26
797.111	519.33
797.291	550.05
797.471	638.11
797.652	543.91
797.832	523.43
798.012	605.35
798.192	615.59
798.373	511.14
798.553	548
798.733	611.49
798.913	445.6
799.093	556.19
799.274	525.47
799.454	605.35
799.634	513.19
799.814	537.76
799.994	492.71
800.174	543.91
800.354	523.43
800.534	425.12
800.714	644.26
800.894	509.09
801.074	513.19
801.254	484.52
801.434	449.7
801.614	500.9
801.794	474.28
801.974	1395.86
802.154	494.76
802.334	468.13
802.514	482.47
802.693	521.38
802.873	427.17
803.053	554.15
803.233	472.23
803.413	408.74
803.592	433.32
803.772	461.99
803.952	414.88
804.131	367.78
804.311	410.79
804.491	468.13
804.67	470.18
804.85	402.6
805.03	461.99
805.209	476.32
805.389	490.66
805.568	382.12
805.748	310.44
805.928	406.69
806.107	363.69
806.287	406.69
806.466	425.12
806.646	421.03
806.825	418.98
807.004	373.92
807.184	365.73
807.363	392.36
807.543	486.56
807.722	349.35
807.901	474.28
808.081	429.22
808.26	302.25
808.439	423.08
808.619	423.08
808.798	425.12
808.977	406.69
809.156	353.45
809.336	273.57
809.515	414.88
809.694	384.16
809.873	367.78
810.052	443.56
810.231	369.83
810.411	375.97
810.59	425.12
810.769	375.97
810.948	418.98
811.127	347.3
811.306	369.83
811.485	330.92
811.664	459.94
811.843	390.31
812.022	341.16
812.201	265.38
812.38	285.86
812.559	353.45
812.737	392.36
812.916	232.62
813.095	341.16
813.274	339.11
813.453	351.4
813.632	410.79
813.811	320.68
813.989	294.05
814.168	375.97
814.347	328.87
814.526	382.12
814.704	351.4
814.883	285.86
815.062	277.67
815.24	371.88
815.419	322.73
815.598	361.64
815.776	343.21
815.955	240.81
816.133	322.73
816.312	289.96
816.49	271.53
816.669	359.59
816.847	289.96
817.026	302.25
817.204	259.24
817.383	273.57
817.561	265.38
817.74	378.02
817.918	240.81
818.097	269.48
818.275	306.34
818.453	304.29
818.632	312.49
818.81	277.67
818.988	263.33
819.167	261.29
819.345	369.83
819.523	251.05
819.701	367.78
819.879	330.92
820.058	298.15
820.236	265.38
820.414	292.01
820.592	279.72
820.77	257.19
820.948	269.48
821.127	300.2
821.305	226.47
821.483	226.47
821.661	226.47
821.839	261.29
822.017	261.29
822.195	312.49
822.373	246.95
822.551	281.77
822.729	216.23
822.907	224.42
823.085	269.48
823.262	269.48
823.44	216.23
823.618	269.48
823.796	304.29
823.974	220.33
824.152	156.84
824.329	124.07
824.507	216.23
824.685	246.95
824.863	208.04
825.04	113.83
825.218	302.25
825.396	236.71
825.574	232.62
825.751	228.52
825.929	265.38
826.107	185.51
826.284	203.94
826.462	220.33
826.639	191.66
826.817	212.14
826.994	220.33
827.172	181.42
827.349	244.9
827.527	205.99
827.704	187.56
827.882	208.04
828.059	226.47
828.237	167.08
828.414	269.48
828.591	138.41
828.769	195.75
828.946	220.33
829.124	214.18
829.301	255.14
829.478	212.14
829.655	220.33
829.833	226.47
830.01	97.45
830.187	208.04
830.364	238.76
830.542	195.75
830.719	294.05
830.896	238.76
831.073	236.71
831.25	111.78
831.427	214.18
831.604	212.14
831.782	138.41
831.959	179.37
832.136	142.5
832.313	191.66
832.49	103.59
832.667	253.09
832.844	158.89
833.021	199.85
833.198	203.94
833.374	148.65
833.551	214.18
833.728	189.61
833.905	169.13
834.082	101.55
834.259	76.97
834.436	265.38
834.612	54.44
834.789	208.04
834.966	220.33
835.143	212.14
835.319	122.02
835.496	115.88
835.673	177.32
835.85	179.37
836.026	169.13
836.203	283.81
836.38	179.37
836.556	66.73
836.733	130.22
836.909	156.84
837.086	156.84
837.262	72.87
837.439	97.45
837.616	97.45
837.792	126.12
837.968	224.42
838.145	87.21
838.321	181.42
838.498	210.09
838.674	191.66
838.851	115.88
839.027	142.5
839.203	126.12
839.38	140.46
839.556	142.5
839.732	165.03
839.909	160.94
840.085	115.88
840.261	156.84
840.437	132.26
840.614	162.98
840.79	160.94
840.966	203.94
841.142	124.07
841.318	107.69
841.494	173.22
841.671	70.83
841.847	76.97
842.023	64.68
842.199	122.02
842.375	68.78
842.551	74.92
842.727	105.64
842.903	175.27
843.079	130.22
843.255	189.61
843.431	177.32
843.607	130.22
843.783	42.15
843.959	142.5
844.134	142.5
844.31	111.78
844.486	177.32
844.662	101.55
844.838	134.31
845.013	173.22
845.189	117.93
845.365	76.97
845.541	117.93
845.716	173.22
845.892	122.02
846.068	130.22
846.244	97.45
846.419	130.22
846.595	5.29
846.77	48.3
846.946	91.31
847.122	81.07
847.297	105.64
847.473	179.37
847.648	38.06
847.824	74.92
847.999	103.59
848.175	93.35
848.35	142.5
848.526	189.61
848.701	93.35
848.876	169.13
849.052	146.6
849.227	193.7
849.403	140.46
849.578	124.07
849.753	89.26
849.929	97.45
850.104	19.63
850.279	136.36
850.454	171.18
850.63	154.79
850.805	95.4
850.98	81.07
851.155	56.49
851.33	15.53
851.505	60.59
851.681	138.41
851.856	81.07
852.031	132.26
852.206	23.72
852.381	36.01
852.556	117.93
852.731	97.45
852.906	85.16
853.081	74.92
853.256	128.17
853.431	89.26
853.606	85.16
853.781	25.77
853.956	76.97
854.131	97.45
854.305	74.92
854.48	23.72
854.655	33.96
854.83	72.87
855.005	111.78
855.18	38.06
855.354	56.49
855.529	93.35
855.704	52.39
855.879	93.35
856.053	31.91
856.228	83.11
856.403	50.35
856.577	56.49
856.752	-41.81
856.926	130.22
857.101	150.7
857.276	40.11
857.45	171.18
857.625	97.45
857.799	111.78
857.974	85.16
858.148	52.39
858.323	91.31
858.497	25.77
858.672	31.91
858.846	62.63
859.02	115.88
859.195	74.92
859.369	33.96
859.543	74.92
859.718	38.06
859.892	25.77
860.066	83.11
860.241	7.34
860.415	72.87
860.589	-15.19
860.763	-0.85
860.938	66.73
861.112	107.69
861.286	23.72
861.46	85.16
861.634	-39.76
861.808	58.54
861.982	-11.09
862.157	31.91
862.331	19.63
862.505	-27.48
862.679	48.3
862.853	68.78
863.027	-0.85
863.201	130.22
863.375	64.68
863.549	79.02
863.722	7.34
863.896	72.87
864.07	-0.85
864.244	60.59
864.418	113.83
864.592	72.87
864.766	40.11
864.939	95.4
865.113	19.63
865.287	132.26
865.461	13.48
865.634	138.41
865.808	7.34
865.982	40.11
866.156	44.2
866.329	-0.85
866.503	79.02
866.676	99.5
866.85	-7
867.024	-21.33
867.197	97.45
867.371	89.26
867.544	113.83
867.718	-39.76
867.891	44.2
868.065	91.31
868.238	130.22
868.412	48.3
868.585	38.06
868.759	33.96
868.932	13.48
869.105	-45.91
869.279	58.54
869.452	52.39
869.625	109.74
869.799	1.19
869.972	5.29
870.145	19.63
870.319	119.98
870.492	54.44
870.665	48.3
870.838	29.87
871.011	68.78
871.185	-17.24
871.358	3.24
871.531	95.4
871.704	7.34
871.877	33.96
872.05	87.21
872.223	-11.09
872.396	74.92
872.569	64.68
872.742	-37.72
872.915	122.02
873.088	23.72
873.261	-0.85
873.434	79.02
873.607	15.53
873.78	140.46
873.953	7.34
874.126	-47.96
874.299	68.78
874.471	31.91
874.644	1.19
874.817	40.11
874.99	64.68
875.163	17.58
875.335	85.16
875.508	64.68
875.681	72.87
875.853	17.58
876.026	44.2
876.199	107.69
876.371	-17.24
876.544	87.21
876.717	66.73
876.889	-66.39
877.062	83.11
877.234	21.67
877.407	74.92
877.579	74.92
877.752	81.07
877.924	25.77
878.097	50.35
878.269	105.64
878.442	56.49
878.614	130.22
878.786	74.92
878.959	56.49
879.131	74.92
879.303	-15.19
879.476	62.63
879.648	72.87
879.82	33.96
879.993	42.15
880.165	-9.05
880.337	-50
880.509	107.69
880.681	5.29
880.854	5.29
881.026	36.01
881.198	89.26
881.37	68.78
881.542	56.49
881.714	33.96
881.886	40.11
882.058	9.39
882.23	15.53
882.402	-33.62
882.574	13.48
882.746	156.84
882.918	191.66
883.09	58.54
883.262	72.87
883.434	23.72
883.606	15.53
883.778	-0.85
883.95	36.01
884.122	81.07
884.293	97.45
884.465	66.73
884.637	87.21
884.809	-33.62
884.98	1.19
885.152	36.01
885.324	107.69
885.496	-2.9
885.667	25.77
885.839	25.77
886.011	103.59
886.182	46.25
886.354	-7
886.525	-2.9
886.697	60.59
886.869	3.24
887.04	-50
887.212	52.39
887.383	134.31
887.555	70.83
887.726	7.34
887.897	5.29
888.069	105.64
888.24	38.06
888.412	23.72
888.583	54.44
888.754	25.77
888.926	27.82
889.097	17.58
889.268	3.24
889.44	62.63
889.611	-66.39
889.782	-13.14
889.953	-50
890.125	46.25
890.296	-21.33
890.467	44.2
890.638	-4.95
890.809	7.34
890.98	11.43
891.151	58.54
891.323	9.39
891.494	23.72
891.665	60.59
891.836	138.41
892.007	-19.29
892.178	79.02
892.349	50.35
892.52	17.58
892.691	9.39
892.862	-23.38
893.032	64.68
893.203	21.67
893.374	27.82
893.545	85.16
893.716	76.97
893.887	79.02
894.057	60.59
894.228	62.63
894.399	36.01
894.57	72.87
894.74	56.49
894.911	-4.95
895.082	-0.85
895.253	11.43
895.423	-15.19
895.594	56.49
895.764	79.02
895.935	36.01
896.106	9.39
896.276	23.72
896.447	-4.95
896.617	11.43
896.788	15.53
896.958	19.63
897.129	-72.53
897.299	38.06
897.47	58.54
897.64	105.64
897.81	40.11
897.981	13.48
898.151	-37.72
898.322	46.25
898.492	105.64
898.662	56.49
898.832	-41.81
899.003	50.35
899.173	79.02
899.343	11.43
899.513	33.96
