Data from USB4F104151__22__13-04-40-289.txt Node

Date: Fri Mar 14 13:04:40 EDT 2025
User: louis
Spectrometer: USB4F10415
Trigger mode: 4
Integration Time (sec): 4.000000E-2
Scans to average: 1
Electric dark correction enabled: true
Nonlinearity correction enabled: false
Boxcar width: 0
XAxis mode: Wavelengths
Number of Pixels in Spectrum: 3648
>>>>>Begin Spectral Data<<<<<
178.204	-129.88
178.424	-129.88
178.644	-129.88
178.864	-86.87
179.084	-150.36
179.304	-35.67
179.524	54.44
179.744	-64.34
179.964	44.2
180.184	33.96
180.404	7.34
180.624	-29.52
180.844	7.34
181.064	-58.2
181.283	-37.72
181.503	36.01
181.723	42.15
181.943	23.72
182.163	148.65
182.383	54.44
182.602	97.45
182.822	103.59
183.042	29.87
183.262	46.25
183.482	19.63
183.701	52.39
183.921	138.41
184.141	25.77
184.361	109.74
184.58	91.31
184.8	52.39
185.02	72.87
185.239	68.78
185.459	7.34
185.679	68.78
185.898	-68.44
186.118	62.63
186.338	85.16
186.557	101.55
186.777	21.67
186.997	19.63
187.216	46.25
187.436	97.45
187.655	23.72
187.875	138.41
188.095	109.74
188.314	83.11
188.534	83.11
188.753	68.78
188.973	72.87
189.192	142.5
189.412	50.35
189.631	64.68
189.851	76.97
190.07	21.67
190.29	62.63
190.509	42.15
190.729	38.06
190.948	122.02
191.168	222.38
191.387	89.26
191.607	36.01
191.826	36.01
192.045	44.2
192.265	-4.95
192.484	70.83
192.704	11.43
192.923	25.77
193.142	169.13
193.362	60.59
193.581	107.69
193.8	93.35
194.02	99.5
194.239	56.49
194.458	87.21
194.678	58.54
194.897	87.21
195.116	29.87
195.335	38.06
195.555	105.64
195.774	27.82
195.993	70.83
196.212	105.64
196.432	60.59
196.651	52.39
196.87	83.11
197.089	173.22
197.308	126.12
197.528	68.78
197.747	3.24
197.966	68.78
198.185	85.16
198.404	46.25
198.623	87.21
198.842	46.25
199.062	103.59
199.281	101.55
199.5	56.49
199.719	122.02
199.938	70.83
200.157	27.82
200.376	103.59
200.595	46.25
200.814	3.24
201.033	54.44
201.252	122.02
201.471	72.87
201.69	115.88
201.909	76.97
202.128	15.53
202.347	85.16
202.566	122.02
202.785	-0.85
203.004	31.91
203.223	183.46
203.442	5.29
203.661	11.43
203.879	29.87
204.098	21.67
204.317	1.19
204.536	54.44
204.755	46.25
204.974	81.07
205.193	107.69
205.411	70.83
205.63	111.78
205.849	46.25
206.068	97.45
206.287	-31.57
206.505	-13.14
206.724	68.78
206.943	23.72
207.162	97.45
207.381	38.06
207.599	1.19
207.818	50.35
208.037	130.22
208.255	21.67
208.474	27.82
208.693	58.54
208.911	40.11
209.13	56.49
209.349	146.6
209.567	68.78
209.786	91.31
210.005	58.54
210.223	5.29
210.442	-4.95
210.661	95.4
210.879	-29.52
211.098	64.68
211.316	81.07
211.535	-31.57
211.753	62.63
211.972	140.46
212.191	81.07
212.409	36.01
212.628	126.12
212.846	19.63
213.065	72.87
213.283	152.74
213.502	74.92
213.72	19.63
213.938	52.39
214.157	113.83
214.375	99.5
214.594	126.12
214.812	70.83
215.031	109.74
215.249	27.82
215.467	68.78
215.686	-27.48
215.904	126.12
216.122	50.35
216.341	126.12
216.559	60.59
216.778	128.17
216.996	144.55
217.214	31.91
217.432	21.67
217.651	58.54
217.869	103.59
218.087	83.11
218.306	52.39
218.524	130.22
218.742	19.63
218.96	70.83
219.179	-9.05
219.397	58.54
219.615	85.16
219.833	115.88
220.051	-0.85
220.27	93.35
220.488	101.55
220.706	64.68
220.924	109.74
221.142	42.15
221.36	42.15
221.578	48.3
221.796	36.01
222.015	89.26
222.233	68.78
222.451	150.7
222.669	68.78
222.887	74.92
223.105	68.78
223.323	11.43
223.541	13.48
223.759	103.59
223.977	-52.05
224.195	89.26
224.413	19.63
224.631	29.87
224.849	15.53
225.067	109.74
225.285	103.59
225.503	52.39
225.721	-4.95
225.939	68.78
226.157	103.59
226.375	148.65
226.592	-0.85
226.81	-2.9
227.028	136.36
227.246	142.5
227.464	70.83
227.682	60.59
227.9	70.83
228.117	79.02
228.335	17.58
228.553	38.06
228.771	93.35
228.989	52.39
229.206	93.35
229.424	56.49
229.642	27.82
229.86	19.63
230.077	76.97
230.295	72.87
230.513	117.93
230.731	36.01
230.948	56.49
231.166	64.68
231.384	38.06
231.601	21.67
231.819	124.07
232.037	76.97
232.254	33.96
232.472	17.58
232.689	68.78
232.907	103.59
233.125	13.48
233.342	85.16
233.56	62.63
233.777	27.82
233.995	79.02
234.213	158.89
234.43	109.74
234.648	23.72
234.865	11.43
235.083	64.68
235.3	36.01
235.518	142.5
235.735	152.74
235.953	62.63
236.17	7.34
236.388	46.25
236.605	93.35
236.822	21.67
237.04	187.56
237.257	60.59
237.475	9.39
237.692	13.48
237.909	25.77
238.127	70.83
238.344	79.02
238.562	38.06
238.779	15.53
238.996	11.43
239.214	58.54
239.431	85.16
239.648	52.39
239.865	52.39
240.083	99.5
240.3	27.82
240.517	54.44
240.735	60.59
240.952	124.07
241.169	81.07
241.386	70.83
241.603	29.87
241.821	21.67
242.038	36.01
242.255	122.02
242.472	11.43
242.689	62.63
242.907	93.35
243.124	93.35
243.341	48.3
243.558	-50
243.775	119.98
243.992	19.63
244.209	21.67
244.426	128.17
244.643	38.06
244.86	5.29
245.078	93.35
245.295	13.48
245.512	64.68
245.729	27.82
245.946	146.6
246.163	109.74
246.38	97.45
246.597	72.87
246.814	66.73
247.031	-2.9
247.248	87.21
247.464	-0.85
247.681	128.17
247.898	21.67
248.115	85.16
248.332	48.3
248.549	126.12
248.766	130.22
248.983	105.64
249.2	44.2
249.417	62.63
249.633	74.92
249.85	29.87
250.067	68.78
250.284	-4.95
250.501	103.59
250.717	99.5
250.934	40.11
251.151	40.11
251.368	21.67
251.585	70.83
251.801	99.5
252.018	-43.86
252.235	40.11
252.451	23.72
252.668	9.39
252.885	83.11
253.102	60.59
253.318	27.82
253.535	56.49
253.752	62.63
253.968	29.87
254.185	-0.85
254.401	36.01
254.618	124.07
254.835	79.02
255.051	216.23
255.268	58.54
255.484	23.72
255.701	103.59
255.917	93.35
256.134	89.26
256.351	85.16
256.567	50.35
256.784	54.44
257	-13.14
257.217	64.68
257.433	62.63
257.65	91.31
257.866	76.97
258.082	23.72
258.299	21.67
258.515	70.83
258.732	50.35
258.948	70.83
259.165	99.5
259.381	58.54
259.597	68.78
259.814	-7
260.03	-17.24
260.246	52.39
260.463	205.99
260.679	48.3
260.895	105.64
261.112	81.07
261.328	13.48
261.544	48.3
261.761	169.13
261.977	52.39
262.193	19.63
262.409	70.83
262.626	124.07
262.842	64.68
263.058	11.43
263.274	66.73
263.49	162.98
263.707	122.02
263.923	68.78
264.139	-9.05
264.355	93.35
264.571	68.78
264.787	89.26
265.004	23.72
265.22	25.77
265.436	109.74
265.652	9.39
265.868	152.74
266.084	66.73
266.3	52.39
266.516	-9.05
266.732	42.15
266.948	83.11
267.164	-37.72
267.38	76.97
267.596	122.02
267.812	128.17
268.028	31.91
268.244	29.87
268.46	76.97
268.676	21.67
268.892	81.07
269.108	-62.29
269.324	44.2
269.54	-52.05
269.756	115.88
269.972	52.39
270.188	19.63
270.403	-35.67
270.619	46.25
270.835	87.21
271.051	44.2
271.267	68.78
271.483	81.07
271.698	29.87
271.914	29.87
272.13	76.97
272.346	-23.38
272.562	58.54
272.777	83.11
272.993	113.83
273.209	21.67
273.425	72.87
273.64	169.13
273.856	79.02
274.072	40.11
274.287	38.06
274.503	103.59
274.719	58.54
274.934	66.73
275.15	19.63
275.366	56.49
275.581	-2.9
275.797	76.97
276.012	60.59
276.228	7.34
276.444	54.44
276.659	101.55
276.875	54.44
277.09	56.49
277.306	79.02
277.521	74.92
277.737	122.02
277.952	27.82
278.168	72.87
278.383	44.2
278.599	95.4
278.814	130.22
279.03	52.39
279.245	83.11
279.461	-13.14
279.676	85.16
279.892	89.26
280.107	15.53
280.322	85.16
280.538	-4.95
280.753	62.63
280.969	62.63
281.184	27.82
281.399	136.36
281.615	56.49
281.83	117.93
282.045	27.82
282.26	-4.95
282.476	21.67
282.691	99.5
282.906	40.11
283.122	85.16
283.337	11.43
283.552	142.5
283.767	64.68
283.983	150.7
284.198	95.4
284.413	72.87
284.628	117.93
284.843	76.97
285.058	93.35
285.274	29.87
285.489	76.97
285.704	52.39
285.919	56.49
286.134	40.11
286.349	101.55
286.564	99.5
286.779	105.64
286.995	54.44
287.21	62.63
287.425	107.69
287.64	44.2
287.855	68.78
288.07	13.48
288.285	29.87
288.5	85.16
288.715	52.39
288.93	27.82
289.145	76.97
289.36	40.11
289.575	128.17
289.79	97.45
290.004	44.2
290.219	89.26
290.434	64.68
290.649	60.59
290.864	36.01
291.079	-23.38
291.294	171.18
291.509	76.97
291.724	76.97
291.938	23.72
292.153	107.69
292.368	11.43
292.583	-58.2
292.798	64.68
293.012	48.3
293.227	62.63
293.442	85.16
293.657	68.78
293.871	138.41
294.086	21.67
294.301	136.36
294.516	95.4
294.73	25.77
294.945	48.3
295.16	122.02
295.374	134.31
295.589	101.55
295.804	9.39
296.018	79.02
296.233	70.83
296.447	54.44
296.662	-13.14
296.877	72.87
297.091	23.72
297.306	11.43
297.52	54.44
297.735	9.39
297.949	109.74
298.164	74.92
298.378	46.25
298.593	27.82
298.807	62.63
299.022	119.98
299.236	101.55
299.451	27.82
299.665	79.02
299.88	48.3
300.094	-19.29
300.309	60.59
300.523	101.55
300.737	85.16
300.952	64.68
301.166	44.2
301.381	85.16
301.595	33.96
301.809	62.63
302.024	40.11
302.238	7.34
302.452	38.06
302.667	27.82
302.881	113.83
303.095	56.49
303.309	48.3
303.524	60.59
303.738	99.5
303.952	5.29
304.166	76.97
304.381	-9.05
304.595	89.26
304.809	117.93
305.023	66.73
305.237	27.82
305.452	85.16
305.666	85.16
305.88	113.83
306.094	95.4
306.308	79.02
306.522	111.78
306.736	95.4
306.95	64.68
307.164	81.07
307.379	44.2
307.593	103.59
307.807	68.78
308.021	50.35
308.235	154.79
308.449	48.3
308.663	-0.85
308.877	81.07
309.091	89.26
309.305	119.98
309.519	7.34
309.733	101.55
309.947	46.25
310.161	89.26
310.374	72.87
310.588	70.83
310.802	25.77
311.016	-29.52
311.23	97.45
311.444	29.87
311.658	60.59
311.872	27.82
312.085	44.2
312.299	68.78
312.513	81.07
312.727	150.7
312.941	50.35
313.154	56.49
313.368	91.31
313.582	76.97
313.796	-15.19
314.009	40.11
314.223	136.36
314.437	38.06
314.651	54.44
314.864	76.97
315.078	68.78
315.292	52.39
315.505	46.25
315.719	25.77
315.933	15.53
316.146	76.97
316.36	-11.09
316.573	93.35
316.787	60.59
317.001	56.49
317.214	70.83
317.428	66.73
317.641	91.31
317.855	66.73
318.068	66.73
318.282	60.59
318.495	136.36
318.709	126.12
318.922	9.39
319.136	158.89
319.349	126.12
319.563	85.16
319.776	79.02
319.99	60.59
320.203	79.02
320.417	154.79
320.63	76.97
320.843	95.4
321.057	68.78
321.27	25.77
321.483	79.02
321.697	158.89
321.91	17.58
322.124	85.16
322.337	70.83
322.55	13.48
322.763	44.2
322.977	-7
323.19	60.59
323.403	52.39
323.617	95.4
323.83	44.2
324.043	27.82
324.256	85.16
324.469	83.11
324.683	38.06
324.896	124.07
325.109	19.63
325.322	54.44
325.535	70.83
325.748	113.83
325.962	48.3
326.175	56.49
326.388	48.3
326.601	128.17
326.814	23.72
327.027	52.39
327.24	-2.9
327.453	40.11
327.666	72.87
327.879	154.79
328.092	119.98
328.305	33.96
328.518	-2.9
328.731	81.07
328.944	31.91
329.157	64.68
329.37	5.29
329.583	111.78
329.796	142.5
330.009	29.87
330.222	119.98
330.435	134.31
330.648	136.36
330.861	117.93
331.073	85.16
331.286	79.02
331.499	72.87
331.712	93.35
331.925	115.88
332.138	113.83
332.35	130.22
332.563	7.34
332.776	140.46
332.989	72.87
333.202	-17.24
333.414	74.92
333.627	13.48
333.84	36.01
334.053	93.35
334.265	46.25
334.478	-21.33
334.691	60.59
334.903	33.96
335.116	15.53
335.329	79.02
335.541	64.68
335.754	126.12
335.966	46.25
336.179	111.78
336.392	54.44
336.604	-0.85
336.817	101.55
337.029	79.02
337.242	29.87
337.454	87.21
337.667	68.78
337.88	167.08
338.092	13.48
338.305	109.74
338.517	31.91
338.729	119.98
338.942	111.78
339.154	31.91
339.367	89.26
339.579	89.26
339.792	25.77
340.004	70.83
340.217	87.21
340.429	60.59
340.641	11.43
340.854	38.06
341.066	79.02
341.278	126.12
341.491	109.74
341.703	109.74
341.915	9.39
342.128	83.11
342.34	109.74
342.552	70.83
342.764	85.16
342.977	46.25
343.189	56.49
343.401	74.92
343.613	-4.95
343.826	21.67
344.038	-23.38
344.25	124.07
344.462	42.15
344.674	52.39
344.886	23.72
345.099	58.54
345.311	15.53
345.523	44.2
345.735	9.39
345.947	134.31
346.159	15.53
346.371	40.11
346.583	87.21
346.795	101.55
347.007	38.06
347.219	44.2
347.431	13.48
347.643	31.91
347.855	25.77
348.067	197.8
348.279	46.25
348.491	101.55
348.703	62.63
348.915	52.39
349.127	23.72
349.339	95.4
349.551	115.88
349.763	68.78
349.975	25.77
350.187	74.92
350.399	117.93
350.61	103.59
350.822	79.02
351.034	44.2
351.246	85.16
351.458	44.2
351.669	111.78
351.881	146.6
352.093	101.55
352.305	122.02
352.517	58.54
352.728	136.36
352.94	62.63
353.152	119.98
353.363	42.15
353.575	85.16
353.787	103.59
353.999	19.63
354.21	132.26
354.422	111.78
354.633	3.24
354.845	62.63
355.057	142.5
355.268	70.83
355.48	25.77
355.692	79.02
355.903	31.91
356.115	70.83
356.326	81.07
356.538	68.78
356.749	46.25
356.961	152.74
357.172	99.5
357.384	21.67
357.595	220.33
357.807	17.58
358.018	21.67
358.23	72.87
358.441	109.74
358.653	142.5
358.864	99.5
359.075	-7
359.287	154.79
359.498	93.35
359.709	122.02
359.921	29.87
360.132	117.93
360.344	-0.85
360.555	70.83
360.766	93.35
360.977	46.25
361.189	52.39
361.4	44.2
361.611	66.73
361.823	126.12
362.034	85.16
362.245	15.53
362.456	126.12
362.667	99.5
362.879	48.3
363.09	29.87
363.301	103.59
363.512	81.07
363.723	68.78
363.935	79.02
364.146	115.88
364.357	140.46
364.568	111.78
364.779	44.2
364.99	150.7
365.201	76.97
365.412	126.12
365.623	-29.52
365.834	54.44
366.045	87.21
366.256	64.68
366.467	62.63
366.678	-25.43
366.889	38.06
367.1	11.43
367.311	99.5
367.522	48.3
367.733	152.74
367.944	136.36
368.155	91.31
368.366	109.74
368.577	122.02
368.788	111.78
368.999	66.73
369.209	103.59
369.42	128.17
369.631	119.98
369.842	91.31
370.053	48.3
370.264	122.02
370.474	58.54
370.685	93.35
370.896	93.35
371.107	119.98
371.317	58.54
371.528	13.48
371.739	101.55
371.95	46.25
372.16	21.67
372.371	91.31
372.582	111.78
372.792	68.78
373.003	85.16
373.214	56.49
373.424	60.59
373.635	5.29
373.846	54.44
374.056	21.67
374.267	105.64
374.477	113.83
374.688	105.64
374.898	103.59
375.109	160.94
375.319	93.35
375.53	105.64
375.74	109.74
375.951	81.07
376.161	83.11
376.372	103.59
376.582	79.02
376.793	111.78
377.003	91.31
377.214	54.44
377.424	105.64
377.635	97.45
377.845	-19.29
378.055	150.7
378.266	29.87
378.476	-19.29
378.686	74.92
378.897	9.39
379.107	113.83
379.317	81.07
379.528	19.63
379.738	103.59
379.948	74.92
380.158	17.58
380.369	-2.9
380.579	111.78
380.789	115.88
380.999	165.03
381.21	173.22
381.42	142.5
381.63	17.58
381.84	101.55
382.05	154.79
382.261	103.59
382.471	83.11
382.681	81.07
382.891	105.64
383.101	136.36
383.311	40.11
383.521	117.93
383.731	109.74
383.941	76.97
384.151	60.59
384.361	97.45
384.571	101.55
384.781	134.31
384.991	117.93
385.201	175.27
385.411	115.88
385.621	140.46
385.831	128.17
386.041	44.2
386.251	140.46
386.461	167.08
386.671	11.43
386.881	91.31
387.091	68.78
387.301	169.13
387.511	93.35
387.72	89.26
387.93	40.11
388.14	79.02
388.35	85.16
388.56	79.02
388.769	103.59
388.979	128.17
389.189	7.34
389.399	173.22
389.609	146.6
389.818	173.22
390.028	177.32
390.238	124.07
390.447	-35.67
390.657	138.41
390.867	152.74
391.076	11.43
391.286	21.67
391.496	142.5
391.705	89.26
391.915	128.17
392.125	126.12
392.334	68.78
392.544	154.79
392.753	119.98
392.963	1.19
393.172	95.4
393.382	79.02
393.591	185.51
393.801	91.31
394.01	87.21
394.22	167.08
394.429	119.98
394.639	68.78
394.848	138.41
395.058	119.98
395.267	-19.29
395.477	158.89
395.686	76.97
395.895	244.9
396.105	193.7
396.314	193.7
396.524	130.22
396.733	111.78
396.942	99.5
397.152	130.22
397.361	130.22
397.57	81.07
397.78	95.4
397.989	126.12
398.198	203.94
398.407	76.97
398.617	101.55
398.826	193.7
399.035	158.89
399.244	177.32
399.453	144.55
399.663	128.17
399.872	142.5
400.081	64.68
400.29	175.27
400.499	79.02
400.708	136.36
400.917	122.02
401.127	95.4
401.336	105.64
401.545	193.7
401.754	95.4
401.963	183.46
402.172	148.65
402.381	85.16
402.59	169.13
402.799	122.02
403.008	189.61
403.217	117.93
403.426	126.12
403.635	150.7
403.844	169.13
404.053	105.64
404.262	142.5
404.471	208.04
404.68	160.94
404.888	171.18
405.097	165.03
405.306	208.04
405.515	236.71
405.724	191.66
405.933	234.66
406.142	199.85
406.35	310.44
406.559	203.94
406.768	152.74
406.977	249
407.185	199.85
407.394	191.66
407.603	167.08
407.812	220.33
408.02	314.53
408.229	234.66
408.438	175.27
408.646	210.09
408.855	287.91
409.064	292.01
409.272	232.62
409.481	298.15
409.69	195.75
409.898	287.91
410.107	308.39
410.315	365.73
410.524	261.29
410.733	304.29
410.941	279.72
411.15	320.68
411.358	378.02
411.567	459.94
411.775	437.41
411.984	517.28
412.192	494.76
412.401	406.69
412.609	480.42
412.818	474.28
413.026	550.05
413.234	466.08
413.443	572.58
413.651	478.37
413.86	562.34
414.068	593.06
414.276	629.92
414.485	568.48
414.693	588.96
414.901	752.8
415.11	715.94
415.318	736.42
415.526	674.98
415.734	773.28
415.943	726.18
416.151	765.09
416.359	818.33
416.567	779.42
416.776	885.92
416.984	939.16
417.192	904.35
417.4	920.73
417.608	1004.7
417.817	988.32
418.025	941.21
418.233	1236.12
418.441	1105.05
418.649	1133.72
418.857	1166.49
419.065	1270.94
419.273	1207.45
419.481	1225.88
419.689	1438.87
419.897	1330.33
420.105	1424.53
420.313	1533.08
420.521	1512.6
420.729	1543.32
420.937	1619.09
421.145	1539.22
421.353	1719.44
421.561	1862.8
421.769	1885.33
421.977	2002.06
422.185	1914
422.393	2016.4
422.601	2190.47
422.809	2112.65
423.017	2106.51
423.224	2327.69
423.432	2350.21
423.64	2430.09
423.848	2569.35
424.056	2503.81
424.263	2708.61
424.471	2759.81
424.679	2706.56
424.887	2894.97
425.094	2929.79
425.302	2956.41
425.51	3095.68
425.718	3167.35
425.925	3255.42
426.133	3320.95
426.341	3656.82
426.548	3648.63
426.756	3693.68
426.964	3683.44
427.171	3980.4
427.379	4007.02
427.586	4101.23
427.794	4144.24
428.001	4344.94
428.209	4549.73
428.417	4574.31
428.624	5039.2
428.832	4844.64
429.039	4793.44
429.247	4944.99
429.454	5323.87
429.662	5688.4
429.869	5305.43
430.076	5606.49
430.284	5538.9
430.491	5774.42
430.699	6188.11
430.906	6165.58
431.114	5979.22
431.321	6523.98
431.528	6419.53
431.736	7029.82
431.943	7285.82
432.15	6835.27
432.358	6999.1
432.565	7642.17
432.772	7500.86
432.979	7791.67
433.187	8168.49
433.394	8221.74
433.601	8592.42
433.808	8625.19
434.016	8457.26
434.223	9208.86
434.43	9509.91
434.637	9266.21
434.844	9948.18
435.052	10157.07
435.259	10095.63
435.466	10021.91
435.673	9901.08
435.88	10732.55
436.087	11277.31
436.294	11320.32
436.501	11015.17
436.708	11316.22
436.915	11230.21
437.122	12123.12
437.329	12012.53
437.537	12579.82
437.743	12489.71
437.95	12524.52
438.157	13259.74
438.364	13450.21
438.571	13564.89
438.778	13562.84
438.985	14908.36
439.192	14457.81
439.399	14769.1
439.606	14453.71
439.813	15231.94
440.02	16481.2
440.227	15879.1
440.433	15862.71
440.64	16268.21
440.847	16380.85
441.054	16792.49
441.261	17664.93
441.467	17697.69
441.674	17929.11
441.881	18348.95
442.088	18434.96
442.294	18371.47
442.501	18656.14
442.708	19194.76
442.914	20122.49
443.121	20902.76
443.328	20358
443.534	21893.98
443.741	21179.24
443.948	20734.83
444.154	22190.94
444.361	21951.32
444.568	22481.75
444.774	22231.9
444.981	22819.66
445.187	23563.08
445.394	24367.93
445.6	23950.14
445.807	26299.16
446.013	24884.01
446.22	25768.74
446.426	26637.08
446.633	27067.15
446.839	27753.22
447.046	26645.27
447.252	28211.96
447.459	28132.09
447.665	27996.93
447.871	29293.29
448.078	30667.48
448.284	29156.08
448.491	30155.49
448.697	30978.77
448.903	31582.92
449.11	31953.6
449.316	31087.31
449.522	31857.35
449.728	32934.58
449.935	33098.42
450.141	33348.27
450.347	34028.2
450.553	32426.68
450.76	33272.49
450.966	34165.41
451.172	34118.31
451.378	34689.69
451.584	34144.93
451.791	35240.59
451.997	34984.6
452.203	35099.28
452.409	35607.18
452.615	35248.78
452.821	33901.22
453.027	33753.77
453.233	35625.61
453.44	33966.76
453.646	34736.79
453.852	34785.94
454.058	35240.59
454.264	34183.84
454.47	34984.6
454.676	34271.9
454.882	35504.78
455.088	32150.21
455.294	32588.47
455.5	33530.54
455.705	33585.83
455.911	32348.86
456.117	31881.92
456.323	31228.62
456.529	29762.28
456.735	31089.36
456.941	30411.48
457.147	29623.01
457.352	29068.02
457.558	28705.52
457.764	28762.87
457.97	27849.47
458.176	27251.47
458.381	27435.78
458.587	25905.95
458.793	25756.45
458.999	24732.47
459.204	26553.11
459.41	25766.69
459.616	24175.42
459.821	24064.83
460.027	23579.46
460.233	23417.67
460.438	22315.86
460.644	22481.75
460.85	21492.58
461.055	21097.32
461.261	21033.83
461.466	19485.57
461.672	19108.74
461.878	20452.21
462.083	18733.96
462.289	18811.79
462.494	18430.87
462.7	17408.93
462.905	17079.21
463.111	17779.61
463.316	17865.63
463.522	17507.23
463.727	17630.11
463.932	17560.48
464.138	17060.77
464.343	17320.87
464.549	16915.37
464.754	17288.1
464.959	16952.23
465.165	17001.38
465.37	16458.67
465.575	15913.91
465.781	16827.31
465.986	16608.17
466.191	16042.93
466.397	15397.82
466.602	14846.92
466.807	15582.14
467.012	15354.82
467.218	15526.85
467.423	15285.19
467.628	15418.3
467.833	16110.52
468.038	15412.16
468.244	14857.16
468.449	15506.37
468.654	15010.76
468.859	14883.78
469.064	15025.09
469.269	14343.12
469.474	14410.7
469.679	14707.66
469.885	14328.78
470.09	14453.71
470.295	14154.71
470.5	13882.33
470.705	14142.42
470.91	13886.42
471.115	13517.79
471.32	13863.9
471.525	13829.08
471.73	13421.53
471.935	13562.84
472.139	13059.04
472.344	13126.63
472.549	13005.8
472.754	12831.72
472.959	12696.55
473.164	12250.1
473.369	12155.89
473.574	12624.87
473.778	12657.64
473.983	12600.3
474.188	12219.38
474.393	11701.24
474.598	12018.68
474.802	11912.18
475.007	11797.49
475.212	11557.88
475.417	11166.72
475.621	11471.87
475.826	11248.64
476.031	11054.08
476.235	10892.29
476.44	10947.59
476.645	10830.85
476.849	10660.87
477.054	10802.18
477.259	10308.62
477.463	10701.83
477.668	10327.05
477.872	10099.73
478.077	10343.44
478.282	9925.65
478.486	9882.64
478.691	9999.38
478.895	9724.95
479.1	9747.48
479.304	9808.92
479.509	9522.2
479.713	9657.37
479.918	9473.05
480.122	9231.39
480.326	9274.4
480.531	9557.02
480.735	9364.51
480.94	9096.22
481.144	9534.49
481.348	8967.2
481.553	9204.77
481.757	8850.47
481.961	8989.73
482.166	9247.77
482.37	9178.14
482.574	8786.98
482.778	8948.77
482.983	9270.3
483.187	9036.83
483.391	9090.08
483.595	9069.6
483.8	8963.11
484.004	9083.94
484.208	8999.97
484.412	8965.15
484.616	8973.35
484.821	9131.04
485.025	8748.07
485.229	8942.63
485.433	8956.96
485.637	8842.28
485.841	8760.36
486.045	8989.73
486.249	9081.89
486.453	8969.25
486.657	8932.39
486.861	9153.57
487.065	8862.76
487.269	8789.03
487.473	8731.69
487.677	9034.78
487.881	9116.7
488.085	8916
488.289	9090.08
488.493	8840.23
488.697	9096.22
488.901	9176.09
489.105	8961.06
489.309	9081.89
489.512	9219.1
489.716	9090.08
489.92	8891.43
490.124	9012.26
490.328	9311.26
490.531	9133.09
490.735	9301.02
490.939	9284.64
491.143	9227.29
491.346	9272.35
491.55	9333.79
491.754	9180.19
491.958	9327.64
492.161	9303.07
492.365	9503.77
492.569	9384.99
492.772	9391.13
492.976	9507.87
493.18	9473.05
493.383	9778.2
493.587	9737.24
493.79	9810.96
493.994	9704.47
494.197	9876.5
494.401	9872.4
494.605	9974.8
494.808	10277.9
495.012	10234.89
495.215	10363.92
495.419	10411.02
495.622	10165.26
495.825	10333.2
496.029	10247.18
496.232	10664.97
496.436	10443.79
496.639	10816.52
496.843	10599.43
497.046	10857.48
497.249	11097.09
497.453	11326.46
497.656	11166.72
497.859	11197.44
498.063	11226.11
498.266	11473.92
498.469	11312.13
498.673	11586.55
498.876	11934.71
499.079	12035.06
499.282	12008.44
499.485	12340.21
499.689	12438.51
499.892	12450.8
500.095	12209.14
500.298	12983.27
500.501	12714.98
500.705	12733.42
500.908	13126.63
501.111	13290.46
501.314	13497.31
501.517	13536.22
501.72	13841.37
501.923	13898.71
502.126	14138.32
502.329	14316.5
502.532	14554.06
502.735	14371.79
502.938	14793.67
503.141	14783.43
503.344	14969.8
503.547	14912.46
503.75	15326.14
503.953	15303.62
504.156	15768.51
504.359	16053.17
504.562	15741.88
504.765	16102.32
504.968	16270.26
505.17	16597.93
505.373	16495.53
505.576	16620.46
505.779	16845.74
505.982	16995.24
506.185	17181.6
506.387	17253.28
506.59	17505.18
506.793	17980.31
506.996	17863.58
507.198	18439.06
507.401	18099.09
507.604	18666.38
507.807	18850.7
508.009	19037.06
508.212	18953.1
508.415	19250.05
508.617	19594.11
508.82	19583.87
509.022	19620.74
509.225	20085.62
509.428	20210.55
509.63	20210.55
509.833	20329.33
510.035	21123.94
510.238	20986.73
510.44	21283.69
510.643	21517.15
510.845	21713.76
511.048	21459.81
511.25	21715.81
511.453	22178.65
511.655	22883.15
511.858	22395.73
512.06	22545.23
512.262	22872.91
512.465	23083.85
512.667	23259.98
512.87	23421.77
513.072	23688
513.274	24021.82
513.477	24382.26
513.679	24429.37
513.881	24736.56
514.084	24810.29
514.286	24824.62
514.488	25285.42
514.69	25723.68
514.893	25830.18
515.095	25752.35
515.297	25987.87
515.499	26245.91
515.701	26460.95
515.904	26790.67
516.106	27079.44
516.308	27626.25
516.51	27763.46
516.712	27546.37
516.914	28003.07
517.116	28154.62
517.318	28736.24
517.52	28832.5
517.722	28695.28
517.925	29436.65
518.127	29379.31
518.329	29848.29
518.531	29563.62
518.733	30292.7
518.935	30425.82
519.136	30395.1
519.338	30851.8
519.54	31036.11
519.742	31451.85
519.944	31488.71
520.146	31990.47
520.348	32287.42
520.55	32144.06
520.752	32330.43
520.954	33059.51
521.155	32914.1
521.357	33211.06
521.559	33491.63
521.761	33981.09
521.963	33680.04
522.164	34048.68
522.366	34319.01
522.568	34749.08
522.77	34863.77
522.971	35328.66
523.173	34851.48
523.375	35654.28
523.576	35598.99
523.778	35467.92
523.98	36039.3
524.181	36000.39
524.383	36547.2
524.584	36506.24
524.786	36192.9
524.988	36760.19
525.189	36893.3
525.391	37474.93
525.592	37853.8
525.794	37628.52
525.995	37448.3
526.197	38058.6
526.398	37710.44
526.6	38244.96
526.801	38435.42
527.003	38507.1
527.204	38670.94
527.406	38877.79
527.607	38589.02
527.808	39369.3
528.01	38775.39
528.211	39166.55
528.412	39830.09
528.614	39637.58
528.815	39926.35
529.016	40456.77
529.218	39633.49
529.419	39893.58
529.62	39766.6
529.822	39688.78
530.023	40202.82
530.224	40292.93
530.425	40262.21
530.626	40038.98
530.828	40350.27
531.029	41046.58
531.23	40409.67
531.431	40757.82
531.632	40903.23
531.833	41056.82
532.035	40997.43
532.236	40573.5
532.437	41464.37
532.638	40747.58
532.839	40766.01
533.04	41167.41
533.241	40866.36
533.442	41595.44
533.643	41316.92
533.844	41312.82
534.045	41163.32
534.246	41335.35
534.447	41724.46
534.648	41454.13
534.849	41284.15
535.05	41058.87
535.251	41361.97
535.451	41579.06
535.652	41667.12
535.853	41241.14
536.054	41818.67
536.255	41591.34
536.456	40872.51
536.657	41957.93
536.857	41761.33
537.058	41169.46
537.259	41843.24
537.46	41597.49
537.66	41255.48
537.861	41640.5
538.062	41404.98
538.263	41687.6
538.463	41697.84
538.664	41566.77
538.865	41685.55
539.065	41871.92
539.266	41294.39
539.466	41671.21
539.667	41386.55
539.868	41957.93
540.068	41470.51
540.269	41390.64
540.469	41519.67
540.67	41566.77
540.87	41298.48
541.071	41237.05
541.271	41851.44
541.472	41083.45
541.672	41237.05
541.873	40655.42
542.073	40673.85
542.274	41859.63
542.474	41527.86
542.675	41273.91
542.875	41601.58
543.075	41540.14
543.276	40901.18
543.476	41683.5
543.676	41261.62
543.877	41392.69
544.077	41384.5
544.277	41148.98
544.478	41210.42
544.678	41439.79
544.878	41280.05
545.078	41632.3
545.279	41138.74
545.479	41398.83
545.679	41212.47
545.879	41210.42
546.079	41210.42
546.28	40979
546.48	40813.12
546.68	40944.19
546.88	41329.2
547.08	41079.35
547.28	41030.2
547.48	40774.2
547.68	40995.39
547.88	40831.55
548.081	41421.36
548.281	41351.73
548.481	40864.32
548.681	41413.17
548.881	41116.22
549.081	40905.27
549.28	40649.28
549.48	41085.5
549.68	40811.07
549.88	41212.47
550.08	41198.13
550.28	41175.61
550.48	40739.39
550.68	40890.94
550.88	40796.73
551.08	41015.86
551.279	40968.76
551.479	40692.29
551.679	40755.77
551.879	40536.64
552.079	40714.81
552.278	40550.98
552.478	41114.17
552.678	40819.26
552.878	41075.26
553.077	40786.49
553.277	40067.66
553.477	41101.88
553.676	40442.43
553.876	40479.3
554.076	40380.99
554.275	40469.06
554.475	40274.5
554.674	40348.23
554.874	40163.91
555.074	40454.72
555.273	40397.38
555.473	40462.91
555.672	40286.79
555.872	40139.33
556.071	40432.19
556.271	40282.69
556.47	40102.47
556.67	39705.16
556.869	39981.64
557.068	40143.43
557.268	39877.19
557.467	39871.05
557.667	39774.8
557.866	39791.18
558.065	39563.85
558.265	39617.1
558.464	39664.21
558.663	40110.66
558.863	39283.28
559.062	39854.67
559.261	39451.22
559.461	39756.36
559.66	39213.65
559.859	39166.55
560.058	38748.76
560.258	39295.57
560.457	38740.57
560.656	39025.24
560.855	39160.41
561.054	39004.76
561.253	38677.08
561.453	38783.58
561.652	38951.51
561.851	39262.8
562.05	38898.27
562.249	37976.68
562.448	38937.18
562.647	38509.15
562.846	38122.08
563.045	38240.87
563.244	38122.08
563.443	38376.03
563.642	37839.47
563.841	38130.28
564.04	37577.33
564.239	38257.25
564.438	37614.19
564.637	37685.87
564.836	37907.05
565.035	37171.83
565.234	37476.97
565.432	37210.74
565.631	37323.38
565.83	37358.19
566.029	37145.2
566.228	37313.14
566.427	37016.18
566.625	36719.23
566.824	36676.22
567.023	37087.86
567.222	36147.84
567.42	36751.99
567.619	36299.39
567.818	36391.55
568.016	36694.65
568.215	36498.05
568.414	36131.46
568.612	36594.3
568.811	36102.79
569.01	36336.26
569.208	35437.2
569.407	35908.23
569.605	35707.53
569.804	35744.39
570.002	35472.01
570.201	35781.26
570.4	35230.35
570.598	35252.88
570.797	35322.51
570.995	35324.56
571.193	34896.53
571.392	35402.38
571.59	34931.35
571.789	34648.73
571.987	34517.66
572.186	35072.66
572.384	34284.19
572.582	34654.87
572.781	34706.07
572.979	34118.31
573.177	34296.48
573.376	34474.65
573.574	34179.75
573.772	34099.87
573.971	33698.47
574.169	34065.06
574.367	33659.56
574.565	33839.78
574.763	33309.36
574.962	33448.62
575.16	33168.05
575.358	33565.35
575.556	33116.85
575.754	33630.89
575.952	32836.28
576.151	33462.96
576.349	32848.57
576.547	32766.65
576.745	32576.19
576.943	32877.24
577.141	32834.23
577.339	32400.06
577.537	32352.96
577.735	32574.14
577.933	32217.79
578.131	32187.07
578.329	32230.08
578.527	31804.1
578.725	32019.14
578.923	32219.84
579.121	31773.38
579.319	31484.62
579.516	32019.14
579.714	31734.47
579.912	31625.93
580.11	31167.18
580.308	31550.15
580.506	30976.72
580.704	30841.56
580.901	31335.12
581.099	31642.31
581.297	30509.79
581.495	30851.8
581.692	31195.85
581.89	30675.67
582.088	30755.54
582.285	30399.19
582.483	30812.88
582.681	30446.3
582.878	30474.97
583.076	30218.97
583.274	30515.93
583.471	30055.14
583.669	30276.32
583.866	29893.35
584.064	30106.34
584.262	29395.69
584.459	29872.87
584.657	29547.24
584.854	30077.66
585.052	29078.25
585.249	29768.42
585.447	29324.01
585.644	29096.69
585.841	29223.66
586.039	29440.75
586.236	29217.52
586.434	28826.35
586.631	29151.98
586.828	28689.14
587.026	29018.86
587.223	28392.19
587.42	28494.58
587.618	28637.94
587.815	28187.39
588.012	28320.51
588.21	28314.36
588.407	28467.96
588.604	28267.26
588.801	27652.87
588.999	27724.55
589.196	27917.06
589.393	28076.8
589.59	27435.78
589.787	27482.89
589.984	27452.17
590.182	27419.4
590.379	27372.3
590.576	26794.77
590.773	27329.29
590.97	27284.23
591.167	27104.01
591.364	26942.22
591.561	27036.43
591.758	26893.07
591.955	26925.84
592.152	26999.57
592.349	26387.22
592.546	26721.04
592.743	26512.15
592.94	26274.59
593.137	26319.64
593.334	26477.33
593.531	25684.77
593.727	26016.54
593.924	26379.03
594.121	25389.86
594.318	26004.25
594.515	25649.96
594.712	26008.35
594.908	25752.35
595.105	25682.72
595.302	25269.03
595.499	25449.25
595.696	25471.78
595.892	25150.25
596.089	25355.05
596.286	25594.66
596.482	24986.41
596.679	24984.37
596.876	24632.11
597.072	24783.66
597.269	24728.37
597.466	24671.03
597.662	24562.48
597.859	24638.26
598.055	24513.33
598.252	24488.76
598.448	24591.16
598.645	24089.4
598.841	24150.84
599.038	24193.85
599.234	24093.5
599.431	24150.84
599.627	23878.46
599.824	24132.41
600.02	23581.51
600.217	23749.44
600.413	23601.99
600.609	23266.12
600.806	23472.96
601.002	23696.19
601.198	23350.09
601.395	23257.93
601.591	22950.73
601.787	23130.95
601.984	23157.58
602.18	23280.46
602.376	22895.44
602.572	22948.68
602.769	22907.73
602.965	22750.03
603.161	22690.64
603.357	22309.72
603.553	22506.32
603.75	22664.02
603.946	22313.81
604.142	22444.88
604.338	22162.26
604.534	22442.84
604.73	22129.5
604.926	22094.68
605.122	22023
605.318	22070.11
605.514	21758.81
605.71	21771.1
605.906	21717.86
606.102	21719.9
606.298	21715.81
606.494	21594.98
606.69	21824.35
606.886	21398.37
607.082	21435.24
607.278	21584.74
607.474	21044.07
607.67	21328.74
607.866	20747.12
608.062	21373.8
608.257	21156.71
608.453	21054.31
608.649	21005.16
608.845	20994.92
609.041	21017.45
609.236	20984.68
609.432	20738.93
609.628	20636.53
609.824	20540.27
610.019	20614
610.215	20677.49
610.411	20581.23
610.606	20878.19
610.802	20579.18
610.998	20441.97
611.193	20505.46
611.389	20319.09
611.584	19948.41
611.78	19798.91
611.976	20259.7
612.171	20216.69
612.367	20089.72
612.562	20286.33
612.758	20157.3
612.953	20065.14
613.149	20118.39
613.344	19950.46
613.539	20173.69
613.735	19911.55
613.93	19985.27
614.126	19747.71
614.321	20081.53
614.517	19522.43
614.712	20091.77
614.907	19907.45
615.103	19682.17
615.298	19571.58
615.493	19913.59
615.688	19610.5
615.884	19716.99
616.079	19471.23
616.274	19590.02
616.47	19297.16
616.665	19469.19
616.86	19288.96
617.055	19106.7
617.25	18942.86
617.445	19262.34
617.641	19133.32
617.836	19090.31
618.031	19047.3
618.226	18987.91
618.421	18989.96
618.616	18774.92
618.811	18523.02
619.006	18942.86
619.201	18525.07
619.396	18592.65
619.591	18387.86
619.786	18688.91
619.981	18240.4
620.176	18273.17
620.371	17978.26
620.566	18000.79
620.761	18041.75
620.956	18197.4
621.151	18006.94
621.346	18002.84
621.541	17365.92
621.735	17888.15
621.93	17456.03
622.125	17533.86
622.32	17146.79
622.515	17456.03
622.709	17335.2
622.904	17310.63
623.099	17169.32
623.294	17122.21
623.488	16892.84
623.683	17114.02
623.878	16561.07
624.072	16700.33
624.267	16733.1
624.462	16397.23
624.656	16520.11
624.851	16516.01
625.046	16262.07
625.24	16343.99
625.435	16143.28
625.629	16044.98
625.824	16018.36
626.018	15866.81
626.213	15588.28
626.407	15678.4
626.602	15778.75
626.796	15555.52
626.991	15700.92
627.185	15197.12
627.38	15342.53
627.574	15107.01
627.768	15074.24
627.963	15049.67
628.157	14871.5
628.352	14848.97
628.546	14689.23
628.74	14853.06
628.935	14349.26
629.129	14687.18
629.323	14390.22
629.517	14382.03
629.712	14318.54
629.906	14298.06
630.1	14048.21
630.294	14156.75
630.489	13943.77
630.683	14074.84
630.877	14050.26
631.071	13880.28
631.265	13827.03
631.459	13485.02
631.653	13661.15
631.848	13378.53
632.042	13698.01
632.236	13571.04
632.43	13386.72
632.624	13360.09
632.818	13265.89
633.012	13001.7
633.206	13356
633.4	13147.11
633.594	12790.76
633.788	12993.51
633.982	12938.21
634.176	12927.97
634.369	12682.22
634.563	12495.85
634.757	12637.16
634.951	12528.62
635.145	12540.91
635.339	12545
635.533	12168.18
635.726	12235.76
635.92	12053.49
636.114	12139.51
636.308	11998.2
636.501	11906.04
636.695	11928.56
636.889	11942.9
637.083	11809.78
637.276	11715.58
637.47	11832.31
637.664	11709.43
637.857	11801.59
638.051	11389.95
638.244	11326.46
638.438	11224.06
638.632	11389.95
638.825	11189.25
639.019	11248.64
639.212	11308.03
639.406	10957.83
639.599	11127.81
639.793	10918.92
639.986	10779.65
640.18	11136
640.373	10957.83
640.567	10787.85
640.76	10779.65
640.954	10677.26
641.147	10595.34
641.34	10398.73
641.534	10384.4
641.727	10390.54
641.92	10468.36
642.114	10421.26
642.307	10316.81
642.5	10204.17
642.694	10054.67
642.887	10173.46
643.08	10075.15
643.273	10050.58
643.467	9919.51
643.66	9702.42
643.853	9884.69
644.046	9626.65
644.239	9823.25
644.432	9800.73
644.626	9600.02
644.819	9505.82
645.012	9585.69
645.205	9475.1
645.398	9679.89
645.591	9161.76
645.784	9327.64
645.977	9194.53
646.17	9249.82
646.363	9063.46
646.556	8985.63
646.749	9059.36
646.942	9145.38
647.135	8969.25
647.328	8950.82
647.521	8948.77
647.714	8752.17
647.907	8711.21
648.099	8848.42
648.292	8684.58
648.485	8657.96
648.678	8559.66
648.871	8520.74
649.064	8578.09
649.256	8436.78
649.449	8358.96
649.642	8344.62
649.835	8291.37
650.027	8080.43
650.22	8117.29
650.413	8066.1
650.605	8373.29
650.798	8129.58
650.991	8164.4
651.183	7920.69
651.376	7990.32
651.568	8135.73
651.761	7828.53
651.954	7916.59
652.146	7775.28
652.339	7963.7
652.531	7738.42
652.724	7693.37
652.916	7769.14
653.109	7517.24
653.301	7668.79
653.494	7715.89
653.686	7519.29
653.879	7525.43
654.071	7658.55
654.263	7361.59
654.456	7474.23
654.648	7570.49
654.84	7201.85
655.033	7318.59
655.225	7199.8
655.417	7154.75
655.61	7259.2
655.802	7173.18
655.994	7306.3
656.186	7179.33
656.379	7142.46
656.571	7124.03
656.763	6837.31
656.955	6949.95
657.148	6921.28
657.34	7138.37
657.532	6808.64
657.724	6800.45
657.916	6808.64
658.108	6718.53
658.3	6884.42
658.492	6702.15
658.684	6616.13
658.876	6601.8
659.068	6575.17
659.26	6609.99
659.452	6542.41
659.644	6532.17
659.836	6401.1
660.028	6515.78
660.22	6241.36
660.412	6296.65
660.604	6294.6
660.796	6440.01
660.988	6204.49
661.18	6235.21
661.372	6247.5
661.563	6198.35
661.755	6134.86
661.947	6247.5
662.139	6165.58
662.331	6091.85
662.522	5880.91
662.714	5952.59
662.906	5854.29
663.097	6081.61
663.289	5794.9
663.481	5899.34
663.673	6032.46
663.864	5717.08
664.056	5885.01
664.247	5917.78
664.439	5831.76
664.631	5839.95
664.822	5743.7
665.014	5725.27
665.205	5596.25
665.397	5641.3
665.588	5672.02
665.78	5629.01
665.971	5403.74
666.163	5733.46
666.354	5661.78
666.546	5577.81
666.737	5393.5
666.929	5561.43
667.12	5649.49
667.311	5479.51
667.503	5495.89
667.694	5469.27
667.885	5354.58
668.077	5586.01
668.268	5356.63
668.459	5278.81
668.651	5311.58
668.842	5354.58
669.033	5307.48
669.224	5180.51
669.416	5416.02
669.607	5319.77
669.798	5284.95
669.989	5299.29
670.18	5137.5
670.371	5266.52
670.563	5264.47
670.754	5155.93
670.945	4998.24
671.136	5287
671.327	5123.16
671.518	5256.28
671.709	5127.26
671.9	5049.44
672.091	5155.93
672.282	5016.67
672.473	4951.14
672.664	5155.93
672.855	5151.84
673.046	4977.76
673.237	4901.98
673.428	5022.81
673.619	4914.27
673.809	5035.1
674	4912.22
674.191	4944.99
674.382	4887.65
674.573	4832.35
674.764	4944.99
674.954	5004.38
675.145	4803.68
675.336	4961.37
675.527	4932.7
675.717	4832.35
675.908	4838.5
676.099	4871.26
676.289	4877.41
676.48	4541.54
676.671	5016.67
676.861	4930.66
677.052	4852.83
677.243	4777.06
677.433	4760.67
677.624	4908.13
677.814	4750.43
678.005	4840.54
678.195	4787.3
678.386	4795.49
678.576	4705.38
678.767	4725.86
678.957	4815.97
679.148	4740.19
679.338	4871.26
679.529	4844.64
679.719	4867.17
679.909	4854.88
680.1	4742.24
680.29	4809.83
680.481	4715.62
680.671	4764.77
680.861	4754.53
681.052	4940.9
681.242	4820.07
681.432	4795.49
681.622	4609.12
681.813	4725.86
682.003	4631.65
682.193	4598.88
682.383	4658.28
682.573	4619.36
682.764	4648.04
682.954	4789.35
683.144	4686.95
683.334	4727.91
683.524	4494.44
683.714	4713.57
683.904	4662.37
684.094	4750.43
684.284	4764.77
684.474	4752.48
684.664	4625.51
684.854	4549.73
685.044	4715.62
685.234	4494.44
685.424	4697.19
685.614	4498.53
685.804	4607.08
685.994	4502.63
686.184	4557.93
686.374	4611.17
686.564	4418.66
686.753	4519.01
686.943	4328.55
687.133	4527.21
687.323	4502.63
687.513	4371.56
687.702	4340.84
687.892	4396.14
688.082	4447.33
688.272	4439.14
688.461	4400.23
688.651	4355.18
688.841	4297.83
689.03	4209.77
689.22	4197.48
689.41	4215.91
689.599	4265.07
689.789	4263.02
689.979	4109.42
690.168	4258.92
690.358	4082.8
690.547	3978.35
690.737	4160.62
690.926	4095.08
691.116	4088.94
691.305	4033.65
691.495	3988.59
691.684	3910.77
691.874	3974.25
692.063	4066.41
692.252	3824.75
692.442	3953.77
692.631	3855.47
692.82	3945.58
693.01	3759.22
693.199	3724.4
693.388	3951.73
693.578	3834.99
693.767	3882.1
693.956	3779.7
694.146	3791.98
694.335	3757.17
694.524	3691.63
694.713	3726.45
694.902	3687.54
695.092	3720.31
695.281	3585.14
695.47	3720.31
695.659	3699.83
695.848	3581.04
696.037	3726.45
696.226	3558.52
696.415	3587.19
696.604	3691.63
696.793	3521.65
696.982	3452.02
697.171	3572.85
697.36	3597.43
697.549	3679.35
697.738	3464.31
697.927	3505.27
698.116	3542.13
698.305	3613.81
698.494	3529.84
698.683	3480.69
698.872	3568.76
699.061	3484.79
699.25	3470.45
699.438	3519.6
699.627	3503.22
699.816	3568.76
700.005	3419.25
700.193	3531.89
700.382	3593.33
700.571	3462.26
700.76	3458.17
700.948	3429.49
701.137	3468.41
701.326	3644.53
701.514	3409.01
701.703	3357.82
701.892	3462.26
702.08	3540.08
702.269	3507.32
702.457	3464.31
702.646	3486.84
702.834	3241.08
703.023	3460.21
703.212	3347.58
703.4	3476.6
703.589	3323
703.777	3413.11
703.965	3413.11
704.154	3482.74
704.342	3492.98
704.531	3509.37
704.719	3265.66
704.907	3527.8
705.096	3439.73
705.284	3386.49
705.472	3550.32
705.661	3425.4
705.849	3527.8
706.037	3421.3
706.226	3474.55
706.414	3517.56
706.602	3331.19
706.79	3505.27
706.979	3484.79
707.167	3478.65
707.355	3527.8
707.543	3535.99
707.731	3542.13
707.919	3470.45
708.107	3452.02
708.296	3593.33
708.484	3370.1
708.672	3445.88
708.86	3447.93
709.048	3642.48
709.236	3419.25
709.424	3601.52
709.612	3509.37
709.8	3472.5
709.988	3484.79
710.176	3509.37
710.364	3615.86
710.551	3447.93
710.739	3409.01
710.927	3470.45
711.115	3507.32
711.303	3568.76
711.491	3603.57
711.679	3370.1
711.866	3470.45
712.054	3519.6
712.242	3476.6
712.43	3638.39
712.617	3662.96
712.805	3519.6
712.993	3554.42
713.181	3454.07
713.368	3662.96
713.556	3624.05
713.744	3560.56
713.931	3597.43
714.119	3558.52
714.306	3636.34
714.494	3626.1
714.682	3607.67
714.869	3550.32
715.057	3474.55
715.244	3540.08
715.432	3648.63
715.619	3697.78
715.807	3640.44
715.994	3622
716.182	3669.11
716.369	3609.72
716.556	3648.63
716.744	3681.39
716.931	3798.13
717.119	3687.54
717.306	3579
717.493	3576.95
717.681	3607.67
717.868	3779.7
718.055	3689.59
718.242	3626.1
718.43	3624.05
718.617	3595.38
718.804	3611.76
718.991	3705.97
719.179	3798.13
719.366	3669.11
719.553	3880.05
719.74	3789.94
719.927	3673.2
720.114	3802.22
720.301	3855.47
720.488	3652.72
720.676	3810.42
720.863	3882.1
721.05	3832.94
721.237	3724.4
721.424	3845.23
721.611	3705.97
721.798	3851.38
721.985	3681.39
722.172	3804.27
722.358	3839.09
722.545	3859.57
722.732	3757.17
722.919	3834.99
723.106	3814.51
723.293	3677.3
723.48	3800.18
723.667	3693.68
723.853	3853.42
724.04	3953.77
724.227	3716.21
724.414	3802.22
724.6	3810.42
724.787	3861.62
724.974	3771.51
725.161	3820.66
725.347	3886.19
725.534	3853.42
725.72	3964.01
725.907	3951.73
726.094	3796.08
726.28	3845.23
726.467	3935.34
726.653	3847.28
726.84	3947.63
727.027	3875.95
727.213	3791.98
727.4	4041.84
727.586	3906.67
727.773	4004.97
727.959	3873.9
728.145	3957.87
728.332	4004.97
728.518	3837.04
728.705	3878
728.891	4090.99
729.077	3912.81
729.264	3890.29
729.45	3824.75
729.636	4002.93
729.823	3935.34
730.009	4017.26
730.195	3816.56
730.382	3884.14
730.568	3996.78
730.754	3845.23
730.94	3988.59
731.126	3935.34
731.313	3976.3
731.499	3925.1
731.685	3902.58
731.871	3951.73
732.057	4082.8
732.243	3878
732.429	3781.74
732.615	4041.84
732.801	4054.12
732.987	3857.52
733.173	4064.36
733.359	3980.4
733.545	4027.5
733.731	3882.1
733.917	4031.6
734.103	3949.68
734.289	3970.16
734.475	3921.01
734.661	4015.21
734.847	3933.29
735.033	3923.05
735.219	3961.97
735.404	3992.69
735.59	3837.04
735.776	3918.96
735.962	3949.68
736.148	3894.38
736.333	3859.57
736.519	3929.2
736.705	3779.7
736.89	3824.75
737.076	3906.67
737.262	3837.04
737.447	3959.92
737.633	3724.4
737.819	3941.49
738.004	3851.38
738.19	3910.77
738.375	3882.1
738.561	4054.12
738.747	3906.67
738.932	3693.68
739.118	3886.19
739.303	3871.86
739.489	3921.01
739.674	3746.93
739.859	3742.83
740.045	3814.51
740.23	3761.27
740.416	3785.84
740.601	3693.68
740.786	3818.61
740.972	3585.14
741.157	3822.7
741.342	3837.04
741.528	3771.51
741.713	3828.85
741.898	3757.17
742.084	3646.58
742.269	3615.86
742.454	3660.91
742.639	3748.98
742.824	3675.25
743.01	3781.74
743.195	3605.62
743.38	3624.05
743.565	3535.99
743.75	3527.8
743.935	3486.84
744.12	3583.09
744.305	3634.29
744.49	3552.37
744.675	3490.93
744.86	3484.79
745.045	3466.36
745.23	3558.52
745.415	3355.77
745.6	3425.4
745.785	3443.83
745.97	3357.82
746.155	3261.56
746.34	3443.83
746.525	3300.47
746.71	3509.37
746.895	3304.57
747.079	3247.23
747.264	3304.57
747.449	3288.18
747.634	3255.42
747.819	3265.66
748.003	3210.36
748.188	3236.99
748.373	3249.27
748.557	3241.08
748.742	3153.02
748.927	3103.87
749.111	3116.16
749.296	3069.05
749.481	3060.86
749.665	2958.46
749.85	3009.66
750.034	3007.61
750.219	2954.37
750.404	2942.08
750.588	2868.35
750.773	2946.17
750.957	2851.97
751.141	2954.37
751.326	2999.42
751.51	2768
751.695	2835.58
751.879	2813.06
752.064	2886.78
752.248	2796.67
752.432	2776.19
752.617	2796.67
752.801	2890.88
752.985	2706.56
753.17	2700.42
753.354	2647.17
753.538	2806.91
753.722	2516.1
753.907	2585.73
754.091	2550.92
754.275	2587.78
754.459	2591.88
754.643	2616.45
754.828	2503.81
755.012	2442.37
755.196	2342.02
755.38	2301.06
755.564	2407.56
755.748	2493.57
755.932	2430.09
756.116	2335.88
756.3	2360.45
756.484	2344.07
756.668	2350.21
756.852	2172.04
757.036	2192.52
757.22	2317.45
757.404	2231.43
757.588	2153.61
757.772	2243.72
757.956	2184.33
758.14	2264.2
758.323	2040.97
758.507	2364.55
758.691	2114.7
758.875	2077.83
759.059	2272.39
759.242	2120.84
759.426	1987.72
759.61	2081.93
759.794	2067.6
759.977	2126.99
760.161	2247.82
760.345	2061.45
760.528	2225.29
760.712	2020.49
760.895	2061.45
761.079	2036.88
761.263	1920.14
761.446	1893.52
761.63	2061.45
761.813	2069.64
761.997	1973.39
762.18	1893.52
762.364	1879.18
762.547	1870.99
762.731	1774.74
762.914	1787.02
763.098	1842.32
763.281	1805.46
763.464	1848.46
763.648	1873.04
763.831	1764.5
764.015	1825.93
764.198	1840.27
764.381	1741.97
764.564	1780.88
764.748	1766.54
764.931	1782.93
765.114	1721.49
765.297	1789.07
765.481	1713.3
765.664	1784.98
765.847	1729.68
766.03	1735.82
766.213	1741.97
766.397	1752.21
766.58	1627.28
766.763	1666.19
766.946	1670.29
767.129	1715.34
767.312	1674.39
767.495	1658
767.678	1617.04
767.861	1729.68
768.044	1668.24
768.227	1635.47
768.41	1627.28
768.593	1651.86
768.776	1623.19
768.959	1543.32
769.142	1684.62
769.324	1549.46
769.507	1539.22
769.69	1580.18
769.873	1541.27
770.056	1662.1
770.239	1518.74
770.421	1559.7
770.604	1559.7
770.787	1549.46
770.97	1584.27
771.152	1563.79
771.335	1488.02
771.518	1395.86
771.7	1469.59
771.883	1483.92
772.066	1461.4
772.248	1436.82
772.431	1502.36
772.613	1406.1
772.796	1535.12
772.978	1369.24
773.161	1406.1
773.343	1348.76
773.526	1266.84
773.708	1320.09
773.891	1375.38
774.073	1277.08
774.256	1354.9
774.438	1449.11
774.621	1205.4
774.803	1313.94
774.985	1338.52
775.168	1363.09
775.35	1295.51
775.532	1387.67
775.715	1223.83
775.897	1184.92
776.079	1268.89
776.261	1172.63
776.444	1232.02
776.626	1266.84
776.808	1119.39
776.99	1074.33
777.173	1160.34
777.355	1107.1
777.537	1111.19
777.719	1109.15
777.901	1125.53
778.083	1174.68
778.265	1051.8
778.447	1123.48
778.629	1084.57
778.811	1070.23
778.993	1031.32
779.175	1154.2
779.357	1125.53
779.539	980.12
779.721	1070.23
779.903	1109.15
780.085	1055.9
780.267	1016.99
780.449	1125.53
780.631	1055.9
780.812	1051.8
780.994	984.22
781.176	965.79
781.358	871.58
781.54	898.2
781.721	959.64
781.903	951.45
782.085	933.02
782.267	1019.04
782.448	844.96
782.63	930.97
782.812	933.02
782.993	879.77
783.175	978.08
783.357	855.2
783.538	935.07
783.72	875.68
783.901	906.4
784.083	789.66
784.264	896.16
784.446	881.82
784.627	732.32
784.809	791.71
784.99	832.67
785.172	834.72
785.353	765.09
785.535	810.14
785.716	695.46
785.897	756.9
786.079	775.33
786.26	726.18
786.441	791.71
786.623	693.41
786.804	779.42
786.985	699.55
787.167	750.75
787.348	699.55
787.529	726.18
787.71	734.37
787.891	703.65
788.073	666.78
788.254	679.07
788.435	799.9
788.616	724.13
788.797	640.16
788.978	650.4
789.159	720.03
789.34	742.56
789.522	668.83
789.703	644.26
789.884	599.2
790.065	574.63
790.246	629.92
790.427	568.48
790.607	670.88
790.788	693.41
790.969	601.25
791.15	611.49
791.331	656.54
791.512	595.11
791.693	568.48
791.874	591.01
792.054	699.55
792.235	695.46
792.416	584.87
792.597	556.19
792.778	593.06
792.958	605.35
793.139	607.39
793.32	593.06
793.5	498.85
793.681	504.99
793.862	638.11
794.042	601.25
794.223	496.8
794.404	529.57
794.584	439.46
794.765	556.19
794.945	513.19
795.126	521.38
795.306	605.35
795.487	545.95
795.667	584.87
795.848	461.99
796.028	488.61
796.209	373.92
796.389	562.34
796.57	400.55
796.75	470.18
796.93	449.7
797.111	441.51
797.291	492.71
797.471	554.15
797.652	410.79
797.832	437.41
798.012	490.66
798.192	468.13
798.373	453.8
798.553	449.7
798.733	466.08
798.913	480.42
799.093	504.99
799.274	412.84
799.454	464.04
799.634	400.55
799.814	513.19
799.994	427.17
800.174	470.18
800.354	418.98
800.534	394.4
800.714	474.28
800.894	427.17
801.074	363.69
801.254	443.56
801.434	470.18
801.614	396.45
801.794	423.08
801.974	1313.94
802.154	382.12
802.334	404.64
802.514	382.12
802.693	304.29
802.873	404.64
803.053	394.4
803.233	427.17
803.413	335.01
803.592	298.15
803.772	306.34
803.952	396.45
804.131	365.73
804.311	386.21
804.491	427.17
804.67	277.67
804.85	339.11
805.03	386.21
805.209	418.98
805.389	287.91
805.568	363.69
805.748	416.93
805.928	416.93
806.107	302.25
806.287	328.87
806.466	337.06
806.646	312.49
806.825	326.82
807.004	408.74
807.184	363.69
807.363	414.88
807.543	298.15
807.722	277.67
807.901	337.06
808.081	431.27
808.26	265.38
808.439	324.77
808.619	292.01
808.798	304.29
808.977	363.69
809.156	316.58
809.336	275.62
809.515	421.03
809.694	257.19
809.873	318.63
810.052	353.45
810.231	363.69
810.411	298.15
810.59	322.73
810.769	265.38
810.948	357.54
811.127	234.66
811.306	353.45
811.485	292.01
811.664	443.56
811.843	294.05
812.022	294.05
812.201	312.49
812.38	289.96
812.559	238.76
812.737	234.66
812.916	269.48
813.095	269.48
813.274	261.29
813.453	314.53
813.632	228.52
813.811	349.35
813.989	263.33
814.168	339.11
814.347	269.48
814.526	236.71
814.704	320.68
814.883	335.01
815.062	263.33
815.24	283.81
815.419	185.51
815.598	281.77
815.776	222.38
815.955	240.81
816.133	158.89
816.312	216.23
816.49	289.96
816.669	277.67
816.847	300.2
817.026	238.76
817.204	263.33
817.383	253.09
817.561	218.28
817.74	257.19
817.918	289.96
818.097	249
818.275	263.33
818.453	287.91
818.632	296.1
818.81	220.33
818.988	101.55
819.167	189.61
819.345	292.01
819.523	240.81
819.701	177.32
819.879	220.33
820.058	304.29
820.236	253.09
820.414	253.09
820.592	167.08
820.77	228.52
820.948	242.85
821.127	177.32
821.305	249
821.483	187.56
821.661	242.85
821.839	220.33
822.017	119.98
822.195	261.29
822.373	259.24
822.551	189.61
822.729	203.94
822.907	251.05
823.085	216.23
823.262	244.9
823.44	74.92
823.618	169.13
823.796	197.8
823.974	162.98
824.152	201.9
824.329	179.37
824.507	257.19
824.685	214.18
824.863	156.84
825.04	201.9
825.218	179.37
825.396	257.19
825.574	285.86
825.751	175.27
825.929	205.99
826.107	162.98
826.284	218.28
826.462	173.22
826.639	183.46
826.817	150.7
826.994	199.85
827.172	70.83
827.349	273.57
827.527	175.27
827.704	134.31
827.882	146.6
828.059	122.02
828.237	154.79
828.414	214.18
828.591	173.22
828.769	175.27
828.946	142.5
829.124	183.46
829.301	222.38
829.478	158.89
829.655	150.7
829.833	93.35
830.01	189.61
830.187	208.04
830.364	162.98
830.542	109.74
830.719	189.61
830.896	173.22
831.073	162.98
831.25	193.7
831.427	203.94
831.604	95.4
831.782	128.17
831.959	167.08
832.136	205.99
832.313	222.38
832.49	76.97
832.667	142.5
832.844	173.22
833.021	140.46
833.198	117.93
833.374	115.88
833.551	154.79
833.728	162.98
833.905	134.31
834.082	140.46
834.259	199.85
834.436	158.89
834.612	179.37
834.789	210.09
834.966	126.12
835.143	173.22
835.319	140.46
835.496	138.41
835.673	152.74
835.85	208.04
836.026	136.36
836.203	89.26
836.38	128.17
836.556	124.07
836.733	128.17
836.909	195.75
837.086	3.24
837.262	122.02
837.439	115.88
837.616	167.08
837.792	165.03
837.968	109.74
838.145	48.3
838.321	128.17
838.498	93.35
838.674	273.57
838.851	205.99
839.027	150.7
839.203	101.55
839.38	179.37
839.556	130.22
839.732	70.83
839.909	72.87
840.085	107.69
840.261	122.02
840.437	113.83
840.614	150.7
840.79	158.89
840.966	87.21
841.142	126.12
841.318	136.36
841.494	107.69
841.671	113.83
841.847	72.87
842.023	132.26
842.199	109.74
842.375	136.36
842.551	93.35
842.727	126.12
842.903	165.03
843.079	124.07
843.255	79.02
843.431	126.12
843.607	136.36
843.783	54.44
843.959	113.83
844.134	89.26
844.31	109.74
844.486	142.5
844.662	68.78
844.838	52.39
845.013	85.16
845.189	109.74
845.365	150.7
845.541	66.73
845.716	144.55
845.892	93.35
846.068	56.49
846.244	40.11
846.419	119.98
846.595	79.02
846.77	56.49
846.946	146.6
847.122	79.02
847.297	115.88
847.473	162.98
847.648	60.59
847.824	56.49
847.999	29.87
848.175	154.79
848.35	52.39
848.526	136.36
848.701	72.87
848.876	62.63
849.052	95.4
849.227	74.92
849.403	107.69
849.578	64.68
849.753	107.69
849.929	93.35
850.104	38.06
850.279	144.55
850.454	56.49
850.63	85.16
850.805	136.36
850.98	105.64
851.155	144.55
851.33	165.03
851.505	40.11
851.681	138.41
851.856	95.4
852.031	148.65
852.206	122.02
852.381	91.31
852.556	23.72
852.731	111.78
852.906	107.69
853.081	87.21
853.256	142.5
853.431	40.11
853.606	54.44
853.781	46.25
853.956	19.63
854.131	124.07
854.305	103.59
854.48	72.87
854.655	68.78
854.83	91.31
855.005	142.5
855.18	-9.05
855.354	-2.9
855.529	44.2
855.704	95.4
855.879	85.16
856.053	-23.38
856.228	87.21
856.403	-21.33
856.577	29.87
856.752	-21.33
856.926	140.46
857.101	85.16
857.276	74.92
857.45	130.22
857.625	79.02
857.799	103.59
857.974	79.02
858.148	70.83
858.323	101.55
858.497	76.97
858.672	89.26
858.846	76.97
859.02	160.94
859.195	56.49
859.369	115.88
859.543	105.64
859.718	52.39
859.892	56.49
860.066	76.97
860.241	-29.52
860.415	13.48
860.589	70.83
860.763	50.35
860.938	64.68
861.112	38.06
861.286	21.67
861.46	44.2
861.634	36.01
861.808	105.64
861.982	111.78
862.157	68.78
862.331	58.54
862.505	31.91
862.679	126.12
862.853	33.96
863.027	15.53
863.201	107.69
863.375	27.82
863.549	109.74
863.722	117.93
863.896	117.93
864.07	79.02
864.244	52.39
864.418	134.31
864.592	44.2
864.766	119.98
864.939	128.17
865.113	29.87
865.287	58.54
865.461	85.16
865.634	42.15
865.808	50.35
865.982	52.39
866.156	-31.57
866.329	-19.29
866.503	-17.24
866.676	105.64
866.85	81.07
867.024	19.63
867.197	52.39
867.371	38.06
867.544	115.88
867.718	76.97
867.891	140.46
868.065	11.43
868.238	85.16
868.412	175.27
868.585	68.78
868.759	-19.29
868.932	83.11
869.105	-31.57
869.279	-21.33
869.452	56.49
869.625	68.78
869.799	52.39
869.972	3.24
870.145	87.21
870.319	115.88
870.492	70.83
870.665	15.53
870.838	5.29
871.011	-13.14
871.185	-27.48
871.358	-58.2
871.531	109.74
871.704	3.24
871.877	23.72
872.05	60.59
872.223	13.48
872.396	44.2
872.569	50.35
872.742	58.54
872.915	103.59
873.088	23.72
873.261	93.35
873.434	83.11
873.607	52.39
873.78	68.78
873.953	21.67
874.126	42.15
874.299	72.87
874.471	-33.62
874.644	64.68
874.817	74.92
874.99	89.26
875.163	9.39
875.335	85.16
875.508	60.59
875.681	89.26
875.853	-9.05
876.026	46.25
876.199	64.68
876.371	50.35
876.544	56.49
876.717	7.34
876.889	-41.81
877.062	44.2
877.234	-11.09
877.407	64.68
877.579	23.72
877.752	1.19
877.924	144.55
878.097	70.83
878.269	52.39
878.442	29.87
878.614	68.78
878.786	52.39
878.959	1.19
879.131	7.34
879.303	48.3
879.476	36.01
879.648	81.07
879.82	70.83
879.993	60.59
880.165	13.48
880.337	44.2
880.509	113.83
880.681	1.19
880.854	81.07
881.026	101.55
881.198	158.89
881.37	31.91
881.542	-25.43
881.714	-13.14
881.886	29.87
882.058	81.07
882.23	66.73
882.402	50.35
882.574	54.44
882.746	68.78
882.918	126.12
883.09	-29.52
883.262	81.07
883.434	50.35
883.606	-25.43
883.778	46.25
883.95	54.44
884.122	25.77
884.293	29.87
884.465	105.64
884.637	134.31
884.809	23.72
884.98	68.78
885.152	64.68
885.324	-7
885.496	40.11
885.667	72.87
885.839	36.01
886.011	79.02
886.182	162.98
886.354	42.15
886.525	46.25
886.697	126.12
886.869	-0.85
887.04	-19.29
887.212	101.55
887.383	105.64
887.555	46.25
887.726	23.72
887.897	27.82
888.069	-0.85
888.24	76.97
888.412	11.43
888.583	27.82
888.754	101.55
888.926	-45.91
889.097	-35.67
889.268	-43.86
889.44	13.48
889.611	-21.33
889.782	-62.29
889.953	9.39
890.125	54.44
890.296	-11.09
890.467	25.77
890.638	11.43
890.809	33.96
890.98	-27.48
891.151	27.82
891.323	128.17
891.494	-7
891.665	46.25
891.836	19.63
892.007	107.69
892.178	126.12
892.349	-7
892.52	3.24
892.691	95.4
892.862	-11.09
893.032	-50
893.203	9.39
893.374	40.11
893.545	85.16
893.716	-19.29
893.887	136.36
894.057	42.15
894.228	23.72
894.399	40.11
894.57	91.31
894.74	-13.14
894.911	72.87
895.082	-31.57
895.253	-72.53
895.423	38.06
895.594	36.01
895.764	3.24
895.935	-21.33
896.106	-4.95
896.276	27.82
896.447	44.2
896.617	36.01
896.788	15.53
896.958	38.06
897.129	15.53
897.299	19.63
897.47	33.96
897.64	66.73
897.81	25.77
897.981	29.87
898.151	17.58
898.322	85.16
898.492	79.02
898.662	48.3
898.832	46.25
899.003	13.48
899.173	29.87
899.343	56.49
899.513	-9.05
