Data from USB4F104151__66__13-05-57-240.txt Node

Date: Fri Mar 14 13:05:57 EDT 2025
User: louis
Spectrometer: USB4F10415
Trigger mode: 4
Integration Time (sec): 4.000000E-2
Scans to average: 1
Electric dark correction enabled: true
Nonlinearity correction enabled: false
Boxcar width: 0
XAxis mode: Wavelengths
Number of Pixels in Spectrum: 3648
>>>>>Begin Spectral Data<<<<<
178.204	-68.44
178.424	-68.44
178.644	-68.44
178.864	-205.65
179.084	-121.68
179.304	5.29
179.524	15.53
179.744	-21.33
179.964	38.06
180.184	9.39
180.404	48.3
180.624	33.96
180.844	-39.76
181.064	17.58
181.283	-41.81
181.503	-60.24
181.723	-4.95
181.943	-84.82
182.163	124.07
182.383	48.3
182.602	3.24
182.822	72.87
183.042	50.35
183.262	50.35
183.482	-7
183.701	21.67
183.921	62.63
184.141	-7
184.361	-4.95
184.58	105.64
184.8	27.82
185.02	81.07
185.239	19.63
185.459	58.54
185.679	17.58
185.898	-78.68
186.118	58.54
186.338	29.87
186.557	54.44
186.777	7.34
186.997	17.58
187.216	38.06
187.436	46.25
187.655	66.73
187.875	38.06
188.095	29.87
188.314	124.07
188.534	79.02
188.753	15.53
188.973	44.2
189.192	156.84
189.412	128.17
189.631	48.3
189.851	33.96
190.07	54.44
190.29	-2.9
190.509	11.43
190.729	52.39
190.948	-17.24
191.168	165.03
191.387	99.5
191.607	-29.52
191.826	62.63
192.045	48.3
192.265	62.63
192.484	29.87
192.704	-35.67
192.923	13.48
193.142	185.51
193.362	138.41
193.581	56.49
193.8	46.25
194.02	124.07
194.239	117.93
194.458	21.67
194.678	3.24
194.897	40.11
195.116	44.2
195.335	93.35
195.555	72.87
195.774	44.2
195.993	181.42
196.212	99.5
196.432	72.87
196.651	-9.05
196.87	13.48
197.089	117.93
197.308	58.54
197.528	36.01
197.747	33.96
197.966	50.35
198.185	93.35
198.404	1.19
198.623	72.87
198.842	31.91
199.062	97.45
199.281	25.77
199.5	23.72
199.719	109.74
199.938	126.12
200.157	46.25
200.376	54.44
200.595	126.12
200.814	42.15
201.033	13.48
201.252	72.87
201.471	11.43
201.69	124.07
201.909	95.4
202.128	25.77
202.347	91.31
202.566	29.87
202.785	7.34
203.004	-15.19
203.223	122.02
203.442	91.31
203.661	21.67
203.879	62.63
204.098	64.68
204.317	72.87
204.536	54.44
204.755	29.87
204.974	5.29
205.193	128.17
205.411	109.74
205.63	81.07
205.849	62.63
206.068	50.35
206.287	56.49
206.505	23.72
206.724	23.72
206.943	38.06
207.162	-0.85
207.381	72.87
207.599	-13.14
207.818	134.31
208.037	130.22
208.255	95.4
208.474	42.15
208.693	44.2
208.911	58.54
209.13	25.77
209.349	52.39
209.567	58.54
209.786	89.26
210.005	29.87
210.223	58.54
210.442	-56.15
210.661	54.44
210.879	54.44
211.098	-27.48
211.316	97.45
211.535	85.16
211.753	40.11
211.972	60.59
212.191	33.96
212.409	29.87
212.628	19.63
212.846	21.67
213.065	56.49
213.283	89.26
213.502	17.58
213.72	89.26
213.938	101.55
214.157	50.35
214.375	99.5
214.594	17.58
214.812	17.58
215.031	-35.67
215.249	17.58
215.467	115.88
215.686	44.2
215.904	105.64
216.122	9.39
216.341	95.4
216.559	36.01
216.778	81.07
216.996	156.84
217.214	19.63
217.432	25.77
217.651	29.87
217.869	25.77
218.087	-41.81
218.306	74.92
218.524	38.06
218.742	79.02
218.96	89.26
219.179	-11.09
219.397	46.25
219.615	68.78
219.833	46.25
220.051	1.19
220.27	111.78
220.488	99.5
220.706	56.49
220.924	38.06
221.142	44.2
221.36	38.06
221.578	93.35
221.796	66.73
222.015	11.43
222.233	52.39
222.451	93.35
222.669	-88.92
222.887	33.96
223.105	-54.1
223.323	85.16
223.541	-11.09
223.759	-0.85
223.977	70.83
224.195	91.31
224.413	40.11
224.631	52.39
224.849	72.87
225.067	54.44
225.285	-33.62
225.503	-50
225.721	-50
225.939	76.97
226.157	44.2
226.375	140.46
226.592	58.54
226.81	15.53
227.028	50.35
227.246	195.75
227.464	38.06
227.682	72.87
227.9	-13.14
228.117	-15.19
228.335	40.11
228.553	44.2
228.771	103.59
228.989	48.3
229.206	46.25
229.424	-11.09
229.642	17.58
229.86	19.63
230.077	87.21
230.295	7.34
230.513	95.4
230.731	74.92
230.948	146.6
231.166	99.5
231.384	40.11
231.601	-0.85
231.819	97.45
232.037	42.15
232.254	-15.19
232.472	87.21
232.689	7.34
232.907	62.63
233.125	-35.67
233.342	-39.76
233.56	79.02
233.777	33.96
233.995	29.87
234.213	70.83
234.43	89.26
234.648	99.5
234.865	117.93
235.083	23.72
235.3	7.34
235.518	15.53
235.735	124.07
235.953	74.92
236.17	87.21
236.388	46.25
236.605	33.96
236.822	38.06
237.04	48.3
237.257	85.16
237.475	128.17
237.692	105.64
237.909	56.49
238.127	11.43
238.344	130.22
238.562	3.24
238.779	1.19
238.996	1.19
239.214	17.58
239.431	83.11
239.648	25.77
239.865	124.07
240.083	38.06
240.3	87.21
240.517	56.49
240.735	62.63
240.952	36.01
241.169	79.02
241.386	25.77
241.603	79.02
241.821	-2.9
242.038	115.88
242.255	99.5
242.472	54.44
242.689	46.25
242.907	140.46
243.124	29.87
243.341	33.96
243.558	56.49
243.775	-15.19
243.992	58.54
244.209	140.46
244.426	105.64
244.643	124.07
244.86	38.06
245.078	38.06
245.295	46.25
245.512	31.91
245.729	54.44
245.946	54.44
246.163	76.97
246.38	64.68
246.597	23.72
246.814	74.92
247.031	107.69
247.248	15.53
247.464	44.2
247.681	5.29
247.898	87.21
248.115	95.4
248.332	-25.43
248.549	91.31
248.766	132.26
248.983	40.11
249.2	87.21
249.417	46.25
249.633	70.83
249.85	66.73
250.067	36.01
250.284	27.82
250.501	136.36
250.717	46.25
250.934	-9.05
251.151	46.25
251.368	83.11
251.585	50.35
251.801	38.06
252.018	-54.1
252.235	68.78
252.451	13.48
252.668	33.96
252.885	56.49
253.102	42.15
253.318	76.97
253.535	-4.95
253.752	-27.48
253.968	7.34
254.185	27.82
254.401	76.97
254.618	-13.14
254.835	5.29
255.051	56.49
255.268	72.87
255.484	54.44
255.701	74.92
255.917	50.35
256.134	-17.24
256.351	-2.9
256.567	42.15
256.784	48.3
257	-78.68
257.217	58.54
257.433	85.16
257.65	56.49
257.866	95.4
258.082	23.72
258.299	21.67
258.515	99.5
258.732	66.73
258.948	103.59
259.165	70.83
259.381	1.19
259.597	62.63
259.814	3.24
260.03	17.58
260.246	56.49
260.463	107.69
260.679	64.68
260.895	81.07
261.112	134.31
261.328	-23.38
261.544	38.06
261.761	167.08
261.977	38.06
262.193	25.77
262.409	58.54
262.626	31.91
262.842	-2.9
263.058	-2.9
263.274	70.83
263.49	97.45
263.707	58.54
263.923	15.53
264.139	-27.48
264.355	76.97
264.571	171.18
264.787	68.78
265.004	-15.19
265.22	5.29
265.436	-4.95
265.652	-7
265.868	-0.85
266.084	-15.19
266.3	83.11
266.516	21.67
266.732	126.12
266.948	-7
267.164	136.36
267.38	46.25
267.596	54.44
267.812	173.22
268.028	62.63
268.244	9.39
268.46	17.58
268.676	5.29
268.892	111.78
269.108	31.91
269.324	-7
269.54	1.19
269.756	130.22
269.972	-31.57
270.188	15.53
270.403	-52.05
270.619	46.25
270.835	64.68
271.051	70.83
271.267	64.68
271.483	-19.29
271.698	87.21
271.914	62.63
272.13	54.44
272.346	150.7
272.562	76.97
272.777	134.31
272.993	36.01
273.209	36.01
273.425	83.11
273.64	25.77
273.856	89.26
274.072	7.34
274.287	5.29
274.503	154.79
274.719	56.49
274.934	119.98
275.15	40.11
275.366	72.87
275.581	40.11
275.797	7.34
276.012	109.74
276.228	9.39
276.444	111.78
276.659	70.83
276.875	-0.85
277.09	76.97
277.306	42.15
277.521	87.21
277.737	5.29
277.952	21.67
278.168	40.11
278.383	70.83
278.599	97.45
278.814	72.87
279.03	48.3
279.245	70.83
279.461	93.35
279.676	72.87
279.892	-27.48
280.107	25.77
280.322	46.25
280.538	54.44
280.753	19.63
280.969	126.12
281.184	76.97
281.399	81.07
281.615	144.55
281.83	13.48
282.045	31.91
282.26	72.87
282.476	-27.48
282.691	107.69
282.906	50.35
283.122	25.77
283.337	-25.43
283.552	5.29
283.767	91.31
283.983	85.16
284.198	29.87
284.413	70.83
284.628	29.87
284.843	31.91
285.058	40.11
285.274	111.78
285.489	58.54
285.704	154.79
285.919	79.02
286.134	113.83
286.349	29.87
286.564	21.67
286.779	158.89
286.995	38.06
287.21	9.39
287.425	33.96
287.64	21.67
287.855	56.49
288.07	40.11
288.285	124.07
288.5	85.16
288.715	95.4
288.93	-27.48
289.145	7.34
289.36	52.39
289.575	5.29
289.79	91.31
290.004	52.39
290.219	95.4
290.434	23.72
290.649	-19.29
290.864	5.29
291.079	33.96
291.294	21.67
291.509	64.68
291.724	79.02
291.938	42.15
292.153	48.3
292.368	54.44
292.583	42.15
292.798	54.44
293.012	122.02
293.227	40.11
293.442	-23.38
293.657	107.69
293.871	115.88
294.086	60.59
294.301	95.4
294.516	138.41
294.73	21.67
294.945	101.55
295.16	15.53
295.374	76.97
295.589	87.21
295.804	-35.67
296.018	81.07
296.233	13.48
296.447	79.02
296.662	7.34
296.877	87.21
297.091	25.77
297.306	74.92
297.52	21.67
297.735	23.72
297.949	54.44
298.164	46.25
298.378	42.15
298.593	-9.05
298.807	17.58
299.022	27.82
299.236	138.41
299.451	54.44
299.665	21.67
299.88	52.39
300.094	60.59
300.309	23.72
300.523	40.11
300.737	58.54
300.952	-19.29
301.166	60.59
301.381	31.91
301.595	29.87
301.809	7.34
302.024	13.48
302.238	-7
302.452	113.83
302.667	-19.29
302.881	105.64
303.095	48.3
303.309	62.63
303.524	119.98
303.738	60.59
303.952	62.63
304.166	97.45
304.381	-4.95
304.595	103.59
304.809	109.74
305.023	107.69
305.237	7.34
305.452	48.3
305.666	36.01
305.88	70.83
306.094	119.98
306.308	52.39
306.522	115.88
306.736	85.16
306.95	42.15
307.164	48.3
307.379	87.21
307.593	165.03
307.807	46.25
308.021	177.32
308.235	44.2
308.449	-17.24
308.663	40.11
308.877	91.31
309.091	17.58
309.305	40.11
309.519	-9.05
309.733	64.68
309.947	-4.95
310.161	62.63
310.374	91.31
310.588	105.64
310.802	60.59
311.016	62.63
311.23	101.55
311.444	17.58
311.658	-23.38
311.872	79.02
312.085	113.83
312.299	117.93
312.513	97.45
312.727	81.07
312.941	72.87
313.154	7.34
313.368	58.54
313.582	46.25
313.796	48.3
314.009	58.54
314.223	138.41
314.437	62.63
314.651	115.88
314.864	23.72
315.078	-9.05
315.292	13.48
315.505	87.21
315.719	66.73
315.933	23.72
316.146	50.35
316.36	-0.85
316.573	160.94
316.787	42.15
317.001	50.35
317.214	44.2
317.428	81.07
317.641	17.58
317.855	124.07
318.068	48.3
318.282	-15.19
318.495	119.98
318.709	72.87
318.922	74.92
319.136	87.21
319.349	68.78
319.563	40.11
319.776	42.15
319.99	-72.53
320.203	13.48
320.417	9.39
320.63	62.63
320.843	130.22
321.057	62.63
321.27	124.07
321.483	79.02
321.697	95.4
321.91	52.39
322.124	134.31
322.337	48.3
322.55	19.63
322.763	31.91
322.977	95.4
323.19	48.3
323.403	56.49
323.617	36.01
323.83	124.07
324.043	66.73
324.256	52.39
324.469	52.39
324.683	128.17
324.896	46.25
325.109	44.2
325.322	50.35
325.535	103.59
325.748	95.4
325.962	-27.48
326.175	13.48
326.388	38.06
326.601	81.07
326.814	40.11
327.027	76.97
327.24	128.17
327.453	-54.1
327.666	66.73
327.879	126.12
328.092	99.5
328.305	54.44
328.518	31.91
328.731	36.01
328.944	5.29
329.157	48.3
329.37	68.78
329.583	156.84
329.796	107.69
330.009	-19.29
330.222	89.26
330.435	79.02
330.648	42.15
330.861	25.77
331.073	64.68
331.286	83.11
331.499	87.21
331.712	66.73
331.925	7.34
332.138	85.16
332.35	181.42
332.563	17.58
332.776	76.97
332.989	21.67
333.202	54.44
333.414	58.54
333.627	25.77
333.84	25.77
334.053	58.54
334.265	5.29
334.478	64.68
334.691	48.3
334.903	87.21
335.116	-56.15
335.329	36.01
335.541	48.3
335.754	152.74
335.966	17.58
336.179	81.07
336.392	40.11
336.604	21.67
336.817	36.01
337.029	113.83
337.242	48.3
337.454	68.78
337.667	13.48
337.88	62.63
338.092	54.44
338.305	146.6
338.517	3.24
338.729	79.02
338.942	101.55
339.154	29.87
339.367	97.45
339.579	70.83
339.792	-0.85
340.004	111.78
340.217	66.73
340.429	29.87
340.641	-9.05
340.854	31.91
341.066	62.63
341.278	113.83
341.491	101.55
341.703	56.49
341.915	42.15
342.128	79.02
342.34	38.06
342.552	74.92
342.764	31.91
342.977	-0.85
343.189	-9.05
343.401	40.11
343.613	19.63
343.826	48.3
344.038	38.06
344.25	74.92
344.462	-35.67
344.674	74.92
344.886	50.35
345.099	42.15
345.311	160.94
345.523	93.35
345.735	25.77
345.947	58.54
346.159	101.55
346.371	56.49
346.583	58.54
346.795	136.36
347.007	33.96
347.219	169.13
347.431	72.87
347.643	93.35
347.855	81.07
348.067	62.63
348.279	-37.72
348.491	58.54
348.703	99.5
348.915	60.59
349.127	40.11
349.339	83.11
349.551	58.54
349.763	70.83
349.975	38.06
350.187	156.84
350.399	70.83
350.61	124.07
350.822	19.63
351.034	23.72
351.246	46.25
351.458	95.4
351.669	142.5
351.881	44.2
352.093	29.87
352.305	138.41
352.517	87.21
352.728	79.02
352.94	23.72
353.152	113.83
353.363	54.44
353.575	175.27
353.787	119.98
353.999	25.77
354.21	91.31
354.422	17.58
354.633	15.53
354.845	50.35
355.057	38.06
355.268	70.83
355.48	64.68
355.692	23.72
355.903	119.98
356.115	23.72
356.326	13.48
356.538	136.36
356.749	136.36
356.961	95.4
357.172	83.11
357.384	7.34
357.595	87.21
357.807	19.63
358.018	50.35
358.23	89.26
358.441	91.31
358.653	81.07
358.864	79.02
359.075	25.77
359.287	70.83
359.498	91.31
359.709	95.4
359.921	87.21
360.132	79.02
360.344	76.97
360.555	89.26
360.766	103.59
360.977	38.06
361.189	97.45
361.4	58.54
361.611	95.4
361.823	76.97
362.034	79.02
362.245	42.15
362.456	62.63
362.667	91.31
362.879	87.21
363.09	111.78
363.301	66.73
363.512	40.11
363.723	-2.9
363.935	33.96
364.146	27.82
364.357	83.11
364.568	52.39
364.779	11.43
364.99	115.88
365.201	70.83
365.412	142.5
365.623	42.15
365.834	103.59
366.045	68.78
366.256	87.21
366.467	42.15
366.678	107.69
366.889	101.55
367.1	87.21
367.311	193.7
367.522	62.63
367.733	97.45
367.944	103.59
368.155	54.44
368.366	122.02
368.577	74.92
368.788	105.64
368.999	76.97
369.209	42.15
369.42	152.74
369.631	179.37
369.842	138.41
370.053	7.34
370.264	93.35
370.474	11.43
370.685	5.29
370.896	83.11
371.107	119.98
371.317	111.78
371.528	7.34
371.739	97.45
371.95	62.63
372.16	87.21
372.371	105.64
372.582	97.45
372.792	62.63
373.003	62.63
373.214	128.17
373.424	132.26
373.635	79.02
373.846	66.73
374.056	-23.38
374.267	40.11
374.477	27.82
374.688	52.39
374.898	46.25
375.109	52.39
375.319	29.87
375.53	179.37
375.74	33.96
375.951	31.91
376.161	111.78
376.372	156.84
376.582	44.2
376.793	68.78
377.003	62.63
377.214	46.25
377.424	36.01
377.635	99.5
377.845	126.12
378.055	128.17
378.266	74.92
378.476	31.91
378.686	117.93
378.897	122.02
379.107	111.78
379.317	60.59
379.528	103.59
379.738	91.31
379.948	-13.14
380.158	119.98
380.369	56.49
380.579	146.6
380.789	-0.85
380.999	146.6
381.21	72.87
381.42	93.35
381.63	58.54
381.84	50.35
382.05	66.73
382.261	132.26
382.471	130.22
382.681	33.96
382.891	185.51
383.101	105.64
383.311	50.35
383.521	66.73
383.731	7.34
383.941	105.64
384.151	79.02
384.361	138.41
384.571	52.39
384.781	126.12
384.991	130.22
385.201	119.98
385.411	95.4
385.621	93.35
385.831	101.55
386.041	58.54
386.251	89.26
386.461	89.26
386.671	48.3
386.881	111.78
387.091	76.97
387.301	109.74
387.511	29.87
387.72	197.8
387.93	111.78
388.14	68.78
388.35	21.67
388.56	99.5
388.769	124.07
388.979	99.5
389.189	21.67
389.399	66.73
389.609	66.73
389.818	140.46
390.028	150.7
390.238	87.21
390.447	70.83
390.657	81.07
390.867	72.87
391.076	17.58
391.286	81.07
391.496	138.41
391.705	52.39
391.915	115.88
392.125	154.79
392.334	91.31
392.544	152.74
392.753	144.55
392.963	113.83
393.172	105.64
393.382	95.4
393.591	167.08
393.801	85.16
394.01	128.17
394.22	89.26
394.429	66.73
394.639	126.12
394.848	91.31
395.058	79.02
395.267	140.46
395.477	177.32
395.686	91.31
395.895	156.84
396.105	294.05
396.314	148.65
396.524	167.08
396.733	81.07
396.942	144.55
397.152	132.26
397.361	228.52
397.57	117.93
397.78	138.41
397.989	148.65
398.198	242.85
398.407	81.07
398.617	95.4
398.826	111.78
399.035	148.65
399.244	173.22
399.453	119.98
399.663	195.75
399.872	124.07
400.081	150.7
400.29	203.94
400.499	165.03
400.708	165.03
400.917	154.79
401.127	126.12
401.336	113.83
401.545	261.29
401.754	226.47
401.963	138.41
402.172	76.97
402.381	134.31
402.59	144.55
402.799	185.51
403.008	249
403.217	230.57
403.426	244.9
403.635	105.64
403.844	205.99
404.053	169.13
404.262	246.95
404.471	332.97
404.68	191.66
404.888	220.33
405.097	253.09
405.306	267.43
405.515	185.51
405.724	216.23
405.933	255.14
406.142	203.94
406.35	283.81
406.559	283.81
406.768	265.38
406.977	330.92
407.185	292.01
407.394	263.33
407.603	197.8
407.812	326.82
408.02	302.25
408.229	281.77
408.438	296.1
408.646	289.96
408.855	341.16
409.064	322.73
409.272	332.97
409.481	392.36
409.69	332.97
409.898	404.64
410.107	425.12
410.315	408.74
410.524	353.45
410.733	457.89
410.941	439.46
411.15	478.37
411.358	507.04
411.567	568.48
411.775	543.91
411.984	603.3
412.192	545.95
412.401	593.06
412.609	582.82
412.818	629.92
413.026	666.78
413.234	691.36
413.443	732.32
413.651	701.6
413.86	742.56
414.068	822.43
414.276	916.64
414.485	756.9
414.693	783.52
414.901	871.58
415.11	939.16
415.318	887.97
415.526	908.44
415.734	1084.57
415.943	1016.99
416.151	1125.53
416.359	1184.92
416.567	1162.39
416.776	1199.26
416.984	1260.7
417.192	1377.43
417.4	1270.94
417.608	1350.81
417.817	1438.87
418.025	1518.74
418.233	1563.79
418.441	1623.19
418.649	1606.8
418.857	1698.96
419.065	1784.98
419.273	1758.35
419.481	1926.29
419.689	1926.29
419.897	1995.92
420.105	1948.81
420.313	1971.34
420.521	2073.74
420.729	2243.72
420.937	2290.82
421.145	2331.78
421.353	2477.19
421.561	2626.69
421.769	2606.21
421.977	2800.77
422.185	2694.27
422.393	2888.83
422.601	3085.44
422.809	3105.92
423.017	3079.29
423.224	3427.45
423.432	3523.7
423.64	3384.44
423.848	3628.15
424.056	3527.8
424.263	3740.79
424.471	3832.94
424.679	3927.15
424.887	4326.5
425.094	4174.95
425.302	4246.63
425.51	4527.21
425.718	4598.88
425.925	4613.22
426.133	4705.38
426.341	4996.19
426.548	5172.32
426.756	5225.56
426.964	5323.87
427.171	5778.51
427.379	5706.84
427.586	5809.23
427.794	6001.74
428.001	6495.3
428.209	6591.56
428.417	6388.81
428.624	7011.39
428.832	7013.44
429.039	7007.3
429.247	6945.86
429.454	7509.05
429.662	8115.25
429.869	7695.41
430.076	8274.99
430.284	7916.59
430.491	8213.55
430.699	8690.73
430.906	8627.24
431.114	9014.31
431.321	9376.8
431.528	9372.7
431.736	10077.2
431.943	10368.01
432.15	10083.34
432.358	10112.02
432.565	10679.3
432.772	10834.95
432.979	11566.07
433.187	11662.33
433.394	11375.61
433.601	12235.76
433.808	12329.97
434.016	12340.21
434.223	12964.84
434.43	13401.05
434.637	13530.08
434.844	14152.66
435.052	14541.77
435.259	14627.79
435.466	14427.09
435.673	14330.83
435.88	15162.31
436.087	16190.39
436.294	15979.45
436.501	15911.86
436.708	16010.17
436.915	16520.11
437.122	17529.76
437.329	17271.72
437.537	18033.56
437.743	17996.7
437.95	17886.11
438.157	19067.78
438.364	19682.17
438.571	19733.37
438.778	19805.05
438.985	21625.7
439.192	20878.19
439.399	21316.45
439.606	20882.28
439.813	22070.11
440.02	23407.43
440.227	22993.74
440.433	22807.37
440.64	23552.84
440.847	23520.07
441.054	24148.79
441.261	25293.61
441.467	25375.53
441.674	25615.14
441.881	26837.78
442.088	26315.55
442.294	26571.54
442.501	27204.36
442.708	27593.48
442.914	28877.55
443.121	29682.41
443.328	29102.83
443.534	31099.6
443.741	29930.21
443.948	29995.74
444.154	32279.23
444.361	31830.72
444.568	32223.93
444.774	32156.35
444.981	32484.03
445.187	33274.54
445.394	34878.1
445.6	34458.27
445.807	37763.69
446.013	35789.45
446.22	36588.16
446.426	38054.5
446.633	39006.81
446.839	39692.88
447.046	38306.4
447.252	40202.82
447.459	40475.2
447.665	39934.54
447.871	41771.57
448.078	43885.07
448.284	41785.9
448.491	42668.58
448.697	44403.21
448.903	45306.36
449.11	45382.13
449.316	45396.47
449.522	45623.79
449.728	46821.86
449.935	47184.35
450.141	47245.79
450.347	48142.8
450.553	46600.68
450.76	47395.29
450.966	49039.81
451.172	48155.08
451.378	49529.27
451.584	48742.85
451.791	49631.67
451.997	49285.56
452.203	50170.29
452.409	50764.2
452.615	50049.45
452.821	48183.76
453.027	48214.47
453.233	50717.09
453.44	48579.01
453.646	48861.63
453.852	49340.86
454.058	50545.06
454.264	48667.08
454.47	49480.12
454.676	48398.79
454.882	50092.46
455.088	46176.75
455.294	46469.61
455.5	47485.4
455.705	47643.09
455.911	46094.83
456.117	45378.04
456.323	44601.86
456.529	42336.8
456.735	44112.39
456.941	42961.44
457.147	42549.79
457.352	41554.48
457.558	40960.57
457.764	41110.07
457.97	39715.4
458.176	39012.95
458.381	39121.49
458.587	37393.01
458.793	37364.34
458.999	35383.95
459.204	37954.15
459.41	36813.43
459.616	34216.61
459.821	34575
460.027	34425.5
460.233	33747.62
460.438	32160.45
460.644	32152.26
460.85	31206.09
461.055	30247.65
461.261	30210.78
461.466	28166.91
461.672	27151.12
461.878	29205.23
462.083	27294.47
462.289	26385.18
462.494	26419.99
462.7	25393.96
462.905	24548.15
463.111	25830.18
463.316	25674.53
463.522	24859.44
463.727	24875.82
463.932	24832.82
464.138	24605.49
464.343	24892.21
464.549	24013.63
464.754	25101.1
464.959	24560.44
465.165	24597.3
465.37	23477.06
465.575	22598.48
465.781	23905.09
465.986	24281.91
466.191	22946.64
466.397	22719.31
466.602	21556.07
466.807	22377.3
467.012	22350.68
467.218	22514.52
467.423	22000.47
467.628	22086.49
467.833	23008.08
468.038	22072.15
468.244	21089.13
468.449	22475.6
468.654	21584.74
468.859	21474.15
469.064	21252.97
469.269	20392.82
469.474	20560.75
469.679	21232.49
469.885	20716.4
470.09	20740.97
470.295	20769.65
470.5	20415.35
470.705	20079.48
470.91	19764.09
471.115	19696.51
471.32	19952.51
471.525	19698.56
471.73	19121.03
471.935	19137.41
472.139	18678.67
472.344	18994.06
472.549	18582.42
472.754	18461.58
472.959	17841.05
473.164	17712.03
473.369	17558.43
473.574	18398.1
473.778	17925.02
473.983	18168.73
474.188	17636.25
474.393	16706.48
474.598	17030.05
474.802	16647.08
475.007	16864.17
475.212	16692.14
475.417	16092.09
475.621	16100.28
475.826	16198.58
476.031	15952.82
476.235	15451.07
476.44	15895.48
476.645	15440.83
476.849	15258.56
477.054	15463.36
477.259	14951.37
477.463	15098.82
477.668	14660.55
477.872	14945.22
478.077	14570.44
478.282	14615.5
478.486	14382.03
478.691	14207.95
478.895	13992.92
479.1	14003.16
479.304	14111.7
479.509	13417.44
479.713	14089.17
479.918	13566.94
480.122	13075.43
480.326	13722.59
480.531	13589.47
480.735	13272.03
480.94	13126.63
481.144	13603.8
481.348	12753.9
481.553	13065.19
481.757	12870.63
481.961	12889.06
482.166	13138.91
482.37	13071.33
482.574	12952.55
482.778	12848.1
482.983	13073.38
483.187	12968.93
483.391	12964.84
483.595	12940.26
483.8	12909.54
484.004	13091.81
484.208	13356
484.412	12858.34
484.616	13028.32
484.821	12844.01
485.025	12788.71
485.229	12964.84
485.433	12723.18
485.637	12862.44
485.841	12884.97
486.045	12960.74
486.249	13065.19
486.453	12893.16
486.657	12983.27
486.861	12997.6
487.065	12741.61
487.269	12975.08
487.473	12776.42
487.677	13034.47
487.881	13304.8
488.085	12938.21
488.289	13157.35
488.493	12905.45
488.697	13216.74
488.901	12905.45
489.105	12862.44
489.309	13081.57
489.512	13153.25
489.716	13075.43
489.92	13196.26
490.124	12991.46
490.328	13335.52
490.531	13093.86
490.735	13245.41
490.939	13108.19
491.143	13138.91
491.346	13310.94
491.55	13583.32
491.754	13323.23
491.958	13564.89
492.161	13478.88
492.365	13759.45
492.569	13501.4
492.772	13405.15
492.976	13865.94
493.18	13689.82
493.383	13904.85
493.587	14316.5
493.79	14224.34
493.994	13867.99
494.197	14123.99
494.401	14152.66
494.605	14027.73
494.808	14451.66
495.012	14681.03
495.215	14607.31
495.419	14830.54
495.622	14721.99
495.825	15072.2
496.029	14910.41
496.232	15352.77
496.436	15195.07
496.639	15692.73
496.843	15346.62
497.046	15915.96
497.249	15940.54
497.453	16034.74
497.656	16237.49
497.859	16343.99
498.063	16415.66
498.266	16620.46
498.469	16436.14
498.673	17189.8
498.876	17159.08
499.079	17290.15
499.282	17187.75
499.485	17662.88
499.689	17474.46
499.892	18049.94
500.095	17847.19
500.298	18414.48
500.501	18416.53
500.705	18822.03
500.908	19182.47
501.111	19065.74
501.314	19297.16
501.517	19551.1
501.72	19764.09
501.923	20050.81
502.126	20214.65
502.329	20622.19
502.532	20577.14
502.735	20716.4
502.938	21140.33
503.141	21039.98
503.344	21449.57
503.547	21449.57
503.75	21934.94
503.953	22135.64
504.156	22100.83
504.359	22549.33
504.562	22754.13
504.765	22856.53
504.968	23210.82
505.17	23563.08
505.373	23575.36
505.576	24240.95
505.779	24171.32
505.982	24372.02
506.185	24765.23
506.387	24789.81
506.59	24986.41
506.793	25441.06
506.996	25486.12
507.198	26049.31
507.401	26096.41
507.604	26309.4
507.807	26946.32
508.009	27284.23
508.212	27439.88
508.415	27423.5
508.617	27726.6
508.82	28091.13
509.022	27667.2
509.225	28533.5
509.428	28783.35
509.63	29139.69
509.833	29203.18
510.035	30008.03
510.238	29764.32
510.44	30253.79
510.643	30513.88
510.845	30724.82
511.048	30778.07
511.25	31140.56
511.453	31587.02
511.655	32449.21
511.858	32056
512.06	32158.4
512.262	32772.79
512.465	32969.4
512.667	33245.87
512.87	33602.22
513.072	33659.56
513.274	33954.47
513.477	34261.66
513.679	34671.26
513.881	35050.13
514.084	35641.99
514.286	35578.51
514.488	35746.44
514.69	36518.53
514.893	36764.28
515.095	36852.34
515.297	37143.16
515.499	37403.25
515.701	37595.76
515.904	38087.27
516.106	38148.71
516.308	38705.76
516.51	39066.2
516.712	38861.4
516.914	39404.11
517.116	40268.36
517.318	40186.44
517.52	40213.06
517.722	40766.01
517.925	41009.72
518.127	41472.56
518.329	41919.02
518.531	41853.48
518.733	42467.87
518.935	42648.1
519.136	42457.63
519.338	43379.22
519.54	43219.48
519.742	43739.66
519.944	44124.68
520.146	44481.03
520.348	44960.25
520.55	44976.64
520.752	45277.69
520.954	45795.82
521.155	45552.12
521.357	46215.66
521.559	46094.83
521.761	47546.84
521.963	47153.63
522.164	47460.82
522.366	47469.01
522.568	48181.71
522.77	48005.58
522.971	48572.87
523.173	48110.03
523.375	48665.03
523.576	48814.53
523.778	48988.61
523.98	49908.15
524.181	49605.05
524.383	50235.82
524.584	50262.44
524.786	51003.81
524.988	50325.93
525.189	50868.64
525.391	51071.39
525.592	51429.79
525.794	51620.25
525.995	51573.14
526.197	51466.65
526.398	52394.38
526.6	52236.69
526.801	52537.74
527.003	52574.6
527.204	52679.05
527.406	52754.82
527.607	53279.1
527.808	53502.33
528.01	52593.03
528.211	53150.08
528.412	53926.26
528.614	53727.61
528.815	53977.46
529.016	54364.53
529.218	54116.72
529.419	53864.82
529.62	54126.96
529.822	54266.22
530.023	53979.51
530.224	54280.56
530.425	54444.4
530.626	54327.66
530.828	54532.46
531.029	55546.2
531.23	54286.7
531.431	54870.37
531.632	54792.55
531.833	55177.57
532.035	54946.15
532.236	55017.83
532.437	55574.87
532.638	55427.42
532.839	55224.67
533.04	55853.4
533.241	55222.62
533.442	55689.56
533.643	55210.34
533.844	55593.31
534.045	55488.86
534.246	55325.02
534.447	55572.83
534.648	55316.83
534.849	55732.57
535.05	54989.16
535.251	55443.8
535.451	55566.68
535.652	55755.1
535.853	55687.51
536.054	55505.24
536.255	55474.52
536.456	55189.86
536.657	56430.93
536.857	55707.99
537.058	55554.39
537.259	55988.56
537.46	55509.34
537.66	55693.66
537.861	55714.14
538.062	55611.74
538.263	55775.58
538.463	55695.7
538.664	55509.34
538.865	55556.44
539.065	55847.25
539.266	55247.2
539.466	55966.04
539.667	55060.83
539.868	56033.62
540.068	55148.9
540.269	55613.79
540.469	55771.48
540.67	55335.26
540.87	55626.07
541.071	55216.48
541.271	55486.81
541.472	55599.45
541.672	55239.01
541.873	55206.24
542.073	54626.67
542.274	55624.03
542.474	55165.28
542.675	55157.09
542.875	55734.62
543.075	55572.83
543.276	54589.8
543.476	55699.8
543.676	55312.73
543.877	55435.61
544.077	55671.13
544.277	54933.86
544.478	55071.07
544.678	55404.89
544.878	55355.74
545.078	55128.42
545.279	54874.47
545.479	54872.42
545.679	55116.13
545.879	54942.05
546.079	54991.2
546.28	55370.08
546.48	54899.04
546.68	55509.34
546.88	55109.99
547.08	55155.04
547.28	55187.81
547.48	54706.54
547.68	55007.59
547.88	54448.49
548.081	55101.79
548.281	54954.34
548.481	54358.38
548.681	55038.31
548.881	54851.94
549.081	55284.06
549.28	54221.17
549.48	55107.94
549.68	54739.3
549.88	55853.4
550.08	54831.46
550.28	54757.74
550.48	54663.53
550.68	54968.68
550.88	54217.07
551.08	54913.38
551.279	54997.35
551.479	54649.19
551.679	54534.51
551.879	54499.69
552.079	54901.09
552.278	54339.95
552.478	54485.36
552.678	54055.28
552.878	54706.54
553.077	54172.02
553.277	53989.75
553.477	54798.69
553.676	53993.84
553.876	54280.56
554.076	54157.68
554.275	53993.84
554.475	53510.52
554.674	54018.42
554.874	54378.86
555.074	53766.52
555.273	54315.37
555.473	54417.77
555.672	53819.77
555.872	53989.75
556.071	53971.32
556.271	54155.63
556.47	53653.88
556.67	53455.23
556.869	53897.59
557.068	54045.04
557.268	53275.01
557.467	53813.62
557.667	53512.57
557.866	53487.99
558.065	53313.92
558.265	53414.27
558.464	53133.7
558.663	53477.75
558.863	52638.09
559.062	53592.44
559.261	52677
559.461	53449.08
559.66	52459.91
559.859	52994.43
560.058	52421
560.258	52691.33
560.457	52547.98
560.656	52787.59
560.855	52298.12
561.054	52738.44
561.253	52187.53
561.453	52201.87
561.652	52341.13
561.851	52572.55
562.05	52017.55
562.249	51757.46
562.448	52439.43
562.647	51673.49
562.846	51503.51
563.045	51595.67
563.244	51292.57
563.443	51825.04
563.642	51175.84
563.841	51704.21
564.04	51155.36
564.239	51423.64
564.438	51132.83
564.637	51790.23
564.836	51491.22
565.035	50543.02
565.234	50862.5
565.432	50762.15
565.631	50813.35
565.83	51134.88
566.029	50661.8
566.228	50121.13
566.427	50221.48
566.625	50160.05
566.824	49928.62
567.023	50563.5
567.222	49205.69
567.42	50346.41
567.619	49891.76
567.818	49801.65
568.016	49891.76
568.215	50119.09
568.414	49383.87
568.612	49719.73
568.811	49377.72
569.01	49297.85
569.208	49076.67
569.407	49451.45
569.605	48619.97
569.804	49330.62
570.002	48470.47
570.201	48839.11
570.4	48591.3
570.598	48761.28
570.797	47876.56
570.995	48308.68
571.193	47716.82
571.392	48822.72
571.59	47874.51
571.789	47688.15
571.987	48392.65
572.186	47620.56
572.384	47759.83
572.582	47915.47
572.781	47655.38
572.979	47247.83
573.177	47391.19
573.376	47628.76
573.574	47151.58
573.772	47464.92
573.971	46410.21
574.169	46844.38
574.367	46666.21
574.565	46698.98
574.763	46115.31
574.962	46344.68
575.16	46236.14
575.358	46244.33
575.556	45580.79
575.754	46471.65
575.952	45261.3
576.151	46158.31
576.349	45724.14
576.547	45750.77
576.745	45552.12
576.943	45480.44
577.141	45279.74
577.339	45488.63
577.537	45165.05
577.735	45537.78
577.933	44687.87
578.131	44622.34
578.329	44626.43
578.527	44585.47
578.725	44562.95
578.923	44413.44
579.121	44071.43
579.319	44204.55
579.516	44071.43
579.714	44089.87
579.912	44294.66
580.11	44118.54
580.308	43944.46
580.506	43713.04
580.704	43104.79
580.901	43842.06
581.099	43672.08
581.297	42930.72
581.495	43252.25
581.692	43338.26
581.89	42830.37
582.088	43014.68
582.285	42621.47
582.483	42703.39
582.681	42889.76
582.878	42402.34
583.076	42562.08
583.274	42883.61
583.471	41941.55
583.669	42279.46
583.866	41896.49
584.064	42154.54
584.262	41810.48
584.459	41992.75
584.657	41617.97
584.854	41650.74
585.052	41134.65
585.249	41175.61
585.447	41384.5
585.644	40718.91
585.841	41038.39
586.039	41058.87
586.236	40659.52
586.434	40737.34
586.631	40256.07
586.828	40907.32
587.026	40786.49
587.223	40137.29
587.42	40108.61
587.618	40129.09
587.815	40088.13
588.012	39703.12
588.21	39457.36
588.407	39934.54
588.604	39551.57
588.801	39314
588.999	39309.91
589.196	39477.84
589.393	39305.81
589.59	38853.21
589.787	39242.32
589.984	38601.31
590.182	38636.13
590.379	38984.28
590.576	38204
590.773	38933.08
590.97	38474.34
591.167	38677.08
591.364	37753.45
591.561	38175.33
591.758	37479.02
591.955	37771.88
592.152	38021.73
592.349	37454.45
592.546	37804.65
592.743	37536.37
592.94	36932.22
593.137	37358.19
593.334	37440.11
593.531	36461.18
593.727	36915.83
593.924	36770.43
594.121	36500.09
594.318	36944.5
594.515	35973.77
594.712	36524.67
594.908	36258.43
595.105	36608.64
595.302	35967.62
595.499	36022.92
595.696	35953.29
595.892	35789.45
596.089	35746.44
596.286	35779.21
596.482	35637.9
596.679	35607.18
596.876	35527.31
597.072	35431.05
597.269	35195.54
597.466	34609.82
597.662	34964.12
597.859	35115.67
598.055	34970.26
598.252	34642.59
598.448	34802.33
598.645	34044.58
598.841	34142.88
599.038	33901.22
599.234	34509.47
599.431	33858.21
599.627	33718.95
599.824	34126.5
600.02	33809.06
600.217	33714.86
600.413	33385.13
600.609	33073.84
600.806	33045.17
601.002	33462.96
601.198	33084.08
601.395	32920.24
601.591	32864.95
601.787	33004.21
601.984	32572.09
602.18	33110.71
602.376	32201.41
602.572	32258.75
602.769	32498.36
602.965	31869.64
603.161	32246.46
603.357	32264.89
603.553	32096.96
603.75	32152.26
603.946	31963.84
604.142	31949.51
604.338	31455.95
604.534	31750.85
604.73	31435.47
604.926	31447.75
605.122	31625.93
605.318	30909.14
605.514	31273.68
605.71	30911.19
605.906	31337.16
606.102	30614.23
606.298	31171.28
606.494	30808.79
606.69	30804.69
606.886	30733.01
607.082	30350.04
607.278	30862.04
607.474	30057.18
607.67	30636.76
607.866	30001.89
608.062	30208.73
608.257	29960.93
608.453	30333.66
608.649	29905.63
608.845	29844.2
609.041	29479.66
609.236	29928.16
609.432	29766.37
609.628	29864.67
609.824	29594.34
610.019	29717.22
610.215	29774.56
610.411	29762.28
610.606	28842.74
610.802	29477.61
610.998	29348.59
611.193	29180.65
611.389	28930.8
611.584	28812.02
611.78	28721.91
611.976	28873.46
612.171	28918.51
612.367	28994.29
612.562	28795.64
612.758	28345.08
612.953	28560.12
613.149	28910.32
613.344	28297.98
613.539	28957.42
613.735	28465.91
613.93	28457.72
614.126	28140.29
614.321	28355.32
614.517	28427
614.712	27888.39
614.907	28035.84
615.103	28207.87
615.298	27861.76
615.493	28179.2
615.688	27495.18
615.884	28203.77
616.079	27458.31
616.274	28041.98
616.47	27544.33
616.665	27687.68
616.86	27794.18
617.055	27450.12
617.25	27566.85
617.445	27708.16
617.641	26929.94
617.836	27568.9
618.031	26981.13
618.226	27099.92
618.421	27142.92
618.616	27173.64
618.811	26856.21
619.006	27034.38
619.201	26540.82
619.396	26536.73
619.591	26223.39
619.786	26766.1
619.981	26161.95
620.176	26331.93
620.371	26053.41
620.566	26331.93
620.761	26147.61
620.956	26077.98
621.151	25383.72
621.346	25668.39
621.541	25041.71
621.735	25281.32
621.93	25054
622.125	25131.82
622.32	24689.46
622.515	24824.62
622.709	24802.1
622.904	24552.24
623.099	24683.31
623.294	24529.72
623.488	24161.08
623.683	24662.83
623.878	23731.01
624.072	24128.31
624.267	23847.74
624.462	23790.4
624.656	23413.57
624.851	23550.79
625.046	23198.54
625.24	23550.79
625.435	23130.95
625.629	23143.24
625.824	22649.68
626.018	22696.78
626.213	22258.52
626.407	22625.11
626.602	21943.13
626.796	22172.5
626.991	22528.85
627.185	22143.83
627.38	22152.02
627.574	21728.1
627.768	21719.9
627.963	21652.32
628.157	21209.96
628.352	21435.24
628.546	20806.51
628.74	21418.85
628.935	20978.54
629.129	21177.19
629.323	20267.89
629.517	20839.28
629.712	20382.58
629.906	20630.38
630.1	20251.51
630.294	20405.11
630.489	20013.95
630.683	20177.78
630.877	19876.73
631.071	19938.17
631.265	19835.77
631.459	19612.54
631.653	19661.69
631.848	19282.82
632.042	19360.64
632.236	19565.44
632.43	19075.98
632.624	19100.55
632.818	18725.77
633.012	18858.89
633.206	18709.39
633.4	18918.28
633.594	18465.68
633.788	18598.8
633.982	18076.57
634.176	18217.88
634.369	18183.06
634.563	18209.68
634.757	18043.8
634.951	17998.74
635.145	17922.97
635.339	18140.05
635.533	17531.81
635.726	17761.18
635.92	17171.36
636.114	17423.26
636.308	17259.43
636.501	17312.67
636.695	17122.21
636.889	17046.44
637.083	16898.98
637.276	16821.16
637.47	16411.57
637.664	16571.31
637.857	16640.94
638.051	16681.9
638.244	16370.61
638.438	16294.83
638.632	16257.97
638.825	15989.69
639.019	16157.62
639.212	15801.27
639.406	15903.67
639.599	15834.04
639.793	15721.4
639.986	15455.17
640.18	15768.51
640.373	15547.33
640.567	15176.64
640.76	15203.27
640.954	15066.05
641.147	15127.49
641.34	14908.36
641.534	15287.23
641.727	14998.47
641.92	15086.53
642.114	14744.52
642.307	14658.51
642.5	14767.05
642.694	14670.79
642.887	14482.38
643.08	14615.5
643.273	14410.7
643.467	14210
643.66	14105.56
643.853	14248.91
644.046	13992.92
644.239	14113.75
644.432	14011.35
644.626	13771.74
644.819	13765.59
645.012	13698.01
645.205	13751.26
645.398	13691.87
645.591	13446.11
645.784	13282.27
645.977	13390.81
646.17	13368.29
646.363	13052.9
646.556	13016.04
646.749	13112.29
646.942	13368.29
647.135	12983.27
647.328	12833.77
647.521	12907.49
647.714	12286.96
647.907	12590.06
648.099	12698.6
648.292	12784.62
648.485	12553.2
648.678	12325.87
648.871	12432.36
649.064	11998.2
649.256	12426.22
649.449	12325.87
649.642	12354.54
649.835	11953.14
650.027	11975.67
650.22	11820.02
650.413	11705.34
650.605	11631.61
650.798	11815.93
650.991	11721.72
651.183	11455.48
651.376	11590.65
651.568	11369.47
651.761	11572.22
651.954	11514.87
652.146	11283.45
652.339	11449.34
652.531	11320.32
652.724	11039.75
652.916	10839.05
653.109	10859.52
653.301	11123.71
653.494	11039.75
653.686	10875.91
653.879	11011.07
654.071	10877.96
654.263	10742.79
654.456	10712.07
654.648	10599.43
654.84	10576.91
655.033	10601.48
655.225	10419.21
655.417	10363.92
655.61	10458.12
655.802	10238.99
655.994	10212.37
656.186	10316.81
656.379	10314.77
656.571	10066.96
656.763	9954.32
656.955	9880.6
657.148	9974.8
657.34	10044.43
657.532	9772.05
657.724	9647.13
657.916	9823.25
658.108	9729.05
658.3	9698.33
658.492	9690.13
658.684	9630.74
658.876	9548.82
659.068	9352.22
659.26	9419.8
659.452	9497.63
659.644	9436.19
659.836	9251.87
660.028	9389.08
660.22	9094.18
660.412	9071.65
660.604	9149.47
660.796	9100.32
660.988	9083.94
661.18	8946.72
661.372	8905.76
661.563	8903.71
661.755	8934.43
661.947	8829.99
662.139	8666.15
662.331	8557.61
662.522	8606.76
662.714	8660.01
662.906	8569.9
663.097	8555.56
663.289	8369.19
663.481	8393.77
663.673	8424.49
663.864	8414.25
664.056	8252.46
664.247	8117.29
664.439	8148.01
664.631	8465.45
664.822	8152.11
665.014	8191.02
665.205	8246.32
665.397	8098.86
665.588	8143.92
665.78	7928.88
665.971	8188.97
666.163	8111.15
666.354	8066.1
666.546	7973.94
666.737	7857.2
666.929	7867.44
667.12	8037.42
667.311	7834.68
667.503	7767.09
667.694	7846.96
667.885	7593.01
668.077	7586.87
668.268	7597.11
668.459	7480.38
668.651	7562.3
668.842	7314.49
669.033	7488.57
669.224	7302.2
669.416	7535.67
669.607	7504.95
669.798	7418.94
669.989	7277.63
670.18	7359.55
670.371	7218.24
670.563	7171.13
670.754	7238.72
670.945	7119.93
671.136	7275.58
671.327	7113.79
671.518	7304.25
671.709	7064.64
671.9	7283.77
672.091	7259.2
672.282	7158.85
672.473	6933.57
672.664	7038.02
672.855	6978.62
673.046	6954.05
673.237	6982.72
673.428	6880.32
673.619	6896.71
673.809	6749.25
674	7048.26
674.191	6796.35
674.382	6777.92
674.573	6771.78
674.764	6810.69
674.954	6837.31
675.145	6835.27
675.336	6628.42
675.527	6696
675.717	6833.22
675.908	6603.85
676.099	6822.98
676.289	6849.6
676.48	6648.9
676.671	6624.33
676.861	6597.7
677.052	6554.69
677.243	6593.61
677.433	6517.83
677.624	6706.24
677.814	6601.8
678.005	6566.98
678.195	6593.61
678.386	6345.8
678.576	6501.45
678.767	6460.49
678.957	6456.39
679.148	6655.05
679.338	6644.81
679.529	6571.08
679.719	6515.78
679.909	6487.11
680.1	6476.87
680.29	6544.45
680.481	6372.43
680.671	6444.1
680.861	6538.31
681.052	6440.01
681.242	6427.72
681.432	6595.65
681.622	6423.62
681.813	6356.04
682.003	6427.72
682.193	6384.71
682.383	6345.8
682.573	6448.2
682.764	6227.02
682.954	6249.55
683.144	6347.85
683.334	6286.41
683.524	6308.94
683.714	6108.24
683.904	6186.06
684.094	6276.17
684.284	6300.75
684.474	6159.44
684.664	6134.86
684.854	6173.77
685.044	5997.65
685.234	6124.62
685.424	6024.27
685.614	6122.57
685.804	6218.83
685.994	6091.85
686.184	6020.17
686.374	6155.34
686.564	5854.29
686.753	5989.46
686.943	5784.66
687.133	6001.74
687.323	5870.67
687.513	5968.98
687.702	6001.74
687.892	5780.56
688.082	5764.18
688.272	5727.32
688.461	5667.92
688.651	5651.54
688.841	5626.96
689.03	5727.32
689.22	5629.01
689.41	5385.3
689.599	5538.9
689.789	5375.06
689.979	5377.11
690.168	5434.46
690.358	5534.81
690.547	5211.23
690.737	5264.47
690.926	5293.15
691.116	5162.08
691.305	5330.01
691.495	5327.96
691.684	5153.88
691.874	5213.28
692.063	5248.09
692.252	5143.64
692.442	5100.64
692.631	5020.77
692.82	5153.88
693.01	5010.53
693.199	4930.66
693.388	4844.64
693.578	4811.87
693.767	4942.94
693.956	4910.18
694.146	4813.92
694.335	4822.11
694.524	4854.88
694.713	4715.62
694.902	4713.57
695.092	4760.67
695.281	4594.79
695.47	4676.71
695.659	4613.22
695.848	4715.62
696.037	4680.8
696.226	4676.71
696.415	4607.08
696.604	4523.11
696.793	4547.69
696.982	4521.06
697.171	4615.27
697.36	4789.35
697.549	4443.24
697.738	4480.1
697.927	4512.87
698.116	4486.25
698.305	4502.63
698.494	4420.71
698.683	4478.05
698.872	4420.71
699.061	4355.18
699.25	4441.19
699.438	4545.64
699.627	4437.09
699.816	4402.28
700.005	4308.07
700.193	4426.86
700.382	4281.45
700.571	4256.87
700.76	4330.6
700.948	4519.01
701.137	4269.16
701.326	4353.13
701.514	4332.65
701.703	4344.94
701.892	4187.24
702.08	4414.57
702.269	4338.79
702.457	4209.77
702.646	4252.78
702.834	4275.31
703.023	4310.12
703.212	4367.46
703.4	4125.8
703.589	4226.15
703.777	4281.45
703.965	3994.73
704.154	4154.48
704.342	4185.19
704.531	4160.62
704.719	4164.72
704.907	4148.33
705.096	4164.72
705.284	4205.67
705.472	4215.91
705.661	4084.84
705.849	4131.95
706.037	4349.03
706.226	4203.63
706.414	4203.63
706.602	4150.38
706.79	4301.93
706.979	4142.19
707.167	4205.67
707.355	4037.74
707.543	4131.95
707.731	4236.39
707.919	4136.04
708.107	4142.19
708.296	4211.82
708.484	4134
708.672	4123.76
708.86	4119.66
709.048	4095.08
709.236	4136.04
709.424	4260.97
709.612	4131.95
709.8	4220.01
709.988	4045.93
710.176	4320.36
710.364	4248.68
710.551	4129.9
710.739	4166.76
710.927	4111.47
711.115	4107.37
711.303	4099.18
711.491	4177
711.679	4209.77
711.866	4164.72
712.054	4287.59
712.242	4168.81
712.43	4273.26
712.617	4160.62
712.805	4283.5
712.993	4127.85
713.181	4142.19
713.368	4285.55
713.556	4220.01
713.744	4191.34
713.931	4441.19
714.119	4226.15
714.306	4226.15
714.494	4150.38
714.682	4136.04
714.869	4105.32
715.057	4293.74
715.244	4166.76
715.432	4246.63
715.619	4383.85
715.807	4387.94
715.994	4242.54
716.182	4265.07
716.369	4248.68
716.556	4367.46
716.744	4109.42
716.931	4291.69
717.119	4246.63
717.306	4279.4
717.493	4232.3
717.681	4230.25
717.868	4435.05
718.055	4250.73
718.242	4322.41
718.43	4275.31
718.617	4355.18
718.804	4303.98
718.991	4289.64
719.179	4412.52
719.366	4346.98
719.553	4299.88
719.74	4379.75
719.927	4402.28
720.114	4414.57
720.301	4258.92
720.488	4054.12
720.676	4338.79
720.863	4430.95
721.05	4400.23
721.237	4342.89
721.424	4351.08
721.611	4338.79
721.798	4449.38
721.985	4211.82
722.172	4293.74
722.358	4156.52
722.545	4410.47
722.732	4306.02
722.919	4426.86
723.106	4346.98
723.293	4389.99
723.48	4506.73
723.667	4375.66
723.853	4408.42
724.04	4379.75
724.227	4392.04
724.414	4494.44
724.6	4457.57
724.787	4480.1
724.974	4465.77
725.161	4467.81
725.347	4281.45
725.534	4449.38
725.72	4439.14
725.907	4332.65
726.094	4478.05
726.28	4449.38
726.467	4482.15
726.653	4344.94
726.84	4492.39
727.027	4486.25
727.213	4629.6
727.4	4588.64
727.586	4576.36
727.773	4344.94
727.959	4414.57
728.145	4578.4
728.332	4588.64
728.518	4576.36
728.705	4559.97
728.891	4500.58
729.077	4486.25
729.264	4611.17
729.45	4473.96
729.636	4430.95
729.823	4385.9
730.009	4572.26
730.195	4514.92
730.382	4400.23
730.568	4576.36
730.754	4514.92
730.94	4516.97
731.126	4596.84
731.313	4545.64
731.499	4445.29
731.685	4506.73
731.871	4596.84
732.057	4641.89
732.243	4510.82
732.429	4557.93
732.615	4664.42
732.801	4625.51
732.987	4508.77
733.173	4439.14
733.359	4504.68
733.545	4416.62
733.731	4539.49
733.917	4523.11
734.103	4519.01
734.289	4584.55
734.475	4400.23
734.661	4617.32
734.847	4543.59
735.033	4559.97
735.219	4494.44
735.404	4641.89
735.59	4537.45
735.776	4559.97
735.962	4600.93
736.148	4449.38
736.333	4406.38
736.519	4314.22
736.705	4449.38
736.89	4510.82
737.076	4426.86
737.262	4445.29
737.447	4373.61
737.633	4504.68
737.819	4299.88
738.004	4363.37
738.19	4459.62
738.375	4349.03
738.561	4387.94
738.747	4383.85
738.932	4412.52
739.118	4387.94
739.303	4449.38
739.489	4580.45
739.674	4344.94
739.859	4408.42
740.045	4363.37
740.23	4252.78
740.416	4301.93
740.601	4363.37
740.786	4422.76
740.972	4328.55
741.157	4193.39
741.342	4340.84
741.528	4150.38
741.713	4346.98
741.898	4271.21
742.084	4158.57
742.269	4215.91
742.454	4201.58
742.639	4306.02
742.824	4260.97
743.01	4197.48
743.195	4244.59
743.38	4179.05
743.565	4263.02
743.75	4086.89
743.935	4115.56
744.12	4080.75
744.305	3998.83
744.49	4129.9
744.675	3974.25
744.86	4064.36
745.045	3976.3
745.23	3941.49
745.415	3902.58
745.6	3970.16
745.785	3777.65
745.97	4035.69
746.155	3933.29
746.34	3875.95
746.525	3921.01
746.71	3908.72
746.895	3816.56
747.079	3650.67
747.264	3718.26
747.449	3773.55
747.634	3746.93
747.819	3832.94
748.003	3538.04
748.188	3669.11
748.373	3574.9
748.557	3603.57
748.742	3681.39
748.927	3640.44
749.111	3585.14
749.296	3535.99
749.481	3585.14
749.665	3431.54
749.85	3429.49
750.034	3456.12
750.219	3396.73
750.404	3460.21
750.588	3314.81
750.773	3468.41
750.957	3337.34
751.141	3204.22
751.326	3267.7
751.51	3146.87
751.695	3314.81
751.879	3261.56
752.064	3300.47
752.248	3259.51
752.432	3189.88
752.617	3077.24
752.801	3110.01
752.985	3159.16
753.17	3087.48
753.354	3095.68
753.538	3081.34
753.722	2940.03
753.907	2845.82
754.091	2845.82
754.275	2940.03
754.459	2858.11
754.643	2856.06
754.828	2804.86
755.012	2925.69
755.196	2831.49
755.38	2890.88
755.564	2634.88
755.748	2755.71
755.932	2784.38
756.116	2729.09
756.3	2751.62
756.484	2610.31
756.668	2737.28
756.852	2696.32
757.036	2542.72
757.22	2724.99
757.404	2522.24
757.588	2655.36
757.772	2612.35
757.956	2583.68
758.14	2643.07
758.323	2335.88
758.507	2606.21
758.691	2544.77
758.875	2509.96
759.059	2565.25
759.242	2409.61
759.426	2376.84
759.61	2471.04
759.794	2423.94
759.977	2382.98
760.161	2407.56
760.345	2403.46
760.528	2315.4
760.712	2290.82
760.895	2411.65
761.079	2327.69
761.263	2260.1
761.446	2210.95
761.63	2290.82
761.813	2307.21
761.997	2159.75
762.18	2231.43
762.364	2317.45
762.547	2129.03
762.731	2225.29
762.914	2233.48
763.098	2163.85
763.281	2163.85
763.464	2141.32
763.648	2092.17
763.831	1997.96
764.015	2045.07
764.198	2083.98
764.381	2131.08
764.564	2028.68
764.748	2100.36
764.931	2038.92
765.114	2067.6
765.297	2124.94
765.481	1950.86
765.664	1957
765.847	1842.32
766.03	1916.05
766.213	1989.77
766.397	1918.09
766.58	1942.67
766.763	1870.99
766.946	2006.16
767.129	1934.48
767.312	1832.08
767.495	2000.01
767.678	1823.89
767.861	1895.57
768.044	1897.61
768.227	1879.18
768.41	1797.26
768.593	1840.27
768.776	1899.66
768.959	1920.14
769.142	1893.52
769.324	1807.5
769.507	1752.21
769.69	1856.65
769.873	1905.81
770.056	1856.65
770.239	1819.79
770.421	1725.58
770.604	1782.93
770.787	1655.95
770.97	1723.54
771.152	1619.09
771.335	1774.74
771.518	1586.32
771.7	1739.92
771.883	1780.88
772.066	1762.45
772.248	1735.82
772.431	1608.85
772.613	1645.71
772.796	1637.52
772.978	1655.95
773.161	1641.62
773.343	1604.75
773.526	1516.69
773.708	1469.59
773.891	1537.17
774.073	1483.92
774.256	1496.21
774.438	1512.6
774.621	1506.45
774.803	1533.08
774.985	1471.64
775.168	1494.16
775.35	1522.84
775.532	1451.16
775.715	1365.14
775.897	1461.4
776.079	1461.4
776.261	1440.92
776.444	1463.44
776.626	1399.96
776.808	1377.43
776.99	1438.87
777.173	1309.85
777.355	1264.79
777.537	1402.01
777.719	1393.81
777.901	1291.41
778.083	1223.83
778.265	1275.03
778.447	1299.61
778.629	1133.72
778.811	1238.17
778.993	1158.3
779.175	1272.98
779.357	1193.11
779.539	1258.65
779.721	1105.05
779.903	1211.54
780.085	1217.69
780.267	1193.11
780.449	1172.63
780.631	1143.96
780.812	1275.03
780.994	1180.82
781.176	1203.35
781.358	1172.63
781.54	1117.34
781.721	1129.63
781.903	1094.81
782.085	1068.19
782.267	1062.04
782.448	1014.94
782.63	1070.23
782.812	1064.09
782.993	959.64
783.175	1066.14
783.357	988.32
783.538	988.32
783.72	1037.47
783.901	959.64
784.083	1045.66
784.264	992.41
784.446	937.12
784.627	935.07
784.809	980.12
784.99	951.45
785.172	910.49
785.353	1039.51
785.535	894.11
785.716	914.59
785.897	840.86
786.079	752.8
786.26	930.97
786.441	908.44
786.623	896.16
786.804	900.25
786.985	869.53
787.167	883.87
787.348	746.66
787.529	863.39
787.71	939.16
787.891	722.08
788.073	779.42
788.254	834.72
788.435	918.68
788.616	830.62
788.797	851.1
788.978	726.18
789.159	730.27
789.34	693.41
789.522	791.71
789.703	752.8
789.884	810.14
790.065	695.46
790.246	826.53
790.427	763.04
790.607	767.13
790.788	767.13
790.969	734.37
791.15	734.37
791.331	730.27
791.512	709.79
791.693	662.69
791.874	611.49
792.054	752.8
792.235	681.12
792.416	638.11
792.597	668.83
792.778	734.37
792.958	679.07
793.139	722.08
793.32	693.41
793.5	656.54
793.681	681.12
793.862	586.91
794.042	611.49
794.223	625.83
794.404	615.59
794.584	521.38
794.765	613.54
794.945	660.64
795.126	634.02
795.306	619.68
795.487	601.25
795.667	603.3
795.848	681.12
796.028	545.95
796.209	615.59
796.389	640.16
796.57	531.62
796.75	509.09
796.93	498.85
797.111	593.06
797.291	535.71
797.471	595.11
797.652	580.77
797.832	537.76
798.012	533.67
798.192	535.71
798.373	466.08
798.553	480.42
798.733	535.71
798.913	556.19
799.093	552.1
799.274	517.28
799.454	459.94
799.634	470.18
799.814	490.66
799.994	603.3
800.174	576.67
800.354	531.62
800.534	398.5
800.714	548
800.894	404.64
801.074	423.08
801.254	451.75
801.434	507.04
801.614	472.23
801.794	507.04
801.974	1340.57
802.154	453.8
802.334	496.8
802.514	472.23
802.693	543.91
802.873	392.36
803.053	435.36
803.233	402.6
803.413	441.51
803.592	371.88
803.772	390.31
803.952	418.98
804.131	349.35
804.311	486.56
804.491	425.12
804.67	244.9
804.85	416.93
805.03	455.84
805.209	472.23
805.389	423.08
805.568	330.92
805.748	384.16
805.928	431.27
806.107	468.13
806.287	398.5
806.466	357.54
806.646	375.97
806.825	392.36
807.004	437.41
807.184	359.59
807.363	406.69
807.543	402.6
807.722	306.34
807.901	400.55
808.081	367.78
808.26	232.62
808.439	447.65
808.619	396.45
808.798	396.45
808.977	279.72
809.156	416.93
809.336	341.16
809.515	421.03
809.694	378.02
809.873	287.91
810.052	416.93
810.231	416.93
810.411	335.01
810.59	445.6
810.769	318.63
810.948	347.3
811.127	335.01
811.306	289.96
811.485	318.63
811.664	455.84
811.843	384.16
812.022	373.92
812.201	292.01
812.38	203.94
812.559	271.53
812.737	306.34
812.916	312.49
813.095	177.32
813.274	361.64
813.453	296.1
813.632	357.54
813.811	349.35
813.989	298.15
814.168	267.43
814.347	347.3
814.526	339.11
814.704	324.77
814.883	351.4
815.062	292.01
815.24	300.2
815.419	345.25
815.598	373.92
815.776	205.99
815.955	337.06
816.133	226.47
816.312	314.53
816.49	287.91
816.669	326.82
816.847	271.53
817.026	386.21
817.204	228.52
817.383	302.25
817.561	269.48
817.74	257.19
817.918	337.06
818.097	279.72
818.275	285.86
818.453	189.61
818.632	251.05
818.81	287.91
818.988	208.04
819.167	263.33
819.345	251.05
819.523	257.19
819.701	240.81
819.879	236.71
820.058	259.24
820.236	263.33
820.414	193.7
820.592	228.52
820.77	279.72
820.948	261.29
821.127	181.42
821.305	234.66
821.483	257.19
821.661	228.52
821.839	283.81
822.017	189.61
822.195	263.33
822.373	261.29
822.551	232.62
822.729	275.62
822.907	162.98
823.085	251.05
823.262	185.51
823.44	185.51
823.618	253.09
823.796	210.09
823.974	238.76
824.152	122.02
824.329	191.66
824.507	312.49
824.685	214.18
824.863	246.95
825.04	275.62
825.218	230.57
825.396	148.65
825.574	224.42
825.751	261.29
825.929	220.33
826.107	185.51
826.284	218.28
826.462	214.18
826.639	154.79
826.817	132.26
826.994	169.13
827.172	224.42
827.349	230.57
827.527	249
827.704	246.95
827.882	234.66
828.059	179.37
828.237	203.94
828.414	216.23
828.591	179.37
828.769	183.46
828.946	216.23
829.124	160.94
829.301	312.49
829.478	136.36
829.655	261.29
829.833	218.28
830.01	56.49
830.187	203.94
830.364	167.08
830.542	140.46
830.719	185.51
830.896	228.52
831.073	212.14
831.25	181.42
831.427	220.33
831.604	185.51
831.782	115.88
831.959	195.75
832.136	150.7
832.313	126.12
832.49	134.31
832.667	95.4
832.844	136.36
833.021	175.27
833.198	144.55
833.374	132.26
833.551	138.41
833.728	183.46
833.905	246.95
834.082	119.98
834.259	144.55
834.436	146.6
834.612	126.12
834.789	152.74
834.966	171.18
835.143	122.02
835.319	23.72
835.496	128.17
835.673	146.6
835.85	189.61
836.026	175.27
836.203	130.22
836.38	115.88
836.556	150.7
836.733	158.89
836.909	181.42
837.086	42.15
837.262	128.17
837.439	140.46
837.616	95.4
837.792	148.65
837.968	83.11
838.145	93.35
838.321	60.59
838.498	195.75
838.674	152.74
838.851	89.26
839.027	107.69
839.203	103.59
839.38	171.18
839.556	130.22
839.732	152.74
839.909	134.31
840.085	199.85
840.261	81.07
840.437	62.63
840.614	185.51
840.79	203.94
840.966	154.79
841.142	83.11
841.318	76.97
841.494	197.8
841.671	203.94
841.847	101.55
842.023	64.68
842.199	89.26
842.375	128.17
842.551	46.25
842.727	33.96
842.903	171.18
843.079	52.39
843.255	205.99
843.431	107.69
843.607	162.98
843.783	-4.95
843.959	132.26
844.134	29.87
844.31	101.55
844.486	89.26
844.662	83.11
844.838	31.91
845.013	124.07
845.189	148.65
845.365	46.25
845.541	111.78
845.716	107.69
845.892	119.98
846.068	109.74
846.244	50.35
846.419	124.07
846.595	25.77
846.77	105.64
846.946	160.94
847.122	66.73
847.297	38.06
847.473	199.85
847.648	1.19
847.824	136.36
847.999	89.26
848.175	83.11
848.35	148.65
848.526	140.46
848.701	97.45
848.876	105.64
849.052	91.31
849.227	89.26
849.403	46.25
849.578	38.06
849.753	99.5
849.929	9.39
850.104	91.31
850.279	60.59
850.454	23.72
850.63	68.78
850.805	29.87
850.98	60.59
851.155	85.16
851.33	97.45
851.505	3.24
851.681	81.07
851.856	87.21
852.031	83.11
852.206	33.96
852.381	21.67
852.556	83.11
852.731	79.02
852.906	36.01
853.081	91.31
853.256	105.64
853.431	79.02
853.606	23.72
853.781	48.3
853.956	-19.29
854.131	87.21
854.305	109.74
854.48	107.69
854.655	38.06
854.83	5.29
855.005	27.82
855.18	1.19
855.354	40.11
855.529	91.31
855.704	38.06
855.879	91.31
856.053	40.11
856.228	105.64
856.403	44.2
856.577	81.07
856.752	48.3
856.926	52.39
857.101	62.63
857.276	-4.95
857.45	85.16
857.625	42.15
857.799	70.83
857.974	101.55
858.148	111.78
858.323	76.97
858.497	66.73
858.672	1.19
858.846	13.48
859.02	21.67
859.195	99.5
859.369	111.78
859.543	52.39
859.718	99.5
859.892	56.49
860.066	68.78
860.241	25.77
860.415	111.78
860.589	21.67
860.763	56.49
860.938	9.39
861.112	107.69
861.286	46.25
861.46	99.5
861.634	36.01
861.808	152.74
861.982	54.44
862.157	-17.24
862.331	31.91
862.505	9.39
862.679	-2.9
862.853	-7
863.027	15.53
863.201	117.93
863.375	-58.2
863.549	46.25
863.722	48.3
863.896	85.16
864.07	-7
864.244	3.24
864.418	23.72
864.592	70.83
864.766	31.91
864.939	-0.85
865.113	-31.57
865.287	52.39
865.461	-35.67
865.634	29.87
865.808	62.63
865.982	15.53
866.156	-37.72
866.329	-64.34
866.503	-0.85
866.676	-9.05
866.85	95.4
867.024	38.06
867.197	64.68
867.371	111.78
867.544	40.11
867.718	23.72
867.891	107.69
868.065	-25.43
868.238	29.87
868.412	-9.05
868.585	150.7
868.759	19.63
868.932	11.43
869.105	-0.85
869.279	5.29
869.452	46.25
869.625	60.59
869.799	52.39
869.972	27.82
870.145	3.24
870.319	81.07
870.492	31.91
870.665	-25.43
870.838	-13.14
871.011	5.29
871.185	31.91
871.358	44.2
871.531	83.11
871.704	66.73
871.877	-2.9
872.05	46.25
872.223	-29.52
872.396	54.44
872.569	-15.19
872.742	-13.14
872.915	50.35
873.088	-35.67
873.261	58.54
873.434	85.16
873.607	13.48
873.78	79.02
873.953	-47.96
874.126	58.54
874.299	5.29
874.471	40.11
874.644	-9.05
874.817	99.5
874.99	91.31
875.163	132.26
875.335	-27.48
875.508	13.48
875.681	165.03
875.853	5.29
876.026	17.58
876.199	52.39
876.371	52.39
876.544	-72.53
876.717	72.87
876.889	-70.48
877.062	60.59
877.234	-58.2
877.407	-19.29
877.579	91.31
877.752	87.21
877.924	70.83
878.097	-9.05
878.269	23.72
878.442	50.35
878.614	87.21
878.786	107.69
878.959	42.15
879.131	15.53
879.303	-43.86
879.476	23.72
879.648	113.83
879.82	79.02
879.993	-58.2
880.165	21.67
880.337	3.24
880.509	83.11
880.681	-121.68
880.854	87.21
881.026	68.78
881.198	99.5
881.37	-56.15
881.542	74.92
881.714	23.72
881.886	36.01
882.058	3.24
882.23	113.83
882.402	-4.95
882.574	-4.95
882.746	62.63
882.918	70.83
883.09	13.48
883.262	17.58
883.434	68.78
883.606	58.54
883.778	25.77
883.95	62.63
884.122	87.21
884.293	48.3
884.465	-19.29
884.637	89.26
884.809	23.72
884.98	54.44
885.152	-4.95
885.324	58.54
885.496	15.53
885.667	-43.86
885.839	-11.09
886.011	115.88
886.182	-0.85
886.354	64.68
886.525	56.49
886.697	48.3
886.869	38.06
887.04	15.53
887.212	58.54
887.383	113.83
887.555	76.97
887.726	46.25
887.897	-15.19
888.069	33.96
888.24	-0.85
888.412	-37.72
888.583	-2.9
888.754	52.39
888.926	-86.87
889.097	-27.48
889.268	38.06
889.44	87.21
889.611	-58.2
889.782	-80.72
889.953	-11.09
890.125	113.83
890.296	-17.24
890.467	-7
890.638	21.67
890.809	5.29
890.98	50.35
891.151	23.72
891.323	103.59
891.494	46.25
891.665	-0.85
891.836	25.77
892.007	40.11
892.178	25.77
892.349	21.67
892.52	-4.95
892.691	-13.14
892.862	31.91
893.032	-25.43
893.203	58.54
893.374	-33.62
893.545	95.4
893.716	9.39
893.887	-2.9
894.057	-54.1
894.228	15.53
894.399	5.29
894.57	52.39
894.74	1.19
894.911	124.07
895.082	1.19
895.253	-31.57
895.423	62.63
895.594	72.87
895.764	-27.48
895.935	-23.38
896.106	-29.52
896.276	42.15
896.447	17.58
896.617	13.48
896.788	13.48
896.958	9.39
897.129	-60.24
897.299	-23.38
897.47	52.39
897.64	33.96
897.81	21.67
897.981	11.43
898.151	-35.67
898.322	-11.09
898.492	-11.09
898.662	-41.81
898.832	-45.91
899.003	-31.57
899.173	-2.9
899.343	1.19
899.513	-11.09
