Data from USB4F104151__7__13-04-11-612.txt Node

Date: Fri Mar 14 13:04:11 EDT 2025
User: louis
Spectrometer: USB4F10415
Trigger mode: 4
Integration Time (sec): 4.000000E-2
Scans to average: 1
Electric dark correction enabled: true
Nonlinearity correction enabled: false
Boxcar width: 0
XAxis mode: Wavelengths
Number of Pixels in Spectrum: 3648
>>>>>Begin Spectral Data<<<<<
178.204	-153.26
178.424	-153.26
178.644	-153.26
178.864	-181.93
179.084	-200.36
179.304	-100.01
179.524	-3.75
179.744	2.39
179.964	53.59
180.184	29.01
180.404	57.68
180.624	4.44
180.844	43.35
181.064	-1.71
181.283	-42.67
181.503	-77.48
181.723	35.16
181.943	-59.05
182.163	72.02
182.383	-30.38
182.602	137.56
182.822	0.34
183.042	49.49
183.262	24.92
183.482	65.88
183.701	-40.62
183.921	26.96
184.141	31.06
184.361	88.4
184.58	43.35
184.8	16.73
185.02	-28.33
185.239	57.68
185.459	-16.04
185.679	65.88
185.898	-91.82
186.118	108.88
186.338	90.45
186.557	61.78
186.777	-34.47
186.997	57.68
187.216	24.92
187.436	-42.67
187.655	-7.85
187.875	26.96
188.095	-44.71
188.314	110.93
188.534	194.9
188.753	51.54
188.973	53.59
189.192	104.79
189.412	41.3
189.631	53.59
189.851	55.64
190.07	72.02
190.29	22.87
190.509	0.34
190.729	26.96
190.948	-11.95
191.168	217.43
191.387	57.68
191.607	24.92
191.826	14.68
192.045	39.25
192.265	22.87
192.484	51.54
192.704	8.53
192.923	-34.47
193.142	131.41
193.362	14.68
193.581	43.35
193.8	45.4
194.02	47.44
194.239	49.49
194.458	69.97
194.678	39.25
194.897	8.53
195.116	-48.81
195.335	74.07
195.555	53.59
195.774	84.31
195.993	-5.8
196.212	-1.71
196.432	-30.38
196.651	10.58
196.87	29.01
197.089	57.68
197.308	133.46
197.528	65.88
197.747	-7.85
197.966	119.12
198.185	88.4
198.404	47.44
198.623	31.06
198.842	90.45
199.062	129.36
199.281	61.78
199.5	78.16
199.719	22.87
199.938	43.35
200.157	41.3
200.376	80.21
200.595	57.68
200.814	35.16
201.033	63.83
201.252	76.12
201.471	55.64
201.69	45.4
201.909	90.45
202.128	-5.8
202.347	-16.04
202.566	53.59
202.785	6.49
203.004	-9.9
203.223	160.08
203.442	82.26
203.661	69.97
203.879	137.56
204.098	47.44
204.317	-11.95
204.536	78.16
204.755	35.16
204.974	65.88
205.193	51.54
205.411	123.22
205.63	106.84
205.849	20.82
206.068	39.25
206.287	4.44
206.505	47.44
206.724	76.12
206.943	6.49
207.162	-7.85
207.381	41.3
207.599	-1.71
207.818	119.12
208.037	-18.09
208.255	8.53
208.474	51.54
208.693	22.87
208.911	22.87
209.13	72.02
209.349	72.02
209.567	78.16
209.786	74.07
210.005	41.3
210.223	49.49
210.442	45.4
210.661	57.68
210.879	31.06
211.098	39.25
211.316	65.88
211.535	92.5
211.753	47.44
211.972	57.68
212.191	63.83
212.409	49.49
212.628	69.97
212.846	4.44
213.065	14.68
213.283	69.97
213.502	-11.95
213.72	33.11
213.938	6.49
214.157	35.16
214.375	6.49
214.594	-18.09
214.812	96.6
215.031	65.88
215.249	-57
215.467	22.87
215.686	-22.19
215.904	104.79
216.122	35.16
216.341	55.64
216.559	74.07
216.778	67.92
216.996	6.49
217.214	10.58
217.432	14.68
217.651	-5.8
217.869	-73.39
218.087	-1.71
218.306	-7.85
218.524	2.39
218.742	-1.71
218.96	57.68
219.179	-1.71
219.397	8.53
219.615	129.36
219.833	80.21
220.051	59.73
220.27	119.12
220.488	92.5
220.706	8.53
220.924	26.96
221.142	67.92
221.36	12.63
221.578	59.73
221.796	121.17
222.015	-3.75
222.233	6.49
222.451	92.5
222.669	29.01
222.887	94.55
223.105	-38.57
223.323	82.26
223.541	10.58
223.759	129.36
223.977	22.87
224.195	160.08
224.413	94.55
224.631	74.07
224.849	33.11
225.067	65.88
225.285	-22.19
225.503	33.11
225.721	14.68
225.939	74.07
226.157	29.01
226.375	209.23
226.592	8.53
226.81	-34.47
227.028	108.88
227.246	135.51
227.464	43.35
227.682	51.54
227.9	45.4
228.117	29.01
228.335	-9.9
228.553	31.06
228.771	6.49
228.989	37.2
229.206	14.68
229.424	43.35
229.642	12.63
229.86	-24.23
230.077	-3.75
230.295	55.64
230.513	141.65
230.731	86.36
230.948	100.69
231.166	53.59
231.384	20.82
231.601	4.44
231.819	65.88
232.037	106.84
232.254	84.31
232.472	49.49
232.689	37.2
232.907	76.12
233.125	10.58
233.342	33.11
233.56	39.25
233.777	-32.43
233.995	22.87
234.213	41.3
234.43	92.5
234.648	57.68
234.865	-9.9
235.083	82.26
235.3	-22.19
235.518	49.49
235.735	100.69
235.953	57.68
236.17	-22.19
236.388	-20.14
236.605	22.87
236.822	112.98
237.04	69.97
237.257	2.39
237.475	-5.8
237.692	6.49
237.909	35.16
238.127	-3.75
238.344	63.83
238.562	63.83
238.779	-22.19
238.996	72.02
239.214	59.73
239.431	115.03
239.648	14.68
239.865	96.6
240.083	39.25
240.3	47.44
240.517	22.87
240.735	-5.8
240.952	26.96
241.169	33.11
241.386	78.16
241.603	-18.09
241.821	74.07
242.038	39.25
242.255	37.2
242.472	51.54
242.689	115.03
242.907	24.92
243.124	4.44
243.341	-32.43
243.558	-26.28
243.775	20.82
243.992	-50.86
244.209	67.92
244.426	90.45
244.643	57.68
244.86	-9.9
245.078	80.21
245.295	63.83
245.512	74.07
245.729	59.73
245.946	47.44
246.163	14.68
246.38	65.88
246.597	63.83
246.814	31.06
247.031	80.21
247.248	59.73
247.464	12.63
247.681	94.55
247.898	31.06
248.115	67.92
248.332	2.39
248.549	63.83
248.766	92.5
248.983	20.82
249.2	-42.67
249.417	72.02
249.633	-20.14
249.85	51.54
250.067	31.06
250.284	53.59
250.501	20.82
250.717	106.84
250.934	-89.77
251.151	41.3
251.368	14.68
251.585	-20.14
251.801	29.01
252.018	-34.47
252.235	76.12
252.451	65.88
252.668	92.5
252.885	31.06
253.102	39.25
253.318	-22.19
253.535	51.54
253.752	106.84
253.968	-34.47
254.185	-1.71
254.401	63.83
254.618	67.92
254.835	16.73
255.051	45.4
255.268	-3.75
255.484	55.64
255.701	-7.85
255.917	78.16
256.134	6.49
256.351	37.2
256.567	-28.33
256.784	35.16
257	-34.47
257.217	65.88
257.433	31.06
257.65	16.73
257.866	37.2
258.082	-7.85
258.299	14.68
258.515	59.73
258.732	74.07
258.948	8.53
259.165	61.78
259.381	-40.62
259.597	96.6
259.814	-50.86
260.03	137.56
260.246	51.54
260.463	82.26
260.679	100.69
260.895	39.25
261.112	12.63
261.328	20.82
261.544	-30.38
261.761	82.26
261.977	-46.76
262.193	10.58
262.409	51.54
262.626	61.78
262.842	117.08
263.058	-9.9
263.274	57.68
263.49	31.06
263.707	31.06
263.923	67.92
264.139	-32.43
264.355	47.44
264.571	41.3
264.787	31.06
265.004	119.12
265.22	-3.75
265.436	31.06
265.652	35.16
265.868	67.92
266.084	8.53
266.3	76.12
266.516	-9.9
266.732	55.64
266.948	24.92
267.164	22.87
267.38	33.11
267.596	80.21
267.812	57.68
268.028	31.06
268.244	-18.09
268.46	63.83
268.676	98.64
268.892	-7.85
269.108	18.77
269.324	33.11
269.54	16.73
269.756	86.36
269.972	-40.62
270.188	-18.09
270.403	-22.19
270.619	22.87
270.835	72.02
271.051	2.39
271.267	92.5
271.483	26.96
271.698	-11.95
271.914	-18.09
272.13	59.73
272.346	31.06
272.562	8.53
272.777	86.36
272.993	57.68
273.209	-9.9
273.425	92.5
273.64	-57
273.856	43.35
274.072	2.39
274.287	10.58
274.503	67.92
274.719	53.59
274.934	4.44
275.15	-3.75
275.366	39.25
275.581	24.92
275.797	14.68
276.012	14.68
276.228	61.78
276.444	-22.19
276.659	31.06
276.875	-7.85
277.09	6.49
277.306	-50.86
277.521	22.87
277.737	67.92
277.952	55.64
278.168	35.16
278.383	47.44
278.599	24.92
278.814	12.63
279.03	35.16
279.245	47.44
279.461	24.92
279.676	139.6
279.892	22.87
280.107	41.3
280.322	-26.28
280.538	-9.9
280.753	10.58
280.969	96.6
281.184	-3.75
281.399	45.4
281.615	14.68
281.83	31.06
282.045	26.96
282.26	-34.47
282.476	39.25
282.691	24.92
282.906	-11.95
283.122	29.01
283.337	31.06
283.552	57.68
283.767	-3.75
283.983	43.35
284.198	29.01
284.413	67.92
284.628	18.77
284.843	47.44
285.058	14.68
285.274	12.63
285.489	-44.71
285.704	100.69
285.919	0.34
286.134	51.54
286.349	119.12
286.564	18.77
286.779	43.35
286.995	43.35
287.21	-1.71
287.425	76.12
287.64	31.06
287.855	0.34
288.07	4.44
288.285	-18.09
288.5	172.37
288.715	72.02
288.93	22.87
289.145	-48.81
289.36	45.4
289.575	84.31
289.79	49.49
290.004	-7.85
290.219	-5.8
290.434	88.4
290.649	0.34
290.864	12.63
291.079	-3.75
291.294	69.97
291.509	82.26
291.724	76.12
291.938	92.5
292.153	55.64
292.368	26.96
292.583	41.3
292.798	88.4
293.012	78.16
293.227	96.6
293.442	53.59
293.657	80.21
293.871	57.68
294.086	80.21
294.301	162.13
294.516	147.8
294.73	-46.76
294.945	-7.85
295.16	18.77
295.374	143.7
295.589	115.03
295.804	24.92
296.018	-57
296.233	4.44
296.447	57.68
296.662	4.44
296.877	74.07
297.091	112.98
297.306	10.58
297.52	20.82
297.735	98.64
297.949	31.06
298.164	129.36
298.378	35.16
298.593	-34.47
298.807	6.49
299.022	39.25
299.236	106.84
299.451	63.83
299.665	-1.71
299.88	47.44
300.094	67.92
300.309	20.82
300.523	18.77
300.737	39.25
300.952	57.68
301.166	80.21
301.381	18.77
301.595	8.53
301.809	8.53
302.024	65.88
302.238	-3.75
302.452	125.27
302.667	82.26
302.881	153.94
303.095	106.84
303.309	-30.38
303.524	2.39
303.738	55.64
303.952	55.64
304.166	65.88
304.381	-11.95
304.595	104.79
304.809	43.35
305.023	108.88
305.237	-18.09
305.452	47.44
305.666	22.87
305.88	108.88
306.094	18.77
306.308	39.25
306.522	80.21
306.736	63.83
306.95	-18.09
307.164	-36.52
307.379	22.87
307.593	76.12
307.807	2.39
308.021	41.3
308.235	139.6
308.449	33.11
308.663	-79.53
308.877	74.07
309.091	125.27
309.305	53.59
309.519	-67.24
309.733	149.84
309.947	-18.09
310.161	47.44
310.374	96.6
310.588	49.49
310.802	31.06
311.016	67.92
311.23	47.44
311.444	2.39
311.658	-73.39
311.872	102.74
312.085	63.83
312.299	72.02
312.513	74.07
312.727	59.73
312.941	98.64
313.154	67.92
313.368	10.58
313.582	53.59
313.796	4.44
314.009	14.68
314.223	53.59
314.437	2.39
314.651	76.12
314.864	-18.09
315.078	29.01
315.292	-1.71
315.505	37.2
315.719	6.49
315.933	35.16
316.146	-34.47
316.36	57.68
316.573	119.12
316.787	51.54
317.001	16.73
317.214	-34.47
317.428	8.53
317.641	67.92
317.855	-20.14
318.068	26.96
318.282	-1.71
318.495	90.45
318.709	117.08
318.922	59.73
319.136	90.45
319.349	147.8
319.563	-28.33
319.776	-24.23
319.99	18.77
320.203	98.64
320.417	63.83
320.63	123.22
320.843	31.06
321.057	-22.19
321.27	86.36
321.483	6.49
321.697	80.21
321.91	16.73
322.124	74.07
322.337	-5.8
322.55	-32.43
322.763	37.2
322.977	8.53
323.19	14.68
323.403	2.39
323.617	45.4
323.83	47.44
324.043	-59.05
324.256	33.11
324.469	22.87
324.683	131.41
324.896	-1.71
325.109	72.02
325.322	35.16
325.535	20.82
325.748	106.84
325.962	45.4
326.175	65.88
326.388	67.92
326.601	88.4
326.814	41.3
327.027	67.92
327.24	104.79
327.453	35.16
327.666	63.83
327.879	61.78
328.092	39.25
328.305	-11.95
328.518	14.68
328.731	31.06
328.944	65.88
329.157	-3.75
329.37	78.16
329.583	33.11
329.796	106.84
330.009	43.35
330.222	47.44
330.435	129.36
330.648	137.56
330.861	4.44
331.073	119.12
331.286	98.64
331.499	31.06
331.712	43.35
331.925	63.83
332.138	47.44
332.35	51.54
332.563	39.25
332.776	125.27
332.989	-87.72
333.202	76.12
333.414	18.77
333.627	43.35
333.84	14.68
334.053	12.63
334.265	82.26
334.478	45.4
334.691	74.07
334.903	121.17
335.116	6.49
335.329	-11.95
335.541	37.2
335.754	86.36
335.966	-28.33
336.179	80.21
336.392	94.55
336.604	29.01
336.817	-7.85
337.029	86.36
337.242	-1.71
337.454	90.45
337.667	24.92
337.88	80.21
338.092	14.68
338.305	-18.09
338.517	24.92
338.729	131.41
338.942	145.75
339.154	26.96
339.367	31.06
339.579	24.92
339.792	18.77
340.004	6.49
340.217	-7.85
340.429	112.98
340.641	-69.29
340.854	6.49
341.066	-34.47
341.278	88.4
341.491	55.64
341.703	39.25
341.915	-7.85
342.128	69.97
342.34	-34.47
342.552	10.58
342.764	63.83
342.977	-18.09
343.189	-7.85
343.401	-42.67
343.613	10.58
343.826	69.97
344.038	2.39
344.25	12.63
344.462	-65.19
344.674	39.25
344.886	55.64
345.099	67.92
345.311	74.07
345.523	55.64
345.735	2.39
345.947	10.58
346.159	41.3
346.371	53.59
346.583	22.87
346.795	123.22
347.007	-18.09
347.219	37.2
347.431	-1.71
347.643	51.54
347.855	41.3
348.067	88.4
348.279	0.34
348.491	76.12
348.703	37.2
348.915	61.78
349.127	-11.95
349.339	8.53
349.551	14.68
349.763	115.03
349.975	10.58
350.187	51.54
350.399	96.6
350.61	41.3
350.822	18.77
351.034	65.88
351.246	67.92
351.458	49.49
351.669	39.25
351.881	110.93
352.093	110.93
352.305	104.79
352.517	72.02
352.728	108.88
352.94	-9.9
353.152	80.21
353.363	-18.09
353.575	35.16
353.787	57.68
353.999	80.21
354.21	18.77
354.422	-28.33
354.633	22.87
354.845	-13.99
355.057	20.82
355.268	2.39
355.48	74.07
355.692	2.39
355.903	-1.71
356.115	-5.8
356.326	8.53
356.538	88.4
356.749	51.54
356.961	78.16
357.172	53.59
357.384	8.53
357.595	112.98
357.807	80.21
358.018	78.16
358.23	74.07
358.441	143.7
358.653	55.64
358.864	29.01
359.075	-7.85
359.287	24.92
359.498	67.92
359.709	35.16
359.921	10.58
360.132	35.16
360.344	2.39
360.555	22.87
360.766	104.79
360.977	29.01
361.189	47.44
361.4	76.12
361.611	117.08
361.823	82.26
362.034	53.59
362.245	-13.99
362.456	63.83
362.667	8.53
362.879	59.73
363.09	2.39
363.301	18.77
363.512	-1.71
363.723	-18.09
363.935	-5.8
364.146	96.6
364.357	18.77
364.568	55.64
364.779	-54.95
364.99	88.4
365.201	20.82
365.412	96.6
365.623	59.73
365.834	20.82
366.045	35.16
366.256	90.45
366.467	82.26
366.678	74.07
366.889	31.06
367.1	49.49
367.311	31.06
367.522	39.25
367.733	26.96
367.944	61.78
368.155	82.26
368.366	14.68
368.577	74.07
368.788	119.12
368.999	-13.99
369.209	43.35
369.42	143.7
369.631	106.84
369.842	55.64
370.053	51.54
370.264	8.53
370.474	41.3
370.685	96.6
370.896	-1.71
371.107	67.92
371.317	55.64
371.528	80.21
371.739	33.11
371.95	78.16
372.16	76.12
372.371	18.77
372.582	39.25
372.792	51.54
373.003	59.73
373.214	35.16
373.424	80.21
373.635	10.58
373.846	168.27
374.056	31.06
374.267	26.96
374.477	86.36
374.688	76.12
374.898	67.92
375.109	133.46
375.319	31.06
375.53	53.59
375.74	49.49
375.951	35.16
376.161	-5.8
376.372	43.35
376.582	-16.04
376.793	121.17
377.003	-46.76
377.214	14.68
377.424	6.49
377.635	92.5
377.845	12.63
378.055	129.36
378.266	67.92
378.476	82.26
378.686	65.88
378.897	49.49
379.107	82.26
379.317	47.44
379.528	63.83
379.738	43.35
379.948	26.96
380.158	84.31
380.369	170.32
380.579	59.73
380.789	69.97
380.999	80.21
381.21	57.68
381.42	98.64
381.63	22.87
381.84	24.92
382.05	63.83
382.261	86.36
382.471	88.4
382.681	-24.23
382.891	76.12
383.101	61.78
383.311	-16.04
383.521	12.63
383.731	57.68
383.941	43.35
384.151	127.32
384.361	41.3
384.571	69.97
384.781	63.83
384.991	94.55
385.201	104.79
385.411	117.08
385.621	84.31
385.831	76.12
386.041	123.22
386.251	76.12
386.461	84.31
386.671	53.59
386.881	0.34
387.091	-24.23
387.301	67.92
387.511	10.58
387.72	43.35
387.93	151.89
388.14	-13.99
388.35	84.31
388.56	20.82
388.769	96.6
388.979	41.3
389.189	22.87
389.399	14.68
389.609	12.63
389.818	80.21
390.028	22.87
390.238	57.68
390.447	-18.09
390.657	63.83
390.867	78.16
391.076	14.68
391.286	8.53
391.496	41.3
391.705	22.87
391.915	82.26
392.125	92.5
392.334	-3.75
392.544	115.03
392.753	88.4
392.963	24.92
393.172	51.54
393.382	39.25
393.591	153.94
393.801	84.31
394.01	164.18
394.22	-26.28
394.429	94.55
394.639	88.4
394.848	37.2
395.058	39.25
395.267	35.16
395.477	12.63
395.686	94.55
395.895	98.64
396.105	135.51
396.314	129.36
396.524	47.44
396.733	108.88
396.942	104.79
397.152	166.23
397.361	178.51
397.57	-5.8
397.78	117.08
397.989	65.88
398.198	131.41
398.407	162.13
398.617	141.65
398.826	65.88
399.035	14.68
399.244	115.03
399.453	123.22
399.663	90.45
399.872	69.97
400.081	55.64
400.29	133.46
400.499	20.82
400.708	112.98
400.917	86.36
401.127	90.45
401.336	47.44
401.545	106.84
401.754	125.27
401.963	145.75
402.172	121.17
402.381	47.44
402.59	112.98
402.799	115.03
403.008	129.36
403.217	41.3
403.426	106.84
403.635	90.45
403.844	115.03
404.053	53.59
404.262	133.46
404.471	244.05
404.68	115.03
404.888	158.03
405.097	162.13
405.306	74.07
405.515	96.6
405.724	72.02
405.933	170.32
406.142	127.32
406.35	186.71
406.559	117.08
406.768	203.09
406.977	162.13
407.185	203.09
407.394	184.66
407.603	129.36
407.812	203.09
408.02	258.39
408.229	225.62
408.438	231.76
408.646	207.19
408.855	201.04
409.064	252.24
409.272	192.85
409.481	182.61
409.69	182.61
409.898	90.45
410.107	237.91
410.315	262.48
410.524	285.01
410.733	172.37
410.941	262.48
411.15	266.58
411.358	373.07
411.567	276.82
411.775	266.58
411.984	360.78
412.192	328.02
412.401	373.07
412.609	399.7
412.818	391.5
413.026	385.36
413.234	473.42
413.443	360.78
413.651	395.6
413.86	448.85
414.068	498
414.276	536.91
414.485	450.89
414.693	498
414.901	526.67
415.11	549.2
415.318	530.77
415.526	596.3
415.734	657.74
415.943	602.44
416.151	702.79
416.359	653.64
416.567	649.55
416.776	690.51
416.984	762.19
417.192	770.38
417.4	780.62
417.608	729.42
417.817	868.68
418.025	817.48
418.233	837.96
418.441	870.73
418.649	885.06
418.857	1012.04
419.065	1067.33
419.273	1018.18
419.481	1026.37
419.689	1171.78
419.897	1075.52
420.105	1220.93
420.313	1233.22
420.521	1306.95
420.729	1364.29
420.937	1280.32
421.145	1352
421.353	1495.36
421.561	1620.28
421.769	1515.84
421.977	1544.51
422.185	1554.75
422.393	1745.21
422.601	1810.75
422.809	1816.89
423.017	1786.17
423.224	1775.93
423.432	1915.19
423.64	1941.82
423.848	2285.87
424.056	2064.69
424.263	2275.63
424.471	2230.58
424.679	2322.74
424.887	2359.6
425.094	2580.78
425.302	2507.06
425.51	2599.21
425.718	2568.49
425.925	2767.15
426.133	2726.19
426.341	2990.38
426.548	3017
426.756	3086.63
426.964	3066.15
427.171	3277.09
427.379	3348.77
427.586	3346.72
427.794	3551.52
428.001	3610.91
428.209	3760.41
428.417	3787.04
428.624	3875.1
428.832	4155.67
429.039	4122.9
429.247	4051.22
429.454	4530.45
429.662	4694.29
429.869	4403.47
430.076	4755.72
430.284	4598.03
430.491	4770.06
430.699	4907.27
430.906	5128.46
431.114	5028.1
431.321	5316.87
431.528	5472.51
431.736	5734.65
431.943	6142.2
432.15	5761.28
432.358	5826.81
432.565	6322.42
432.772	6318.32
432.979	6557.94
433.187	6770.93
433.394	6838.51
433.601	7131.37
433.808	7141.61
434.016	7248.1
434.223	7446.76
434.43	7846.11
434.637	7571.68
434.844	8347.86
435.052	8345.81
435.259	8282.33
435.466	8610
435.673	8229.08
435.88	8945.87
436.087	9451.72
436.294	9181.39
436.501	9355.46
436.708	9277.64
436.915	9683.14
437.122	10086.59
437.329	9902.27
437.537	10463.41
437.743	10748.08
437.95	10707.12
438.157	11133.1
438.364	11346.09
438.571	11413.67
438.778	11612.32
438.985	12495
439.192	12097.69
439.399	12460.18
439.606	12083.36
439.813	13041.81
440.02	13424.78
440.227	13596.81
440.433	13435.02
440.64	13729.92
440.847	13629.57
441.054	13748.36
441.261	14884.98
441.467	14653.56
441.674	14917.75
441.881	15528.04
442.088	15446.12
442.294	15640.68
442.501	15753.32
442.708	16222.3
442.914	16709.72
443.121	17418.32
443.328	16934.99
443.534	18219.07
443.741	17582.15
443.948	17250.38
444.154	18620.47
444.361	18712.63
444.568	18798.65
444.774	18927.67
444.981	19013.68
445.187	19470.38
445.394	20342.81
445.6	20140.07
445.807	22091.78
446.013	21202.96
446.22	21125.14
446.426	22403.07
446.633	22564.86
446.839	23382
447.046	22302.72
447.252	23758.83
447.459	23455.73
447.665	23717.87
447.871	24649.69
448.078	25821.13
448.284	24612.83
448.491	24981.46
448.697	26351.56
448.903	26607.55
449.11	26863.55
449.316	26484.67
449.522	26775.48
449.728	27535.28
449.935	27557.81
450.141	27912.11
450.347	28233.64
450.553	27221.94
450.76	27869.1
450.966	28741.53
451.172	28387.24
451.378	29028.25
451.584	28716.96
451.791	29333.4
451.997	29290.39
452.203	29577.11
452.409	29820.81
452.615	29951.88
452.821	28415.91
453.027	28420
453.233	29869.97
453.44	28905.37
453.646	28719.01
453.852	29450.13
454.058	29591.44
454.264	28565.41
454.47	29196.18
454.676	28614.56
454.882	29294.49
455.088	26824.64
455.294	27260.85
455.5	27910.06
455.705	28293.03
455.911	26963.9
456.117	26589.12
456.323	26380.23
456.529	24870.87
456.735	26009.54
456.941	25108.44
457.147	25063.38
457.352	23922.66
457.558	23721.96
457.764	23840.75
457.97	23441.39
458.176	22679.55
458.381	22898.68
458.587	21807.11
458.793	21702.67
458.999	20498.46
459.204	22026.25
459.41	21540.88
459.616	20129.83
459.821	19845.16
460.027	20078.63
460.233	19408.94
460.438	18581.56
460.644	18800.69
460.85	17901.64
461.055	17682.5
461.261	17776.71
461.466	16263.26
461.672	15808.61
461.878	17041.49
462.083	15992.93
462.289	15655.01
462.494	15204.46
462.7	14600.31
462.905	14299.26
463.111	14741.62
463.316	15081.58
463.522	14805.11
463.727	14628.98
463.932	14487.67
464.138	14219.39
464.343	14694.52
464.549	13967.49
464.754	14682.23
464.959	14233.72
465.165	14205.05
465.37	13588.61
465.575	13277.32
465.781	13774.98
465.986	13885.57
466.191	13578.37
466.397	13136.01
466.602	12425.37
466.807	12935.31
467.012	12953.74
467.218	12814.48
467.423	12703.89
467.628	12728.47
467.833	13310.09
468.038	12810.39
468.244	12652.69
468.449	13119.63
468.654	12581.01
468.859	12572.82
469.064	12624.02
469.269	11960.48
469.474	12155.04
469.679	12269.72
469.885	11896.99
470.09	12202.14
470.295	11690.15
470.5	11727.01
470.705	11870.37
470.91	11491.49
471.115	11604.13
471.32	11370.66
471.525	11616.42
471.73	11348.14
471.935	11108.52
472.139	10549.43
472.344	10995.89
472.549	11012.27
472.754	10660.02
472.959	10520.76
473.164	10250.42
473.369	10250.42
473.574	10487.99
473.778	10412.21
473.983	10418.36
474.188	10287.29
474.393	9971.9
474.598	9894.08
474.802	9738.43
475.007	9795.78
475.212	9752.77
475.417	9410.76
475.621	9347.27
475.826	9423.05
476.031	9302.22
476.235	9109.71
476.44	9240.78
476.645	9066.7
476.849	9154.76
477.054	8782.03
477.259	8777.94
477.463	8847.57
477.668	8560.85
477.872	8779.98
478.077	8380.63
478.282	8249.56
478.486	8278.23
478.691	8243.42
478.895	8116.44
479.1	8388.82
479.304	8102.11
479.509	7930.08
479.713	8034.52
479.918	7741.66
480.122	7684.32
480.326	7899.36
480.531	8014.04
480.735	7764.19
480.94	7903.45
481.144	7932.12
481.348	7504.1
481.553	7946.46
481.757	7467.24
481.961	7520.48
482.166	7667.94
482.37	7637.22
482.574	7506.15
482.778	7471.33
482.983	7756
483.187	7459.04
483.391	7616.74
483.595	7495.91
483.8	7598.31
484.004	7545.06
484.208	7618.79
484.412	7622.88
484.616	7563.49
484.821	7504.1
485.025	7178.47
485.229	7669.98
485.433	7420.13
485.637	7481.57
485.841	7252.2
486.045	7436.52
486.249	7596.26
486.453	7510.24
486.657	7475.43
486.861	7573.73
487.065	7547.11
487.269	7583.97
487.473	7280.87
487.677	7502.05
487.881	7870.69
488.085	7506.15
488.289	7649.5
488.493	7457
488.697	7626.98
488.901	7569.63
489.105	7469.28
489.309	7547.11
489.512	7698.66
489.716	7651.55
489.92	7577.83
490.124	7446.76
490.328	7766.24
490.531	7555.3
490.735	7760.09
490.939	7749.86
491.143	7749.86
491.346	7770.33
491.55	7944.41
491.754	7796.96
491.958	7880.93
492.161	7981.28
492.365	7999.71
492.569	7829.73
492.772	7887.07
492.976	8112.35
493.18	8067.29
493.383	8337.62
493.587	8112.35
493.79	8208.6
493.994	8321.24
494.197	8192.22
494.401	8259.8
494.605	8272.09
494.808	8337.62
495.012	8704.21
495.215	8515.8
495.419	8442.07
495.622	8554.71
495.825	8745.17
496.029	8861.9
496.232	8767.7
496.436	8825.04
496.639	9095.37
496.843	9029.84
497.046	9226.44
497.249	9386.18
497.453	9244.87
497.656	9464
497.859	9334.98
498.063	9484.48
498.266	9730.24
498.469	9593.03
498.673	9849.02
498.876	10129.59
499.079	10090.68
499.282	9969.85
499.485	10389.69
499.689	10418.36
499.892	10637.49
500.095	10346.68
500.298	10883.25
500.501	10703.03
500.705	11077.8
500.908	11055.28
501.111	11337.9
501.314	11247.79
501.517	11468.97
501.72	11368.62
501.923	11501.73
502.126	11796.64
502.329	11767.97
502.532	12208.28
502.735	12165.28
502.938	12318.87
503.141	12411.03
503.344	12613.78
503.547	12548.25
503.75	13181.07
503.953	13043.85
504.156	13211.79
504.359	13301.9
504.562	13422.73
504.765	13623.43
504.968	13594.76
505.17	14014.59
505.373	13867.14
505.576	14139.52
505.779	14207.1
505.982	14542.97
506.185	14870.64
506.387	14540.92
506.59	14809.2
506.793	14852.21
506.996	15147.12
507.198	15587.43
507.401	15360.11
507.604	15528.04
507.807	15925.35
508.009	15825
508.212	16087.14
508.415	16177.25
508.617	16429.15
508.82	16513.11
509.022	16447.58
509.225	16914.52
509.428	17002.58
509.63	17162.32
509.833	17395.79
510.035	17809.48
510.238	17487.95
510.44	17973.32
510.643	18063.43
510.845	18233.41
511.048	18335.81
511.25	18464.83
511.453	18608.19
511.655	19513.39
511.858	19007.54
512.06	19044.4
512.262	19226.67
512.465	19294.25
512.667	19560.49
512.87	19873.83
513.072	20203.55
513.274	20545.56
513.477	20574.24
513.679	20779.03
513.881	21215.25
514.084	21207.06
514.286	21252.11
514.488	21647.37
514.69	22110.21
514.893	22274.05
515.095	21872.65
515.297	22220.8
515.499	22552.57
515.701	22695.93
515.904	23050.23
516.106	23232.5
516.308	23437.3
516.51	23441.39
516.712	23375.86
516.914	23812.07
517.116	24199.14
517.318	24586.21
517.52	24672.22
517.722	24801.24
517.925	24821.72
518.127	25190.36
518.329	25440.21
518.531	25645.01
518.733	26449.86
518.935	26458.05
519.136	26195.91
519.338	26499.01
519.54	26550.21
519.742	27039.67
519.944	27068.34
520.146	27250.61
520.348	27334.58
520.55	27613.1
520.752	27803.57
520.954	28370.85
521.155	28229.54
521.357	28719.01
521.559	28936.09
521.761	29429.65
521.963	29179.8
522.164	29472.66
522.366	29794.19
522.568	29984.65
522.77	30168.97
522.971	30519.17
523.173	30185.35
523.375	30728.06
523.576	30709.63
523.778	30846.85
523.98	31213.43
524.181	31532.92
524.383	31424.37
524.584	31975.28
524.786	32145.26
524.988	31922.03
525.189	32302.95
525.391	32542.56
525.592	32456.55
525.794	32728.93
525.995	32391.02
526.197	32679.78
526.398	33068.89
526.6	33437.53
526.801	33249.11
527.003	33611.6
527.204	33541.97
527.406	33957.71
527.607	33937.23
527.808	34013.01
528.01	33869.65
528.211	33992.53
528.412	34918.21
528.614	34639.68
528.815	34494.28
529.016	35034.94
529.218	34838.34
529.419	35176.25
529.62	35235.64
529.822	34848.58
530.023	35088.19
530.224	35157.82
530.425	35170.11
530.626	34967.36
530.828	35026.75
531.029	36011.82
531.23	35528.5
531.431	35516.22
531.632	35749.68
531.833	35639.09
532.035	35925.81
532.236	35792.69
532.437	36054.83
532.638	35698.48
532.839	35934
533.04	36296.49
533.241	35626.81
533.442	36652.84
533.643	36224.81
533.844	36024.11
534.045	36198.19
534.246	35989.3
534.447	36534.06
534.648	36161.33
534.849	36357.93
535.05	36237.1
535.251	36036.4
535.451	36474.66
535.652	36839.2
535.853	36519.72
536.054	36601.64
536.255	36624.17
536.456	36366.12
536.657	36775.72
536.857	36376.36
537.058	36103.98
537.259	36771.62
537.46	36747.04
537.66	36241.2
537.861	36544.3
538.062	36405.03
538.263	36751.14
538.463	36435.75
538.664	36695.85
538.865	36779.81
539.065	37080.86
539.266	36208.43
539.466	36771.62
539.667	36136.75
539.868	36986.66
540.068	36484.9
540.269	36538.15
540.469	36869.92
540.67	36581.16
540.87	36101.93
541.071	36550.44
541.271	36603.69
541.472	36349.74
541.672	36339.5
541.873	36228.91
542.073	36065.07
542.274	36880.16
542.474	36427.56
542.675	36230.96
542.875	36820.77
543.075	36435.75
543.276	35833.65
543.476	36425.51
543.676	36519.72
543.877	36554.54
544.077	36650.79
544.277	36564.78
544.478	36441.9
544.678	36501.29
544.878	36388.65
545.078	36540.2
545.279	36296.49
545.479	36085.55
545.679	36519.72
545.879	36542.25
546.079	36503.34
546.28	36060.98
546.48	36144.94
546.68	36536.1
546.88	36335.4
547.08	36022.06
547.28	36110.13
547.48	35880.75
547.68	36181.81
547.88	35960.62
548.081	36435.75
548.281	36460.33
548.481	35761.97
548.681	36443.95
548.881	35979.06
549.081	36122.41
549.28	36132.65
549.48	36173.61
549.68	35899.19
549.88	36683.56
550.08	35890.99
550.28	36228.91
550.48	36120.37
550.68	36099.89
550.88	36022.06
551.08	35915.57
551.279	36009.78
551.479	35682.1
551.679	36087.6
551.879	36163.37
552.079	36032.3
552.278	36140.85
552.478	35962.67
552.678	35817.27
552.878	35981.1
553.077	35874.61
553.277	35706.68
553.477	36007.73
553.676	35755.83
553.876	36196.14
554.076	35600.18
554.275	35714.87
554.475	34957.12
554.674	35852.08
554.874	35749.68
555.074	35667.77
555.273	35811.12
555.473	35862.32
555.672	35569.46
555.872	35704.63
556.071	35491.64
556.271	35505.98
556.47	35407.67
556.67	35172.16
556.869	35598.13
557.068	35333.95
557.268	35499.83
557.467	35088.19
557.667	35254.08
557.866	35237.69
558.065	34989.89
558.265	35143.49
558.464	34615.11
558.663	35270.46
558.863	34535.24
559.062	35413.82
559.261	34502.47
559.461	35354.43
559.66	34455.37
559.859	34705.22
560.058	34219.85
560.258	34758.47
560.457	34094.93
560.656	34477.9
560.855	34137.93
561.054	34461.51
561.253	34271.05
561.453	34156.36
561.652	33816.4
561.851	34273.1
562.05	33896.27
562.249	33685.33
562.448	34463.56
562.647	33697.62
562.846	33703.76
563.045	34002.77
563.244	33390.42
563.443	34170.7
563.642	33269.59
563.841	33202.01
564.04	33130.33
564.239	33675.09
564.438	33337.18
564.637	33230.68
564.836	33498.97
565.035	32677.73
565.234	32937.82
565.432	32610.15
565.631	32452.45
565.83	32880.48
566.029	32425.83
566.228	32520.04
566.427	32249.71
566.625	32083.82
566.824	32008.04
567.023	32249.71
567.222	31764.34
567.42	32137.07
567.619	32202.6
567.818	32087.92
568.016	31823.73
568.215	31975.28
568.414	31649.65
568.612	31901.55
568.811	31623.03
569.01	31367.03
569.208	30900.09
569.407	31086.46
569.605	31070.08
569.804	31385.46
570.002	30664.58
570.201	30832.51
570.4	30867.33
570.598	30601.09
570.797	30640
570.995	30515.08
571.193	30797.7
571.392	30672.77
571.59	30304.13
571.789	30525.32
571.987	30324.61
572.186	30142.35
572.384	30031.76
572.582	30455.68
572.781	29876.11
572.979	29769.62
573.177	29964.17
573.376	29521.81
573.574	29589.39
573.772	29759.38
573.971	29665.17
574.169	29280.15
574.367	29032.35
574.565	29370.26
574.763	29101.98
574.962	29237.14
575.16	28700.58
575.358	29149.08
575.556	28659.62
575.754	29112.22
575.952	28458.92
576.151	29155.22
576.349	28583.84
576.547	28673.95
576.745	28370.85
576.943	28360.61
577.141	28147.62
577.339	28096.42
577.537	28256.17
577.735	27959.21
577.933	27856.81
578.131	27785.13
578.329	27498.42
578.527	27627.44
578.725	27721.65
578.923	27869.1
579.121	27461.55
579.319	27252.66
579.516	27486.13
579.714	27078.58
579.912	27324.34
580.11	27379.64
580.308	27271.09
580.506	27094.97
580.704	26638.27
580.901	26857.4
581.099	27080.63
581.297	26560.45
581.495	26699.71
581.692	26767.29
581.89	26425.28
582.088	26638.27
582.285	26439.62
582.483	26382.27
582.681	26439.62
582.878	26087.37
583.076	25937.87
583.274	26001.35
583.471	25913.29
583.669	25995.21
583.866	25522.13
584.064	25896.91
584.262	25573.33
584.459	25597.9
584.657	25585.61
584.854	25427.92
585.052	25333.71
585.249	25403.35
585.447	25425.87
585.644	25016.28
585.841	24993.75
586.039	25087.96
586.236	24836.06
586.434	25001.94
586.631	24866.78
586.828	24922.07
587.026	24879.07
587.223	24842.2
587.42	24565.73
587.618	24772.57
587.815	24416.22
588.012	24055.78
588.21	24250.34
588.407	24393.7
588.604	23934.95
588.801	23744.49
588.999	23977.96
589.196	23758.83
589.393	23773.16
589.59	23918.57
589.787	23451.63
589.984	23533.55
590.182	23455.73
590.379	23676.91
590.576	23580.65
590.773	23367.66
590.97	23142.39
591.167	23666.67
591.364	23267.31
591.561	23404.53
591.758	23093.24
591.955	22736.89
592.152	23187.44
592.349	22898.68
592.546	22634.49
592.743	22540.29
592.94	22456.32
593.137	22736.89
593.334	22640.64
593.531	22194.18
593.727	22448.13
593.924	22444.03
594.121	22018.05
594.318	22269.95
594.515	21866.5
594.712	22247.43
594.908	21717
595.105	22145.03
595.302	21690.38
595.499	21929.99
595.696	22032.39
595.892	21559.31
596.089	21665.8
596.286	21387.28
596.482	21514.25
596.679	21350.42
596.876	21434.38
597.072	21368.85
597.269	21164.05
597.466	21184.53
597.662	21037.08
597.859	20998.16
598.055	20971.54
598.252	20725.79
598.448	20834.33
598.645	20564
598.841	20641.82
599.038	20891.67
599.234	20596.76
599.431	20508.7
599.627	20496.41
599.824	20537.37
600.02	20043.81
600.217	20537.37
600.413	20252.7
600.609	20119.59
600.806	20052
601.002	20494.36
601.198	19662.89
601.395	19984.42
601.591	19814.44
601.787	19757.1
601.984	19474.48
602.18	20107.3
602.376	19800.1
602.572	19603.5
602.769	19589.16
602.965	19253.3
603.161	19425.32
603.357	19218.48
603.553	19054.64
603.75	19376.17
603.946	19081.27
604.142	18956.34
604.338	18835.51
604.534	19118.13
604.73	18802.74
604.926	18882.61
605.122	19146.8
605.318	18847.8
605.514	18593.85
605.71	18747.45
605.906	18532.41
606.102	18438.2
606.298	18694.2
606.494	18450.49
606.69	18378.81
606.886	18329.66
607.082	18171.97
607.278	18124.86
607.474	18126.91
607.67	18233.41
607.866	17827.91
608.062	18034.75
608.257	17850.44
608.453	17844.29
608.649	17711.18
608.845	17913.92
609.041	17870.92
609.236	17942.6
609.432	17946.69
609.628	17715.27
609.824	17838.15
610.019	17672.26
610.215	17203.28
610.411	17750.09
610.606	17594.44
610.802	17467.47
610.998	17508.43
611.193	17549.39
611.389	17248.33
611.584	17213.52
611.78	17463.37
611.976	17494.09
612.171	17358.92
612.367	17307.73
612.562	16873.56
612.758	16889.94
612.953	17125.46
613.149	17127.5
613.344	16939.09
613.539	17248.33
613.735	16834.64
613.93	17156.18
614.126	16834.64
614.321	17037.39
614.517	17160.27
614.712	16746.58
614.907	16748.63
615.103	16824.4
615.298	16582.74
615.493	16926.8
615.688	16361.56
615.884	17199.18
616.079	16400.48
616.274	16562.26
616.47	16451.67
616.665	16500.83
616.86	16523.35
617.055	16443.48
617.25	16472.15
617.445	16539.74
617.641	16128.1
617.836	16373.85
618.031	16205.92
618.226	16126.05
618.421	16124
618.616	16076.9
618.811	15843.43
619.006	15851.62
619.201	15898.72
619.396	15988.83
619.591	15548.52
619.786	15890.53
619.981	15597.67
620.176	15564.9
620.371	15513.7
620.566	15560.81
620.761	15431.79
620.956	15364.2
621.151	15253.61
621.346	15270
621.541	15067.25
621.735	15165.55
621.93	14981.23
622.125	14882.93
622.32	14884.98
622.515	14628.98
622.709	14624.89
622.904	14760.05
623.099	14590.07
623.294	14483.58
623.488	14422.14
623.683	14375.03
623.878	14377.08
624.072	14166.14
624.267	14114.94
624.462	14039.17
624.656	13850.75
624.851	13791.36
625.046	13953.15
625.24	13793.41
625.435	13576.33
625.629	13494.41
625.824	13494.41
626.018	13484.17
626.213	13449.35
626.407	13318.28
626.602	13246.6
626.796	13213.84
626.991	13082.77
627.185	13000.85
627.38	12904.59
627.574	12865.68
627.768	12734.61
627.963	12949.65
628.157	12880.02
628.352	12855.44
628.546	12445.85
628.74	12552.34
628.935	12456.09
629.129	12370.07
629.323	12404.89
629.517	12228.76
629.712	12294.3
629.906	12275.87
630.1	12054.69
630.294	11937.95
630.489	11770.02
630.683	11819.17
630.877	11659.43
631.071	11694.24
631.265	11788.45
631.459	11583.65
631.653	11466.92
631.848	11319.46
632.042	11405.48
632.236	11380.9
632.43	11344.04
632.624	11339.94
632.818	11286.7
633.012	11153.58
633.206	11208.87
633.4	11116.72
633.594	10739.89
633.788	11024.56
633.982	10862.77
634.176	10911.92
634.369	10729.65
634.563	10795.18
634.757	10617.01
634.951	10504.37
635.145	10428.6
635.339	10361.02
635.533	10371.26
635.726	10621.11
635.92	9986.24
636.114	10334.39
636.308	10301.62
636.501	10102.97
636.695	10295.48
636.889	9830.59
637.083	9889.98
637.276	9881.79
637.47	9789.63
637.664	9627.84
637.857	9765.06
638.051	9668.8
638.244	9857.21
638.438	9797.82
638.632	9590.98
638.825	9496.77
639.019	9650.37
639.212	9347.27
639.406	9257.16
639.599	9107.66
639.793	9347.27
639.986	9076.94
640.18	9396.42
640.373	9179.34
640.567	8978.64
640.76	9046.22
640.954	9044.17
641.147	8904.91
641.34	8980.68
641.534	8921.29
641.727	8714.45
641.92	8732.88
642.114	8782.03
642.307	8710.35
642.5	8450.26
642.694	8546.51
642.887	8517.84
643.08	8478.93
643.273	8302.81
643.467	8304.85
643.66	8306.9
643.853	8138.97
644.046	8239.32
644.239	8212.7
644.432	8081.63
644.626	8128.73
644.819	8102.11
645.012	8151.26
645.205	7993.56
645.398	8067.29
645.591	7860.45
645.784	7917.79
645.977	7551.2
646.17	7799.01
646.363	7887.07
646.556	7614.69
646.749	7704.8
646.942	7641.31
647.135	7540.96
647.328	7413.99
647.521	7420.13
647.714	7553.25
647.907	7465.19
648.099	7272.68
648.292	7346.41
648.485	7305.45
648.678	7112.94
648.871	7272.68
649.064	7129.32
649.256	7143.66
649.449	7069.93
649.642	7071.98
649.835	7074.03
650.027	6871.28
650.22	7026.92
650.413	6813.93
650.605	6955.24
650.798	6775.02
650.991	6709.49
651.183	6959.34
651.376	6717.68
651.568	6820.08
651.761	6557.94
651.954	6762.73
652.146	6570.23
652.339	6430.96
652.531	6576.37
652.724	6512.88
652.916	6379.76
653.109	6467.83
653.301	6351.09
653.494	6496.5
653.686	6189.3
653.879	6420.72
654.071	6322.42
654.263	6310.13
654.456	6162.68
654.648	6375.67
654.84	6209.78
655.033	5976.31
655.225	6027.51
655.417	6000.89
655.61	6240.5
655.802	6007.03
655.994	5980.41
656.186	6000.89
656.379	6011.13
656.571	5976.31
656.763	5931.26
656.955	5728.51
657.148	5847.29
657.34	5822.72
657.532	5888.25
657.724	5679.36
657.916	5585.15
658.108	5619.97
658.3	5734.65
658.492	5597.44
658.684	5644.54
658.876	5509.38
659.068	5556.48
659.26	5476.61
659.452	5454.08
659.644	5355.78
659.836	5538.05
660.028	5419.27
660.22	5323.01
660.412	5492.99
660.604	5390.6
660.796	5323.01
660.988	5161.22
661.18	5343.49
661.372	5302.53
661.563	5214.47
661.755	5232.9
661.947	5175.56
662.139	5081.35
662.331	5292.29
662.522	5161.22
662.714	5097.74
662.906	5079.3
663.097	5087.5
663.289	5056.78
663.481	4919.56
663.673	5024.01
663.864	5003.53
664.056	4862.22
664.247	4815.12
664.439	4831.5
664.631	4888.84
664.822	5069.06
665.014	4813.07
665.205	4759.82
665.397	4872.46
665.588	4858.12
665.78	4794.64
665.971	4882.7
666.163	4700.43
666.354	4753.68
666.546	4725.01
666.737	4776.2
666.929	4628.75
667.12	4628.75
667.311	4622.61
667.503	4552.98
667.694	4507.92
667.885	4602.13
668.077	4512.02
668.268	4555.02
668.459	4548.88
668.651	4575.5
668.842	4628.75
669.033	4544.78
669.224	4489.49
669.416	4557.07
669.607	4387.09
669.798	4540.69
669.989	4350.23
670.18	4387.09
670.371	4538.64
670.563	4423.95
670.754	4497.68
670.945	4417.81
671.136	4397.33
671.327	4307.22
671.518	4376.85
671.709	4432.15
671.9	4430.1
672.091	4370.71
672.282	4339.99
672.473	4354.32
672.664	4423.95
672.855	4331.8
673.046	4323.6
673.237	4407.57
673.428	4329.75
673.619	4417.81
673.809	4170.01
674	4280.6
674.191	4372.75
674.382	4282.64
674.573	4286.74
674.764	4260.12
674.954	4292.88
675.145	4249.88
675.336	4284.69
675.527	4159.77
675.717	4122.9
675.908	4170.01
676.099	4274.45
676.289	4200.73
676.48	4176.15
676.671	4198.68
676.861	4284.69
677.052	4362.51
677.243	4163.86
677.433	4075.8
677.624	4196.63
677.814	4229.4
678.005	4131.09
678.195	4196.63
678.386	4075.8
678.576	4096.28
678.767	4172.05
678.957	4219.16
679.148	4231.44
679.338	4290.84
679.529	4196.63
679.719	4141.33
679.909	4192.53
680.1	4174.1
680.29	4382.99
680.481	4249.88
680.671	4133.14
680.861	4088.09
681.052	4053.27
681.242	4221.2
681.432	4317.46
681.622	4251.92
681.813	4180.25
682.003	4219.16
682.193	4118.81
682.383	4219.16
682.573	4233.49
682.764	4118.81
682.954	4206.87
683.144	4231.44
683.334	4221.2
683.524	4120.85
683.714	4301.08
683.904	4110.61
684.094	4147.48
684.284	4092.18
684.474	4331.8
684.664	4110.61
684.854	4153.62
685.044	4114.71
685.234	4106.52
685.424	4225.3
685.614	4094.23
685.804	4260.12
685.994	4133.14
686.184	4047.13
686.374	4165.91
686.564	4055.32
686.753	4139.29
686.943	3997.98
687.133	3973.4
687.323	3967.26
687.513	4055.32
687.702	3914.01
687.892	3918.11
688.082	3993.88
688.272	3885.34
688.461	3944.73
688.651	3844.38
688.841	3815.71
689.03	3905.82
689.22	3791.13
689.41	3735.84
689.599	3629.34
689.789	3758.36
689.979	3801.37
690.168	3694.88
690.358	3830.04
690.547	3572
690.737	3543.33
690.926	3741.98
691.116	3594.53
691.305	3631.39
691.495	3629.34
691.684	3533.09
691.874	3619.1
692.063	3522.85
692.252	3578.14
692.442	3547.42
692.631	3342.63
692.82	3445.02
693.01	3526.94
693.199	3588.38
693.388	3432.74
693.578	3442.98
693.767	3414.31
693.956	3508.51
694.146	3375.39
694.335	3395.87
694.524	3275.04
694.713	3459.36
694.902	3420.45
695.092	3301.67
695.281	3322.15
695.47	3311.91
695.659	3336.48
695.848	3193.12
696.037	3277.09
696.226	3322.15
696.415	3191.08
696.604	3436.83
696.793	3332.39
696.982	3389.73
697.171	3307.81
697.36	3275.04
697.549	3180.84
697.738	3090.73
697.927	3186.98
698.116	3305.76
698.305	3160.36
698.494	3268.9
698.683	3285.28
698.872	3299.62
699.061	3162.41
699.25	3086.63
699.438	3205.41
699.627	3141.93
699.816	3236.13
700.005	3152.17
700.193	3113.25
700.382	3246.37
700.571	3299.62
700.76	3307.81
700.948	3170.6
701.137	3156.26
701.326	3262.76
701.514	3152.17
701.703	3232.04
701.892	3025.19
702.08	3170.6
702.269	3137.83
702.457	3166.5
702.646	3186.98
702.834	3182.88
703.023	3176.74
703.212	3086.63
703.4	3098.92
703.589	2982.18
703.777	3160.36
703.965	3189.03
704.154	3113.25
704.342	3236.13
704.531	3262.76
704.719	3158.31
704.907	3266.85
705.096	3248.42
705.284	3127.59
705.472	3205.41
705.661	3209.51
705.849	3313.95
706.037	3246.37
706.226	3221.8
706.414	3258.66
706.602	3217.7
706.79	3191.08
706.979	3109.16
707.167	3215.65
707.355	3107.11
707.543	3115.3
707.731	3256.61
707.919	3197.22
708.107	3199.27
708.296	3193.12
708.484	3209.51
708.672	3176.74
708.86	3209.51
709.048	3217.7
709.236	3182.88
709.424	3334.43
709.612	3311.91
709.8	3275.04
709.988	3365.15
710.176	3473.7
710.364	3322.15
710.551	3338.53
710.739	3309.86
710.927	3313.95
711.115	3221.8
711.303	3375.39
711.491	3367.2
711.679	3338.53
711.866	3367.2
712.054	3352.87
712.242	3342.63
712.43	3363.11
712.617	3520.8
712.805	3488.03
712.993	3295.52
713.181	3246.37
713.368	3385.63
713.556	3367.2
713.744	3381.54
713.931	3504.42
714.119	3553.57
714.306	3490.08
714.494	3391.78
714.682	3537.18
714.869	3393.83
715.057	3510.56
715.244	3463.46
715.432	3473.7
715.619	3580.19
715.807	3453.22
715.994	3539.23
716.182	3547.42
716.369	3461.41
716.556	3596.57
716.744	3457.31
716.931	3498.27
717.119	3692.83
717.306	3641.63
717.493	3684.64
717.681	3524.9
717.868	3615.01
718.055	3559.71
718.242	3410.21
718.43	3797.28
718.617	3717.4
718.804	3608.86
718.991	3741.98
719.179	3627.29
719.366	3600.67
719.553	3621.15
719.74	3637.53
719.927	3602.72
720.114	3600.67
720.301	3619.1
720.488	3563.81
720.676	3645.73
720.863	3682.59
721.05	3725.6
721.237	3721.5
721.424	3762.46
721.611	3737.88
721.798	3625.25
721.985	3641.63
722.172	3690.78
722.358	3643.68
722.545	3668.25
722.732	3631.39
722.919	3680.54
723.106	3764.51
723.293	3897.63
723.48	3684.64
723.667	3750.17
723.853	3727.64
724.04	3713.31
724.227	3899.67
724.414	3721.5
724.6	3789.08
724.787	3842.33
724.974	3950.87
725.161	3752.22
725.347	3746.08
725.534	3832.09
725.72	3741.98
725.907	3793.18
726.094	3623.2
726.28	3791.13
726.467	3791.13
726.653	3838.23
726.84	4012.31
727.027	3918.11
727.213	3799.32
727.4	3893.53
727.586	3971.35
727.773	3789.08
727.959	3727.64
728.145	3907.87
728.332	3946.78
728.518	3815.71
728.705	3940.63
728.891	3987.74
729.077	3959.06
729.264	3903.77
729.45	3827.99
729.636	3991.83
729.823	3850.52
730.009	4127
730.195	3959.06
730.382	3893.53
730.568	4018.46
730.754	3971.35
730.94	3858.71
731.126	3907.87
731.313	3887.39
731.499	3881.24
731.685	3885.34
731.871	3961.11
732.057	3961.11
732.243	3979.54
732.429	4086.04
732.615	3940.63
732.801	3963.16
732.987	3889.43
733.173	4055.32
733.359	3905.82
733.545	3967.26
733.731	3899.67
733.917	4051.22
734.103	3875.1
734.289	4026.65
734.475	3995.93
734.661	3989.78
734.847	3932.44
735.033	3832.09
735.219	3979.54
735.404	3948.83
735.59	3975.45
735.776	4032.79
735.962	3930.39
736.148	3989.78
736.333	3987.74
736.519	3901.72
736.705	3893.53
736.89	3952.92
737.076	3969.3
737.262	3883.29
737.447	3823.9
737.633	3856.67
737.819	3938.59
738.004	3879.19
738.19	3842.33
738.375	3731.74
738.561	3940.63
738.747	3838.23
738.932	3889.43
739.118	3895.58
739.303	3907.87
739.489	3930.39
739.674	3776.8
739.859	3766.56
740.045	3746.08
740.23	3848.47
740.416	3885.34
740.601	3860.76
740.786	3762.46
740.972	3729.69
741.157	3805.47
741.342	3819.8
741.528	3760.41
741.713	3744.03
741.898	3746.08
742.084	3756.32
742.269	3668.25
742.454	3819.8
742.639	3774.75
742.824	3713.31
743.01	3559.71
743.195	3733.79
743.38	3522.85
743.565	3555.62
743.75	3588.38
743.935	3619.1
744.12	3555.62
744.305	3551.52
744.49	3453.22
744.675	3465.5
744.86	3496.22
745.045	3463.46
745.23	3477.79
745.415	3608.86
745.6	3453.22
745.785	3549.47
745.97	3594.53
746.155	3418.4
746.34	3461.41
746.525	3309.86
746.71	3404.07
746.895	3275.04
747.079	3447.07
747.264	3373.35
747.449	3440.93
747.634	3215.65
747.819	3252.52
748.003	3365.15
748.188	3307.81
748.373	3150.12
748.557	3127.59
748.742	3152.17
748.927	3133.73
749.111	3021.1
749.296	3197.22
749.481	3060.01
749.665	3062.05
749.85	3082.53
750.034	3103.01
750.219	3021.1
750.404	3066.15
750.588	2965.8
750.773	2881.83
750.957	2877.74
751.141	2902.31
751.326	2896.17
751.51	2849.07
751.695	2664.75
751.879	2908.46
752.064	2906.41
752.248	2775.34
752.432	2822.44
752.617	2656.56
752.801	2726.19
752.985	2681.13
753.17	2638.13
753.354	2613.55
753.538	2556.21
753.722	2619.69
753.907	2562.35
754.091	2570.54
754.275	2605.36
754.459	2548.01
754.643	2535.73
754.828	2611.5
755.012	2480.43
755.196	2556.21
755.38	2351.41
755.564	2523.44
755.748	2373.94
755.932	2550.06
756.116	2386.22
756.3	2310.45
756.484	2398.51
756.668	2361.65
756.852	2316.59
757.036	2281.78
757.22	2191.67
757.404	2324.79
757.588	2320.69
757.772	2412.85
757.956	2234.68
758.14	2165.04
758.323	2050.36
758.507	2206
758.691	2165.04
758.875	2236.72
759.059	2187.57
759.242	2089.27
759.426	2138.42
759.61	2085.17
759.794	2076.98
759.977	2093.37
760.161	2105.65
760.345	2128.18
760.528	1976.63
760.712	1939.77
760.895	1988.92
761.079	1947.96
761.263	2003.25
761.446	1870.14
761.63	1950.01
761.813	1911.1
761.997	1863.99
762.18	1952.06
762.364	1943.86
762.547	1892.66
762.731	1890.62
762.914	1857.85
763.098	1872.18
763.281	1794.36
763.464	1911.1
763.648	1878.33
763.831	1712.44
764.015	1794.36
764.198	1839.42
764.381	1777.98
764.564	1868.09
764.748	1900.86
764.931	1751.35
765.114	1714.49
765.297	1685.82
765.481	1675.58
765.664	1759.55
765.847	1810.75
766.03	1784.12
766.213	1681.72
766.397	1630.52
766.58	1679.68
766.763	1722.68
766.946	1708.35
767.129	1777.98
767.312	1673.53
767.495	1622.33
767.678	1659.2
767.861	1663.29
768.044	1655.1
768.227	1657.15
768.41	1605.95
768.593	1630.52
768.776	1562.94
768.959	1646.91
769.142	1546.56
769.324	1548.61
769.507	1581.37
769.69	1524.03
769.873	1581.37
770.056	1702.2
770.239	1499.45
770.421	1599.8
770.604	1540.41
770.787	1415.49
770.97	1474.88
771.152	1458.5
771.335	1433.92
771.518	1423.68
771.7	1560.89
771.883	1554.75
772.066	1472.83
772.248	1495.36
772.431	1450.3
772.613	1446.21
772.796	1263.94
772.978	1415.49
773.161	1448.26
773.343	1341.76
773.526	1382.72
773.708	1319.23
773.891	1286.47
774.073	1325.38
774.256	1366.34
774.438	1427.78
774.621	1268.03
774.803	1380.67
774.985	1278.27
775.168	1333.57
775.35	1317.19
775.532	1341.76
775.715	1239.36
775.897	1222.98
776.079	1233.22
776.261	1218.88
776.444	1325.38
776.626	1251.65
776.808	1212.74
776.99	1134.92
777.173	1237.31
777.355	1194.31
777.537	1220.93
777.719	1112.39
777.901	1198.4
778.083	1071.43
778.265	1040.71
778.447	1050.95
778.629	1124.68
778.811	1073.48
778.993	1116.48
779.175	1128.77
779.357	1032.52
779.539	1091.91
779.721	1063.24
779.903	1024.33
780.085	966.98
780.267	1050.95
780.449	1040.71
780.631	926.02
780.812	1050.95
780.994	997.7
781.176	909.64
781.358	958.79
781.54	942.41
781.721	981.32
781.903	893.26
782.085	919.88
782.267	926.02
782.448	885.06
782.63	827.72
782.812	926.02
782.993	856.39
783.175	1022.28
783.357	852.3
783.538	917.83
783.72	842.06
783.901	809.29
784.083	891.21
784.264	862.54
784.446	817.48
784.627	819.53
784.809	768.33
784.99	821.58
785.172	887.11
785.353	825.67
785.535	831.82
785.716	813.38
785.897	770.38
786.079	753.99
786.26	760.14
786.441	700.75
786.623	680.27
786.804	721.23
786.985	760.14
787.167	678.22
787.348	725.32
787.529	706.89
787.71	784.71
787.891	721.23
788.073	618.83
788.254	692.55
788.435	727.37
788.616	674.12
788.797	584.01
788.978	782.67
789.159	565.58
789.34	670.03
789.522	661.84
789.703	670.03
789.884	602.44
790.065	588.11
790.246	688.46
790.427	608.59
790.607	631.12
790.788	729.42
790.969	532.81
791.15	631.12
791.331	581.96
791.512	604.49
791.693	551.24
791.874	627.02
792.054	680.27
792.235	549.2
792.416	524.62
792.597	524.62
792.778	557.39
792.958	618.83
793.139	594.25
793.32	512.33
793.5	641.36
793.681	596.3
793.862	596.3
794.042	465.23
794.223	557.39
794.404	573.77
794.584	475.47
794.765	485.71
794.945	465.23
795.126	530.77
795.306	491.85
795.487	459.09
795.667	463.18
795.848	498
796.028	450.89
796.209	475.47
796.389	450.89
796.57	471.37
796.75	446.8
796.93	481.61
797.111	360.78
797.291	371.02
797.471	465.23
797.652	440.65
797.832	444.75
798.012	442.7
798.192	428.37
798.373	397.65
798.553	426.32
798.733	465.23
798.913	428.37
799.093	299.34
799.274	459.09
799.454	498
799.634	409.94
799.814	477.52
799.994	387.41
800.174	416.08
800.354	387.41
800.534	418.13
800.714	493.9
800.894	411.98
801.074	350.54
801.254	436.56
801.434	467.28
801.614	377.17
801.794	368.98
801.974	1235.27
802.154	332.11
802.334	457.04
802.514	381.26
802.693	358.74
802.873	354.64
803.053	407.89
803.233	371.02
803.413	411.98
803.592	377.17
803.772	399.7
803.952	350.54
804.131	325.97
804.311	375.12
804.491	436.56
804.67	391.5
804.85	346.45
805.03	383.31
805.209	342.35
805.389	266.58
805.568	305.49
805.748	258.39
805.928	309.58
806.107	260.43
806.287	360.78
806.466	422.22
806.646	405.84
806.825	250.19
807.004	319.82
807.184	282.96
807.363	395.6
807.543	334.16
807.722	297.3
807.901	325.97
808.081	260.43
808.26	270.67
808.439	303.44
808.619	280.91
808.798	366.93
808.977	407.89
809.156	346.45
809.336	422.22
809.515	393.55
809.694	334.16
809.873	293.2
810.052	235.86
810.231	389.46
810.411	282.96
810.59	262.48
810.769	340.3
810.948	323.92
811.127	244.05
811.306	315.73
811.485	289.1
811.664	352.59
811.843	309.58
812.022	317.78
812.201	328.02
812.38	291.15
812.559	272.72
812.737	309.58
812.916	221.52
813.095	203.09
813.274	285.01
813.453	303.44
813.632	252.24
813.811	342.35
813.989	285.01
814.168	268.63
814.347	244.05
814.526	229.71
814.704	272.72
814.883	289.1
815.062	211.28
815.24	301.39
815.419	192.85
815.598	254.29
815.776	170.32
815.955	227.67
816.133	153.94
816.312	223.57
816.49	184.66
816.669	293.2
816.847	250.19
817.026	223.57
817.204	182.61
817.383	282.96
817.561	221.52
817.74	194.9
817.918	252.24
818.097	160.08
818.275	213.33
818.453	282.96
818.632	276.82
818.81	194.9
818.988	254.29
819.167	145.75
819.345	168.27
819.523	221.52
819.701	137.56
819.879	282.96
820.058	225.62
820.236	252.24
820.414	182.61
820.592	172.37
820.77	198.99
820.948	207.19
821.127	133.46
821.305	209.23
821.483	209.23
821.661	196.95
821.839	244.05
822.017	188.75
822.195	129.36
822.373	305.49
822.551	188.75
822.729	137.56
822.907	151.89
823.085	205.14
823.262	211.28
823.44	127.32
823.618	117.08
823.796	129.36
823.974	168.27
824.152	166.23
824.329	188.75
824.507	209.23
824.685	203.09
824.863	158.03
825.04	147.8
825.218	207.19
825.396	98.64
825.574	205.14
825.751	151.89
825.929	151.89
826.107	67.92
826.284	184.66
826.462	143.7
826.639	198.99
826.817	143.7
826.994	174.42
827.172	123.22
827.349	223.57
827.527	168.27
827.704	131.41
827.882	235.86
828.059	112.98
828.237	209.23
828.414	198.99
828.591	80.21
828.769	190.8
828.946	141.65
829.124	239.95
829.301	194.9
829.478	139.6
829.655	110.93
829.833	135.51
830.01	119.12
830.187	121.17
830.364	145.75
830.542	145.75
830.719	158.03
830.896	112.98
831.073	160.08
831.25	211.28
831.427	117.08
831.604	145.75
831.782	149.84
831.959	166.23
832.136	51.54
832.313	155.99
832.49	57.68
832.667	106.84
832.844	72.02
833.021	170.32
833.198	151.89
833.374	94.55
833.551	119.12
833.728	67.92
833.905	246.1
834.082	31.06
834.259	106.84
834.436	176.47
834.612	147.8
834.789	170.32
834.966	94.55
835.143	153.94
835.319	61.78
835.496	100.69
835.673	151.89
835.85	139.6
836.026	104.79
836.203	151.89
836.38	59.73
836.556	102.74
836.733	129.36
836.909	162.13
837.086	155.99
837.262	80.21
837.439	139.6
837.616	160.08
837.792	78.16
837.968	63.83
838.145	106.84
838.321	63.83
838.498	86.36
838.674	117.08
838.851	129.36
839.027	84.31
839.203	88.4
839.38	155.99
839.556	88.4
839.732	227.67
839.909	92.5
840.085	194.9
840.261	94.55
840.437	131.41
840.614	55.64
840.79	131.41
840.966	172.37
841.142	139.6
841.318	74.07
841.494	84.31
841.671	100.69
841.847	55.64
842.023	100.69
842.199	67.92
842.375	158.03
842.551	20.82
842.727	57.68
842.903	192.85
843.079	110.93
843.255	119.12
843.431	92.5
843.607	117.08
843.783	-40.62
843.959	153.94
844.134	43.35
844.31	139.6
844.486	69.97
844.662	51.54
844.838	82.26
845.013	117.08
845.189	67.92
845.365	22.87
845.541	59.73
845.716	110.93
845.892	135.51
846.068	72.02
846.244	94.55
846.419	82.26
846.595	20.82
846.77	31.06
846.946	112.98
847.122	26.96
847.297	69.97
847.473	137.56
847.648	100.69
847.824	65.88
847.999	-30.38
848.175	65.88
848.35	74.07
848.526	119.12
848.701	151.89
848.876	141.65
849.052	57.68
849.227	39.25
849.403	80.21
849.578	8.53
849.753	88.4
849.929	26.96
850.104	4.44
850.279	72.02
850.454	49.49
850.63	84.31
850.805	90.45
850.98	51.54
851.155	22.87
851.33	51.54
851.505	-1.71
851.681	106.84
851.856	37.2
852.031	133.46
852.206	20.82
852.381	63.83
852.556	51.54
852.731	125.27
852.906	100.69
853.081	82.26
853.256	147.8
853.431	63.83
853.606	41.3
853.781	14.68
853.956	-36.52
854.131	92.5
854.305	18.77
854.48	63.83
854.655	37.2
854.83	82.26
855.005	117.08
855.18	61.78
855.354	47.44
855.529	92.5
855.704	86.36
855.879	96.6
856.053	39.25
856.228	119.12
856.403	53.59
856.577	14.68
856.752	82.26
856.926	63.83
857.101	80.21
857.276	57.68
857.45	31.06
857.625	102.74
857.799	41.3
857.974	45.4
858.148	-28.33
858.323	33.11
858.497	43.35
858.672	47.44
858.846	14.68
859.02	0.34
859.195	-59.05
859.369	-42.67
859.543	18.77
859.718	63.83
859.892	96.6
860.066	0.34
860.241	6.49
860.415	8.53
860.589	80.21
860.763	76.12
860.938	39.25
861.112	43.35
861.286	39.25
861.46	82.26
861.634	72.02
861.808	100.69
861.982	14.68
862.157	18.77
862.331	18.77
862.505	20.82
862.679	-30.38
862.853	18.77
863.027	2.39
863.201	121.17
863.375	-13.99
863.549	22.87
863.722	12.63
863.896	65.88
864.07	6.49
864.244	84.31
864.418	117.08
864.592	8.53
864.766	41.3
864.939	33.11
865.113	22.87
865.287	20.82
865.461	43.35
865.634	39.25
865.808	-34.47
865.982	43.35
866.156	-36.52
866.329	26.96
866.503	112.98
866.676	65.88
866.85	57.68
867.024	55.64
867.197	2.39
867.371	-75.43
867.544	41.3
867.718	-42.67
867.891	88.4
868.065	-7.85
868.238	4.44
868.412	88.4
868.585	39.25
868.759	43.35
868.932	-7.85
869.105	39.25
869.279	-13.99
869.452	16.73
869.625	65.88
869.799	4.44
869.972	33.11
870.145	35.16
870.319	63.83
870.492	20.82
870.665	6.49
870.838	31.06
871.011	-40.62
871.185	53.59
871.358	37.2
871.531	39.25
871.704	-7.85
871.877	72.02
872.05	65.88
872.223	-32.43
872.396	31.06
872.569	33.11
872.742	-79.53
872.915	37.2
873.088	-30.38
873.261	14.68
873.434	43.35
873.607	72.02
873.78	55.64
873.953	8.53
874.126	14.68
874.299	90.45
874.471	-5.8
874.644	0.34
874.817	63.83
874.99	63.83
875.163	12.63
875.335	35.16
875.508	20.82
875.681	112.98
875.853	31.06
876.026	100.69
876.199	33.11
876.371	43.35
876.544	-1.71
876.717	49.49
876.889	24.92
877.062	0.34
877.234	-5.8
877.407	-28.33
877.579	-28.33
877.752	14.68
877.924	59.73
878.097	88.4
878.269	-7.85
878.442	18.77
878.614	37.2
878.786	2.39
878.959	59.73
879.131	31.06
879.303	31.06
879.476	-28.33
879.648	-26.28
879.82	16.73
879.993	26.96
880.165	-26.28
880.337	-18.09
880.509	67.92
880.681	-52.91
880.854	-79.53
881.026	-16.04
881.198	112.98
881.37	39.25
881.542	0.34
881.714	29.01
881.886	18.77
882.058	96.6
882.23	-30.38
882.402	16.73
882.574	61.78
882.746	-9.9
882.918	65.88
883.09	-13.99
883.262	-32.43
883.434	41.3
883.606	-46.76
883.778	8.53
883.95	26.96
884.122	-83.63
884.293	53.59
884.465	39.25
884.637	31.06
884.809	-16.04
884.98	12.63
885.152	-36.52
885.324	102.74
885.496	-79.53
885.667	10.58
885.839	-1.71
886.011	55.64
886.182	106.84
886.354	61.78
886.525	-22.19
886.697	8.53
886.869	14.68
887.04	4.44
887.212	26.96
887.383	69.97
887.555	55.64
887.726	22.87
887.897	-50.86
888.069	35.16
888.24	49.49
888.412	-20.14
888.583	20.82
888.754	35.16
888.926	-42.67
889.097	-16.04
889.268	-91.82
889.44	-20.14
889.611	-24.23
889.782	51.54
889.953	-11.95
890.125	141.65
890.296	-28.33
890.467	6.49
890.638	33.11
890.809	61.78
890.98	-1.71
891.151	33.11
891.323	51.54
891.494	8.53
891.665	-7.85
891.836	-5.8
892.007	0.34
892.178	-18.09
892.349	-7.85
892.52	-46.76
892.691	39.25
892.862	37.2
893.032	-54.95
893.203	45.4
893.374	45.4
893.545	31.06
893.716	-32.43
893.887	24.92
894.057	-16.04
894.228	88.4
894.399	-40.62
894.57	8.53
894.74	63.83
894.911	65.88
895.082	39.25
895.253	-106.15
895.423	0.34
895.594	72.02
895.764	-83.63
895.935	-5.8
896.106	-7.85
896.276	4.44
896.447	-30.38
896.617	-22.19
896.788	-26.28
896.958	-79.53
897.129	-18.09
897.299	31.06
897.47	37.2
897.64	35.16
897.81	-44.71
897.981	-44.71
898.151	4.44
898.322	108.88
898.492	10.58
898.662	10.58
898.832	-71.34
899.003	-34.47
899.173	74.07
899.343	2.39
899.513	37.2
