Data from USB4F104151__63__13-05-51-760.txt Node

Date: Fri Mar 14 13:05:51 EDT 2025
User: louis
Spectrometer: USB4F10415
Trigger mode: 4
Integration Time (sec): 4.000000E-2
Scans to average: 1
Electric dark correction enabled: true
Nonlinearity correction enabled: false
Boxcar width: 0
XAxis mode: Wavelengths
Number of Pixels in Spectrum: 3648
>>>>>Begin Spectral Data<<<<<
178.204	-131.24
178.424	-131.24
178.644	-131.24
178.864	-178.34
179.084	-209.06
179.304	-14.51
179.524	34.64
179.744	-67.75
179.964	36.69
180.184	1.88
180.404	46.93
180.624	-28.84
180.844	26.45
181.064	-57.51
181.283	-41.13
181.503	-28.84
181.723	91.99
181.943	-63.66
182.163	137.04
182.383	67.41
182.602	-18.6
182.822	145.24
183.042	18.26
183.262	-16.55
183.482	75.6
183.701	8.02
183.921	81.75
184.141	46.93
184.361	61.27
184.58	73.56
184.8	77.65
185.02	89.94
185.239	61.27
185.459	89.94
185.679	55.12
185.898	14.17
186.118	14.17
186.338	63.32
186.557	114.52
186.777	40.79
186.997	12.12
187.216	1.88
187.436	114.52
187.655	120.66
187.875	112.47
188.095	61.27
188.314	79.7
188.534	139.09
188.753	87.89
188.973	141.14
189.192	141.14
189.412	34.64
189.631	79.7
189.851	85.84
190.07	104.28
190.29	30.55
190.509	12.12
190.729	32.6
190.948	143.19
191.168	202.58
191.387	135
191.607	12.12
191.826	85.84
192.045	24.4
192.265	22.36
192.484	42.84
192.704	73.56
192.923	-16.55
193.142	112.47
193.362	98.13
193.581	135
193.8	132.95
194.02	63.32
194.239	38.74
194.458	75.6
194.678	114.52
194.897	61.27
195.116	110.42
195.335	130.9
195.555	34.64
195.774	51.03
195.993	137.04
196.212	-6.31
196.432	14.17
196.651	59.22
196.87	18.26
197.089	114.52
197.308	10.07
197.528	100.18
197.747	26.45
197.966	51.03
198.185	77.65
198.404	-24.75
198.623	71.51
198.842	100.18
199.062	51.03
199.281	83.8
199.5	16.21
199.719	98.13
199.938	104.28
200.157	71.51
200.376	102.23
200.595	65.36
200.814	155.47
201.033	14.17
201.252	20.31
201.471	34.64
201.69	94.04
201.909	59.22
202.128	12.12
202.347	59.22
202.566	102.23
202.785	3.93
203.004	-22.7
203.223	229.2
203.442	51.03
203.661	-82.09
203.879	65.36
204.098	87.89
204.317	30.55
204.536	188.24
204.755	87.89
204.974	98.13
205.193	126.8
205.411	73.56
205.63	57.17
205.849	38.74
206.068	67.41
206.287	22.36
206.505	87.89
206.724	83.8
206.943	32.6
207.162	55.12
207.381	59.22
207.599	38.74
207.818	71.51
208.037	83.8
208.255	51.03
208.474	40.79
208.693	96.08
208.911	30.55
209.13	63.32
209.349	46.93
209.567	67.41
209.786	96.08
210.005	44.88
210.223	122.71
210.442	-8.36
210.661	118.61
210.879	8.02
211.098	53.08
211.316	81.75
211.535	104.28
211.753	40.79
211.972	26.45
212.191	69.46
212.409	18.26
212.628	67.41
212.846	83.8
213.065	61.27
213.283	96.08
213.502	-22.7
213.72	122.71
213.938	145.24
214.157	79.7
214.375	36.69
214.594	67.41
214.812	104.28
215.031	38.74
215.249	-8.36
215.467	73.56
215.686	63.32
215.904	182.1
216.122	48.98
216.341	135
216.559	79.7
216.778	139.09
216.996	75.6
217.214	32.6
217.432	87.89
217.651	81.75
217.869	89.94
218.087	79.7
218.306	46.93
218.524	32.6
218.742	-10.41
218.96	36.69
219.179	63.32
219.397	85.84
219.615	206.67
219.833	71.51
220.051	-6.31
220.27	85.84
220.488	128.85
220.706	34.64
220.924	30.55
221.142	44.88
221.36	83.8
221.578	124.76
221.796	3.93
222.015	73.56
222.233	55.12
222.451	118.61
222.669	-0.17
222.887	141.14
223.105	-24.75
223.323	83.8
223.541	44.88
223.759	104.28
223.977	-14.51
224.195	112.47
224.413	67.41
224.631	81.75
224.849	83.8
225.067	106.32
225.285	16.21
225.503	57.17
225.721	-24.75
225.939	73.56
226.157	55.12
226.375	210.77
226.592	-34.99
226.81	96.08
227.028	120.66
227.246	171.86
227.464	-14.51
227.682	89.94
227.9	94.04
228.117	26.45
228.335	120.66
228.553	-14.51
228.771	65.36
228.989	118.61
229.206	98.13
229.424	26.45
229.642	55.12
229.86	1.88
230.077	87.89
230.295	100.18
230.513	91.99
230.731	100.18
230.948	89.94
231.166	149.33
231.384	16.21
231.601	-2.22
231.819	81.75
232.037	-12.46
232.254	67.41
232.472	51.03
232.689	63.32
232.907	75.6
233.125	-2.22
233.342	61.27
233.56	14.17
233.777	71.51
233.995	30.55
234.213	182.1
234.43	34.64
234.648	87.89
234.865	81.75
235.083	61.27
235.3	81.75
235.518	130.9
235.735	106.32
235.953	71.51
236.17	22.36
236.388	26.45
236.605	32.6
236.822	130.9
237.04	155.47
237.257	151.38
237.475	96.08
237.692	89.94
237.909	98.13
238.127	40.79
238.344	104.28
238.562	89.94
238.779	59.22
238.996	46.93
239.214	5.97
239.431	79.7
239.648	87.89
239.865	124.76
240.083	153.43
240.3	104.28
240.517	63.32
240.735	79.7
240.952	120.66
241.169	71.51
241.386	112.47
241.603	40.79
241.821	-51.37
242.038	38.74
242.255	143.19
242.472	14.17
242.689	73.56
242.907	87.89
243.124	75.6
243.341	44.88
243.558	57.17
243.775	-2.22
243.992	-6.31
244.209	71.51
244.426	102.23
244.643	40.79
244.86	-6.31
245.078	48.98
245.295	106.32
245.512	73.56
245.729	22.36
245.946	87.89
246.163	26.45
246.38	-51.37
246.597	34.64
246.814	46.93
247.031	89.94
247.248	53.08
247.464	120.66
247.681	53.08
247.898	126.8
248.115	108.37
248.332	-53.42
248.549	114.52
248.766	163.67
248.983	79.7
249.2	63.32
249.417	100.18
249.633	-2.22
249.85	96.08
250.067	-10.41
250.284	38.74
250.501	91.99
250.717	147.28
250.934	53.08
251.151	69.46
251.368	83.8
251.585	108.37
251.801	94.04
252.018	34.64
252.235	77.65
252.451	-4.27
252.668	-39.08
252.885	141.14
253.102	61.27
253.318	87.89
253.535	32.6
253.752	67.41
253.968	73.56
254.185	20.31
254.401	87.89
254.618	57.17
254.835	28.5
255.051	145.24
255.268	51.03
255.484	57.17
255.701	8.02
255.917	44.88
256.134	75.6
256.351	67.41
256.567	14.17
256.784	79.7
257	94.04
257.217	79.7
257.433	126.8
257.65	53.08
257.866	112.47
258.082	-20.65
258.299	55.12
258.515	30.55
258.732	16.21
258.948	14.17
259.165	79.7
259.381	42.84
259.597	157.52
259.814	85.84
260.03	55.12
260.246	48.98
260.463	108.37
260.679	139.09
260.895	46.93
261.112	130.9
261.328	73.56
261.544	44.88
261.761	178
261.977	106.32
262.193	-32.94
262.409	128.85
262.626	91.99
262.842	108.37
263.058	108.37
263.274	81.75
263.49	91.99
263.707	85.84
263.923	139.09
264.139	8.02
264.355	87.89
264.571	128.85
264.787	32.6
265.004	106.32
265.22	18.26
265.436	85.84
265.652	46.93
265.868	-10.41
266.084	-22.7
266.3	87.89
266.516	79.7
266.732	53.08
266.948	22.36
267.164	137.04
267.38	87.89
267.596	104.28
267.812	87.89
268.028	126.8
268.244	106.32
268.46	26.45
268.676	5.97
268.892	67.41
269.108	108.37
269.324	14.17
269.54	20.31
269.756	118.61
269.972	32.6
270.188	55.12
270.403	12.12
270.619	124.76
270.835	30.55
271.051	124.76
271.267	14.17
271.483	46.93
271.698	83.8
271.914	89.94
272.13	75.6
272.346	22.36
272.562	46.93
272.777	10.07
272.993	51.03
273.209	108.37
273.425	32.6
273.64	38.74
273.856	65.36
274.072	-22.7
274.287	73.56
274.503	75.6
274.719	59.22
274.934	71.51
275.15	-34.99
275.366	96.08
275.581	46.93
275.797	81.75
276.012	22.36
276.228	46.93
276.444	69.46
276.659	155.47
276.875	-32.94
277.09	55.12
277.306	141.14
277.521	-55.47
277.737	81.75
277.952	44.88
278.168	55.12
278.383	46.93
278.599	85.84
278.814	132.95
279.03	112.47
279.245	104.28
279.461	75.6
279.676	63.32
279.892	16.21
280.107	77.65
280.322	24.4
280.538	55.12
280.753	8.02
280.969	102.23
281.184	32.6
281.399	89.94
281.615	-0.17
281.83	130.9
282.045	24.4
282.26	-2.22
282.476	42.84
282.691	91.99
282.906	96.08
283.122	36.69
283.337	73.56
283.552	22.36
283.767	16.21
283.983	55.12
284.198	67.41
284.413	73.56
284.628	71.51
284.843	40.79
285.058	106.32
285.274	96.08
285.489	30.55
285.704	63.32
285.919	-41.13
286.134	98.13
286.349	24.4
286.564	124.76
286.779	141.14
286.995	81.75
287.21	-53.42
287.425	40.79
287.64	55.12
287.855	51.03
288.07	-18.6
288.285	69.46
288.5	57.17
288.715	81.75
288.93	34.64
289.145	14.17
289.36	120.66
289.575	89.94
289.79	34.64
290.004	30.55
290.219	145.24
290.434	18.26
290.649	40.79
290.864	63.32
291.079	18.26
291.294	104.28
291.509	36.69
291.724	91.99
291.938	61.27
292.153	147.28
292.368	-59.56
292.583	10.07
292.798	157.52
293.012	24.4
293.227	14.17
293.442	91.99
293.657	102.23
293.871	120.66
294.086	65.36
294.301	122.71
294.516	91.99
294.73	40.79
294.945	3.93
295.16	130.9
295.374	112.47
295.589	85.84
295.804	30.55
296.018	89.94
296.233	94.04
296.447	32.6
296.662	55.12
296.877	65.36
297.091	73.56
297.306	73.56
297.52	-4.27
297.735	55.12
297.949	85.84
298.164	42.84
298.378	71.51
298.593	-8.36
298.807	67.41
299.022	32.6
299.236	165.71
299.451	108.37
299.665	46.93
299.88	34.64
300.094	16.21
300.309	57.17
300.523	-10.41
300.737	137.04
300.952	67.41
301.166	26.45
301.381	65.36
301.595	22.36
301.809	81.75
302.024	114.52
302.238	32.6
302.452	112.47
302.667	63.32
302.881	128.85
303.095	63.32
303.309	55.12
303.524	8.02
303.738	3.93
303.952	20.31
304.166	61.27
304.381	-61.61
304.595	116.56
304.809	141.14
305.023	28.5
305.237	34.64
305.452	59.22
305.666	186.19
305.88	120.66
306.094	118.61
306.308	94.04
306.522	75.6
306.736	46.93
306.95	73.56
307.164	67.41
307.379	98.13
307.593	137.04
307.807	102.23
308.021	34.64
308.235	57.17
308.449	-0.17
308.663	53.08
308.877	120.66
309.091	51.03
309.305	34.64
309.519	-47.27
309.733	40.79
309.947	63.32
310.161	128.85
310.374	73.56
310.588	128.85
310.802	55.12
311.016	34.64
311.23	116.56
311.444	-30.89
311.658	114.52
311.872	112.47
312.085	122.71
312.299	3.93
312.513	34.64
312.727	71.51
312.941	-57.51
313.154	100.18
313.368	128.85
313.582	108.37
313.796	104.28
314.009	69.46
314.223	55.12
314.437	102.23
314.651	-8.36
314.864	22.36
315.078	116.56
315.292	14.17
315.505	85.84
315.719	71.51
315.933	46.93
316.146	59.22
316.36	53.08
316.573	106.32
316.787	87.89
317.001	83.8
317.214	65.36
317.428	67.41
317.641	-0.17
317.855	89.94
318.068	73.56
318.282	38.74
318.495	126.8
318.709	55.12
318.922	18.26
319.136	79.7
319.349	18.26
319.563	46.93
319.776	87.89
319.99	36.69
320.203	89.94
320.417	124.76
320.63	63.32
320.843	163.67
321.057	81.75
321.27	-20.65
321.483	83.8
321.697	145.24
321.91	89.94
322.124	116.56
322.337	79.7
322.55	61.27
322.763	30.55
322.977	83.8
323.19	-22.7
323.403	22.36
323.617	81.75
323.83	77.65
324.043	108.37
324.256	155.47
324.469	-6.31
324.683	130.9
324.896	30.55
325.109	96.08
325.322	63.32
325.535	149.33
325.748	91.99
325.962	139.09
326.175	57.17
326.388	100.18
326.601	42.84
326.814	145.24
327.027	38.74
327.24	71.51
327.453	46.93
327.666	139.09
327.879	141.14
328.092	126.8
328.305	42.84
328.518	59.22
328.731	1.88
328.944	55.12
329.157	34.64
329.37	8.02
329.583	96.08
329.796	85.84
330.009	44.88
330.222	89.94
330.435	61.27
330.648	63.32
330.861	108.37
331.073	104.28
331.286	145.24
331.499	61.27
331.712	-6.31
331.925	102.23
332.138	126.8
332.35	67.41
332.563	87.89
332.776	79.7
332.989	8.02
333.202	63.32
333.414	30.55
333.627	30.55
333.84	118.61
334.053	114.52
334.265	32.6
334.478	48.98
334.691	87.89
334.903	77.65
335.116	91.99
335.329	63.32
335.541	151.38
335.754	79.7
335.966	51.03
336.179	116.56
336.392	71.51
336.604	89.94
336.817	42.84
337.029	120.66
337.242	91.99
337.454	10.07
337.667	87.89
337.88	132.95
338.092	89.94
338.305	94.04
338.517	135
338.729	40.79
338.942	102.23
339.154	14.17
339.367	1.88
339.579	46.93
339.792	32.6
340.004	145.24
340.217	59.22
340.429	38.74
340.641	-39.08
340.854	34.64
341.066	40.79
341.278	67.41
341.491	51.03
341.703	24.4
341.915	83.8
342.128	169.81
342.34	94.04
342.552	26.45
342.764	51.03
342.977	120.66
343.189	89.94
343.401	61.27
343.613	-67.75
343.826	48.98
344.038	-14.51
344.25	-24.75
344.462	40.79
344.674	110.42
344.886	112.47
345.099	128.85
345.311	106.32
345.523	55.12
345.735	-30.89
345.947	79.7
346.159	132.95
346.371	106.32
346.583	67.41
346.795	147.28
347.007	14.17
347.219	98.13
347.431	155.47
347.643	106.32
347.855	32.6
348.067	104.28
348.279	-24.75
348.491	81.75
348.703	132.95
348.915	14.17
349.127	126.8
349.339	28.5
349.551	112.47
349.763	106.32
349.975	71.51
350.187	83.8
350.399	167.76
350.61	89.94
350.822	135
351.034	32.6
351.246	22.36
351.458	83.8
351.669	139.09
351.881	38.74
352.093	100.18
352.305	79.7
352.517	130.9
352.728	132.95
352.94	69.46
353.152	32.6
353.363	71.51
353.575	42.84
353.787	145.24
353.999	139.09
354.21	44.88
354.422	79.7
354.633	75.6
354.845	153.43
355.057	75.6
355.268	34.64
355.48	71.51
355.692	75.6
355.903	16.21
356.115	73.56
356.326	57.17
356.538	141.14
356.749	89.94
356.961	112.47
357.172	94.04
357.384	22.36
357.595	132.95
357.807	126.8
358.018	40.79
358.23	114.52
358.441	112.47
358.653	132.95
358.864	57.17
359.075	67.41
359.287	169.81
359.498	89.94
359.709	51.03
359.921	14.17
360.132	55.12
360.344	79.7
360.555	34.64
360.766	75.6
360.977	48.98
361.189	112.47
361.4	55.12
361.611	130.9
361.823	124.76
362.034	149.33
362.245	42.84
362.456	71.51
362.667	118.61
362.879	149.33
363.09	38.74
363.301	44.88
363.512	141.14
363.723	77.65
363.935	100.18
364.146	51.03
364.357	122.71
364.568	106.32
364.779	22.36
364.99	139.09
365.201	71.51
365.412	243.54
365.623	18.26
365.834	57.17
366.045	124.76
366.256	139.09
366.467	87.89
366.678	46.93
366.889	75.6
367.1	67.41
367.311	126.8
367.522	79.7
367.733	104.28
367.944	173.91
368.155	83.8
368.366	94.04
368.577	104.28
368.788	165.71
368.999	55.12
369.209	77.65
369.42	153.43
369.631	114.52
369.842	98.13
370.053	135
370.264	94.04
370.474	57.17
370.685	28.5
370.896	85.84
371.107	112.47
371.317	91.99
371.528	132.95
371.739	65.36
371.95	57.17
372.16	128.85
372.371	79.7
372.582	79.7
372.792	63.32
373.003	114.52
373.214	149.33
373.424	186.19
373.635	77.65
373.846	204.63
374.056	83.8
374.267	75.6
374.477	104.28
374.688	69.46
374.898	116.56
375.109	38.74
375.319	116.56
375.53	173.91
375.74	53.08
375.951	40.79
376.161	77.65
376.372	153.43
376.582	83.8
376.793	81.75
377.003	96.08
377.214	14.17
377.424	157.52
377.635	46.93
377.845	57.17
378.055	188.24
378.266	81.75
378.476	106.32
378.686	55.12
378.897	145.24
379.107	120.66
379.317	155.47
379.528	157.52
379.738	137.04
379.948	46.93
380.158	198.48
380.369	83.8
380.579	63.32
380.789	5.97
380.999	112.47
381.21	186.19
381.42	206.67
381.63	147.28
381.84	147.28
382.05	145.24
382.261	120.66
382.471	26.45
382.681	16.21
382.891	167.76
383.101	38.74
383.311	14.17
383.521	171.86
383.731	135
383.941	79.7
384.151	38.74
384.361	118.61
384.571	124.76
384.781	73.56
384.991	114.52
385.201	102.23
385.411	143.19
385.621	194.39
385.831	91.99
386.041	71.51
386.251	167.76
386.461	159.57
386.671	165.71
386.881	198.48
387.091	24.4
387.301	104.28
387.511	91.99
387.72	61.27
387.93	94.04
388.14	-12.46
388.35	147.28
388.56	87.89
388.769	42.84
388.979	104.28
389.189	89.94
389.399	61.27
389.609	14.17
389.818	98.13
390.028	75.6
390.238	120.66
390.447	24.4
390.657	116.56
390.867	91.99
391.076	89.94
391.286	34.64
391.496	147.28
391.705	42.84
391.915	202.58
392.125	106.32
392.334	153.43
392.544	155.47
392.753	89.94
392.963	51.03
393.172	83.8
393.382	96.08
393.591	180.05
393.801	65.36
394.01	153.43
394.22	112.47
394.429	128.85
394.639	159.57
394.848	137.04
395.058	100.18
395.267	137.04
395.477	132.95
395.686	124.76
395.895	155.47
396.105	202.58
396.314	149.33
396.524	120.66
396.733	69.46
396.942	104.28
397.152	198.48
397.361	178
397.57	98.13
397.78	98.13
397.989	153.43
398.198	276.31
398.407	106.32
398.617	186.19
398.826	94.04
399.035	96.08
399.244	233.3
399.453	128.85
399.663	180.05
399.872	157.52
400.081	130.9
400.29	180.05
400.499	79.7
400.708	145.24
400.917	139.09
401.127	196.43
401.336	116.56
401.545	137.04
401.754	202.58
401.963	173.91
402.172	120.66
402.381	159.57
402.59	178
402.799	83.8
403.008	245.59
403.217	175.95
403.426	171.86
403.635	75.6
403.844	210.77
404.053	198.48
404.262	206.67
404.471	229.2
404.68	128.85
404.888	159.57
405.097	155.47
405.306	249.68
405.515	276.31
405.724	186.19
405.933	227.15
406.142	337.74
406.35	214.87
406.559	173.91
406.768	300.88
406.977	300.88
407.185	239.44
407.394	378.7
407.603	264.02
407.812	309.07
408.02	384.85
408.229	296.78
408.438	382.8
408.646	255.83
408.855	290.64
409.064	343.89
409.272	464.72
409.481	370.51
409.69	304.98
409.898	333.65
410.107	399.18
410.315	399.18
410.524	386.9
410.733	419.66
410.941	483.15
411.15	468.81
411.358	491.34
411.567	540.49
411.775	507.73
411.984	485.2
412.192	565.07
412.401	556.88
412.609	606.03
412.818	677.71
413.026	665.42
413.234	683.85
413.443	657.23
413.651	663.37
413.86	689.99
414.068	849.74
414.276	788.3
414.485	800.59
414.693	847.69
414.901	993.09
415.11	857.93
415.318	882.5
415.526	941.89
415.734	976.71
415.943	880.46
416.151	1048.39
416.359	960.33
416.567	1068.87
416.776	1099.59
416.984	1189.7
417.192	1242.95
417.4	1154.88
417.608	1171.27
417.817	1140.55
418.025	1351.49
418.233	1435.46
418.441	1382.21
418.649	1484.61
418.857	1576.77
419.065	1558.33
419.273	1500.99
419.481	1654.59
419.689	1701.69
419.897	1826.62
420.105	1857.34
420.313	1939.26
420.521	2035.51
420.729	2058.04
420.937	1953.59
421.145	2180.92
421.353	2174.77
421.561	2367.28
421.769	2332.47
421.977	2674.48
422.185	2410.29
422.393	2666.28
422.601	2780.97
422.809	2731.82
423.017	2826.03
423.224	2899.75
423.432	3006.25
423.64	2975.53
423.848	3295.01
424.056	3225.38
424.263	3436.32
424.471	3428.13
424.679	3626.78
424.887	3809.05
425.094	3886.87
425.302	3989.27
425.51	4024.09
425.718	4075.29
425.925	4132.63
426.133	4208.41
426.341	4486.93
426.548	4724.49
426.756	4759.31
426.964	4861.71
427.171	5216.01
427.379	5125.9
427.586	5320.45
427.794	5592.83
428.001	5803.77
428.209	5918.46
428.417	5904.12
428.624	6420.21
428.832	6457.07
429.039	6323.96
429.247	6141.69
429.454	6981.35
429.662	7399.14
429.869	6930.16
430.076	7485.16
430.284	7186.15
430.491	7493.35
430.699	7874.27
430.906	7911.13
431.114	8050.39
431.321	8367.83
431.528	8572.63
431.736	9043.66
431.943	9402.05
432.15	9215.69
432.358	9256.65
432.565	9860.8
432.772	9649.86
432.979	10147.51
433.187	10354.36
433.394	10280.63
433.601	10974.89
433.808	11112.11
434.016	11126.44
434.223	11400.87
434.43	12426.9
434.637	12080.8
434.844	12865.17
435.052	12971.66
435.259	13088.4
435.466	13248.14
435.673	12955.28
435.88	13731.46
436.087	14593.65
436.294	14399.1
436.501	14061.18
436.708	14386.81
436.915	15038.06
437.122	15609.45
437.329	15636.07
437.537	16053.86
437.743	16414.3
437.95	16227.93
438.157	16924.24
438.364	17614.41
438.571	17438.28
438.778	17665.61
438.985	19125.81
439.192	18761.27
439.399	19113.52
439.606	18873.91
439.813	19783.21
440.02	21224.98
440.227	20809.24
440.433	20352.54
440.64	21384.72
440.847	21136.91
441.054	21636.62
441.261	23188.98
441.467	22803.96
441.674	23330.29
441.881	24018.41
442.088	24131.05
442.294	23557.61
442.501	24702.43
442.708	24886.75
442.914	25834.96
443.121	26758.59
443.328	26097.1
443.534	28177.83
443.741	27178.42
443.948	26987.96
444.154	28919.2
444.361	28902.81
444.568	28810.65
444.774	28923.29
444.981	29078.94
445.187	30156.17
445.394	31565.17
445.6	31186.3
445.807	34014.54
446.013	32554.34
446.22	33166.68
446.426	34630.98
446.633	34673.99
446.839	35968.3
447.046	34374.98
447.252	36693.29
447.459	36351.27
447.665	36375.85
447.871	37965.07
448.078	39109.89
448.284	37840.15
448.491	38694.15
448.697	39830.77
448.903	40854.76
449.11	41034.98
449.316	40393.96
449.522	40893.67
449.728	42349.78
449.935	42364.11
450.141	42396.88
450.347	43549.88
450.553	42040.53
450.76	42448.08
450.966	43730.11
451.172	43451.58
451.378	44571.82
451.584	43775.16
451.791	44911.78
451.997	44516.53
452.203	45524.13
452.409	45649.05
452.615	45569.18
452.821	43609.28
453.027	43252.93
453.233	45868.19
453.44	44012.73
453.646	44549.29
453.852	44412.08
454.058	45489.31
454.264	44065.97
454.47	44987.56
454.676	43601.08
454.882	45505.69
455.088	41452.76
455.294	42085.59
455.5	42960.07
455.705	43752.63
455.911	41587.93
456.117	40396.01
456.323	40226.03
456.529	38438.15
456.735	39951.6
456.941	38690.05
457.147	38159.63
457.352	36947.23
457.558	36502.82
457.764	36789.54
457.97	36476.2
458.176	35444.02
458.381	35188.03
458.587	33633.62
458.793	33768.79
458.999	31970.67
459.204	34682.18
459.41	33178.97
459.616	30834.05
459.821	31196.54
460.027	30932.35
460.233	30295.43
460.438	28822.94
460.644	29339.03
460.85	27768.24
461.055	27401.65
461.261	27133.37
461.466	25322.96
461.672	24735.2
461.878	26291.65
462.083	24630.75
462.289	23989.74
462.494	23862.76
462.7	22681.08
462.905	22523.39
463.111	22824.44
463.316	22978.04
463.522	22326.78
463.727	22775.29
463.932	22355.46
464.138	22351.36
464.343	22408.7
464.549	21736.97
464.754	22318.59
464.959	21933.57
465.165	22050.31
465.37	21077.52
465.575	20751.9
465.781	21057.04
465.986	21435.92
466.191	20606.49
466.397	20262.43
466.602	19285.55
466.807	20084.26
467.012	20149.79
467.218	19883.56
467.423	19826.21
467.628	19613.23
467.833	20413.98
468.038	19994.15
468.244	19486.25
468.449	20063.78
468.654	19355.18
468.859	19277.36
469.064	19328.56
469.269	18376.25
469.474	18671.16
469.679	19234.35
469.885	18290.24
470.09	18634.3
470.295	18390.59
470.5	18247.23
470.705	18265.66
470.91	17634.89
471.115	17624.65
471.32	18032.19
471.525	17737.29
471.73	17317.45
471.935	17661.51
472.139	16791.13
472.344	17055.31
472.549	16612.95
472.754	16451.16
472.959	16186.97
473.164	16033.38
473.369	15652.45
473.574	16252.51
473.778	16123.49
473.983	15980.13
474.188	16180.83
474.393	15263.34
474.598	15181.42
474.802	15208.05
475.007	15177.33
475.212	15236.72
475.417	14493.3
475.621	14448.25
475.826	14642.81
476.031	14120.57
476.235	14057.09
476.44	14292.6
476.645	13856.39
476.849	14079.61
477.054	13784.71
477.259	13602.44
477.463	13569.67
477.668	13137.55
477.872	13530.76
478.077	13078.16
478.282	12680.85
478.486	12783.25
478.691	12656.28
478.895	12732.05
479.1	12805.78
479.304	12748.43
479.509	12164.76
479.713	12654.23
479.918	12254.87
480.122	11902.62
480.326	12326.55
480.531	12099.23
480.735	11966.11
480.94	11847.33
481.144	12256.92
481.348	11730.59
481.553	11804.32
481.757	11579.04
481.961	11706.02
482.166	11826.85
482.37	11527.85
482.574	11622.05
482.778	11656.87
482.983	11929.25
483.187	11677.35
483.391	11749.03
483.595	11552.42
483.8	11597.48
484.004	11753.12
484.208	11775.65
484.412	11515.56
484.616	11695.78
484.821	11628.2
485.025	11468.45
485.229	11583.14
485.433	11439.78
485.637	11673.25
485.841	11626.15
486.045	11382.44
486.249	11607.72
486.453	11703.97
486.657	11683.49
486.861	11642.53
487.065	11529.89
487.269	11460.26
487.473	11441.83
487.677	11572.9
487.881	11845.28
488.085	11470.5
488.289	11482.79
488.493	11562.66
488.697	11701.92
488.901	11673.25
489.105	11486.89
489.309	11755.17
489.512	11953.82
489.716	11400.87
489.92	11669.16
490.124	11552.42
490.328	12140.19
490.531	12013.21
490.735	11972.25
490.939	11886.24
491.143	11945.63
491.346	11914.91
491.55	12109.47
491.754	12076.7
491.958	12232.35
492.161	11978.4
492.365	12301.98
492.569	12099.23
492.772	12228.25
492.976	12236.44
493.18	12519.06
493.383	12396.18
493.587	12474.01
493.79	12607.12
493.994	12586.65
494.197	12553.88
494.401	12953.23
494.605	12986
494.808	12961.42
495.012	13069.97
495.215	13063.82
495.419	13358.73
495.622	13229.71
495.825	13334.15
496.029	13184.65
496.232	13641.35
496.436	13698.69
496.639	14042.75
496.843	13917.82
497.046	14165.63
497.249	14263.93
497.453	14521.98
497.656	14546.55
497.859	14456.44
498.063	14702.2
498.266	14982.77
498.469	14818.93
498.673	14935.67
498.876	15292.01
499.079	15382.12
499.282	15294.06
499.485	15965.79
499.689	15801.96
499.892	16141.92
500.095	16109.15
500.298	16496.22
500.501	16539.22
500.705	16690.77
500.908	17055.31
501.111	17210.96
501.314	17337.93
501.517	17583.69
501.72	17735.24
501.923	17692.23
502.126	18241.09
502.329	18261.57
502.532	18474.56
502.735	18665.02
502.938	18921.01
503.141	19183.15
503.344	19177.01
503.547	19408.43
503.75	19559.98
503.953	19846.69
504.156	20059.68
504.359	20244
504.562	20237.86
504.765	20772.38
504.968	20989.46
505.17	21151.25
505.373	21392.91
505.576	21583.37
505.779	21865.99
505.982	21710.35
506.185	22255.11
506.387	22621.69
506.59	22398.46
506.793	22881.78
506.996	22871.54
507.198	23561.71
507.401	23473.65
507.604	23979.5
507.807	23991.78
508.009	24231.4
508.212	24602.08
508.415	24489.44
508.617	25372.11
508.82	25181.65
509.022	25175.51
509.225	25785.8
509.428	25611.73
509.63	25775.56
509.833	26006.98
510.035	26670.53
510.238	26709.44
510.44	27112.89
510.643	27475.38
510.845	27590.06
511.048	27809.2
511.25	27710.89
511.453	28310.95
511.655	29029.79
511.858	28792.22
512.06	29179.29
512.262	29466
512.465	29336.98
512.667	29662.61
512.87	30096.78
513.072	30162.31
513.274	30758.27
513.477	30864.77
513.679	31407.48
513.881	31450.49
514.084	31665.52
514.286	31935.85
514.488	32179.56
514.69	32949.6
514.893	33199.45
515.095	33160.54
515.297	33711.44
515.499	33529.17
515.701	33682.77
515.904	34223.44
516.106	34841.92
516.308	34575.69
516.51	35171.64
516.712	34907.46
516.914	35593.53
517.116	35902.77
517.318	36283.69
517.52	36656.42
517.722	36494.63
517.925	36947.23
518.127	37758.23
518.329	37393.69
518.531	37336.35
518.733	38370.57
518.935	38798.6
519.136	38671.62
519.338	38911.24
519.54	39249.15
519.742	39603.45
519.944	39857.4
520.146	40246.51
520.348	40469.74
520.55	40502.51
520.752	40453.36
520.954	41202.91
521.155	41225.44
521.357	41549.02
521.559	42073.3
521.761	42765.51
521.963	42429.65
522.164	42585.29
522.366	42951.88
522.568	43295.94
522.77	43859.13
522.971	44094.64
523.173	43754.68
523.375	44235.95
523.576	44416.18
523.778	44465.33
523.98	45087.91
524.181	45304.99
524.383	45268.13
524.584	46001.3
524.786	45655.2
524.988	45499.55
525.189	46523.54
525.391	46443.66
525.592	46247.06
525.794	46752.91
525.995	46904.46
526.197	46849.16
526.398	47129.73
526.6	47762.56
526.801	47803.52
527.003	47619.2
527.204	47856.76
527.406	48290.93
527.607	47893.63
527.808	48643.18
528.01	47821.95
528.211	48407.67
528.412	49056.87
528.614	48946.28
528.815	48770.16
529.016	49126.5
529.218	49269.86
529.419	49126.5
529.62	49185.89
529.822	48878.7
530.023	49151.08
530.224	49245.29
530.425	49239.14
530.626	49118.31
530.828	49220.71
531.029	50136.15
531.23	49634.4
531.431	49482.85
531.632	49863.77
531.833	50394.2
532.035	50203.74
532.236	49869.92
532.437	50580.56
532.638	50017.37
532.839	50287.7
533.04	50558.03
533.241	50103.38
533.442	50682.96
533.643	50146.39
533.844	50572.37
534.045	50633.81
534.246	49939.55
534.447	50934.86
534.648	50353.24
534.849	50504.79
535.05	50295.89
535.251	50494.55
535.451	50418.77
535.652	50582.61
535.853	50357.33
536.054	50895.95
536.255	51072.07
536.456	50375.76
536.657	51008.59
536.857	50314.33
537.058	50725.97
537.259	50807.89
537.46	50601.04
537.66	50154.58
537.861	50742.35
538.062	49910.88
538.263	50279.51
538.463	50480.21
538.664	50699.34
538.865	50850.89
539.065	50826.32
539.266	49908.83
539.466	50898
539.667	50142.3
539.868	50463.83
540.068	50324.57
540.269	50299.99
540.469	50680.91
540.67	50185.3
540.87	50834.51
541.071	50261.08
541.271	50480.21
541.472	50119.77
541.672	49960.03
541.873	49968.22
542.073	49937.5
542.274	50304.09
542.474	50050.14
542.675	49925.21
542.875	50701.39
543.075	50279.51
543.276	49618.02
543.476	50924.62
543.676	49964.12
543.877	50291.8
544.077	50043.99
544.277	50207.83
544.478	50324.57
544.678	50343
544.878	49947.74
545.078	49843.29
545.279	50101.34
545.479	49814.62
545.679	49970.27
545.879	50064.47
546.079	50084.95
546.28	49929.31
546.48	49665.12
546.68	50291.8
546.88	50328.66
547.08	49919.07
547.28	49716.32
547.48	49669.22
547.68	49613.92
547.88	49734.75
548.081	49833.05
548.281	49505.38
548.481	49964.12
548.681	49874.01
548.881	49677.41
549.081	49722.46
549.28	49337.44
549.48	50091.1
549.68	49851.48
549.88	50326.61
550.08	49720.41
550.28	49591.39
550.48	49507.43
550.68	49886.3
550.88	49163.37
551.08	49439.84
551.279	49687.65
551.479	49087.59
551.679	49575.01
551.879	49532
552.079	49824.86
552.278	49245.29
552.478	49398.88
552.678	49343.59
552.878	49370.21
553.077	49607.78
553.277	48991.34
553.477	49732.7
553.676	48993.39
553.876	49472.61
554.076	49060.97
554.275	48915.56
554.475	48589.94
554.674	49157.22
554.874	49048.68
555.074	49243.24
555.273	49032.3
555.473	49269.86
555.672	48835.69
555.872	48940.14
556.071	49114.22
556.271	49269.86
556.47	48512.11
556.67	48655.47
556.869	48637.04
557.068	48612.46
557.268	48391.28
557.467	48495.73
557.667	48538.74
557.866	48591.98
558.065	48813.16
558.265	48467.06
558.464	48057.46
558.663	48469.11
558.863	47744.12
559.062	48755.82
559.261	47697.02
559.461	48481.39
559.66	47621.25
559.859	48206.97
560.058	47174.79
560.258	47953.02
560.457	47512.7
560.656	47924.35
560.855	47645.82
561.054	47279.24
561.253	47395.97
561.453	47891.58
561.652	47254.66
561.851	47500.42
562.05	47492.22
562.249	46810.25
562.448	47524.99
562.647	47500.42
562.846	47213.7
563.045	47248.52
563.244	46879.88
563.443	47189.13
563.642	46601.36
563.841	46152.85
564.04	46390.42
564.239	47111.3
564.438	46089.37
564.637	46609.55
564.836	46615.69
565.035	46146.71
565.234	46531.73
565.432	45935.77
565.631	45753.5
565.83	45673.63
566.029	45587.61
566.228	45567.13
566.427	45862.04
566.625	45434.02
566.824	45036.71
567.023	45622.43
567.222	45079.72
567.42	44934.31
567.619	44784.81
567.818	45227.17
568.016	44752.04
568.215	45042.85
568.414	45120.68
568.612	45012.13
568.811	45214.88
569.01	45124.77
569.208	44125.36
569.407	44680.36
569.605	44090.55
569.804	44444.85
570.002	44209.33
570.201	44035.25
570.4	43961.53
570.598	43351.23
570.797	43699.39
570.995	43644.09
571.193	43596.99
571.392	43881.66
571.59	43453.63
571.789	43494.59
571.987	43289.79
572.186	42661.07
572.384	42765.51
572.582	43826.36
572.781	43115.72
572.979	42466.51
573.177	42751.18
573.376	42990.79
573.574	42411.21
573.772	42495.18
573.971	42255.57
574.169	42126.55
574.367	41669.85
574.565	42022.1
574.763	41985.24
574.962	41991.38
575.16	41401.57
575.358	41862.36
575.556	41010.4
575.754	42058.96
575.952	41127.14
576.151	41495.77
576.349	40916.2
576.547	41018.6
576.745	41194.72
576.943	41305.31
577.141	40793.32
577.339	40725.74
577.537	40690.92
577.735	41329.89
577.933	40592.62
578.131	40639.72
578.329	40148.21
578.527	39996.66
578.725	40197.36
578.923	40142.06
579.121	40101.11
579.319	39761.14
579.516	40389.87
579.714	39763.19
579.912	39539.96
580.11	39632.12
580.308	39685.37
580.506	39333.12
580.704	38636.81
580.901	39705.85
581.099	39050.5
581.297	39107.84
581.495	38921.48
581.692	39134.46
581.89	38653.19
582.088	38837.51
582.285	38651.14
582.483	38741.25
582.681	38370.57
582.878	38319.37
583.076	37842.2
583.274	38327.56
583.471	37684.5
583.669	37917.97
583.866	37913.87
584.064	37811.48
584.262	37600.54
584.459	37684.5
584.657	37205.28
584.854	37414.17
585.052	36986.14
585.249	37182.75
585.447	37328.16
585.644	36980
585.841	37410.07
586.039	37233.95
586.236	36379.95
586.434	36402.47
586.631	36068.65
586.828	36277.55
587.026	36304.17
587.223	36130.09
587.42	36207.92
587.618	36169.01
587.815	35851.57
588.012	35503.42
588.21	35183.93
588.407	36062.51
588.604	35417.4
588.801	35661.11
588.999	35132.73
589.196	35231.04
589.393	35120.45
589.59	34858.31
589.787	34915.65
589.984	34864.45
590.182	34458.95
590.379	34538.82
590.576	34071.89
590.773	34635.08
590.97	34188.62
591.167	34372.94
591.364	33975.63
591.561	34147.66
591.758	33813.84
591.955	33787.22
592.152	33881.42
592.349	33525.08
592.546	33699.16
592.743	33750.35
592.94	33381.72
593.137	33549.65
593.334	33441.11
593.531	32945.5
593.727	33779.03
593.924	33025.37
594.121	32718.18
594.318	33387.86
594.515	32386.41
594.712	32968.03
594.908	32642.4
595.105	32511.33
595.302	32490.85
595.499	32210.28
595.696	31970.67
595.892	31806.83
596.089	32294.25
596.286	32171.37
596.482	31759.73
596.679	31884.65
596.876	31536.5
597.072	31532.4
597.269	31661.43
597.466	31516.02
597.662	31272.31
597.859	31438.2
598.055	30885.25
598.252	30889.34
598.448	31008.12
598.645	31038.84
598.841	30598.53
599.038	30788.99
599.234	30741.89
599.431	30297.48
599.627	30317.96
599.824	30528.9
600.02	30410.12
600.217	30231.94
600.413	30332.29
600.609	29894.03
600.806	29695.38
601.002	29867.41
601.198	29842.83
601.395	29625.75
601.591	29439.38
601.787	29666.7
601.984	28943.77
602.18	29881.74
602.376	28841.37
602.572	29035.93
602.769	29087.13
602.965	28493.22
603.161	28833.18
603.357	28642.72
603.553	28677.54
603.75	28843.42
603.946	28095.91
604.142	28206.5
604.338	28126.63
604.534	28480.93
604.73	28138.92
604.926	27884.97
605.122	28226.98
605.318	27714.99
605.514	27555.25
605.71	27977.13
605.906	27798.96
606.102	27733.42
606.298	27725.23
606.494	27553.2
606.69	27366.84
606.886	27717.04
607.082	27137.46
607.278	27139.51
607.474	27047.35
607.67	27080.12
607.866	26811.84
608.062	27671.98
608.257	27014.59
608.453	26793.4
608.649	26643.9
608.845	26660.29
609.041	26789.31
609.236	26949.05
609.432	26461.63
609.628	26529.22
609.824	26500.54
610.019	26396.1
610.215	26441.15
610.411	26527.17
610.606	26324.42
610.802	26349
610.998	26097.1
611.193	26207.69
611.389	25945.55
611.584	26234.31
611.78	25710.03
611.976	25986.5
612.171	26373.57
612.367	26072.52
612.562	25787.85
612.758	25509.33
612.953	25331.15
613.149	25566.67
613.344	25112.02
613.539	25433.55
613.735	25744.84
613.93	25413.07
614.126	25263.57
614.321	25851.34
614.517	25599.44
614.712	25140.69
614.907	25028.06
615.103	25267.67
615.298	25163.22
615.493	24993.24
615.688	24667.61
615.884	24813.02
616.079	24614.37
616.274	24509.92
616.47	24622.56
616.665	24669.66
616.86	24370.66
617.055	24290.79
617.25	24225.25
617.445	25036.25
617.641	24108.52
617.836	24454.62
618.031	24092.13
618.226	24563.17
618.421	24092.13
618.616	24151.52
618.811	23696.88
619.006	24036.84
619.201	23670.25
619.396	23928.3
619.591	23627.24
619.786	23926.25
619.981	23324.15
620.176	23748.07
620.371	23209.46
620.566	23424.5
620.761	23107.06
620.956	23358.96
621.151	22697.47
621.346	22750.71
621.541	22699.51
621.735	22986.23
621.93	22719.99
622.125	22519.29
622.32	22232.58
622.515	22451.71
622.709	22068.74
622.904	22035.97
623.099	21691.91
623.294	21872.14
623.488	21583.37
623.683	21644.81
623.878	21188.11
624.072	21472.78
624.267	21319.18
624.462	21292.56
624.656	21014.04
624.851	21028.37
625.046	21009.94
625.24	20629.02
625.435	20416.03
625.629	20710.94
625.824	20297.25
626.018	20133.41
626.213	19897.89
626.407	20301.34
626.602	19899.94
626.796	20225.57
626.991	19992.1
627.185	19777.06
627.38	19367.47
627.574	19611.18
627.768	19105.33
627.963	19332.65
628.157	19177.01
628.352	19174.96
628.546	18828.85
628.74	18935.35
628.935	18773.56
629.129	18552.38
629.323	18386.49
629.517	18374.2
629.712	18413.12
629.906	18232.9
630.1	17944.13
630.294	18097.73
630.489	17878.6
630.683	17905.22
630.877	17649.22
631.071	17761.86
631.265	17794.63
631.459	17638.98
631.653	17595.98
631.848	17569.35
632.042	17401.42
632.236	17417.8
632.43	17071.7
632.624	16938.58
632.818	17032.79
633.012	16995.92
633.206	16774.74
633.4	16778.84
633.594	16713.3
633.788	16762.45
633.982	16410.2
634.176	16492.12
634.369	16299.61
634.563	16225.89
634.757	16150.11
634.951	15955.55
635.145	16053.86
635.339	16000.61
635.533	15693.41
635.726	15724.13
635.92	15367.79
636.114	15447.66
636.308	15476.33
636.501	15318.64
636.695	15267.44
636.889	15201.9
637.083	15052.4
637.276	14952.05
637.47	14859.89
637.664	14980.72
637.857	15074.93
638.051	14532.22
638.244	14624.37
638.438	14493.3
638.632	14493.3
638.825	14360.19
639.019	14300.8
639.212	14384.76
639.406	14302.84
639.599	14186.11
639.793	14161.53
639.986	13991.55
640.18	13997.7
640.373	13991.55
640.567	13887.11
640.76	13770.37
640.954	13547.14
641.147	13520.52
641.34	13477.51
641.534	13438.6
641.727	13268.62
641.92	13373.07
642.114	13164.17
642.307	13158.03
642.5	13139.6
642.694	13002.38
642.887	12797.59
643.08	13155.98
643.273	12942.99
643.467	12754.58
643.66	12316.31
643.853	12738.19
644.046	12498.58
644.239	12664.47
644.432	12228.25
644.626	12252.83
644.819	12271.26
645.012	12123.8
645.205	12338.84
645.398	12220.06
645.591	12240.54
645.784	11876
645.977	11722.4
646.17	11785.89
646.363	11759.27
646.556	11689.63
646.749	11620
646.942	11509.41
647.135	11609.76
647.328	11415.21
647.521	11525.8
647.714	11288.23
647.907	11183.79
648.099	11355.82
648.292	11384.49
648.485	11329.19
648.678	11105.96
648.871	11083.44
649.064	10999.47
649.256	10925.74
649.449	10815.15
649.642	10733.23
649.835	10974.89
650.027	10704.56
650.22	10811.06
650.413	10747.57
650.605	10643.12
650.798	10671.79
650.991	10186.43
651.183	10415.8
651.376	10415.8
651.568	10180.28
651.761	10276.54
651.954	10299.06
652.146	10170.04
652.339	10122.94
652.531	10010.3
652.724	9885.37
652.916	9658.05
653.109	9871.04
653.301	9868.99
653.494	10002.11
653.686	9735.87
653.879	9750.21
654.071	9672.39
654.263	9543.36
654.456	9594.56
654.648	9535.17
654.84	9291.46
655.033	9512.64
655.225	9311.94
655.417	9426.63
655.61	9428.68
655.802	9082.57
655.994	9107.15
656.186	9199.3
656.379	9148.11
656.571	8986.32
656.763	8853.2
656.955	8853.2
657.148	8857.29
657.34	8900.3
657.532	8767.18
657.724	8830.67
657.916	8722.13
658.108	8709.84
658.3	8656.59
658.492	8500.95
658.684	8361.69
658.876	8492.76
659.068	8363.73
659.26	8132.31
659.452	8316.63
659.644	8316.63
659.836	8339.16
660.028	8306.39
660.22	8054.49
660.412	8124.12
660.604	8290.01
660.796	8095.45
660.988	8199.9
661.18	7980.76
661.372	8017.63
661.563	8048.35
661.755	7890.65
661.947	7773.92
662.139	7960.28
662.331	7786.21
662.522	7763.68
662.714	7681.76
662.906	7661.28
663.097	7567.07
663.289	7665.38
663.481	7452.39
663.673	7628.51
663.864	7554.79
664.056	7309.03
664.247	7341.8
664.439	7421.67
664.631	7415.52
664.822	7513.83
665.014	7395.04
665.205	7313.13
665.397	7114.47
665.588	7376.61
665.78	6967.02
665.971	7122.66
666.163	7196.39
666.354	7270.12
666.546	7110.38
666.737	6977.26
666.929	6926.06
667.12	7026.41
667.311	7149.29
667.503	6815.47
667.694	7116.52
667.885	7079.66
668.077	6870.76
668.268	6682.35
668.459	6833.9
668.651	6758.13
668.842	6866.67
669.033	6739.69
669.224	6803.18
669.416	6702.83
669.607	6659.82
669.798	6676.21
669.989	6719.21
670.18	6725.36
670.371	6579.95
670.563	6366.96
670.754	6436.6
670.945	6577.9
671.136	6438.64
671.327	6297.33
671.518	6516.47
671.709	6467.31
671.9	6549.23
672.091	6446.83
672.282	6233.85
672.473	6321.91
672.664	6346.48
672.855	6446.83
673.046	6428.4
673.237	6422.26
673.428	6272.76
673.619	6239.99
673.809	6237.94
674	6307.57
674.191	6250.23
674.382	6145.78
674.573	6141.69
674.764	6305.53
674.954	6381.3
675.145	6119.16
675.336	6338.29
675.527	6174.46
675.717	6117.11
675.908	6070.01
676.099	6235.89
676.289	6137.59
676.48	6049.53
676.671	6063.86
676.861	6119.16
677.052	6006.52
677.243	5979.9
677.433	5930.75
677.624	6035.19
677.814	5787.39
678.005	6014.71
678.195	5803.77
678.386	6000.38
678.576	5996.28
678.767	5797.63
678.957	5897.98
679.148	6000.38
679.338	5891.84
679.529	5848.83
679.719	5826.3
679.909	5830.4
680.1	6070.01
680.29	5895.93
680.481	5848.83
680.671	5883.64
680.861	5809.92
681.052	5918.46
681.242	5889.79
681.432	6043.39
681.622	5818.11
681.813	5758.72
682.003	5842.68
682.193	5854.97
682.383	6012.67
682.573	5717.76
682.764	5785.34
682.954	5775.1
683.144	5756.67
683.334	5752.57
683.524	5938.94
683.714	5680.89
683.904	5619.46
684.094	5789.44
684.284	5752.57
684.474	5797.63
684.664	5682.94
684.854	5762.81
685.044	5775.1
685.234	5615.36
685.424	5652.22
685.614	5715.71
685.804	5709.57
685.994	5447.43
686.184	5609.22
686.374	5596.93
686.564	5560.06
686.753	5467.91
686.943	5412.61
687.133	5394.18
687.323	5363.46
687.513	5453.57
687.702	5283.59
687.892	5332.74
688.082	5340.93
688.272	5330.69
688.461	5234.44
688.651	5394.18
688.841	5195.53
689.03	5107.46
689.22	5095.18
689.41	5191.43
689.599	5181.19
689.789	4986.63
689.979	4984.59
690.168	5048.07
690.358	5037.83
690.547	4906.76
690.737	4898.57
690.926	4962.06
691.116	4904.71
691.305	5105.42
691.495	4900.62
691.684	4796.17
691.874	4800.27
692.063	4810.51
692.252	4814.6
692.442	4640.53
692.631	4675.34
692.82	4710.16
693.01	4513.55
693.199	4701.97
693.388	4480.78
693.578	4671.25
693.767	4646.67
693.956	4486.93
694.146	4556.56
694.335	4658.96
694.524	4407.06
694.713	4585.23
694.902	4476.69
695.092	4517.65
695.281	4359.95
695.47	4347.67
695.659	4380.43
695.848	4398.87
696.037	4302.61
696.226	4384.53
696.415	4321.04
696.604	4245.27
696.793	4380.43
696.982	4241.17
697.171	4433.68
697.36	4382.48
697.549	4122.39
697.738	4036.38
697.927	4290.32
698.116	4144.92
698.305	4089.62
698.494	4142.87
698.683	4112.15
698.872	4140.82
699.061	4144.92
699.25	4042.52
699.438	4206.36
699.627	4126.49
699.816	4200.21
700.005	4001.56
700.193	3966.74
700.382	4110.1
700.571	4163.35
700.76	4063
700.948	4140.82
701.137	3993.37
701.326	4026.14
701.514	4019.99
701.703	4130.58
701.892	4060.95
702.08	4157.21
702.269	4026.14
702.457	3890.97
702.646	4071.19
702.834	3927.83
703.023	3850.01
703.212	3850.01
703.4	3923.74
703.589	3907.35
703.777	4001.56
703.965	3835.67
704.154	3882.78
704.342	3929.88
704.531	3946.27
704.719	3997.46
704.907	4026.14
705.096	3927.83
705.284	3915.55
705.472	3790.62
705.661	3841.82
705.849	3993.37
706.037	3964.7
706.226	3948.31
706.414	3987.22
706.602	3913.5
706.79	3946.27
706.979	3854.11
707.167	3800.86
707.355	3768.09
707.543	3946.27
707.731	3821.34
707.919	3944.22
708.107	3938.07
708.296	3794.72
708.484	3794.72
708.672	3837.72
708.86	3999.51
709.048	3956.5
709.236	3944.22
709.424	3866.39
709.612	3936.03
709.8	3929.88
709.988	3874.59
710.176	4005.66
710.364	4038.42
710.551	4026.14
710.739	3880.73
710.927	3827.48
711.115	3929.88
711.303	4044.57
711.491	3942.17
711.679	3841.82
711.866	3886.87
712.054	3893.02
712.242	3841.82
712.43	3872.54
712.617	3938.07
712.805	3903.26
712.993	3991.32
713.181	3919.64
713.368	3897.11
713.556	3893.02
713.744	3807
713.931	4106.01
714.119	4040.47
714.306	4026.14
714.494	4073.24
714.682	3972.89
714.869	3921.69
715.057	4116.25
715.244	4054.81
715.432	4042.52
715.619	3901.21
715.807	3946.27
715.994	4001.56
716.182	3983.13
716.369	4046.62
716.556	4126.49
716.744	4169.49
716.931	3997.46
717.119	3995.42
717.306	3970.84
717.493	4022.04
717.681	4054.81
717.868	4106.01
718.055	4120.34
718.242	4110.1
718.43	4101.91
718.617	4128.53
718.804	4169.49
718.991	4134.68
719.179	4198.17
719.366	4153.11
719.553	4202.26
719.74	4093.72
719.927	4024.09
720.114	3995.42
720.301	4163.35
720.488	4106.01
720.676	4017.94
720.863	4142.87
721.05	4251.41
721.237	4063
721.424	4275.99
721.611	4298.52
721.798	4220.69
721.985	4110.1
722.172	4081.43
722.358	4265.75
722.545	4241.17
722.732	4146.97
722.919	4073.24
723.106	4009.75
723.293	4275.99
723.48	4267.8
723.667	4126.49
723.853	4222.74
724.04	4431.63
724.227	4247.32
724.414	4284.18
724.6	4142.87
724.787	4290.32
724.974	4269.84
725.161	4286.23
725.347	4222.74
725.534	4239.12
725.72	4269.84
725.907	4241.17
726.094	4296.47
726.28	4251.41
726.467	4282.13
726.653	4329.24
726.84	4278.04
727.027	4300.56
727.213	4235.03
727.4	4273.94
727.586	4222.74
727.773	4259.6
727.959	4355.86
728.145	4388.63
728.332	4306.71
728.518	4357.91
728.705	4257.56
728.891	4388.63
729.077	4179.73
729.264	4464.4
729.45	4392.72
729.636	4347.67
729.823	4308.76
730.009	4257.56
730.195	4374.29
730.382	4411.15
730.568	4364.05
730.754	4384.53
730.94	4425.49
731.126	4296.47
731.313	4407.06
731.499	4359.95
731.685	4368.15
731.871	4335.38
732.057	4349.71
732.243	4445.97
732.429	4282.13
732.615	4499.22
732.801	4429.59
732.987	4312.85
733.173	4398.87
733.359	4349.71
733.545	4263.7
733.731	4415.25
733.917	4427.54
734.103	4343.57
734.289	4417.3
734.475	4394.77
734.661	4513.55
734.847	4347.67
735.033	4497.17
735.219	4269.84
735.404	4353.81
735.59	4321.04
735.776	4343.57
735.962	4482.83
736.148	4355.86
736.333	4390.67
736.519	4298.52
736.705	4388.63
736.89	4247.32
737.076	4271.89
737.262	4284.18
737.447	4343.57
737.633	4355.86
737.819	4265.75
738.004	4380.43
738.19	4396.82
738.375	4284.18
738.561	4245.27
738.747	4445.97
738.932	4355.86
739.118	4206.36
739.303	4386.58
739.489	4323.09
739.674	4308.76
739.859	4237.08
740.045	4310.8
740.23	4140.82
740.416	4060.95
740.601	4216.6
740.786	4265.75
740.972	4019.99
741.157	4171.54
741.342	4245.27
741.528	4075.29
741.713	4194.07
741.898	4134.68
742.084	4146.97
742.269	4265.75
742.454	4032.28
742.639	4044.57
742.824	4056.86
743.01	4071.19
743.195	4060.95
743.38	3956.5
743.565	3927.83
743.75	4007.7
743.935	4003.61
744.12	4079.38
744.305	3823.39
744.49	3856.15
744.675	3915.55
744.86	3954.46
745.045	3938.07
745.23	3829.53
745.415	3815.2
745.6	3807
745.785	3757.85
745.97	3811.1
746.155	3809.05
746.34	3692.32
746.525	3733.28
746.71	3708.7
746.895	3673.89
747.079	3659.55
747.264	3657.5
747.449	3743.52
747.634	3702.56
747.819	3591.97
748.003	3708.7
748.188	3548.96
748.373	3663.65
748.557	3530.53
748.742	3520.29
748.927	3462.94
749.111	3520.29
749.296	3397.41
749.481	3499.81
749.665	3288.87
749.85	3464.99
750.034	3321.63
750.219	3448.61
750.404	3350.31
750.588	3340.07
750.773	3235.62
750.957	3233.57
751.141	3311.39
751.326	3192.61
751.51	3309.35
751.695	3141.41
751.879	3168.04
752.064	3188.52
752.248	3186.47
752.432	3153.7
752.617	3163.94
752.801	3127.08
752.985	2932.52
753.17	3018.54
753.354	3018.54
753.538	3075.88
753.722	3059.49
753.907	2948.9
754.091	2856.75
754.275	2733.87
754.459	2801.45
754.643	2813.74
754.828	2852.65
755.012	2791.21
755.196	2746.16
755.38	2656.04
755.564	2715.44
755.748	2629.42
755.932	2664.24
756.116	2740.01
756.3	2772.78
756.484	2651.95
756.668	2713.39
756.852	2610.99
757.036	2619.18
757.22	2567.98
757.404	2570.03
757.588	2506.54
757.772	2610.99
757.956	2338.61
758.14	2522.93
758.323	2367.28
758.507	2475.82
758.691	2504.5
758.875	2537.26
759.059	2344.75
759.242	2445.1
759.426	2305.84
759.61	2359.09
759.794	2314.03
759.977	2350.9
760.161	2371.38
760.345	2414.38
760.528	2320.18
760.712	2299.7
760.895	2242.36
761.079	2178.87
761.263	2205.49
761.446	2201.4
761.63	2119.48
761.813	2142
761.997	2154.29
762.18	2123.57
762.364	2211.64
762.547	2117.43
762.731	2176.82
762.914	2185.01
763.098	1965.88
763.281	2082.61
763.464	2015.03
763.648	2027.32
763.831	2062.13
764.015	1965.88
764.198	2062.13
764.381	1867.58
764.564	2058.04
764.748	2139.96
764.931	1963.83
765.114	1969.98
765.297	2094.9
765.481	1976.12
765.664	2049.85
765.847	1929.02
766.03	2012.98
766.213	1894.2
766.397	1949.5
766.58	1857.34
766.763	1945.4
766.946	1931.06
767.129	1779.51
767.312	1799.99
767.495	1802.04
767.678	1777.47
767.861	1945.4
768.044	1886.01
768.227	1922.87
768.41	1843
768.593	1824.57
768.776	1843
768.959	1736.51
769.142	1859.38
769.324	1732.41
769.507	1873.72
769.69	1843
769.873	1744.7
770.056	1853.24
770.239	1767.23
770.421	1701.69
770.604	1799.99
770.787	1677.12
770.97	1746.75
771.152	1658.68
771.335	1685.31
771.518	1627.96
771.7	1703.74
771.883	1668.92
772.066	1603.39
772.248	1546.05
772.431	1728.31
772.613	1664.83
772.796	1519.42
772.978	1511.23
773.161	1627.96
773.343	1613.63
773.526	1574.72
773.708	1562.43
773.891	1677.12
774.073	1541.95
774.256	1562.43
774.438	1519.42
774.621	1554.24
774.803	1492.8
774.985	1357.63
775.168	1505.09
775.35	1505.09
775.532	1441.6
775.715	1363.78
775.897	1357.63
776.079	1333.06
776.261	1359.68
776.444	1367.87
776.626	1384.26
776.808	1220.42
776.99	1326.91
777.173	1214.27
777.355	1275.71
777.537	1331.01
777.719	1312.58
777.901	1247.04
778.083	1292.1
778.265	1285.95
778.447	1220.42
778.629	1267.52
778.811	1345.34
778.993	1374.02
779.175	1300.29
779.357	1230.66
779.539	1062.73
779.721	1191.75
779.903	1206.08
780.085	1212.23
780.267	1214.27
780.449	1199.94
780.631	1081.16
780.812	1193.8
780.994	1089.35
781.176	1146.69
781.358	1066.82
781.54	1111.88
781.721	1138.5
781.903	1066.82
782.085	1152.84
782.267	1048.39
782.448	948.04
782.63	1079.11
782.812	1103.68
782.993	1040.2
783.175	1048.39
783.357	1062.73
783.538	1095.49
783.72	1005.38
783.901	964.42
784.083	1050.44
784.264	993.09
784.446	923.46
784.627	907.08
784.809	997.19
784.99	902.98
785.172	900.94
785.353	866.12
785.535	997.19
785.716	849.74
785.897	786.25
786.079	933.7
786.26	825.16
786.441	874.31
786.623	864.07
786.804	819.02
786.985	837.45
787.167	898.89
787.348	890.7
787.529	794.44
787.71	872.26
787.891	870.22
788.073	778.06
788.254	882.5
788.435	778.06
788.616	726.86
788.797	786.25
788.978	757.58
789.159	755.53
789.34	769.87
789.522	718.67
789.703	745.29
789.884	663.37
790.065	798.54
790.246	808.78
790.427	743.24
790.607	782.15
790.788	739.15
790.969	628.56
791.15	759.63
791.331	671.56
791.512	628.56
791.693	671.56
791.874	681.8
792.054	741.19
792.235	730.95
792.416	536.4
792.597	577.36
792.778	665.42
792.958	712.52
793.139	612.17
793.32	612.17
793.5	593.74
793.681	634.7
793.862	653.13
794.042	622.41
794.223	614.22
794.404	644.94
794.584	608.08
794.765	595.79
794.945	612.17
795.126	630.6
795.306	634.7
795.487	591.69
795.667	567.12
795.848	585.55
796.028	616.27
796.209	628.56
796.389	542.54
796.57	544.59
796.75	540.49
796.93	640.84
797.111	517.97
797.291	472.91
797.471	558.92
797.652	499.53
797.832	563.02
798.012	552.78
798.192	472.91
798.373	505.68
798.553	538.45
798.733	468.81
798.913	464.72
799.093	460.62
799.274	542.54
799.454	472.91
799.634	583.5
799.814	460.62
799.994	538.45
800.174	434
800.354	532.3
800.534	390.99
800.714	440.14
800.894	466.77
801.074	401.23
801.254	448.33
801.434	560.97
801.614	444.24
801.794	440.14
801.974	1394.5
802.154	438.09
802.334	454.48
802.514	411.47
802.693	456.53
802.873	427.85
803.053	603.98
803.233	415.57
803.413	522.06
803.592	436.05
803.772	311.12
803.952	438.09
804.131	358.22
804.311	341.84
804.491	419.66
804.67	384.85
804.85	419.66
805.03	446.29
805.209	450.38
805.389	454.48
805.568	411.47
805.748	370.51
805.928	370.51
806.107	470.86
806.287	444.24
806.466	407.38
806.646	384.85
806.825	411.47
807.004	350.03
807.184	409.42
807.363	382.8
807.543	345.94
807.722	390.99
807.901	462.67
808.081	390.99
808.26	307.02
808.439	319.31
808.619	335.7
808.798	341.84
808.977	366.42
809.156	464.72
809.336	413.52
809.515	440.14
809.694	268.11
809.873	343.89
810.052	323.41
810.231	401.23
810.411	399.18
810.59	341.84
810.769	257.87
810.948	401.23
811.127	378.7
811.306	405.33
811.485	370.51
811.664	341.84
811.843	313.17
812.022	376.66
812.201	325.46
812.38	272.21
812.559	294.74
812.737	319.31
812.916	268.11
813.095	243.54
813.274	376.66
813.453	255.83
813.632	317.26
813.811	288.59
813.989	282.45
814.168	286.54
814.347	264.02
814.526	335.7
814.704	409.42
814.883	315.22
815.062	233.3
815.24	347.98
815.419	255.83
815.598	276.31
815.776	247.63
815.955	333.65
816.133	173.91
816.312	235.35
816.49	239.44
816.669	366.42
816.847	200.53
817.026	317.26
817.204	276.31
817.383	227.15
817.561	188.24
817.74	304.98
817.918	245.59
818.097	317.26
818.275	298.83
818.453	325.46
818.632	259.92
818.81	229.2
818.988	259.92
819.167	225.11
819.345	235.35
819.523	165.71
819.701	223.06
819.879	329.55
820.058	227.15
820.236	227.15
820.414	290.64
820.592	214.87
820.77	161.62
820.948	149.33
821.127	116.56
821.305	196.43
821.483	214.87
821.661	309.07
821.839	167.76
822.017	225.11
822.195	169.81
822.373	266.07
822.551	272.21
822.729	235.35
822.907	225.11
823.085	218.96
823.262	210.77
823.44	243.54
823.618	218.96
823.796	221.01
823.974	196.43
824.152	186.19
824.329	190.29
824.507	235.35
824.685	196.43
824.863	239.44
825.04	186.19
825.218	206.67
825.396	194.39
825.574	190.29
825.751	196.43
825.929	268.11
826.107	155.47
826.284	268.11
826.462	235.35
826.639	151.38
826.817	243.54
826.994	186.19
827.172	165.71
827.349	227.15
827.527	188.24
827.704	229.2
827.882	163.67
828.059	251.73
828.237	153.43
828.414	202.58
828.591	175.95
828.769	200.53
828.946	182.1
829.124	229.2
829.301	335.7
829.478	221.01
829.655	165.71
829.833	171.86
830.01	108.37
830.187	274.26
830.364	227.15
830.542	194.39
830.719	204.63
830.896	143.19
831.073	163.67
831.25	161.62
831.427	237.39
831.604	221.01
831.782	155.47
831.959	194.39
832.136	227.15
832.313	165.71
832.49	194.39
832.667	184.15
832.844	151.38
833.021	210.77
833.198	239.44
833.374	178
833.551	137.04
833.728	175.95
833.905	212.82
834.082	51.03
834.259	98.13
834.436	214.87
834.612	198.48
834.789	212.82
834.966	135
835.143	202.58
835.319	91.99
835.496	237.39
835.673	161.62
835.85	229.2
836.026	126.8
836.203	163.67
836.38	67.41
836.556	132.95
836.733	182.1
836.909	132.95
837.086	114.52
837.262	81.75
837.439	186.19
837.616	167.76
837.792	137.04
837.968	112.47
838.145	108.37
838.321	147.28
838.498	180.05
838.674	186.19
838.851	173.91
839.027	114.52
839.203	114.52
839.38	120.66
839.556	161.62
839.732	153.43
839.909	116.56
840.085	163.67
840.261	155.47
840.437	180.05
840.614	143.19
840.79	87.89
840.966	192.34
841.142	137.04
841.318	110.42
841.494	192.34
841.671	212.82
841.847	79.7
842.023	71.51
842.199	167.76
842.375	143.19
842.551	141.14
842.727	65.36
842.903	161.62
843.079	57.17
843.255	169.81
843.431	106.32
843.607	204.63
843.783	94.04
843.959	178
844.134	59.22
844.31	194.39
844.486	81.75
844.662	67.41
844.838	132.95
845.013	89.94
845.189	139.09
845.365	108.37
845.541	98.13
845.716	137.04
845.892	178
846.068	67.41
846.244	104.28
846.419	126.8
846.595	42.84
846.77	128.85
846.946	153.43
847.122	79.7
847.297	26.45
847.473	198.48
847.648	26.45
847.824	87.89
847.999	53.08
848.175	55.12
848.35	135
848.526	135
848.701	91.99
848.876	106.32
849.052	145.24
849.227	91.99
849.403	24.4
849.578	165.71
849.753	104.28
849.929	157.52
850.104	-16.55
850.279	87.89
850.454	149.33
850.63	171.86
850.805	102.23
850.98	48.98
851.155	73.56
851.33	46.93
851.505	89.94
851.681	73.56
851.856	34.64
852.031	155.47
852.206	116.56
852.381	89.94
852.556	71.51
852.731	51.03
852.906	147.28
853.081	130.9
853.256	108.37
853.431	94.04
853.606	-10.41
853.781	112.47
853.956	26.45
854.131	104.28
854.305	-2.22
854.48	77.65
854.655	63.32
854.83	89.94
855.005	63.32
855.18	28.5
855.354	16.21
855.529	55.12
855.704	91.99
855.879	89.94
856.053	57.17
856.228	65.36
856.403	77.65
856.577	22.36
856.752	28.5
856.926	30.55
857.101	59.22
857.276	102.23
857.45	114.52
857.625	75.6
857.799	104.28
857.974	34.64
858.148	53.08
858.323	12.12
858.497	89.94
858.672	26.45
858.846	128.85
859.02	65.36
859.195	87.89
859.369	22.36
859.543	67.41
859.718	40.79
859.892	36.69
860.066	-22.7
860.241	120.66
860.415	112.47
860.589	40.79
860.763	85.84
860.938	46.93
861.112	26.45
861.286	46.93
861.46	128.85
861.634	40.79
861.808	114.52
861.982	85.84
862.157	8.02
862.331	12.12
862.505	57.17
862.679	30.55
862.853	-6.31
863.027	10.07
863.201	77.65
863.375	3.93
863.549	128.85
863.722	53.08
863.896	87.89
864.07	87.89
864.244	1.88
864.418	57.17
864.592	81.75
864.766	26.45
864.939	73.56
865.113	53.08
865.287	108.37
865.461	24.4
865.634	38.74
865.808	67.41
865.982	10.07
866.156	18.26
866.329	55.12
866.503	83.8
866.676	130.9
866.85	149.33
867.024	42.84
867.197	67.41
867.371	81.75
867.544	83.8
867.718	14.17
867.891	124.76
868.065	20.31
868.238	75.6
868.412	65.36
868.585	69.46
868.759	63.32
868.932	69.46
869.105	-24.75
869.279	71.51
869.452	46.93
869.625	-14.51
869.799	53.08
869.972	-18.6
870.145	5.97
870.319	106.32
870.492	5.97
870.665	-14.51
870.838	-18.6
871.011	-63.66
871.185	-20.65
871.358	-16.55
871.531	87.89
871.704	38.74
871.877	44.88
872.05	14.17
872.223	-20.65
872.396	71.51
872.569	48.98
872.742	30.55
872.915	71.51
873.088	22.36
873.261	22.36
873.434	-2.22
873.607	46.93
873.78	120.66
873.953	-4.27
874.126	12.12
874.299	24.4
874.471	48.98
874.644	71.51
874.817	89.94
874.99	96.08
875.163	32.6
875.335	22.36
875.508	22.36
875.681	149.33
875.853	22.36
876.026	96.08
876.199	22.36
876.371	51.03
876.544	40.79
876.717	79.7
876.889	42.84
877.062	-0.17
877.234	1.88
877.407	46.93
877.579	63.32
877.752	20.31
877.924	71.51
878.097	143.19
878.269	57.17
878.442	5.97
878.614	104.28
878.786	135
878.959	79.7
879.131	38.74
879.303	16.21
879.476	-12.46
879.648	110.42
879.82	42.84
879.993	8.02
880.165	-55.47
880.337	-0.17
880.509	-22.7
880.681	-67.75
880.854	79.7
881.026	55.12
881.198	137.04
881.37	22.36
881.542	124.76
881.714	-41.13
881.886	51.03
882.058	63.32
882.23	87.89
882.402	-6.31
882.574	75.6
882.746	83.8
882.918	48.98
883.09	30.55
883.262	-18.6
883.434	-26.79
883.606	5.97
883.778	57.17
883.95	79.7
884.122	53.08
884.293	44.88
884.465	-16.55
884.637	40.79
884.809	77.65
884.98	22.36
885.152	-8.36
885.324	87.89
885.496	20.31
885.667	-10.41
885.839	-18.6
886.011	75.6
886.182	-4.27
886.354	-32.94
886.525	38.74
886.697	26.45
886.869	5.97
887.04	12.12
887.212	77.65
887.383	96.08
887.555	3.93
887.726	5.97
887.897	71.51
888.069	38.74
888.24	79.7
888.412	-20.65
888.583	-24.75
888.754	57.17
888.926	-65.71
889.097	79.7
889.268	12.12
889.44	73.56
889.611	44.88
889.782	42.84
889.953	57.17
890.125	91.99
890.296	10.07
890.467	16.21
890.638	59.22
890.809	28.5
890.98	-45.23
891.151	98.13
891.323	40.79
891.494	137.04
891.665	57.17
891.836	-20.65
892.007	40.79
892.178	-16.55
892.349	61.27
892.52	10.07
892.691	14.17
892.862	8.02
893.032	-49.32
893.203	22.36
893.374	87.89
893.545	32.6
893.716	-16.55
893.887	-24.75
894.057	34.64
894.228	14.17
894.399	-69.8
894.57	83.8
894.74	30.55
894.911	46.93
895.082	16.21
895.253	114.52
895.423	126.8
895.594	55.12
895.764	65.36
895.935	38.74
896.106	32.6
896.276	-4.27
896.447	-6.31
896.617	-0.17
896.788	10.07
896.958	14.17
897.129	114.52
897.299	-12.46
897.47	94.04
897.64	48.98
897.81	1.88
897.981	71.51
898.151	69.46
898.322	120.66
898.492	34.64
898.662	-30.89
898.832	42.84
899.003	-73.9
899.173	83.8
899.343	24.4
899.513	-14.51
