Data from USB4F104151__32__13-04-50-767.txt Node

Date: Fri Mar 14 13:04:50 EDT 2025
User: louis
Spectrometer: USB4F10415
Trigger mode: 4
Integration Time (sec): 4.000000E-2
Scans to average: 1
Electric dark correction enabled: true
Nonlinearity correction enabled: false
Boxcar width: 0
XAxis mode: Wavelengths
Number of Pixels in Spectrum: 3648
>>>>>Begin Spectral Data<<<<<
178.204	-91.82
178.424	-91.82
178.644	-91.82
178.864	-198.31
179.084	-163.5
179.304	-24.23
179.524	45.4
179.744	-24.23
179.964	84.31
180.184	-5.8
180.404	2.39
180.624	26.96
180.844	22.87
181.064	-16.04
181.283	-38.57
181.503	-63.15
181.723	-9.9
181.943	-28.33
182.163	84.31
182.383	-13.99
182.602	67.92
182.822	67.92
183.042	65.88
183.262	76.12
183.482	-36.52
183.701	49.49
183.921	2.39
184.141	-36.52
184.361	16.73
184.58	92.5
184.8	16.73
185.02	57.68
185.239	112.98
185.459	24.92
185.679	108.88
185.898	41.3
186.118	33.11
186.338	-7.85
186.557	92.5
186.777	-16.04
186.997	29.01
187.216	74.07
187.436	162.13
187.655	49.49
187.875	102.74
188.095	45.4
188.314	51.54
188.534	67.92
188.753	18.77
188.973	137.56
189.192	22.87
189.412	24.92
189.631	49.49
189.851	117.08
190.07	37.2
190.29	-3.75
190.509	16.73
190.729	2.39
190.948	106.84
191.168	160.08
191.387	90.45
191.607	33.11
191.826	51.54
192.045	110.93
192.265	16.73
192.484	24.92
192.704	43.35
192.923	43.35
193.142	123.22
193.362	24.92
193.581	94.55
193.8	65.88
194.02	80.21
194.239	67.92
194.458	84.31
194.678	-32.43
194.897	74.07
195.116	51.54
195.335	51.54
195.555	61.78
195.774	-16.04
195.993	72.02
196.212	80.21
196.432	82.26
196.651	16.73
196.87	43.35
197.089	127.32
197.308	108.88
197.528	86.36
197.747	-9.9
197.966	41.3
198.185	166.23
198.404	41.3
198.623	37.2
198.842	65.88
199.062	88.4
199.281	88.4
199.5	8.53
199.719	37.2
199.938	94.55
200.157	92.5
200.376	59.73
200.595	76.12
200.814	47.44
201.033	94.55
201.252	98.64
201.471	53.59
201.69	137.56
201.909	92.5
202.128	78.16
202.347	117.08
202.566	29.01
202.785	29.01
203.004	-7.85
203.223	213.33
203.442	80.21
203.661	53.59
203.879	53.59
204.098	106.84
204.317	51.54
204.536	96.6
204.755	43.35
204.974	55.64
205.193	49.49
205.411	160.08
205.63	90.45
205.849	106.84
206.068	57.68
206.287	67.92
206.505	112.98
206.724	76.12
206.943	20.82
207.162	-13.99
207.381	76.12
207.599	43.35
207.818	49.49
208.037	47.44
208.255	45.4
208.474	41.3
208.693	74.07
208.911	115.03
209.13	98.64
209.349	115.03
209.567	47.44
209.786	151.89
210.005	90.45
210.223	35.16
210.442	-36.52
210.661	14.68
210.879	80.21
211.098	90.45
211.316	41.3
211.535	59.73
211.753	47.44
211.972	94.55
212.191	35.16
212.409	59.73
212.628	55.64
212.846	41.3
213.065	18.77
213.283	174.42
213.502	24.92
213.72	-3.75
213.938	49.49
214.157	33.11
214.375	166.23
214.594	4.44
214.812	47.44
215.031	41.3
215.249	57.68
215.467	96.6
215.686	104.79
215.904	90.45
216.122	29.01
216.341	55.64
216.559	49.49
216.778	76.12
216.996	86.36
217.214	74.07
217.432	35.16
217.651	61.78
217.869	51.54
218.087	69.97
218.306	-57
218.524	39.25
218.742	39.25
218.96	29.01
219.179	16.73
219.397	96.6
219.615	164.18
219.833	117.08
220.051	2.39
220.27	164.18
220.488	137.56
220.706	8.53
220.924	74.07
221.142	94.55
221.36	76.12
221.578	51.54
221.796	37.2
222.015	115.03
222.233	76.12
222.451	137.56
222.669	63.83
222.887	49.49
223.105	43.35
223.323	24.92
223.541	18.77
223.759	108.88
223.977	-13.99
224.195	45.4
224.413	53.59
224.631	82.26
224.849	61.78
225.067	96.6
225.285	26.96
225.503	4.44
225.721	-9.9
225.939	35.16
226.157	92.5
226.375	55.64
226.592	43.35
226.81	-28.33
227.028	67.92
227.246	78.16
227.464	16.73
227.682	16.73
227.9	158.03
228.117	26.96
228.335	-18.09
228.553	20.82
228.771	-13.99
228.989	51.54
229.206	37.2
229.424	8.53
229.642	51.54
229.86	57.68
230.077	33.11
230.295	117.08
230.513	96.6
230.731	76.12
230.948	63.83
231.166	61.78
231.384	-36.52
231.601	80.21
231.819	92.5
232.037	90.45
232.254	22.87
232.472	53.59
232.689	63.83
232.907	49.49
233.125	2.39
233.342	53.59
233.56	-7.85
233.777	-22.19
233.995	59.73
234.213	127.32
234.43	49.49
234.648	8.53
234.865	33.11
235.083	69.97
235.3	69.97
235.518	180.56
235.735	78.16
235.953	24.92
236.17	18.77
236.388	26.96
236.605	39.25
236.822	135.51
237.04	141.65
237.257	74.07
237.475	22.87
237.692	86.36
237.909	10.58
238.127	37.2
238.344	65.88
238.562	78.16
238.779	-16.04
238.996	-65.19
239.214	133.46
239.431	49.49
239.648	127.32
239.865	67.92
240.083	20.82
240.3	72.02
240.517	33.11
240.735	115.03
240.952	82.26
241.169	22.87
241.386	108.88
241.603	26.96
241.821	39.25
242.038	82.26
242.255	88.4
242.472	57.68
242.689	-16.04
242.907	74.07
243.124	86.36
243.341	98.64
243.558	6.49
243.775	0.34
243.992	-5.8
244.209	14.68
244.426	129.36
244.643	155.99
244.86	100.69
245.078	74.07
245.295	80.21
245.512	4.44
245.729	20.82
245.946	108.88
246.163	110.93
246.38	14.68
246.597	137.56
246.814	74.07
247.031	12.63
247.248	8.53
247.464	86.36
247.681	80.21
247.898	49.49
248.115	51.54
248.332	16.73
248.549	151.89
248.766	74.07
248.983	65.88
249.2	102.74
249.417	96.6
249.633	82.26
249.85	67.92
250.067	18.77
250.284	86.36
250.501	80.21
250.717	127.32
250.934	-18.09
251.151	67.92
251.368	76.12
251.585	-26.28
251.801	-16.04
252.018	-48.81
252.235	49.49
252.451	65.88
252.668	76.12
252.885	84.31
253.102	123.22
253.318	45.4
253.535	33.11
253.752	-24.23
253.968	39.25
254.185	37.2
254.401	55.64
254.618	84.31
254.835	-50.86
255.051	172.37
255.268	24.92
255.484	63.83
255.701	100.69
255.917	141.65
256.134	33.11
256.351	10.58
256.567	55.64
256.784	10.58
257	-24.23
257.217	112.98
257.433	47.44
257.65	84.31
257.866	84.31
258.082	49.49
258.299	8.53
258.515	22.87
258.732	55.64
258.948	98.64
259.165	65.88
259.381	-36.52
259.597	117.08
259.814	14.68
260.03	33.11
260.246	59.73
260.463	100.69
260.679	6.49
260.895	55.64
261.112	94.55
261.328	4.44
261.544	37.2
261.761	131.41
261.977	-46.76
262.193	29.01
262.409	51.54
262.626	139.6
262.842	86.36
263.058	108.88
263.274	125.27
263.49	39.25
263.707	61.78
263.923	51.54
264.139	-11.95
264.355	53.59
264.571	147.8
264.787	39.25
265.004	80.21
265.22	6.49
265.436	18.77
265.652	20.82
265.868	35.16
266.084	29.01
266.3	61.78
266.516	20.82
266.732	119.12
266.948	45.4
267.164	45.4
267.38	110.93
267.596	57.68
267.812	92.5
268.028	76.12
268.244	31.06
268.46	-22.19
268.676	-7.85
268.892	76.12
269.108	-71.34
269.324	4.44
269.54	6.49
269.756	65.88
269.972	37.2
270.188	0.34
270.403	18.77
270.619	4.44
270.835	108.88
271.051	18.77
271.267	115.03
271.483	16.73
271.698	69.97
271.914	92.5
272.13	96.6
272.346	33.11
272.562	-13.99
272.777	94.55
272.993	12.63
273.209	0.34
273.425	106.84
273.64	0.34
273.856	110.93
274.072	8.53
274.287	35.16
274.503	88.4
274.719	106.84
274.934	18.77
275.15	29.01
275.366	123.22
275.581	-30.38
275.797	67.92
276.012	33.11
276.228	18.77
276.444	49.49
276.659	51.54
276.875	16.73
277.09	47.44
277.306	33.11
277.521	43.35
277.737	-7.85
277.952	135.51
278.168	92.5
278.383	143.7
278.599	26.96
278.814	63.83
279.03	37.2
279.245	139.6
279.461	92.5
279.676	6.49
279.892	-7.85
280.107	2.39
280.322	69.97
280.538	168.27
280.753	63.83
280.969	88.4
281.184	0.34
281.399	69.97
281.615	74.07
281.83	76.12
282.045	67.92
282.26	-13.99
282.476	90.45
282.691	78.16
282.906	35.16
283.122	24.92
283.337	33.11
283.552	100.69
283.767	10.58
283.983	72.02
284.198	53.59
284.413	96.6
284.628	6.49
284.843	82.26
285.058	90.45
285.274	108.88
285.489	51.54
285.704	55.64
285.919	-9.9
286.134	76.12
286.349	69.97
286.564	51.54
286.779	96.6
286.995	94.55
287.21	-26.28
287.425	53.59
287.64	35.16
287.855	55.64
288.07	12.63
288.285	78.16
288.5	26.96
288.715	117.08
288.93	37.2
289.145	-13.99
289.36	158.03
289.575	69.97
289.79	20.82
290.004	80.21
290.219	26.96
290.434	102.74
290.649	18.77
290.864	72.02
291.079	86.36
291.294	176.47
291.509	88.4
291.724	29.01
291.938	174.42
292.153	55.64
292.368	-20.14
292.583	43.35
292.798	131.41
293.012	100.69
293.227	110.93
293.442	37.2
293.657	80.21
293.871	61.78
294.086	57.68
294.301	61.78
294.516	90.45
294.73	108.88
294.945	-18.09
295.16	24.92
295.374	80.21
295.589	35.16
295.804	-32.43
296.018	49.49
296.233	33.11
296.447	39.25
296.662	24.92
296.877	78.16
297.091	41.3
297.306	96.6
297.52	78.16
297.735	31.06
297.949	90.45
298.164	88.4
298.378	121.17
298.593	-9.9
298.807	69.97
299.022	123.22
299.236	180.56
299.451	94.55
299.665	63.83
299.88	12.63
300.094	41.3
300.309	76.12
300.523	74.07
300.737	69.97
300.952	115.03
301.166	16.73
301.381	-13.99
301.595	33.11
301.809	92.5
302.024	8.53
302.238	51.54
302.452	123.22
302.667	2.39
302.881	141.65
303.095	119.12
303.309	98.64
303.524	22.87
303.738	16.73
303.952	26.96
304.166	35.16
304.381	-28.33
304.595	112.98
304.809	24.92
305.023	129.36
305.237	12.63
305.452	-59.05
305.666	72.02
305.88	121.17
306.094	110.93
306.308	106.84
306.522	110.93
306.736	88.4
306.95	6.49
307.164	141.65
307.379	102.74
307.593	82.26
307.807	123.22
308.021	65.88
308.235	106.84
308.449	-59.05
308.663	2.39
308.877	217.43
309.091	61.78
309.305	90.45
309.519	33.11
309.733	127.32
309.947	16.73
310.161	180.56
310.374	215.38
310.588	57.68
310.802	-18.09
311.016	-22.19
311.23	55.64
311.444	82.26
311.658	61.78
311.872	51.54
312.085	166.23
312.299	127.32
312.513	94.55
312.727	121.17
312.941	-30.38
313.154	98.64
313.368	51.54
313.582	41.3
313.796	78.16
314.009	76.12
314.223	82.26
314.437	41.3
314.651	53.59
314.864	65.88
315.078	59.73
315.292	110.93
315.505	78.16
315.719	69.97
315.933	123.22
316.146	90.45
316.36	-44.71
316.573	143.7
316.787	98.64
317.001	145.75
317.214	33.11
317.428	106.84
317.641	59.73
317.855	26.96
318.068	63.83
318.282	76.12
318.495	149.84
318.709	76.12
318.922	51.54
319.136	121.17
319.349	100.69
319.563	117.08
319.776	16.73
319.99	10.58
320.203	45.4
320.417	53.59
320.63	139.6
320.843	151.89
321.057	78.16
321.27	55.64
321.483	33.11
321.697	106.84
321.91	45.4
322.124	49.49
322.337	145.75
322.55	26.96
322.763	76.12
322.977	37.2
323.19	39.25
323.403	10.58
323.617	61.78
323.83	82.26
324.043	139.6
324.256	131.41
324.469	2.39
324.683	110.93
324.896	65.88
325.109	90.45
325.322	82.26
325.535	84.31
325.748	98.64
325.962	104.79
326.175	35.16
326.388	84.31
326.601	115.03
326.814	94.55
327.027	110.93
327.24	123.22
327.453	90.45
327.666	98.64
327.879	86.36
328.092	123.22
328.305	98.64
328.518	43.35
328.731	35.16
328.944	137.56
329.157	84.31
329.37	49.49
329.583	112.98
329.796	49.49
330.009	41.3
330.222	94.55
330.435	16.73
330.648	43.35
330.861	61.78
331.073	26.96
331.286	115.03
331.499	35.16
331.712	35.16
331.925	86.36
332.138	106.84
332.35	61.78
332.563	33.11
332.776	131.41
332.989	41.3
333.202	47.44
333.414	98.64
333.627	72.02
333.84	98.64
334.053	31.06
334.265	16.73
334.478	76.12
334.691	96.6
334.903	41.3
335.116	-22.19
335.329	-50.86
335.541	63.83
335.754	98.64
335.966	61.78
336.179	47.44
336.392	6.49
336.604	24.92
336.817	117.08
337.029	121.17
337.242	37.2
337.454	121.17
337.667	29.01
337.88	53.59
338.092	67.92
338.305	67.92
338.517	2.39
338.729	-9.9
338.942	123.22
339.154	41.3
339.367	98.64
339.579	92.5
339.792	49.49
340.004	110.93
340.217	166.23
340.429	45.4
340.641	96.6
340.854	20.82
341.066	65.88
341.278	104.79
341.491	143.7
341.703	67.92
341.915	-7.85
342.128	104.79
342.34	49.49
342.552	57.68
342.764	51.54
342.977	59.73
343.189	149.84
343.401	80.21
343.613	47.44
343.826	108.88
344.038	57.68
344.25	49.49
344.462	49.49
344.674	82.26
344.886	57.68
345.099	168.27
345.311	86.36
345.523	26.96
345.735	-34.47
345.947	74.07
346.159	98.64
346.371	8.53
346.583	-18.09
346.795	74.07
347.007	65.88
347.219	123.22
347.431	80.21
347.643	119.12
347.855	-7.85
348.067	133.46
348.279	-52.91
348.491	22.87
348.703	125.27
348.915	41.3
349.127	20.82
349.339	53.59
349.551	121.17
349.763	100.69
349.975	51.54
350.187	51.54
350.399	129.36
350.61	82.26
350.822	24.92
351.034	106.84
351.246	61.78
351.458	0.34
351.669	80.21
351.881	125.27
352.093	121.17
352.305	49.49
352.517	-3.75
352.728	147.8
352.94	149.84
353.152	92.5
353.363	33.11
353.575	129.36
353.787	168.27
353.999	139.6
354.21	108.88
354.422	-22.19
354.633	55.64
354.845	110.93
355.057	57.68
355.268	55.64
355.48	84.31
355.692	29.01
355.903	98.64
356.115	65.88
356.326	-11.95
356.538	188.75
356.749	82.26
356.961	74.07
357.172	67.92
357.384	18.77
357.595	178.51
357.807	57.68
358.018	59.73
358.23	45.4
358.441	119.12
358.653	33.11
358.864	100.69
359.075	84.31
359.287	37.2
359.498	67.92
359.709	33.11
359.921	6.49
360.132	80.21
360.344	20.82
360.555	47.44
360.766	51.54
360.977	53.59
361.189	49.49
361.4	108.88
361.611	82.26
361.823	174.42
362.034	41.3
362.245	45.4
362.456	84.31
362.667	29.01
362.879	14.68
363.09	123.22
363.301	29.01
363.512	100.69
363.723	84.31
363.935	-3.75
364.146	82.26
364.357	57.68
364.568	59.73
364.779	41.3
364.99	166.23
365.201	57.68
365.412	149.84
365.623	10.58
365.834	65.88
366.045	106.84
366.256	74.07
366.467	121.17
366.678	115.03
366.889	82.26
367.1	84.31
367.311	108.88
367.522	59.73
367.733	131.41
367.944	94.55
368.155	35.16
368.366	69.97
368.577	166.23
368.788	92.5
368.999	49.49
369.209	100.69
369.42	110.93
369.631	123.22
369.842	37.2
370.053	41.3
370.264	131.41
370.474	2.39
370.685	96.6
370.896	33.11
371.107	158.03
371.317	67.92
371.528	41.3
371.739	0.34
371.95	129.36
372.16	98.64
372.371	2.39
372.582	108.88
372.792	178.51
373.003	57.68
373.214	76.12
373.424	90.45
373.635	49.49
373.846	166.23
374.056	106.84
374.267	129.36
374.477	117.08
374.688	55.64
374.898	74.07
375.109	84.31
375.319	94.55
375.53	170.32
375.74	49.49
375.951	182.61
376.161	69.97
376.372	135.51
376.582	47.44
376.793	135.51
377.003	-7.85
377.214	86.36
377.424	35.16
377.635	88.4
377.845	96.6
378.055	186.71
378.266	47.44
378.476	84.31
378.686	39.25
378.897	51.54
379.107	129.36
379.317	115.03
379.528	59.73
379.738	141.65
379.948	20.82
380.158	117.08
380.369	69.97
380.579	164.18
380.789	12.63
380.999	102.74
381.21	84.31
381.42	180.56
381.63	6.49
381.84	98.64
382.05	98.64
382.261	135.51
382.471	158.03
382.681	57.68
382.891	86.36
383.101	22.87
383.311	82.26
383.521	90.45
383.731	131.41
383.941	74.07
384.151	119.12
384.361	78.16
384.571	98.64
384.781	33.11
384.991	176.47
385.201	166.23
385.411	131.41
385.621	158.03
385.831	143.7
386.041	86.36
386.251	112.98
386.461	112.98
386.671	115.03
386.881	110.93
387.091	12.63
387.301	127.32
387.511	74.07
387.72	119.12
387.93	207.19
388.14	127.32
388.35	123.22
388.56	176.47
388.769	82.26
388.979	35.16
389.189	-26.28
389.399	92.5
389.609	135.51
389.818	188.75
390.028	164.18
390.238	53.59
390.447	78.16
390.657	151.89
390.867	115.03
391.076	45.4
391.286	100.69
391.496	84.31
391.705	67.92
391.915	166.23
392.125	117.08
392.334	149.84
392.544	135.51
392.753	61.78
392.963	92.5
393.172	158.03
393.382	57.68
393.591	178.51
393.801	63.83
394.01	211.28
394.22	139.6
394.429	209.23
394.639	176.47
394.848	119.12
395.058	94.55
395.267	178.51
395.477	125.27
395.686	139.6
395.895	174.42
396.105	201.04
396.314	166.23
396.524	112.98
396.733	108.88
396.942	192.85
397.152	133.46
397.361	135.51
397.57	131.41
397.78	168.27
397.989	100.69
398.198	127.32
398.407	100.69
398.617	106.84
398.826	170.32
399.035	147.8
399.244	231.76
399.453	176.47
399.663	125.27
399.872	196.95
400.081	88.4
400.29	174.42
400.499	49.49
400.708	172.37
400.917	190.8
401.127	213.33
401.336	160.08
401.545	239.95
401.754	237.91
401.963	205.14
402.172	129.36
402.381	137.56
402.59	174.42
402.799	141.65
403.008	172.37
403.217	108.88
403.426	223.57
403.635	49.49
403.844	209.23
404.053	188.75
404.262	137.56
404.471	225.62
404.68	162.13
404.888	145.75
405.097	176.47
405.306	248.15
405.515	229.71
405.724	172.37
405.933	299.34
406.142	250.19
406.35	262.48
406.559	252.24
406.768	262.48
406.977	307.54
407.185	264.53
407.394	235.86
407.603	282.96
407.812	270.67
408.02	336.21
408.229	239.95
408.438	272.72
408.646	285.01
408.855	336.21
409.064	282.96
409.272	278.87
409.481	321.87
409.69	383.31
409.898	368.98
410.107	307.54
410.315	401.74
410.524	438.61
410.733	389.46
410.941	436.56
411.15	532.81
411.358	483.66
411.567	541.01
411.775	493.9
411.984	495.95
412.192	559.44
412.401	426.32
412.609	616.78
412.818	676.17
413.026	696.65
413.234	633.16
413.443	692.55
413.651	706.89
413.86	698.7
414.068	692.55
414.276	805.19
414.485	758.09
414.693	840.01
414.901	887.11
415.11	876.87
415.318	825.67
415.526	893.26
415.734	960.84
415.943	1012.04
416.151	1091.91
416.359	979.27
416.567	979.27
416.776	1012.04
416.984	1179.97
417.192	1257.79
417.4	1206.59
417.608	1184.07
417.817	1225.03
418.025	1440.06
418.233	1419.58
418.441	1313.09
418.649	1470.78
418.857	1542.46
419.065	1648.96
419.273	1608
419.481	1603.9
419.689	1618.24
419.897	1880.38
420.105	1853.75
420.313	1950.01
420.521	1970.49
420.729	1958.2
420.937	2017.59
421.145	2255.15
421.353	2283.83
421.561	2310.45
421.769	2539.82
421.977	2572.59
422.185	2402.61
422.393	2599.21
422.601	2724.14
422.809	2763.05
423.017	2746.67
423.224	2916.65
423.432	3166.5
423.64	3037.48
423.848	3318.05
424.056	3373.35
424.263	3352.87
424.471	3383.59
424.679	3612.96
424.887	3662.11
425.094	3838.23
425.302	3948.83
425.51	4047.13
425.718	4170.01
425.925	4256.02
426.133	4307.22
426.341	4632.85
426.548	4950.28
426.756	4759.82
426.964	4913.42
427.171	5155.08
427.379	5222.66
427.586	5431.55
427.794	5501.19
428.001	5777.66
428.209	6021.37
428.417	5937.4
428.624	6365.43
428.832	6263.03
429.039	6490.35
429.247	6303.99
429.454	6990.06
429.662	7428.32
429.869	7082.22
430.076	7377.12
430.284	7254.25
430.491	7520.48
430.699	7999.71
430.906	8024.28
431.114	8007.9
431.321	8288.47
431.528	8521.94
431.736	9236.68
431.943	9525.44
432.15	9162.95
432.358	9343.17
432.565	9971.9
432.772	9797.82
432.979	10424.5
433.187	10365.11
433.394	10547.38
433.601	11249.83
433.808	11376.81
434.016	11190.44
434.223	11577.51
434.43	12509.33
434.637	12206.24
434.844	12867.73
435.052	13074.57
435.259	13095.05
435.466	13361.29
435.673	13277.32
435.88	13783.17
436.087	14753.91
436.294	14749.81
436.501	14252.16
436.708	14387.32
436.915	15243.37
437.122	15683.69
437.329	15876.2
437.537	16277.6
437.743	16369.76
437.95	16318.56
438.157	17205.33
438.364	17883.2
438.571	17838.15
438.778	17956.93
438.985	19705.9
439.192	19025.97
439.399	19558.44
439.606	19085.36
439.813	20344.86
440.02	21272.59
440.227	20828.18
440.433	20682.78
440.64	21401.61
440.847	21151.76
441.054	21782.54
441.261	23158.77
441.467	22816.76
441.674	23289.84
441.881	24154.08
442.088	24156.13
442.294	24102.89
442.501	24700.89
442.708	25198.55
442.914	26171.33
443.121	27475.89
443.328	26716.09
443.534	28549.03
443.741	27320.24
443.948	27260.85
444.154	29142.94
444.361	29466.52
444.568	29185.94
444.774	29235.1
444.981	29298.58
445.187	30410.63
445.394	31727.47
445.6	31434.61
445.807	34488.14
446.013	32898.91
446.22	33466.2
446.426	34455.37
446.633	34920.26
446.839	36482.86
447.046	34803.52
447.252	36874.02
447.459	37037.86
447.665	36699.94
447.871	38123.28
448.078	40134.38
448.284	38037.26
448.491	39194.37
448.697	40337.13
448.903	41234.14
449.11	41205.47
449.316	40838.89
449.522	41459.42
449.728	42473.17
449.935	43060.93
450.141	42897.09
450.347	43695.8
450.553	42716.87
450.76	43359.94
450.966	44433.07
451.172	44076.72
451.378	45239.97
451.584	43861.69
451.791	45690.52
451.997	45440.67
452.203	45971.1
452.409	46302.87
452.615	45758.11
452.821	44064.44
453.027	43454.14
453.233	45717.15
453.44	44420.78
453.646	44768.94
453.852	45168.29
454.058	45442.72
454.264	44582.57
454.47	45676.19
454.676	44060.34
454.882	45270.69
455.088	41653.98
455.294	42235.6
455.5	43155.14
455.705	43562.68
455.911	41608.92
456.117	41144.03
456.323	40558.31
456.529	38399.76
456.735	40054.51
456.941	39190.27
457.147	38459.15
457.352	37213.98
457.558	36855.59
457.764	36896.55
457.97	36325.16
458.176	35411.77
458.381	35475.26
458.587	33824.59
458.793	33816.4
458.999	32040.81
459.204	34479.94
459.41	33251.16
459.616	31072.12
459.821	31389.56
460.027	31233.91
460.233	30484.36
460.438	29224.86
460.644	29069.21
460.85	28014.51
461.055	27240.37
461.261	27520.95
461.466	25280.47
461.672	24592.35
461.878	26488.77
462.083	24756.19
462.289	24182.76
462.494	23904.23
462.7	22900.73
462.905	22128.64
463.111	23009.27
463.316	23277.55
463.522	22339.58
463.727	22591.48
463.932	22611.96
464.138	22358.02
464.343	22487.04
464.549	21749.77
464.754	22319.1
464.959	22145.03
465.165	22106.12
465.37	21350.42
465.575	20637.72
465.781	21657.61
465.986	21598.22
466.191	20619.29
466.397	20320.29
466.602	19607.59
466.807	20240.42
467.012	20226.08
467.218	19939.37
467.423	19857.45
467.628	19933.22
467.833	20852.76
468.038	19943.46
468.244	19380.27
468.449	20209.7
468.654	19808.3
468.859	19329.07
469.064	19218.48
469.269	18724.92
469.474	18755.64
469.679	19064.88
469.885	18374.72
470.09	18942
470.295	18473.02
470.5	18321.47
470.705	18542.65
470.91	17676.36
471.115	17891.4
471.32	17975.36
471.525	18001.99
471.73	17596.49
471.935	17446.99
472.139	16629.85
472.344	16947.28
472.549	16797.78
472.754	16650.33
472.959	16265.31
473.164	16005.22
473.369	15751.27
473.574	16230.49
473.778	16304.22
473.983	16015.46
474.188	15929.44
474.393	15556.71
474.598	15525.99
474.802	15280.24
475.007	15095.92
475.212	15386.73
475.417	14841.97
475.621	14702.71
475.826	14725.24
476.031	14401.66
476.235	14110.85
476.44	14508.15
476.645	14000.26
476.849	13842.56
477.054	13959.3
477.259	13451.4
477.463	13742.21
477.668	13183.12
477.872	13512.84
478.077	13365.39
478.282	12892.3
478.486	13009.04
478.691	12910.74
478.895	12736.66
479.1	12722.32
479.304	12697.75
479.509	12208.28
479.713	12341.4
479.918	12064.93
480.122	12126.36
480.326	12306.59
480.531	12277.91
480.735	11931.81
480.94	11923.62
481.144	12136.6
481.348	11675.81
481.553	11698.34
481.757	11665.57
481.961	11856.03
482.166	11878.56
482.37	11917.47
482.574	11634.85
482.778	11655.33
482.983	11866.27
483.187	11665.57
483.391	11886.75
483.595	11468.97
483.8	11573.41
484.004	11677.86
484.208	11638.95
484.412	11481.25
484.616	11520.17
484.821	11495.59
485.025	11321.51
485.229	11659.43
485.433	11524.26
485.637	11518.12
485.841	11507.88
486.045	11499.69
486.249	11677.86
486.453	11544.74
486.657	11507.88
486.861	11743.39
487.065	11448.49
487.269	11659.43
487.473	11468.97
487.677	11497.64
487.881	11593.89
488.085	11776.16
488.289	11690.15
488.493	11663.52
488.697	11714.72
488.901	11765.92
489.105	11767.97
489.309	11573.41
489.512	11882.66
489.716	11937.95
489.92	11784.35
490.124	11677.86
490.328	12052.64
490.531	11798.69
490.735	12093.6
490.939	11958.43
491.143	12073.12
491.346	11989.15
491.55	12177.56
491.754	12028.06
491.958	12288.15
492.161	12189.85
492.365	12134.56
492.569	12325.02
492.772	12408.98
492.976	12282.01
493.18	12402.84
493.383	12755.09
493.587	12853.39
493.79	12609.68
493.994	12558.49
494.197	12585.11
494.401	12974.22
494.605	13043.85
494.808	13041.81
495.012	13162.64
495.215	13125.77
495.419	13447.3
495.622	13074.57
495.825	13500.55
496.029	13412.49
496.232	13875.33
496.436	13758.6
496.639	14200.96
496.843	13852.8
497.046	14205.05
497.249	14182.52
497.453	14440.57
497.656	14420.09
497.859	14596.21
498.063	14817.4
498.266	15210.61
498.469	15063.15
498.673	15267.95
498.876	15222.89
499.079	15583.34
499.282	15403.11
499.485	15919.2
499.689	15820.9
499.892	16316.51
500.095	16072.8
500.298	16879.7
500.501	16812.12
500.705	16973.91
500.908	17035.35
501.111	17053.78
501.314	17371.21
501.517	17576.01
501.72	17766.47
501.923	17668.17
502.126	18178.11
502.329	18423.87
502.532	18624.57
502.735	18554.94
502.938	19114.03
503.141	19173.42
503.344	19480.62
503.547	19443.76
503.75	19474.48
503.953	19859.49
504.156	20246.56
504.359	20496.41
504.562	20492.32
504.765	20916.25
504.968	21264.4
505.17	21473.29
505.373	21393.42
505.576	21739.53
505.779	21934.09
505.982	22065.16
506.185	22337.54
506.387	22601.72
506.59	22865.91
506.793	23191.54
506.996	23115.76
507.198	23867.37
507.401	23607.28
507.604	23908.33
507.807	24336.35
508.009	24637.41
508.212	24553.44
508.415	25143.25
508.617	25223.12
508.82	25499.6
509.022	25313.24
509.225	25864.14
509.428	26052.55
509.63	26550.21
509.833	26474.43
510.035	27320.24
510.238	27162.55
510.44	27518.9
510.643	27781.04
510.845	27670.45
511.048	27756.46
511.25	28227.49
511.453	28172.2
511.655	29722.51
511.858	29001.63
512.06	29341.59
512.262	29775.76
512.465	29806.48
512.667	30142.35
512.87	30568.32
513.072	30439.3
513.274	31336.31
513.477	31008.64
513.679	31887.21
513.881	32188.27
514.084	32276.33
514.286	32397.16
514.488	32790.37
514.69	33382.23
514.893	33324.89
515.095	33523.54
515.297	33773.39
515.499	34051.92
515.701	34424.65
515.904	35018.56
516.106	35147.58
516.308	35268.41
516.51	35866.42
516.712	35800.88
516.914	35635
517.116	36704.04
517.318	36716.33
517.52	37213.98
517.722	37015.33
517.925	37576.47
518.127	38219.53
518.329	38553.35
518.531	37967.63
518.733	38719.24
518.935	38899.46
519.136	39317.25
519.338	39487.23
519.54	39980.79
519.742	40322.8
519.944	39862.01
520.146	41375.45
520.348	41041.64
520.55	41516.76
520.752	41334.49
520.954	42356.43
521.155	41844.44
521.357	42774.22
521.559	42766.02
521.761	43663.04
521.963	43271.87
522.164	43632.32
522.366	43634.36
522.568	44117.68
522.77	44474.03
522.971	45473.44
523.173	44326.58
523.375	45256.35
523.576	45321.89
523.778	45229.73
523.98	45704.86
524.181	46114.45
524.383	46333.59
524.584	46771.85
524.786	46753.42
524.988	46298.77
525.189	47730.3
525.391	47363.71
525.592	47959.67
525.794	48060.02
525.995	48068.22
526.197	48254.58
526.398	48070.26
526.6	48529.01
526.801	48766.57
527.003	49114.73
527.204	48871.02
527.406	49530.47
527.607	49065.58
527.808	49862.24
528.01	48995.95
528.211	49688.16
528.412	50218.58
528.614	50302.55
528.815	50570.83
529.016	50931.28
529.218	50570.83
529.419	50605.65
529.62	50738.77
529.822	50796.11
530.023	50880.08
530.224	50941.52
530.425	51164.74
530.626	50507.35
530.828	50349.65
531.029	51506.76
531.23	50787.92
531.431	51387.97
531.632	51209.8
531.833	51377.73
532.035	51633.73
532.236	51568.19
532.437	52096.57
532.638	51803.71
532.839	52022.84
533.04	52223.54
533.241	51627.59
533.442	52358.71
533.643	52098.62
533.844	52112.95
534.045	52117.05
534.246	51836.48
534.447	52190.78
534.648	52303.42
534.849	52221.5
535.05	51865.15
535.251	52282.94
535.451	52000.32
535.652	52346.42
535.853	52534.84
536.054	52440.63
536.255	52586.03
536.456	52409.91
536.657	52680.24
536.857	52442.68
537.058	51920.45
537.259	52463.16
537.46	52557.36
537.66	52076.09
537.861	52573.75
538.062	52244.02
538.263	52901.42
538.463	51910.21
538.664	52442.68
538.865	52375.09
539.065	52336.18
539.266	52031.04
539.466	52747.82
539.667	51691.07
539.868	52528.69
540.068	52321.85
540.269	52577.84
540.469	52307.51
540.67	52071.99
540.87	52153.91
541.071	51824.19
541.271	52538.93
541.472	51777.09
541.672	52282.94
541.873	51994.17
542.073	51648.07
542.274	52381.24
542.474	52037.18
542.675	51617.35
542.875	52596.27
543.075	52155.96
543.276	50982.48
543.476	52383.29
543.676	51961.4
543.877	52063.8
544.077	51797.57
544.277	52235.83
544.478	52039.23
544.678	52012.6
544.878	51584.58
545.078	51711.55
545.279	51594.82
545.479	51721.79
545.679	51564.1
545.879	52039.23
546.079	51703.36
546.28	51635.78
546.48	51338.82
546.68	51934.78
546.88	51697.22
547.08	51686.98
547.28	51643.97
547.48	51097.16
547.68	51977.79
547.88	51359.3
548.081	51742.27
548.281	51686.98
548.481	51471.94
548.681	51908.16
548.881	51476.04
549.081	51420.74
549.28	51158.6
549.48	51807.81
549.68	51310.15
549.88	52391.48
550.08	51232.33
550.28	51246.66
550.48	51301.96
550.68	51572.29
550.88	51371.59
551.08	51480.13
551.279	51535.43
551.479	50875.98
551.679	51564.1
551.879	51146.31
552.079	51793.47
552.278	50882.12
552.478	50966.09
552.678	51476.04
552.878	51414.6
553.077	50878.03
553.277	51213.9
553.477	51658.31
553.676	50873.93
553.876	51207.75
554.076	50957.9
554.275	50765.39
554.475	50452.05
554.674	50568.79
554.874	51211.85
555.074	50466.39
555.273	50968.14
555.473	50828.88
555.672	50665.04
555.872	50718.29
556.071	50673.23
556.271	50730.58
556.47	50163.29
556.67	50263.64
556.869	50323.03
557.068	50636.37
557.268	50107.99
557.467	49931.87
557.667	50327.13
557.866	50468.44
558.065	49868.38
558.265	49561.19
558.464	49796.7
558.663	50218.58
558.863	49669.73
559.062	50161.24
559.261	49213.03
559.461	49903.2
559.66	49061.48
559.859	49319.52
560.058	49114.73
560.258	49471.07
560.457	48887.4
560.656	49727.07
560.855	48795.24
561.054	49440.35
561.253	49088.1
561.453	49206.89
561.652	49178.21
561.851	49008.23
562.05	48655.98
562.249	48453.23
562.448	48946.79
562.647	48436.85
562.846	48350.84
563.045	48467.57
563.244	48338.55
563.443	48600.69
563.642	47414.91
563.841	48037.5
564.04	48078.46
564.239	48449.14
564.438	47337.09
564.637	47785.6
564.836	47636.09
565.035	47292.04
565.234	47500.93
565.432	47193.73
565.631	47572.61
565.83	46939.79
566.029	46929.55
566.228	47105.67
566.427	46915.21
566.625	46618.25
566.824	46272.15
567.023	47150.73
567.222	45870.75
567.42	47054.47
567.619	46321.3
567.818	46435.98
568.016	46599.82
568.215	46704.27
568.414	45768.35
568.612	46188.18
568.811	45762.2
569.01	45655.71
569.208	45493.92
569.407	45686.43
569.605	45332.13
569.804	45467.3
570.002	44930.73
570.201	45340.32
570.4	44699.31
570.598	44529.33
570.797	44664.49
570.995	44906.15
571.193	44232.37
571.392	44777.13
571.59	43818.68
571.789	44314.29
571.987	44250.8
572.186	43830.97
572.384	43816.63
572.582	43744.95
572.781	43929.27
572.979	42927.81
573.177	43542.2
573.376	43865.78
573.574	43065.03
573.772	43282.11
573.971	43126.47
574.169	43036.36
574.367	42899.14
574.565	43114.18
574.763	42866.38
574.962	42297.04
575.16	41965.27
575.358	42944.2
575.556	42073.81
575.754	42534.6
575.952	41791.19
576.151	42321.62
576.349	41572.06
576.547	41742.04
576.745	41516.76
576.943	41780.95
577.141	41117.41
577.339	41354.97
577.537	41350.88
577.735	41467.61
577.933	41103.07
578.131	41017.06
578.329	41103.07
578.527	40926.95
578.725	40724.2
578.923	41000.68
579.121	40390.38
579.319	40578.79
579.516	40664.81
579.714	40478.44
579.912	40146.67
580.11	40230.64
580.308	40181.49
580.506	39909.11
580.704	39651.06
580.901	39644.92
581.099	40107.76
581.297	39327.49
581.495	39583.48
581.692	39235.33
581.89	39220.99
582.088	38999.81
582.285	39114.5
582.483	39284.48
582.681	39153.41
582.878	38526.73
583.076	38504.2
583.274	38964.99
583.471	38049.55
583.669	38516.49
583.866	38215.44
584.064	38125.33
584.262	37578.52
584.459	38330.12
584.657	37705.49
584.854	37814.04
585.052	37134.11
585.249	37969.68
585.447	37883.67
585.644	37211.93
585.841	37529.37
586.039	37846.8
586.236	36951.84
586.434	36792.1
586.631	36794.15
586.828	36767.52
587.026	36658.98
587.223	36802.34
587.42	36675.37
587.618	36409.13
587.815	36480.81
588.012	35905.33
588.21	35819.31
588.407	36243.24
588.604	35569.46
588.801	35882.8
588.999	35782.45
589.196	35604.28
589.393	35747.64
589.59	35276.6
589.787	34836.29
589.984	35366.71
590.182	35159.87
590.379	35223.36
590.576	35026.75
590.773	34780.99
590.97	34817.86
591.167	34672.45
591.364	34414.41
591.561	34525
591.758	34379.59
591.955	34328.39
592.152	34545.48
592.349	33761.11
592.546	33716.05
592.743	33867.6
592.94	33574.74
593.137	33593.17
593.334	33732.43
593.531	33292.12
593.727	33580.88
593.924	33214.3
594.121	33044.32
594.318	33597.27
594.515	32753.51
594.712	33382.23
594.908	32802.66
595.105	32958.3
595.302	32520.04
595.499	32761.7
595.696	32477.03
595.892	32083.82
596.089	32477.03
596.286	32096.11
596.482	32280.42
596.679	31895.41
596.876	31981.42
597.072	32079.72
597.269	31960.94
597.466	31354.74
597.662	31790.96
597.859	31774.58
598.055	31246.2
598.252	31180.67
598.448	31221.62
598.645	31147.9
598.841	30723.97
599.038	30830.46
599.234	31018.88
599.431	30648.19
599.627	30345.09
599.824	31115.13
600.02	30359.43
600.217	30431.11
600.413	30384.01
600.609	30109.58
600.806	29810.57
601.002	30648.19
601.198	29839.25
601.395	29628.31
601.591	29626.26
601.787	29540.24
601.984	29286.29
602.18	29605.78
602.376	29695.89
602.572	29245.34
602.769	29648.78
602.965	29216.66
603.161	29370.26
603.357	28997.53
603.553	28891.04
603.75	28975
603.946	28495.78
604.142	28958.62
604.338	28399.52
604.534	28479.39
604.73	28647.33
604.926	28008.36
605.122	28303.27
605.318	28245.93
605.514	28057.51
605.71	27795.37
605.906	27629.49
606.102	27858.86
606.298	27918.25
606.494	27549.62
606.69	27824.04
606.886	27889.58
607.082	27164.6
607.278	27537.33
607.474	26785.72
607.67	27537.33
607.866	27119.54
608.062	27359.16
608.257	26795.96
608.453	27254.71
608.649	27121.59
608.845	26910.65
609.041	26924.99
609.236	26732.48
609.432	26656.7
609.628	26615.74
609.824	26730.43
610.019	26212.29
610.215	26503.1
610.411	26703.81
610.606	26537.92
610.802	26574.78
610.998	26200.01
611.193	26374.08
611.389	26038.22
611.584	26169.29
611.78	26099.66
611.976	25817.04
612.171	26210.25
612.367	26070.98
612.562	25741.26
612.758	25346
612.953	25690.06
613.149	26216.39
613.344	25450.45
613.539	26230.73
613.735	25591.76
613.93	25503.7
614.126	25403.35
614.321	25774.03
614.517	25505.74
614.712	25628.62
614.907	24815.58
615.103	25360.34
615.298	25141.21
615.493	25358.29
615.688	24758.24
615.884	25618.38
616.079	24692.7
616.274	25042.9
616.47	24827.87
616.665	25067.48
616.86	24664.03
617.055	24580.06
617.25	24608.73
617.445	24868.83
617.641	24225.76
617.836	24836.06
618.031	24276.96
618.226	24600.54
618.421	24457.18
618.616	24600.54
618.811	24080.36
619.006	24295.39
619.201	23724.01
619.396	24088.55
619.591	23468.02
619.786	23752.68
619.981	23404.53
620.176	23394.29
620.371	23302.13
620.566	23433.2
620.761	23379.95
620.956	23308.27
621.151	23160.82
621.346	23224.31
621.541	22628.35
621.735	23003.13
621.93	22482.94
622.125	22708.22
622.32	22216.71
622.515	22597.63
622.709	22464.51
622.904	22269.95
623.099	22124.55
623.294	22020.1
623.488	21702.67
623.683	21751.82
623.878	21297.17
624.072	21575.69
624.267	21463.05
624.462	21219.35
624.656	21307.41
624.851	21028.88
625.046	20830.23
625.24	20705.31
625.435	20707.35
625.629	20594.72
625.824	20551.71
626.018	20512.8
626.213	19927.08
626.407	20308
626.602	19970.08
626.796	20088.87
626.991	19963.94
627.185	19931.17
627.38	19351.6
627.574	19454
627.768	19337.26
627.963	19261.49
628.157	19161.14
628.352	19214.38
628.546	18987.06
628.74	18896.95
628.935	18896.95
629.129	18792.5
629.323	18628.67
629.517	18489.4
629.712	18370.62
629.906	18288.7
630.1	18051.14
630.294	18380.86
630.489	18260.03
630.683	18153.54
630.877	17836.1
631.071	17598.54
631.265	17752.13
631.459	17535.05
631.653	17580.11
631.848	17322.06
632.042	17436.75
632.236	17381.45
632.43	17000.53
632.624	17166.42
632.818	16894.04
633.012	16803.92
633.206	16877.65
633.4	16818.26
633.594	16812.12
633.788	16679
633.982	16619.61
634.176	16580.7
634.369	16261.21
634.563	16320.6
634.757	16115.81
634.951	16293.98
635.145	16224.35
635.339	15933.54
635.533	15792.23
635.726	15612.01
635.92	15599.72
636.114	15597.67
636.308	15616.1
636.501	15450.22
636.695	15462.51
636.889	15241.32
637.083	15100.01
637.276	15132.78
637.47	14997.62
637.664	15054.96
637.857	14741.62
638.051	14803.06
638.244	14610.55
638.438	14678.13
638.632	14565.5
638.825	14362.75
639.019	14260.35
639.212	14280.83
639.406	14352.51
639.599	14055.55
639.793	14057.6
639.986	14045.31
640.18	14080.13
640.373	14155.9
640.567	13637.77
640.76	13738.12
640.954	13840.51
641.147	13574.28
641.34	13486.22
641.534	13772.93
641.727	13420.68
641.92	13514.89
642.114	13215.88
642.307	13025.42
642.5	13226.12
642.694	12863.63
642.887	13045.9
643.08	12761.23
643.273	12880.02
643.467	12699.8
643.66	12593.3
643.853	12566.68
644.046	12550.29
644.239	12607.64
644.432	12304.54
644.626	12284.06
644.819	12302.49
645.012	12310.68
645.205	12060.83
645.398	12083.36
645.591	12091.55
645.784	12056.73
645.977	11827.36
646.17	12040.35
646.363	11620.52
646.556	11772.07
646.749	11575.46
646.942	11720.87
647.135	11681.96
647.328	11618.47
647.521	11425.96
647.714	11407.53
647.907	11364.52
648.099	11206.83
648.292	11374.76
648.485	11208.87
648.678	11233.45
648.871	10975.41
649.064	11255.98
649.256	10999.98
649.449	11137.2
649.642	10770.61
649.835	10864.82
650.027	10547.38
650.22	10776.75
650.413	10545.33
650.605	10487.99
650.798	10408.12
650.991	10467.51
651.183	10494.13
651.376	10168.51
651.568	10258.62
651.761	10170.55
651.954	10174.65
652.146	10244.28
652.339	9978.05
652.531	10199.23
652.724	10021.05
652.916	9832.64
653.109	9883.84
653.301	9844.93
653.494	9668.8
653.686	9603.27
653.879	9859.26
654.071	9781.44
654.263	9558.21
654.456	9351.37
654.648	9572.55
654.84	9296.07
655.033	9265.35
655.225	9308.36
655.417	9138.38
655.61	9095.37
655.802	9183.43
655.994	9056.46
656.186	8980.68
656.379	9052.36
656.571	9029.84
656.763	8822.99
656.955	8999.12
657.148	9040.08
657.34	8833.23
657.532	8896.72
657.724	8691.92
657.916	8847.57
658.108	8743.12
658.3	8528.08
658.492	8671.44
658.684	8540.37
658.876	8466.64
659.068	8278.23
659.26	8345.81
659.452	8358.1
659.644	8384.73
659.836	8308.95
660.028	8329.43
660.22	8200.41
660.412	8020.19
660.604	8067.29
660.796	8077.53
660.988	8267.99
661.18	7921.88
661.372	7938.27
661.563	8030.43
661.755	7940.32
661.947	7811.29
662.139	7747.81
662.331	7753.95
662.522	7837.92
662.714	7635.17
662.906	7452.9
663.097	7756
663.289	7520.48
663.481	7370.98
663.673	7610.59
663.864	7508.19
664.056	7553.25
664.247	7295.21
664.439	7377.12
664.631	7426.28
664.822	7325.93
665.014	7266.53
665.205	7219.43
665.397	7284.97
665.588	7239.91
665.78	7168.23
665.971	7282.92
666.163	7201
666.354	7172.33
666.546	7002.35
666.737	6918.38
666.929	7024.87
667.12	6983.91
667.311	7164.14
667.503	6916.33
667.694	6990.06
667.885	6881.52
668.077	6754.54
668.268	6754.54
668.459	6934.76
668.651	6719.73
668.842	6881.52
669.033	6764.78
669.224	6637.81
669.416	6998.25
669.607	6639.86
669.798	6629.62
669.989	6740.21
670.18	6504.69
670.371	6566.13
670.563	6478.07
670.754	6476.02
670.945	6459.63
671.136	6402.29
671.327	6652.14
671.518	6334.71
671.709	6519.03
671.9	6615.28
672.091	6379.76
672.282	6400.24
672.473	6320.37
672.664	6322.42
672.855	6209.78
673.046	6250.74
673.237	6316.28
673.428	6248.69
673.619	6144.25
673.809	6209.78
674	6193.4
674.191	6242.55
674.382	6072.57
674.573	6136.06
674.764	6115.58
674.954	6390
675.145	6054.14
675.336	5978.36
675.527	6138.1
675.717	6107.38
675.908	6078.71
676.099	6015.23
676.289	6109.43
676.48	5916.92
676.671	6002.94
676.861	6193.4
677.052	6068.47
677.243	5818.62
677.433	6062.33
677.624	6082.81
677.814	6041.85
678.005	5976.31
678.195	5953.79
678.386	6060.28
678.576	5906.68
678.767	5880.06
678.957	5941.5
679.148	6043.9
679.338	6013.18
679.529	6056.18
679.719	5935.35
679.909	6064.38
680.1	5929.21
680.29	6045.95
680.481	5830.91
680.671	5906.68
680.861	5839.1
681.052	6031.61
681.242	5865.72
681.432	5900.54
681.622	5787.9
681.813	5857.53
682.003	5961.98
682.193	5710.08
682.383	5988.6
682.573	5923.07
682.764	5748.99
682.954	5771.52
683.144	5796.09
683.334	5773.57
683.524	5746.94
683.714	5687.55
683.904	5861.63
684.094	5701.89
684.284	5839.1
684.474	5728.51
684.664	5830.91
684.854	5736.7
685.044	5693.69
685.234	5708.03
685.424	5583.1
685.614	5779.71
685.804	5665.02
685.994	5775.61
686.184	5722.37
686.374	5523.71
686.564	5376.26
686.753	5484.8
686.943	5335.3
687.133	5562.62
687.323	5542.14
687.513	5423.36
687.702	5449.99
687.892	5234.95
688.082	5411.07
688.272	5366.02
688.461	5284.1
688.651	5284.1
688.841	5212.42
689.03	5333.25
689.22	5103.88
689.41	5171.46
689.599	5165.32
689.789	5077.26
689.979	5107.98
690.168	4946.19
690.358	5089.54
690.547	4972.81
690.737	5056.78
690.926	4991.24
691.116	4806.92
691.305	5042.44
691.495	4882.7
691.684	4921.61
691.874	4802.83
692.063	4825.36
692.252	4989.19
692.442	4802.83
692.631	4794.64
692.82	4768.01
693.01	4765.96
693.199	4618.51
693.388	4684.05
693.578	4591.89
693.767	4735.25
693.956	4690.19
694.146	4497.68
694.335	4634.89
694.524	4477.2
694.713	4489.49
694.902	4442.39
695.092	4608.27
695.281	4464.91
695.47	4475.15
695.659	4532.5
695.848	4364.56
696.037	4260.12
696.226	4555.02
696.415	4399.38
696.604	4405.52
696.793	4186.39
696.982	4473.11
697.171	4415.76
697.36	4217.11
697.549	4186.39
697.738	4190.49
697.927	4135.19
698.116	4235.54
698.305	4350.23
698.494	4217.11
698.683	4186.39
698.872	4323.6
699.061	4182.29
699.25	4296.98
699.438	4180.25
699.627	4278.55
699.816	4268.31
700.005	4133.14
700.193	4382.99
700.382	4305.17
700.571	4397.33
700.76	4210.97
700.948	4292.88
701.137	4083.99
701.326	4262.16
701.514	4135.19
701.703	4172.05
701.892	4104.47
702.08	4335.89
702.269	4120.85
702.457	4049.18
702.646	4372.75
702.834	4161.81
703.023	4098.33
703.212	4092.18
703.4	4137.24
703.589	4188.44
703.777	4159.77
703.965	4071.7
704.154	4194.58
704.342	4182.29
704.531	4147.48
704.719	4098.33
704.907	4251.92
705.096	4010.26
705.284	4198.68
705.472	4088.09
705.661	4086.04
705.849	4063.51
706.037	4223.25
706.226	4106.52
706.414	4155.67
706.602	4165.91
706.79	4196.63
706.979	4145.43
707.167	4114.71
707.355	4069.66
707.543	4073.75
707.731	4227.35
707.919	4243.73
708.107	4229.4
708.296	4186.39
708.484	4204.82
708.672	4131.09
708.86	4221.2
709.048	4116.76
709.236	4174.1
709.424	4178.2
709.612	4194.58
709.8	4118.81
709.988	4147.48
710.176	4180.25
710.364	4260.12
710.551	4131.09
710.739	4090.13
710.927	4235.54
711.115	4243.73
711.303	4143.38
711.491	4100.37
711.679	4202.77
711.866	4346.13
712.054	4305.17
712.242	4294.93
712.43	4407.57
712.617	4202.77
712.805	4075.8
712.993	4208.92
713.181	4272.4
713.368	4278.55
713.556	4358.42
713.744	4258.07
713.931	4321.56
714.119	4182.29
714.306	4258.07
714.494	4268.31
714.682	4286.74
714.869	4231.44
715.057	4339.99
715.244	4223.25
715.432	4335.89
715.619	4256.02
715.807	4370.71
715.994	4415.76
716.182	4239.64
716.369	4376.85
716.556	4311.32
716.744	4178.2
716.931	4382.99
717.119	4284.69
717.306	4327.7
717.493	4362.51
717.681	4344.08
717.868	4366.61
718.055	4378.9
718.242	4370.71
718.43	4372.75
718.617	4370.71
718.804	4276.5
718.991	4325.65
719.179	4444.43
719.366	4315.41
719.553	4428.05
719.74	4260.12
719.927	4446.48
720.114	4387.09
720.301	4544.78
720.488	4364.56
720.676	4366.61
720.863	4466.96
721.05	4354.32
721.237	4509.97
721.424	4296.98
721.611	4307.22
721.798	4294.93
721.985	4284.69
722.172	4403.47
722.358	4292.88
722.545	4512.02
722.732	4331.8
722.919	4366.61
723.106	4450.58
723.293	4450.58
723.48	4524.3
723.667	4266.26
723.853	4393.23
724.04	4442.39
724.227	4516.11
724.414	4475.15
724.6	4481.3
724.787	4401.43
724.974	4514.06
725.161	4344.08
725.347	4423.95
725.534	4528.4
725.72	4458.77
725.907	4432.15
726.094	4587.79
726.28	4530.45
726.467	4352.27
726.653	4360.47
726.84	4641.04
727.027	4485.39
727.213	4276.5
727.4	4573.46
727.586	4442.39
727.773	4469.01
727.959	4469.01
728.145	4514.06
728.332	4344.08
728.518	4430.1
728.705	4530.45
728.891	4442.39
729.077	4464.91
729.264	4444.43
729.45	4489.49
729.636	4641.04
729.823	4370.71
730.009	4489.49
730.195	4448.53
730.382	4522.26
730.568	4440.34
730.754	4526.35
730.94	4370.71
731.126	4634.89
731.313	4569.36
731.499	4460.82
731.685	4591.89
731.871	4456.72
732.057	4614.41
732.243	4497.68
732.429	4450.58
732.615	4487.44
732.801	4522.26
732.987	4534.54
733.173	4407.57
733.359	4565.26
733.545	4323.6
733.731	4415.76
733.917	4493.58
734.103	4548.88
734.289	4483.34
734.475	4450.58
734.661	4512.02
734.847	4464.91
735.033	4475.15
735.219	4516.11
735.404	4469.01
735.59	4436.24
735.776	4503.82
735.962	4450.58
736.148	4565.26
736.333	4374.8
736.519	4372.75
736.705	4428.05
736.89	4505.87
737.076	4475.15
737.262	4270.36
737.447	4509.97
737.633	4481.3
737.819	4421.91
738.004	4391.19
738.19	4540.69
738.375	4276.5
738.561	4542.74
738.747	4366.61
738.932	4385.04
739.118	4374.8
739.303	4358.42
739.489	4374.8
739.674	4327.7
739.859	4192.53
740.045	4370.71
740.23	4342.04
740.416	4342.04
740.601	4333.84
740.786	4223.25
740.972	4313.36
741.157	4145.43
741.342	4098.33
741.528	4188.44
741.713	4323.6
741.898	4268.31
742.084	4122.9
742.269	4161.81
742.454	4141.33
742.639	4139.29
742.824	4284.69
743.01	4260.12
743.195	4067.61
743.38	4081.94
743.565	4083.99
743.75	3936.54
743.935	4116.76
744.12	3973.4
744.305	4071.7
744.49	4122.9
744.675	4155.67
744.86	3909.91
745.045	3873.05
745.23	3911.96
745.415	4020.5
745.6	4034.84
745.785	3877.15
745.97	3866.91
746.155	3959.06
746.34	3897.63
746.525	3885.34
746.71	3803.42
746.895	3741.98
747.079	3707.16
747.264	3686.69
747.449	3752.22
747.634	3686.69
747.819	3662.11
748.003	3578.14
748.188	3543.33
748.373	3629.34
748.557	3479.84
748.742	3438.88
748.927	3539.23
749.111	3500.32
749.296	3445.02
749.481	3471.65
749.665	3440.93
749.85	3426.59
750.034	3436.83
750.219	3313.95
750.404	3309.86
750.588	3311.91
750.773	3260.71
750.957	3127.59
751.141	3227.94
751.326	3342.63
751.51	3008.81
751.695	3213.6
751.879	3055.91
752.064	3148.07
752.248	3150.12
752.432	3021.1
752.617	3027.24
752.801	3084.58
752.985	3017
753.17	3053.86
753.354	2959.66
753.538	3039.53
753.722	2922.79
753.907	2894.12
754.091	2922.79
754.275	2867.5
754.459	2804.01
754.643	2877.74
754.828	2875.69
755.012	2867.5
755.196	2711.85
755.38	2801.96
755.564	2740.52
755.748	2681.13
755.932	2691.37
756.116	2758.96
756.3	2664.75
756.484	2720.04
756.668	2609.45
756.852	2482.48
757.036	2529.58
757.22	2687.28
757.404	2525.49
757.588	2574.64
757.772	2533.68
757.956	2392.37
758.14	2535.73
758.323	2343.22
758.507	2572.59
758.691	2470.19
758.875	2447.66
759.059	2355.51
759.242	2345.27
759.426	2496.82
759.61	2275.63
759.794	2408.75
759.977	2402.61
760.161	2488.62
760.345	2361.65
760.528	2279.73
760.712	2337.07
760.895	2097.46
761.079	2257.2
761.263	2232.63
761.446	2228.53
761.63	2138.42
761.813	2249.01
761.997	2171.19
762.18	2185.52
762.364	2187.57
762.547	2103.61
762.731	2148.66
762.914	2169.14
763.098	2064.69
763.281	1950.01
763.464	2019.64
763.648	2068.79
763.831	2027.83
764.015	2113.85
764.198	1935.67
764.381	2003.25
764.564	2056.5
764.748	1974.58
764.931	1941.82
765.114	2056.5
765.297	1952.06
765.481	1880.38
765.664	1857.85
765.847	1806.65
766.03	1945.91
766.213	1925.43
766.397	1993.01
766.58	1876.28
766.763	1898.81
766.946	1917.24
767.129	1837.37
767.312	1907
767.495	1931.58
767.678	1814.84
767.861	1890.62
768.044	1964.34
768.227	1728.83
768.41	1859.9
768.593	1761.59
768.776	1839.42
768.959	1696.06
769.142	1767.74
769.324	1751.35
769.507	1851.71
769.69	1618.24
769.873	1753.4
770.056	1769.79
770.239	1681.72
770.421	1769.79
770.604	1673.53
770.787	1681.72
770.97	1724.73
771.152	1675.58
771.335	1648.96
771.518	1610.04
771.7	1577.28
771.883	1702.2
772.066	1663.29
772.248	1730.87
772.431	1683.77
772.613	1454.4
772.796	1597.76
772.978	1648.96
773.161	1552.7
773.343	1458.5
773.526	1534.27
773.708	1519.93
773.891	1614.14
774.073	1552.7
774.256	1339.71
774.438	1554.75
774.621	1419.58
774.803	1495.36
774.985	1425.73
775.168	1472.83
775.35	1388.86
775.532	1419.58
775.715	1472.83
775.897	1460.54
776.079	1388.86
776.261	1446.21
776.444	1382.72
776.626	1331.52
776.808	1321.28
776.99	1315.14
777.173	1290.56
777.355	1257.79
777.537	1331.52
777.719	1376.58
777.901	1247.55
778.083	1235.27
778.265	1222.98
778.447	1243.46
778.629	1280.32
778.811	1280.32
778.993	1225.03
779.175	1282.37
779.357	1229.12
779.539	1177.92
779.721	1139.01
779.903	1093.96
780.085	1089.86
780.267	1171.78
780.449	1210.69
780.631	1182.02
780.812	1089.86
780.994	1063.24
781.176	1149.25
781.358	1040.71
781.54	1089.86
781.721	1081.67
781.903	1108.29
782.085	1007.94
782.267	1161.54
782.448	1046.85
782.63	985.41
782.812	1126.72
782.993	952.65
783.175	1050.95
783.357	1007.94
783.538	1050.95
783.72	891.21
783.901	942.41
784.083	987.46
784.264	919.88
784.446	915.78
784.627	913.74
784.809	971.08
784.99	864.58
785.172	928.07
785.353	897.35
785.535	860.49
785.716	895.3
785.897	883.02
786.079	850.25
786.26	895.3
786.441	880.97
786.623	776.52
786.804	809.29
786.985	905.54
787.167	852.3
787.348	762.19
787.529	831.82
787.71	915.78
787.891	895.3
788.073	788.81
788.254	672.08
788.435	868.68
788.616	815.43
788.797	792.91
788.978	772.43
789.159	778.57
789.34	725.32
789.522	627.02
789.703	635.21
789.884	741.71
790.065	655.69
790.246	674.12
790.427	760.14
790.607	782.67
790.788	774.47
790.969	655.69
791.15	647.5
791.331	686.41
791.512	596.3
791.693	643.4
791.874	624.97
792.054	682.31
792.235	731.47
792.416	643.4
792.597	627.02
792.778	663.88
792.958	618.83
793.139	655.69
793.32	618.83
793.5	543.05
793.681	690.51
793.862	663.88
794.042	655.69
794.223	559.44
794.404	624.97
794.584	565.58
794.765	610.64
794.945	553.29
795.126	661.84
795.306	543.05
795.487	553.29
795.667	590.16
795.848	594.25
796.028	516.43
796.209	526.67
796.389	645.45
796.57	541.01
796.75	526.67
796.93	557.39
797.111	526.67
797.291	569.68
797.471	567.63
797.652	524.62
797.832	495.95
798.012	575.82
798.192	504.14
798.373	555.34
798.553	446.8
798.733	498
798.913	502.09
799.093	545.1
799.274	514.38
799.454	508.24
799.634	528.72
799.814	475.47
799.994	502.09
800.174	565.58
800.354	541.01
800.534	389.46
800.714	532.81
800.894	461.13
801.074	416.08
801.254	381.26
801.434	512.33
801.614	467.28
801.794	422.22
801.974	1413.44
802.154	362.83
802.334	518.48
802.514	395.6
802.693	409.94
802.873	416.08
803.053	514.38
803.233	377.17
803.413	508.24
803.592	418.13
803.772	368.98
803.952	457.04
804.131	393.55
804.311	543.05
804.491	493.9
804.67	377.17
804.85	330.06
805.03	399.7
805.209	442.7
805.389	403.79
805.568	399.7
805.748	360.78
805.928	352.59
806.107	362.83
806.287	454.99
806.466	483.66
806.646	422.22
806.825	430.41
807.004	344.4
807.184	385.36
807.363	375.12
807.543	366.93
807.722	330.06
807.901	471.37
808.081	401.74
808.26	321.87
808.439	399.7
808.619	350.54
808.798	399.7
808.977	319.82
809.156	459.09
809.336	360.78
809.515	354.64
809.694	356.69
809.873	420.17
810.052	360.78
810.231	360.78
810.411	391.5
810.59	385.36
810.769	387.41
810.948	358.74
811.127	211.28
811.306	309.58
811.485	258.39
811.664	368.98
811.843	338.26
812.022	344.4
812.201	311.63
812.38	397.65
812.559	270.67
812.737	215.38
812.916	229.71
813.095	262.48
813.274	307.54
813.453	262.48
813.632	354.64
813.811	229.71
813.989	244.05
814.168	280.91
814.347	254.29
814.526	252.24
814.704	272.72
814.883	379.22
815.062	239.95
815.24	346.45
815.419	233.81
815.598	315.73
815.776	262.48
815.955	338.26
816.133	170.32
816.312	295.25
816.49	278.87
816.669	371.02
816.847	254.29
817.026	246.1
817.204	254.29
817.383	285.01
817.561	176.47
817.74	307.54
817.918	293.2
818.097	258.39
818.275	287.06
818.453	280.91
818.632	280.91
818.81	229.71
818.988	225.62
819.167	258.39
819.345	252.24
819.523	256.34
819.701	305.49
819.879	266.58
820.058	196.95
820.236	262.48
820.414	246.1
820.592	188.75
820.77	254.29
820.948	168.27
821.127	188.75
821.305	266.58
821.483	203.09
821.661	225.62
821.839	262.48
822.017	215.38
822.195	110.93
822.373	225.62
822.551	262.48
822.729	198.99
822.907	166.23
823.085	254.29
823.262	278.87
823.44	182.61
823.618	215.38
823.796	242
823.974	207.19
824.152	149.84
824.329	217.43
824.507	184.66
824.685	190.8
824.863	110.93
825.04	239.95
825.218	223.57
825.396	219.47
825.574	158.03
825.751	188.75
825.929	242
826.107	133.46
826.284	190.8
826.462	192.85
826.639	237.91
826.817	178.51
826.994	194.9
827.172	176.47
827.349	221.52
827.527	158.03
827.704	164.18
827.882	190.8
828.059	242
828.237	190.8
828.414	221.52
828.591	149.84
828.769	188.75
828.946	180.56
829.124	242
829.301	139.6
829.478	178.51
829.655	219.47
829.833	225.62
830.01	172.37
830.187	229.71
830.364	123.22
830.542	133.46
830.719	231.76
830.896	192.85
831.073	166.23
831.25	225.62
831.427	201.04
831.604	227.67
831.782	121.17
831.959	219.47
832.136	160.08
832.313	225.62
832.49	69.97
832.667	201.04
832.844	112.98
833.021	166.23
833.198	180.56
833.374	205.14
833.551	158.03
833.728	239.95
833.905	166.23
834.082	112.98
834.259	182.61
834.436	100.69
834.612	147.8
834.789	141.65
834.966	94.55
835.143	242
835.319	211.28
835.496	164.18
835.673	227.67
835.85	231.76
836.026	158.03
836.203	235.86
836.38	125.27
836.556	82.26
836.733	104.79
836.909	166.23
837.086	147.8
837.262	88.4
837.439	51.54
837.616	119.12
837.792	141.65
837.968	133.46
838.145	65.88
838.321	180.56
838.498	162.13
838.674	244.05
838.851	127.32
839.027	61.78
839.203	84.31
839.38	141.65
839.556	63.83
839.732	155.99
839.909	102.74
840.085	139.6
840.261	110.93
840.437	127.32
840.614	166.23
840.79	178.51
840.966	80.21
841.142	184.66
841.318	131.41
841.494	182.61
841.671	123.22
841.847	108.88
842.023	139.6
842.199	190.8
842.375	141.65
842.551	35.16
842.727	45.4
842.903	170.32
843.079	100.69
843.255	221.52
843.431	108.88
843.607	170.32
843.783	45.4
843.959	158.03
844.134	57.68
844.31	112.98
844.486	72.02
844.662	47.44
844.838	98.64
845.013	86.36
845.189	127.32
845.365	92.5
845.541	74.07
845.716	92.5
845.892	141.65
846.068	41.3
846.244	24.92
846.419	115.03
846.595	-11.95
846.77	119.12
846.946	149.84
847.122	63.83
847.297	59.73
847.473	205.14
847.648	80.21
847.824	47.44
847.999	33.11
848.175	110.93
848.35	92.5
848.526	149.84
848.701	117.08
848.876	115.03
849.052	160.08
849.227	86.36
849.403	51.54
849.578	65.88
849.753	115.03
849.929	51.54
850.104	63.83
850.279	137.56
850.454	106.84
850.63	151.89
850.805	119.12
850.98	127.32
851.155	76.12
851.33	98.64
851.505	-32.43
851.681	143.7
851.856	69.97
852.031	72.02
852.206	110.93
852.381	88.4
852.556	96.6
852.731	94.55
852.906	98.64
853.081	78.16
853.256	139.6
853.431	16.73
853.606	147.8
853.781	49.49
853.956	-20.14
854.131	61.78
854.305	63.83
854.48	61.78
854.655	65.88
854.83	59.73
855.005	55.64
855.18	65.88
855.354	20.82
855.529	88.4
855.704	76.12
855.879	61.78
856.053	20.82
856.228	108.88
856.403	84.31
856.577	125.27
856.752	-30.38
856.926	65.88
857.101	41.3
857.276	31.06
857.45	24.92
857.625	82.26
857.799	22.87
857.974	82.26
858.148	26.96
858.323	112.98
858.497	37.2
858.672	61.78
858.846	35.16
859.02	72.02
859.195	24.92
859.369	98.64
859.543	104.79
859.718	115.03
859.892	10.58
860.066	65.88
860.241	104.79
860.415	53.59
860.589	82.26
860.763	80.21
860.938	104.79
861.112	145.75
861.286	31.06
861.46	57.68
861.634	49.49
861.808	65.88
861.982	29.01
862.157	65.88
862.331	-1.71
862.505	18.77
862.679	16.73
862.853	69.97
863.027	16.73
863.201	131.41
863.375	-24.23
863.549	12.63
863.722	33.11
863.896	106.84
864.07	-5.8
864.244	49.49
864.418	22.87
864.592	143.7
864.766	-3.75
864.939	51.54
865.113	82.26
865.287	117.08
865.461	33.11
865.634	20.82
865.808	49.49
865.982	37.2
866.156	8.53
866.329	4.44
866.503	90.45
866.676	88.4
866.85	47.44
867.024	47.44
867.197	125.27
867.371	22.87
867.544	39.25
867.718	88.4
867.891	57.68
868.065	37.2
868.238	-24.23
868.412	84.31
868.585	41.3
868.759	47.44
868.932	12.63
869.105	-54.95
869.279	41.3
869.452	4.44
869.625	45.4
869.799	51.54
869.972	82.26
870.145	72.02
870.319	76.12
870.492	57.68
870.665	-28.33
870.838	65.88
871.011	-22.19
871.185	49.49
871.358	-1.71
871.531	43.35
871.704	4.44
871.877	43.35
872.05	8.53
872.223	24.92
872.396	41.3
872.569	94.55
872.742	-9.9
872.915	133.46
873.088	-26.28
873.261	-3.75
873.434	61.78
873.607	8.53
873.78	-5.8
873.953	16.73
874.126	49.49
874.299	12.63
874.471	-16.04
874.644	76.12
874.817	26.96
874.99	84.31
875.163	-65.19
875.335	110.93
875.508	76.12
875.681	155.99
875.853	31.06
876.026	37.2
876.199	45.4
876.371	8.53
876.544	-24.23
876.717	94.55
876.889	33.11
877.062	117.08
877.234	26.96
877.407	45.4
877.579	51.54
877.752	86.36
877.924	90.45
878.097	51.54
878.269	45.4
878.442	69.97
878.614	94.55
878.786	37.2
878.959	106.84
879.131	69.97
879.303	51.54
879.476	49.49
879.648	96.6
879.82	16.73
879.993	-18.09
880.165	-26.28
880.337	-40.62
880.509	102.74
880.681	20.82
880.854	57.68
881.026	76.12
881.198	74.07
881.37	-95.91
881.542	31.06
881.714	-30.38
881.886	10.58
882.058	8.53
882.23	98.64
882.402	74.07
882.574	18.77
882.746	29.01
882.918	82.26
883.09	72.02
883.262	22.87
883.434	26.96
883.606	4.44
883.778	-42.67
883.95	55.64
884.122	-20.14
884.293	84.31
884.465	69.97
884.637	69.97
884.809	16.73
884.98	55.64
885.152	0.34
885.324	59.73
885.496	41.3
885.667	57.68
885.839	-16.04
886.011	18.77
886.182	14.68
886.354	135.51
886.525	24.92
886.697	59.73
886.869	-7.85
887.04	65.88
887.212	47.44
887.383	125.27
887.555	59.73
887.726	29.01
887.897	8.53
888.069	-13.99
888.24	139.6
888.412	-40.62
888.583	49.49
888.754	10.58
888.926	22.87
889.097	-16.04
889.268	-30.38
889.44	-1.71
889.611	24.92
889.782	4.44
889.953	12.63
890.125	76.12
890.296	-1.71
890.467	35.16
890.638	41.3
890.809	65.88
890.98	31.06
891.151	98.64
891.323	39.25
891.494	55.64
891.665	82.26
891.836	63.83
892.007	69.97
892.178	51.54
892.349	8.53
892.52	-32.43
892.691	6.49
892.862	-20.14
893.032	-34.47
893.203	84.31
893.374	29.01
893.545	26.96
893.716	53.59
893.887	94.55
894.057	-7.85
894.228	24.92
894.399	-1.71
894.57	76.12
894.74	33.11
894.911	98.64
895.082	-30.38
895.253	18.77
895.423	55.64
895.594	139.6
895.764	33.11
895.935	20.82
896.106	106.84
896.276	6.49
896.447	90.45
896.617	92.5
896.788	37.2
896.958	-48.81
897.129	-13.99
897.299	31.06
897.47	16.73
897.64	53.59
897.81	0.34
897.981	98.64
898.151	47.44
898.322	-40.62
898.492	16.73
898.662	35.16
898.832	10.58
899.003	43.35
899.173	69.97
899.343	8.53
899.513	37.2
