Data from USB4F104151__76__13-06-07-199.txt Node

Date: Fri Mar 14 13:06:07 EDT 2025
User: louis
Spectrometer: USB4F10415
Trigger mode: 4
Integration Time (sec): 4.000000E-2
Scans to average: 1
Electric dark correction enabled: true
Nonlinearity correction enabled: false
Boxcar width: 0
XAxis mode: Wavelengths
Number of Pixels in Spectrum: 3648
>>>>>Begin Spectral Data<<<<<
178.204	-174.59
178.424	-174.59
178.644	-174.59
178.864	-109.05
179.084	-252.41
179.304	-2.56
179.524	17.92
179.744	15.87
179.964	-23.04
180.184	-27.14
180.404	-20.99
180.624	22.02
180.844	42.5
181.064	-29.18
181.283	3.58
181.503	-35.33
181.723	36.35
181.943	-41.47
182.163	30.21
182.383	22.02
182.602	165.37
182.822	89.6
183.042	99.84
183.262	-33.28
183.482	32.26
183.701	50.69
183.921	-2.56
184.141	30.21
184.361	85.5
184.58	60.93
184.8	42.5
185.02	-31.23
185.239	22.02
185.459	17.92
185.679	34.3
185.898	-4.61
186.118	46.59
186.338	13.82
186.557	103.93
186.777	15.87
186.997	-31.23
187.216	62.98
187.436	177.66
187.655	101.89
187.875	40.45
188.095	7.68
188.314	87.55
188.534	108.03
188.753	-16.9
188.973	79.36
189.192	95.74
189.412	95.74
189.631	87.55
189.851	-16.9
190.07	161.28
190.29	-12.8
190.509	46.59
190.729	19.97
190.948	50.69
191.168	151.04
191.387	95.74
191.607	56.83
191.826	122.37
192.045	52.74
192.265	73.21
192.484	-23.04
192.704	91.65
192.923	26.11
193.142	153.09
193.362	58.88
193.581	30.21
193.8	101.89
194.02	146.94
194.239	60.93
194.458	54.78
194.678	1.54
194.897	73.21
195.116	81.41
195.335	54.78
195.555	62.98
195.774	15.87
195.993	69.12
196.212	-20.99
196.432	89.6
196.651	81.41
196.87	24.06
197.089	108.03
197.308	62.98
197.528	77.31
197.747	-10.75
197.966	81.41
198.185	144.89
198.404	67.07
198.623	101.89
198.842	48.64
199.062	108.03
199.281	97.79
199.5	-10.75
199.719	71.17
199.938	118.27
200.157	40.45
200.376	42.5
200.595	93.69
200.814	128.51
201.033	40.45
201.252	97.79
201.471	38.4
201.69	81.41
201.909	99.84
202.128	44.54
202.347	50.69
202.566	103.93
202.785	-2.56
203.004	-47.62
203.223	122.37
203.442	65.02
203.661	75.26
203.879	60.93
204.098	28.16
204.317	5.63
204.536	54.78
204.755	30.21
204.974	97.79
205.193	46.59
205.411	118.27
205.63	11.78
205.849	69.12
206.068	50.69
206.287	65.02
206.505	50.69
206.724	89.6
206.943	1.54
207.162	62.98
207.381	79.36
207.599	28.16
207.818	118.27
208.037	-37.38
208.255	17.92
208.474	-23.04
208.693	95.74
208.911	56.83
209.13	108.03
209.349	52.74
209.567	32.26
209.786	112.13
210.005	30.21
210.223	54.78
210.442	1.54
210.661	9.73
210.879	28.16
211.098	19.97
211.316	-43.52
211.535	46.59
211.753	17.92
211.972	99.84
212.191	85.5
212.409	-16.9
212.628	65.02
212.846	56.83
213.065	50.69
213.283	95.74
213.502	-18.94
213.72	42.5
213.938	112.13
214.157	93.69
214.375	103.93
214.594	-16.9
214.812	15.87
215.031	11.78
215.249	116.22
215.467	60.93
215.686	83.45
215.904	136.7
216.122	50.69
216.341	73.21
216.559	95.74
216.778	89.6
216.996	136.7
217.214	67.07
217.432	-6.66
217.651	22.02
217.869	89.6
218.087	62.98
218.306	7.68
218.524	112.13
218.742	-18.94
218.96	116.22
219.179	73.21
219.397	155.13
219.615	124.41
219.833	26.11
220.051	-10.75
220.27	153.09
220.488	67.07
220.706	50.69
220.924	50.69
221.142	50.69
221.36	28.16
221.578	-0.51
221.796	38.4
222.015	42.5
222.233	-41.47
222.451	163.33
222.669	-2.56
222.887	103.93
223.105	40.45
223.323	34.3
223.541	22.02
223.759	71.17
223.977	15.87
224.195	42.5
224.413	48.64
224.631	75.26
224.849	60.93
225.067	110.08
225.285	30.21
225.503	38.4
225.721	-14.85
225.939	73.21
226.157	19.97
226.375	214.52
226.592	36.35
226.81	-39.42
227.028	65.02
227.246	75.26
227.464	52.74
227.682	42.5
227.9	44.54
228.117	11.78
228.335	118.27
228.553	60.93
228.771	-0.51
228.989	91.65
229.206	-33.28
229.424	-2.56
229.642	5.63
229.86	1.54
230.077	46.59
230.295	91.65
230.513	77.31
230.731	60.93
230.948	138.75
231.166	105.98
231.384	19.97
231.601	-6.66
231.819	93.69
232.037	56.83
232.254	-23.04
232.472	-0.51
232.689	42.5
232.907	19.97
233.125	73.21
233.342	48.64
233.56	85.5
233.777	67.07
233.995	77.31
234.213	114.17
234.43	81.41
234.648	32.26
234.865	83.45
235.083	101.89
235.3	85.5
235.518	30.21
235.735	87.55
235.953	71.17
236.17	44.54
236.388	60.93
236.605	44.54
236.822	116.22
237.04	87.55
237.257	40.45
237.475	-35.33
237.692	69.12
237.909	69.12
238.127	7.68
238.344	112.13
238.562	-14.85
238.779	38.4
238.996	1.54
239.214	60.93
239.431	36.35
239.648	54.78
239.865	24.06
240.083	5.63
240.3	11.78
240.517	24.06
240.735	60.93
240.952	140.8
241.169	114.17
241.386	32.26
241.603	91.65
241.821	24.06
242.038	108.03
242.255	87.55
242.472	7.68
242.689	120.32
242.907	103.93
243.124	-39.42
243.341	48.64
243.558	9.73
243.775	54.78
243.992	52.74
244.209	-2.56
244.426	126.46
244.643	36.35
244.86	73.21
245.078	81.41
245.295	38.4
245.512	40.45
245.729	13.82
245.946	58.88
246.163	91.65
246.38	50.69
246.597	-20.99
246.814	75.26
247.031	5.63
247.248	95.74
247.464	17.92
247.681	65.02
247.898	32.26
248.115	85.5
248.332	138.75
248.549	26.11
248.766	140.8
248.983	46.59
249.2	85.5
249.417	83.45
249.633	81.41
249.85	112.13
250.067	9.73
250.284	13.82
250.501	38.4
250.717	144.89
250.934	-25.09
251.151	-0.51
251.368	46.59
251.585	56.83
251.801	17.92
252.018	93.69
252.235	71.17
252.451	11.78
252.668	36.35
252.885	134.65
253.102	95.74
253.318	50.69
253.535	54.78
253.752	38.4
253.968	7.68
254.185	44.54
254.401	56.83
254.618	142.85
254.835	79.36
255.051	89.6
255.268	24.06
255.484	99.84
255.701	54.78
255.917	48.64
256.134	9.73
256.351	24.06
256.567	95.74
256.784	42.5
257	-8.7
257.217	56.83
257.433	50.69
257.65	89.6
257.866	103.93
258.082	26.11
258.299	1.54
258.515	58.88
258.732	32.26
258.948	3.58
259.165	1.54
259.381	-14.85
259.597	11.78
259.814	50.69
260.03	42.5
260.246	15.87
260.463	77.31
260.679	65.02
260.895	-27.14
261.112	22.02
261.328	48.64
261.544	-0.51
261.761	89.6
261.977	22.02
262.193	-18.94
262.409	148.99
262.626	108.03
262.842	7.68
263.058	-10.75
263.274	17.92
263.49	44.54
263.707	79.36
263.923	81.41
264.139	-72.19
264.355	5.63
264.571	151.04
264.787	62.98
265.004	71.17
265.22	34.3
265.436	-68.09
265.652	30.21
265.868	54.78
266.084	13.82
266.3	5.63
266.516	38.4
266.732	128.51
266.948	-2.56
267.164	122.37
267.38	67.07
267.596	60.93
267.812	65.02
268.028	48.64
268.244	13.82
268.46	79.36
268.676	73.21
268.892	79.36
269.108	9.73
269.324	-27.14
269.54	48.64
269.756	42.5
269.972	-8.7
270.188	30.21
270.403	13.82
270.619	17.92
270.835	44.54
271.051	30.21
271.267	101.89
271.483	9.73
271.698	34.3
271.914	50.69
272.13	24.06
272.346	-59.9
272.562	42.5
272.777	146.94
272.993	-6.66
273.209	-8.7
273.425	101.89
273.64	13.82
273.856	95.74
274.072	69.12
274.287	26.11
274.503	91.65
274.719	89.6
274.934	62.98
275.15	-57.86
275.366	-0.51
275.581	-72.19
275.797	52.74
276.012	112.13
276.228	-12.8
276.444	83.45
276.659	40.45
276.875	-8.7
277.09	-59.9
277.306	52.74
277.521	95.74
277.737	48.64
277.952	22.02
278.168	103.93
278.383	32.26
278.599	114.17
278.814	7.68
279.03	26.11
279.245	122.37
279.461	58.88
279.676	24.06
279.892	-6.66
280.107	13.82
280.322	34.3
280.538	112.13
280.753	-35.33
280.969	54.78
281.184	15.87
281.399	77.31
281.615	9.73
281.83	81.41
282.045	22.02
282.26	62.98
282.476	52.74
282.691	108.03
282.906	-41.47
283.122	15.87
283.337	-14.85
283.552	58.88
283.767	5.63
283.983	44.54
284.198	42.5
284.413	62.98
284.628	-16.9
284.843	-2.56
285.058	62.98
285.274	-2.56
285.489	3.58
285.704	9.73
285.919	-23.04
286.134	28.16
286.349	42.5
286.564	71.17
286.779	112.13
286.995	54.78
287.21	24.06
287.425	62.98
287.64	40.45
287.855	120.32
288.07	3.58
288.285	93.69
288.5	87.55
288.715	75.26
288.93	38.4
289.145	11.78
289.36	89.6
289.575	75.26
289.79	105.98
290.004	9.73
290.219	38.4
290.434	87.55
290.649	7.68
290.864	-6.66
291.079	-35.33
291.294	17.92
291.509	56.83
291.724	44.54
291.938	40.45
292.153	128.51
292.368	44.54
292.583	11.78
292.798	101.89
293.012	22.02
293.227	17.92
293.442	-51.71
293.657	19.97
293.871	50.69
294.086	79.36
294.301	155.13
294.516	81.41
294.73	28.16
294.945	-35.33
295.16	89.6
295.374	112.13
295.589	73.21
295.804	-16.9
296.018	42.5
296.233	134.65
296.447	54.78
296.662	-39.42
296.877	136.7
297.091	24.06
297.306	5.63
297.52	1.54
297.735	26.11
297.949	22.02
298.164	81.41
298.378	26.11
298.593	77.31
298.807	132.61
299.022	17.92
299.236	87.55
299.451	28.16
299.665	13.82
299.88	-0.51
300.094	38.4
300.309	81.41
300.523	56.83
300.737	24.06
300.952	124.41
301.166	30.21
301.381	48.64
301.595	89.6
301.809	5.63
302.024	7.68
302.238	7.68
302.452	87.55
302.667	22.02
302.881	83.45
303.095	77.31
303.309	97.79
303.524	34.3
303.738	36.35
303.952	79.36
304.166	-14.85
304.381	-64
304.595	124.41
304.809	26.11
305.023	3.58
305.237	19.97
305.452	30.21
305.666	128.51
305.88	50.69
306.094	48.64
306.308	79.36
306.522	103.93
306.736	58.88
306.95	52.74
307.164	-6.66
307.379	91.65
307.593	126.46
307.807	99.84
308.021	77.31
308.235	50.69
308.449	-6.66
308.663	50.69
308.877	200.19
309.091	67.07
309.305	99.84
309.519	-41.47
309.733	67.07
309.947	-0.51
310.161	19.97
310.374	19.97
310.588	79.36
310.802	-2.56
311.016	-6.66
311.23	146.94
311.444	95.74
311.658	1.54
311.872	114.17
312.085	99.84
312.299	46.59
312.513	126.46
312.727	54.78
312.941	-27.14
313.154	71.17
313.368	11.78
313.582	69.12
313.796	56.83
314.009	17.92
314.223	46.59
314.437	40.45
314.651	122.37
314.864	5.63
315.078	73.21
315.292	13.82
315.505	87.55
315.719	95.74
315.933	42.5
316.146	50.69
316.36	28.16
316.573	91.65
316.787	46.59
317.001	85.5
317.214	34.3
317.428	46.59
317.641	15.87
317.855	52.74
318.068	15.87
318.282	71.17
318.495	165.37
318.709	60.93
318.922	42.5
319.136	50.69
319.349	83.45
319.563	42.5
319.776	140.8
319.99	-14.85
320.203	52.74
320.417	-25.09
320.63	75.26
320.843	91.65
321.057	120.32
321.27	30.21
321.483	83.45
321.697	36.35
321.91	77.31
322.124	130.56
322.337	58.88
322.55	32.26
322.763	116.22
322.977	24.06
323.19	7.68
323.403	83.45
323.617	65.02
323.83	95.74
324.043	24.06
324.256	87.55
324.469	71.17
324.683	89.6
324.896	58.88
325.109	22.02
325.322	11.78
325.535	75.26
325.748	-4.61
325.962	54.78
326.175	58.88
326.388	81.41
326.601	105.98
326.814	62.98
327.027	26.11
327.24	167.42
327.453	-45.57
327.666	-16.9
327.879	136.7
328.092	56.83
328.305	67.07
328.518	50.69
328.731	22.02
328.944	99.84
329.157	-25.09
329.37	89.6
329.583	148.99
329.796	65.02
330.009	-55.81
330.222	110.08
330.435	95.74
330.648	95.74
330.861	62.98
331.073	97.79
331.286	134.65
331.499	24.06
331.712	-33.28
331.925	46.59
332.138	46.59
332.35	97.79
332.563	28.16
332.776	120.32
332.989	95.74
333.202	79.36
333.414	24.06
333.627	34.3
333.84	38.4
334.053	19.97
334.265	22.02
334.478	38.4
334.691	28.16
334.903	112.13
335.116	-8.7
335.329	36.35
335.541	34.3
335.754	79.36
335.966	1.54
336.179	11.78
336.392	67.07
336.604	17.92
336.817	120.32
337.029	69.12
337.242	91.65
337.454	38.4
337.667	-25.09
337.88	99.84
338.092	38.4
338.305	-27.14
338.517	15.87
338.729	97.79
338.942	71.17
339.154	-27.14
339.367	11.78
339.579	42.5
339.792	36.35
340.004	73.21
340.217	24.06
340.429	97.79
340.641	28.16
340.854	54.78
341.066	40.45
341.278	95.74
341.491	134.65
341.703	24.06
341.915	32.26
342.128	71.17
342.34	22.02
342.552	28.16
342.764	-2.56
342.977	22.02
343.189	7.68
343.401	38.4
343.613	34.3
343.826	13.82
344.038	-47.62
344.25	11.78
344.462	38.4
344.674	95.74
344.886	-10.75
345.099	122.37
345.311	146.94
345.523	77.31
345.735	9.73
345.947	48.64
346.159	26.11
346.371	79.36
346.583	9.73
346.795	132.61
347.007	46.59
347.219	62.98
347.431	116.22
347.643	148.99
347.855	114.17
348.067	65.02
348.279	19.97
348.491	124.41
348.703	50.69
348.915	32.26
349.127	87.55
349.339	3.58
349.551	60.93
349.763	79.36
349.975	38.4
350.187	60.93
350.399	73.21
350.61	73.21
350.822	7.68
351.034	116.22
351.246	71.17
351.458	112.13
351.669	44.54
351.881	124.41
352.093	151.04
352.305	40.45
352.517	67.07
352.728	69.12
352.94	3.58
353.152	103.93
353.363	7.68
353.575	83.45
353.787	144.89
353.999	69.12
354.21	85.5
354.422	9.73
354.633	71.17
354.845	50.69
355.057	3.58
355.268	120.32
355.48	75.26
355.692	-18.94
355.903	112.13
356.115	69.12
356.326	62.98
356.538	157.18
356.749	30.21
356.961	112.13
357.172	101.89
357.384	85.5
357.595	126.46
357.807	34.3
358.018	95.74
358.23	44.54
358.441	159.23
358.653	65.02
358.864	89.6
359.075	15.87
359.287	24.06
359.498	28.16
359.709	71.17
359.921	48.64
360.132	42.5
360.344	81.41
360.555	28.16
360.766	81.41
360.977	13.82
361.189	40.45
361.4	36.35
361.611	81.41
361.823	108.03
362.034	71.17
362.245	7.68
362.456	77.31
362.667	165.37
362.879	81.41
363.09	24.06
363.301	38.4
363.512	134.65
363.723	9.73
363.935	-14.85
364.146	77.31
364.357	-10.75
364.568	87.55
364.779	-49.66
364.99	157.18
365.201	3.58
365.412	34.3
365.623	-16.9
365.834	99.84
366.045	13.82
366.256	128.51
366.467	103.93
366.678	9.73
366.889	56.83
367.1	83.45
367.311	60.93
367.522	30.21
367.733	71.17
367.944	87.55
368.155	-33.28
368.366	122.37
368.577	89.6
368.788	103.93
368.999	26.11
369.209	79.36
369.42	181.76
369.631	142.85
369.842	48.64
370.053	97.79
370.264	169.47
370.474	7.68
370.685	95.74
370.896	93.69
371.107	69.12
371.317	87.55
371.528	52.74
371.739	130.56
371.95	89.6
372.16	118.27
372.371	46.59
372.582	62.98
372.792	148.99
373.003	34.3
373.214	71.17
373.424	89.6
373.635	54.78
373.846	151.04
374.056	-2.56
374.267	128.51
374.477	-41.47
374.688	24.06
374.898	77.31
375.109	24.06
375.319	42.5
375.53	108.03
375.74	42.5
375.951	56.83
376.161	38.4
376.372	169.47
376.582	-16.9
376.793	122.37
377.003	38.4
377.214	40.45
377.424	83.45
377.635	65.02
377.845	5.63
378.055	173.57
378.266	30.21
378.476	17.92
378.686	83.45
378.897	171.52
379.107	73.21
379.317	136.7
379.528	11.78
379.738	95.74
379.948	30.21
380.158	77.31
380.369	40.45
380.579	108.03
380.789	30.21
380.999	97.79
381.21	89.6
381.42	136.7
381.63	30.21
381.84	148.99
382.05	112.13
382.261	73.21
382.471	142.85
382.681	48.64
382.891	105.98
383.101	171.52
383.311	22.02
383.521	40.45
383.731	118.27
383.941	114.17
384.151	112.13
384.361	81.41
384.571	157.18
384.781	34.3
384.991	159.23
385.201	151.04
385.411	105.98
385.621	105.98
385.831	79.36
386.041	138.75
386.251	85.5
386.461	144.89
386.671	79.36
386.881	85.5
387.091	-0.51
387.301	116.22
387.511	30.21
387.72	48.64
387.93	83.45
388.14	-10.75
388.35	30.21
388.56	153.09
388.769	136.7
388.979	91.65
389.189	32.26
389.399	108.03
389.609	132.61
389.818	126.46
390.028	73.21
390.238	116.22
390.447	85.5
390.657	95.74
390.867	54.78
391.076	44.54
391.286	120.32
391.496	99.84
391.705	48.64
391.915	118.27
392.125	79.36
392.334	108.03
392.544	179.71
392.753	146.94
392.963	71.17
393.172	50.69
393.382	65.02
393.591	132.61
393.801	110.08
394.01	187.9
394.22	161.28
394.429	83.45
394.639	85.5
394.848	116.22
395.058	75.26
395.267	108.03
395.477	99.84
395.686	118.27
395.895	187.9
396.105	230.91
396.314	93.69
396.524	103.93
396.733	46.59
396.942	148.99
397.152	130.56
397.361	243.2
397.57	120.32
397.78	32.26
397.989	163.33
398.198	251.39
398.407	128.51
398.617	128.51
398.826	132.61
399.035	122.37
399.244	134.65
399.453	13.82
399.663	79.36
399.872	136.7
400.081	89.6
400.29	196.09
400.499	73.21
400.708	108.03
400.917	136.7
401.127	67.07
401.336	120.32
401.545	148.99
401.754	140.8
401.963	124.41
402.172	155.13
402.381	118.27
402.59	134.65
402.799	122.37
403.008	230.91
403.217	144.89
403.426	222.72
403.635	108.03
403.844	122.37
404.053	202.24
404.262	165.37
404.471	226.81
404.68	157.18
404.888	81.41
405.097	167.42
405.306	181.76
405.515	167.42
405.724	214.52
405.933	181.76
406.142	275.96
406.35	267.77
406.559	177.66
406.768	198.14
406.977	226.81
407.185	179.71
407.394	265.72
407.603	146.94
407.812	261.63
408.02	282.11
408.229	181.76
408.438	278.01
408.646	206.33
408.855	253.44
409.064	325.12
409.272	292.35
409.481	310.78
409.69	230.91
409.898	292.35
410.107	314.88
410.315	392.7
410.524	288.25
410.733	407.03
410.941	327.16
411.15	407.03
411.358	415.23
411.567	419.32
411.775	402.94
411.984	443.9
412.192	515.58
412.401	443.9
412.609	603.64
412.818	556.54
413.026	587.26
413.234	503.29
413.443	579.06
413.651	579.06
413.86	583.16
414.068	609.78
414.276	763.38
414.485	695.8
414.693	665.08
414.901	757.24
415.11	765.43
415.318	749.04
415.526	792.05
415.734	820.72
415.943	904.69
416.151	955.89
416.359	837.11
416.567	931.31
416.776	1019.38
416.984	986.61
417.192	1025.52
417.4	1091.06
417.608	1054.19
417.817	1048.05
418.025	1140.21
418.233	1281.52
418.441	1146.35
418.649	1316.33
418.857	1373.68
419.065	1506.79
419.273	1398.25
419.481	1402.35
419.689	1617.38
419.897	1592.81
420.105	1687.01
420.313	1695.21
420.521	1852.9
420.729	1758.69
420.937	1947.11
421.145	1865.19
421.353	2012.64
421.561	2086.37
421.769	2096.61
421.977	2094.56
422.185	2061.79
422.393	2299.36
422.601	2438.62
422.809	2457.05
423.017	2414.04
423.224	2608.6
423.432	2653.66
423.64	2852.31
423.848	2913.75
424.056	2805.21
424.263	3032.53
424.471	3134.93
424.679	3093.97
424.887	3245.52
425.094	3321.29
425.302	3470.8
425.51	3556.81
425.718	3638.73
425.925	3612.1
426.133	3761.61
426.341	4109.76
426.548	3984.84
426.756	4359.61
426.964	4318.65
427.171	4429.24
427.379	4472.25
427.586	4675
427.794	4914.61
428.001	5019.06
428.209	5381.55
428.417	5258.67
428.624	5770.66
428.832	5594.54
429.039	5436.85
429.247	5662.12
429.454	6104.48
429.662	6532.51
429.869	5948.84
430.076	6593.95
430.284	6311.33
430.491	6657.43
430.699	6981.01
430.906	6952.34
431.114	7138.71
431.321	7196.05
431.528	7493.01
431.736	7923.08
431.943	8422.78
432.15	7964.04
432.358	8248.71
432.565	8519.04
432.772	8488.32
432.979	9127.28
433.187	9024.89
433.394	9272.69
433.601	9950.57
433.808	9713
434.016	10012.01
434.223	10427.74
434.43	10601.82
434.637	10751.32
434.844	11208.02
435.052	11664.72
435.259	11578.7
435.466	11681.1
435.673	11386.19
435.88	12135.75
436.087	12875.07
436.294	12825.92
436.501	12518.72
436.708	12918.07
436.915	13272.37
437.122	13915.44
437.329	13720.88
437.537	14388.52
437.743	14458.15
437.95	14480.68
438.157	15144.22
438.364	15848.72
438.571	15338.77
438.778	15807.76
438.985	17327.35
439.192	16375.05
439.399	17171.71
439.606	16643.33
439.813	17771.76
440.02	18562.28
440.227	18261.23
440.433	18160.87
440.64	18455.78
440.847	18873.57
441.054	19078.36
441.261	20538.57
441.467	20106.45
441.674	20638.92
441.881	21411
442.088	21046.46
442.294	21150.91
442.501	21859.51
442.708	22086.83
442.914	22928.55
443.121	23956.63
443.328	23358.62
443.534	25195.65
443.741	24034.45
443.948	23800.98
444.154	25719.93
444.361	25447.55
444.568	25683.06
444.774	25603.19
444.981	26088.56
445.187	26866.79
445.394	28099.67
445.6	27528.28
445.807	30469.17
446.013	29029.45
446.22	29449.28
446.426	30637.1
446.633	30889
446.839	32082.97
447.046	30336.05
447.252	32097.3
447.459	32347.15
447.665	32013.34
447.871	33690.62
448.078	35269.61
448.284	33788.92
448.491	34483.19
448.697	35537.89
448.903	36531.15
449.11	36223.96
449.316	35939.29
449.522	36723.66
449.728	37780.42
449.935	37852.09
450.141	37807.04
450.347	38587.32
450.553	37868.48
450.76	38177.72
450.966	39297.96
451.172	39046.06
451.378	39762.85
451.584	39316.39
451.791	40111
451.997	39906.21
452.203	40786.83
452.409	40573.84
452.615	40766.35
452.821	38980.53
453.027	38554.55
453.233	40729.49
453.44	39443.37
453.646	39742.37
453.852	39822.24
454.058	40897.42
454.264	38968.24
454.47	39977.89
454.676	38943.66
454.882	40407.96
455.088	36889.55
455.294	37258.18
455.5	38460.34
455.705	38802.35
455.911	37225.42
456.117	36377.56
456.323	35795.93
456.529	34202.61
456.735	35363.81
456.941	34679.79
457.147	34079.74
457.352	33295.36
457.558	32877.58
457.764	32939.02
457.97	32199.7
458.176	31517.73
458.381	31820.83
458.587	30098.48
458.793	29994.04
458.999	28386.38
459.204	30802.99
459.41	29746.23
459.616	27784.28
459.821	27757.66
460.027	27513.95
460.233	27022.44
460.438	25638.01
460.644	25851
460.85	24757.38
461.055	24398.99
461.261	24591.5
461.466	22645.93
461.672	22248.62
461.878	23266.46
462.083	21886.13
462.289	21517.5
462.494	21578.93
462.7	20198.6
462.905	19555.54
463.111	20522.18
463.316	20673.73
463.522	20002
463.727	20223.18
463.932	20202.7
464.138	19821.78
464.343	19950.8
464.549	19373.27
464.754	20045.01
464.959	20022.48
465.165	19616.98
465.37	19012.83
465.575	18429.16
465.781	18994.4
465.986	19178.72
466.191	18478.31
466.397	18308.33
466.602	17306.87
466.807	17917.17
467.012	18099.44
467.218	17747.19
467.423	17677.55
467.628	17777.9
467.833	18298.09
468.038	17917.17
468.244	17233.15
468.449	18087.15
468.654	17358.07
468.859	17345.78
469.064	16925.95
469.269	16626.95
469.474	16606.47
469.679	16940.29
469.885	16162.06
470.09	16823.55
470.295	16469.25
470.5	16100.62
470.705	16289.03
470.91	16026.89
471.115	15645.97
471.32	15856.91
471.525	15863.05
471.73	15650.07
471.935	15553.81
472.139	14939.42
472.344	15209.75
472.549	15129.88
472.754	14826.78
472.959	14652.7
473.164	14112.04
473.369	13894.96
473.574	14423.33
473.778	14193.96
473.983	14404.9
474.188	14230.82
474.393	13477.17
474.598	13446.45
474.802	13571.38
475.007	13417.78
475.212	13456.69
475.417	13038.91
475.621	12985.66
475.826	13135.16
476.031	12916.03
476.235	12467.52
476.44	12772.67
476.645	12528.96
476.849	12426.56
477.054	12313.92
477.259	12272.96
477.463	12150.09
477.668	11820.36
477.872	12033.35
478.077	11720.01
478.282	11421.01
478.486	11457.87
478.691	11281.75
478.895	11447.63
479.1	11324.76
479.304	11173.21
479.509	10909.02
479.713	11230.55
479.918	10972.5
480.122	10646.88
480.326	10714.46
480.531	11007.32
480.735	10769.76
480.94	10515.81
481.144	10999.13
481.348	10612.06
481.553	10728.8
481.757	10265.96
481.961	10524
482.166	10532.19
482.37	10472.8
482.574	10356.07
482.778	10388.83
482.983	10728.8
483.187	10452.32
483.391	10351.97
483.595	10403.17
483.8	10294.63
484.004	10472.8
484.208	10691.93
484.412	10614.11
484.616	10616.16
484.821	10190.18
485.025	10345.83
485.229	10480.99
485.433	10364.26
485.637	10397.03
485.841	10292.58
486.045	10356.07
486.249	10358.11
486.453	10405.22
486.657	10476.9
486.861	10386.79
487.065	10036.58
487.269	10433.89
487.473	10214.76
487.677	10562.91
487.881	10689.88
488.085	10448.22
488.289	10528.1
488.493	10437.98
488.697	10564.96
488.901	10401.12
489.105	10524
489.309	10483.04
489.512	10718.56
489.716	10573.15
489.92	10556.77
490.124	10632.54
490.328	10759.52
490.531	10663.26
490.735	10769.76
490.939	10751.32
491.143	10640.73
491.346	10763.61
491.55	10929.5
491.754	10683.74
491.958	11025.75
492.161	11009.37
492.365	11040.09
492.569	10915.16
492.772	10734.94
492.976	11074.9
493.18	11142.49
493.383	11083.09
493.587	11255.12
493.79	11361.62
493.994	11193.69
494.197	11445.59
494.401	11537.74
494.605	11507.02
494.808	11717.97
495.012	11621.71
495.215	11861.32
495.419	11881.8
495.622	11679.05
495.825	12051.78
496.029	11998.54
496.232	12375.36
496.436	12240.2
496.639	12531.01
496.843	12465.47
497.046	12860.73
497.249	12858.68
497.453	13047.1
497.656	12899.64
497.859	13077.82
498.063	13212.98
498.266	13710.64
498.469	13497.65
498.673	13538.61
498.876	13735.21
499.079	13825.33
499.282	13722.93
499.485	14265.64
499.689	14306.6
499.892	14476.58
500.095	14540.07
500.298	14994.72
500.501	14783.77
500.705	15111.45
500.908	15590.67
501.111	15332.63
501.314	15402.26
501.517	15707.41
501.72	16045.32
501.923	15854.86
502.126	16280.84
502.329	16502.02
502.532	16741.63
502.735	16530.69
502.938	17052.92
503.141	17247.48
503.344	17186.04
503.547	17546.48
503.75	17935.6
503.953	17847.54
504.156	17870.06
504.359	18427.11
504.562	18312.42
504.765	18750.69
504.968	18576.61
505.17	18914.53
505.373	18973.92
505.576	19684.56
505.779	19614.93
505.982	19741.91
506.185	20356.3
506.387	20028.62
506.59	20360.39
506.793	20860.1
506.996	20821.19
507.198	21210.3
507.401	21167.29
507.604	21566.65
507.807	21978.29
508.009	21908.66
508.212	22125.74
508.415	22176.94
508.617	22385.83
508.82	22840.48
509.022	22580.39
509.225	23276.7
509.428	23379.1
509.63	23354.52
509.833	23665.81
510.035	24409.23
510.238	24269.97
510.44	24448.14
510.643	24654.98
510.845	25083.01
511.048	25154.69
511.25	25064.58
511.453	25332.86
511.655	26420.33
511.858	26055.79
512.06	26356.85
512.262	26444.91
512.465	26279.02
512.667	26739.82
512.87	27229.28
513.072	27278.43
513.274	27303.01
513.477	27919.45
513.679	28466.25
513.881	28869.7
514.084	29070.4
514.286	28613.71
514.488	29180.99
514.69	29819.96
514.893	29879.35
515.095	29727.8
515.297	30495.79
515.499	29948.98
515.701	30905.38
515.904	31073.32
516.106	31210.53
516.308	31857.69
516.51	31726.62
516.712	31906.84
516.914	32355.35
517.116	32472.08
517.318	32928.78
517.52	33022.98
517.722	33041.42
517.925	33666.05
518.127	34096.12
518.329	34348.02
518.531	33827.84
518.733	34903.02
518.935	34765.81
519.136	35263.46
519.338	35722.21
519.54	35599.33
519.742	35861.47
519.944	35982.3
520.146	36811.73
520.348	36746.19
520.55	37125.07
520.752	37053.39
520.954	37716.93
521.155	37426.12
521.357	37778.37
521.559	38151.1
521.761	38722.48
521.963	38804.4
522.164	39119.79
522.366	39046.06
522.568	39711.65
522.77	39551.91
522.971	40467.35
523.173	40012.7
523.375	40307.61
523.576	40381.34
523.778	40469.4
523.98	40829.84
524.181	41022.35
524.383	41096.08
524.584	41321.35
524.786	41829.25
524.988	41894.78
525.189	42201.98
525.391	42249.08
525.592	41980.8
525.794	42670.96
525.995	42601.33
526.197	43137.9
526.398	43066.22
526.6	43062.13
526.801	43142
527.003	43674.47
527.204	43619.17
527.406	43772.77
527.607	43699.05
527.808	44147.55
528.01	43717.48
528.211	44360.54
528.412	44854.1
528.614	44344.16
528.815	44807
529.016	45099.86
529.218	44356.44
529.419	44835.67
529.62	44710.74
529.822	45022.03
530.023	44706.65
530.224	45134.67
530.425	45286.22
530.626	44698.45
530.828	44854.1
531.029	45556.55
531.23	45200.21
531.431	45394.76
531.632	45515.59
531.833	45833.03
532.035	45468.49
532.236	46005.06
532.437	45812.55
532.638	45708.1
532.839	45699.91
533.04	46289.73
533.241	45632.33
533.442	46461.76
533.643	46041.92
533.844	45783.88
534.045	46457.66
534.246	45699.91
534.447	46086.98
534.648	46023.49
534.849	46445.37
535.05	45876.04
535.251	46326.59
535.451	46242.62
535.652	46279.49
535.853	46115.65
536.054	46234.43
536.255	46187.33
536.456	46046.02
536.657	46496.57
536.857	45890.37
537.058	45683.53
537.259	46250.81
537.46	46433.08
537.66	46510.91
537.861	46484.28
538.062	45914.95
538.263	46240.57
538.463	46428.99
538.664	46140.22
538.865	46162.75
539.065	46633.78
539.266	45615.94
539.466	46756.66
539.667	45581.13
539.868	46605.11
540.068	46252.86
540.269	45884.23
540.469	46316.35
540.67	45783.88
540.87	45896.52
541.071	46129.98
541.271	46682.94
541.472	46066.5
541.672	45656.9
541.873	46091.07
542.073	45599.56
542.274	46355.26
542.474	46347.07
542.675	45751.11
542.875	46105.41
543.075	46469.95
543.276	45585.22
543.476	46617.4
543.676	45763.4
543.877	46281.53
544.077	46213.95
544.277	45730.63
544.478	45527.88
544.678	46031.68
544.878	45857.6
545.078	46351.16
545.279	45515.59
545.479	45435.72
545.679	45755.21
545.879	45683.53
546.079	45607.75
546.28	45945.67
546.48	45636.42
546.68	45767.49
546.88	45906.76
547.08	45626.18
547.28	45910.85
547.48	45173.58
547.68	45790.02
547.88	45249.36
548.081	45613.9
548.281	45880.13
548.481	45441.87
548.681	45830.98
548.881	45521.74
549.081	45597.51
549.28	45388.62
549.48	45452.11
549.68	45742.92
549.88	46222.14
550.08	45654.86
550.28	45894.47
550.48	45439.82
550.68	45353.8
550.88	45083.47
551.08	45155.15
551.279	45853.51
551.479	44925.78
551.679	45257.55
551.879	45331.28
552.079	45597.51
552.278	45065.04
552.478	45624.14
552.678	45329.23
552.878	45501.26
553.077	45290.32
553.277	44858.2
553.477	45560.65
553.676	45243.21
553.876	45615.94
554.076	45169.49
554.275	45278.03
554.475	44376.92
554.674	45095.76
554.874	45110.1
555.074	44790.61
555.273	45050.7
555.473	44804.95
555.672	44747.61
555.872	44622.68
556.071	44852.05
556.271	45255.5
556.47	45034.32
556.67	44807
556.869	44684.12
557.068	45292.36
557.268	44354.4
557.467	44477.27
557.667	44288.86
557.866	44823.38
558.065	44276.57
558.265	43766.63
558.464	44086.11
558.663	44454.75
558.863	43905.89
559.062	44841.81
559.261	44278.62
559.461	44104.54
559.66	43879.27
559.859	43541.35
560.058	43772.77
560.258	44010.34
560.457	43537.26
560.656	44010.34
560.855	43774.82
561.054	43848.55
561.253	43453.29
561.453	43639.65
561.652	43762.53
561.851	43473.77
562.05	42902.39
562.249	43369.32
562.448	43707.24
562.647	42955.63
562.846	43273.07
563.045	43658.09
563.244	42656.63
563.443	43357.03
563.642	42582.9
563.841	42855.28
564.04	42552.18
564.239	42875.76
564.438	42294.14
564.637	42668.92
564.836	42652.53
565.035	42107.77
565.234	42519.42
565.432	41964.42
565.631	42173.31
565.83	41773.95
566.029	42075.01
566.228	41616.26
566.427	41915.26
566.625	41507.72
566.824	41108.36
567.023	42003.33
567.222	41296.78
567.42	41884.54
567.619	41597.83
567.818	41309.07
568.016	41237.39
568.215	41552.77
568.414	41347.98
568.612	41384.84
568.811	41051.02
569.01	40858.51
569.208	40412.06
569.407	41051.02
569.605	40373.14
569.804	40817.55
570.002	40496.02
570.201	40854.42
570.4	40086.43
570.598	40002.46
570.797	39754.66
570.995	40362.9
571.193	39717.79
571.392	40164.25
571.59	39549.86
571.789	39654.31
571.987	39869.34
572.186	40020.89
572.384	39349.16
572.582	39504.81
572.781	39607.2
572.979	38966.19
573.177	39312.3
573.376	39093.16
573.574	38970.29
573.772	39146.41
573.971	38730.67
574.169	38437.81
574.367	38579.12
574.565	38644.66
574.763	38314.94
574.962	38478.77
575.16	38116.28
575.358	38460.34
575.556	37688.26
575.754	38398.9
575.952	37872.57
576.151	38009.79
576.349	37872.57
576.547	37481.41
576.745	37698.5
576.943	37643.2
577.141	37510.08
577.339	37329.86
577.537	37278.66
577.735	37141.45
577.933	37129.16
578.131	37274.57
578.329	36891.6
578.527	36895.69
578.725	36848.59
578.923	36846.54
579.121	36848.59
579.319	36889.55
579.516	36367.32
579.714	36856.78
579.912	36101.08
580.11	35988.44
580.308	36096.99
580.506	36060.12
580.704	35673.06
580.901	35863.52
581.099	35836.89
581.297	35589.09
581.495	35754.97
581.692	35722.21
581.89	35425.25
582.088	35460.07
582.285	35320.81
582.483	35564.51
582.681	35648.48
582.878	35337.19
583.076	34991.08
583.274	35271.65
583.471	34708.46
583.669	34862.06
583.866	34550.77
584.064	34786.29
584.262	34135.03
584.459	34450.42
584.657	33891.32
584.854	34604.02
585.052	33971.19
585.249	34085.88
585.447	34251.77
585.644	33645.57
585.841	33471.49
586.039	34219
586.236	33487.87
586.434	33655.81
586.631	33258.5
586.828	33248.26
587.026	33557.5
587.223	33172.49
587.42	33555.46
587.618	33063.94
587.815	32629.77
588.012	32791.56
588.21	32969.74
588.407	33121.29
588.604	32527.38
588.801	32381.97
588.999	32306.2
589.196	32298
589.393	32181.27
589.59	31935.51
589.787	31779.87
589.984	31822.87
590.182	31448.1
590.379	31839.26
590.576	31548.45
590.773	31960.09
590.97	31724.57
591.167	31732.76
591.364	30792.75
591.561	31595.55
591.758	31030.31
591.955	31095.85
592.152	31198.24
592.349	30938.15
592.546	30854.19
592.743	30999.59
592.94	30346.29
593.137	30467.12
593.334	30923.82
593.531	30303.28
593.727	30264.37
593.924	30417.97
594.121	29994.04
594.318	30157.88
594.515	29959.22
594.712	29991.99
594.908	29912.12
595.105	29643.84
595.302	29398.08
595.499	29852.73
595.696	29557.82
595.892	29600.83
596.089	29434.94
596.286	29291.59
596.482	29310.02
596.679	29269.06
596.876	29037.64
597.072	29260.87
597.269	29170.75
597.466	28720.2
597.662	28798.02
597.859	28814.41
598.055	28757.07
598.252	28134.48
598.448	28165.2
598.645	28167.25
598.841	27829.34
599.038	28482.64
599.234	27962.45
599.431	27870.29
599.627	27823.19
599.824	28234.83
600.02	27835.48
600.217	27589.72
600.413	27700.31
600.609	27300.96
600.806	27227.23
601.002	27487.32
601.198	26989.67
601.395	26985.57
601.591	27169.89
601.787	27212.9
601.984	26942.56
602.18	27006.05
602.376	26907.75
602.572	26346.61
602.769	26418.28
602.965	26449
603.161	26596.46
603.357	26342.51
603.553	26526.83
603.75	26276.98
603.946	25842.81
604.142	26098.8
604.338	25592.95
604.534	25996.4
604.73	25332.86
604.926	25744.5
605.122	25820.28
605.318	25457.79
605.514	25320.57
605.71	25310.33
605.906	25293.95
606.102	25310.33
606.298	25439.36
606.494	25236.61
606.69	25261.18
606.886	25083.01
607.082	24753.29
607.278	24937.6
607.474	24513.67
607.67	24734.85
607.866	24560.78
608.062	25015.43
608.257	24843.4
608.453	24409.23
608.649	24896.64
608.845	24417.42
609.041	24437.9
609.236	24648.84
609.432	24081.55
609.628	24239.25
609.824	24245.39
610.019	24294.54
610.215	23993.49
610.411	24368.27
610.606	23960.72
610.802	24081.55
610.998	23925.91
611.193	24122.51
611.389	23835.8
611.584	23909.52
611.78	23704.73
611.976	23579.8
612.171	23864.47
612.367	23700.63
612.562	23479.45
612.758	23174.3
612.953	23336.09
613.149	23811.22
613.344	23258.27
613.539	23229.6
613.735	23235.74
613.93	23252.13
614.126	23145.63
614.321	23319.71
614.517	23239.84
614.712	23413.91
614.907	22760.61
615.103	23116.96
615.298	22977.7
615.493	23133.34
615.688	22643.88
615.884	22881.44
616.079	22723.75
616.274	22584.49
616.47	22453.42
616.665	22688.93
616.86	22367.4
617.055	22805.67
617.25	22531.24
617.445	22639.78
617.641	22148.27
617.836	22416.55
618.031	22080.69
618.226	22062.26
618.421	22004.91
618.616	22322.35
618.811	21718.2
619.006	22162.61
619.201	22052.02
619.396	21695.67
619.591	21570.74
619.786	21802.16
619.981	21327.03
620.176	21329.08
620.371	21161.15
620.566	21398.71
620.761	21079.23
620.956	21255.36
621.151	20735.17
621.346	21087.42
621.541	21003.46
621.735	20790.47
621.93	20573.38
622.125	20767.94
622.32	20358.35
622.515	20579.53
622.709	20354.25
622.904	20253.9
623.099	20200.65
623.294	20102.35
623.488	19594.45
623.683	20096.21
623.878	19502.29
624.072	19684.56
624.267	19377.37
624.462	19309.79
624.656	19375.32
624.851	19223.77
625.046	19031.26
625.24	19061.98
625.435	18924.77
625.629	18670.82
625.824	18586.85
626.018	18545.89
626.213	18312.42
626.407	18302.18
626.602	18052.33
626.796	18228.46
626.991	18279.66
627.185	17894.64
627.38	18205.93
627.574	17884.4
627.768	17743.09
627.963	17728.75
628.157	17562.87
628.352	17505.52
628.546	17069.31
628.74	17491.19
628.935	17167.61
629.129	17112.31
629.323	16786.69
629.517	16762.11
629.712	16932.09
629.906	16891.13
630.1	16479.49
630.294	16620.8
630.489	16454.92
630.683	16506.12
630.877	16383.24
631.071	15901.97
631.265	16030.99
631.459	15955.21
631.653	16004.36
631.848	16080.14
632.042	15619.35
632.236	15895.82
632.43	15459.6
632.624	15504.66
632.818	15379.73
633.012	15187.22
633.206	15338.77
633.4	15510.8
633.594	14986.52
633.788	15263
633.982	14976.28
634.176	15027.48
634.369	14927.13
634.563	14929.18
634.757	14619.94
634.951	14769.44
635.145	14701.86
635.339	14597.41
635.533	14376.23
635.726	14435.62
635.92	14099.75
636.114	14241.06
636.308	14144.81
636.501	14368.04
636.695	14009.64
636.889	13929.77
637.083	13909.29
637.276	13716.78
637.47	13606.19
637.664	13466.93
637.857	13589.81
638.051	13641.01
638.244	13505.84
638.438	13718.83
638.632	13368.63
638.825	12997.95
639.019	12993.85
639.212	13192.5
639.406	13182.26
639.599	12653.89
639.793	13143.35
639.986	12776.77
640.18	12864.83
640.373	12668.22
640.567	12678.46
640.76	12899.64
640.954	12453.19
641.147	12186.95
641.34	12191.05
641.534	12260.68
641.727	12236.1
641.92	12152.13
642.114	12178.76
642.307	12086.6
642.5	11900.23
642.694	11879.75
642.887	11640.14
643.08	11935.05
643.273	11801.93
643.467	11734.35
643.66	11558.22
643.853	11558.22
644.046	11378
644.239	11580.75
644.432	11189.59
644.626	11461.97
644.819	11132.25
645.012	11179.35
645.205	11416.91
645.398	11093.33
645.591	11154.77
645.784	11079
645.977	11113.81
646.17	10892.63
646.363	10732.89
646.556	10607.97
646.749	10835.29
646.942	10663.26
647.135	10515.81
647.328	10448.22
647.521	10370.4
647.714	10237.28
647.907	10450.27
648.099	10302.82
648.292	10552.67
648.485	10364.26
648.678	10159.46
648.871	10196.32
649.064	9930.09
649.256	10087.78
649.449	10124.65
649.642	9999.72
649.835	9813.35
650.027	9801.07
650.22	9694.57
650.413	9801.07
650.605	9538.93
650.798	9540.97
650.991	9469.3
651.183	9583.98
651.376	9244.02
651.568	9497.97
651.761	9235.83
651.954	9194.87
652.146	9008.5
652.339	9248.11
652.531	9215.35
652.724	9207.16
652.916	8863.1
653.109	9084.28
653.301	8906.1
653.494	8967.54
653.686	8785.27
653.879	8809.85
654.071	8740.22
654.263	8738.17
654.456	8871.29
654.648	8871.29
654.84	8568.19
655.033	8611.2
655.225	8541.57
655.417	8433.02
655.61	8594.81
655.802	8433.02
655.994	8332.67
656.186	8244.61
656.379	8314.24
656.571	8183.17
656.763	8224.13
656.955	8265.09
657.148	8185.22
657.34	8050.05
657.532	8039.81
657.724	8031.62
657.916	8043.91
658.108	8029.57
658.3	7886.22
658.492	7923.08
658.684	7769.48
658.876	7824.78
659.068	7783.82
659.26	7589.26
659.452	7538.06
659.644	7708.04
659.836	7830.92
660.028	7650.7
660.22	7443.85
660.412	7509.39
660.604	7542.16
660.796	7316.88
660.988	7603.6
661.18	7271.83
661.372	7406.99
661.563	7239.06
661.755	7052.69
661.947	7175.57
662.139	7222.67
662.331	6993.3
662.522	6974.87
662.714	6966.68
662.906	7058.84
663.097	6935.96
663.289	7204.24
663.481	6993.3
663.673	6960.53
663.864	6686.11
664.056	6708.63
664.247	6876.57
664.439	6704.54
664.631	6784.41
664.822	6745.5
665.014	6575.52
665.205	6624.67
665.397	6823.32
665.588	6536.6
665.78	6481.31
665.971	6356.38
666.163	6596
666.354	6430.11
666.546	6495.64
666.737	6591.9
666.929	6518.17
667.12	6387.1
667.311	6428.06
667.503	6346.14
667.694	6413.73
667.885	6301.09
668.077	6307.23
668.268	6073.76
668.459	6288.8
668.651	6118.82
668.842	6378.91
669.033	6098.34
669.224	6084
669.416	6174.11
669.607	6196.64
669.798	6061.48
669.989	6034.85
670.18	6133.15
670.371	6034.85
670.563	6067.62
670.754	6022.56
670.945	5969.32
671.136	6106.53
671.327	5914.02
671.518	6004.13
671.709	5977.51
671.9	5954.98
672.091	5924.26
672.282	5862.82
672.473	5895.59
672.664	5709.22
672.855	5871.01
673.046	5723.56
673.237	5754.28
673.428	5674.41
673.619	5805.48
673.809	5584.3
674	5594.54
674.191	5840.29
674.382	5686.7
674.573	5793.19
674.764	5594.54
674.954	5662.12
675.145	5703.08
675.336	5518.76
675.527	5526.96
675.717	5631.4
675.908	5592.49
676.099	5666.22
676.289	5739.94
676.48	5414.32
676.671	5420.46
676.861	5467.56
677.052	5389.74
677.243	5533.1
677.433	5551.53
677.624	5543.34
677.814	5471.66
678.005	5477.8
678.195	5486
678.386	5338.54
678.576	5395.89
678.767	5287.34
678.957	5477.8
679.148	5367.21
679.338	5666.22
679.529	5440.94
679.719	5404.08
679.909	5481.9
680.1	5506.48
680.29	5412.27
680.481	5406.13
680.671	5279.15
680.861	5428.65
681.052	5664.17
681.242	5248.43
681.432	5541.29
681.622	5338.54
681.813	5195.18
682.003	5211.57
682.193	5336.49
682.383	5340.59
682.573	5205.42
682.764	5207.47
682.954	5367.21
683.144	5182.9
683.334	5313.97
683.524	5336.49
683.714	5150.13
683.904	5199.28
684.094	5447.08
684.284	5150.13
684.474	5289.39
684.664	5174.71
684.854	5191.09
685.044	5066.16
685.234	5168.56
685.424	5117.36
685.614	5119.41
685.804	5086.64
685.994	5133.75
686.184	4994.48
686.374	5055.92
686.564	4961.72
686.753	5033.4
686.943	5000.63
687.133	5133.75
687.323	4978.1
687.513	4986.29
687.702	4763.06
687.892	4967.86
688.082	4916.66
688.272	4900.28
688.461	4871.61
688.651	4924.85
688.841	4593.08
689.03	4799.93
689.22	4756.92
689.41	4756.92
689.599	4627.9
689.789	4621.75
689.979	4539.83
690.168	4529.59
690.358	4562.36
690.547	4599.23
690.737	4541.88
690.926	4597.18
691.116	4349.37
691.305	4593.08
691.495	4527.55
691.684	4361.66
691.874	4320.7
692.063	4390.33
692.252	4343.23
692.442	4365.76
692.631	4279.74
692.82	4279.74
693.01	4289.98
693.199	4208.06
693.388	4289.98
693.578	4234.69
693.767	4142.53
693.956	4167.1
694.146	4140.48
694.335	4275.65
694.524	4109.76
694.713	4253.12
694.902	4070.85
695.092	4050.37
695.281	4089.28
695.47	3997.12
695.659	3982.79
695.848	3941.83
696.037	3890.63
696.226	3921.35
696.415	3849.67
696.604	4144.58
696.793	3943.88
696.982	4021.7
697.171	3995.08
697.36	3943.88
697.549	3941.83
697.738	3823.05
697.927	3859.91
698.116	3954.12
698.305	3900.87
698.494	3970.5
698.683	3894.72
698.872	3964.36
699.061	3786.18
699.25	3775.94
699.438	3771.85
699.627	3737.03
699.816	3827.14
700.005	3825.09
700.193	3751.37
700.382	3888.58
700.571	3659.21
700.76	3784.13
700.948	3769.8
701.137	3753.41
701.326	3806.66
701.514	3644.87
701.703	3700.17
701.892	3718.6
702.08	3874.24
702.269	3640.78
702.457	3724.74
702.646	3782.09
702.834	3800.52
703.023	3880.39
703.212	3734.98
703.4	3759.56
703.589	3657.16
703.777	3628.49
703.965	3728.84
704.154	3696.07
704.342	3669.45
704.531	3659.21
704.719	3601.87
704.907	3712.46
705.096	3593.67
705.284	3685.83
705.472	3571.15
705.661	3691.98
705.849	3614.15
706.037	3661.26
706.226	3517.9
706.414	3605.96
706.602	3538.38
706.79	3769.8
706.979	3671.5
707.167	3743.17
707.355	3659.21
707.543	3648.97
707.731	3597.77
707.919	3589.58
708.107	3675.59
708.296	3646.92
708.484	3640.78
708.672	3624.39
708.86	3747.27
709.048	3642.82
709.236	3657.16
709.424	3683.78
709.612	3700.17
709.8	3694.02
709.988	3653.06
710.176	3782.09
710.364	3763.65
710.551	3704.26
710.739	3710.41
710.927	3890.63
711.115	3708.36
711.303	3720.65
711.491	3814.85
711.679	3872.2
711.866	3630.54
712.054	3726.79
712.242	3700.17
712.43	3896.77
712.617	3722.7
712.805	3857.86
712.993	3642.82
713.181	3651.02
713.368	3694.02
713.556	3812.81
713.744	3798.47
713.931	3804.61
714.119	3753.41
714.306	3683.78
714.494	3653.06
714.682	3675.59
714.869	3757.51
715.057	3792.33
715.244	3732.94
715.432	3751.37
715.619	3710.41
715.807	3892.68
715.994	3790.28
716.182	3790.28
716.369	3798.47
716.556	3892.68
716.744	3685.83
716.931	3837.38
717.119	3859.91
717.306	3825.09
717.493	3708.36
717.681	3956.16
717.868	3896.77
718.055	3861.96
718.242	3818.95
718.43	3982.79
718.617	3931.59
718.804	3864.01
718.991	3931.59
719.179	3913.16
719.366	3818.95
719.553	3984.84
719.74	3835.33
719.927	3956.16
720.114	3913.16
720.301	3808.71
720.488	3974.6
720.676	3810.76
720.863	4036.03
721.05	3929.54
721.237	3960.26
721.424	3931.59
721.611	3956.16
721.798	3833.29
721.985	3915.2
722.172	3872.2
722.358	4015.55
722.545	3925.44
722.732	3972.55
722.919	3841.48
723.106	4038.08
723.293	4062.66
723.48	3821
723.667	3859.91
723.853	3917.25
724.04	3956.16
724.227	4056.51
724.414	3919.3
724.6	3872.2
724.787	4021.7
724.974	4064.71
725.161	3970.5
725.347	3812.81
725.534	4089.28
725.72	4126.15
725.907	4044.23
726.094	4060.61
726.28	3993.03
726.467	4052.42
726.653	3921.35
726.84	4070.85
727.027	4019.65
727.213	4011.46
727.4	3937.73
727.586	3894.72
727.773	4062.66
727.959	4074.95
728.145	4036.03
728.332	4126.15
728.518	4167.1
728.705	4023.75
728.891	4056.51
729.077	4089.28
729.264	4064.71
729.45	4068.8
729.636	4187.58
729.823	4007.36
730.009	4226.5
730.195	3972.55
730.382	4081.09
730.568	4076.99
730.754	4152.77
730.94	3972.55
731.126	4144.58
731.313	4169.15
731.499	4091.33
731.685	4177.34
731.871	4019.65
732.057	4068.8
732.243	4115.91
732.429	3962.31
732.615	4226.5
732.801	4191.68
732.987	4081.09
733.173	4050.37
733.359	4113.86
733.545	4130.24
733.731	4171.2
733.917	4113.86
734.103	4058.56
734.289	4111.81
734.475	4120
734.661	4222.4
734.847	4040.13
735.033	4111.81
735.219	4001.22
735.404	4033.99
735.59	4070.85
735.776	4122.05
735.962	4074.95
736.148	4081.09
736.333	4120
736.519	3964.36
736.705	3978.69
736.89	4019.65
737.076	4079.04
737.262	4023.75
737.447	4052.42
737.633	4021.7
737.819	4068.8
738.004	3990.98
738.19	3775.94
738.375	3915.2
738.561	3988.93
738.747	4003.27
738.932	3859.91
739.118	3958.21
739.303	3954.12
739.489	4042.18
739.674	3825.09
739.859	3841.48
740.045	3990.98
740.23	3876.29
740.416	3841.48
740.601	3921.35
740.786	3880.39
740.972	3864.01
741.157	3896.77
741.342	3708.36
741.528	3753.41
741.713	3788.23
741.898	3665.35
742.084	3691.98
742.269	3943.88
742.454	3632.58
742.639	3792.33
742.824	3833.29
743.01	3685.83
743.195	3888.58
743.38	3743.17
743.565	3800.52
743.75	3747.27
743.935	3552.71
744.12	3765.7
744.305	3605.96
744.49	3605.96
744.675	3528.14
744.86	3577.29
745.045	3622.34
745.23	3644.87
745.415	3640.78
745.6	3605.96
745.785	3476.94
745.97	3638.73
746.155	3573.19
746.34	3464.65
746.525	3524.04
746.71	3532.23
746.895	3388.88
747.079	3388.88
747.264	3405.26
747.449	3335.63
747.634	3356.11
747.819	3364.3
748.003	3313.1
748.188	3392.97
748.373	3241.42
748.557	3261.9
748.742	3157.46
748.927	3118.54
749.111	3192.27
749.296	3218.89
749.481	3147.22
749.665	3253.71
749.85	3130.83
750.034	3106.26
750.219	3126.74
750.404	3046.87
750.588	3091.92
750.773	2846.16
750.957	2985.43
751.141	2950.61
751.326	2905.56
751.51	2938.32
751.695	2815.45
751.879	2854.36
752.064	2979.28
752.248	2876.88
752.432	2852.31
752.617	2952.66
752.801	2762.2
752.985	2835.92
753.17	2803.16
753.354	2704.85
753.538	2676.18
753.722	2741.72
753.907	2612.7
754.091	2655.7
754.275	2692.57
754.459	2692.57
754.643	2534.87
754.828	2631.13
755.012	2522.59
755.196	2514.39
755.38	2524.63
755.564	2557.4
755.748	2569.69
755.932	2538.97
756.116	2498.01
756.3	2364.89
756.484	2375.13
756.668	2362.84
756.852	2307.55
757.036	2381.28
757.22	2368.99
757.404	2246.11
757.588	2405.85
757.772	2420.19
757.956	2325.98
758.14	2344.41
758.323	2250.21
758.507	2373.08
758.691	2141.66
758.875	2242.01
759.059	2260.45
759.242	2225.63
759.426	2211.29
759.61	2051.55
759.794	2049.5
759.977	2176.48
760.161	2203.1
760.345	2074.08
760.528	2100.7
760.712	2098.66
760.895	1988.07
761.079	2131.42
761.263	2002.4
761.446	2076.13
761.63	2018.79
761.813	2080.22
761.997	1959.39
762.18	1867.24
762.364	2084.32
762.547	1981.92
762.731	1922.53
762.914	1906.15
763.098	1963.49
763.281	1938.91
763.464	1818.08
763.648	1945.06
763.831	1838.56
764.015	1940.96
764.198	1924.58
764.381	1865.19
764.564	1832.42
764.748	1992.16
764.931	1865.19
765.114	1854.95
765.297	1725.93
765.481	1742.31
765.664	1791.46
765.847	1818.08
766.03	1861.09
766.213	1766.89
766.397	1699.3
766.58	1586.66
766.763	1865.19
766.946	1676.77
767.129	1705.45
767.312	1603.05
767.495	1699.3
767.678	1674.73
767.861	1603.05
768.044	1697.25
768.227	1623.53
768.41	1721.83
768.593	1617.38
768.776	1586.66
768.959	1514.98
769.142	1646.05
769.324	1607.14
769.507	1564.14
769.69	1611.24
769.873	1617.38
770.056	1609.19
770.239	1668.58
770.421	1535.46
770.604	1570.28
770.787	1496.55
770.97	1646.05
771.152	1490.41
771.335	1504.75
771.518	1484.27
771.7	1519.08
771.883	1553.9
772.066	1492.46
772.248	1514.98
772.431	1486.31
772.613	1504.75
772.796	1406.44
772.978	1476.07
773.161	1465.83
773.343	1310.19
773.526	1459.69
773.708	1283.56
773.891	1428.97
774.073	1357.29
774.256	1361.39
774.438	1449.45
774.621	1416.68
774.803	1273.32
774.985	1392.11
775.168	1302
775.35	1299.95
775.532	1267.18
775.715	1320.43
775.897	1361.39
776.079	1261.04
776.261	1394.15
776.444	1330.67
776.626	1175.02
776.808	1136.11
776.99	1230.32
777.173	1193.45
777.355	1197.55
777.537	1252.84
777.719	1230.32
777.901	1232.37
778.083	1168.88
778.265	1123.82
778.447	1113.58
778.629	1150.45
778.811	1086.96
778.993	1113.58
779.175	1195.5
779.357	1170.93
779.539	1048.05
779.721	1082.86
779.903	1209.84
780.085	1043.95
780.267	1015.28
780.449	957.94
780.631	998.9
780.812	998.9
780.994	1089.01
781.176	1007.09
781.358	1007.09
781.54	1103.34
781.721	1039.86
781.903	1025.52
782.085	1035.76
782.267	1050.1
782.448	972.27
782.63	966.13
782.812	892.4
782.993	982.51
783.175	982.51
783.357	826.87
783.538	988.66
783.72	814.58
783.901	935.41
784.083	869.87
784.264	970.23
784.446	890.35
784.627	781.81
784.809	890.35
784.99	867.83
785.172	886.26
785.353	820.72
785.535	818.68
785.716	855.54
785.897	845.3
786.079	792.05
786.26	759.28
786.441	826.87
786.623	730.61
786.804	812.53
786.985	775.67
787.167	710.13
787.348	699.89
787.529	761.33
787.71	783.86
787.891	673.27
788.073	771.57
788.254	599.54
788.435	763.38
788.616	677.37
788.797	628.21
788.978	728.56
789.159	568.82
789.34	712.18
789.522	722.42
789.703	810.48
789.884	693.75
790.065	669.17
790.246	708.09
790.427	572.92
790.607	710.13
790.788	701.94
790.969	613.88
791.15	749.04
791.331	624.12
791.512	646.65
791.693	638.45
791.874	560.63
792.054	642.55
792.235	519.67
792.416	603.64
792.597	497.14
792.778	583.16
792.958	658.93
793.139	577.02
793.32	644.6
793.5	556.54
793.681	591.35
793.862	599.54
794.042	615.93
794.223	497.14
794.404	632.31
794.584	454.14
794.765	628.21
794.945	470.52
795.126	581.11
795.306	581.11
795.487	628.21
795.667	450.04
795.848	585.21
796.028	493.05
796.209	552.44
796.389	611.83
796.57	542.2
796.75	390.65
796.93	517.62
797.111	544.25
797.291	495.1
797.471	458.23
797.652	443.9
797.832	361.98
798.012	579.06
798.192	431.61
798.373	404.99
798.553	407.03
798.733	462.33
798.913	402.94
799.093	421.37
799.274	423.42
799.454	491
799.634	482.81
799.814	513.53
799.994	368.12
800.174	452.09
800.354	505.34
800.534	409.08
800.714	439.8
800.894	400.89
801.074	343.55
801.254	374.27
801.434	456.19
801.614	443.9
801.794	441.85
801.974	1310.19
802.154	419.32
802.334	368.12
802.514	380.41
802.693	402.94
802.873	464.38
803.053	564.73
803.233	333.31
803.413	435.71
803.592	384.51
803.772	378.36
803.952	361.98
804.131	359.93
804.311	361.98
804.491	384.51
804.67	370.17
804.85	343.55
805.03	437.75
805.209	482.81
805.389	380.41
805.568	318.97
805.748	443.9
805.928	413.18
806.107	380.41
806.287	400.89
806.466	368.12
806.646	353.79
806.825	357.88
807.004	318.97
807.184	316.92
807.363	394.75
807.543	312.83
807.722	286.2
807.901	407.03
808.081	316.92
808.26	235
808.439	318.97
808.619	306.68
808.798	259.58
808.977	331.26
809.156	349.69
809.336	374.27
809.515	378.36
809.694	296.44
809.873	282.11
810.052	372.22
810.231	407.03
810.411	339.45
810.59	331.26
810.769	321.02
810.948	327.16
811.127	245.24
811.306	288.25
811.485	351.74
811.664	376.31
811.843	255.48
812.022	198.14
812.201	282.11
812.38	296.44
812.559	210.43
812.737	278.01
812.916	228.86
813.095	235
813.274	347.64
813.453	341.5
813.632	214.52
813.811	247.29
813.989	296.44
814.168	347.64
814.347	253.44
814.526	218.62
814.704	308.73
814.883	218.62
815.062	294.4
815.24	316.92
815.419	232.96
815.598	212.48
815.776	222.72
815.955	177.66
816.133	218.62
816.312	263.68
816.49	220.67
816.669	243.2
816.847	271.87
817.026	232.96
817.204	249.34
817.383	163.33
817.561	165.37
817.74	312.83
817.918	206.33
818.097	181.76
818.275	216.57
818.453	257.53
818.632	259.58
818.81	235
818.988	255.48
819.167	230.91
819.345	310.78
819.523	120.32
819.701	222.72
819.879	200.19
820.058	214.52
820.236	263.68
820.414	177.66
820.592	142.85
820.77	226.81
820.948	169.47
821.127	220.67
821.305	267.77
821.483	144.89
821.661	269.82
821.839	251.39
822.017	228.86
822.195	222.72
822.373	198.14
822.551	192
822.729	245.24
822.907	228.86
823.085	226.81
823.262	173.57
823.44	151.04
823.618	148.99
823.796	173.57
823.974	146.94
824.152	202.24
824.329	232.96
824.507	202.24
824.685	296.44
824.863	132.61
825.04	146.94
825.218	169.47
825.396	161.28
825.574	169.47
825.751	245.24
825.929	181.76
826.107	128.51
826.284	138.75
826.462	194.05
826.639	105.98
826.817	153.09
826.994	218.62
827.172	148.99
827.349	148.99
827.527	169.47
827.704	232.96
827.882	161.28
828.059	202.24
828.237	161.28
828.414	194.05
828.591	97.79
828.769	138.75
828.946	95.74
829.124	208.38
829.301	206.33
829.478	189.95
829.655	183.81
829.833	187.9
830.01	136.7
830.187	222.72
830.364	163.33
830.542	132.61
830.719	216.57
830.896	185.85
831.073	148.99
831.25	161.28
831.427	132.61
831.604	200.19
831.782	128.51
831.959	171.52
832.136	138.75
832.313	171.52
832.49	140.8
832.667	124.41
832.844	36.35
833.021	108.03
833.198	146.94
833.374	99.84
833.551	138.75
833.728	128.51
833.905	167.42
834.082	28.16
834.259	159.23
834.436	187.9
834.612	130.56
834.789	155.13
834.966	89.6
835.143	153.09
835.319	126.46
835.496	54.78
835.673	169.47
835.85	204.28
836.026	165.37
836.203	132.61
836.38	71.17
836.556	138.75
836.733	101.89
836.909	153.09
837.086	153.09
837.262	120.32
837.439	122.37
837.616	148.99
837.792	85.5
837.968	54.78
838.145	62.98
838.321	132.61
838.498	89.6
838.674	118.27
838.851	185.85
839.027	175.61
839.203	177.66
839.38	136.7
839.556	103.93
839.732	83.45
839.909	62.98
840.085	146.94
840.261	95.74
840.437	93.69
840.614	112.13
840.79	128.51
840.966	54.78
841.142	124.41
841.318	46.59
841.494	187.9
841.671	75.26
841.847	95.74
842.023	58.88
842.199	46.59
842.375	83.45
842.551	24.06
842.727	44.54
842.903	112.13
843.079	136.7
843.255	93.69
843.431	114.17
843.607	87.55
843.783	56.83
843.959	181.76
844.134	81.41
844.31	67.07
844.486	101.89
844.662	91.65
844.838	75.26
845.013	95.74
845.189	153.09
845.365	79.36
845.541	116.22
845.716	28.16
845.892	112.13
846.068	62.98
846.244	95.74
846.419	46.59
846.595	71.17
846.77	62.98
846.946	142.85
847.122	-4.61
847.297	138.75
847.473	69.12
847.648	26.11
847.824	120.32
847.999	67.07
848.175	48.64
848.35	-27.14
848.526	95.74
848.701	95.74
848.876	200.19
849.052	122.37
849.227	52.74
849.403	151.04
849.578	85.5
849.753	46.59
849.929	175.61
850.104	95.74
850.279	26.11
850.454	79.36
850.63	-10.75
850.805	67.07
850.98	120.32
851.155	60.93
851.33	50.69
851.505	24.06
851.681	97.79
851.856	67.07
852.031	97.79
852.206	75.26
852.381	48.64
852.556	56.83
852.731	130.56
852.906	128.51
853.081	132.61
853.256	91.65
853.431	71.17
853.606	19.97
853.781	28.16
853.956	75.26
854.131	75.26
854.305	56.83
854.48	69.12
854.655	30.21
854.83	-12.8
855.005	7.68
855.18	79.36
855.354	85.5
855.529	112.13
855.704	73.21
855.879	54.78
856.053	11.78
856.228	134.65
856.403	42.5
856.577	52.74
856.752	22.02
856.926	85.5
857.101	24.06
857.276	-51.71
857.45	89.6
857.625	40.45
857.799	-18.94
857.974	62.98
858.148	54.78
858.323	34.3
858.497	-10.75
858.672	3.58
858.846	3.58
859.02	19.97
859.195	54.78
859.369	32.26
859.543	52.74
859.718	34.3
859.892	58.88
860.066	26.11
860.241	-12.8
860.415	46.59
860.589	5.63
860.763	87.55
860.938	-18.94
861.112	9.73
861.286	42.5
861.46	56.83
861.634	9.73
861.808	81.41
861.982	17.92
862.157	-57.86
862.331	32.26
862.505	22.02
862.679	62.98
862.853	26.11
863.027	81.41
863.201	108.03
863.375	-61.95
863.549	87.55
863.722	67.07
863.896	48.64
864.07	-25.09
864.244	9.73
864.418	56.83
864.592	79.36
864.766	38.4
864.939	48.64
865.113	28.16
865.287	89.6
865.461	22.02
865.634	85.5
865.808	65.02
865.982	9.73
866.156	-12.8
866.329	-33.28
866.503	46.59
866.676	79.36
866.85	36.35
867.024	15.87
867.197	112.13
867.371	50.69
867.544	-8.7
867.718	-45.57
867.891	120.32
868.065	30.21
868.238	38.4
868.412	50.69
868.585	-20.99
868.759	22.02
868.932	95.74
869.105	22.02
869.279	13.82
869.452	26.11
869.625	32.26
869.799	56.83
869.972	-51.71
870.145	50.69
870.319	65.02
870.492	-27.14
870.665	34.3
870.838	28.16
871.011	-8.7
871.185	11.78
871.358	48.64
871.531	75.26
871.704	-6.66
871.877	48.64
872.05	73.21
872.223	24.06
872.396	46.59
872.569	97.79
872.742	15.87
872.915	58.88
873.088	-23.04
873.261	36.35
873.434	79.36
873.607	11.78
873.78	77.31
873.953	-102.91
874.126	30.21
874.299	56.83
874.471	71.17
874.644	38.4
874.817	65.02
874.99	124.41
875.163	22.02
875.335	87.55
875.508	-61.95
875.681	71.17
875.853	32.26
876.026	40.45
876.199	-55.81
876.371	32.26
876.544	54.78
876.717	73.21
876.889	-12.8
877.062	40.45
877.234	9.73
877.407	-23.04
877.579	-4.61
877.752	130.56
877.924	13.82
878.097	-18.94
878.269	79.36
878.442	32.26
878.614	15.87
878.786	13.82
878.959	58.88
879.131	56.83
879.303	-41.47
879.476	44.54
879.648	38.4
879.82	24.06
879.993	-20.99
880.165	-23.04
880.337	1.54
880.509	-16.9
880.681	-43.52
880.854	71.17
881.026	26.11
881.198	42.5
881.37	-18.94
881.542	56.83
881.714	32.26
881.886	-43.52
882.058	-16.9
882.23	-8.7
882.402	30.21
882.574	87.55
882.746	56.83
882.918	34.3
883.09	65.02
883.262	17.92
883.434	112.13
883.606	-18.94
883.778	83.45
883.95	95.74
884.122	-18.94
884.293	89.6
884.465	22.02
884.637	38.4
884.809	42.5
884.98	-14.85
885.152	-35.33
885.324	99.84
885.496	-2.56
885.667	-27.14
885.839	9.73
886.011	87.55
886.182	54.78
886.354	40.45
886.525	30.21
886.697	5.63
886.869	-8.7
887.04	-8.7
887.212	42.5
887.383	81.41
887.555	-4.61
887.726	1.54
887.897	30.21
888.069	-35.33
888.24	40.45
888.412	13.82
888.583	3.58
888.754	79.36
888.926	-64
889.097	-2.56
889.268	-25.09
889.44	-27.14
889.611	-47.62
889.782	-27.14
889.953	-43.52
890.125	60.93
890.296	-35.33
890.467	44.54
890.638	15.87
890.809	13.82
890.98	24.06
891.151	-25.09
891.323	83.45
891.494	73.21
891.665	71.17
891.836	-47.62
892.007	28.16
892.178	-12.8
892.349	52.74
892.52	-107.01
892.691	17.92
892.862	-14.85
893.032	34.3
893.203	32.26
893.374	-14.85
893.545	79.36
893.716	42.5
893.887	7.68
894.057	15.87
894.228	26.11
894.399	-2.56
894.57	17.92
894.74	52.74
894.911	62.98
895.082	-31.23
895.253	60.93
895.423	-6.66
895.594	-0.51
895.764	91.65
895.935	-47.62
896.106	62.98
896.276	-2.56
896.447	5.63
896.617	-0.51
896.788	-20.99
896.958	-16.9
897.129	11.78
897.299	24.06
897.47	26.11
897.64	97.79
897.81	24.06
897.981	30.21
898.151	-39.42
898.322	22.02
898.492	62.98
898.662	-51.71
898.832	46.59
899.003	-0.51
899.173	-16.9
899.343	-20.99
899.513	13.82
