Data from USB4F104151__79__13-06-08-439.txt Node

Date: Fri Mar 14 13:06:08 EDT 2025
User: louis
Spectrometer: USB4F10415
Trigger mode: 4
Integration Time (sec): 4.000000E-2
Scans to average: 1
Electric dark correction enabled: true
Nonlinearity correction enabled: false
Boxcar width: 0
XAxis mode: Wavelengths
Number of Pixels in Spectrum: 3648
>>>>>Begin Spectral Data<<<<<
178.204	-156.67
178.424	-156.67
178.644	-156.67
178.864	-150.53
179.084	-183.29
179.304	-21.5
179.524	-15.36
179.744	78.85
179.964	11.26
180.184	-1.02
180.404	-41.98
180.624	27.65
180.844	-7.17
181.064	-41.98
181.283	1.02
181.503	23.55
181.723	-13.31
181.943	-74.75
182.163	150.53
182.383	44.03
182.602	37.89
182.822	68.61
183.042	70.65
183.262	17.41
183.482	62.46
183.701	48.13
183.921	41.98
184.141	-3.07
184.361	76.8
184.58	121.85
184.8	41.98
185.02	54.27
185.239	123.9
185.459	-9.22
185.679	5.12
185.898	-74.75
186.118	64.51
186.338	23.55
186.557	68.61
186.777	-23.55
186.997	31.74
187.216	25.6
187.436	115.71
187.655	78.85
187.875	91.13
188.095	19.46
188.314	97.28
188.534	119.81
188.753	29.7
188.973	9.22
189.192	50.18
189.412	21.5
189.631	31.74
189.851	76.8
190.07	87.04
190.29	-50.18
190.509	91.13
190.729	46.08
190.948	146.43
191.168	228.35
191.387	17.41
191.607	56.32
191.826	66.56
192.045	74.75
192.265	-7.17
192.484	7.17
192.704	72.7
192.923	-21.5
193.142	179.2
193.362	68.61
193.581	138.24
193.8	66.56
194.02	19.46
194.239	54.27
194.458	97.28
194.678	3.07
194.897	-7.17
195.116	48.13
195.335	-5.12
195.555	56.32
195.774	33.79
195.993	89.09
196.212	23.55
196.432	41.98
196.651	39.94
196.87	103.42
197.089	177.15
197.308	72.7
197.528	23.55
197.747	-37.89
197.966	-19.46
198.185	60.42
198.404	27.65
198.623	84.99
198.842	66.56
199.062	121.85
199.281	132.09
199.5	7.17
199.719	7.17
199.938	123.9
200.157	78.85
200.376	91.13
200.595	39.94
200.814	107.52
201.033	21.5
201.252	115.71
201.471	56.32
201.69	144.38
201.909	48.13
202.128	39.94
202.347	33.79
202.566	68.61
202.785	-5.12
203.004	1.02
203.223	119.81
203.442	91.13
203.661	72.7
203.879	33.79
204.098	113.66
204.317	17.41
204.536	142.33
204.755	39.94
204.974	80.89
205.193	19.46
205.411	150.53
205.63	158.72
205.849	50.18
206.068	-54.27
206.287	15.36
206.505	-25.6
206.724	-87.04
206.943	48.13
207.162	62.46
207.381	29.7
207.599	33.79
207.818	97.28
208.037	-1.02
208.255	9.22
208.474	27.65
208.693	93.18
208.911	58.37
209.13	84.99
209.349	84.99
209.567	95.23
209.786	80.89
210.005	123.9
210.223	11.26
210.442	31.74
210.661	136.19
210.879	115.71
211.098	82.94
211.316	41.98
211.535	66.56
211.753	74.75
211.972	25.6
212.191	35.84
212.409	80.89
212.628	82.94
212.846	17.41
213.065	121.85
213.283	46.08
213.502	3.07
213.72	66.56
213.938	121.85
214.157	82.94
214.375	101.37
214.594	19.46
214.812	60.42
215.031	50.18
215.249	-9.22
215.467	1.02
215.686	74.75
215.904	160.77
216.122	9.22
216.341	70.65
216.559	78.85
216.778	113.66
216.996	50.18
217.214	-41.98
217.432	-7.17
217.651	64.51
217.869	33.79
218.087	31.74
218.306	27.65
218.524	74.75
218.742	17.41
218.96	50.18
219.179	64.51
219.397	37.89
219.615	82.94
219.833	76.8
220.051	1.02
220.27	132.09
220.488	50.18
220.706	76.8
220.924	-21.5
221.142	-9.22
221.36	64.51
221.578	23.55
221.796	58.37
222.015	37.89
222.233	46.08
222.451	142.33
222.669	41.98
222.887	64.51
223.105	-13.31
223.323	21.5
223.541	-41.98
223.759	60.42
223.977	78.85
224.195	134.14
224.413	72.7
224.631	89.09
224.849	70.65
225.067	183.29
225.285	41.98
225.503	52.22
225.721	27.65
225.939	58.37
226.157	41.98
226.375	144.38
226.592	9.22
226.81	72.7
227.028	89.09
227.246	89.09
227.464	15.36
227.682	89.09
227.9	146.43
228.117	82.94
228.335	64.51
228.553	105.47
228.771	121.85
228.989	101.37
229.206	64.51
229.424	29.7
229.642	84.99
229.86	-52.22
230.077	76.8
230.295	48.13
230.513	33.79
230.731	148.48
230.948	107.52
231.166	39.94
231.384	-3.07
231.601	-99.33
231.819	144.38
232.037	78.85
232.254	41.98
232.472	-7.17
232.689	-1.02
232.907	62.46
233.125	-17.41
233.342	-41.98
233.56	54.27
233.777	-21.5
233.995	-1.02
234.213	148.48
234.43	107.52
234.648	74.75
234.865	103.42
235.083	66.56
235.3	44.03
235.518	109.57
235.735	70.65
235.953	148.48
236.17	113.66
236.388	35.84
236.605	1.02
236.822	113.66
237.04	99.33
237.257	44.03
237.475	39.94
237.692	27.65
237.909	19.46
238.127	19.46
238.344	103.42
238.562	103.42
238.779	-39.94
238.996	1.02
239.214	54.27
239.431	56.32
239.648	19.46
239.865	64.51
240.083	113.66
240.3	101.37
240.517	74.75
240.735	48.13
240.952	130.05
241.169	109.57
241.386	87.04
241.603	-41.98
241.821	7.17
242.038	50.18
242.255	82.94
242.472	-5.12
242.689	103.42
242.907	95.23
243.124	105.47
243.341	23.55
243.558	-17.41
243.775	33.79
243.992	-68.61
244.209	76.8
244.426	82.94
244.643	13.31
244.86	25.6
245.078	44.03
245.295	64.51
245.512	60.42
245.729	-17.41
245.946	123.9
246.163	64.51
246.38	35.84
246.597	103.42
246.814	46.08
247.031	-21.5
247.248	136.19
247.464	70.65
247.681	11.26
247.898	-15.36
248.115	166.91
248.332	-25.6
248.549	105.47
248.766	187.39
248.983	107.52
249.2	130.05
249.417	76.8
249.633	23.55
249.85	125.95
250.067	72.7
250.284	109.57
250.501	58.37
250.717	95.23
250.934	-35.84
251.151	31.74
251.368	-29.7
251.585	31.74
251.801	35.84
252.018	41.98
252.235	97.28
252.451	7.17
252.668	13.31
252.885	95.23
253.102	-31.74
253.318	52.22
253.535	-17.41
253.752	44.03
253.968	89.09
254.185	3.07
254.401	89.09
254.618	9.22
254.835	58.37
255.051	146.43
255.268	89.09
255.484	52.22
255.701	87.04
255.917	89.09
256.134	15.36
256.351	21.5
256.567	-25.6
256.784	46.08
257	80.89
257.217	66.56
257.433	89.09
257.65	-15.36
257.866	11.26
258.082	15.36
258.299	9.22
258.515	109.57
258.732	31.74
258.948	99.33
259.165	70.65
259.381	-1.02
259.597	27.65
259.814	52.22
260.03	35.84
260.246	33.79
260.463	39.94
260.679	138.24
260.895	68.61
261.112	46.08
261.328	132.09
261.544	64.51
261.761	132.09
261.977	-44.03
262.193	54.27
262.409	91.13
262.626	70.65
262.842	-17.41
263.058	46.08
263.274	74.75
263.49	52.22
263.707	132.09
263.923	82.94
264.139	-23.55
264.355	-23.55
264.571	130.05
264.787	44.03
265.004	134.14
265.22	39.94
265.436	15.36
265.652	1.02
265.868	82.94
266.084	-5.12
266.3	39.94
266.516	3.07
266.732	62.46
266.948	9.22
267.164	31.74
267.38	35.84
267.596	173.05
267.812	111.61
268.028	21.5
268.244	46.08
268.46	37.89
268.676	66.56
268.892	121.85
269.108	72.7
269.324	-5.12
269.54	66.56
269.756	66.56
269.972	-17.41
270.188	3.07
270.403	64.51
270.619	44.03
270.835	60.42
271.051	19.46
271.267	25.6
271.483	64.51
271.698	80.89
271.914	64.51
272.13	89.09
272.346	64.51
272.562	78.85
272.777	130.05
272.993	31.74
273.209	3.07
273.425	1.02
273.64	39.94
273.856	146.43
274.072	66.56
274.287	-7.17
274.503	56.32
274.719	103.42
274.934	-1.02
275.15	62.46
275.366	-58.37
275.581	-17.41
275.797	74.75
276.012	52.22
276.228	50.18
276.444	19.46
276.659	119.81
276.875	-11.26
277.09	39.94
277.306	3.07
277.521	33.79
277.737	37.89
277.952	103.42
278.168	58.37
278.383	121.85
278.599	37.89
278.814	-3.07
279.03	62.46
279.245	62.46
279.461	70.65
279.676	93.18
279.892	15.36
280.107	33.79
280.322	15.36
280.538	27.65
280.753	54.27
280.969	41.98
281.184	27.65
281.399	123.9
281.615	35.84
281.83	17.41
282.045	7.17
282.26	-25.6
282.476	56.32
282.691	64.51
282.906	132.09
283.122	48.13
283.337	9.22
283.552	95.23
283.767	13.31
283.983	44.03
284.198	89.09
284.413	46.08
284.628	74.75
284.843	15.36
285.058	111.61
285.274	44.03
285.489	-9.22
285.704	74.75
285.919	21.5
286.134	48.13
286.349	-15.36
286.564	52.22
286.779	97.28
286.995	91.13
287.21	27.65
287.425	76.8
287.64	27.65
287.855	125.95
288.07	31.74
288.285	82.94
288.5	97.28
288.715	56.32
288.93	31.74
289.145	-1.02
289.36	93.18
289.575	109.57
289.79	101.37
290.004	115.71
290.219	166.91
290.434	31.74
290.649	74.75
290.864	46.08
291.079	46.08
291.294	39.94
291.509	23.55
291.724	54.27
291.938	3.07
292.153	107.52
292.368	9.22
292.583	121.85
292.798	121.85
293.012	-9.22
293.227	35.84
293.442	82.94
293.657	50.18
293.871	80.89
294.086	56.32
294.301	130.05
294.516	138.24
294.73	150.53
294.945	3.07
295.16	97.28
295.374	72.7
295.589	52.22
295.804	35.84
296.018	60.42
296.233	123.9
296.447	82.94
296.662	-91.13
296.877	15.36
297.091	93.18
297.306	25.6
297.52	33.79
297.735	15.36
297.949	82.94
298.164	113.66
298.378	74.75
298.593	-7.17
298.807	91.13
299.022	99.33
299.236	54.27
299.451	11.26
299.665	72.7
299.88	19.46
300.094	82.94
300.309	68.61
300.523	56.32
300.737	39.94
300.952	-50.18
301.166	50.18
301.381	27.65
301.595	7.17
301.809	74.75
302.024	74.75
302.238	-11.26
302.452	125.95
302.667	72.7
302.881	93.18
303.095	64.51
303.309	58.37
303.524	35.84
303.738	72.7
303.952	31.74
304.166	68.61
304.381	-70.65
304.595	68.61
304.809	31.74
305.023	105.47
305.237	27.65
305.452	80.89
305.666	103.42
305.88	70.65
306.094	140.29
306.308	70.65
306.522	64.51
306.736	33.79
306.95	93.18
307.164	82.94
307.379	3.07
307.593	70.65
307.807	58.37
308.021	121.85
308.235	44.03
308.449	-27.65
308.663	33.79
308.877	130.05
309.091	60.42
309.305	117.76
309.519	-74.75
309.733	121.85
309.947	-15.36
310.161	128
310.374	107.52
310.588	33.79
310.802	50.18
311.016	23.55
311.23	93.18
311.444	44.03
311.658	50.18
311.872	97.28
312.085	87.04
312.299	56.32
312.513	66.56
312.727	9.22
312.941	-9.22
313.154	60.42
313.368	72.7
313.582	91.13
313.796	60.42
314.009	64.51
314.223	31.74
314.437	74.75
314.651	134.14
314.864	80.89
315.078	60.42
315.292	93.18
315.505	35.84
315.719	105.47
315.933	95.23
316.146	-15.36
316.36	11.26
316.573	54.27
316.787	68.61
317.001	27.65
317.214	25.6
317.428	128
317.641	-13.31
317.855	107.52
318.068	-11.26
318.282	48.13
318.495	128
318.709	128
318.922	21.5
319.136	121.85
319.349	82.94
319.563	76.8
319.776	66.56
319.99	15.36
320.203	130.05
320.417	89.09
320.63	97.28
320.843	121.85
321.057	58.37
321.27	17.41
321.483	64.51
321.697	107.52
321.91	76.8
322.124	82.94
322.337	99.33
322.55	-19.46
322.763	82.94
322.977	130.05
323.19	74.75
323.403	13.31
323.617	52.22
323.83	140.29
324.043	62.46
324.256	76.8
324.469	19.46
324.683	74.75
324.896	39.94
325.109	76.8
325.322	1.02
325.535	35.84
325.748	109.57
325.962	-5.12
326.175	78.85
326.388	166.91
326.601	154.62
326.814	97.28
327.027	95.23
327.24	95.23
327.453	-78.85
327.666	80.89
327.879	173.05
328.092	70.65
328.305	166.91
328.518	50.18
328.731	66.56
328.944	82.94
329.157	101.37
329.37	70.65
329.583	80.89
329.796	140.29
330.009	48.13
330.222	166.91
330.435	89.09
330.648	87.04
330.861	91.13
331.073	31.74
331.286	95.23
331.499	27.65
331.712	-7.17
331.925	13.31
332.138	97.28
332.35	64.51
332.563	46.08
332.776	121.85
332.989	-21.5
333.202	46.08
333.414	95.23
333.627	33.79
333.84	134.14
334.053	23.55
334.265	60.42
334.478	19.46
334.691	44.03
334.903	52.22
335.116	37.89
335.329	39.94
335.541	60.42
335.754	160.77
335.966	-9.22
336.179	-7.17
336.392	48.13
336.604	66.56
336.817	115.71
337.029	41.98
337.242	58.37
337.454	74.75
337.667	50.18
337.88	150.53
338.092	80.89
338.305	60.42
338.517	35.84
338.729	74.75
338.942	95.23
339.154	-3.07
339.367	7.17
339.579	97.28
339.792	60.42
340.004	103.42
340.217	35.84
340.429	117.76
340.641	-11.26
340.854	27.65
341.066	11.26
341.278	134.14
341.491	146.43
341.703	25.6
341.915	37.89
342.128	150.53
342.34	76.8
342.552	21.5
342.764	74.75
342.977	-27.65
343.189	54.27
343.401	89.09
343.613	56.32
343.826	70.65
344.038	19.46
344.25	125.95
344.462	84.99
344.674	48.13
344.886	123.9
345.099	17.41
345.311	111.61
345.523	128
345.735	5.12
345.947	25.6
346.159	48.13
346.371	68.61
346.583	80.89
346.795	207.87
347.007	101.37
347.219	82.94
347.431	97.28
347.643	107.52
347.855	87.04
348.067	148.48
348.279	50.18
348.491	97.28
348.703	177.15
348.915	64.51
349.127	68.61
349.339	37.89
349.551	27.65
349.763	80.89
349.975	142.33
350.187	99.33
350.399	115.71
350.61	52.22
350.822	31.74
351.034	87.04
351.246	21.5
351.458	19.46
351.669	123.9
351.881	74.75
352.093	39.94
352.305	107.52
352.517	72.7
352.728	148.48
352.94	72.7
353.152	111.61
353.363	15.36
353.575	31.74
353.787	171.01
353.999	171.01
354.21	66.56
354.422	60.42
354.633	-19.46
354.845	66.56
355.057	93.18
355.268	80.89
355.48	25.6
355.692	72.7
355.903	-50.18
356.115	-25.6
356.326	48.13
356.538	121.85
356.749	82.94
356.961	144.38
357.172	89.09
357.384	74.75
357.595	132.09
357.807	60.42
358.018	109.57
358.23	80.89
358.441	89.09
358.653	89.09
358.864	84.99
359.075	101.37
359.287	62.46
359.498	74.75
359.709	56.32
359.921	54.27
360.132	138.24
360.344	82.94
360.555	82.94
360.766	84.99
360.977	52.22
361.189	109.57
361.4	82.94
361.611	117.76
361.823	168.96
362.034	70.65
362.245	56.32
362.456	113.66
362.667	115.71
362.879	87.04
363.09	62.46
363.301	48.13
363.512	64.51
363.723	82.94
363.935	9.22
364.146	154.62
364.357	15.36
364.568	64.51
364.779	66.56
364.99	107.52
365.201	15.36
365.412	125.95
365.623	-21.5
365.834	84.99
366.045	72.7
366.256	78.85
366.467	74.75
366.678	162.81
366.889	33.79
367.1	64.51
367.311	46.08
367.522	48.13
367.733	101.37
367.944	82.94
368.155	39.94
368.366	84.99
368.577	21.5
368.788	146.43
368.999	46.08
369.209	50.18
369.42	181.25
369.631	203.77
369.842	39.94
370.053	64.51
370.264	91.13
370.474	31.74
370.685	99.33
370.896	29.7
371.107	121.85
371.317	58.37
371.528	23.55
371.739	99.33
371.95	39.94
372.16	107.52
372.371	44.03
372.582	-27.65
372.792	146.43
373.003	31.74
373.214	-7.17
373.424	158.72
373.635	21.5
373.846	130.05
374.056	11.26
374.267	31.74
374.477	68.61
374.688	11.26
374.898	54.27
375.109	68.61
375.319	11.26
375.53	152.57
375.74	82.94
375.951	48.13
376.161	84.99
376.372	171.01
376.582	19.46
376.793	72.7
377.003	54.27
377.214	41.98
377.424	87.04
377.635	99.33
377.845	68.61
378.055	72.7
378.266	31.74
378.476	33.79
378.686	142.33
378.897	115.71
379.107	93.18
379.317	78.85
379.528	121.85
379.738	117.76
379.948	52.22
380.158	87.04
380.369	62.46
380.579	160.77
380.789	39.94
380.999	156.67
381.21	58.37
381.42	74.75
381.63	54.27
381.84	128
382.05	54.27
382.261	87.04
382.471	62.46
382.681	105.47
382.891	156.67
383.101	111.61
383.311	62.46
383.521	115.71
383.731	105.47
383.941	97.28
384.151	99.33
384.361	91.13
384.571	9.22
384.781	35.84
384.991	156.67
385.201	140.29
385.411	76.8
385.621	72.7
385.831	76.8
386.041	50.18
386.251	25.6
386.461	82.94
386.671	162.81
386.881	84.99
387.091	66.56
387.301	123.9
387.511	35.84
387.72	121.85
387.93	103.42
388.14	78.85
388.35	80.89
388.56	154.62
388.769	171.01
388.979	97.28
389.189	41.98
389.399	107.52
389.609	113.66
389.818	121.85
390.028	66.56
390.238	78.85
390.447	33.79
390.657	89.09
390.867	62.46
391.076	158.72
391.286	121.85
391.496	46.08
391.705	58.37
391.915	181.25
392.125	99.33
392.334	39.94
392.544	117.76
392.753	109.57
392.963	-21.5
393.172	48.13
393.382	74.75
393.591	199.68
393.801	56.32
394.01	211.96
394.22	105.47
394.429	64.51
394.639	136.19
394.848	113.66
395.058	119.81
395.267	185.34
395.477	89.09
395.686	91.13
395.895	160.77
396.105	181.25
396.314	97.28
396.524	109.57
396.733	46.08
396.942	154.62
397.152	175.1
397.361	189.44
397.57	132.09
397.78	148.48
397.989	146.43
398.198	259.07
398.407	56.32
398.617	76.8
398.826	76.8
399.035	89.09
399.244	201.72
399.453	91.13
399.663	166.91
399.872	130.05
400.081	117.76
400.29	207.87
400.499	91.13
400.708	179.2
400.917	89.09
401.127	130.05
401.336	39.94
401.545	160.77
401.754	177.15
401.963	130.05
402.172	189.44
402.381	66.56
402.59	197.63
402.799	148.48
403.008	183.29
403.217	150.53
403.426	154.62
403.635	80.89
403.844	177.15
404.053	82.94
404.262	97.28
404.471	248.83
404.68	224.25
404.888	240.64
405.097	121.85
405.306	203.77
405.515	203.77
405.724	158.72
405.933	267.26
406.142	216.06
406.35	246.78
406.559	214.01
406.768	230.4
406.977	338.94
407.185	214.01
407.394	254.97
407.603	152.57
407.812	254.97
408.02	273.4
408.229	291.84
408.438	252.92
408.646	248.83
408.855	228.35
409.064	285.69
409.272	353.27
409.481	353.27
409.69	308.22
409.898	300.03
410.107	361.47
410.315	400.38
410.524	351.23
410.733	293.88
410.941	381.95
411.15	445.43
411.358	398.33
411.567	396.28
411.775	437.24
411.984	519.16
412.192	465.91
412.401	465.91
412.609	519.16
412.818	568.31
413.026	533.5
413.234	494.58
413.443	553.98
413.651	527.35
413.86	650.23
414.068	705.53
414.276	717.81
414.485	715.77
414.693	760.82
414.901	814.07
415.11	750.58
415.318	754.68
415.526	809.97
415.734	840.69
415.943	857.07
416.151	912.37
416.359	932.85
416.567	959.47
416.776	949.23
416.984	973.81
417.192	1158.13
417.4	1041.39
417.608	1047.54
417.817	1063.92
418.025	1156.08
418.233	1315.82
418.441	1131.5
418.649	1328.11
418.857	1430.51
419.065	1496.04
419.273	1291.24
419.481	1461.23
419.689	1553.38
419.897	1571.82
420.105	1526.76
420.313	1670.12
420.521	1788.9
420.729	1827.81
420.937	1858.53
421.145	1856.48
421.353	1965.03
421.561	2055.14
421.769	2182.11
421.977	2104.29
422.185	2137.06
422.393	2225.12
422.601	2436.06
422.809	2417.63
423.017	2499.55
423.224	2493.4
423.432	2698.2
423.64	2704.34
423.848	2943.96
424.056	2843.6
424.263	3079.12
424.471	3062.74
424.679	3195.86
424.887	3312.59
425.094	3357.64
425.302	3408.84
425.51	3566.54
425.718	3802.05
425.925	3697.61
426.133	3826.63
426.341	4086.72
426.548	4318.14
426.756	4203.46
426.964	4459.45
427.171	4424.64
427.379	4555.71
427.586	4846.52
427.794	4725.69
428.001	5211.06
428.209	5385.13
428.417	5311.41
428.624	5579.69
428.832	5551.02
429.039	5618.6
429.247	5659.56
429.454	6153.12
429.662	6470.56
429.869	6167.46
430.076	6509.47
430.284	6359.97
430.491	6671.26
430.699	6921.11
430.906	6998.93
431.114	7093.14
431.321	7275.41
431.528	7496.59
431.736	8117.12
431.943	8291.2
432.15	7949.19
432.358	8323.97
432.565	8747.9
432.772	8534.91
432.979	9044.85
433.187	9233.27
433.394	9184.12
433.601	9991.02
433.808	9939.82
434.016	9708.4
434.223	10251.11
434.43	10799.96
434.637	10472.29
434.844	11301.72
435.052	11494.22
435.259	11623.25
435.466	11682.64
435.673	11502.42
435.88	12294.98
436.087	13042.49
436.294	12823.36
436.501	12667.71
436.708	12847.93
436.915	13382.45
437.122	13974.31
437.329	13921.07
437.537	14320.42
437.743	14578.47
437.95	14535.46
438.157	15141.66
438.364	15622.93
438.571	15420.18
438.778	15872.78
438.985	17208.06
439.192	16534.28
439.399	16970.49
439.606	16755.46
439.813	17490.68
440.02	18662.12
440.227	18547.43
440.433	18356.97
440.64	18936.54
440.847	18854.62
441.054	19145.44
441.261	20378.31
441.467	20134.6
441.674	20474.57
441.881	21287.61
442.088	21287.61
442.294	21170.88
442.501	21840.56
442.708	22287.02
442.914	23055.01
443.121	23857.81
443.328	23276.19
443.534	24951.43
443.741	24031.89
443.948	23816.85
444.154	25901.68
444.361	25651.83
444.568	25842.29
444.774	25776.76
444.981	26032.75
445.187	26899.05
445.394	27910.74
445.6	27720.28
445.807	30337.59
446.013	28820.04
446.22	29346.37
446.426	30628.4
446.633	30921.26
446.839	31681.05
447.046	30900.78
447.252	32279.06
447.459	32471.57
447.665	32449.04
447.871	33683.97
448.078	35254.76
448.284	34017.78
448.491	34793.97
448.697	35629.54
448.903	36518.35
449.11	36743.63
449.316	36176.34
449.522	36497.88
449.728	37593.54
449.935	37892.54
450.141	37372.36
450.347	39074.22
450.553	37870.01
450.76	38066.62
450.966	39549.35
451.172	39127.47
451.378	39991.71
451.584	39000.49
451.791	40227.23
451.997	39741.86
452.203	40976.78
452.409	40837.52
452.615	40636.82
452.821	38848.94
453.027	39000.49
453.233	41081.23
453.44	39522.72
453.646	39346.6
453.852	39811.49
454.058	40118.68
454.264	39139.75
454.47	40372.63
454.676	39057.84
454.882	40708.5
455.088	37091.79
455.294	37523.91
455.5	38119.87
455.705	38658.48
455.911	37132.75
456.117	36207.06
456.323	36141.53
456.529	34314.74
456.735	35748.32
456.941	34550.26
457.147	34216.44
457.352	33225.22
457.558	32717.32
457.764	33006.09
457.97	32186.9
458.176	31201.83
458.381	31590.94
458.587	30151.22
458.793	30278.19
458.999	28375.63
459.204	30394.93
459.41	29364.8
459.616	27452
459.821	27550.3
460.027	27654.75
460.233	26991.2
460.438	25698.94
460.644	26249.84
460.85	24730.25
461.055	24625.8
461.261	24349.32
461.466	22928.03
461.672	21988.02
461.878	23579.29
462.083	22067.89
462.289	21795.51
462.494	21158.59
462.7	20601.54
462.905	19839.7
463.111	20734.66
463.316	20454.09
463.522	20056.78
463.727	20136.65
463.932	20308.68
464.138	19948.24
464.343	19776.21
464.549	19755.73
464.754	20128.46
464.959	19636.95
465.165	19833.55
465.37	18825.95
465.575	18352.87
465.781	19110.62
465.986	19337.94
466.191	18674.4
466.397	18242.28
466.602	17199.87
466.807	17679.09
467.012	18008.81
467.218	17822.45
467.423	17732.34
467.628	17545.97
467.833	18369.26
468.038	17836.78
468.244	17226.49
468.449	18211.56
468.654	17310.46
468.859	17466.1
469.064	17046.27
469.269	16231.18
469.474	16603.91
469.679	16923.39
469.885	16143.11
470.09	16726.78
470.295	16790.27
470.5	16296.71
470.705	16327.43
470.91	16155.4
471.115	15708.94
471.32	16194.31
471.525	15760.14
471.73	15495.96
471.935	15336.21
472.139	15031.07
472.344	15074.07
472.549	14998.3
472.754	15131.42
472.959	14525.22
473.164	14054.19
473.369	14179.11
473.574	14824.22
473.778	14373.67
473.983	14301.99
474.188	14236.45
474.393	13746.99
474.598	13757.23
474.802	13701.93
475.007	13357.88
475.212	13400.88
475.417	13136.7
475.621	13022.01
475.826	13087.54
476.031	12895.04
476.235	12299.08
476.44	12903.23
476.645	12673.85
476.849	12526.4
477.054	12526.4
477.259	12104.52
477.463	12340.04
477.668	11621.2
477.872	12168.01
478.077	11848.52
478.282	11641.68
478.486	11494.22
478.691	11455.31
478.895	11557.71
479.1	11262.8
479.304	11490.13
479.509	10863.45
479.713	11025.24
479.918	10881.88
480.122	10752.86
480.326	10730.33
480.531	10969.94
480.735	10806.11
480.94	10812.25
481.144	11367.25
481.348	10384.23
481.553	10810.2
481.757	10337.12
481.961	10507.1
482.166	10746.72
482.37	10726.24
482.574	10357.6
482.778	10441.57
482.983	10842.97
483.187	10445.66
483.391	10578.78
483.595	10367.84
483.8	10216.29
484.004	10570.59
484.208	10574.69
484.412	10419.04
484.616	10394.47
484.821	10320.74
485.025	10322.79
485.229	10287.97
485.433	10359.65
485.637	10287.97
485.841	10171.24
486.045	10271.59
486.249	10357.6
486.453	10179.43
486.657	10359.65
486.861	10496.86
487.065	10314.59
487.269	10394.47
487.473	10095.46
487.677	10386.27
487.881	10574.69
488.085	10533.73
488.289	10390.37
488.493	10249.06
488.697	10705.76
488.901	10373.99
489.105	10623.84
489.309	10466.14
489.512	10658.65
489.716	10640.22
489.92	10525.54
490.124	10629.98
490.328	10787.68
490.531	10537.82
490.735	10769.24
490.939	10707.8
491.143	10636.13
491.346	10535.78
491.55	10787.68
491.754	10926.94
491.958	10820.44
492.161	10799.96
492.365	11148.12
492.569	10947.42
492.772	10892.12
492.976	11209.56
493.18	11131.73
493.383	11158.36
493.587	11254.61
493.79	11230.04
493.994	11203.41
494.197	11348.82
494.401	11508.56
494.605	11459.41
494.808	11701.07
495.012	11813.71
495.215	11852.62
495.419	11909.96
495.622	11961.16
495.825	12002.12
496.029	12075.85
496.232	12540.74
496.436	12266.31
496.639	12464.96
496.843	12491.59
497.046	12796.73
497.249	13001.53
497.453	13052.73
497.656	13253.43
497.859	13331.25
498.063	13269.81
498.266	13615.92
498.469	13441.84
498.673	13605.68
498.876	13908.78
499.079	13753.13
499.282	13900.59
499.485	14441.25
499.689	14400.29
499.892	14537.51
500.095	14727.97
500.298	14789.41
500.501	14848.8
500.705	15274.77
500.908	15495.96
501.111	15608.59
501.314	15575.83
501.517	15809.29
501.72	16028.43
501.923	16028.43
502.126	16399.11
502.329	16679.68
502.532	16706.31
502.735	16655.11
502.938	17148.67
503.141	17060.6
503.344	17373.94
503.547	17509.11
503.75	17560.31
503.953	17994.48
504.156	17982.19
504.359	18438.89
504.562	18279.15
504.765	19124.96
504.968	18787.04
505.17	19053.28
505.373	19233.5
505.576	19565.27
505.779	19712.72
505.982	19665.62
506.185	20194
506.387	20329.16
506.59	20374.22
506.793	20925.12
506.996	20855.49
507.198	21099.2
507.401	21351.1
507.604	21822.13
507.807	21904.05
508.009	21979.82
508.212	21996.21
508.415	22418.09
508.617	22641.32
508.82	23016.1
509.022	22639.27
509.225	23333.53
509.428	23605.91
509.63	23788.18
509.833	23800.47
510.035	24414.86
510.238	23890.58
510.44	24605.32
510.643	24853.12
510.845	24957.57
511.048	24853.12
511.25	25496.19
511.453	25211.52
511.655	26600.04
511.858	26163.82
512.06	26602.09
512.262	26636.91
512.465	26374.77
512.667	27066.98
512.87	27521.63
513.072	27286.11
513.274	27804.25
513.477	28174.93
513.679	28183.12
513.881	28582.48
514.084	28955.21
514.286	28856.9
514.488	29102.66
514.69	30067.25
514.893	29755.96
515.095	30276.15
515.297	30104.12
515.499	30587.44
515.701	30714.41
515.904	30945.83
516.106	31246.88
516.308	31588.89
516.51	32033.3
516.712	31828.51
516.914	32086.55
517.116	32791.05
517.318	32905.74
517.52	32766.48
517.722	32991.75
517.925	33899
518.127	34245.11
518.329	34327.03
518.531	34023.93
518.733	34703.85
518.935	35006.95
519.136	35166.7
519.338	35799.52
519.54	35566.05
519.742	36215.26
519.944	36213.21
520.146	36530.64
520.348	36950.48
520.55	36751.82
520.752	37124.55
520.954	37630.4
521.155	37247.43
521.357	38017.47
521.559	38312.38
521.761	38689.2
521.963	38726.07
522.164	38760.88
522.366	38932.91
522.568	39338.41
522.77	39760.29
522.971	40329.62
523.173	39852.45
523.375	40532.37
523.576	40245.66
523.778	40602
523.98	40946.06
524.181	40757.65
524.383	41345.42
524.584	41460.1
524.786	41679.24
524.988	41617.8
525.189	41953.66
525.391	42314.11
525.592	42621.3
525.794	42731.89
525.995	42867.06
526.197	42922.35
526.398	43309.42
526.6	43078
526.801	43577.7
527.003	43495.78
527.204	43725.16
527.406	43766.12
527.607	43948.39
527.808	44300.64
528.01	43794.79
528.211	44300.64
528.412	44573.02
528.614	44605.78
528.815	44620.12
529.016	44968.27
529.218	44730.71
529.419	44753.24
529.62	44751.19
529.822	44724.57
530.023	45023.57
530.224	45379.92
530.425	45353.29
530.626	45005.14
530.828	44820.82
531.029	45789.51
531.23	45523.27
531.431	45605.19
531.632	45812.04
531.833	45693.25
532.035	45562.18
532.236	45824.32
532.437	46367.04
532.638	45687.11
532.839	46281.02
533.04	46002.5
533.241	45615.43
533.442	46496.06
533.643	46483.77
533.844	46313.79
534.045	46588.22
534.246	45685.06
534.447	46246.21
534.648	46133.57
534.849	46354.75
535.05	46186.82
535.251	46254.4
535.451	45779.27
535.652	46537.02
535.853	46270.78
536.054	46184.77
536.255	46805.3
536.456	45580.62
536.657	46459.2
536.857	45859.14
537.058	46031.17
537.259	46416.19
537.46	46399.8
537.66	46076.22
537.861	46573.88
538.062	45760.84
538.263	46287.17
538.463	46399.8
538.664	46082.37
538.865	47022.39
539.065	46704.95
539.266	45902.15
539.466	46160.19
539.667	46096.7
539.868	46690.62
540.068	46313.79
540.269	46016.83
540.469	46295.36
540.67	46295.36
540.87	46315.84
541.071	46471.48
541.271	46268.73
541.472	46270.78
541.672	46256.45
541.873	45744.45
542.073	45672.78
542.274	46182.72
542.474	46367.04
542.675	45697.35
542.875	46270.78
543.075	46166.34
543.276	45824.32
543.476	46248.25
543.676	46008.64
543.877	46096.7
544.077	46084.42
544.277	46063.94
544.478	45973.83
544.678	46016.83
544.878	46076.22
545.078	45936.96
545.279	45656.39
545.479	45896
545.679	46055.75
545.879	45726.02
546.079	45781.32
546.28	45666.63
546.48	45404.49
546.68	46154.05
546.88	45719.88
547.08	45670.73
547.28	45607.24
547.48	45463.88
547.68	45961.54
547.88	45697.35
548.081	45869.38
548.281	45928.77
548.481	45451.59
548.681	45859.14
548.881	45537.61
549.081	45486.41
549.28	45275.47
549.48	45906.24
549.68	45703.49
549.88	45881.67
550.08	45553.99
550.28	45764.93
550.48	45244.75
550.68	45625.67
550.88	45248.85
551.08	45422.92
551.279	45637.96
551.479	45539.66
551.679	45467.98
551.879	45365.58
552.079	45887.81
552.278	45470.03
552.478	45658.44
552.678	45361.48
552.878	45637.96
553.077	45199.69
553.277	44790.1
553.477	45801.8
553.676	45130.06
553.876	45373.77
554.076	45140.3
554.275	44861.78
554.475	44568.92
554.674	45093.2
554.874	45330.76
555.074	44675.41
555.273	44968.27
555.473	45275.47
555.672	44775.76
555.872	44951.89
556.071	45019.47
556.271	45504.84
556.47	44792.15
556.67	44568.92
556.869	44673.37
557.068	44966.23
557.268	44661.08
557.467	44925.27
557.667	44607.83
557.866	44380.51
558.065	44605.78
558.265	44423.51
558.464	44400.99
558.663	44390.75
558.863	43817.32
559.062	44566.87
559.261	43964.77
559.461	44558.68
559.66	43651.43
559.859	44243.29
560.058	44108.13
560.258	43905.38
560.457	43692.39
560.656	43598.18
560.855	43225.45
561.054	44015.97
561.253	43706.73
561.453	43925.86
561.652	43784.55
561.851	43921.76
562.05	43387.24
562.249	43264.36
562.448	43604.33
562.647	43360.62
562.846	43364.71
563.045	43092.33
563.244	42703.22
563.443	43364.71
563.642	42398.07
563.841	42955.12
564.04	42432.89
564.239	43327.85
564.438	42682.74
564.637	42658.17
564.836	42357.11
565.035	42058.11
565.234	42500.47
565.432	41980.29
565.631	42408.31
565.83	42209.66
566.029	42183.04
566.228	41775.49
566.427	42211.71
566.625	41898.37
566.824	41331.08
567.023	41963.9
567.222	41245.07
567.42	41922.94
567.619	41507.21
567.818	41269.64
568.016	41525.64
568.215	41453.96
568.414	40855.95
568.612	41308.55
568.811	41255.31
569.01	41132.43
569.208	40522.13
569.407	41017.74
569.605	40696.21
569.804	40892.82
570.002	40483.22
570.201	40878.48
570.4	40409.5
570.598	40749.46
570.797	39707.04
570.995	40409.5
571.193	39489.96
571.392	40280.47
571.59	39963.04
571.789	39836.06
571.987	40071.58
572.186	39614.88
572.384	39487.91
572.582	39774.63
572.781	39698.85
572.979	39223.72
573.177	39158.19
573.376	39283.11
573.574	38900.14
573.772	39059.88
573.971	38664.63
574.169	38705.59
574.367	38803.89
574.565	38750.64
574.763	38361.53
574.962	38300.09
575.16	38390.2
575.358	38543.8
575.556	37949.88
575.754	38431.16
575.952	37792.19
576.151	38033.85
576.349	37634.5
576.547	37448.13
576.745	37562.82
576.943	37536.2
577.141	37691.84
577.339	37646.79
577.537	37394.89
577.735	37294.53
577.933	36835.79
578.131	37063.11
578.329	37065.16
578.527	37071.31
578.725	36944.33
578.923	37257.67
579.121	36706.77
579.319	36659.66
579.516	36780.49
579.714	36377.04
579.912	36262.36
580.11	36075.99
580.308	36239.83
580.506	36454.87
580.704	35301.86
580.901	36202.97
581.099	36286.93
581.297	35762.65
581.495	35555.81
581.692	35564
581.89	35604.96
582.088	35379.68
582.285	35211.75
582.483	35455.46
582.681	35262.95
582.878	34767.34
583.076	34744.81
583.274	35092.97
583.471	34720.24
583.669	34933.23
583.866	34611.7
584.064	34781.68
584.262	34183.67
584.459	34449.91
584.657	34269.69
584.854	34380.28
585.052	34030.07
585.249	34230.77
585.447	34286.07
585.644	33970.68
585.841	33683.97
586.039	34060.79
586.236	33323.52
586.434	33626.62
586.631	33184.26
586.828	33282.56
587.026	34034.17
587.223	33208.84
587.42	33096.2
587.618	33276.42
587.815	32662.03
588.012	32561.68
588.21	32713.23
588.407	33001.99
588.604	32340.5
588.801	32373.27
588.999	32799.24
589.196	32408.08
589.393	32338.45
589.59	32043.54
589.787	32176.66
589.984	32111.13
590.182	31857.18
590.379	32205.33
590.576	31619.61
590.773	31758.88
590.97	31521.31
591.167	31523.36
591.364	30984.74
591.561	31609.37
591.758	30890.54
591.955	30755.37
592.152	31013.41
592.349	30704.17
592.546	31124.01
592.743	30915.11
592.94	30358.06
593.137	30724.65
593.334	30700.08
593.531	30210.61
593.727	30421.55
593.924	30403.12
594.121	30446.13
594.318	30298.67
594.515	30040.63
594.712	30089.78
594.908	29868.6
595.105	30061.11
595.302	29524.54
595.499	29678.14
595.696	29620.8
595.892	29174.34
596.089	29604.41
596.286	29569.6
596.482	29256.26
596.679	28998.21
596.876	29454.91
597.072	29164.1
597.269	28777.03
597.466	28854.86
597.662	28955.21
597.859	28809.8
598.055	28777.03
598.252	28613.2
598.448	28281.42
598.645	28344.91
598.841	28330.58
599.038	28435.02
599.234	28203.6
599.431	27851.35
599.627	28000.85
599.824	28154.45
600.02	27689.56
600.217	28086.87
600.413	27427.42
600.609	27497.05
600.806	27304.54
601.002	27632.22
601.198	27298.4
601.395	27081.31
601.591	27140.71
601.787	27021.92
601.984	27198.05
602.18	27316.83
602.376	27087.46
602.572	26702.44
602.769	26690.15
602.965	26509.93
603.161	26563.18
603.357	26442.35
603.553	26385.01
603.75	26174.06
603.946	26315.37
604.142	26112.63
604.338	26106.48
604.534	26014.32
604.73	25944.69
604.926	25784.95
605.122	25795.19
605.318	25496.19
605.514	25549.43
605.71	25690.74
605.906	25473.66
606.102	25389.69
606.298	25332.35
606.494	25449.08
606.69	25262.72
606.886	25363.07
607.082	24693.38
607.278	25119.36
607.474	24654.47
607.67	25100.93
607.866	24492.68
608.062	25068.16
608.257	24818.31
608.453	24504.97
608.649	24550.03
608.845	24349.32
609.041	24287.89
609.236	24564.36
609.432	24330.89
609.628	24199.82
609.824	24343.18
610.019	24115.86
610.215	24177.3
610.411	24224.4
610.606	23749.27
610.802	24326.8
610.998	24257.17
611.193	23976.59
611.389	23966.35
611.584	23952.02
611.78	23767.7
611.976	23720.6
612.171	23751.32
612.367	23462.55
612.562	23657.11
612.758	23179.93
612.953	23235.23
613.149	23839.38
613.344	23155.36
613.539	23669.4
613.735	23345.82
613.93	23237.28
614.126	23141.02
614.321	23435.93
614.517	23425.69
614.712	23276.19
614.907	23001.76
615.103	23173.79
615.298	23116.45
615.493	23067.3
615.688	22682.28
615.884	22995.62
616.079	22520.49
616.274	22880.93
616.47	22706.85
616.665	22710.95
616.86	22358.7
617.055	22790.82
617.25	22463.15
617.445	22936.23
617.641	22303.4
617.836	22225.58
618.031	22069.94
618.226	22432.43
618.421	22317.74
618.616	22497.96
618.811	21658.29
619.006	22256.3
619.201	21801.65
619.396	21781.17
619.591	21566.13
619.786	21830.32
619.981	21193.4
620.176	21576.37
620.371	21205.69
620.566	21351.1
620.761	21125.82
620.956	21209.79
621.151	20929.22
621.346	21170.88
621.541	20677.32
621.735	21117.63
621.93	20355.79
622.125	20724.42
622.32	20388.55
622.515	20433.61
622.709	19915.47
622.904	19997.39
623.099	20073.17
623.294	19882.7
623.488	19729.11
623.683	20171.47
623.878	19655.38
624.072	19870.42
624.267	19688.15
624.462	19387.1
624.656	19323.61
624.851	19466.97
625.046	19167.96
625.24	18932.45
625.435	18928.35
625.629	18727.65
625.824	18805.47
626.018	18668.26
626.213	18469.61
626.407	18518.76
626.602	18191.08
626.796	18488.04
626.991	18164.46
627.185	18137.84
627.38	17781.49
627.574	18000.62
627.768	17959.66
627.963	17582.84
628.157	17726.19
628.352	17562.36
628.546	17140.47
628.74	17449.72
628.935	17265.4
629.129	17138.43
629.323	16898.81
629.517	16898.81
629.712	16956.16
629.906	16941.82
630.1	16560.9
630.294	16704.26
630.489	16796.42
630.683	16571.14
630.877	16309
631.071	16104.2
631.265	16409.35
631.459	16020.24
631.653	15891.21
631.848	16081.67
632.042	15885.07
632.236	15870.73
632.43	15436.56
632.624	15629.07
632.818	15487.76
633.012	15383.32
633.206	15287.06
633.4	15336.21
633.594	15039.26
633.788	15344.41
633.982	15360.79
634.176	15346.45
634.369	14711.58
634.563	14836.51
634.757	14678.82
634.951	14924.57
635.145	14838.56
635.339	14971.68
635.533	14547.75
635.726	14324.52
635.92	14373.67
636.114	14215.98
636.308	14185.26
636.501	14232.36
636.695	14142.25
636.889	13759.28
637.083	13847.34
637.276	13835.05
637.47	13769.52
637.664	13671.22
637.857	13638.45
638.051	13423.41
638.244	13351.73
638.438	13388.6
638.632	13257.53
638.825	13253.43
639.019	13157.18
639.212	13153.08
639.406	13028.15
639.599	12919.61
639.793	13116.22
639.986	12663.61
640.18	12872.51
640.373	12854.08
640.567	12356.42
640.76	12723.01
640.954	12514.11
641.147	12235.59
641.34	12311.36
641.534	12294.98
641.727	12550.98
641.92	12227.4
642.114	12122.95
642.307	11852.62
642.5	12034.89
642.694	11821.9
642.887	11778.89
643.08	11875.15
643.273	11711.31
643.467	11828.04
643.66	11666.25
643.853	11500.37
644.046	11166.55
644.239	11250.52
644.432	11389.78
644.626	11107.16
644.819	11213.65
645.012	11307.86
645.205	11223.89
645.398	11195.22
645.591	11004.76
645.784	11000.66
645.977	10664.8
646.17	10812.25
646.363	10802.01
646.556	10830.68
646.749	10521.44
646.942	10666.85
647.135	10550.11
647.328	10584.93
647.521	10298.21
647.714	10310.5
647.907	10402.66
648.099	10206.05
648.292	10498.91
648.485	10234.72
648.678	10197.86
648.871	10191.72
649.064	10158.95
649.256	10134.37
649.449	9956.2
649.642	9972.58
649.835	9724.78
650.027	9894.76
650.22	9591.66
650.413	9560.94
650.605	9728.88
650.798	9511.79
650.991	9378.67
651.183	9644.91
651.376	9296.75
651.568	9575.28
651.761	9427.82
651.954	9327.47
652.146	9366.39
652.339	9241.46
652.531	9022.33
652.724	9016.18
652.916	9053.05
653.109	9104.25
653.301	8969.08
653.494	9034.61
653.686	8786.81
653.879	8909.69
654.071	8815.48
654.263	8811.39
654.456	8715.13
654.648	8887.16
654.84	8725.37
655.033	8651.64
655.225	8522.62
655.417	8422.27
655.61	8489.85
655.802	8686.46
655.994	8446.85
656.186	8371.07
656.379	8129.41
656.571	8272.77
656.763	8012.68
656.955	8106.88
657.148	8260.48
657.34	8293.25
657.532	7994.25
657.724	8106.88
657.916	7916.42
658.108	7979.91
658.3	8027.01
658.492	7789.45
658.684	7775.11
658.876	7844.74
659.068	7879.56
659.26	7740.3
659.452	7523.21
659.644	7619.47
659.836	7717.77
660.028	7566.22
660.22	7508.88
660.412	7515.02
660.604	7502.73
660.796	7512.97
660.988	7588.75
661.18	7304.08
661.372	7371.66
661.563	7336.85
661.755	7402.38
661.947	7338.9
662.139	7347.09
662.331	7216.02
662.522	7087
662.714	7193.49
662.906	7082.9
663.097	6972.31
663.289	6841.24
663.481	6972.31
663.673	7005.08
663.864	6917.01
664.056	6843.29
664.247	6738.84
664.439	6566.81
664.631	6906.77
664.822	6937.49
665.014	6755.22
665.205	6558.62
665.397	6706.07
665.588	6583.2
665.78	6605.72
665.971	6622.11
666.163	6650.78
666.354	6712.22
666.546	6312.86
666.737	6370.21
666.929	6308.77
667.12	6460.32
667.311	6507.42
667.503	6341.54
667.694	6286.24
667.885	6419.36
668.077	6327.2
668.268	6314.91
668.459	6486.94
668.651	6343.58
668.842	6200.23
669.033	6149.03
669.224	5866.41
669.416	6370.21
669.607	6114.21
669.798	6034.34
669.989	6077.35
670.18	6001.57
670.371	5938.09
670.563	6132.64
670.754	6060.96
670.945	5901.22
671.136	6009.76
671.327	5901.22
671.518	6024.1
671.709	5839.78
671.9	5993.38
672.091	5956.52
672.282	5907.37
672.473	5841.83
672.664	5852.07
672.855	5931.94
673.046	5856.17
673.237	5753.77
673.428	5749.67
673.619	5770.15
673.809	5669.8
674	5655.47
674.191	5790.63
674.382	5696.43
674.573	5671.85
674.764	5702.57
674.954	5710.76
675.145	5495.72
675.336	5514.16
675.527	5647.27
675.717	5680.04
675.908	5716.9
676.099	5505.96
676.289	5583.79
676.48	5579.69
676.671	5544.88
676.861	5634.99
677.052	5424.05
677.243	5512.11
677.433	5432.24
677.624	5647.27
677.814	5417.9
678.005	5616.55
678.195	5594.03
678.386	5368.75
678.576	5465
678.767	5448.62
678.957	5630.89
679.148	5630.89
679.338	5520.3
679.529	5501.87
679.719	5389.23
679.909	5456.81
680.1	5471.15
680.29	5422
680.481	5284.78
680.671	5501.87
680.861	5460.91
681.052	5512.11
681.242	5409.71
681.432	5317.55
681.622	5329.84
681.813	5346.22
682.003	5290.93
682.193	5473.2
682.383	5422
682.573	5227.44
682.764	5211.06
682.954	5372.85
683.144	5422
683.334	5352.37
683.524	5219.25
683.714	5356.46
683.904	5209.01
684.094	5407.66
684.284	5153.71
684.474	5335.98
684.664	5268.4
684.854	5262.26
685.044	5221.3
685.234	5180.34
685.424	5110.71
685.614	5249.97
685.804	5116.85
685.994	5217.2
686.184	5184.43
686.374	5122.99
686.564	4901.81
686.753	4910.01
686.943	5063.6
687.133	5028.79
687.323	5024.69
687.513	5047.22
687.702	5022.64
687.892	4971.44
688.082	5053.36
688.272	5024.69
688.461	4914.1
688.651	4914.1
688.841	4914.1
689.03	4830.13
689.22	4719.54
689.41	4758.46
689.599	4834.23
689.789	4684.73
689.979	4664.25
690.168	4676.54
690.358	4561.85
690.547	4799.41
690.737	4637.63
690.926	4592.57
691.116	4551.61
691.305	4531.13
691.495	4486.08
691.684	4443.07
691.874	4647.87
692.063	4406.2
692.252	4426.68
692.442	4389.82
692.631	4291.52
692.82	4223.94
693.01	4307.9
693.199	4371.39
693.388	4172.74
693.578	4291.52
693.767	4221.89
693.956	4262.85
694.146	4060.1
694.335	4154.3
694.524	4137.92
694.713	4170.69
694.902	4201.41
695.092	4121.54
695.281	4174.78
695.47	4096.96
695.659	4012.99
695.848	3963.84
696.037	4150.21
696.226	4037.57
696.415	3969.99
696.604	3988.42
696.793	3937.22
696.982	4015.04
697.171	4047.81
697.36	4010.95
697.549	3961.8
697.738	3840.97
697.927	3933.12
698.116	3914.69
698.305	3947.46
698.494	3900.36
698.683	3894.21
698.872	3904.45
699.061	3933.12
699.25	3916.74
699.438	3789.77
699.627	3933.12
699.816	3947.46
700.005	3812.29
700.193	3673.03
700.382	3881.92
700.571	3853.25
700.76	3918.79
700.948	3861.45
701.137	3804.1
701.326	3898.31
701.514	3701.7
701.703	3685.32
701.892	3972.04
702.08	3800.01
702.269	3781.57
702.457	3679.18
702.646	3851.21
702.834	3636.17
703.023	3761.09
703.212	3851.21
703.4	3707.85
703.589	3625.93
703.777	3666.89
703.965	3601.35
704.154	3650.5
704.342	3843.01
704.531	3632.07
704.719	3668.94
704.907	3701.7
705.096	3625.93
705.284	3601.35
705.472	3709.9
705.661	3783.62
705.849	3789.77
706.037	3797.96
706.226	3621.83
706.414	3701.7
706.602	3670.98
706.79	3713.99
706.979	3644.36
707.167	3802.05
707.355	3675.08
707.543	3802.05
707.731	3740.61
707.919	3730.38
708.107	3662.79
708.296	3746.76
708.484	3752.9
708.672	3654.6
708.86	3861.45
709.048	3775.43
709.236	3701.7
709.424	3789.77
709.612	3730.38
709.8	3769.29
709.988	3548.11
710.176	3736.52
710.364	3859.4
710.551	3722.18
710.739	3789.77
710.927	3718.09
711.115	3716.04
711.303	3857.35
711.491	3822.53
711.679	3883.97
711.866	3877.83
712.054	3746.76
712.242	3789.77
712.43	3918.79
712.617	3707.85
712.805	3785.67
712.993	3677.13
713.181	3640.26
713.368	3834.82
713.556	3777.48
713.744	3785.67
713.931	3816.39
714.119	3853.25
714.306	3869.64
714.494	3857.35
714.682	3867.59
714.869	3857.35
715.057	3898.31
715.244	3759.05
715.432	3888.07
715.619	3769.29
715.807	3865.54
715.994	3697.61
716.182	3814.34
716.369	3857.35
716.556	4135.87
716.744	3767.24
716.931	3974.08
717.119	3902.4
717.306	3965.89
717.493	3787.72
717.681	3969.99
717.868	3720.14
718.055	3873.73
718.242	3855.3
718.43	3890.12
718.617	3986.37
718.804	3906.5
718.991	3969.99
719.179	4090.82
719.366	3994.56
719.553	3994.56
719.74	3957.7
719.927	4004.8
720.114	4086.72
720.301	3965.89
720.488	3976.13
720.676	4070.34
720.863	3978.18
721.05	4004.8
721.237	3986.37
721.424	3947.46
721.611	3867.59
721.798	3978.18
721.985	3840.97
722.172	3963.84
722.358	3967.94
722.545	4002.75
722.732	4123.59
722.919	4049.86
723.106	3906.5
723.293	3992.52
723.48	4084.67
723.667	3812.29
723.853	4021.19
724.04	3972.04
724.227	3937.22
724.414	3976.13
724.6	4121.54
724.787	3951.56
724.974	3992.52
725.161	4201.41
725.347	4012.99
725.534	4160.45
725.72	4031.43
725.907	3972.04
726.094	3941.32
726.28	3892.16
726.467	4080.58
726.653	4154.3
726.84	4031.43
727.027	4139.97
727.213	3967.94
727.4	4000.71
727.586	4123.59
727.773	4201.41
727.959	4068.29
728.145	4121.54
728.332	4033.47
728.518	4119.49
728.705	4352.96
728.891	4035.52
729.077	4109.25
729.264	3963.84
729.45	4086.72
729.636	4152.26
729.823	4078.53
730.009	4047.81
730.195	4084.67
730.382	4092.87
730.568	4090.82
730.754	4129.73
730.94	4162.5
731.126	4088.77
731.313	4236.22
731.499	4275.13
731.685	4187.07
731.871	4033.47
732.057	4168.64
732.243	4225.98
732.429	4182.98
732.615	4203.46
732.801	4201.41
732.987	4076.48
733.173	4103.11
733.359	4117.44
733.545	4176.83
733.731	4101.06
733.917	4195.26
734.103	4232.13
734.289	4189.12
734.475	4021.19
734.661	4330.43
734.847	4086.72
735.033	4088.77
735.219	4168.64
735.404	4066.24
735.59	4152.26
735.776	4119.49
735.962	4240.32
736.148	4232.13
736.333	3972.04
736.519	4131.78
736.705	4119.49
736.89	4012.99
737.076	3986.37
737.262	4105.15
737.447	4119.49
737.633	4006.85
737.819	4135.87
738.004	4041.67
738.19	4068.29
738.375	4049.86
738.561	4197.31
738.747	4193.22
738.932	4070.34
739.118	4004.8
739.303	4070.34
739.489	4004.8
739.674	3881.92
739.859	3980.23
740.045	3941.32
740.23	4066.24
740.416	3908.55
740.601	4031.43
740.786	3980.23
740.972	3902.4
741.157	3943.36
741.342	3955.65
741.528	3822.53
741.713	3888.07
741.898	3836.87
742.084	3867.59
742.269	3812.29
742.454	3816.39
742.639	3855.3
742.824	3779.53
743.01	3873.73
743.195	3863.49
743.38	3757
743.565	3802.05
743.75	3791.81
743.935	3552.2
744.12	3812.29
744.305	3572.68
744.49	3648.46
744.675	3808.2
744.86	3644.36
745.045	3654.6
745.23	3558.35
745.415	3580.87
745.6	3636.17
745.785	3501
745.97	3632.07
746.155	3599.31
746.34	3464.14
746.525	3460.04
746.71	3441.61
746.895	3374.03
747.079	3478.47
747.264	3335.12
747.449	3541.96
747.634	3398.6
747.819	3478.47
748.003	3322.83
748.188	3142.61
748.373	3355.6
748.557	3365.84
748.742	3285.97
748.927	3169.23
749.111	3257.29
749.296	3308.49
749.481	3179.47
749.665	3118.03
749.85	3245.01
750.034	3165.14
750.219	3152.85
750.404	3109.84
750.588	3122.13
750.773	3044.31
750.957	3056.59
751.141	2980.82
751.326	2943.96
751.51	2997.2
751.695	2997.2
751.879	2970.58
752.064	2976.72
752.248	2905.04
752.432	2946
752.617	2868.18
752.801	2907.09
752.985	2792.41
753.17	2874.32
753.354	2900.95
753.538	2739.16
753.722	2784.21
753.907	2679.77
754.091	2653.14
754.275	2767.83
754.459	2681.82
754.643	2534.36
754.828	2581.46
755.012	2638.81
755.196	2579.42
755.38	2563.03
755.564	2599.9
755.748	2544.6
755.932	2569.18
756.116	2407.39
756.3	2456.54
756.484	2407.39
756.668	2409.44
756.852	2438.11
757.036	2503.64
757.22	2530.27
757.404	2335.71
757.588	2284.51
757.772	2376.67
757.956	2317.28
758.14	2311.13
758.323	2216.93
758.507	2350.04
758.691	2288.61
758.875	2311.13
759.059	2266.08
759.242	2337.76
759.426	2225.12
759.61	2161.63
759.794	2196.45
759.977	2161.63
760.161	2393.05
760.345	2079.71
760.528	2157.54
760.712	2149.34
760.895	2102.24
761.079	2016.23
761.263	2139.1
761.446	1944.55
761.63	2087.9
761.813	2005.99
761.997	2102.24
762.18	1981.41
762.364	1940.45
762.547	1885.16
762.731	1936.35
762.914	1926.11
763.098	2001.89
763.281	1891.3
763.464	1915.87
763.648	1924.07
763.831	1960.93
764.015	1897.44
764.198	1940.45
764.381	1876.96
764.564	1795.04
764.748	1917.92
764.931	1901.54
765.114	1874.92
765.297	1889.25
765.481	1692.65
765.664	1803.24
765.847	1846.24
766.03	1870.82
766.213	1711.08
766.397	1829.86
766.58	1717.22
766.763	1762.28
766.946	1647.59
767.129	1704.93
767.312	1690.6
767.495	1772.52
767.678	1758.18
767.861	1727.46
768.044	1762.28
768.227	1719.27
768.41	1729.51
768.593	1768.42
768.776	1645.54
768.959	1688.55
769.142	1668.07
769.324	1596.39
769.507	1637.35
769.69	1719.27
769.873	1625.06
770.056	1647.59
770.239	1653.73
770.421	1620.97
770.604	1639.4
770.787	1588.2
770.97	1629.16
771.152	1491.95
771.335	1575.91
771.518	1469.42
771.7	1592.3
771.883	1580.01
772.066	1475.56
772.248	1549.29
772.431	1647.59
772.613	1522.66
772.796	1555.43
772.978	1469.42
773.161	1512.42
773.343	1401.83
773.526	1344.49
773.708	1311.72
773.891	1324.01
774.073	1424.36
774.256	1426.41
774.438	1475.56
774.621	1416.17
774.803	1391.59
774.985	1313.77
775.168	1401.83
775.35	1268.72
775.532	1420.27
775.715	1338.35
775.897	1295.34
776.079	1258.48
776.261	1233.9
776.444	1305.58
776.626	1328.11
776.808	1254.38
776.99	1229.81
777.173	1252.33
777.355	1147.89
777.537	1145.84
777.719	1197.04
777.901	1180.65
778.083	1178.61
778.265	1225.71
778.447	1188.85
778.629	1059.82
778.811	1119.21
778.993	1233.9
779.175	1154.03
779.357	1047.54
779.539	1000.43
779.721	1053.68
779.903	1147.89
780.085	1072.11
780.267	1053.68
780.449	971.76
780.631	1012.72
780.812	1061.87
780.994	1106.93
781.176	1031.15
781.358	1010.67
781.54	1004.53
781.721	1068.02
781.903	1047.54
782.085	1049.58
782.267	1010.67
782.448	926.71
782.63	963.57
782.812	879.6
782.993	900.08
783.175	967.67
783.357	850.93
783.538	898.03
783.72	973.81
783.901	967.67
784.083	863.22
784.264	902.13
784.446	924.66
784.627	859.12
784.809	846.84
784.99	875.51
785.172	936.95
785.353	818.16
785.535	895.99
785.716	775.16
785.897	779.25
786.079	883.7
786.26	797.68
786.441	832.5
786.623	797.68
786.804	771.06
786.985	781.3
787.167	828.4
787.348	728.05
787.529	762.87
787.71	812.02
787.891	717.81
788.073	785.4
788.254	662.52
788.435	744.44
788.616	777.2
788.797	611.32
788.978	697.33
789.159	652.28
789.34	711.67
789.522	730.1
789.703	670.71
789.884	668.66
790.065	650.23
790.246	740.34
790.427	689.14
790.607	674.81
790.788	687.09
790.969	615.41
791.15	678.9
791.331	621.56
791.512	627.7
791.693	605.17
791.874	678.9
792.054	633.85
792.235	674.81
792.416	599.03
792.597	629.75
792.778	613.37
792.958	631.8
793.139	617.46
793.32	611.32
793.5	594.93
793.681	680.95
793.862	580.6
794.042	517.11
794.223	480.25
794.404	517.11
794.584	478.2
794.765	541.69
794.945	601.08
795.126	586.74
795.306	547.83
795.487	476.15
795.667	482.3
795.848	533.5
796.028	408.57
796.209	490.49
796.389	504.82
796.57	531.45
796.75	558.07
796.93	515.06
797.111	502.78
797.291	496.63
797.471	558.07
797.652	404.47
797.832	527.35
798.012	498.68
798.192	472.06
798.373	470.01
798.553	484.34
798.733	519.16
798.913	476.15
799.093	437.24
799.274	437.24
799.454	519.16
799.634	486.39
799.814	510.97
799.994	455.67
800.174	490.49
800.354	441.34
800.534	422.91
800.714	396.28
800.894	478.2
801.074	373.75
801.254	386.04
801.434	515.06
801.614	412.67
801.794	431.1
801.974	1334.25
802.154	459.77
802.334	427
802.514	410.62
802.693	431.1
802.873	396.28
803.053	416.76
803.233	406.52
803.413	441.34
803.592	345.08
803.772	461.82
803.952	420.86
804.131	328.7
804.311	435.19
804.491	445.43
804.67	355.32
804.85	390.14
805.03	349.18
805.209	478.2
805.389	388.09
805.568	349.18
805.748	394.23
805.928	363.51
806.107	427
806.287	375.8
806.466	394.23
806.646	347.13
806.825	283.64
807.004	400.38
807.184	381.95
807.363	312.32
807.543	316.41
807.722	338.94
807.901	410.62
808.081	304.12
808.26	334.84
808.439	394.23
808.619	396.28
808.798	351.23
808.977	318.46
809.156	338.94
809.336	324.6
809.515	369.66
809.694	269.31
809.873	351.23
810.052	320.51
810.231	316.41
810.411	308.22
810.59	324.6
810.769	297.98
810.948	363.51
811.127	187.39
811.306	289.79
811.485	283.64
811.664	328.7
811.843	318.46
812.022	365.56
812.201	295.93
812.38	318.46
812.559	357.37
812.737	267.26
812.916	263.16
813.095	257.02
813.274	314.36
813.453	322.56
813.632	316.41
813.811	293.88
813.989	234.49
814.168	275.45
814.347	248.83
814.526	289.79
814.704	267.26
814.883	308.22
815.062	203.77
815.24	379.9
815.419	209.92
815.598	295.93
815.776	216.06
815.955	275.45
816.133	324.6
816.312	304.12
816.49	197.63
816.669	224.25
816.847	257.02
817.026	236.54
817.204	211.96
817.383	240.64
817.561	277.5
817.74	269.31
817.918	224.25
818.097	318.46
818.275	175.1
818.453	320.51
818.632	214.01
818.81	220.16
818.988	211.96
819.167	195.58
819.345	283.64
819.523	263.16
819.701	246.78
819.879	271.36
820.058	171.01
820.236	277.5
820.414	277.5
820.592	226.3
820.77	226.3
820.948	189.44
821.127	222.2
821.305	252.92
821.483	205.82
821.661	162.81
821.839	115.71
822.017	214.01
822.195	181.25
822.373	230.4
822.551	234.49
822.729	201.72
822.907	236.54
823.085	177.15
823.262	193.53
823.44	146.43
823.618	228.35
823.796	193.53
823.974	220.16
824.152	191.49
824.329	214.01
824.507	173.05
824.685	211.96
824.863	203.77
825.04	209.92
825.218	173.05
825.396	193.53
825.574	259.07
825.751	187.39
825.929	140.29
826.107	138.24
826.284	216.06
826.462	199.68
826.639	171.01
826.817	148.48
826.994	164.86
827.172	152.57
827.349	209.92
827.527	130.05
827.704	162.81
827.882	177.15
828.059	123.9
828.237	144.38
828.414	205.82
828.591	123.9
828.769	158.72
828.946	146.43
829.124	203.77
829.301	250.88
829.478	101.37
829.655	146.43
829.833	152.57
830.01	62.46
830.187	197.63
830.364	187.39
830.542	160.77
830.719	224.25
830.896	156.67
831.073	181.25
831.25	195.58
831.427	181.25
831.604	132.09
831.782	52.22
831.959	220.16
832.136	162.81
832.313	134.14
832.49	183.29
832.667	134.14
832.844	175.1
833.021	128
833.198	121.85
833.374	105.47
833.551	156.67
833.728	99.33
833.905	189.44
834.082	66.56
834.259	136.19
834.436	222.2
834.612	23.55
834.789	162.81
834.966	199.68
835.143	158.72
835.319	105.47
835.496	115.71
835.673	134.14
835.85	101.37
836.026	121.85
836.203	207.87
836.38	50.18
836.556	82.94
836.733	105.47
836.909	185.34
837.086	181.25
837.262	142.33
837.439	140.29
837.616	111.61
837.792	35.84
837.968	115.71
838.145	68.61
838.321	130.05
838.498	152.57
838.674	146.43
838.851	189.44
839.027	107.52
839.203	134.14
839.38	82.94
839.556	113.66
839.732	113.66
839.909	142.33
840.085	97.28
840.261	191.49
840.437	115.71
840.614	115.71
840.79	148.48
840.966	101.37
841.142	56.32
841.318	105.47
841.494	99.33
841.671	162.81
841.847	115.71
842.023	107.52
842.199	76.8
842.375	181.25
842.551	62.46
842.727	66.56
842.903	158.72
843.079	25.6
843.255	140.29
843.431	156.67
843.607	121.85
843.783	15.36
843.959	123.9
844.134	17.41
844.31	148.48
844.486	29.7
844.662	80.89
844.838	105.47
845.013	117.76
845.189	154.62
845.365	93.18
845.541	87.04
845.716	111.61
845.892	142.33
846.068	89.09
846.244	-29.7
846.419	70.65
846.595	44.03
846.77	9.22
846.946	111.61
847.122	87.04
847.297	107.52
847.473	150.53
847.648	-7.17
847.824	52.22
847.999	31.74
848.175	72.7
848.35	72.7
848.526	97.28
848.701	166.91
848.876	160.77
849.052	89.09
849.227	21.5
849.403	41.98
849.578	54.27
849.753	68.61
849.929	121.85
850.104	72.7
850.279	91.13
850.454	62.46
850.63	175.1
850.805	99.33
850.98	21.5
851.155	115.71
851.33	164.86
851.505	33.79
851.681	121.85
851.856	-3.07
852.031	62.46
852.206	99.33
852.381	84.99
852.556	109.57
852.731	105.47
852.906	72.7
853.081	111.61
853.256	203.77
853.431	68.61
853.606	166.91
853.781	89.09
853.956	44.03
854.131	64.51
854.305	48.13
854.48	74.75
854.655	39.94
854.83	31.74
855.005	64.51
855.18	121.85
855.354	50.18
855.529	84.99
855.704	72.7
855.879	105.47
856.053	56.32
856.228	156.67
856.403	76.8
856.577	23.55
856.752	52.22
856.926	80.89
857.101	156.67
857.276	31.74
857.45	39.94
857.625	107.52
857.799	48.13
857.974	41.98
858.148	-13.31
858.323	33.79
858.497	44.03
858.672	-7.17
858.846	103.42
859.02	84.99
859.195	-7.17
859.369	25.6
859.543	41.98
859.718	41.98
859.892	31.74
860.066	60.42
860.241	-41.98
860.415	46.08
860.589	48.13
860.763	25.6
860.938	23.55
861.112	68.61
861.286	93.18
861.46	37.89
861.634	44.03
861.808	123.9
861.982	87.04
862.157	62.46
862.331	7.17
862.505	84.99
862.679	72.7
862.853	27.65
863.027	60.42
863.201	130.05
863.375	29.7
863.549	101.37
863.722	113.66
863.896	74.75
864.07	23.55
864.244	109.57
864.418	70.65
864.592	54.27
864.766	107.52
864.939	-9.22
865.113	-15.36
865.287	97.28
865.461	11.26
865.634	101.37
865.808	52.22
865.982	87.04
866.156	72.7
866.329	97.28
866.503	48.13
866.676	58.37
866.85	-17.41
867.024	121.85
867.197	117.76
867.371	58.37
867.544	113.66
867.718	31.74
867.891	66.56
868.065	-21.5
868.238	84.99
868.412	33.79
868.585	13.31
868.759	-9.22
868.932	66.56
869.105	87.04
869.279	54.27
869.452	17.41
869.625	19.46
869.799	87.04
869.972	-3.07
870.145	89.09
870.319	80.89
870.492	64.51
870.665	-1.02
870.838	46.08
871.011	-54.27
871.185	60.42
871.358	78.85
871.531	80.89
871.704	41.98
871.877	31.74
872.05	121.85
872.223	-9.22
872.396	48.13
872.569	109.57
872.742	-72.7
872.915	46.08
873.088	103.42
873.261	-52.22
873.434	48.13
873.607	35.84
873.78	46.08
873.953	-17.41
874.126	35.84
874.299	25.6
874.471	19.46
874.644	13.31
874.817	101.37
874.99	87.04
875.163	-1.02
875.335	52.22
875.508	15.36
875.681	46.08
875.853	31.74
876.026	76.8
876.199	66.56
876.371	37.89
876.544	11.26
876.717	31.74
876.889	31.74
877.062	72.7
877.234	-17.41
877.407	-1.02
877.579	48.13
877.752	56.32
877.924	78.85
878.097	56.32
878.269	15.36
878.442	-9.22
878.614	1.02
878.786	21.5
878.959	5.12
879.131	35.84
879.303	-25.6
879.476	1.02
879.648	72.7
879.82	21.5
879.993	19.46
880.165	39.94
880.337	23.55
880.509	56.32
880.681	-9.22
880.854	56.32
881.026	109.57
881.198	168.96
881.37	17.41
881.542	41.98
881.714	64.51
881.886	1.02
882.058	44.03
882.23	74.75
882.402	48.13
882.574	23.55
882.746	105.47
882.918	72.7
883.09	35.84
883.262	7.17
883.434	27.65
883.606	-39.94
883.778	-17.41
883.95	107.52
884.122	21.5
884.293	56.32
884.465	56.32
884.637	48.13
884.809	52.22
884.98	97.28
885.152	107.52
885.324	107.52
885.496	-35.84
885.667	-78.85
885.839	117.76
886.011	68.61
886.182	29.7
886.354	58.37
886.525	62.46
886.697	91.13
886.869	17.41
887.04	-5.12
887.212	68.61
887.383	84.99
887.555	-1.02
887.726	17.41
887.897	9.22
888.069	54.27
888.24	58.37
888.412	109.57
888.583	50.18
888.754	35.84
888.926	-1.02
889.097	-3.07
889.268	-1.02
889.44	33.79
889.611	19.46
889.782	87.04
889.953	-21.5
890.125	111.61
890.296	-17.41
890.467	7.17
890.638	9.22
890.809	41.98
890.98	-9.22
891.151	-27.65
891.323	84.99
891.494	5.12
891.665	39.94
891.836	74.75
892.007	-17.41
892.178	91.13
892.349	-80.89
892.52	7.17
892.691	21.5
892.862	-7.17
893.032	-60.42
893.203	-41.98
893.374	-13.31
893.545	41.98
893.716	-19.46
893.887	121.85
894.057	37.89
894.228	1.02
894.399	-1.02
894.57	39.94
894.74	58.37
894.911	1.02
895.082	-35.84
895.253	9.22
895.423	1.02
895.594	27.65
895.764	60.42
895.935	89.09
896.106	-39.94
896.276	64.51
896.447	-1.02
896.617	39.94
896.788	68.61
896.958	19.46
897.129	15.36
897.299	39.94
897.47	48.13
897.64	68.61
897.81	62.46
897.981	-23.55
898.151	29.7
898.322	64.51
898.492	39.94
898.662	-21.5
898.832	23.55
899.003	1.02
899.173	25.6
899.343	-58.37
899.513	21.5
