Data from USB4F104151__17__13-04-30-929.txt Node

Date: Fri Mar 14 13:04:30 EDT 2025
User: louis
Spectrometer: USB4F10415
Trigger mode: 4
Integration Time (sec): 4.000000E-2
Scans to average: 1
Electric dark correction enabled: true
Nonlinearity correction enabled: false
Boxcar width: 0
XAxis mode: Wavelengths
Number of Pixels in Spectrum: 3648
>>>>>Begin Spectral Data<<<<<
178.204	-177.49
178.424	-177.49
178.644	-177.49
178.864	-167.25
179.084	-175.44
179.304	0.68
179.524	-11.61
179.744	25.26
179.964	33.45
180.184	-58.71
180.404	27.31
180.624	55.98
180.844	-46.42
181.064	-1.37
181.283	-7.51
181.503	-60.76
181.723	43.69
181.943	10.92
182.163	150.18
182.383	55.98
182.602	27.31
182.822	51.88
183.042	84.65
183.262	-9.56
183.482	43.69
183.701	47.79
183.921	94.89
184.141	25.26
184.361	6.83
184.58	29.35
184.8	107.18
185.02	90.79
185.239	80.55
185.459	55.98
185.679	60.07
185.898	-68.95
186.118	35.5
186.338	15.02
186.557	72.36
186.777	-15.7
186.997	29.35
187.216	31.4
187.436	92.84
187.655	109.23
187.875	27.31
188.095	-17.75
188.314	119.46
188.534	123.56
188.753	-3.41
188.973	121.51
189.192	94.89
189.412	37.55
189.631	101.03
189.851	96.94
190.07	51.88
190.29	-13.65
190.509	78.51
190.729	23.21
190.948	156.33
191.168	225.96
191.387	12.97
191.607	35.5
191.826	76.46
192.045	12.97
192.265	101.03
192.484	39.59
192.704	60.07
192.923	4.78
193.142	92.84
193.362	27.31
193.581	105.13
193.8	70.31
194.02	80.55
194.239	15.02
194.458	88.75
194.678	12.97
194.897	-5.46
195.116	80.55
195.335	25.26
195.555	19.11
195.774	15.02
195.993	103.08
196.212	23.21
196.432	17.07
196.651	82.6
196.87	-15.7
197.089	103.08
197.308	131.75
197.528	64.17
197.747	8.87
197.966	84.65
198.185	146.09
198.404	2.73
198.623	23.21
198.842	8.87
199.062	94.89
199.281	113.32
199.5	6.83
199.719	94.89
199.938	60.07
200.157	86.7
200.376	29.35
200.595	49.83
200.814	78.51
201.033	12.97
201.252	66.22
201.471	88.75
201.69	84.65
201.909	-11.61
202.128	125.61
202.347	92.84
202.566	53.93
202.785	-3.41
203.004	10.92
203.223	90.79
203.442	35.5
203.661	45.74
203.879	103.08
204.098	78.51
204.317	8.87
204.536	43.69
204.755	47.79
204.974	43.69
205.193	76.46
205.411	170.66
205.63	78.51
205.849	84.65
206.068	68.27
206.287	4.78
206.505	68.27
206.724	113.32
206.943	105.13
207.162	-13.65
207.381	82.6
207.599	66.22
207.818	19.11
208.037	55.98
208.255	101.03
208.474	78.51
208.693	47.79
208.911	58.03
209.13	117.42
209.349	160.42
209.567	64.17
209.786	60.07
210.005	45.74
210.223	70.31
210.442	-40.28
210.661	92.84
210.879	15.02
211.098	66.22
211.316	51.88
211.535	109.23
211.753	47.79
211.972	86.7
212.191	109.23
212.409	47.79
212.628	37.55
212.846	84.65
213.065	62.12
213.283	84.65
213.502	33.45
213.72	74.41
213.938	10.92
214.157	90.79
214.375	19.11
214.594	23.21
214.812	141.99
215.031	-34.13
215.249	78.51
215.467	27.31
215.686	4.78
215.904	162.47
216.122	37.55
216.341	117.42
216.559	39.59
216.778	148.14
216.996	17.07
217.214	43.69
217.432	94.89
217.651	27.31
217.869	39.59
218.087	37.55
218.306	37.55
218.524	109.23
218.742	-34.13
218.96	76.46
219.179	86.7
219.397	53.93
219.615	158.38
219.833	60.07
220.051	53.93
220.27	45.74
220.488	66.22
220.706	96.94
220.924	53.93
221.142	-21.84
221.36	78.51
221.578	27.31
221.796	72.36
222.015	27.31
222.233	4.78
222.451	121.51
222.669	21.16
222.887	103.08
223.105	117.42
223.323	68.27
223.541	-27.99
223.759	156.33
223.977	10.92
224.195	41.64
224.413	31.4
224.631	33.45
224.849	111.27
225.067	144.04
225.285	74.41
225.503	53.93
225.721	-11.61
225.939	41.64
226.157	17.07
226.375	146.09
226.592	45.74
226.81	60.07
227.028	84.65
227.246	158.38
227.464	101.03
227.682	86.7
227.9	98.99
228.117	113.32
228.335	92.84
228.553	47.79
228.771	66.22
228.989	92.84
229.206	98.99
229.424	-3.41
229.642	94.89
229.86	4.78
230.077	70.31
230.295	62.12
230.513	-1.37
230.731	51.88
230.948	92.84
231.166	129.7
231.384	41.64
231.601	4.78
231.819	82.6
232.037	58.03
232.254	-77.14
232.472	12.97
232.689	8.87
232.907	35.5
233.125	31.4
233.342	82.6
233.56	6.83
233.777	19.11
233.995	55.98
234.213	137.9
234.43	39.59
234.648	21.16
234.865	103.08
235.083	96.94
235.3	8.87
235.518	45.74
235.735	94.89
235.953	141.99
236.17	70.31
236.388	74.41
236.605	45.74
236.822	64.17
237.04	166.57
237.257	92.84
237.475	21.16
237.692	84.65
237.909	27.31
238.127	-25.94
238.344	109.23
238.562	51.88
238.779	43.69
238.996	39.59
239.214	-9.56
239.431	64.17
239.648	-9.56
239.865	66.22
240.083	31.4
240.3	15.02
240.517	21.16
240.735	45.74
240.952	125.61
241.169	92.84
241.386	72.36
241.603	43.69
241.821	86.7
242.038	129.7
242.255	127.66
242.472	-34.13
242.689	105.13
242.907	45.74
243.124	64.17
243.341	101.03
243.558	-58.71
243.775	33.45
243.992	-3.41
244.209	45.74
244.426	154.28
244.643	133.8
244.86	103.08
245.078	21.16
245.295	53.93
245.512	33.45
245.729	37.55
245.946	-5.46
246.163	70.31
246.38	53.93
246.597	15.02
246.814	4.78
247.031	92.84
247.248	70.31
247.464	15.02
247.681	25.26
247.898	-13.65
248.115	82.6
248.332	49.83
248.549	96.94
248.766	137.9
248.983	90.79
249.2	35.5
249.417	84.65
249.633	19.11
249.85	131.75
250.067	19.11
250.284	31.4
250.501	103.08
250.717	101.03
250.934	23.21
251.151	60.07
251.368	29.35
251.585	101.03
251.801	15.02
252.018	17.07
252.235	105.13
252.451	80.55
252.668	55.98
252.885	53.93
253.102	-3.41
253.318	84.65
253.535	111.27
253.752	37.55
253.968	39.59
254.185	25.26
254.401	19.11
254.618	121.51
254.835	29.35
255.051	80.55
255.268	29.35
255.484	29.35
255.701	62.12
255.917	105.13
256.134	-38.23
256.351	47.79
256.567	21.16
256.784	92.84
257	-13.65
257.217	133.8
257.433	41.64
257.65	-3.41
257.866	119.46
258.082	-42.32
258.299	115.37
258.515	60.07
258.732	2.73
258.948	27.31
259.165	17.07
259.381	58.03
259.597	88.75
259.814	47.79
260.03	-7.51
260.246	55.98
260.463	43.69
260.679	101.03
260.895	64.17
261.112	37.55
261.328	60.07
261.544	53.93
261.761	135.85
261.977	29.35
262.193	-21.84
262.409	70.31
262.626	127.66
262.842	117.42
263.058	-7.51
263.274	86.7
263.49	53.93
263.707	94.89
263.923	146.09
264.139	23.21
264.355	117.42
264.571	103.08
264.787	78.51
265.004	105.13
265.22	37.55
265.436	49.83
265.652	68.27
265.868	2.73
266.084	35.5
266.3	70.31
266.516	-27.99
266.732	21.16
266.948	64.17
267.164	43.69
267.38	98.99
267.596	49.83
267.812	107.18
268.028	84.65
268.244	31.4
268.46	96.94
268.676	55.98
268.892	96.94
269.108	31.4
269.324	45.74
269.54	-11.61
269.756	55.98
269.972	-23.89
270.188	-5.46
270.403	29.35
270.619	4.78
270.835	49.83
271.051	94.89
271.267	37.55
271.483	70.31
271.698	76.46
271.914	125.61
272.13	53.93
272.346	176.81
272.562	25.26
272.777	68.27
272.993	58.03
273.209	27.31
273.425	53.93
273.64	10.92
273.856	96.94
274.072	19.11
274.287	39.59
274.503	78.51
274.719	4.78
274.934	2.73
275.15	60.07
275.366	78.51
275.581	70.31
275.797	82.6
276.012	19.11
276.228	51.88
276.444	-11.61
276.659	45.74
276.875	45.74
277.09	62.12
277.306	94.89
277.521	74.41
277.737	12.97
277.952	53.93
278.168	2.73
278.383	27.31
278.599	2.73
278.814	78.51
279.03	90.79
279.245	127.66
279.461	90.79
279.676	76.46
279.892	19.11
280.107	76.46
280.322	70.31
280.538	68.27
280.753	-44.37
280.969	45.74
281.184	43.69
281.399	111.27
281.615	-17.75
281.83	8.87
282.045	19.11
282.26	-15.7
282.476	119.46
282.691	152.23
282.906	111.27
283.122	53.93
283.337	23.21
283.552	15.02
283.767	60.07
283.983	6.83
284.198	12.97
284.413	96.94
284.628	76.46
284.843	33.45
285.058	117.42
285.274	60.07
285.489	-9.56
285.704	78.51
285.919	27.31
286.134	0.68
286.349	135.85
286.564	23.21
286.779	172.71
286.995	41.64
287.21	45.74
287.425	21.16
287.64	51.88
287.855	37.55
288.07	-27.99
288.285	51.88
288.5	53.93
288.715	109.23
288.93	146.09
289.145	68.27
289.36	74.41
289.575	37.55
289.79	101.03
290.004	72.36
290.219	90.79
290.434	96.94
290.649	31.4
290.864	76.46
291.079	23.21
291.294	55.98
291.509	47.79
291.724	60.07
291.938	45.74
292.153	82.6
292.368	4.78
292.583	103.08
292.798	62.12
293.012	29.35
293.227	49.83
293.442	6.83
293.657	131.75
293.871	78.51
294.086	31.4
294.301	119.46
294.516	66.22
294.73	139.94
294.945	21.16
295.16	51.88
295.374	127.66
295.589	109.23
295.804	-1.37
296.018	103.08
296.233	86.7
296.447	103.08
296.662	21.16
296.877	176.81
297.091	90.79
297.306	-9.56
297.52	115.37
297.735	-11.61
297.949	33.45
298.164	133.8
298.378	68.27
298.593	58.03
298.807	53.93
299.022	86.7
299.236	66.22
299.451	19.11
299.665	76.46
299.88	47.79
300.094	105.13
300.309	101.03
300.523	27.31
300.737	43.69
300.952	49.83
301.166	109.23
301.381	-9.56
301.595	21.16
301.809	-5.46
302.024	66.22
302.238	-36.18
302.452	150.18
302.667	111.27
302.881	96.94
303.095	64.17
303.309	31.4
303.524	60.07
303.738	-11.61
303.952	29.35
304.166	53.93
304.381	15.02
304.595	109.23
304.809	43.69
305.023	78.51
305.237	0.68
305.452	101.03
305.666	150.18
305.88	133.8
306.094	53.93
306.308	37.55
306.522	84.65
306.736	111.27
306.95	101.03
307.164	55.98
307.379	58.03
307.593	98.99
307.807	96.94
308.021	35.5
308.235	86.7
308.449	-3.41
308.663	41.64
308.877	125.61
309.091	6.83
309.305	33.45
309.519	-54.61
309.733	150.18
309.947	60.07
310.161	84.65
310.374	82.6
310.588	12.97
310.802	74.41
311.016	-13.65
311.23	33.45
311.444	39.59
311.658	27.31
311.872	101.03
312.085	88.75
312.299	129.7
312.513	92.84
312.727	68.27
312.941	43.69
313.154	23.21
313.368	74.41
313.582	29.35
313.796	27.31
314.009	58.03
314.223	107.18
314.437	74.41
314.651	60.07
314.864	-38.23
315.078	80.55
315.292	-5.46
315.505	-23.89
315.719	150.18
315.933	64.17
316.146	74.41
316.36	4.78
316.573	94.89
316.787	39.59
317.001	58.03
317.214	8.87
317.428	27.31
317.641	35.5
317.855	49.83
318.068	60.07
318.282	21.16
318.495	76.46
318.709	109.23
318.922	117.42
319.136	55.98
319.349	182.95
319.563	60.07
319.776	27.31
319.99	-11.61
320.203	68.27
320.417	47.79
320.63	137.9
320.843	162.47
321.057	60.07
321.27	96.94
321.483	92.84
321.697	82.6
321.91	105.13
322.124	43.69
322.337	78.51
322.55	72.36
322.763	125.61
322.977	27.31
323.19	29.35
323.403	51.88
323.617	94.89
323.83	119.46
324.043	35.5
324.256	111.27
324.469	51.88
324.683	76.46
324.896	19.11
325.109	131.75
325.322	15.02
325.535	55.98
325.748	172.71
325.962	82.6
326.175	43.69
326.388	58.03
326.601	158.38
326.814	88.75
327.027	80.55
327.24	113.32
327.453	35.5
327.666	84.65
327.879	109.23
328.092	133.8
328.305	121.51
328.518	12.97
328.731	-42.32
328.944	29.35
329.157	101.03
329.37	88.75
329.583	195.24
329.796	103.08
330.009	72.36
330.222	113.32
330.435	0.68
330.648	82.6
330.861	101.03
331.073	86.7
331.286	19.11
331.499	64.17
331.712	45.74
331.925	78.51
332.138	43.69
332.35	62.12
332.563	72.36
332.776	72.36
332.989	23.21
333.202	51.88
333.414	25.26
333.627	84.65
333.84	8.87
334.053	25.26
334.265	8.87
334.478	53.93
334.691	80.55
334.903	101.03
335.116	2.73
335.329	64.17
335.541	96.94
335.754	182.95
335.966	27.31
336.179	66.22
336.392	103.08
336.604	78.51
336.817	66.22
337.029	86.7
337.242	92.84
337.454	117.42
337.667	35.5
337.88	19.11
338.092	127.66
338.305	64.17
338.517	12.97
338.729	105.13
338.942	152.23
339.154	45.74
339.367	64.17
339.579	119.46
339.792	51.88
340.004	182.95
340.217	45.74
340.429	109.23
340.641	-25.94
340.854	51.88
341.066	60.07
341.278	107.18
341.491	60.07
341.703	137.9
341.915	43.69
342.128	92.84
342.34	31.4
342.552	45.74
342.764	109.23
342.977	-56.66
343.189	62.12
343.401	82.6
343.613	15.02
343.826	8.87
344.038	127.66
344.25	62.12
344.462	84.65
344.674	53.93
344.886	-5.46
345.099	66.22
345.311	96.94
345.523	35.5
345.735	101.03
345.947	94.89
346.159	125.61
346.371	109.23
346.583	41.64
346.795	111.27
347.007	55.98
347.219	53.93
347.431	0.68
347.643	94.89
347.855	53.93
348.067	139.94
348.279	2.73
348.491	0.68
348.703	139.94
348.915	41.64
349.127	86.7
349.339	68.27
349.551	58.03
349.763	-19.8
349.975	60.07
350.187	33.45
350.399	115.37
350.61	76.46
350.822	25.26
351.034	92.84
351.246	76.46
351.458	98.99
351.669	94.89
351.881	41.64
352.093	84.65
352.305	72.36
352.517	168.62
352.728	125.61
352.94	-3.41
353.152	101.03
353.363	51.88
353.575	78.51
353.787	133.8
353.999	72.36
354.21	160.42
354.422	29.35
354.633	88.75
354.845	27.31
355.057	164.52
355.268	101.03
355.48	166.57
355.692	2.73
355.903	101.03
356.115	90.79
356.326	49.83
356.538	150.18
356.749	90.79
356.961	164.52
357.172	2.73
357.384	51.88
357.595	135.85
357.807	12.97
358.018	-11.61
358.23	90.79
358.441	215.72
358.653	53.93
358.864	66.22
359.075	10.92
359.287	60.07
359.498	103.08
359.709	119.46
359.921	45.74
360.132	60.07
360.344	51.88
360.555	-23.89
360.766	15.02
360.977	78.51
361.189	68.27
361.4	27.31
361.611	125.61
361.823	127.66
362.034	101.03
362.245	-3.41
362.456	90.79
362.667	113.32
362.879	27.31
363.09	101.03
363.301	98.99
363.512	127.66
363.723	8.87
363.935	74.41
364.146	76.46
364.357	103.08
364.568	96.94
364.779	78.51
364.99	113.32
365.201	45.74
365.412	152.23
365.623	60.07
365.834	84.65
366.045	84.65
366.256	146.09
366.467	133.8
366.678	82.6
366.889	86.7
367.1	37.55
367.311	72.36
367.522	51.88
367.733	84.65
367.944	92.84
368.155	31.4
368.366	123.56
368.577	154.28
368.788	76.46
368.999	58.03
369.209	92.84
369.42	213.67
369.631	103.08
369.842	133.8
370.053	33.45
370.264	135.85
370.474	115.37
370.685	101.03
370.896	29.35
371.107	125.61
371.317	111.27
371.528	60.07
371.739	141.99
371.95	117.42
372.16	131.75
372.371	49.83
372.582	96.94
372.792	-34.13
373.003	98.99
373.214	111.27
373.424	137.9
373.635	-54.61
373.846	92.84
374.056	103.08
374.267	137.9
374.477	111.27
374.688	35.5
374.898	107.18
375.109	72.36
375.319	197.29
375.53	125.61
375.74	135.85
375.951	27.31
376.161	84.65
376.372	209.58
376.582	109.23
376.793	103.08
377.003	58.03
377.214	-17.75
377.424	74.41
377.635	101.03
377.845	15.02
378.055	146.09
378.266	103.08
378.476	66.22
378.686	123.56
378.897	119.46
379.107	109.23
379.317	43.69
379.528	-17.75
379.738	119.46
379.948	51.88
380.158	139.94
380.369	70.31
380.579	101.03
380.789	82.6
380.999	80.55
381.21	115.37
381.42	180.9
381.63	66.22
381.84	86.7
382.05	96.94
382.261	76.46
382.471	146.09
382.681	92.84
382.891	164.52
383.101	135.85
383.311	80.55
383.521	8.87
383.731	111.27
383.941	68.27
384.151	70.31
384.361	68.27
384.571	103.08
384.781	115.37
384.991	78.51
385.201	111.27
385.411	101.03
385.621	94.89
385.831	101.03
386.041	35.5
386.251	90.79
386.461	109.23
386.671	101.03
386.881	101.03
387.091	141.99
387.301	90.79
387.511	115.37
387.72	84.65
387.93	172.71
388.14	103.08
388.35	164.52
388.56	90.79
388.769	187.05
388.979	146.09
389.189	58.03
389.399	113.32
389.609	135.85
389.818	76.46
390.028	135.85
390.238	41.64
390.447	78.51
390.657	119.46
390.867	80.55
391.076	76.46
391.286	103.08
391.496	51.88
391.705	47.79
391.915	92.84
392.125	141.99
392.334	115.37
392.544	191.14
392.753	154.28
392.963	29.35
393.172	31.4
393.382	35.5
393.591	148.14
393.801	117.42
394.01	123.56
394.22	113.32
394.429	103.08
394.639	72.36
394.848	117.42
395.058	127.66
395.267	109.23
395.477	141.99
395.686	197.29
395.895	121.51
396.105	232.1
396.314	121.51
396.524	86.7
396.733	88.75
396.942	119.46
397.152	98.99
397.361	154.28
397.57	164.52
397.78	154.28
397.989	119.46
398.198	146.09
398.407	111.27
398.617	129.7
398.826	154.28
399.035	84.65
399.244	80.55
399.453	74.41
399.663	207.53
399.872	72.36
400.081	137.9
400.29	201.38
400.499	127.66
400.708	180.9
400.917	133.8
401.127	135.85
401.336	197.29
401.545	260.77
401.754	182.95
401.963	221.86
402.172	162.47
402.381	162.47
402.59	129.7
402.799	60.07
403.008	195.24
403.217	121.51
403.426	146.09
403.635	129.7
403.844	228.01
404.053	166.57
404.262	201.38
404.471	258.73
404.68	96.94
404.888	223.91
405.097	223.91
405.306	113.32
405.515	154.28
405.724	223.91
405.933	209.58
406.142	332.45
406.35	275.11
406.559	205.48
406.768	236.2
406.977	371.37
407.185	287.4
407.394	273.06
407.603	232.1
407.812	260.77
408.02	301.73
408.229	361.13
408.438	291.49
408.646	230.06
408.855	318.12
409.064	293.54
409.272	365.22
409.481	371.37
409.69	361.13
409.898	359.08
410.107	422.56
410.315	395.94
410.524	404.13
410.733	400.04
410.941	469.67
411.15	465.57
411.358	471.72
411.567	520.87
411.775	520.87
411.984	580.26
412.192	559.78
412.401	510.63
412.609	496.29
412.818	514.72
413.026	600.74
413.234	576.16
413.443	649.89
413.651	594.59
413.86	629.41
414.068	658.08
414.276	737.95
414.485	686.75
414.693	836.25
414.901	961.18
415.11	869.02
415.318	889.5
415.526	873.12
415.734	969.37
415.943	932.51
416.151	912.03
416.359	920.22
416.567	1137.31
416.776	1155.74
416.984	1190.55
417.192	1159.83
417.4	1215.13
417.608	1208.98
417.817	1219.22
418.025	1374.87
418.233	1424.02
418.441	1249.94
418.649	1387.16
418.857	1559.19
419.065	1491.6
419.273	1587.86
419.481	1632.91
419.689	1749.65
419.897	1788.56
420.105	1872.53
420.313	1825.42
420.521	1991.31
420.729	1987.21
420.937	2097.8
421.145	2044.56
421.353	2192.01
421.561	2339.46
421.769	2232.97
421.977	2577.03
422.185	2427.53
422.393	2665.09
422.601	2806.4
422.809	2835.07
423.017	2849.41
423.224	2947.71
423.432	3009.15
423.64	2929.28
423.848	3369.59
424.056	3246.71
424.263	3414.65
424.471	3471.99
424.679	3558
424.887	3656.31
425.094	3803.76
425.302	3809.9
425.51	4070
425.718	4129.39
425.925	4211.31
426.133	4262.51
426.341	4579.94
426.548	4657.76
426.756	4745.83
426.964	4774.5
427.171	5042.78
427.379	5237.34
427.586	5169.76
427.794	5411.42
428.001	5769.81
428.209	5966.42
428.417	5876.31
428.624	6328.91
428.832	6373.96
429.039	6124.11
429.247	6193.74
429.454	6738.5
429.662	7311.93
429.869	6902.34
430.076	7318.08
430.284	7010.88
430.491	7455.29
430.699	7916.08
430.906	7834.16
431.114	7848.5
431.321	8294.96
431.528	8360.49
431.736	8823.33
431.943	9409.05
432.15	9011.75
432.358	9251.36
432.565	9902.61
432.772	9568.79
432.979	10228.24
433.187	10244.62
433.394	10422.8
433.601	10985.99
433.808	11491.84
434.016	10834.44
434.223	11448.83
434.43	12249.58
434.637	11938.29
434.844	12696.04
435.052	13132.26
435.259	12909.03
435.466	12949.99
435.673	12720.62
435.88	13738.46
436.087	14467.53
436.294	14463.44
436.501	14103
436.708	14479.82
436.915	14705.1
437.122	15602.11
437.329	15266.24
437.537	15913.4
437.743	16288.18
437.95	16128.44
438.157	17066.41
438.364	17502.62
438.571	17322.4
438.778	17576.35
438.985	19290.5
439.192	18256.28
439.399	18995.59
439.606	18620.81
439.813	20033.91
440.02	20791.66
440.227	20638.06
440.433	20502.9
440.64	21041.51
440.847	21000.55
441.054	21391.72
441.261	22858.06
441.467	22696.27
441.674	23036.24
441.881	24172.86
442.088	23882.05
442.294	23529.8
442.501	24088.89
442.708	24785.2
442.914	25479.46
443.121	26536.21
443.328	25821.47
443.534	27930.88
443.741	27083.02
443.948	26730.77
444.154	28842.23
444.361	28526.84
444.568	28831.99
444.774	28881.14
444.981	29014.26
445.187	30001.38
445.394	31414.48
445.6	30730.45
445.807	33767.59
446.013	32616.63
446.22	33147.06
446.426	34261.15
446.633	34850.97
446.839	35831.94
447.046	34332.83
447.252	36225.15
447.459	36233.35
447.665	36524.16
447.871	37523.57
448.078	39045.21
448.284	37660.78
448.491	38275.17
448.697	40325.19
448.903	40431.68
449.11	40480.83
449.316	40431.68
449.522	40767.55
449.728	41832.49
449.935	42450.98
450.141	42256.42
450.347	43061.27
450.553	41910.32
450.76	42649.63
450.966	44101.64
451.172	43323.41
451.378	44466.18
451.584	43614.23
451.791	44621.83
451.997	44783.62
452.203	45443.06
452.409	45381.62
452.615	44746.75
452.821	43595.79
453.027	43165.72
453.233	45275.13
453.44	43976.72
453.646	44120.07
453.852	44296.2
454.058	45180.92
454.264	43606.03
454.47	44689.41
454.676	43417.62
454.882	45119.48
455.088	41230.39
455.294	41832.49
455.5	42115.11
455.705	43143.19
455.911	41670.7
456.117	40556.61
456.323	39979.08
456.529	38115.43
456.735	39870.54
456.941	38705.24
457.147	37757.03
457.352	36890.74
457.558	36526.21
457.764	36393.09
457.97	35510.41
458.176	35244.18
458.381	34984.08
458.587	33179.82
458.793	33351.85
458.999	31543.5
459.204	34031.78
459.41	33085.62
459.616	30722.26
459.821	30859.48
460.027	30562.52
460.233	30056.67
460.438	28821.75
460.644	29155.57
460.85	27748.61
461.055	27230.48
461.261	27427.08
461.466	24961.33
461.672	24224.06
461.878	26073.37
462.083	24518.96
462.289	23757.12
462.494	23791.94
462.7	22911.31
462.905	22208.86
463.111	22870.35
463.316	22882.64
463.522	22286.68
463.727	22409.56
463.932	22155.61
464.138	22030.68
464.343	21971.29
464.549	21281.13
464.754	22184.28
464.959	21819.74
465.165	21887.32
465.37	20930.92
465.575	20492.66
465.781	21041.51
465.986	21361
466.191	20470.13
466.397	20251
466.602	19110.28
466.807	19984.76
467.012	20111.74
467.218	19923.32
467.423	19636.61
467.628	19679.61
467.833	20525.43
468.038	19620.22
468.244	19190.15
468.449	19982.71
468.654	19089.8
468.859	19141
469.064	19276.16
469.269	18305.43
469.474	18600.33
469.679	18639.25
469.885	18309.52
470.09	18332.05
470.295	18477.46
470.5	18020.76
470.705	18217.36
470.91	17609.12
471.115	17330.59
471.32	17797.53
471.525	17447.33
471.73	17365.41
471.935	17115.56
472.139	16449.97
472.344	16972.2
472.549	16650.67
472.754	16576.94
472.959	16314.8
473.164	15868.34
473.369	15714.75
473.574	16093.62
473.778	16189.88
473.983	15835.58
474.188	15833.53
474.393	15280.58
474.598	15425.98
474.802	15024.58
475.007	15120.84
475.212	15178.18
475.417	14490.06
475.621	14342.61
475.826	14422.48
476.031	14080.47
476.235	13808.09
476.44	14180.82
476.645	13691.35
476.849	13918.68
477.054	13838.81
477.259	13326.82
477.463	13650.39
477.668	13173.22
477.872	13257.18
478.077	13056.48
478.282	12741.1
478.486	12657.13
478.691	12483.05
478.895	12462.57
479.1	12464.62
479.304	12575.21
479.509	12118.51
479.713	12454.38
479.918	11987.44
480.122	11901.43
480.326	12009.97
480.531	12063.22
480.735	11921.91
480.94	11854.33
481.144	12188.14
481.348	11616.76
481.553	11973.11
481.757	11520.51
481.961	11594.23
482.166	11831.8
482.37	11559.42
482.574	11495.93
482.778	11309.57
482.983	11692.54
483.187	11547.13
483.391	11522.55
483.595	11387.39
483.8	11346.43
484.004	11575.8
484.208	11702.78
484.412	11602.43
484.616	11559.42
484.821	11639.29
485.025	11313.66
485.229	11512.32
485.433	11532.79
485.637	11454.97
485.841	11467.26
486.045	11160.06
486.249	11635.19
486.453	11649.53
486.657	11588.09
486.861	11573.75
487.065	11258.37
487.269	11586.04
487.473	11205.12
487.677	11547.13
487.881	11647.48
488.085	11475.45
488.289	11512.32
488.493	11340.29
488.697	11678.2
488.901	11583.99
489.105	11489.79
489.309	11631.1
489.512	11842.04
489.716	11545.08
489.92	11635.19
490.124	11672.06
490.328	11942.39
490.531	11809.27
490.735	11796.98
490.939	11624.95
491.143	11727.35
491.346	11801.08
491.55	12220.91
491.754	11805.17
491.958	12057.07
492.161	12016.12
492.365	12108.27
492.569	12009.97
492.772	12278.26
492.976	12288.5
493.18	12159.47
493.383	12374.51
493.587	12339.69
493.79	12587.5
493.994	12495.34
494.197	12360.17
494.401	12558.83
494.605	12751.34
494.808	12782.06
495.012	12906.98
495.215	12962.28
495.419	13070.82
495.622	13021.67
495.825	13224.42
496.029	13246.94
496.232	13347.3
496.436	13416.93
496.639	13806.04
496.843	13738.46
497.046	13933.01
497.249	14066.13
497.453	14068.18
497.656	14252.5
497.859	14289.36
498.063	14473.68
498.266	14957
498.469	14940.61
498.673	14979.53
498.876	15151.56
499.079	15151.56
499.282	15428.03
499.485	15575.48
499.689	15681.98
499.892	16075.19
500.095	16067
500.298	16505.26
500.501	16019.89
500.705	16814.51
500.908	16812.46
501.111	16951.72
501.314	17084.84
501.517	17424.8
501.72	17535.39
501.923	17398.18
502.126	18008.47
502.329	18041.24
502.532	18280.85
502.735	18428.31
502.938	18471.31
503.141	18829.71
503.344	18983.31
503.547	19097.99
503.75	19282.31
503.953	19550.59
504.156	19673.47
504.359	19933.56
504.562	19972.47
504.765	20509.04
504.968	20912.49
505.17	21049.71
505.373	20910.44
505.576	21483.87
505.779	21440.87
505.982	21637.47
506.185	21782.88
506.387	22092.12
506.59	22423.89
506.793	22847.82
506.996	22731.09
507.198	23167.31
507.401	23191.88
507.604	23261.51
507.807	23771.46
508.009	24062.27
508.212	24172.86
508.415	24125.75
508.617	24566.07
508.82	25002.29
509.022	25030.96
509.225	25446.69
509.428	25848.1
509.63	25921.82
509.833	26030.37
510.035	26773.78
510.238	26229.02
510.44	26943.76
510.643	27171.08
510.845	27293.96
511.048	27470.09
511.25	27463.94
511.453	27988.22
511.655	28621.05
511.858	28291.32
512.06	28643.57
512.262	28981.49
512.465	28686.58
512.667	29878.5
512.87	30060.77
513.072	30251.23
513.274	30431.45
513.477	30812.37
513.679	31244.49
513.881	31291.6
514.084	31672.52
514.286	31510.73
514.488	32045.25
514.69	32665.78
514.893	32786.61
515.095	32884.92
515.297	33245.36
515.499	33364.14
515.701	33763.5
515.904	34199.71
516.106	34424.99
516.308	34680.99
516.51	34771.1
516.712	35180.69
516.914	35326.1
517.116	35868.81
517.318	35979.4
517.52	36276.35
517.722	36315.26
517.925	37177.46
518.127	37265.52
518.329	37159.03
518.531	37070.96
518.733	37898.34
518.935	38510.69
519.136	38776.92
519.338	38946.9
519.54	39032.92
519.742	39305.3
519.944	39321.68
520.146	40216.64
520.348	40802.36
520.55	40411.2
520.752	40605.76
520.954	41400.37
521.155	41084.98
521.357	41830.44
521.559	42094.63
521.761	42741.79
521.963	42297.38
522.164	42760.22
522.366	42735.65
522.568	43122.71
522.77	43548.69
522.971	44355.59
523.173	43853.84
523.375	44331.01
523.576	44488.71
523.778	44486.66
523.98	44910.59
524.181	45352.95
524.383	45572.08
524.584	45996.01
524.786	45651.95
524.988	45807.6
525.189	46417.89
525.391	46637.03
525.592	46645.22
525.794	47087.58
525.995	46966.75
526.197	47392.73
526.398	47685.59
526.6	47419.35
526.801	48064.46
527.003	47876.05
527.204	48496.58
527.406	48445.38
527.607	48293.83
527.808	48922.56
528.01	47994.83
528.211	48644.04
528.412	49444.79
528.614	49199.04
528.815	49317.82
529.016	49903.54
529.218	49651.64
529.419	49612.73
529.62	49731.51
529.822	49936.3
530.023	49811.38
530.224	50112.43
530.425	49629.11
530.626	49608.63
530.828	49749.94
531.029	50790.31
531.23	50358.19
531.431	50247.6
531.632	50286.51
531.833	50866.08
532.035	50153.39
532.236	50704.29
532.437	50710.44
532.638	50698.15
532.839	51181.47
533.04	50991.01
533.241	50331.56
533.442	51670.93
533.643	51326.88
533.844	50788.26
534.045	51298.2
534.246	50415.53
534.447	51128.22
534.648	50978.72
534.849	51160.99
535.05	51195.81
535.251	51523.48
535.451	50577.32
535.652	51279.77
535.853	51353.5
536.054	50904.99
536.255	51535.77
536.456	50552.74
536.657	51468.19
536.857	51265.44
537.058	51099.55
537.259	51353.5
537.46	51328.92
537.66	51163.04
537.861	51462.04
538.062	51218.33
538.263	51494.81
538.463	50933.67
538.664	51378.07
538.865	51378.07
539.065	51564.44
539.266	50698.15
539.466	51646.36
539.667	51058.59
539.868	51447.71
540.068	50874.27
540.269	51087.26
540.469	51453.85
540.67	50960.29
540.87	50876.32
541.071	50976.67
541.271	51361.69
541.472	51238.81
541.672	51206.05
541.873	51011.49
542.073	50272.17
542.274	51423.13
542.474	51060.64
542.675	50644.9
542.875	51582.87
543.075	50853.79
543.276	50556.84
543.476	51455.9
543.676	50835.36
543.877	51060.64
544.077	51089.31
544.277	50718.63
544.478	50487.21
544.678	50745.25
544.878	50931.62
545.078	51255.2
545.279	50124.72
545.479	50782.12
545.679	51128.22
545.879	51011.49
546.079	50632.61
546.28	50577.32
546.48	50489.26
546.68	50769.83
546.88	50800.55
547.08	50737.06
547.28	50810.79
547.48	50018.22
547.68	50796.45
547.88	50528.17
548.081	50714.53
548.281	50282.41
548.481	50364.33
548.681	50771.88
548.881	50577.32
549.081	50638.76
549.28	50378.67
549.48	50485.16
549.68	50335.66
549.88	51171.23
550.08	50106.29
550.28	50513.83
550.48	50352.04
550.68	50433.96
550.88	50030.51
551.08	49915.82
551.279	50720.68
551.479	50403.24
551.679	50968.48
551.879	50390.95
552.079	50407.34
552.278	49829.81
552.478	50032.56
552.678	49919.92
552.878	50356.14
553.077	50282.41
553.277	49620.92
553.477	50640.81
553.676	50190.25
553.876	50122.67
554.076	49960.88
554.275	49768.37
554.475	49907.63
554.674	50034.61
554.874	49899.44
555.074	49375.16
555.273	49799.09
555.473	49952.69
555.672	49608.63
555.872	49573.81
556.071	50034.61
556.271	49741.75
556.47	49299.39
556.67	48963.52
556.869	49391.54
557.068	49547.19
557.268	48799.68
557.467	49375.16
557.667	49469.37
557.866	49352.63
558.065	49014.72
558.265	48922.56
558.464	48768.96
558.663	49127.36
558.863	48461.77
559.062	49346.49
559.261	48146.38
559.461	49041.34
559.66	48467.91
559.859	48644.04
560.058	48594.89
560.258	48586.69
560.457	47890.38
560.656	48285.64
560.855	47945.68
561.054	48273.35
561.253	47593.43
561.453	47923.15
561.652	48078.8
561.851	48074.7
562.05	47847.38
562.249	47712.21
562.448	47828.94
562.647	47466.45
562.846	47521.75
563.045	47394.78
563.244	46819.3
563.443	48072.65
563.642	46768.1
563.841	47085.53
564.04	47124.44
564.239	47581.14
564.438	46671.84
564.637	47081.44
564.836	47087.58
565.035	46104.56
565.234	46587.88
565.432	46110.7
565.631	46872.54
565.83	46428.13
566.029	46186.47
566.228	46264.3
566.427	45891.57
566.625	45770.74
566.824	45543.41
567.023	45971.44
567.222	44922.88
567.42	45610.99
567.619	45244.41
567.818	45314.04
568.016	45275.13
568.215	45553.65
568.414	45383.67
568.612	45311.99
568.811	45139.96
569.01	45088.76
569.208	44462.08
569.407	44773.38
569.605	44627.97
569.804	44728.32
570.002	43726.86
570.201	44754.94
570.4	44589.06
570.598	43853.84
570.797	43804.69
570.995	43995.15
571.193	43524.11
571.392	44161.03
571.59	43266.07
571.789	43634.7
571.987	43628.56
572.186	43051.03
572.384	42715.17
572.582	43130.9
572.781	43704.34
572.979	42678.3
573.177	42827.81
573.376	42842.14
573.574	42688.54
573.772	43024.41
573.971	42375.2
574.169	42330.15
574.367	41873.45
574.565	42641.44
574.763	42272.81
574.962	41584.69
575.16	41670.7
575.358	41807.92
575.556	41068.6
575.754	42010.67
575.952	41431.09
576.151	41465.91
576.349	40898.62
576.547	41089.08
576.745	41173.05
576.943	41220.15
577.141	40779.84
577.339	41070.65
577.537	40808.51
577.735	40513.6
577.933	40325.19
578.131	40702.01
578.329	40372.29
578.527	39688.27
578.725	39936.07
578.923	40323.14
579.121	40400.96
579.319	39792.72
579.516	39766.09
579.714	39499.86
579.912	39575.63
580.11	39501.9
580.308	39272.53
580.506	39626.83
580.704	38490.21
580.901	39303.25
581.099	39233.62
581.297	38766.68
581.495	38541.41
581.692	38987.86
581.89	38455.39
582.088	38680.67
582.285	38406.24
582.483	38441.06
582.681	38400.1
582.878	38193.25
583.076	37857.38
583.274	38193.25
583.471	37519.47
583.669	37662.83
583.866	37484.65
584.064	37822.57
584.262	37222.51
584.459	37736.55
584.657	37283.95
584.854	37361.78
585.052	36577.4
585.249	37103.73
585.447	36774.01
585.644	36565.12
585.841	36888.7
586.039	37113.97
586.236	36468.86
586.434	36618.36
586.631	36221.06
586.828	36591.74
587.026	36411.52
587.223	36003.97
587.42	35723.4
587.618	36030.6
587.815	35776.65
588.012	35510.41
588.21	35539.08
588.407	35840.14
588.604	35668.11
588.801	35010.71
588.999	35014.8
589.196	35129.49
589.393	34883.73
589.59	34850.97
589.787	34777.24
589.984	34617.5
590.182	34281.63
590.379	34549.92
590.576	34424.99
590.773	34533.53
590.97	34158.75
591.167	34445.47
591.364	33632.43
591.561	34062.5
591.758	33906.85
591.955	33597.61
592.152	34128.03
592.349	33468.59
592.546	33300.65
592.743	33456.3
592.94	33069.23
593.137	33398.96
593.334	33118.39
593.531	32409.79
593.727	33253.55
593.924	32827.57
594.121	32471.23
594.318	32868.53
594.515	32227.52
594.712	32602.3
594.908	32116.93
595.105	32348.35
595.302	31951.04
595.499	32145.6
595.696	32182.46
595.892	31553.74
596.089	32039.11
596.286	31905.99
596.482	31678.66
596.679	31340.75
596.876	31695.05
597.072	31385.8
597.269	31520.97
597.466	31162.58
597.662	31203.53
597.859	31275.21
598.055	31291.6
598.252	30660.82
598.448	30826.71
598.645	30800.08
598.841	30421.21
599.038	30685.4
599.234	30763.22
599.431	30187.74
599.627	30234.85
599.824	30284
600.02	29843.68
600.217	30218.46
600.413	29737.19
600.609	29468.9
600.806	29751.52
601.002	29577.45
601.198	29417.71
601.395	29305.07
601.591	29188.33
601.787	29110.51
601.984	29067.5
602.18	29241.58
602.376	28922.1
602.572	29159.66
602.769	28791.03
602.965	28467.45
603.161	29233.39
603.357	28188.92
603.553	28539.13
603.75	28494.07
603.946	28496.12
604.142	28346.62
604.338	28068.09
604.534	27961.6
604.73	27627.78
604.926	27674.88
605.122	28055.81
605.318	27556.1
605.514	27824.39
605.71	27562.25
605.906	27488.52
606.102	27789.57
606.298	27433.22
606.494	27324.68
606.69	27265.29
606.886	27355.4
607.082	27005.2
607.278	27285.77
607.474	26788.11
607.67	26894.61
607.866	26720.53
608.062	26781.97
608.257	26648.85
608.453	26679.57
608.649	26454.29
608.845	26736.91
609.041	26138.91
609.236	26902.8
609.432	26317.08
609.628	26087.71
609.824	26231.07
610.019	25991.45
610.215	26370.33
610.411	26280.22
610.606	26122.52
610.802	25964.83
610.998	26247.45
611.193	26183.96
611.389	25643.3
611.584	25815.33
611.78	25569.57
611.976	25481.51
612.171	25618.72
612.367	25348.39
612.562	25704.74
612.758	25241.9
612.953	25155.88
613.149	25850.14
613.344	25155.88
613.539	25905.44
613.735	25225.51
613.93	25202.99
614.126	25092.4
614.321	25375.02
614.517	24975.66
614.712	25045.29
614.907	24752.43
615.103	25014.57
615.298	24647.99
615.493	25059.63
615.688	24351.03
615.884	25078.06
616.079	24545.59
616.274	25022.76
616.47	24566.07
616.665	24668.47
616.86	24533.3
617.055	24262.97
617.25	24191.29
617.445	24721.71
617.641	24318.26
617.836	24162.62
618.031	23765.31
618.226	24265.02
618.421	24097.08
618.616	24369.46
618.811	23298.38
619.006	23951.68
619.201	23503.17
619.396	23738.69
619.591	23134.54
619.786	23755.07
619.981	23195.98
620.176	23417.16
620.371	23273.8
620.566	23204.17
620.761	23103.82
620.956	23001.42
621.151	22939.98
621.346	22997.32
621.541	22317.4
621.735	22589.78
621.93	22292.82
622.125	22339.93
622.32	22178.14
622.515	22077.79
622.709	21956.96
622.904	21832.03
623.099	21813.6
623.294	21762.4
623.488	21563.75
623.683	21391.72
623.878	21399.91
624.072	21264.74
624.267	21580.13
624.462	21160.3
624.656	20928.88
624.851	21068.14
625.046	20525.43
625.24	20625.78
625.435	20306.29
625.629	20232.57
625.824	20187.51
626.018	20285.81
626.213	19841.4
626.407	19915.13
626.602	19595.65
626.796	19730.81
626.991	19706.24
627.185	19532.16
627.38	19378.56
627.574	19362.18
627.768	19229.06
627.963	18948.49
628.157	18811.28
628.352	19196.29
628.546	18729.36
628.74	18729.36
628.935	18491.79
629.129	18491.79
629.323	18239.89
629.517	18207.12
629.712	18194.84
629.906	18059.67
630.1	17688.99
630.294	18153.88
630.489	17584.54
630.683	17707.42
630.877	17682.84
631.071	17535.39
631.265	17643.93
631.459	17459.62
631.653	17133.99
631.848	17258.92
632.042	16972.2
632.236	17326.5
632.43	17109.41
632.624	17199.52
632.818	16992.68
633.012	16687.53
633.206	16585.13
633.4	16701.87
633.594	16372.14
633.788	16363.95
633.982	16333.23
634.176	16187.83
634.369	16169.4
634.563	15956.41
634.757	16030.13
634.951	15765.95
635.145	15985.08
635.339	15821.24
635.533	15638.97
635.726	15743.42
635.92	15460.8
636.114	15321.54
636.308	15280.58
636.501	15382.98
636.695	15184.32
636.889	15098.31
637.083	15018.44
637.276	15079.88
637.47	14711.24
637.664	14690.76
637.857	14682.57
638.051	14684.62
638.244	14592.46
638.438	14371.28
638.632	14393.81
638.825	14029.27
639.019	14275.02
639.212	14219.73
639.406	14148.05
639.599	13912.53
639.793	14012.88
639.986	13924.82
640.18	13945.3
640.373	13787.61
640.567	13445.6
640.76	13631.96
640.954	13437.41
641.147	13275.62
641.34	13255.14
641.534	13466.08
641.727	13156.83
641.92	13269.47
642.114	13060.58
642.307	13253.09
642.5	12861.93
642.694	12794.34
642.887	12896.74
643.08	12863.97
643.273	12784.1
643.467	12825.06
643.66	12497.39
643.853	12388.85
644.046	12302.83
644.239	12411.37
644.432	12261.87
644.626	12182
644.819	12122.61
645.012	12147.19
645.205	12141.04
645.398	12005.88
645.591	11964.92
645.784	11954.68
645.977	11684.34
646.17	11819.51
646.363	11647.48
646.556	11530.75
646.749	11422.2
646.942	11459.07
647.135	11397.63
647.328	11262.46
647.521	11317.76
647.714	10979.84
647.907	11424.25
648.099	11250.17
648.292	11231.74
648.485	10869.25
648.678	11000.32
648.871	10795.53
649.064	10625.54
649.256	11006.47
649.449	10752.52
649.642	10660.36
649.835	10672.65
650.027	10562.06
650.22	10476.04
650.413	10498.57
650.605	10525.19
650.798	10467.85
650.991	10283.53
651.183	10342.92
651.376	10119.7
651.568	10267.15
651.761	10127.89
651.954	10265.1
652.146	10179.09
652.339	10250.77
652.531	10011.15
652.724	9847.32
652.916	9775.64
653.109	9742.87
653.301	9746.97
653.494	9794.07
653.686	9558.55
653.879	9941.52
654.071	9507.35
654.263	9540.12
654.456	9339.42
654.648	9415.19
654.84	9292.32
655.033	9218.59
655.225	9269.79
655.417	9177.63
655.61	9249.31
655.802	9296.41
655.994	9122.34
656.186	8972.83
656.379	9011.75
656.571	9118.24
656.763	8876.58
656.955	8831.52
657.148	8866.34
657.34	8733.22
657.532	8708.65
657.724	8682.02
657.916	8587.82
658.108	8550.95
658.3	8462.89
658.492	8733.22
658.684	8284.72
658.876	8464.94
659.068	8411.69
659.26	8520.23
659.452	8251.95
659.644	8213.04
659.836	8137.26
660.028	8282.67
660.22	7989.81
660.412	8108.59
660.604	7934.51
660.796	8098.35
660.988	8137.26
661.18	8026.67
661.372	7899.7
661.563	7920.18
661.755	7858.74
661.947	7805.49
662.139	7711.28
662.331	7920.18
662.522	7764.53
662.714	7688.76
662.906	7715.38
663.097	7576.12
663.289	7500.34
663.481	7475.77
663.673	7266.88
663.864	7443
664.056	7387.71
664.247	7500.34
664.439	7193.15
664.631	7273.02
664.822	7330.36
665.014	7406.14
665.205	7256.64
665.397	7137.85
665.588	7033.41
665.78	7133.76
665.971	7268.92
666.163	7039.55
666.354	7129.66
666.546	7043.65
666.737	7086.65
666.929	6959.68
667.12	7000.64
667.311	6791.75
667.503	6892.1
667.694	6822.47
667.885	6875.71
668.077	6814.27
668.268	6761.03
668.459	6703.68
668.651	6689.35
668.842	6658.63
669.033	6636.1
669.224	6607.43
669.416	6705.73
669.607	6613.57
669.798	6623.81
669.989	6582.85
670.18	6568.52
670.371	6464.07
670.563	6615.62
670.754	6531.65
670.945	6627.91
671.136	6423.11
671.327	6302.28
671.518	6353.48
671.709	6328.91
671.9	6261.32
672.091	6419.02
672.282	6228.56
672.473	6275.66
672.664	6224.46
672.855	6163.02
673.046	6341.19
673.237	6246.99
673.428	6365.77
673.619	6498.89
673.809	6122.06
674	6294.09
674.191	6263.37
674.382	6109.77
674.573	6236.75
674.764	6056.53
674.954	6230.6
675.145	5990.99
675.336	6124.11
675.527	6126.16
675.717	6136.4
675.908	5982.8
676.099	5896.78
676.289	6083.15
676.48	5988.94
676.671	5902.93
676.861	6054.48
677.052	5937.74
677.243	6007.38
677.433	5835.35
677.624	6187.6
677.814	5984.85
678.005	5958.22
678.195	6105.68
678.386	5876.31
678.576	5941.84
678.767	5839.44
678.957	5874.26
679.148	5857.87
679.338	6048.33
679.529	5876.31
679.719	5851.73
679.909	5958.22
680.1	5909.07
680.29	5794.39
680.481	5857.87
680.671	5765.71
680.861	5872.21
681.052	5864.02
681.242	5794.39
681.432	5915.22
681.622	5712.47
681.813	5704.28
682.003	5769.81
682.193	5702.23
682.383	5724.76
682.573	5782.1
682.764	5880.4
682.954	5714.52
683.144	5698.13
683.334	5677.65
683.524	5648.98
683.714	5763.67
683.904	5636.69
684.094	5790.29
684.284	5714.52
684.474	5589.59
684.664	5694.04
684.854	5624.4
685.044	5509.72
685.234	5466.71
685.424	5452.38
685.614	5569.11
685.804	5503.57
685.994	5587.54
686.184	5483.1
686.374	5587.54
686.564	5425.75
686.753	5542.49
686.943	5452.38
687.133	5249.63
687.323	5284.44
687.513	5509.72
687.702	5489.24
687.892	5280.35
688.082	5196.38
688.272	5417.56
688.461	5335.64
688.651	5190.24
688.841	5087.84
689.03	5071.45
689.22	5180
689.41	5257.82
689.599	5192.28
689.789	5081.69
689.979	5044.83
690.168	4854.37
690.358	4934.24
690.547	4954.72
690.737	4962.91
690.926	4897.38
691.116	4837.98
691.305	4991.58
691.495	4756.07
691.684	4778.59
691.874	4733.54
692.063	4788.83
692.252	4739.68
692.442	4686.44
692.631	4745.83
692.82	4526.69
693.01	4733.54
693.199	4534.89
693.388	4647.52
693.578	4541.03
693.767	4708.96
693.956	4553.32
694.146	4547.17
694.335	4500.07
694.524	4387.43
694.713	4493.93
694.902	4422.25
695.092	4397.67
695.281	4459.11
695.47	4387.43
695.659	4426.34
695.848	4346.47
696.037	4239.98
696.226	4360.81
696.415	4334.18
696.604	4457.06
696.793	4268.65
696.982	4164.2
697.171	4172.4
697.36	4207.21
697.549	4188.78
697.738	4285.03
697.927	4305.51
698.116	4260.46
698.305	4309.61
698.494	4262.51
698.683	4104.81
698.872	4158.06
699.061	4258.41
699.25	4160.11
699.438	4164.2
699.627	3977.84
699.816	4082.28
700.005	4127.34
700.193	4057.71
700.382	4074.09
700.571	4131.44
700.76	4117.1
700.948	4160.11
701.137	4043.37
701.326	4024.94
701.514	3963.5
701.703	3959.41
701.892	4092.52
702.08	4221.55
702.269	4082.28
702.457	3967.6
702.646	4024.94
702.834	4065.9
703.023	4037.23
703.212	4086.38
703.4	4063.85
703.589	4059.76
703.777	3986.03
703.965	4041.32
704.154	4096.62
704.342	3998.32
704.531	4063.85
704.719	3883.63
704.907	3979.89
705.096	3893.87
705.284	4014.7
705.472	3983.98
705.661	4057.71
705.849	4033.13
706.037	4020.85
706.226	3975.79
706.414	4020.85
706.602	3971.69
706.79	3930.73
706.979	3965.55
707.167	4008.56
707.355	3994.22
707.543	4049.52
707.731	4045.42
707.919	4039.28
708.107	4074.09
708.296	4096.62
708.484	3951.21
708.672	4217.45
708.86	4098.67
709.048	4020.85
709.236	4057.71
709.424	4096.62
709.612	4074.09
709.8	4024.94
709.988	4070
710.176	4160.11
710.364	4098.67
710.551	4137.58
710.739	4045.42
710.927	4041.32
711.115	4057.71
711.303	4033.13
711.491	4145.77
711.679	3953.26
711.866	4020.85
712.054	4209.26
712.242	4012.65
712.43	4053.61
712.617	4078.19
712.805	4098.67
712.993	4104.81
713.181	3998.32
713.368	4139.63
713.556	4115.05
713.744	3840.62
713.931	4156.01
714.119	4063.85
714.306	4088.43
714.494	4125.29
714.682	4135.53
714.869	4106.86
715.057	4055.66
715.244	4065.9
715.432	4215.4
715.619	4092.52
715.807	4102.76
715.994	4166.25
716.182	4252.27
716.369	4196.97
716.556	4192.87
716.744	4143.72
716.931	4084.33
717.119	4199.02
717.306	4209.26
717.493	4307.56
717.681	4168.3
717.868	4264.55
718.055	4338.28
718.242	4137.58
718.43	4182.63
718.617	4280.94
718.804	4041.32
718.991	4293.23
719.179	4162.16
719.366	4110.96
719.553	4192.87
719.74	4231.79
719.927	4182.63
720.114	4174.44
720.301	4172.4
720.488	4156.01
720.676	4215.4
720.863	4301.42
721.05	4289.13
721.237	4213.35
721.424	4276.84
721.611	4319.85
721.798	4250.22
721.985	4248.17
722.172	4201.07
722.358	4043.37
722.545	4278.89
722.732	4221.55
722.919	4315.75
723.106	4168.3
723.293	4151.92
723.48	4287.08
723.667	4172.4
723.853	4295.27
724.04	4407.91
724.227	4309.61
724.414	4285.03
724.6	4119.15
724.787	4391.53
724.974	4401.77
725.161	4188.78
725.347	4156.01
725.534	4231.79
725.72	4301.42
725.907	4297.32
726.094	4369
726.28	4299.37
726.467	4196.97
726.653	4352.62
726.84	4297.32
727.027	4168.3
727.213	4270.7
727.4	4178.54
727.586	4215.4
727.773	4250.22
727.959	4325.99
728.145	4375.14
728.332	4246.12
728.518	4231.79
728.705	4315.75
728.891	4223.59
729.077	4285.03
729.264	4346.47
729.45	4215.4
729.636	4362.86
729.823	4252.27
730.009	4403.82
730.195	4256.36
730.382	4364.9
730.568	4405.86
730.754	4414.06
730.94	4332.14
731.126	4354.66
731.313	4229.74
731.499	4401.77
731.685	4375.14
731.871	4280.94
732.057	4330.09
732.243	4278.89
732.429	4305.51
732.615	4373.1
732.801	4383.34
732.987	4328.04
733.173	4321.9
733.359	4405.86
733.545	4330.09
733.731	4262.51
733.917	4338.28
734.103	4264.55
734.289	4334.18
734.475	4250.22
734.661	4407.91
734.847	4373.1
735.033	4448.87
735.219	4354.66
735.404	4274.79
735.59	4110.96
735.776	4166.25
735.962	4303.47
736.148	4592.23
736.333	4412.01
736.519	4274.79
736.705	4334.18
736.89	4305.51
737.076	4276.84
737.262	4188.78
737.447	4176.49
737.633	4123.24
737.819	4174.44
738.004	4248.17
738.19	4176.49
738.375	4196.97
738.561	4289.13
738.747	4088.43
738.932	4049.52
739.118	4366.95
739.303	4090.48
739.489	4217.45
739.674	4115.05
739.859	4090.48
740.045	4213.35
740.23	3975.79
740.416	4006.51
740.601	4090.48
740.786	3891.82
740.972	4067.95
741.157	4158.06
741.342	4037.23
741.528	4026.99
741.713	3963.5
741.898	3988.08
742.084	3961.45
742.269	3971.69
742.454	3955.31
742.639	4090.48
742.824	3871.34
743.01	3869.3
743.195	4061.8
743.38	3904.11
743.565	3936.88
743.75	4018.8
743.935	3797.62
744.12	3928.69
744.305	3662.45
744.49	3877.49
744.675	3879.54
744.86	3779.19
745.045	3840.62
745.23	3730.03
745.415	3705.46
745.6	3781.23
745.785	3746.42
745.97	3650.16
746.155	3576.44
746.34	3615.35
746.525	3590.77
746.71	3709.55
746.895	3521.14
747.079	3490.42
747.264	3631.73
747.449	3576.44
747.634	3674.74
747.819	3580.53
748.003	3560.05
748.188	3390.07
748.373	3558
748.557	3385.98
748.742	3406.45
748.927	3299.96
749.111	3336.82
749.296	3367.54
749.481	3359.35
749.665	3314.3
749.85	3248.76
750.034	3328.63
750.219	3293.82
750.404	3390.07
750.588	3185.27
750.773	3152.51
750.957	3181.18
751.141	3076.73
751.326	3132.03
751.51	3039.87
751.695	3068.54
751.879	3093.12
752.064	3031.68
752.248	2982.53
752.432	2970.24
752.617	3148.41
752.801	2992.77
752.985	2790.02
753.17	2976.38
753.354	2847.36
753.538	2847.36
753.722	2734.72
753.907	2904.7
754.091	2802.3
754.275	2806.4
754.459	2728.58
754.643	2665.09
754.828	2722.43
755.012	2720.39
755.196	2652.8
755.38	2644.61
755.564	2636.42
755.748	2757.25
755.932	2577.03
756.116	2505.35
756.3	2632.32
756.484	2454.15
756.668	2579.08
756.852	2456.2
757.036	2515.59
757.22	2476.68
757.404	2318.98
757.588	2472.58
757.772	2433.67
757.956	2478.72
758.14	2372.23
758.323	2462.34
758.507	2390.66
758.691	2378.37
758.875	2359.94
759.059	2284.17
759.242	2304.65
759.426	2302.6
759.61	2095.75
759.794	2366.09
759.977	2257.54
760.161	2343.56
760.345	2194.06
760.528	2230.92
760.712	2112.14
760.895	2194.06
761.079	2196.11
761.263	2017.93
761.446	2116.23
761.63	2126.47
761.813	2081.42
761.997	2026.12
762.18	2079.37
762.364	2300.55
762.547	2017.93
762.731	2015.88
762.914	2167.43
763.098	1997.45
763.281	2058.89
763.464	2038.41
763.648	1903.25
763.831	1974.92
764.015	1899.15
764.198	1903.25
764.381	1919.63
764.564	1991.31
764.748	1919.63
764.931	1872.53
765.114	1804.94
765.297	1950.35
765.481	1890.96
765.664	1927.82
765.847	1823.37
766.03	1946.25
766.213	1886.86
766.397	1845.9
766.58	1796.75
766.763	1872.53
766.946	1739.41
767.129	1737.36
767.312	1725.07
767.495	1802.9
767.678	1790.61
767.861	1718.93
768.044	1766.03
768.227	1806.99
768.41	1747.6
768.593	1729.17
768.776	1716.88
768.959	1806.99
769.142	1772.18
769.324	1698.45
769.507	1596.05
769.69	1700.5
769.873	1657.49
770.056	1772.18
770.239	1645.2
770.421	1723.02
770.604	1594
770.787	1665.68
770.97	1548.95
771.152	1661.59
771.335	1602.19
771.518	1583.76
771.7	1641.11
771.883	1639.06
772.066	1553.04
772.248	1487.51
772.431	1698.45
772.613	1561.23
772.796	1563.28
772.978	1575.57
773.161	1723.02
773.343	1419.93
773.526	1493.65
773.708	1452.69
773.891	1460.88
774.073	1489.56
774.256	1464.98
774.438	1575.57
774.621	1413.78
774.803	1421.97
774.985	1358.49
775.168	1409.69
775.35	1376.92
775.532	1378.97
775.715	1301.14
775.897	1430.16
776.079	1401.49
776.261	1297.05
776.444	1338.01
776.626	1315.48
776.808	1325.72
776.99	1194.65
777.173	1348.25
777.355	1331.86
777.537	1159.83
777.719	1231.51
777.901	1239.7
778.083	1231.51
778.265	1241.75
778.447	1215.13
778.629	1223.32
778.811	1200.79
778.993	1225.37
779.175	1219.22
779.357	1120.92
779.539	1131.16
779.721	1170.07
779.903	1075.87
780.085	1145.5
780.267	1065.63
780.449	1172.12
780.631	1137.31
780.812	1108.63
780.994	1127.07
781.176	1051.29
781.358	1067.67
781.54	1059.48
781.721	993.95
781.903	1114.78
782.085	981.66
782.267	1018.52
782.448	993.95
782.63	1034.91
782.812	1057.43
782.993	1020.57
783.175	959.13
783.357	985.76
783.538	961.18
783.72	903.84
783.901	948.89
784.083	862.88
784.264	887.45
784.446	891.55
784.627	916.12
784.809	858.78
784.99	856.73
785.172	946.84
785.353	930.46
785.535	875.17
785.716	895.65
785.897	840.35
786.079	920.22
786.26	895.65
786.441	856.73
786.623	748.19
786.804	799.39
786.985	854.69
787.167	832.16
787.348	678.56
787.529	783.01
787.71	879.26
787.891	813.73
788.073	756.38
788.254	789.15
788.435	809.63
788.616	772.77
788.797	735.9
788.978	737.95
789.159	686.75
789.34	727.71
789.522	813.73
789.703	707.23
789.884	826.01
790.065	705.18
790.246	776.86
790.427	717.47
790.607	672.42
790.788	756.38
790.969	660.13
791.15	742.05
791.331	707.23
791.512	660.13
791.693	615.07
791.874	674.46
792.054	617.12
792.235	664.22
792.416	608.93
792.597	709.28
792.778	719.52
792.958	662.18
793.139	633.51
793.32	674.46
793.5	721.57
793.681	668.32
793.862	615.07
794.042	643.74
794.223	563.87
794.404	527.01
794.584	531.11
794.765	578.21
794.945	567.97
795.126	604.83
795.306	645.79
795.487	537.25
795.667	541.35
795.848	496.29
796.028	559.78
796.209	549.54
796.389	512.67
796.57	522.91
796.75	481.96
796.93	584.35
797.111	520.87
797.291	498.34
797.471	469.67
797.652	486.05
797.832	477.86
798.012	527.01
798.192	551.59
798.373	453.28
798.553	520.87
798.733	473.76
798.913	471.72
799.093	527.01
799.274	529.06
799.454	531.11
799.634	543.39
799.814	543.39
799.994	479.91
800.174	459.43
800.354	539.3
800.534	432.8
800.714	447.14
800.894	387.75
801.074	443.04
801.254	461.48
801.434	510.63
801.614	387.75
801.794	459.43
801.974	1317.53
802.154	340.65
802.334	455.33
802.514	481.96
802.693	463.52
802.873	393.89
803.053	512.67
803.233	457.38
803.413	432.8
803.592	381.6
803.772	326.31
803.952	371.37
804.131	373.41
804.311	445.09
804.491	420.52
804.67	350.89
804.85	354.98
805.03	428.71
805.209	430.76
805.389	381.6
805.568	373.41
805.748	363.17
805.928	404.13
806.107	336.55
806.287	338.6
806.466	424.61
806.646	404.13
806.825	387.75
807.004	295.59
807.184	367.27
807.363	438.95
807.543	305.83
807.722	377.51
807.901	324.26
808.081	373.41
808.26	307.88
808.439	254.63
808.619	354.98
808.798	275.11
808.977	307.88
809.156	342.69
809.336	397.99
809.515	357.03
809.694	277.16
809.873	340.65
810.052	385.7
810.231	402.08
810.411	363.17
810.59	395.94
810.769	273.06
810.948	297.64
811.127	250.53
811.306	277.16
811.485	254.63
811.664	357.03
811.843	303.78
812.022	281.25
812.201	266.92
812.38	324.26
812.559	318.12
812.737	303.78
812.916	215.72
813.095	346.79
813.274	299.69
813.453	309.93
813.632	379.56
813.811	285.35
813.989	240.3
814.168	311.97
814.347	244.39
814.526	281.25
814.704	316.07
814.883	344.74
815.062	240.3
815.24	340.65
815.419	244.39
815.598	271.01
815.776	248.49
815.955	271.01
816.133	199.34
816.312	262.82
816.49	238.25
816.669	273.06
816.847	215.72
817.026	277.16
817.204	275.11
817.383	252.58
817.561	168.62
817.74	250.53
817.918	266.92
818.097	223.91
818.275	144.04
818.453	256.68
818.632	219.82
818.81	213.67
818.988	248.49
819.167	232.1
819.345	223.91
819.523	242.34
819.701	219.82
819.879	225.96
820.058	230.06
820.236	264.87
820.414	238.25
820.592	209.58
820.77	162.47
820.948	182.95
821.127	164.52
821.305	316.07
821.483	191.14
821.661	289.45
821.839	228.01
822.017	215.72
822.195	244.39
822.373	240.3
822.551	176.81
822.729	234.15
822.907	166.57
823.085	297.64
823.262	244.39
823.44	189.1
823.618	240.3
823.796	168.62
823.974	166.57
824.152	199.34
824.329	176.81
824.507	205.48
824.685	207.53
824.863	221.86
825.04	158.38
825.218	187.05
825.396	219.82
825.574	209.58
825.751	211.62
825.929	277.16
826.107	211.62
826.284	211.62
826.462	195.24
826.639	191.14
826.817	172.71
826.994	178.86
827.172	92.84
827.349	228.01
827.527	199.34
827.704	197.29
827.882	174.76
828.059	144.04
828.237	156.33
828.414	338.6
828.591	88.75
828.769	176.81
828.946	129.7
829.124	168.62
829.301	207.53
829.478	131.75
829.655	168.62
829.833	201.38
830.01	125.61
830.187	238.25
830.364	146.09
830.542	92.84
830.719	211.62
830.896	191.14
831.073	135.85
831.25	141.99
831.427	185
831.604	191.14
831.782	152.23
831.959	133.8
832.136	76.46
832.313	162.47
832.49	115.37
832.667	176.81
832.844	160.42
833.021	209.58
833.198	137.9
833.374	103.08
833.551	158.38
833.728	152.23
833.905	160.42
834.082	78.51
834.259	74.41
834.436	266.92
834.612	119.46
834.789	236.2
834.966	180.9
835.143	236.2
835.319	103.08
835.496	152.23
835.673	191.14
835.85	146.09
836.026	88.75
836.203	176.81
836.38	107.18
836.556	152.23
836.733	152.23
836.909	127.66
837.086	72.36
837.262	82.6
837.439	109.23
837.616	86.7
837.792	187.05
837.968	141.99
838.145	80.55
838.321	107.18
838.498	80.55
838.674	141.99
838.851	131.75
839.027	98.99
839.203	127.66
839.38	158.38
839.556	127.66
839.732	141.99
839.909	86.7
840.085	201.38
840.261	129.7
840.437	135.85
840.614	35.5
840.79	144.04
840.966	105.13
841.142	117.42
841.318	135.85
841.494	146.09
841.671	72.36
841.847	68.27
842.023	80.55
842.199	55.98
842.375	164.52
842.551	10.92
842.727	53.93
842.903	129.7
843.079	94.89
843.255	117.42
843.431	109.23
843.607	133.8
843.783	68.27
843.959	141.99
844.134	76.46
844.31	168.62
844.486	94.89
844.662	68.27
844.838	76.46
845.013	113.32
845.189	139.94
845.365	131.75
845.541	150.18
845.716	101.03
845.892	174.76
846.068	68.27
846.244	68.27
846.419	92.84
846.595	113.32
846.77	64.17
846.946	162.47
847.122	137.9
847.297	2.73
847.473	105.13
847.648	84.65
847.824	45.74
847.999	6.83
848.175	84.65
848.35	121.51
848.526	154.28
848.701	103.08
848.876	103.08
849.052	133.8
849.227	121.51
849.403	55.98
849.578	51.88
849.753	137.9
849.929	86.7
850.104	64.17
850.279	94.89
850.454	117.42
850.63	-42.32
850.805	123.56
850.98	103.08
851.155	60.07
851.33	82.6
851.505	-1.37
851.681	176.81
851.856	25.26
852.031	168.62
852.206	90.79
852.381	41.64
852.556	64.17
852.731	150.18
852.906	45.74
853.081	135.85
853.256	98.99
853.431	45.74
853.606	41.64
853.781	107.18
853.956	-25.94
854.131	84.65
854.305	43.69
854.48	55.98
854.655	129.7
854.83	88.75
855.005	43.69
855.18	47.79
855.354	31.4
855.529	76.46
855.704	66.22
855.879	92.84
856.053	70.31
856.228	90.79
856.403	-1.37
856.577	90.79
856.752	41.64
856.926	43.69
857.101	51.88
857.276	37.55
857.45	121.51
857.625	76.46
857.799	78.51
857.974	51.88
858.148	-17.75
858.323	129.7
858.497	23.21
858.672	12.97
858.846	19.11
859.02	70.31
859.195	117.42
859.369	64.17
859.543	49.83
859.718	-19.8
859.892	39.59
860.066	70.31
860.241	88.75
860.415	86.7
860.589	39.59
860.763	21.16
860.938	-3.41
861.112	27.31
861.286	-13.65
861.46	82.6
861.634	60.07
861.808	80.55
861.982	43.69
862.157	39.59
862.331	-3.41
862.505	76.46
862.679	-1.37
862.853	19.11
863.027	6.83
863.201	207.53
863.375	-3.41
863.549	92.84
863.722	92.84
863.896	43.69
864.07	27.31
864.244	41.64
864.418	103.08
864.592	115.37
864.766	35.5
864.939	64.17
865.113	12.97
865.287	109.23
865.461	39.59
865.634	53.93
865.808	82.6
865.982	86.7
866.156	-13.65
866.329	43.69
866.503	131.75
866.676	60.07
866.85	70.31
867.024	51.88
867.197	31.4
867.371	76.46
867.544	47.79
867.718	-17.75
867.891	53.93
868.065	10.92
868.238	4.78
868.412	94.89
868.585	31.4
868.759	10.92
868.932	33.45
869.105	2.73
869.279	39.59
869.452	21.16
869.625	103.08
869.799	115.37
869.972	19.11
870.145	-27.99
870.319	47.79
870.492	-19.8
870.665	70.31
870.838	10.92
871.011	-38.23
871.185	29.35
871.358	21.16
871.531	66.22
871.704	49.83
871.877	60.07
872.05	-42.32
872.223	-19.8
872.396	78.51
872.569	101.03
872.742	39.59
872.915	70.31
873.088	19.11
873.261	-21.84
873.434	82.6
873.607	-66.9
873.78	47.79
873.953	0.68
874.126	-13.65
874.299	133.8
874.471	10.92
874.644	17.07
874.817	49.83
874.99	121.51
875.163	49.83
875.335	70.31
875.508	-42.32
875.681	195.24
875.853	49.83
876.026	35.5
876.199	23.21
876.371	82.6
876.544	39.59
876.717	21.16
876.889	76.46
877.062	78.51
877.234	-30.04
877.407	-17.75
877.579	58.03
877.752	55.98
877.924	72.36
878.097	19.11
878.269	-17.75
878.442	29.35
878.614	21.16
878.786	76.46
878.959	49.83
879.131	-3.41
879.303	-44.37
879.476	4.78
879.648	-21.84
879.82	25.26
879.993	10.92
880.165	78.51
880.337	31.4
880.509	86.7
880.681	10.92
880.854	53.93
881.026	-13.65
881.198	191.14
881.37	70.31
881.542	58.03
881.714	55.98
881.886	23.21
882.058	-27.99
882.23	74.41
882.402	19.11
882.574	45.74
882.746	68.27
882.918	133.8
883.09	10.92
883.262	17.07
883.434	-58.71
883.606	51.88
883.778	-7.51
883.95	29.35
884.122	47.79
884.293	76.46
884.465	37.55
884.637	111.27
884.809	6.83
884.98	70.31
885.152	41.64
885.324	35.5
885.496	-19.8
885.667	19.11
885.839	-46.42
886.011	68.27
886.182	60.07
886.354	101.03
886.525	43.69
886.697	27.31
886.869	12.97
887.04	41.64
887.212	129.7
887.383	84.65
887.555	37.55
887.726	-5.46
887.897	27.31
888.069	-34.13
888.24	86.7
888.412	68.27
888.583	-52.56
888.754	55.98
888.926	12.97
889.097	-7.51
889.268	2.73
889.44	78.51
889.611	17.07
889.782	4.78
889.953	-21.84
890.125	58.03
890.296	2.73
890.467	-23.89
890.638	-17.75
890.809	31.4
890.98	33.45
891.151	-9.56
891.323	23.21
891.494	35.5
891.665	23.21
891.836	58.03
892.007	8.87
892.178	23.21
892.349	84.65
892.52	10.92
892.691	72.36
892.862	92.84
893.032	-25.94
893.203	39.59
893.374	17.07
893.545	35.5
893.716	103.08
893.887	66.22
894.057	45.74
894.228	-36.18
894.399	-38.23
894.57	92.84
894.74	0.68
894.911	45.74
895.082	-30.04
895.253	21.16
895.423	-21.84
895.594	43.69
895.764	51.88
895.935	-42.32
896.106	15.02
896.276	19.11
896.447	12.97
896.617	4.78
896.788	-21.84
896.958	-13.65
897.129	47.79
897.299	53.93
897.47	39.59
897.64	10.92
897.81	23.21
897.981	-38.23
898.151	17.07
898.322	-1.37
898.492	51.88
898.662	12.97
898.832	19.11
899.003	29.35
899.173	66.22
899.343	-13.65
899.513	-3.41
