Data from USB4F104151__90__13-06-21-316.txt Node

Date: Fri Mar 14 13:06:21 EDT 2025
User: louis
Spectrometer: USB4F10415
Trigger mode: 4
Integration Time (sec): 4.000000E-2
Scans to average: 1
Electric dark correction enabled: true
Nonlinearity correction enabled: false
Boxcar width: 0
XAxis mode: Wavelengths
Number of Pixels in Spectrum: 3648
>>>>>Begin Spectral Data<<<<<
178.204	-177.49
178.424	-177.49
178.644	-177.49
178.864	-128.34
179.084	-218.45
179.304	-38.23
179.524	-21.84
179.744	39.59
179.964	103.08
180.184	10.92
180.404	31.4
180.624	-21.84
180.844	-48.47
181.064	-68.95
181.283	43.69
181.503	-62.8
181.723	33.45
181.943	35.5
182.163	96.94
182.383	0.68
182.602	2.73
182.822	107.18
183.042	-40.28
183.262	-25.94
183.482	2.73
183.701	53.93
183.921	53.93
184.141	-7.51
184.361	31.4
184.58	53.93
184.8	92.84
185.02	-17.75
185.239	148.14
185.459	-7.51
185.679	139.94
185.898	6.83
186.118	8.87
186.338	8.87
186.557	88.75
186.777	-1.37
186.997	27.31
187.216	-17.75
187.436	43.69
187.655	10.92
187.875	94.89
188.095	23.21
188.314	119.46
188.534	80.55
188.753	62.12
188.973	45.74
189.192	180.9
189.412	64.17
189.631	10.92
189.851	80.55
190.07	117.42
190.29	-1.37
190.509	-13.65
190.729	23.21
190.948	66.22
191.168	148.14
191.387	64.17
191.607	-17.75
191.826	41.64
192.045	58.03
192.265	35.5
192.484	64.17
192.704	25.26
192.923	-42.32
193.142	107.18
193.362	55.98
193.581	8.87
193.8	35.5
194.02	125.61
194.239	37.55
194.458	47.79
194.678	25.26
194.897	41.64
195.116	-9.56
195.335	35.5
195.555	84.65
195.774	33.45
195.993	107.18
196.212	31.4
196.432	98.99
196.651	-44.37
196.87	62.12
197.089	111.27
197.308	37.55
197.528	47.79
197.747	-30.04
197.966	101.03
198.185	119.46
198.404	125.61
198.623	113.32
198.842	74.41
199.062	68.27
199.281	31.4
199.5	80.55
199.719	6.83
199.938	109.23
200.157	62.12
200.376	-42.32
200.595	117.42
200.814	55.98
201.033	35.5
201.252	119.46
201.471	8.87
201.69	70.31
201.909	55.98
202.128	117.42
202.347	-1.37
202.566	-13.65
202.785	-11.61
203.004	66.22
203.223	101.03
203.442	86.7
203.661	-40.28
203.879	78.51
204.098	35.5
204.317	-17.75
204.536	6.83
204.755	39.59
204.974	33.45
205.193	55.98
205.411	86.7
205.63	109.23
205.849	45.74
206.068	68.27
206.287	64.17
206.505	58.03
206.724	25.26
206.943	6.83
207.162	-9.56
207.381	92.84
207.599	-27.99
207.818	64.17
208.037	-5.46
208.255	76.46
208.474	135.85
208.693	96.94
208.911	23.21
209.13	12.97
209.349	86.7
209.567	98.99
209.786	58.03
210.005	53.93
210.223	33.45
210.442	-21.84
210.661	60.07
210.879	23.21
211.098	80.55
211.316	47.79
211.535	101.03
211.753	33.45
211.972	-38.23
212.191	35.5
212.409	39.59
212.628	-1.37
212.846	-11.61
213.065	39.59
213.283	111.27
213.502	82.6
213.72	-15.7
213.938	60.07
214.157	76.46
214.375	107.18
214.594	-30.04
214.812	49.83
215.031	-27.99
215.249	15.02
215.467	64.17
215.686	92.84
215.904	82.6
216.122	21.16
216.341	88.75
216.559	31.4
216.778	70.31
216.996	94.89
217.214	41.64
217.432	-13.65
217.651	-27.99
217.869	72.36
218.087	35.5
218.306	64.17
218.524	119.46
218.742	21.16
218.96	47.79
219.179	64.17
219.397	43.69
219.615	115.37
219.833	76.46
220.051	2.73
220.27	103.08
220.488	47.79
220.706	55.98
220.924	27.31
221.142	43.69
221.36	58.03
221.578	47.79
221.796	-13.65
222.015	66.22
222.233	23.21
222.451	92.84
222.669	-21.84
222.887	109.23
223.105	-38.23
223.323	66.22
223.541	-48.47
223.759	37.55
223.977	84.65
224.195	37.55
224.413	43.69
224.631	2.73
224.849	2.73
225.067	158.38
225.285	12.97
225.503	35.5
225.721	-81.24
225.939	37.55
226.157	-5.46
226.375	146.09
226.592	2.73
226.81	43.69
227.028	53.93
227.246	96.94
227.464	78.51
227.682	29.35
227.9	10.92
228.117	31.4
228.335	33.45
228.553	60.07
228.771	125.61
228.989	37.55
229.206	80.55
229.424	45.74
229.642	-15.7
229.86	4.78
230.077	168.62
230.295	66.22
230.513	82.6
230.731	-1.37
230.948	62.12
231.166	6.83
231.384	-30.04
231.601	70.31
231.819	105.13
232.037	35.5
232.254	23.21
232.472	43.69
232.689	-3.41
232.907	92.84
233.125	2.73
233.342	-13.65
233.56	58.03
233.777	27.31
233.995	12.97
234.213	96.94
234.43	27.31
234.648	96.94
234.865	-52.56
235.083	51.88
235.3	68.27
235.518	10.92
235.735	10.92
235.953	10.92
236.17	41.64
236.388	2.73
236.605	33.45
236.822	105.13
237.04	68.27
237.257	-32.08
237.475	-27.99
237.692	-3.41
237.909	-68.95
238.127	41.64
238.344	25.26
238.562	37.55
238.779	37.55
238.996	-34.13
239.214	119.46
239.431	70.31
239.648	-5.46
239.865	107.18
240.083	72.36
240.3	35.5
240.517	35.5
240.735	55.98
240.952	129.7
241.169	82.6
241.386	68.27
241.603	43.69
241.821	-66.9
242.038	84.65
242.255	60.07
242.472	0.68
242.689	84.65
242.907	0.68
243.124	41.64
243.341	-5.46
243.558	-21.84
243.775	21.16
243.992	-44.37
244.209	76.46
244.426	144.04
244.643	51.88
244.86	2.73
245.078	53.93
245.295	76.46
245.512	21.16
245.729	64.17
245.946	60.07
246.163	74.41
246.38	64.17
246.597	37.55
246.814	23.21
247.031	-3.41
247.248	60.07
247.464	117.42
247.681	37.55
247.898	25.26
248.115	88.75
248.332	60.07
248.549	6.83
248.766	113.32
248.983	74.41
249.2	33.45
249.417	76.46
249.633	82.6
249.85	51.88
250.067	37.55
250.284	72.36
250.501	74.41
250.717	51.88
250.934	-27.99
251.151	12.97
251.368	60.07
251.585	119.46
251.801	70.31
252.018	-48.47
252.235	82.6
252.451	43.69
252.668	43.69
252.885	113.32
253.102	21.16
253.318	23.21
253.535	-44.37
253.752	-52.56
253.968	66.22
254.185	-44.37
254.401	35.5
254.618	37.55
254.835	4.78
255.051	51.88
255.268	125.61
255.484	31.4
255.701	-3.41
255.917	74.41
256.134	6.83
256.351	55.98
256.567	-5.46
256.784	62.12
257	-60.76
257.217	60.07
257.433	80.55
257.65	41.64
257.866	29.35
258.082	-5.46
258.299	-25.94
258.515	103.08
258.732	53.93
258.948	21.16
259.165	21.16
259.381	39.59
259.597	86.7
259.814	66.22
260.03	76.46
260.246	-1.37
260.463	131.75
260.679	12.97
260.895	86.7
261.112	84.65
261.328	-11.61
261.544	-38.23
261.761	53.93
261.977	15.02
262.193	-30.04
262.409	21.16
262.626	64.17
262.842	76.46
263.058	29.35
263.274	31.4
263.49	72.36
263.707	23.21
263.923	47.79
264.139	-30.04
264.355	19.11
264.571	88.75
264.787	60.07
265.004	84.65
265.22	66.22
265.436	19.11
265.652	-21.84
265.868	53.93
266.084	-15.7
266.3	105.13
266.516	45.74
266.732	111.27
266.948	37.55
267.164	29.35
267.38	64.17
267.596	-19.8
267.812	96.94
268.028	8.87
268.244	29.35
268.46	60.07
268.676	123.56
268.892	154.28
269.108	6.83
269.324	15.02
269.54	17.07
269.756	55.98
269.972	-62.8
270.188	-15.7
270.403	-21.84
270.619	2.73
270.835	92.84
271.051	-17.75
271.267	2.73
271.483	96.94
271.698	43.69
271.914	60.07
272.13	29.35
272.346	0.68
272.562	72.36
272.777	109.23
272.993	10.92
273.209	53.93
273.425	4.78
273.64	-30.04
273.856	72.36
274.072	70.31
274.287	41.64
274.503	-7.51
274.719	74.41
274.934	-17.75
275.15	-27.99
275.366	33.45
275.581	70.31
275.797	23.21
276.012	58.03
276.228	-79.19
276.444	6.83
276.659	103.08
276.875	-5.46
277.09	33.45
277.306	70.31
277.521	117.42
277.737	21.16
277.952	25.26
278.168	-7.51
278.383	0.68
278.599	31.4
278.814	45.74
279.03	-25.94
279.245	45.74
279.461	43.69
279.676	74.41
279.892	25.26
280.107	60.07
280.322	19.11
280.538	115.37
280.753	62.12
280.969	115.37
281.184	96.94
281.399	127.66
281.615	90.79
281.83	78.51
282.045	17.07
282.26	-7.51
282.476	53.93
282.691	70.31
282.906	60.07
283.122	45.74
283.337	-1.37
283.552	51.88
283.767	29.35
283.983	158.38
284.198	27.31
284.413	98.99
284.628	2.73
284.843	68.27
285.058	101.03
285.274	39.59
285.489	27.31
285.704	64.17
285.919	-21.84
286.134	55.98
286.349	37.55
286.564	27.31
286.779	101.03
286.995	4.78
287.21	45.74
287.425	58.03
287.64	10.92
287.855	58.03
288.07	8.87
288.285	29.35
288.5	31.4
288.715	94.89
288.93	23.21
289.145	72.36
289.36	125.61
289.575	-17.75
289.79	39.59
290.004	47.79
290.219	135.85
290.434	15.02
290.649	-13.65
290.864	37.55
291.079	21.16
291.294	60.07
291.509	35.5
291.724	53.93
291.938	21.16
292.153	129.7
292.368	51.88
292.583	-15.7
292.798	86.7
293.012	35.5
293.227	45.74
293.442	47.79
293.657	84.65
293.871	127.66
294.086	51.88
294.301	144.04
294.516	37.55
294.73	76.46
294.945	70.31
295.16	-60.76
295.374	6.83
295.589	66.22
295.804	137.9
296.018	58.03
296.233	53.93
296.447	88.75
296.662	10.92
296.877	35.5
297.091	47.79
297.306	74.41
297.52	25.26
297.735	146.09
297.949	84.65
298.164	19.11
298.378	84.65
298.593	-21.84
298.807	88.75
299.022	17.07
299.236	105.13
299.451	-23.89
299.665	68.27
299.88	27.31
300.094	70.31
300.309	45.74
300.523	72.36
300.737	64.17
300.952	15.02
301.166	23.21
301.381	90.79
301.595	62.12
301.809	72.36
302.024	8.87
302.238	39.59
302.452	62.12
302.667	41.64
302.881	23.21
303.095	82.6
303.309	94.89
303.524	43.69
303.738	70.31
303.952	27.31
304.166	115.37
304.381	19.11
304.595	92.84
304.809	15.02
305.023	55.98
305.237	29.35
305.452	51.88
305.666	60.07
305.88	35.5
306.094	80.55
306.308	41.64
306.522	96.94
306.736	144.04
306.95	86.7
307.164	2.73
307.379	96.94
307.593	68.27
307.807	101.03
308.021	41.64
308.235	41.64
308.449	-25.94
308.663	-56.66
308.877	211.62
309.091	96.94
309.305	84.65
309.519	31.4
309.733	74.41
309.947	41.64
310.161	72.36
310.374	45.74
310.588	55.98
310.802	0.68
311.016	60.07
311.23	113.32
311.444	43.69
311.658	74.41
311.872	53.93
312.085	139.94
312.299	64.17
312.513	82.6
312.727	101.03
312.941	39.59
313.154	64.17
313.368	41.64
313.582	19.11
313.796	41.64
314.009	-5.46
314.223	92.84
314.437	84.65
314.651	35.5
314.864	35.5
315.078	-50.52
315.292	6.83
315.505	2.73
315.719	78.51
315.933	86.7
316.146	-21.84
316.36	53.93
316.573	43.69
316.787	125.61
317.001	123.56
317.214	37.55
317.428	68.27
317.641	2.73
317.855	-7.51
318.068	43.69
318.282	41.64
318.495	64.17
318.709	70.31
318.922	31.4
319.136	141.99
319.349	141.99
319.563	45.74
319.776	70.31
319.99	-3.41
320.203	53.93
320.417	64.17
320.63	51.88
320.843	66.22
321.057	6.83
321.27	19.11
321.483	62.12
321.697	103.08
321.91	-30.04
322.124	35.5
322.337	148.14
322.55	-60.76
322.763	2.73
322.977	62.12
323.19	-23.89
323.403	31.4
323.617	78.51
323.83	127.66
324.043	55.98
324.256	105.13
324.469	-1.37
324.683	29.35
324.896	68.27
325.109	70.31
325.322	27.31
325.535	129.7
325.748	107.18
325.962	10.92
326.175	17.07
326.388	49.83
326.601	35.5
326.814	68.27
327.027	25.26
327.24	150.18
327.453	-36.18
327.666	12.97
327.879	80.55
328.092	21.16
328.305	51.88
328.518	64.17
328.731	49.83
328.944	94.89
329.157	60.07
329.37	45.74
329.583	84.65
329.796	80.55
330.009	39.59
330.222	47.79
330.435	62.12
330.648	146.09
330.861	25.26
331.073	68.27
331.286	80.55
331.499	41.64
331.712	-50.52
331.925	35.5
332.138	-11.61
332.35	68.27
332.563	43.69
332.776	92.84
332.989	0.68
333.202	25.26
333.414	47.79
333.627	43.69
333.84	62.12
334.053	37.55
334.265	88.75
334.478	23.21
334.691	-19.8
334.903	64.17
335.116	37.55
335.329	-19.8
335.541	92.84
335.754	166.57
335.966	2.73
336.179	12.97
336.392	21.16
336.604	47.79
336.817	64.17
337.029	92.84
337.242	64.17
337.454	29.35
337.667	-21.84
337.88	172.71
338.092	43.69
338.305	78.51
338.517	80.55
338.729	33.45
338.942	125.61
339.154	8.87
339.367	35.5
339.579	133.8
339.792	33.45
340.004	39.59
340.217	37.55
340.429	17.07
340.641	19.11
340.854	-19.8
341.066	103.08
341.278	84.65
341.491	19.11
341.703	144.04
341.915	2.73
342.128	113.32
342.34	94.89
342.552	-17.75
342.764	10.92
342.977	4.78
343.189	39.59
343.401	27.31
343.613	23.21
343.826	88.75
344.038	-13.65
344.25	92.84
344.462	-7.51
344.674	60.07
344.886	43.69
345.099	72.36
345.311	78.51
345.523	49.83
345.735	10.92
345.947	55.98
346.159	96.94
346.371	64.17
346.583	-13.65
346.795	62.12
347.007	-44.37
347.219	68.27
347.431	35.5
347.643	111.27
347.855	-7.51
348.067	23.21
348.279	-1.37
348.491	74.41
348.703	41.64
348.915	43.69
349.127	60.07
349.339	88.75
349.551	55.98
349.763	84.65
349.975	109.23
350.187	55.98
350.399	72.36
350.61	62.12
350.822	19.11
351.034	82.6
351.246	64.17
351.458	68.27
351.669	19.11
351.881	105.13
352.093	64.17
352.305	78.51
352.517	35.5
352.728	76.46
352.94	17.07
353.152	207.53
353.363	60.07
353.575	84.65
353.787	125.61
353.999	72.36
354.21	113.32
354.422	88.75
354.633	74.41
354.845	74.41
355.057	21.16
355.268	41.64
355.48	43.69
355.692	-1.37
355.903	29.35
356.115	23.21
356.326	-66.9
356.538	92.84
356.749	53.93
356.961	107.18
357.172	119.46
357.384	60.07
357.595	137.9
357.807	-3.41
358.018	37.55
358.23	23.21
358.441	141.99
358.653	0.68
358.864	49.83
359.075	35.5
359.287	55.98
359.498	101.03
359.709	39.59
359.921	43.69
360.132	33.45
360.344	111.27
360.555	-38.23
360.766	62.12
360.977	55.98
361.189	84.65
361.4	53.93
361.611	76.46
361.823	62.12
362.034	62.12
362.245	-7.51
362.456	62.12
362.667	68.27
362.879	92.84
363.09	-5.46
363.301	119.46
363.512	15.02
363.723	101.03
363.935	66.22
364.146	146.09
364.357	2.73
364.568	41.64
364.779	21.16
364.99	178.86
365.201	90.79
365.412	96.94
365.623	23.21
365.834	2.73
366.045	62.12
366.256	76.46
366.467	41.64
366.678	2.73
366.889	33.45
367.1	31.4
367.311	121.51
367.522	88.75
367.733	43.69
367.944	21.16
368.155	-13.65
368.366	109.23
368.577	80.55
368.788	189.1
368.999	4.78
369.209	62.12
369.42	111.27
369.631	135.85
369.842	53.93
370.053	8.87
370.264	98.99
370.474	55.98
370.685	119.46
370.896	0.68
371.107	152.23
371.317	84.65
371.528	117.42
371.739	131.75
371.95	115.37
372.16	84.65
372.371	-62.8
372.582	45.74
372.792	88.75
373.003	96.94
373.214	10.92
373.424	76.46
373.635	-36.18
373.846	164.52
374.056	27.31
374.267	58.03
374.477	78.51
374.688	19.11
374.898	70.31
375.109	101.03
375.319	25.26
375.53	62.12
375.74	129.7
375.951	66.22
376.161	141.99
376.372	117.42
376.582	21.16
376.793	66.22
377.003	58.03
377.214	27.31
377.424	39.59
377.635	19.11
377.845	49.83
378.055	141.99
378.266	45.74
378.476	39.59
378.686	55.98
378.897	64.17
379.107	101.03
379.317	135.85
379.528	35.5
379.738	119.46
379.948	6.83
380.158	55.98
380.369	-34.13
380.579	94.89
380.789	45.74
380.999	129.7
381.21	88.75
381.42	146.09
381.63	64.17
381.84	94.89
382.05	68.27
382.261	37.55
382.471	150.18
382.681	12.97
382.891	117.42
383.101	43.69
383.311	6.83
383.521	15.02
383.731	60.07
383.941	133.8
384.151	23.21
384.361	12.97
384.571	107.18
384.781	64.17
384.991	160.42
385.201	115.37
385.411	101.03
385.621	131.75
385.831	92.84
386.041	51.88
386.251	62.12
386.461	101.03
386.671	88.75
386.881	78.51
387.091	70.31
387.301	88.75
387.511	33.45
387.72	127.66
387.93	90.79
388.14	127.66
388.35	101.03
388.56	182.95
388.769	58.03
388.979	43.69
389.189	-21.84
389.399	53.93
389.609	131.75
389.818	103.08
390.028	111.27
390.238	92.84
390.447	19.11
390.657	133.8
390.867	58.03
391.076	70.31
391.286	-15.7
391.496	41.64
391.705	43.69
391.915	113.32
392.125	127.66
392.334	98.99
392.544	109.23
392.753	8.87
392.963	109.23
393.172	49.83
393.382	10.92
393.591	158.38
393.801	144.04
394.01	146.09
394.22	115.37
394.429	90.79
394.639	101.03
394.848	86.7
395.058	101.03
395.267	92.84
395.477	96.94
395.686	94.89
395.895	133.8
396.105	234.15
396.314	66.22
396.524	164.52
396.733	109.23
396.942	160.42
397.152	84.65
397.361	101.03
397.57	49.83
397.78	74.41
397.989	180.9
398.198	135.85
398.407	156.33
398.617	62.12
398.826	109.23
399.035	84.65
399.244	139.94
399.453	166.57
399.663	68.27
399.872	88.75
400.081	23.21
400.29	119.46
400.499	117.42
400.708	221.86
400.917	55.98
401.127	141.99
401.336	68.27
401.545	131.75
401.754	129.7
401.963	162.47
402.172	150.18
402.381	113.32
402.59	152.23
402.799	154.28
403.008	156.33
403.217	125.61
403.426	139.94
403.635	105.13
403.844	115.37
404.053	160.42
404.262	117.42
404.471	144.04
404.68	180.9
404.888	160.42
405.097	139.94
405.306	160.42
405.515	275.11
405.724	199.34
405.933	238.25
406.142	182.95
406.35	195.24
406.559	236.2
406.768	152.23
406.977	289.45
407.185	168.62
407.394	228.01
407.603	144.04
407.812	264.87
408.02	354.98
408.229	240.3
408.438	228.01
408.646	178.86
408.855	180.9
409.064	232.1
409.272	281.25
409.481	283.3
409.69	258.73
409.898	258.73
410.107	357.03
410.315	281.25
410.524	309.93
410.733	365.22
410.941	447.14
411.15	428.71
411.358	377.51
411.567	408.23
411.775	379.56
411.984	422.56
412.192	441
412.401	395.94
412.609	467.62
412.818	486.05
413.026	469.67
413.234	527.01
413.443	539.3
413.651	522.91
413.86	621.22
414.068	647.84
414.276	670.37
414.485	674.46
414.693	682.66
414.901	684.7
415.11	637.6
415.318	676.51
415.526	746.14
415.734	834.21
415.943	791.2
416.151	754.34
416.359	801.44
416.567	848.54
416.776	922.27
416.984	963.23
417.192	1002.14
417.4	952.99
417.608	918.17
417.817	979.61
418.025	1079.96
418.233	1135.26
418.441	1075.87
418.649	1116.83
418.857	1243.8
419.065	1313.43
419.273	1198.74
419.481	1424.02
419.689	1473.17
419.897	1403.54
420.105	1475.22
420.313	1632.91
420.521	1594
420.729	1690.26
420.937	1655.44
421.145	1688.21
421.353	1886.86
421.561	1880.72
421.769	1927.82
421.977	1987.21
422.185	1987.21
422.393	2099.85
422.601	2378.37
422.809	2206.35
423.017	2263.69
423.224	2329.22
423.432	2486.92
423.64	2484.87
423.848	2771.58
424.056	2503.3
424.263	2871.93
424.471	2871.93
424.679	2927.23
424.887	2968.19
425.094	3101.31
425.302	3314.3
425.51	3332.73
425.718	3420.79
425.925	3410.55
426.133	3590.77
426.341	3807.86
426.548	3803.76
426.756	3809.9
426.964	3965.55
427.171	4176.49
427.379	4287.08
427.586	4309.61
427.794	4393.58
428.001	4670.05
428.209	4860.51
428.417	4772.45
428.624	5141.08
428.832	5020.25
429.039	5202.52
429.247	4981.34
429.454	5583.45
429.662	5974.61
429.869	5671.51
430.076	6191.69
430.284	5892.69
430.491	5896.78
430.699	6318.67
430.906	6345.29
431.114	6476.36
431.321	6769.22
431.528	6785.6
431.736	7273.02
431.943	7629.37
432.15	7526.97
432.358	7397.95
432.565	8012.34
432.772	7868.98
432.979	8217.13
433.187	8466.99
433.394	8335.92
433.601	9013.79
433.808	8972.83
434.016	9046.56
434.223	9198.11
434.43	9992.72
434.637	9738.77
434.844	10254.86
435.052	10742.28
435.259	10590.73
435.466	10521.1
435.673	10250.77
435.88	10959.36
436.087	11864.57
436.294	11948.53
436.501	11502.08
436.708	11723.26
436.915	12007.92
437.122	12677.61
437.329	12634.6
437.537	12896.74
437.743	13347.29
437.95	13292
438.157	13996.5
438.364	14221.78
438.571	14412.24
438.778	14305.74
438.985	15872.44
439.192	15362.5
439.399	15542.72
439.606	15288.77
439.813	16331.19
440.02	17217.96
440.227	16794.03
440.433	16824.75
440.64	17480.1
440.847	16941.48
441.054	17637.79
441.261	18708.88
441.467	18516.37
441.674	18577.81
441.881	19554.69
442.088	19517.82
442.294	19251.59
442.501	19902.84
442.708	20062.58
442.914	21170.54
443.121	21930.33
443.328	21442.92
443.534	23152.97
443.741	22098.27
443.948	21760.35
444.154	23490.88
444.361	23152.97
444.568	23533.89
444.774	23779.65
444.981	24068.41
445.187	24555.83
445.394	25694.5
445.6	25344.3
445.807	27857.15
446.013	26630.42
446.22	27023.63
446.426	28090.62
446.633	28451.06
446.839	29360.36
447.046	28379.39
447.252	29931.75
447.459	29868.26
447.665	29550.82
447.871	30871.76
448.078	32151.74
448.284	30701.78
448.491	31666.38
448.697	32698.55
448.903	33591.47
449.11	33673.38
449.316	33052.85
449.522	33900.71
449.728	34750.62
449.935	34965.65
450.141	34799.77
450.347	35672.2
450.553	34744.47
450.76	35154.07
450.966	36644.99
451.172	35762.31
451.378	36763.77
451.584	35940.49
451.791	36847.74
451.997	37156.98
452.203	37515.37
452.409	37662.83
452.615	37585.01
452.821	36087.94
453.027	35383.44
453.233	37691.5
453.44	36690.04
453.646	36739.19
453.852	37083.25
454.058	37265.52
454.264	36280.45
454.47	37267.57
454.676	36014.21
454.882	37865.58
455.088	33939.62
455.294	34896.02
455.5	35324.05
455.705	36032.64
455.911	34185.38
456.117	33728.68
456.323	33226.93
456.529	31336.65
456.735	32729.27
456.941	31998.15
457.147	31375.56
457.352	30562.52
457.558	30243.04
457.764	30554.33
457.97	29622.5
458.176	29317.36
458.381	28963.06
458.587	27588.87
458.793	27728.13
458.999	26261.79
459.204	28033.28
459.41	27517.19
459.616	25411.88
459.821	25516.33
460.027	25319.72
460.233	24625.46
460.438	23763.26
460.644	24039.74
460.85	22966.6
461.055	22614.35
461.261	22270.29
461.466	20629.87
461.672	20248.95
461.878	21592.42
462.083	20351.35
462.289	19902.84
462.494	19501.44
462.7	18792.84
462.905	18192.79
463.111	18981.26
463.316	19179.91
463.522	18758.03
463.727	18569.62
463.932	18579.86
464.138	18016.66
464.343	18307.48
464.549	17785.24
464.754	18600.33
464.959	18035.1
465.165	18055.58
465.37	17263.01
465.575	16865.71
465.781	17494.43
465.986	17467.81
466.191	16689.58
466.397	16703.92
466.602	15817.15
466.807	16677.29
467.012	16368.05
467.218	16298.42
467.423	16273.84
467.628	16196.02
467.833	17033.64
468.038	16538.03
468.244	15935.93
468.449	16607.66
468.654	16110
468.859	15958.46
469.064	15804.86
469.269	15192.51
469.474	15468.99
469.679	15626.68
469.885	15296.96
470.09	15333.82
470.295	15329.73
470.5	14657.99
470.705	14963.14
470.91	14735.82
471.115	14469.58
471.32	14719.43
471.525	14770.63
471.73	14293.46
471.935	14492.11
472.139	13879.77
472.344	13844.95
472.549	14010.84
472.754	13873.62
472.959	13500.89
473.164	13337.06
473.369	12880.36
473.574	13408.73
473.778	13253.09
473.983	13318.62
474.188	13339.1
474.393	12517.87
474.598	12671.47
474.802	12485.1
475.007	12349.93
475.212	12515.82
475.417	11889.14
475.621	11885.05
475.826	12050.93
476.031	11792.89
476.235	11684.34
476.44	11702.78
476.645	11545.08
476.849	11600.38
477.054	11153.92
477.259	11100.67
477.463	11364.86
477.668	11112.96
477.872	11024.9
478.077	10576.39
478.282	10377.74
478.486	10646.02
478.691	10400.27
478.895	10537.48
479.1	10525.19
479.304	10451.47
479.509	10129.94
479.713	10424.84
479.918	10129.94
480.122	9894.42
480.326	10074.64
480.531	10271.25
480.735	9859.6
480.94	9701.91
481.144	10109.46
481.348	9687.57
481.553	9839.12
481.757	9439.77
481.961	9703.96
482.166	9937.43
482.37	9638.42
482.574	9376.28
482.778	9425.43
482.983	9929.24
483.187	9542.17
483.391	9687.57
483.595	9519.64
483.8	9435.67
484.004	9636.38
484.208	9810.45
484.412	9718.29
484.616	9706.01
484.821	9615.9
485.025	9343.52
485.229	9611.8
485.433	9716.25
485.637	9652.76
485.841	9605.66
486.045	9527.83
486.249	9562.65
486.453	9597.46
486.657	9482.78
486.861	9632.28
487.065	9488.92
487.269	9433.63
487.473	9601.56
487.677	9542.17
487.881	9832.98
488.085	9310.75
488.289	9341.47
488.493	9624.09
488.697	9800.21
488.901	9767.45
489.105	9706.01
489.309	9611.8
489.512	9986.58
489.716	9734.68
489.92	9503.26
490.124	9622.04
490.328	9859.6
490.531	9759.25
490.735	9808.4
490.939	9892.37
491.143	9908.76
491.346	10017.3
491.55	10005.01
491.754	9962
491.958	10121.74
492.161	9857.56
492.365	10017.3
492.569	10109.46
492.772	10035.73
492.976	10201.61
493.18	10172.94
493.383	10430.99
493.587	10349.07
493.79	10336.78
493.994	10299.92
494.197	10486.28
494.401	10549.77
494.605	10562.06
494.808	10932.74
495.012	10854.92
495.215	10826.25
495.419	10863.11
495.622	10949.12
495.825	11276.8
496.029	11133.44
496.232	11301.37
496.436	11203.07
496.639	11528.7
496.843	11446.78
497.046	11641.34
497.249	11790.84
497.453	11837.94
497.656	12204.53
497.859	12274.16
498.063	12294.64
498.266	12536.3
498.469	12358.13
498.673	12542.44
498.876	12866.02
499.079	12884.45
499.282	12691.94
499.485	13259.23
499.689	13238.75
499.892	13562.33
500.095	13433.31
500.298	13681.11
500.501	13384.16
500.705	14010.84
500.908	14121.43
501.111	14469.58
501.314	14420.43
501.517	14535.12
501.72	14764.49
501.923	14627.28
502.126	15012.29
502.329	15323.58
502.532	15325.63
502.735	15493.57
502.938	15866.3
503.141	15714.75
503.344	16007.61
503.547	15993.27
503.75	16118.2
503.953	16765.35
504.156	16685.48
504.359	16501.17
504.562	16728.49
504.765	17232.29
504.968	17631.65
505.17	17648.03
505.373	17572.25
505.576	17736.09
505.779	18235.8
505.982	18256.28
506.185	18760.08
506.387	18645.39
506.59	18786.7
506.793	19253.64
506.996	19257.73
507.198	19812.73
507.401	19437.95
507.604	19908.99
507.807	20203.89
508.009	20265.33
508.212	20261.24
508.415	20578.67
508.617	21123.43
508.82	21070.19
509.022	20889.96
509.225	21584.23
509.428	21660
509.63	21651.81
509.833	21870.94
510.035	22706.51
510.238	22384.98
510.44	22698.32
510.643	23069
510.845	23214.41
511.048	23220.55
511.25	23458.12
511.453	23626.05
511.655	24572.21
511.858	24318.26
512.06	24369.46
512.262	24768.82
512.465	24838.45
512.667	24934.7
512.87	25389.35
513.072	25200.94
513.274	25844
513.477	26220.83
513.679	26208.54
513.881	26468.63
514.084	27126.03
514.286	26681.62
514.488	27298.06
514.69	27818.24
514.893	27560.2
515.095	27877.63
515.297	28233.98
515.499	28322.04
515.701	28901.62
515.904	28932.34
516.106	29186.29
516.308	29499.62
516.51	29894.88
516.712	29739.24
516.914	30353.63
517.116	30353.63
517.318	30644.44
517.52	31031.51
517.722	30908.63
517.925	31490.25
518.127	31686.86
518.329	32245.95
518.531	31684.81
518.733	32522.43
518.935	32925.88
519.136	32839.86
519.338	33394.86
519.54	33366.19
519.742	33726.63
519.944	33628.33
520.146	34136.23
520.348	34463.9
520.55	34566.3
520.752	34855.06
520.954	35629.19
521.155	34893.97
521.357	35848.33
521.559	36044.93
521.761	36542.59
521.963	36391.04
522.164	36532.35
522.366	36622.46
522.568	37048.44
522.77	37316.72
522.971	37769.32
523.173	37603.44
523.375	37894.25
523.576	38070.37
523.778	38350.95
523.98	38881.37
524.181	38973.53
524.383	38842.46
524.584	38979.67
524.786	39598.16
524.988	39383.12
525.189	39698.51
525.391	40185.93
525.592	40194.12
525.794	40423.49
525.995	40372.29
526.197	40464.45
526.398	40984.63
526.6	40609.85
526.801	41365.56
527.003	41449.52
527.204	41711.66
527.406	41908.27
527.607	41758.77
527.808	41814.06
528.01	41295.92
528.211	42022.95
528.412	42588.19
528.614	42711.07
528.815	42295.33
529.016	43026.46
529.218	42569.76
529.419	42803.23
529.62	42997.79
529.822	42889.24
530.023	42758.17
530.224	43020.31
530.425	43376.66
530.626	42678.3
530.828	42913.82
531.029	43900.94
531.23	43327.51
531.431	43323.41
531.632	43687.95
531.833	43544.59
532.035	43444.24
532.236	43468.82
532.437	43665.42
532.638	43311.13
532.839	43765.77
533.04	44386.31
533.241	43569.17
533.442	44550.15
533.643	43649.04
533.844	44220.42
534.045	44224.52
534.246	43974.67
534.447	44328.97
534.648	44367.88
534.849	44232.71
535.05	43970.57
535.251	44333.06
535.451	44281.86
535.652	43982.86
535.853	44232.71
536.054	44357.64
536.255	44156.94
536.456	43964.43
536.657	44605.44
536.857	44001.29
537.058	43894.8
537.259	44333.06
537.46	44666.88
537.66	44038.15
537.861	44238.86
538.062	44126.22
538.263	44271.62
538.463	44331.01
538.664	44326.92
538.865	44462.08
539.065	44689.41
539.266	44077.07
539.466	44840.96
539.667	44038.15
539.868	44587.01
540.068	44490.76
540.269	44324.87
540.469	44433.41
540.67	43862.03
540.87	43827.21
541.071	43952.14
541.271	44521.48
541.472	44212.23
541.672	43954.19
541.873	44232.71
542.073	43671.57
542.274	44601.35
542.474	44040.2
542.675	43884.56
542.875	44503.04
543.075	44267.53
543.276	43745.3
543.476	44304.39
543.676	44079.11
543.877	44447.75
544.077	44249.1
544.277	43636.75
544.478	43614.23
544.678	44140.55
544.878	44261.38
545.078	43778.06
545.279	43915.28
545.479	43440.15
545.679	44292.1
545.879	43986.96
546.079	43800.59
546.28	43771.92
546.48	43526.16
546.68	44183.56
546.88	43917.32
547.08	43788.3
547.28	43761.68
547.48	43347.99
547.68	43644.94
547.88	43458.58
548.081	43943.95
548.281	43978.76
548.481	43733.01
548.681	43462.68
548.881	43792.4
549.081	43534.35
549.28	43474.96
549.48	44017.67
549.68	43386.9
549.88	44066.83
550.08	43599.89
550.28	43751.44
550.48	43690
550.68	44193.8
550.88	43763.73
551.08	43614.23
551.279	43597.84
551.479	43161.62
551.679	43859.98
551.879	43165.72
552.079	43526.16
552.278	43548.69
552.478	43749.39
552.678	43753.49
552.878	43724.82
553.077	43307.03
553.277	43214.87
553.477	43563.03
553.676	43499.54
553.876	43403.28
554.076	43317.27
554.275	43159.58
554.475	42502.18
554.674	43413.52
554.874	43040.79
555.074	43161.62
555.273	43419.67
555.473	43229.21
555.672	42885.15
555.872	43126.81
556.071	43403.28
556.271	43225.11
556.47	42903.58
556.67	42514.47
556.869	42801.18
557.068	42764.32
557.268	42655.78
557.467	42743.84
557.667	42836
557.866	42379.3
558.065	42414.12
558.265	42493.99
558.464	42133.54
558.663	42670.11
558.863	41902.12
559.062	42514.47
559.261	42027.05
559.461	42463.27
559.66	41721.9
559.859	42170.41
560.058	42000.43
560.258	42063.91
560.457	41304.12
560.656	42129.45
560.855	41850.92
561.054	42031.15
561.253	41748.53
561.453	41644.08
561.652	41644.08
561.851	41861.16
562.05	41205.81
562.249	41295.92
562.448	41828.4
562.647	41113.66
562.846	40912.95
563.045	41127.99
563.244	40857.66
563.443	40955.96
563.642	40771.64
563.841	40857.66
564.04	40757.31
564.239	41279.54
564.438	40673.34
564.637	40775.74
564.836	40757.31
565.035	39876.68
565.234	40659.01
565.432	40351.81
565.631	40020.04
565.83	40601.66
566.029	40091.72
566.228	39680.08
566.427	39704.65
566.625	39503.95
566.824	39118.93
567.023	39819.34
567.222	38854.75
567.42	39757.9
567.619	39344.21
567.818	39350.35
568.016	39245.91
568.215	39684.17
568.414	38983.77
568.612	39200.85
568.811	38930.52
569.01	38766.68
569.208	38217.83
569.407	38641.76
569.605	38172.77
569.804	38525.02
570.002	38295.65
570.201	38443.1
570.4	38213.73
570.598	37951.59
570.797	37877.86
570.995	38080.61
571.193	37343.34
571.392	37920.87
571.59	37679.21
571.789	37625.96
571.987	37607.53
572.186	37701.74
572.384	37462.13
572.582	37288.05
572.781	37838.95
572.979	36831.35
573.177	37146.74
573.376	37197.94
573.574	36747.39
573.772	36989.05
573.971	36751.48
574.169	36794.49
574.367	36475.01
574.565	36569.21
574.763	36302.98
574.962	36466.81
575.16	35573.9
575.358	36356.22
575.556	35870.86
575.754	36647.04
575.952	35664.01
576.151	36124.8
576.349	35389.58
576.547	35977.35
576.745	35205.27
576.943	35852.42
577.141	35162.26
577.339	35561.61
577.537	35379.34
577.735	35342.48
577.933	34891.93
578.131	34734.23
578.329	34975.89
578.527	34416.8
578.725	35041.43
578.923	34863.25
579.121	34570.4
579.319	34304.16
579.516	34642.07
579.714	34119.84
579.912	34105.51
580.11	34322.59
580.308	34144.42
580.506	34078.88
580.704	33646.76
580.901	34121.89
581.099	34173.09
581.297	33519.79
581.495	33747.11
581.692	34076.83
581.89	33329.33
582.088	33802.41
582.285	33335.47
582.483	32987.32
582.681	32962.74
582.878	32737.46
583.076	32573.63
583.274	33020.08
583.471	32639.16
583.669	32876.72
583.866	32305.34
584.064	32647.35
584.262	32078.02
584.459	32327.87
584.657	31834.31
584.854	32370.88
585.052	31709.38
585.249	31981.76
585.447	31838.4
585.644	31762.63
585.841	31750.34
586.039	31936.71
586.236	31467.72
586.434	31563.98
586.631	31369.42
586.828	31350.99
587.026	31318.22
587.223	31246.54
587.42	31082.7
587.618	31148.24
587.815	30656.73
588.012	30646.49
588.21	30458.07
588.407	30689.49
588.604	30355.68
588.801	30531.8
588.999	30130.4
589.196	30255.33
589.393	30136.54
589.59	30304.48
589.787	29759.72
589.984	29870.31
590.182	29526.25
590.379	29858.02
590.576	29452.52
590.773	29516.01
590.97	29536.49
591.167	29575.4
591.364	28952.82
591.561	29452.52
591.758	28944.62
591.955	29016.3
592.152	29329.64
592.349	28662.01
592.546	29038.83
592.743	28631.29
592.94	28416.25
593.137	28795.12
593.334	28758.26
593.531	28000.51
593.727	28739.83
593.924	28561.65
594.121	27846.91
594.318	28143.87
594.515	27808
594.712	28168.44
594.908	27920.64
595.105	27683.08
595.302	27517.19
595.499	27470.09
595.696	27492.62
595.892	27351.31
596.089	27304.2
596.286	27404.55
596.482	27351.31
596.679	27111.69
596.876	27093.26
597.072	26982.67
597.269	26878.22
597.466	26503.45
597.662	26673.43
597.859	26667.28
598.055	26732.82
598.252	26519.83
598.448	26452.25
598.645	26175.77
598.841	26528.02
599.038	26478.87
599.234	26343.7
599.431	26050.85
599.627	25680.16
599.824	26134.81
600.02	25749.79
600.217	25909.54
600.413	25585.96
600.609	25360.68
600.806	25530.66
601.002	25295.14
601.198	25080.11
601.395	25200.94
601.591	25166.12
601.787	25174.31
601.984	25141.55
602.18	25188.65
602.376	24936.75
602.572	24631.6
602.769	25049.39
602.965	24633.65
603.161	24355.13
603.357	24480.05
603.553	24246.58
603.75	24363.32
603.946	24277.3
604.142	24213.82
604.338	24047.93
604.534	24228.15
604.73	23800.13
604.926	23945.53
605.122	23988.54
605.318	23701.83
605.514	23732.54
605.71	23521.6
605.906	23781.7
606.102	23787.84
606.298	23445.83
606.494	23593.28
606.69	23466.31
606.886	23304.52
607.082	22958.41
607.278	23501.12
607.474	22866.25
607.67	23157.07
607.866	22714.7
608.062	23081.29
608.257	22761.81
608.453	22896.97
608.649	22925.64
608.845	22456.66
609.041	22835.53
609.236	22661.46
609.432	22579.54
609.628	22378.84
609.824	22407.51
610.019	22298.97
610.215	22380.89
610.411	22454.61
610.606	22176.09
610.802	22419.8
610.998	22387.03
611.193	22077.79
611.389	22106.46
611.584	22042.97
611.78	21776.73
611.976	21799.26
612.171	21852.51
612.367	21989.72
612.562	21645.66
612.758	21356.9
612.953	21584.23
613.149	22057.31
613.344	21557.6
613.539	21807.45
613.735	21494.11
613.93	21735.78
614.126	21180.78
614.321	21586.27
614.517	21410.15
614.712	21412.2
614.907	21182.82
615.103	21490.02
615.298	21238.12
615.493	21528.93
615.688	20767.09
615.884	21660
616.079	21043.56
616.274	21141.86
616.47	20879.72
616.665	20949.35
616.86	20730.22
617.055	20695.41
617.25	20597.1
617.445	20679.02
617.641	20316.53
617.836	20689.26
618.031	20205.94
618.226	20441.46
618.421	20343.16
618.616	20341.11
618.811	20056.44
619.006	20275.57
619.201	20218.23
619.396	20140.41
619.591	19788.16
619.786	20087.16
619.981	19728.77
620.176	20087.16
620.371	19581.31
620.566	19720.57
620.761	19472.77
620.956	19581.31
621.151	19298.69
621.346	19431.81
621.541	19224.97
621.735	19468.67
621.93	18907.53
622.125	18882.95
622.32	18622.86
622.515	18917.77
622.709	18753.93
622.904	18776.46
623.099	18452.88
623.294	18745.74
623.488	18155.93
623.683	18190.74
623.878	18000.28
624.072	18207.12
624.267	18002.33
624.462	17732
624.656	17537.44
624.851	18178.45
625.046	17443.23
625.24	17482.14
625.435	17310.11
625.629	17496.48
625.824	17240.48
626.018	17236.39
626.213	16847.27
626.407	17144.23
626.602	16687.53
626.796	16632.24
626.991	16705.96
627.185	16517.55
627.38	16370.1
627.574	16394.67
627.768	16355.76
627.963	16032.18
628.157	16046.52
628.352	16247.22
628.546	15919.54
628.74	16003.51
628.935	15849.91
629.129	15659.45
629.323	15456.7
629.517	15462.85
629.712	15493.57
629.906	15202.75
630.1	15145.41
630.294	15475.13
630.489	15073.73
630.683	15401.41
630.877	14881.22
631.071	14993.86
631.265	15090.12
631.459	14711.24
631.653	14641.61
631.848	14606.8
632.042	14301.65
632.236	14662.09
632.43	14408.14
632.624	14512.59
632.818	14363.09
633.012	14141.91
633.206	14260.69
633.4	14141.91
633.594	13961.69
633.788	13953.49
633.982	13887.96
634.176	13666.78
634.369	13707.74
634.563	13715.93
634.757	13543.9
634.951	13642.2
635.145	13365.73
635.339	13103.59
635.533	13392.35
635.726	13267.42
635.92	13097.44
636.114	13248.99
636.308	12857.83
636.501	12964.32
636.695	12935.65
636.889	12872.17
637.083	12737
637.276	12567.02
637.47	12642.79
637.664	12558.83
637.857	12755.43
638.051	12483.05
638.244	12452.33
638.438	12276.21
638.632	12440.04
638.825	12091.89
639.019	12069.36
639.212	12046.83
639.406	11715.06
639.599	11837.94
639.793	11966.96
639.986	11528.7
640.18	11981.3
640.373	11672.06
640.567	11414.01
640.76	11610.62
640.954	11561.47
641.147	11172.35
641.34	11053.57
641.534	11397.63
641.727	11454.97
641.92	11133.44
642.114	10926.6
642.307	10961.41
642.5	10893.83
642.694	10842.63
642.887	10846.73
643.08	11069.95
643.273	10701.32
643.467	10781.19
643.66	10459.66
643.853	10678.79
644.046	10686.98
644.239	10510.86
644.432	10424.84
644.626	10304.01
644.819	10336.78
645.012	10441.23
645.205	10267.15
645.398	10267.15
645.591	10107.41
645.784	9910.8
645.977	9906.71
646.17	9921.04
646.363	9765.4
646.556	9816.6
646.749	9802.26
646.942	9687.57
647.135	9859.6
647.328	9787.93
647.521	9517.59
647.714	9400.86
647.907	9499.16
648.099	9505.31
648.292	9353.76
648.485	9433.63
648.678	9069.09
648.871	9064.99
649.064	9118.24
649.256	9198.11
649.449	9153.05
649.642	8800.8
649.835	8981.03
650.027	8788.52
650.22	8897.06
650.413	8722.98
650.605	8876.58
650.798	8725.03
650.991	8647.21
651.183	8659.49
651.376	8733.22
651.568	8602.15
651.761	8507.94
651.954	8452.65
652.146	8344.11
652.339	8432.17
652.531	8370.73
652.724	8399.4
652.916	8045.1
653.109	8043.06
653.301	8079.92
653.494	8223.28
653.686	8043.06
653.879	8165.93
654.071	8067.63
654.263	7914.03
654.456	8184.37
654.648	7967.28
654.84	7764.53
655.033	7840.31
655.225	7909.94
655.417	7762.48
655.61	7934.51
655.802	7754.29
655.994	7498.3
656.186	7655.99
656.379	7551.54
656.571	7477.82
656.763	7615.03
656.955	7672.37
657.148	7293.5
657.34	7647.8
657.532	7311.93
657.724	7340.6
657.916	7223.87
658.108	7395.9
658.3	7187.01
658.492	7105.09
658.684	7021.12
658.876	7123.52
659.068	7113.28
659.26	7156.29
659.452	7045.7
659.644	7144
659.836	6982.21
660.028	6851.14
660.22	6877.76
660.412	6771.27
660.604	6687.3
660.796	6810.18
660.988	6836.8
661.18	6574.66
661.372	6541.89
661.563	6703.68
661.755	6558.28
661.947	6632.01
662.139	6543.94
662.331	6552.13
662.522	6464.07
662.714	6435.4
662.906	6511.18
663.097	6355.53
663.289	6378.06
663.481	6306.38
663.673	6404.68
663.864	6197.84
664.056	6199.88
664.247	6322.76
664.439	6126.16
664.631	6173.26
664.822	6206.03
665.014	6050.38
665.205	6093.39
665.397	5892.69
665.588	5937.74
665.78	6036.05
665.971	5941.84
666.163	6031.95
666.354	6064.72
666.546	5919.31
666.737	5728.85
666.929	5884.5
667.12	5880.4
667.311	5739.09
667.503	5689.94
667.694	5679.7
667.885	5724.76
668.077	5698.13
668.268	5679.7
668.459	5577.3
668.651	5626.45
668.842	5581.4
669.033	5468.76
669.224	5517.91
669.416	5644.88
669.607	5513.81
669.798	5605.97
669.989	5794.39
670.18	5421.66
670.371	5442.14
670.563	5438.04
670.754	5655.12
670.945	5364.31
671.136	5345.88
671.327	5446.23
671.518	5366.36
671.709	5229.15
671.9	5386.84
672.091	5343.83
672.282	5415.51
672.473	5356.12
672.664	5325.4
672.855	5214.81
673.046	5239.39
673.237	5163.61
673.428	5165.66
673.619	5388.89
673.809	5220.95
674	5306.97
674.191	5165.66
674.382	5216.86
674.573	5200.48
674.764	5198.43
674.954	5190.24
675.145	4999.77
675.336	5077.6
675.527	5057.12
675.717	4971.1
675.908	4983.39
676.099	4995.68
676.289	5145.18
676.48	4997.73
676.671	5071.45
676.861	5081.69
677.052	5034.59
677.243	5010.01
677.433	4919.9
677.624	5184.09
677.814	4973.15
678.005	4917.86
678.195	5106.27
678.386	5079.65
678.576	4880.99
678.767	4967.01
678.957	4981.34
679.148	5007.97
679.338	5073.5
679.529	4934.24
679.719	4983.39
679.909	5196.38
680.1	4989.53
680.29	5055.07
680.481	4856.42
680.671	5016.16
680.861	4967.01
681.052	5085.79
681.242	4899.42
681.432	4950.62
681.622	4942.43
681.813	4829.79
682.003	4799.07
682.193	4899.42
682.383	4944.48
682.573	4909.66
682.764	4833.89
682.954	4891.23
683.144	4813.41
683.334	4921.95
683.524	4936.29
683.714	4919.9
683.904	4901.47
684.094	5059.17
684.284	4670.05
684.474	4971.1
684.664	4913.76
684.854	4713.06
685.044	4807.27
685.234	4751.97
685.424	4944.48
685.614	4858.46
685.804	4792.93
685.994	4715.11
686.184	4723.3
686.374	4885.09
686.564	4567.65
686.753	4719.2
686.943	4657.76
687.133	4668
687.323	4696.68
687.513	4782.69
687.702	4500.07
687.892	4493.93
688.082	4500.07
688.272	4522.6
688.461	4563.56
688.651	4700.77
688.841	4323.94
689.03	4387.43
689.22	4395.62
689.41	4430.44
689.599	4268.65
689.789	4307.56
689.979	4471.4
690.168	4319.85
690.358	4325.99
690.547	4223.59
690.737	4246.12
690.926	4233.83
691.116	4213.35
691.305	4246.12
691.495	4293.23
691.684	4100.72
691.874	4229.74
692.063	4160.11
692.252	4076.14
692.442	4141.68
692.631	4133.48
692.82	4080.24
693.01	4151.92
693.199	3947.12
693.388	3996.27
693.578	3975.79
693.767	3932.78
693.956	3938.93
694.146	3871.34
694.335	3879.54
694.524	3922.54
694.713	4012.65
694.902	3797.62
695.092	3867.25
695.281	3779.19
695.47	3805.81
695.659	3844.72
695.848	3721.84
696.037	3746.42
696.226	3836.53
696.415	3777.14
696.604	3787.38
696.793	3723.89
696.982	3775.09
697.171	3846.77
697.36	3848.82
697.549	3660.4
697.738	3693.17
697.927	3721.84
698.116	3779.19
698.305	3695.22
698.494	3832.43
698.683	3658.35
698.872	3748.47
699.061	3664.5
699.25	3654.26
699.438	3719.79
699.627	3650.16
699.816	3695.22
700.005	3555.96
700.193	3738.23
700.382	3641.97
700.571	3676.79
700.76	3676.79
700.948	3693.17
701.137	3660.4
701.326	3754.61
701.514	3592.82
701.703	3717.75
701.892	3488.37
702.08	3648.11
702.269	3721.84
702.457	3517.05
702.646	3627.64
702.834	3619.44
703.023	3615.35
703.212	3639.92
703.4	3601.01
703.589	3750.51
703.777	3648.11
703.965	3601.01
704.154	3689.07
704.342	3582.58
704.531	3684.98
704.719	3590.77
704.907	3703.41
705.096	3474.04
705.284	3619.44
705.472	3635.83
705.661	3672.69
705.849	3770.99
706.037	3652.21
706.226	3756.66
706.414	3654.26
706.602	3654.26
706.79	3572.34
706.979	3727.99
707.167	3682.93
707.355	3601.01
707.543	3727.99
707.731	3637.88
707.919	3592.82
708.107	3605.11
708.296	3617.4
708.484	3627.64
708.672	3580.53
708.86	3734.13
709.048	3625.59
709.236	3594.87
709.424	3631.73
709.612	3721.84
709.8	3560.05
709.988	3646.07
710.176	3746.42
710.364	3695.22
710.551	3773.04
710.739	3574.39
710.927	3752.56
711.115	3658.35
711.303	3746.42
711.491	3764.85
711.679	3703.41
711.866	3705.46
712.054	3701.36
712.242	3594.87
712.43	3869.3
712.617	3736.18
712.805	3678.83
712.993	3830.38
713.181	3658.35
713.368	3730.03
713.556	3754.61
713.744	3666.55
713.931	3859.06
714.119	3818.1
714.306	3766.9
714.494	3773.04
714.682	3793.52
714.869	3609.2
715.057	3861.1
715.244	3687.03
715.432	3992.17
715.619	3754.61
715.807	3824.24
715.994	3748.47
716.182	3906.16
716.369	3789.42
716.556	3850.86
716.744	3842.67
716.931	3775.09
717.119	3902.06
717.306	3926.64
717.493	3848.82
717.681	3836.53
717.868	3871.34
718.055	3893.87
718.242	3795.57
718.43	3955.31
718.617	3910.26
718.804	3910.26
718.991	3973.74
719.179	3908.21
719.366	3889.78
719.553	3836.53
719.74	3922.54
719.927	3949.17
720.114	3893.87
720.301	3902.06
720.488	3828.34
720.676	3977.84
720.863	3902.06
721.05	4041.32
721.237	4096.62
721.424	3971.69
721.611	3973.74
721.798	4037.23
721.985	3900.02
722.172	3986.03
722.358	4031.09
722.545	3883.63
722.732	3904.11
722.919	3912.3
723.106	3943.02
723.293	3930.73
723.48	3900.02
723.667	3973.74
723.853	4033.13
724.04	4102.76
724.227	3897.97
724.414	3908.21
724.6	3822.19
724.787	3836.53
724.974	4049.52
725.161	4026.99
725.347	3963.5
725.534	3824.24
725.72	4043.37
725.907	3945.07
726.094	4016.75
726.28	4088.43
726.467	3897.97
726.653	3953.26
726.84	4123.24
727.027	4059.76
727.213	3996.27
727.4	3928.69
727.586	4084.33
727.773	3973.74
727.959	3992.17
728.145	4121.2
728.332	3947.12
728.518	3926.64
728.705	4000.37
728.891	3994.22
729.077	4121.2
729.264	3994.22
729.45	3920.49
729.636	4045.42
729.823	4022.89
730.009	4121.2
730.195	4164.2
730.382	4174.44
730.568	4043.37
730.754	4117.1
730.94	4045.42
731.126	3945.07
731.313	3996.27
731.499	4037.23
731.685	4160.11
731.871	4158.06
732.057	4147.82
732.243	4196.97
732.429	4123.24
732.615	4098.67
732.801	4092.52
732.987	4031.09
733.173	4088.43
733.359	3965.55
733.545	4092.52
733.731	4094.57
733.917	4174.44
734.103	3990.13
734.289	4018.8
734.475	3932.78
734.661	4170.35
734.847	4082.28
735.033	4024.94
735.219	4043.37
735.404	3963.5
735.59	4156.01
735.776	4045.42
735.962	4113
736.148	4029.04
736.333	4201.07
736.519	3981.93
736.705	4065.9
736.89	4033.13
737.076	4018.8
737.262	3926.64
737.447	4049.52
737.633	4094.57
737.819	3986.03
738.004	4037.23
738.19	3859.06
738.375	3967.6
738.561	4039.28
738.747	3918.45
738.932	4045.42
739.118	3988.08
739.303	3992.17
739.489	3979.89
739.674	3828.34
739.859	3957.36
740.045	3848.82
740.23	3920.49
740.416	3820.14
740.601	3840.62
740.786	3908.21
740.972	3828.34
741.157	3846.77
741.342	3918.45
741.528	3781.23
741.713	3672.69
741.898	3742.32
742.084	3779.19
742.269	3709.55
742.454	3785.33
742.639	3910.26
742.824	3773.04
743.01	3766.9
743.195	3773.04
743.38	3725.94
743.565	3627.64
743.75	3734.13
743.935	3701.36
744.12	3713.65
744.305	3662.45
744.49	3623.54
744.675	3504.76
744.86	3543.67
745.045	3482.23
745.23	3646.07
745.415	3510.9
745.6	3517.05
745.785	3422.84
745.97	3607.16
746.155	3502.71
746.34	3375.74
746.525	3412.6
746.71	3392.12
746.895	3398.26
747.079	3367.54
747.264	3469.94
747.449	3404.41
747.634	3265.14
747.819	3400.31
748.003	3236.47
748.188	3175.03
748.373	3254.9
748.557	3222.14
748.742	3244.67
748.927	3115.64
749.111	3230.33
749.296	3056.25
749.481	3205.75
749.665	3140.22
749.85	2986.62
750.034	3197.56
750.219	2953.85
750.404	3035.77
750.588	3017.34
750.773	2869.89
750.957	2978.43
751.141	2878.08
751.326	2912.89
751.51	2863.74
751.695	2945.66
751.879	2800.26
752.064	2927.23
752.248	2818.69
752.432	2953.85
752.617	2790.02
752.801	2783.87
752.985	2787.97
753.17	2841.22
753.354	2761.34
753.538	2681.47
753.722	2742.91
753.907	2587.27
754.091	2579.08
754.275	2728.58
754.459	2726.53
754.643	2617.99
754.828	2617.99
755.012	2558.6
755.196	2486.92
755.38	2456.2
755.564	2527.88
755.748	2357.89
755.932	2421.38
756.116	2306.7
756.3	2323.08
756.484	2405
756.668	2351.75
756.852	2308.74
757.036	2222.73
757.22	2411.14
757.404	2312.84
757.588	2280.07
757.772	2372.23
757.956	2314.89
758.14	2296.46
758.323	2218.63
758.507	2294.41
758.691	2157.19
758.875	2198.15
759.059	2196.11
759.242	2235.02
759.426	2151.05
759.61	2235.02
759.794	2173.58
759.977	2149
760.161	2081.42
760.345	2142.86
760.528	2056.84
760.712	2118.28
760.895	2069.13
761.079	2036.36
761.263	2038.41
761.446	2044.56
761.63	2019.98
761.813	2017.93
761.997	2005.64
762.18	1972.88
762.364	2044.56
762.547	1954.44
762.731	1946.25
762.914	1927.82
763.098	2026.12
763.281	1936.01
763.464	1974.92
763.648	1888.91
763.831	1911.44
764.015	1804.94
764.198	2003.6
764.381	1911.44
764.564	1858.19
764.748	1757.84
764.931	1936.01
765.114	1856.14
765.297	1778.32
765.481	1680.02
765.664	1776.27
765.847	1694.35
766.03	1720.98
766.213	1714.83
766.397	1761.94
766.58	1694.35
766.763	1731.22
766.946	1690.26
767.129	1610.39
767.312	1661.59
767.495	1688.21
767.678	1587.86
767.861	1837.71
768.044	1677.97
768.227	1735.31
768.41	1606.29
768.593	1684.11
768.776	1624.72
768.959	1616.53
769.142	1673.87
769.324	1591.95
769.507	1530.52
769.69	1553.04
769.873	1569.43
770.056	1696.4
770.239	1606.29
770.421	1594
770.604	1542.8
770.787	1544.85
770.97	1424.02
771.152	1544.85
771.335	1526.42
771.518	1551
771.7	1587.86
771.883	1624.72
772.066	1507.99
772.248	1395.35
772.431	1477.27
772.613	1483.41
772.796	1403.54
772.978	1462.93
773.161	1512.08
773.343	1301.14
773.526	1370.77
773.708	1329.81
773.891	1366.68
774.073	1370.77
774.256	1292.95
774.438	1512.08
774.621	1366.68
774.803	1225.37
774.985	1282.71
775.168	1399.45
775.35	1223.32
775.532	1260.18
775.715	1217.18
775.897	1288.86
776.079	1256.09
776.261	1262.23
776.444	1217.18
776.626	1200.79
776.808	1237.66
776.99	1110.68
777.173	1161.88
777.355	1104.54
777.537	1168.02
777.719	1208.98
777.901	1182.36
778.083	1147.55
778.265	1161.88
778.447	1125.02
778.629	1149.59
778.811	1057.43
778.993	1084.06
779.175	1153.69
779.357	1129.11
779.539	1092.25
779.721	1032.86
779.903	1071.77
780.085	1094.3
780.267	1067.67
780.449	1069.72
780.631	1002.14
780.812	1024.67
780.994	1002.14
781.176	1034.91
781.358	1067.67
781.54	955.04
781.721	1034.91
781.903	1047.19
782.085	895.65
782.267	1041.05
782.448	969.37
782.63	862.88
782.812	987.8
782.993	1004.19
783.175	871.07
783.357	924.32
783.538	914.08
783.72	832.16
783.901	873.12
784.083	893.6
784.264	879.26
784.446	813.73
784.627	840.35
784.809	869.02
784.99	875.17
785.172	733.86
785.353	805.53
785.535	809.63
785.716	758.43
785.897	754.34
786.079	754.34
786.26	742.05
786.441	733.86
786.623	750.24
786.804	838.3
786.985	783.01
787.167	789.15
787.348	762.53
787.529	705.18
787.71	799.39
787.891	774.81
788.073	756.38
788.254	621.22
788.435	727.71
788.616	715.42
788.797	674.46
788.978	635.55
789.159	672.42
789.34	658.08
789.522	567.97
789.703	723.62
789.884	666.27
790.065	656.03
790.246	754.34
790.427	627.36
790.607	729.76
790.788	662.18
790.969	580.26
791.15	639.65
791.331	518.82
791.512	600.74
791.693	445.09
791.874	586.4
792.054	721.57
792.235	594.59
792.416	524.96
792.597	584.35
792.778	561.83
792.958	625.31
793.139	555.68
793.32	584.35
793.5	506.53
793.681	479.91
793.862	586.4
794.042	514.72
794.223	434.85
794.404	514.72
794.584	539.3
794.765	455.33
794.945	508.58
795.126	604.83
795.306	635.55
795.487	522.91
795.667	486.05
795.848	561.83
796.028	522.91
796.209	465.57
796.389	486.05
796.57	567.97
796.75	443.04
796.93	541.35
797.111	506.53
797.291	510.63
797.471	543.39
797.652	477.86
797.832	463.52
798.012	545.44
798.192	381.6
798.373	428.71
798.553	492.2
798.733	441
798.913	395.94
799.093	381.6
799.274	465.57
799.454	428.71
799.634	453.28
799.814	428.71
799.994	522.91
800.174	428.71
800.354	436.9
800.534	420.52
800.714	428.71
800.894	361.13
801.074	395.94
801.254	342.69
801.434	451.24
801.614	432.8
801.794	361.13
801.974	1381.01
802.154	465.57
802.334	330.41
802.514	322.21
802.693	311.97
802.873	379.56
803.053	443.04
803.233	432.8
803.413	406.18
803.592	404.13
803.772	436.9
803.952	287.4
804.131	285.35
804.311	334.5
804.491	352.93
804.67	285.35
804.85	311.97
805.03	387.75
805.209	314.02
805.389	352.93
805.568	305.83
805.748	332.45
805.928	371.37
806.107	350.89
806.287	357.03
806.466	371.37
806.646	289.45
806.825	314.02
807.004	293.54
807.184	346.79
807.363	336.55
807.543	377.51
807.722	283.3
807.901	412.32
808.081	344.74
808.26	281.25
808.439	318.12
808.619	326.31
808.798	285.35
808.977	258.73
809.156	314.02
809.336	363.17
809.515	336.55
809.694	369.32
809.873	228.01
810.052	326.31
810.231	420.52
810.411	330.41
810.59	311.97
810.769	234.15
810.948	332.45
811.127	225.96
811.306	250.53
811.485	324.26
811.664	322.21
811.843	260.77
812.022	330.41
812.201	258.73
812.38	309.93
812.559	230.06
812.737	326.31
812.916	307.88
813.095	309.93
813.274	336.55
813.453	336.55
813.632	320.17
813.811	293.54
813.989	182.95
814.168	297.64
814.347	273.06
814.526	225.96
814.704	346.79
814.883	260.77
815.062	209.58
815.24	305.83
815.419	215.72
815.598	234.15
815.776	185
815.955	262.82
816.133	193.19
816.312	242.34
816.49	207.53
816.669	225.96
816.847	279.21
817.026	348.84
817.204	234.15
817.383	228.01
817.561	205.48
817.74	273.06
817.918	238.25
818.097	266.92
818.275	146.09
818.453	166.57
818.632	219.82
818.81	228.01
818.988	172.71
819.167	158.38
819.345	223.91
819.523	189.1
819.701	250.53
819.879	217.77
820.058	242.34
820.236	174.76
820.414	246.44
820.592	141.99
820.77	285.35
820.948	117.42
821.127	180.9
821.305	199.34
821.483	211.62
821.661	215.72
821.839	101.03
822.017	166.57
822.195	240.3
822.373	225.96
822.551	117.42
822.729	223.91
822.907	154.28
823.085	166.57
823.262	191.14
823.44	76.46
823.618	191.14
823.796	195.24
823.974	158.38
824.152	246.44
824.329	242.34
824.507	199.34
824.685	144.04
824.863	150.18
825.04	203.43
825.218	203.43
825.396	207.53
825.574	146.09
825.751	152.23
825.929	223.91
826.107	152.23
826.284	144.04
826.462	174.76
826.639	150.18
826.817	96.94
826.994	193.19
827.172	166.57
827.349	211.62
827.527	160.42
827.704	201.38
827.882	146.09
828.059	133.8
828.237	76.46
828.414	191.14
828.591	121.51
828.769	176.81
828.946	70.31
829.124	115.37
829.301	170.66
829.478	76.46
829.655	236.2
829.833	98.99
830.01	101.03
830.187	125.61
830.364	137.9
830.542	178.86
830.719	205.48
830.896	197.29
831.073	133.8
831.25	160.42
831.427	141.99
831.604	150.18
831.782	68.27
831.959	144.04
832.136	185
832.313	168.62
832.49	158.38
832.667	162.47
832.844	123.56
833.021	152.23
833.198	156.33
833.374	244.39
833.551	191.14
833.728	101.03
833.905	154.28
834.082	119.46
834.259	152.23
834.436	230.06
834.612	119.46
834.789	193.19
834.966	111.27
835.143	148.14
835.319	90.79
835.496	103.08
835.673	174.76
835.85	131.75
836.026	166.57
836.203	172.71
836.38	111.27
836.556	90.79
836.733	101.03
836.909	133.8
837.086	84.65
837.262	53.93
837.439	90.79
837.616	82.6
837.792	98.99
837.968	166.57
838.145	31.4
838.321	166.57
838.498	191.14
838.674	158.38
838.851	117.42
839.027	103.08
839.203	127.66
839.38	60.07
839.556	109.23
839.732	135.85
839.909	96.94
840.085	135.85
840.261	125.61
840.437	68.27
840.614	68.27
840.79	133.8
840.966	47.79
841.142	119.46
841.318	86.7
841.494	109.23
841.671	-7.51
841.847	94.89
842.023	82.6
842.199	203.43
842.375	131.75
842.551	37.55
842.727	4.78
842.903	119.46
843.079	125.61
843.255	101.03
843.431	82.6
843.607	176.81
843.783	72.36
843.959	92.84
844.134	70.31
844.31	158.38
844.486	51.88
844.662	117.42
844.838	76.46
845.013	96.94
845.189	129.7
845.365	96.94
845.541	19.11
845.716	88.75
845.892	150.18
846.068	60.07
846.244	45.74
846.419	74.41
846.595	72.36
846.77	72.36
846.946	123.56
847.122	-30.04
847.297	94.89
847.473	223.91
847.648	62.12
847.824	43.69
847.999	53.93
848.175	109.23
848.35	6.83
848.526	76.46
848.701	162.47
848.876	148.14
849.052	39.59
849.227	127.66
849.403	94.89
849.578	66.22
849.753	86.7
849.929	45.74
850.104	35.5
850.279	25.26
850.454	70.31
850.63	90.79
850.805	53.93
850.98	58.03
851.155	62.12
851.33	62.12
851.505	-1.37
851.681	74.41
851.856	15.02
852.031	-5.46
852.206	4.78
852.381	90.79
852.556	84.65
852.731	144.04
852.906	86.7
853.081	76.46
853.256	133.8
853.431	125.61
853.606	117.42
853.781	-11.61
853.956	-25.94
854.131	84.65
854.305	35.5
854.48	49.83
854.655	62.12
854.83	80.55
855.005	4.78
855.18	119.46
855.354	103.08
855.529	35.5
855.704	53.93
855.879	113.32
856.053	41.64
856.228	25.26
856.403	72.36
856.577	39.59
856.752	21.16
856.926	53.93
857.101	31.4
857.276	51.88
857.45	6.83
857.625	66.22
857.799	55.98
857.974	133.8
858.148	39.59
858.323	76.46
858.497	160.42
858.672	2.73
858.846	43.69
859.02	43.69
859.195	-15.7
859.369	2.73
859.543	64.17
859.718	101.03
859.892	70.31
860.066	84.65
860.241	55.98
860.415	53.93
860.589	72.36
860.763	15.02
860.938	41.64
861.112	60.07
861.286	12.97
861.46	-3.41
861.634	21.16
861.808	92.84
861.982	-5.46
862.157	70.31
862.331	66.22
862.505	27.31
862.679	29.35
862.853	17.07
863.027	84.65
863.201	146.09
863.375	15.02
863.549	127.66
863.722	33.45
863.896	90.79
864.07	-17.75
864.244	-27.99
864.418	47.79
864.592	27.31
864.766	25.26
864.939	62.12
865.113	-36.18
865.287	43.69
865.461	35.5
865.634	60.07
865.808	4.78
865.982	-3.41
866.156	-7.51
866.329	-21.84
866.503	62.12
866.676	68.27
866.85	-3.41
867.024	29.35
867.197	43.69
867.371	78.51
867.544	98.99
867.718	-68.95
867.891	90.79
868.065	-38.23
868.238	-27.99
868.412	45.74
868.585	82.6
868.759	27.31
868.932	43.69
869.105	12.97
869.279	27.31
869.452	-13.65
869.625	53.93
869.799	-1.37
869.972	-7.51
870.145	64.17
870.319	139.94
870.492	10.92
870.665	-11.61
870.838	-32.08
871.011	-87.38
871.185	2.73
871.358	41.64
871.531	96.94
871.704	33.45
871.877	58.03
872.05	21.16
872.223	-9.56
872.396	47.79
872.569	103.08
872.742	-34.13
872.915	119.46
873.088	19.11
873.261	27.31
873.434	37.55
873.607	43.69
873.78	19.11
873.953	-46.42
874.126	12.97
874.299	19.11
874.471	8.87
874.644	0.68
874.817	31.4
874.99	103.08
875.163	-11.61
875.335	125.61
875.508	68.27
875.681	148.14
875.853	-23.89
876.026	-15.7
876.199	39.59
876.371	17.07
876.544	66.22
876.717	86.7
876.889	-19.8
877.062	39.59
877.234	-52.56
877.407	-3.41
877.579	72.36
877.752	76.46
877.924	17.07
878.097	74.41
878.269	-5.46
878.442	21.16
878.614	74.41
878.786	35.5
878.959	88.75
879.131	33.45
879.303	-46.42
879.476	29.35
879.648	98.99
879.82	-17.75
879.993	0.68
880.165	76.46
880.337	-60.76
880.509	-21.84
880.681	-17.75
880.854	78.51
881.026	-11.61
881.198	70.31
881.37	-5.46
881.542	-34.13
881.714	29.35
881.886	-64.85
882.058	-13.65
882.23	-58.71
882.402	-9.56
882.574	107.18
882.746	35.5
882.918	12.97
883.09	29.35
883.262	-11.61
883.434	31.4
883.606	-77.14
883.778	-11.61
883.95	111.27
884.122	64.17
884.293	4.78
884.465	58.03
884.637	45.74
884.809	-9.56
884.98	72.36
885.152	-30.04
885.324	21.16
885.496	12.97
885.667	-15.7
885.839	-34.13
886.011	166.57
886.182	10.92
886.354	141.99
886.525	23.21
886.697	37.55
886.869	-23.89
887.04	0.68
887.212	125.61
887.383	82.6
887.555	-50.52
887.726	43.69
887.897	-34.13
888.069	103.08
888.24	15.02
888.412	-1.37
888.583	2.73
888.754	-11.61
888.926	12.97
889.097	4.78
889.268	-19.8
889.44	31.4
889.611	-46.42
889.782	-46.42
889.953	-25.94
890.125	41.64
890.296	6.83
890.467	-25.94
890.638	49.83
890.809	23.21
890.98	-21.84
891.151	49.83
891.323	51.88
891.494	-25.94
891.665	-25.94
891.836	-11.61
892.007	31.4
892.178	-50.52
892.349	35.5
892.52	-46.42
892.691	-13.65
892.862	-25.94
893.032	-68.95
893.203	4.78
893.374	6.83
893.545	64.17
893.716	15.02
893.887	2.73
894.057	-17.75
894.228	53.93
894.399	15.02
894.57	105.13
894.74	-42.32
894.911	10.92
895.082	35.5
895.253	-13.65
895.423	58.03
895.594	146.09
895.764	53.93
895.935	29.35
896.106	10.92
896.276	-7.51
896.447	39.59
896.617	-54.61
896.788	43.69
896.958	-50.52
897.129	12.97
897.299	72.36
897.47	47.79
897.64	27.31
897.81	2.73
897.981	29.35
898.151	-44.37
898.322	-32.08
898.492	-9.56
898.662	-11.61
898.832	8.87
899.003	0.68
899.173	-27.99
899.343	-5.46
899.513	-27.99
