Data from USB4F104151__51__13-05-33-923.txt Node

Date: Fri Mar 14 13:05:33 EDT 2025
User: louis
Spectrometer: USB4F10415
Trigger mode: 4
Integration Time (sec): 4.000000E-2
Scans to average: 1
Electric dark correction enabled: true
Nonlinearity correction enabled: false
Boxcar width: 0
XAxis mode: Wavelengths
Number of Pixels in Spectrum: 3648
>>>>>Begin Spectral Data<<<<<
178.204	-111.96
178.424	-111.96
178.644	-111.96
178.864	-214.35
179.084	-202.07
179.304	23.21
179.524	2.73
179.744	35.5
179.964	51.88
180.184	19.11
180.404	43.69
180.624	-42.32
180.844	12.97
181.064	-101.72
181.283	-9.56
181.503	-32.08
181.723	-3.41
181.943	-5.46
182.163	117.42
182.383	-3.41
182.602	150.18
182.822	94.89
183.042	4.78
183.262	29.35
183.482	64.17
183.701	51.88
183.921	82.6
184.141	19.11
184.361	68.27
184.58	113.32
184.8	15.02
185.02	80.55
185.239	162.47
185.459	96.94
185.679	-9.56
185.898	-13.65
186.118	103.08
186.338	25.26
186.557	111.27
186.777	15.02
186.997	4.78
187.216	-11.61
187.436	41.64
187.655	31.4
187.875	90.79
188.095	21.16
188.314	170.66
188.534	37.55
188.753	37.55
188.973	45.74
189.192	121.51
189.412	53.93
189.631	-40.28
189.851	12.97
190.07	107.18
190.29	-38.23
190.509	25.26
190.729	49.83
190.948	76.46
191.168	246.44
191.387	101.03
191.607	49.83
191.826	12.97
192.045	51.88
192.265	45.74
192.484	135.85
192.704	66.22
192.923	37.55
193.142	113.32
193.362	58.03
193.581	55.98
193.8	25.26
194.02	133.8
194.239	29.35
194.458	103.08
194.678	15.02
194.897	33.45
195.116	-1.37
195.335	105.13
195.555	39.59
195.774	117.42
195.993	96.94
196.212	60.07
196.432	70.31
196.651	6.83
196.87	53.93
197.089	160.42
197.308	78.51
197.528	70.31
197.747	51.88
197.966	109.23
198.185	141.99
198.404	-5.46
198.623	82.6
198.842	84.65
199.062	74.41
199.281	37.55
199.5	-46.42
199.719	62.12
199.938	76.46
200.157	70.31
200.376	82.6
200.595	62.12
200.814	74.41
201.033	72.36
201.252	76.46
201.471	43.69
201.69	129.7
201.909	139.94
202.128	111.27
202.347	94.89
202.566	43.69
202.785	-21.84
203.004	84.65
203.223	144.04
203.442	41.64
203.661	-34.13
203.879	101.03
204.098	158.38
204.317	10.92
204.536	21.16
204.755	90.79
204.974	127.66
205.193	4.78
205.411	158.38
205.63	80.55
205.849	76.46
206.068	-7.51
206.287	35.5
206.505	117.42
206.724	49.83
206.943	92.84
207.162	-54.61
207.381	29.35
207.599	37.55
207.818	62.12
208.037	19.11
208.255	148.14
208.474	96.94
208.693	19.11
208.911	4.78
209.13	131.75
209.349	62.12
209.567	101.03
209.786	125.61
210.005	101.03
210.223	103.08
210.442	-38.23
210.661	-27.99
210.879	82.6
211.098	17.07
211.316	129.7
211.535	129.7
211.753	-36.18
211.972	92.84
212.191	0.68
212.409	35.5
212.628	49.83
212.846	86.7
213.065	90.79
213.283	96.94
213.502	12.97
213.72	60.07
213.938	-17.75
214.157	6.83
214.375	43.69
214.594	113.32
214.812	98.99
215.031	103.08
215.249	2.73
215.467	31.4
215.686	82.6
215.904	129.7
216.122	68.27
216.341	109.23
216.559	27.31
216.778	141.99
216.996	101.03
217.214	43.69
217.432	6.83
217.651	29.35
217.869	64.17
218.087	45.74
218.306	10.92
218.524	109.23
218.742	60.07
218.96	101.03
219.179	76.46
219.397	45.74
219.615	103.08
219.833	68.27
220.051	15.02
220.27	146.09
220.488	92.84
220.706	76.46
220.924	111.27
221.142	-5.46
221.36	8.87
221.578	37.55
221.796	45.74
222.015	98.99
222.233	94.89
222.451	64.17
222.669	4.78
222.887	94.89
223.105	-44.37
223.323	49.83
223.541	-11.61
223.759	60.07
223.977	8.87
224.195	117.42
224.413	43.69
224.631	103.08
224.849	29.35
225.067	133.8
225.285	21.16
225.503	27.31
225.721	-1.37
225.939	29.35
226.157	33.45
226.375	131.75
226.592	35.5
226.81	109.23
227.028	141.99
227.246	168.62
227.464	86.7
227.682	129.7
227.9	45.74
228.117	60.07
228.335	55.98
228.553	8.87
228.771	10.92
228.989	8.87
229.206	8.87
229.424	68.27
229.642	92.84
229.86	-1.37
230.077	55.98
230.295	29.35
230.513	133.8
230.731	53.93
230.948	117.42
231.166	109.23
231.384	2.73
231.601	45.74
231.819	94.89
232.037	53.93
232.254	29.35
232.472	113.32
232.689	21.16
232.907	105.13
233.125	-81.24
233.342	12.97
233.56	25.26
233.777	15.02
233.995	-17.75
234.213	146.09
234.43	64.17
234.648	-19.8
234.865	49.83
235.083	6.83
235.3	45.74
235.518	125.61
235.735	121.51
235.953	127.66
236.17	37.55
236.388	98.99
236.605	98.99
236.822	109.23
237.04	55.98
237.257	47.79
237.475	-1.37
237.692	45.74
237.909	66.22
238.127	82.6
238.344	103.08
238.562	51.88
238.779	51.88
238.996	33.45
239.214	55.98
239.431	221.86
239.648	70.31
239.865	78.51
240.083	76.46
240.3	12.97
240.517	29.35
240.735	45.74
240.952	96.94
241.169	88.75
241.386	115.37
241.603	82.6
241.821	10.92
242.038	115.37
242.255	92.84
242.472	76.46
242.689	29.35
242.907	148.14
243.124	10.92
243.341	125.61
243.558	10.92
243.775	53.93
243.992	29.35
244.209	8.87
244.426	152.23
244.643	4.78
244.86	23.21
245.078	101.03
245.295	74.41
245.512	43.69
245.729	-5.46
245.946	64.17
246.163	6.83
246.38	76.46
246.597	35.5
246.814	55.98
247.031	88.75
247.248	86.7
247.464	35.5
247.681	53.93
247.898	68.27
248.115	127.66
248.332	76.46
248.549	103.08
248.766	107.18
248.983	70.31
249.2	55.98
249.417	68.27
249.633	139.94
249.85	76.46
250.067	90.79
250.284	115.37
250.501	96.94
250.717	86.7
250.934	-85.33
251.151	49.83
251.368	121.51
251.585	72.36
251.801	-13.65
252.018	-38.23
252.235	68.27
252.451	-34.13
252.668	111.27
252.885	96.94
253.102	80.55
253.318	72.36
253.535	115.37
253.752	-11.61
253.968	17.07
254.185	-9.56
254.401	39.59
254.618	113.32
254.835	51.88
255.051	74.41
255.268	68.27
255.484	55.98
255.701	10.92
255.917	51.88
256.134	21.16
256.351	35.5
256.567	15.02
256.784	-5.46
257	-27.99
257.217	68.27
257.433	76.46
257.65	68.27
257.866	90.79
258.082	12.97
258.299	31.4
258.515	139.94
258.732	37.55
258.948	23.21
259.165	-30.04
259.381	17.07
259.597	27.31
259.814	12.97
260.03	55.98
260.246	4.78
260.463	68.27
260.679	125.61
260.895	64.17
261.112	68.27
261.328	-3.41
261.544	-1.37
261.761	121.51
261.977	10.92
262.193	31.4
262.409	92.84
262.626	66.22
262.842	64.17
263.058	51.88
263.274	12.97
263.49	72.36
263.707	-1.37
263.923	70.31
264.139	-11.61
264.355	96.94
264.571	170.66
264.787	107.18
265.004	101.03
265.22	25.26
265.436	109.23
265.652	21.16
265.868	70.31
266.084	39.59
266.3	41.64
266.516	-64.85
266.732	74.41
266.948	49.83
267.164	64.17
267.38	92.84
267.596	127.66
267.812	80.55
268.028	-13.65
268.244	31.4
268.46	70.31
268.676	60.07
268.892	78.51
269.108	51.88
269.324	43.69
269.54	45.74
269.756	68.27
269.972	66.22
270.188	68.27
270.403	4.78
270.619	6.83
270.835	47.79
271.051	70.31
271.267	10.92
271.483	74.41
271.698	58.03
271.914	92.84
272.13	68.27
272.346	25.26
272.562	129.7
272.777	86.7
272.993	66.22
273.209	109.23
273.425	49.83
273.64	-1.37
273.856	12.97
274.072	107.18
274.287	37.55
274.503	72.36
274.719	92.84
274.934	45.74
275.15	70.31
275.366	47.79
275.581	29.35
275.797	58.03
276.012	103.08
276.228	64.17
276.444	105.13
276.659	35.5
276.875	10.92
277.09	92.84
277.306	64.17
277.521	43.69
277.737	113.32
277.952	37.55
278.168	64.17
278.383	68.27
278.599	25.26
278.814	121.51
279.03	37.55
279.245	76.46
279.461	-3.41
279.676	131.75
279.892	88.75
280.107	-48.47
280.322	-25.94
280.538	72.36
280.753	43.69
280.969	53.93
281.184	80.55
281.399	88.75
281.615	70.31
281.83	90.79
282.045	19.11
282.26	62.12
282.476	49.83
282.691	-11.61
282.906	-21.84
283.122	64.17
283.337	19.11
283.552	117.42
283.767	15.02
283.983	111.27
284.198	109.23
284.413	92.84
284.628	-56.66
284.843	43.69
285.058	78.51
285.274	72.36
285.489	60.07
285.704	37.55
285.919	103.08
286.134	135.85
286.349	-11.61
286.564	-13.65
286.779	160.42
286.995	55.98
287.21	-11.61
287.425	117.42
287.64	60.07
287.855	82.6
288.07	-38.23
288.285	64.17
288.5	111.27
288.715	37.55
288.93	115.37
289.145	76.46
289.36	117.42
289.575	27.31
289.79	-3.41
290.004	51.88
290.219	51.88
290.434	29.35
290.649	78.51
290.864	12.97
291.079	-3.41
291.294	19.11
291.509	29.35
291.724	-25.94
291.938	-25.94
292.153	96.94
292.368	-40.28
292.583	64.17
292.798	101.03
293.012	94.89
293.227	64.17
293.442	70.31
293.657	58.03
293.871	117.42
294.086	94.89
294.301	98.99
294.516	49.83
294.73	15.02
294.945	0.68
295.16	8.87
295.374	62.12
295.589	90.79
295.804	123.56
296.018	55.98
296.233	58.03
296.447	51.88
296.662	53.93
296.877	74.41
297.091	80.55
297.306	80.55
297.52	29.35
297.735	96.94
297.949	62.12
298.164	2.73
298.378	39.59
298.593	2.73
298.807	23.21
299.022	19.11
299.236	109.23
299.451	62.12
299.665	113.32
299.88	62.12
300.094	82.6
300.309	37.55
300.523	82.6
300.737	15.02
300.952	27.31
301.166	76.46
301.381	8.87
301.595	4.78
301.809	27.31
302.024	47.79
302.238	45.74
302.452	33.45
302.667	49.83
302.881	94.89
303.095	27.31
303.309	76.46
303.524	80.55
303.738	6.83
303.952	12.97
304.166	84.65
304.381	15.02
304.595	82.6
304.809	15.02
305.023	96.94
305.237	53.93
305.452	29.35
305.666	6.83
305.88	-38.23
306.094	121.51
306.308	70.31
306.522	141.99
306.736	39.59
306.95	70.31
307.164	37.55
307.379	12.97
307.593	137.9
307.807	51.88
308.021	17.07
308.235	2.73
308.449	21.16
308.663	-5.46
308.877	162.47
309.091	0.68
309.305	115.37
309.519	10.92
309.733	66.22
309.947	58.03
310.161	60.07
310.374	84.65
310.588	96.94
310.802	-21.84
311.016	111.27
311.23	4.78
311.444	66.22
311.658	53.93
311.872	31.4
312.085	43.69
312.299	113.32
312.513	51.88
312.727	2.73
312.941	-21.84
313.154	39.59
313.368	37.55
313.582	74.41
313.796	21.16
314.009	12.97
314.223	105.13
314.437	109.23
314.651	-7.51
314.864	-21.84
315.078	53.93
315.292	53.93
315.505	80.55
315.719	31.4
315.933	45.74
316.146	12.97
316.36	29.35
316.573	49.83
316.787	72.36
317.001	45.74
317.214	31.4
317.428	55.98
317.641	-3.41
317.855	37.55
318.068	103.08
318.282	6.83
318.495	53.93
318.709	37.55
318.922	53.93
319.136	98.99
319.349	72.36
319.563	29.35
319.776	29.35
319.99	-75.09
320.203	60.07
320.417	98.99
320.63	94.89
320.843	133.8
321.057	84.65
321.27	109.23
321.483	58.03
321.697	152.23
321.91	72.36
322.124	45.74
322.337	19.11
322.55	105.13
322.763	113.32
322.977	35.5
323.19	86.7
323.403	86.7
323.617	43.69
323.83	43.69
324.043	35.5
324.256	68.27
324.469	31.4
324.683	-9.56
324.896	-9.56
325.109	10.92
325.322	41.64
325.535	88.75
325.748	88.75
325.962	-1.37
326.175	115.37
326.388	146.09
326.601	33.45
326.814	41.64
327.027	94.89
327.24	121.51
327.453	-7.51
327.666	-34.13
327.879	64.17
328.092	92.84
328.305	45.74
328.518	64.17
328.731	103.08
328.944	121.51
329.157	82.6
329.37	21.16
329.583	37.55
329.796	115.37
330.009	-7.51
330.222	68.27
330.435	111.27
330.648	119.46
330.861	111.27
331.073	39.59
331.286	64.17
331.499	76.46
331.712	43.69
331.925	72.36
332.138	86.7
332.35	170.66
332.563	27.31
332.776	82.6
332.989	-30.04
333.202	121.51
333.414	72.36
333.627	-13.65
333.84	109.23
334.053	25.26
334.265	29.35
334.478	121.51
334.691	144.04
334.903	84.65
335.116	-19.8
335.329	43.69
335.541	148.14
335.754	78.51
335.966	12.97
336.179	47.79
336.392	62.12
336.604	96.94
336.817	35.5
337.029	-11.61
337.242	-13.65
337.454	72.36
337.667	21.16
337.88	125.61
338.092	86.7
338.305	27.31
338.517	41.64
338.729	90.79
338.942	53.93
339.154	39.59
339.367	33.45
339.579	125.61
339.792	55.98
340.004	101.03
340.217	58.03
340.429	66.22
340.641	-48.47
340.854	53.93
341.066	88.75
341.278	172.71
341.491	215.72
341.703	141.99
341.915	27.31
342.128	133.8
342.34	70.31
342.552	21.16
342.764	60.07
342.977	53.93
343.189	31.4
343.401	103.08
343.613	15.02
343.826	-11.61
344.038	-19.8
344.25	29.35
344.462	72.36
344.674	33.45
344.886	60.07
345.099	12.97
345.311	125.61
345.523	45.74
345.735	45.74
345.947	68.27
346.159	101.03
346.371	37.55
346.583	31.4
346.795	174.76
347.007	19.11
347.219	70.31
347.431	25.26
347.643	101.03
347.855	25.26
348.067	90.79
348.279	-17.75
348.491	37.55
348.703	98.99
348.915	111.27
349.127	35.5
349.339	35.5
349.551	80.55
349.763	10.92
349.975	12.97
350.187	68.27
350.399	154.28
350.61	86.7
350.822	84.65
351.034	64.17
351.246	105.13
351.458	43.69
351.669	72.36
351.881	92.84
352.093	168.62
352.305	60.07
352.517	70.31
352.728	119.46
352.94	88.75
353.152	137.9
353.363	33.45
353.575	111.27
353.787	129.7
353.999	12.97
354.21	127.66
354.422	84.65
354.633	37.55
354.845	160.42
355.057	33.45
355.268	84.65
355.48	76.46
355.692	64.17
355.903	232.1
356.115	2.73
356.326	-38.23
356.538	96.94
356.749	150.18
356.961	152.23
357.172	23.21
357.384	10.92
357.595	148.14
357.807	53.93
358.018	45.74
358.23	86.7
358.441	166.57
358.653	76.46
358.864	43.69
359.075	109.23
359.287	39.59
359.498	78.51
359.709	47.79
359.921	0.68
360.132	103.08
360.344	29.35
360.555	25.26
360.766	101.03
360.977	15.02
361.189	119.46
361.4	70.31
361.611	53.93
361.823	92.84
362.034	70.31
362.245	29.35
362.456	84.65
362.667	45.74
362.879	43.69
363.09	37.55
363.301	88.75
363.512	37.55
363.723	62.12
363.935	86.7
364.146	53.93
364.357	60.07
364.568	94.89
364.779	-5.46
364.99	55.98
365.201	-46.42
365.412	150.18
365.623	-50.52
365.834	78.51
366.045	152.23
366.256	109.23
366.467	117.42
366.678	4.78
366.889	88.75
367.1	23.21
367.311	127.66
367.522	4.78
367.733	31.4
367.944	98.99
368.155	51.88
368.366	74.41
368.577	101.03
368.788	53.93
368.999	-17.75
369.209	131.75
369.42	230.06
369.631	82.6
369.842	-5.46
370.053	43.69
370.264	141.99
370.474	47.79
370.685	121.51
370.896	60.07
371.107	141.99
371.317	96.94
371.528	96.94
371.739	133.8
371.95	60.07
372.16	55.98
372.371	-15.7
372.582	43.69
372.792	117.42
373.003	39.59
373.214	51.88
373.424	152.23
373.635	27.31
373.846	119.46
374.056	133.8
374.267	-1.37
374.477	92.84
374.688	15.02
374.898	131.75
375.109	58.03
375.319	76.46
375.53	146.09
375.74	88.75
375.951	84.65
376.161	119.46
376.372	86.7
376.582	70.31
376.793	35.5
377.003	111.27
377.214	55.98
377.424	60.07
377.635	68.27
377.845	60.07
378.055	101.03
378.266	94.89
378.476	64.17
378.686	84.65
378.897	55.98
379.107	55.98
379.317	152.23
379.528	51.88
379.738	127.66
379.948	33.45
380.158	60.07
380.369	107.18
380.579	103.08
380.789	-3.41
380.999	166.57
381.21	105.13
381.42	119.46
381.63	68.27
381.84	150.18
382.05	70.31
382.261	115.37
382.471	64.17
382.681	37.55
382.891	174.76
383.101	12.97
383.311	78.51
383.521	51.88
383.731	76.46
383.941	109.23
384.151	117.42
384.361	47.79
384.571	43.69
384.781	90.79
384.991	135.85
385.201	92.84
385.411	66.22
385.621	103.08
385.831	39.59
386.041	64.17
386.251	37.55
386.461	152.23
386.671	90.79
386.881	62.12
387.091	58.03
387.301	119.46
387.511	76.46
387.72	103.08
387.93	113.32
388.14	12.97
388.35	78.51
388.56	84.65
388.769	101.03
388.979	78.51
389.189	19.11
389.399	68.27
389.609	78.51
389.818	137.9
390.028	160.42
390.238	94.89
390.447	43.69
390.657	70.31
390.867	94.89
391.076	53.93
391.286	107.18
391.496	74.41
391.705	86.7
391.915	139.94
392.125	107.18
392.334	53.93
392.544	105.13
392.753	-9.56
392.963	35.5
393.172	76.46
393.382	101.03
393.591	146.09
393.801	78.51
394.01	105.13
394.22	139.94
394.429	66.22
394.639	90.79
394.848	92.84
395.058	17.07
395.267	92.84
395.477	84.65
395.686	12.97
395.895	168.62
396.105	141.99
396.314	103.08
396.524	127.66
396.733	74.41
396.942	174.76
397.152	131.75
397.361	164.52
397.57	37.55
397.78	131.75
397.989	139.94
398.198	176.81
398.407	96.94
398.617	86.7
398.826	129.7
399.035	121.51
399.244	98.99
399.453	90.79
399.663	92.84
399.872	125.61
400.081	84.65
400.29	211.62
400.499	172.71
400.708	125.61
400.917	31.4
401.127	174.76
401.336	76.46
401.545	121.51
401.754	162.47
401.963	182.95
402.172	150.18
402.381	146.09
402.59	154.28
402.799	133.8
403.008	25.26
403.217	127.66
403.426	168.62
403.635	64.17
403.844	109.23
404.053	60.07
404.262	101.03
404.471	176.81
404.68	86.7
404.888	162.47
405.097	156.33
405.306	176.81
405.515	187.05
405.724	131.75
405.933	221.86
406.142	121.51
406.35	242.34
406.559	232.1
406.768	199.34
406.977	260.77
407.185	201.38
407.394	213.67
407.603	148.14
407.812	225.96
408.02	256.68
408.229	178.86
408.438	174.76
408.646	215.72
408.855	293.54
409.064	307.88
409.272	207.53
409.481	252.58
409.69	203.43
409.898	240.3
410.107	328.36
410.315	402.08
410.524	279.21
410.733	359.08
410.941	322.21
411.15	391.84
411.358	389.8
411.567	383.65
411.775	381.6
411.984	381.6
412.192	412.32
412.401	402.08
412.609	395.94
412.818	514.72
413.026	461.48
413.234	461.48
413.443	453.28
413.651	484
413.86	449.19
414.068	606.88
414.276	570.02
414.485	586.4
414.693	627.36
414.901	785.05
415.11	647.84
415.318	615.07
415.526	668.32
415.734	629.41
415.943	694.94
416.151	789.15
416.359	676.51
416.567	801.44
416.776	780.96
416.984	893.6
417.192	934.56
417.4	789.15
417.608	854.69
417.817	836.25
418.025	938.65
418.233	1077.91
418.441	971.42
418.649	1012.38
418.857	1096.35
419.065	1108.63
419.273	1141.4
419.481	1061.53
419.689	1241.75
419.897	1305.24
420.105	1391.25
420.313	1342.1
420.521	1426.07
420.729	1385.11
420.937	1383.06
421.145	1512.08
421.353	1655.44
421.561	1608.34
421.769	1749.65
421.977	1731.22
422.185	1802.9
422.393	1817.23
422.601	1995.4
422.809	1981.07
423.017	2056.84
423.224	1974.92
423.432	2177.67
423.64	2204.3
423.848	2273.93
424.056	2278.02
424.263	2460.29
424.471	2435.72
424.679	2419.33
424.887	2540.16
425.094	2798.21
425.302	2822.78
425.51	2808.45
425.718	3058.3
425.925	3000.96
426.133	2970.24
426.341	3320.44
426.548	3203.71
426.756	3338.87
426.964	3385.98
427.171	3474.04
427.379	3639.92
427.586	3775.09
427.794	3891.82
428.001	4043.37
428.209	4176.49
428.417	4188.78
428.624	4510.31
428.832	4334.18
429.039	4346.47
429.247	4444.77
429.454	4663.91
429.662	5223
429.869	4721.25
430.076	5067.36
430.284	5147.23
430.491	5343.83
430.699	5413.46
430.906	5421.66
431.114	5751.38
431.321	5786.19
431.528	5974.61
431.736	6376.01
431.943	6492.74
432.15	6386.25
432.358	6365.77
432.565	6847.04
432.772	6681.16
432.979	7207.48
433.187	7295.55
433.394	7408.19
433.601	7655.99
433.808	8069.68
434.016	7875.12
434.223	8182.32
434.43	8593.96
434.637	8475.18
434.844	8999.46
435.052	9153.06
435.259	9085.47
435.466	9382.43
435.673	9097.76
435.88	9689.62
436.087	10363.4
436.294	10275.34
436.501	10011.15
436.708	10371.6
436.915	10633.74
437.122	10955.27
437.329	10992.13
437.537	11262.46
437.743	11397.63
437.95	11577.85
438.157	11874.81
438.364	12530.16
438.571	12419.57
438.778	12505.58
438.985	13664.73
439.192	12954.08
439.399	13611.48
439.606	13384.16
439.813	13760.98
440.02	14848.46
440.227	14629.32
440.433	14711.24
440.64	15071.68
440.847	14670.28
441.054	15225.28
441.261	16228.79
441.467	15944.12
441.674	16189.88
441.881	16751.02
442.088	16951.72
442.294	16732.59
442.501	17232.29
442.708	17457.57
442.914	18342.29
443.121	18993.54
443.328	18258.32
443.534	19759.49
443.741	19288.45
443.948	18835.85
444.154	20357.49
444.361	20148.6
444.568	20388.21
444.774	20502.9
444.981	20742.51
445.187	21227.88
445.394	22204.76
445.6	21817.69
445.807	24144.19
446.013	23089.48
446.22	23370.05
446.426	24357.17
446.633	24697.14
446.839	25284.9
447.046	24480.05
447.252	25723.17
447.459	25844
447.665	25708.83
447.871	26833.17
448.078	28084.48
448.284	26814.74
448.491	27365.64
448.697	28461.3
448.903	29237.48
449.11	29016.3
449.316	28619
449.522	29010.16
449.728	29765.86
449.935	29964.51
450.141	30226.65
450.347	30918.87
450.553	29935.84
450.76	30499.03
450.966	31350.99
451.172	30931.15
451.378	31748.29
451.584	31299.79
451.791	31983.81
451.997	32133.31
452.203	32618.68
452.409	32676.02
452.615	32270.53
452.821	30931.15
453.027	31146.19
453.233	32503.99
453.44	31332.56
453.646	31770.82
453.852	32176.32
454.058	32479.42
454.264	31111.38
454.47	32520.38
454.676	31156.43
454.882	32495.8
455.088	29429.99
455.294	29911.27
455.5	30501.08
455.705	31076.56
455.911	29944.03
456.117	28934.39
456.323	28420.35
456.529	27142.41
456.735	28719.35
456.941	27701.51
457.147	27476.23
457.352	26323.22
457.558	25964.83
457.764	25952.54
457.97	25776.42
458.176	25047.34
458.381	25461.03
458.587	24002.88
458.793	24127.8
458.999	22739.28
459.204	24387.89
459.41	23755.07
459.616	22284.63
459.821	22184.28
460.027	21899.61
460.233	21637.47
460.438	20701.55
460.644	20867.44
460.85	19790.2
461.055	19595.65
461.261	19380.61
461.466	18270.61
461.672	17682.84
461.878	18639.25
462.083	17351.07
462.289	17181.09
462.494	16789.93
462.7	16210.36
462.905	15866.3
463.111	16361.91
463.316	16343.47
463.522	15960.5
463.727	15968.69
463.932	16093.62
464.138	15786.43
464.343	15743.42
464.549	15415.74
464.754	15827.39
464.959	15544.77
465.165	15657.4
465.37	15061.44
465.575	14690.76
465.781	14963.14
465.986	15301.06
466.191	14721.48
466.397	14191.06
466.602	13765.08
466.807	14367.18
467.012	14174.67
467.218	14412.24
467.423	14143.95
467.628	14184.91
467.833	14453.2
468.038	14244.31
468.244	13900.25
468.449	14225.87
468.654	13758.94
468.859	13773.27
469.064	13515.23
469.269	13318.62
469.474	13494.75
469.679	13513.18
469.885	13287.9
470.09	13285.86
470.295	13050.34
470.5	12919.27
470.705	13040.1
470.91	12753.38
471.115	12847.59
471.32	13011.43
471.525	12673.51
471.73	12411.37
471.935	12196.34
472.139	11983.35
472.344	12038.64
472.549	12089.84
472.754	11954.68
472.959	11635.19
473.164	11321.85
473.369	11227.65
473.574	11493.88
473.778	11432.44
473.983	11319.81
474.188	11188.74
474.393	10963.46
474.598	10836.49
474.802	10816.01
475.007	10660.36
475.212	10701.32
475.417	10394.12
475.621	10236.43
475.826	10293.77
476.031	10123.79
476.235	10121.74
476.44	10070.55
476.645	9777.69
476.849	9753.11
477.054	9822.74
477.259	9656.86
477.463	9701.91
477.668	9462.3
477.872	9429.53
478.077	9390.62
478.282	9110.05
478.486	9148.96
478.691	8921.63
478.895	9062.94
479.1	8892.96
479.304	9042.46
479.509	8567.34
479.713	8995.36
479.918	8729.13
480.122	8417.83
480.326	8634.92
480.531	8520.23
480.735	8600.1
480.94	8544.81
481.144	8688.17
481.348	8120.88
481.553	8292.91
481.757	8135.21
481.961	8481.32
482.166	8405.55
482.37	8290.86
482.574	8213.04
482.778	8122.93
482.983	8280.62
483.187	8227.37
483.391	8428.07
483.595	8114.73
483.8	8182.32
484.004	8305.2
484.208	8239.66
484.412	8309.29
484.616	8280.62
484.821	8280.62
485.025	8206.89
485.229	8137.26
485.433	8217.13
485.637	8399.4
485.841	8145.45
486.045	8122.93
486.249	8272.43
486.453	8034.86
486.657	8194.61
486.861	8448.55
487.065	8051.25
487.269	8182.32
487.473	8084.02
487.677	8450.6
487.881	8272.43
488.085	8122.93
488.289	8294.96
488.493	8282.67
488.697	8350.25
488.901	8317.48
489.105	8213.04
489.309	8249.9
489.512	8313.39
489.716	8417.83
489.92	8436.27
490.124	8346.16
490.328	8591.91
490.531	8385.07
490.735	8499.75
490.939	8512.04
491.143	8301.1
491.346	8466.99
491.55	8628.77
491.754	8538.66
491.958	8569.38
492.161	8497.7
492.365	8718.89
492.569	8587.82
492.772	8876.58
492.976	8794.66
493.18	8829.48
493.383	8876.58
493.587	9060.9
493.79	8917.54
493.994	8780.32
494.197	9021.99
494.401	8983.07
494.605	9151.01
494.808	9263.65
495.012	9310.75
495.215	9329.18
495.419	9349.66
495.622	9447.96
495.825	9540.12
496.029	9505.31
496.232	9591.32
496.436	9839.12
496.639	9757.21
496.843	9962
497.046	10058.26
497.249	10367.5
497.453	10312.21
497.656	10254.86
497.859	10166.8
498.063	10496.52
498.266	10672.65
498.469	10543.63
498.673	10799.62
498.876	10889.73
499.079	10834.44
499.282	11115.01
499.485	11139.58
499.689	11198.98
499.892	11301.37
500.095	11497.98
500.298	11866.61
500.501	11661.82
500.705	11868.66
500.908	12227.06
501.111	12093.94
501.314	12157.43
501.517	12399.09
501.72	12485.1
501.923	12624.36
502.126	12757.48
502.329	13015.52
502.532	12986.85
502.735	13181.41
502.938	13259.23
503.141	13410.78
503.344	13664.73
503.547	13513.18
503.75	13879.77
503.953	14299.6
504.156	14303.7
504.359	14219.73
504.562	14520.78
504.765	14791.11
504.968	15045.06
505.17	15118.79
505.373	15043.01
505.576	15178.18
505.779	15299.01
505.982	15516.09
506.185	15894.97
506.387	15851.96
506.59	15815.1
506.793	16239.03
506.996	16320.95
507.198	16642.48
507.401	16581.04
507.604	16810.41
507.807	17078.69
508.009	17353.12
508.212	17435.04
508.415	17344.93
508.617	17772.96
508.82	18039.19
509.022	18090.39
509.225	18381.2
509.428	18655.63
509.63	18643.34
509.833	18975.11
510.035	19399.04
510.238	19126.66
510.44	19243.4
510.643	19483.01
510.845	19755.39
511.048	19571.07
511.25	19802.49
511.453	20081.02
511.655	20685.17
511.858	20681.07
512.06	20724.08
512.262	21252.45
512.465	21057.9
512.667	21324.13
512.87	21481.83
513.072	21610.85
513.274	22276.44
513.477	22217.05
513.679	22671.7
513.881	22946.12
514.084	23097.67
514.286	23200.07
514.488	23179.59
514.69	23710.02
514.893	24006.97
515.095	24037.69
515.297	24172.86
515.499	24467.77
515.701	24330.55
515.904	24815.92
516.106	25133.36
516.308	25229.61
516.51	25604.39
516.712	25368.87
516.914	25870.62
517.116	26081.56
517.318	26493.21
517.52	26396.95
517.722	26421.53
517.925	26761.49
518.127	27226.38
518.329	27511.05
518.531	27502.85
518.733	28029.18
518.935	27779.33
519.136	28156.16
519.338	28543.22
519.54	28539.13
519.742	28846.32
519.944	29180.14
520.146	29610.21
520.348	29518.06
520.55	29743.33
520.752	29470.95
520.954	30337.24
521.155	30251.23
521.357	30873.81
521.559	30810.32
521.761	31426.76
521.963	31484.11
522.164	31504.59
522.366	31672.52
522.568	31805.64
522.77	32401.6
522.971	32821.43
523.173	32274.62
523.375	32772.28
523.576	32901.3
523.778	32868.53
523.98	33292.46
524.181	33595.56
524.383	33188.02
524.584	33798.31
524.786	33886.37
524.988	33882.28
525.189	34412.7
525.391	34242.72
525.592	34554.01
525.794	35006.61
525.995	34840.73
526.197	35397.77
526.398	35250.32
526.6	35424.4
526.801	35156.11
527.003	35567.76
527.204	35537.04
527.406	36286.59
527.607	36214.91
527.808	36612.22
528.01	35729.55
528.211	36133
528.412	36591.74
528.614	36960.37
528.815	36532.35
529.016	37283.95
529.218	36919.42
529.419	37073.01
529.62	37279.86
529.822	37048.44
530.023	37326.96
530.224	37376.11
530.425	37238.9
530.626	36782.2
530.828	37068.92
531.029	37922.92
531.23	37537.9
531.431	37480.56
531.632	37695.6
531.833	37980.26
532.035	38051.94
532.236	37869.67
532.437	38262.88
532.638	38228.07
532.839	38133.86
533.04	38516.83
533.241	37664.88
533.442	38383.71
533.643	38789.21
533.844	37955.69
534.045	38629.47
534.246	37804.14
534.447	38928.47
534.648	38430.82
534.849	38389.86
535.05	38322.27
535.251	38551.65
535.451	38133.86
535.652	38539.36
535.853	38551.65
536.054	38314.08
536.255	38756.44
536.456	37939.3
536.657	38877.27
536.857	38525.02
537.058	38166.63
537.259	38848.6
537.46	38467.68
537.66	38672.48
537.861	38518.88
538.062	38484.06
538.263	38701.15
538.463	37974.12
538.664	38127.72
538.865	38776.92
539.065	38821.98
539.266	38066.28
539.466	38639.71
539.667	37945.45
539.868	38635.61
540.068	38570.08
540.269	38864.99
540.469	38289.51
540.67	38479.97
540.87	38234.21
541.071	38383.71
541.271	38778.97
541.472	38707.29
541.672	38228.07
541.873	38439.01
542.073	38049.89
542.274	38826.07
542.474	38787.16
542.675	37986.41
542.875	38506.59
543.075	38492.26
543.276	38002.79
543.476	38608.99
543.676	38324.32
543.877	38275.17
544.077	38328.42
544.277	38352.99
544.478	38344.8
544.678	38461.54
544.878	38324.32
545.078	38271.07
545.279	37953.64
545.479	38127.72
545.679	38400.1
545.879	37945.45
546.079	38094.95
546.28	38023.27
546.48	38113.38
546.68	38252.64
546.88	38156.39
547.08	37771.37
547.28	38053.99
547.48	37845.1
547.68	38111.33
547.88	37978.22
548.081	38539.36
548.281	38140
548.481	38146.15
548.681	38688.86
548.881	38023.27
549.081	38131.81
549.28	38010.98
549.48	37771.37
549.68	37992.55
549.88	38142.05
550.08	37791.85
550.28	37564.53
550.48	37742.7
550.68	38113.38
550.88	37347.44
551.08	37865.58
551.279	37847.15
551.479	37529.71
551.679	37910.63
551.879	37849.19
552.079	37834.86
552.278	37478.51
552.478	37445.74
552.678	37826.67
552.878	37619.82
553.077	37546.09
553.277	37498.99
553.477	38279.27
553.676	37527.66
553.876	37636.2
554.076	37488.75
554.275	37269.62
554.475	37294.19
554.674	37326.96
554.874	37890.15
555.074	37423.22
555.273	37550.19
555.473	37978.22
555.672	37120.12
555.872	37423.22
556.071	36978.81
556.271	37865.58
556.47	36882.55
556.67	37038.2
556.869	37068.92
557.068	37038.2
557.268	36933.75
557.467	37052.53
557.667	37005.43
557.866	36958.33
558.065	36737.15
558.265	36679.8
558.464	36495.49
558.663	36706.43
558.863	36259.97
559.062	37066.87
559.261	36407.42
559.461	36720.76
559.66	36169.86
559.859	36227.2
560.058	35948.68
560.258	36094.08
560.457	35776.65
560.656	36204.67
560.855	35526.8
561.054	36518.01
561.253	35811.46
561.453	36149.38
561.652	36110.47
561.851	36020.36
562.05	35731.59
562.249	35373.2
562.448	36419.71
562.647	35502.22
562.846	35434.64
563.045	35647.63
563.244	35408.01
563.443	35780.74
563.642	35070.1
563.841	35506.32
564.04	34783.38
564.239	35440.78
564.438	35094.68
564.637	34910.36
564.836	34859.16
565.035	34578.59
565.234	34590.87
565.432	34767
565.631	34502.81
565.83	34693.27
566.029	34156.71
566.228	34424.99
566.427	34031.78
566.625	33986.72
566.824	34017.44
567.023	34062.5
567.222	33378.48
567.42	34246.82
567.619	33812.65
567.818	33749.16
568.016	33452.2
568.215	34011.3
568.414	33919.14
568.612	33759.4
568.811	33591.47
569.01	33642.67
569.208	32942.26
569.407	33331.37
569.605	33034.42
569.804	32981.17
570.002	32405.69
570.201	33132.72
570.4	32622.78
570.598	32262.33
570.797	32803
570.995	32305.34
571.193	32327.87
571.392	32430.27
571.59	32153.79
571.789	32217.28
571.987	32082.11
572.186	31987.91
572.384	31549.64
572.582	32137.41
572.781	32039.11
572.979	31672.52
573.177	31525.07
573.376	31854.79
573.574	31086.8
573.772	31766.73
573.971	31109.33
574.169	31389.9
574.367	30939.35
574.565	31297.74
574.763	30996.69
574.962	30974.16
575.16	30284
575.358	30922.96
575.556	30458.07
575.754	30740.69
575.952	30423.26
576.151	30888.15
576.349	30064.86
576.547	30324.96
576.745	30075.1
576.943	30089.44
577.141	30048.48
577.339	30384.35
577.537	30056.67
577.735	29798.63
577.933	29700.33
578.131	29827.3
578.329	29257.96
578.527	29415.66
578.725	29346.03
578.923	29483.24
579.121	29516.01
579.319	29073.65
579.516	29217
579.714	29051.12
579.912	29528.3
580.11	28737.78
580.308	29100.27
580.506	29081.84
580.704	28475.64
580.901	28322.04
581.099	28952.82
581.297	28479.74
581.495	28496.12
581.692	28418.3
581.89	28252.41
582.088	28619
582.285	28297.47
582.483	28172.54
582.681	27828.48
582.878	27805.95
583.076	27934.98
583.274	28025.09
583.471	28051.71
583.669	27783.43
583.866	27552.01
584.064	27543.81
584.262	27277.58
584.459	27664.64
584.657	27017.49
584.854	27414.79
585.052	26827.03
585.249	27023.63
585.447	26736.91
585.644	26511.64
585.841	26738.96
586.039	27050.25
586.236	26779.92
586.434	26638.61
586.631	26831.12
586.828	26628.37
587.026	26607.89
587.223	26499.35
587.42	26476.82
587.618	26003.74
587.815	25966.88
588.012	25743.65
588.21	25581.86
588.407	26167.58
588.604	26183.96
588.801	25549.09
588.999	25559.33
589.196	25727.27
589.393	25594.15
589.59	25256.23
589.787	25381.16
589.984	25141.55
590.182	25225.51
590.379	25123.12
590.576	25104.68
590.773	25028.91
590.97	24799.54
591.167	25018.67
591.364	24709.43
591.561	24944.94
591.758	24391.99
591.955	24690.99
592.152	24557.88
592.349	24279.35
592.546	24430.9
592.743	24424.76
592.94	24222.01
593.137	24414.52
593.334	24320.31
593.531	23664.96
593.727	24123.71
593.924	23896.38
594.121	24011.07
594.318	24234.3
594.515	23517.51
594.712	23478.6
594.908	23656.77
595.105	23333.19
595.302	23265.61
595.499	23396.68
595.696	23337.29
595.892	23322.95
596.089	23064.91
596.286	23314.76
596.482	23134.54
596.679	22765.9
596.876	23001.42
597.072	22696.27
597.269	22780.24
597.466	22677.84
597.662	22514
597.859	22770
598.055	22661.46
598.252	22321.49
598.448	22186.33
598.645	22427.99
598.841	22057.31
599.038	22341.97
599.234	22229.34
599.431	22116.7
599.627	21959
599.824	21897.56
600.02	21737.82
600.217	21719.39
600.413	21703.01
600.609	21457.25
600.806	21797.21
601.002	21377.38
601.198	21201.26
601.395	21281.13
601.591	21293.41
601.787	21352.8
601.984	21133.67
602.18	21201.26
602.376	20986.22
602.572	20781.42
602.769	20732.27
602.965	20642.16
603.161	20887.92
603.357	20611.44
603.553	20695.41
603.75	20683.12
603.946	20367.73
604.142	20693.36
604.338	20253.05
604.534	20500.85
604.73	20070.78
604.926	19911.03
605.122	20310.39
605.318	20064.63
605.514	19849.6
605.71	20160.89
605.906	19943.8
606.102	20130.17
606.298	19605.89
606.494	19853.69
606.69	19845.5
606.886	19589.5
607.082	19442.05
607.278	19714.43
607.474	19202.44
607.67	19423.62
607.866	19327.36
608.062	19751.29
608.257	19382.66
608.453	19331.46
608.649	19216.77
608.845	19097.99
609.041	19249.54
609.236	19206.53
609.432	19233.16
609.628	19038.6
609.824	19024.26
610.019	19245.44
610.215	18835.85
610.411	19009.93
610.606	18872.71
610.802	18852.24
610.998	18579.86
611.193	18690.45
611.389	18510.22
611.584	18801.04
611.78	18524.56
611.976	18782.6
612.171	18618.77
612.367	18545.04
612.562	18592.14
612.758	18272.66
612.953	18319.76
613.149	18332.05
613.344	18315.67
613.539	18303.38
613.735	18399.63
613.93	18217.36
614.126	18237.84
614.321	18026.9
614.517	18170.26
614.712	17942.94
614.907	17910.17
615.103	18200.98
615.298	18192.79
615.493	18000.28
615.688	17840.54
615.884	18119.06
616.079	17578.4
616.274	17660.32
616.47	17619.36
616.665	17670.56
616.86	17650.08
617.055	17787.29
617.25	17525.15
617.445	17539.49
617.641	17250.72
617.836	17381.79
618.031	17131.94
618.226	17400.23
618.421	17254.82
618.616	17258.92
618.811	17144.23
619.006	17154.47
619.201	16935.34
619.396	16959.91
619.591	16804.27
619.786	17138.09
619.981	16742.83
620.176	16820.65
620.371	16542.13
620.566	16714.16
620.761	16443.82
620.956	16601.52
621.151	16339.38
621.346	16210.36
621.541	16306.61
621.735	16382.38
621.93	15964.6
622.125	16124.34
622.32	15811
622.515	15839.67
622.709	15872.44
622.904	15589.82
623.099	15628.73
623.294	15692.22
623.488	15403.46
623.683	15720.89
623.878	15335.87
624.072	15208.9
624.267	15415.74
624.462	14942.66
624.656	14991.81
624.851	14801.35
625.046	14733.77
625.24	14680.52
625.435	14328.27
625.629	14813.64
625.824	14537.16
626.018	14553.55
626.213	14182.87
626.407	14268.88
626.602	14086.61
626.796	14064.08
626.991	14264.78
627.185	14051.8
627.38	13953.49
627.574	13847
627.768	13691.35
627.963	13619.67
628.157	13668.83
628.352	13650.39
628.546	13357.53
628.74	13412.83
628.935	13404.64
629.129	13396.45
629.323	13289.95
629.517	13253.09
629.712	13099.49
629.906	13081.06
630.1	12945.89
630.294	13218.27
630.489	12716.52
630.683	12722.66
630.877	12806.63
631.071	12640.75
631.265	12644.84
631.459	12470.76
631.653	12229.1
631.848	12374.51
632.042	12394.99
632.236	12251.63
632.43	12268.02
632.624	12186.1
632.818	12161.52
633.012	12018.16
633.206	12020.21
633.4	11807.22
633.594	11756.02
633.788	11962.87
633.982	11905.52
634.176	11647.48
634.369	11512.32
634.563	11565.56
634.757	11506.17
634.951	11467.26
635.145	11241.98
635.339	11252.22
635.533	11205.12
635.726	11213.31
635.92	11153.92
636.114	11180.54
636.308	10865.16
636.501	10856.97
636.695	11002.37
636.889	10818.05
637.083	10727.94
637.276	10539.53
637.47	10555.91
637.664	10494.47
637.857	10543.63
638.051	10617.35
638.244	10539.53
638.438	10283.53
638.632	10441.23
638.825	10412.56
639.019	10058.26
639.212	10050.07
639.406	10281.49
639.599	10035.73
639.793	10013.2
639.986	9875.99
640.18	9773.59
640.373	10084.88
640.567	9953.81
640.76	9720.34
640.954	9837.08
641.147	9800.21
641.34	9400.86
641.534	9671.19
641.727	9546.26
641.92	9519.64
642.114	9468.44
642.307	9234.97
642.5	9339.42
642.694	9200.16
642.887	9204.25
643.08	9089.57
643.273	9294.36
643.467	9159.2
643.66	9013.79
643.853	8911.39
644.046	8823.33
644.239	8892.96
644.432	8778.28
644.626	8739.37
644.819	8567.34
645.012	8796.71
645.205	8686.12
645.398	8520.23
645.591	8591.91
645.784	8358.44
645.977	8286.76
646.17	8514.09
646.363	8360.49
646.556	8188.46
646.749	8190.51
646.942	8387.11
647.135	8292.91
647.328	8247.85
647.521	8262.19
647.714	8194.61
647.907	8120.88
648.099	7897.65
648.292	8112.69
648.485	7924.27
648.678	7887.41
648.871	7975.47
649.064	7770.68
649.256	7821.88
649.449	7539.26
649.642	7641.65
649.835	7619.13
650.027	7733.81
650.22	7653.94
650.413	7580.22
650.605	7504.44
650.798	7428.67
650.991	7522.87
651.183	7225.92
651.376	7305.79
651.568	7223.87
651.761	7219.77
651.954	7119.42
652.146	7209.53
652.339	7221.82
652.531	7041.6
652.724	7092.8
652.916	6922.82
653.109	6842.95
653.301	6883.91
653.494	7182.91
653.686	6883.91
653.879	7033.41
654.071	6810.18
654.263	6752.84
654.456	6670.92
654.648	6724.16
654.84	6730.31
655.033	6550.09
655.225	6865.47
655.417	6474.31
655.61	6586.95
655.802	6425.16
655.994	6572.61
656.186	6517.32
656.379	6435.4
656.571	6597.19
656.763	6416.97
656.955	6312.52
657.148	6351.43
657.34	6466.12
657.532	6279.75
657.724	6320.71
657.916	6134.35
658.108	6152.78
658.3	6089.29
658.492	6283.85
658.684	6066.77
658.876	6130.25
659.068	5917.26
659.26	5937.74
659.452	5958.22
659.644	6068.81
659.836	5823.06
660.028	6097.49
660.22	5845.59
660.412	5925.46
660.604	5759.57
660.796	5804.63
660.988	5804.63
661.18	5665.36
661.372	5679.7
661.563	5591.64
661.755	5728.85
661.947	5542.49
662.139	5575.25
662.331	5503.57
662.522	5479
662.714	5493.33
662.906	5462.62
663.097	5558.87
663.289	5288.54
663.481	5323.35
663.673	5358.17
663.864	5157.47
664.056	5337.69
664.247	5352.02
664.439	5278.3
664.631	5282.39
664.822	5212.76
665.014	5130.84
665.205	5247.58
665.397	5182.04
665.588	5290.59
665.78	5112.41
665.971	5083.74
666.163	5089.89
666.354	5159.52
666.546	5130.84
666.737	5005.92
666.929	5040.73
667.12	5034.59
667.311	4926.05
667.503	4950.62
667.694	5007.97
667.885	4866.66
668.077	5010.01
668.268	5010.01
668.459	4905.57
668.651	4848.22
668.842	4938.34
669.033	4835.94
669.224	4713.06
669.416	4778.59
669.607	4799.07
669.798	4696.68
669.989	4754.02
670.18	4692.58
670.371	4844.13
670.563	4819.55
670.754	4715.11
670.945	4598.37
671.136	4721.25
671.327	4663.91
671.518	4665.96
671.709	4575.84
671.9	4708.96
672.091	4577.89
672.282	4747.87
672.473	4790.88
672.664	4657.76
672.855	4440.68
673.046	4717.15
673.237	4565.61
673.428	4538.98
673.619	4512.36
673.809	4586.08
674	4592.23
674.191	4356.71
674.382	4504.17
674.573	4403.82
674.764	4364.9
674.954	4442.73
675.145	4352.62
675.336	4364.9
675.527	4524.65
675.717	4538.98
675.908	4444.77
676.099	4538.98
676.289	4440.68
676.48	4520.55
676.671	4223.59
676.861	4541.03
677.052	4471.4
677.243	4389.48
677.433	4399.72
677.624	4194.92
677.814	4354.66
678.005	4387.43
678.195	4366.95
678.386	4440.68
678.576	4295.27
678.767	4332.14
678.957	4297.32
679.148	4381.29
679.338	4258.41
679.529	4440.68
679.719	4282.99
679.909	4307.56
680.1	4330.09
680.29	4336.23
680.481	4229.74
680.671	4203.11
680.861	4328.04
681.052	4258.41
681.242	4274.79
681.432	4344.42
681.622	4295.27
681.813	4209.26
682.003	4321.9
682.193	4272.75
682.383	4258.41
682.573	4272.75
682.764	4184.68
682.954	4282.99
683.144	4297.32
683.334	4246.12
683.524	4180.59
683.714	4260.46
683.904	4287.08
684.094	4280.94
684.284	4272.75
684.474	4282.99
684.664	4262.51
684.854	4209.26
685.044	4156.01
685.234	4237.93
685.424	4229.74
685.614	4110.96
685.804	4211.31
685.994	4084.33
686.184	4108.91
686.374	4029.04
686.564	4143.72
686.753	4137.58
686.943	4074.09
687.133	3983.98
687.323	3934.83
687.513	4084.33
687.702	4016.75
687.892	3951.21
688.082	3959.41
688.272	4012.65
688.461	3914.35
688.651	3936.88
688.841	3877.49
689.03	3891.82
689.22	3820.14
689.41	3932.78
689.599	3799.66
689.789	3773.04
689.979	3910.26
690.168	3779.19
690.358	3770.99
690.547	3664.5
690.737	3781.23
690.926	3719.79
691.116	3705.46
691.305	3582.58
691.495	3721.84
691.684	3541.62
691.874	3539.57
692.063	3523.19
692.252	3480.18
692.442	3594.87
692.631	3476.09
692.82	3564.15
693.01	3543.67
693.199	3598.96
693.388	3453.56
693.578	3471.99
693.767	3486.33
693.956	3455.61
694.146	3431.03
694.335	3498.61
694.524	3461.75
694.713	3480.18
694.902	3279.48
695.092	3553.91
695.281	3394.17
695.47	3406.45
695.659	3340.92
695.848	3242.62
696.037	3179.13
696.226	3273.34
696.415	3179.13
696.604	3299.96
696.793	3234.43
696.982	3332.73
697.171	3246.71
697.36	3340.92
697.549	3248.76
697.738	3142.27
697.927	3240.57
698.116	3152.51
698.305	3224.19
698.494	3230.33
698.683	3060.35
698.872	3334.78
699.061	3281.53
699.25	3215.99
699.438	3232.38
699.627	3197.56
699.816	3240.57
700.005	3193.47
700.193	3144.31
700.382	3220.09
700.571	3215.99
700.76	3232.38
700.948	3123.84
701.137	3201.66
701.326	3236.47
701.514	3101.31
701.703	3254.9
701.892	3068.54
702.08	3123.84
702.269	3160.7
702.457	3160.7
702.646	3256.95
702.834	3259
703.023	3134.07
703.212	3113.6
703.4	3189.37
703.589	3234.43
703.777	3191.42
703.965	2982.53
704.154	3185.27
704.342	3140.22
704.531	3127.93
704.719	3273.34
704.907	3105.4
705.096	3252.86
705.284	3191.42
705.472	3191.42
705.661	3115.64
705.849	3205.75
706.037	3365.5
706.226	3029.63
706.414	3336.82
706.602	3099.26
706.79	3205.75
706.979	3052.16
707.167	3365.5
707.355	3134.07
707.543	3285.62
707.731	3271.29
707.919	3244.67
708.107	3254.9
708.296	3197.56
708.484	3289.72
708.672	3271.29
708.86	3236.47
709.048	3312.25
709.236	3297.91
709.424	3150.46
709.612	3207.8
709.8	3326.58
709.988	3236.47
710.176	3302.01
710.364	3197.56
710.551	3222.14
710.739	3148.41
710.927	3289.72
711.115	3232.38
711.303	3385.98
711.491	3215.99
711.679	3256.95
711.866	3199.61
712.054	3381.88
712.242	3291.77
712.43	3302.01
712.617	3256.95
712.805	3332.73
712.993	3273.34
713.181	3291.77
713.368	3215.99
713.556	3316.34
713.744	3181.18
713.931	3463.8
714.119	3355.26
714.306	3377.78
714.494	3416.69
714.682	3256.95
714.869	3256.95
715.057	3426.93
715.244	3279.48
715.432	3461.75
715.619	3373.69
715.807	3330.68
715.994	3363.45
716.182	3404.41
716.369	3463.8
716.556	3414.65
716.744	3275.38
716.931	3467.89
717.119	3353.21
717.306	3447.41
717.493	3418.74
717.681	3398.26
717.868	3404.41
718.055	3553.91
718.242	3476.09
718.43	3404.41
718.617	3527.28
718.804	3416.69
718.991	3435.13
719.179	3594.87
719.366	3406.45
719.553	3584.63
719.74	3420.79
719.927	3398.26
720.114	3424.89
720.301	3363.45
720.488	3445.37
720.676	3340.92
720.863	3545.72
721.05	3478.13
721.237	3496.57
721.424	3451.51
721.611	3566.2
721.798	3392.12
721.985	3463.8
722.172	3480.18
722.358	3451.51
722.545	3435.13
722.732	3453.56
722.919	3637.88
723.106	3482.23
723.293	3523.19
723.48	3558
723.667	3635.83
723.853	3463.8
724.04	3570.29
724.227	3619.44
724.414	3553.91
724.6	3529.33
724.787	3541.62
724.974	3517.05
725.161	3566.2
725.347	3484.28
725.534	3488.37
725.72	3564.15
725.907	3646.07
726.094	3523.19
726.28	3533.43
726.467	3428.98
726.653	3633.78
726.84	3529.33
727.027	3564.15
727.213	3510.9
727.4	3650.16
727.586	3617.4
727.773	3598.96
727.959	3553.91
728.145	3627.64
728.332	3562.1
728.518	3582.58
728.705	3695.22
728.891	3672.69
729.077	3680.88
729.264	3607.16
729.45	3639.92
729.636	3621.49
729.823	3574.39
730.009	3621.49
730.195	3637.88
730.382	3607.16
730.568	3650.16
730.754	3703.41
730.94	3680.88
731.126	3697.27
731.313	3650.16
731.499	3566.2
731.685	3488.37
731.871	3664.5
732.057	3754.61
732.243	3758.71
732.429	3680.88
732.615	3601.01
732.801	3750.51
732.987	3639.92
733.173	3693.17
733.359	3547.76
733.545	3691.12
733.731	3662.45
733.917	3738.23
734.103	3717.75
734.289	3693.17
734.475	3586.68
734.661	3670.64
734.847	3529.33
735.033	3818.1
735.219	3707.51
735.404	3535.48
735.59	3689.07
735.776	3558
735.962	3783.28
736.148	3693.17
736.333	3758.71
736.519	3590.77
736.705	3617.4
736.89	3590.77
737.076	3652.21
737.262	3572.34
737.447	3613.3
737.633	3576.44
737.819	3529.33
738.004	3443.32
738.19	3687.03
738.375	3502.71
738.561	3539.57
738.747	3652.21
738.932	3631.73
739.118	3639.92
739.303	3617.4
739.489	3582.58
739.674	3480.18
739.859	3379.83
740.045	3609.2
740.23	3535.48
740.416	3560.05
740.601	3613.3
740.786	3543.67
740.972	3490.42
741.157	3490.42
741.342	3461.75
741.528	3285.62
741.713	3588.72
741.898	3453.56
742.084	3420.79
742.269	3412.6
742.454	3318.39
742.639	3402.36
742.824	3398.26
743.01	3461.75
743.195	3355.26
743.38	3248.76
743.565	3287.67
743.75	3402.36
743.935	3248.76
744.12	3295.86
744.305	3289.72
744.49	3295.86
744.675	3265.14
744.86	3177.08
745.045	3285.62
745.23	3263.1
745.415	3123.84
745.6	3228.28
745.785	3125.88
745.97	3267.19
746.155	3066.49
746.34	3269.24
746.525	3066.49
746.71	3279.48
746.895	3099.26
747.079	2957.95
747.264	2960
747.449	3058.3
747.634	3084.92
747.819	2994.81
748.003	2941.57
748.188	2996.86
748.373	2869.89
748.557	2886.27
748.742	2968.19
748.927	2826.88
749.111	2773.63
749.296	2863.74
749.481	2824.83
749.665	2785.92
749.85	2826.88
750.034	2781.82
750.219	2691.71
750.404	2656.9
750.588	2779.78
750.773	2726.53
750.957	2665.09
751.141	2710.15
751.326	2609.79
751.51	2560.64
751.695	2501.25
751.879	2679.43
752.064	2591.36
752.248	2562.69
752.432	2564.74
752.617	2656.9
752.801	2411.14
752.985	2499.2
753.17	2476.68
753.354	2509.44
753.538	2394.76
753.722	2376.33
753.907	2361.99
754.091	2341.51
754.275	2407.05
754.459	2345.61
754.643	2325.13
754.828	2306.7
755.012	2407.05
755.196	2216.58
755.38	2159.24
755.564	2210.44
755.748	2222.73
755.932	2200.2
756.116	2165.39
756.3	2140.81
756.484	2130.57
756.668	2189.96
756.852	2126.47
757.036	2196.11
757.22	2079.37
757.404	2134.67
757.588	2003.6
757.772	2015.88
757.956	2089.61
758.14	2048.65
758.323	1976.97
758.507	2003.6
758.691	1976.97
758.875	2028.17
759.059	1931.92
759.242	1919.63
759.426	1944.21
759.61	1903.25
759.794	1856.14
759.977	1921.68
760.161	1890.96
760.345	2017.93
760.528	1903.25
760.712	1852.05
760.895	1876.62
761.079	1921.68
761.263	1847.95
761.446	1741.46
761.63	1800.85
761.813	1806.99
761.997	1780.37
762.18	1786.51
762.364	1798.8
762.547	1671.83
762.731	1757.84
762.914	1806.99
763.098	1663.63
763.281	1723.02
763.464	1802.9
763.648	1809.04
763.831	1653.39
764.015	1651.35
764.198	1792.66
764.381	1651.35
764.564	1684.11
764.748	1637.01
764.931	1553.04
765.114	1682.07
765.297	1700.5
765.481	1577.62
765.664	1520.28
765.847	1610.39
766.03	1645.2
766.213	1583.76
766.397	1536.66
766.58	1540.76
766.763	1632.91
766.946	1536.66
767.129	1536.66
767.312	1510.04
767.495	1460.88
767.678	1546.9
767.861	1544.85
768.044	1448.6
768.227	1501.84
768.41	1454.74
768.593	1573.52
768.776	1485.46
768.959	1512.08
769.142	1555.09
769.324	1385.11
769.507	1456.79
769.69	1366.68
769.873	1446.55
770.056	1436.31
770.239	1407.64
770.421	1458.84
770.604	1415.83
770.787	1469.08
770.97	1403.54
771.152	1301.14
771.335	1512.08
771.518	1389.21
771.7	1401.49
771.883	1356.44
772.066	1268.38
772.248	1194.65
772.431	1297.05
772.613	1321.62
772.796	1329.81
772.978	1323.67
773.161	1266.33
773.343	1260.18
773.526	1227.42
773.708	1247.9
773.891	1118.87
774.073	1256.09
774.256	1270.42
774.438	1276.57
774.621	1260.18
774.803	1282.71
774.985	1149.59
775.168	1206.94
775.35	1155.74
775.532	1182.36
775.715	1098.39
775.897	1149.59
776.079	1139.35
776.261	1149.59
776.444	1096.35
776.626	1161.88
776.808	1067.67
776.99	1067.67
777.173	1075.87
777.355	1026.72
777.537	1039
777.719	1004.19
777.901	1045.15
778.083	1090.2
778.265	987.8
778.447	1039
778.629	1051.29
778.811	1034.91
778.993	1069.72
779.175	1141.4
779.357	1020.57
779.539	996
779.721	1059.48
779.903	914.08
780.085	981.66
780.267	952.99
780.449	944.8
780.631	916.12
780.812	998.04
780.994	932.51
781.176	809.63
781.358	848.54
781.54	883.36
781.721	844.45
781.903	938.65
782.085	856.73
782.267	922.27
782.448	895.65
782.63	776.86
782.812	778.91
782.993	740
783.175	866.97
783.357	750.24
783.538	789.15
783.72	733.86
783.901	844.45
784.083	729.76
784.264	750.24
784.446	682.66
784.627	735.9
784.809	793.25
784.99	735.9
785.172	797.34
785.353	715.42
785.535	699.04
785.716	719.52
785.897	627.36
786.079	676.51
786.26	709.28
786.441	715.42
786.623	625.31
786.804	688.8
786.985	729.76
787.167	666.27
787.348	709.28
787.529	625.31
787.71	682.66
787.891	653.98
788.073	670.37
788.254	682.66
788.435	729.76
788.616	645.79
788.797	559.78
788.978	623.27
789.159	570.02
789.34	643.74
789.522	561.83
789.703	621.22
789.884	674.46
790.065	629.41
790.246	678.56
790.427	608.93
790.607	625.31
790.788	604.83
790.969	600.74
791.15	670.37
791.331	488.1
791.512	559.78
791.693	527.01
791.874	498.34
792.054	586.4
792.235	647.84
792.416	504.48
792.597	520.87
792.778	508.58
792.958	529.06
793.139	565.92
793.32	623.27
793.5	475.81
793.681	563.87
793.862	524.96
794.042	547.49
794.223	527.01
794.404	467.62
794.584	447.14
794.765	490.15
794.945	551.59
795.126	484
795.306	555.68
795.487	428.71
795.667	459.43
795.848	469.67
796.028	381.6
796.209	414.37
796.389	527.01
796.57	477.86
796.75	467.62
796.93	397.99
797.111	430.76
797.291	455.33
797.471	422.56
797.652	428.71
797.832	383.65
798.012	414.37
798.192	457.38
798.373	305.83
798.553	457.38
798.733	471.72
798.913	352.93
799.093	408.23
799.274	451.24
799.454	502.44
799.634	430.76
799.814	412.32
799.994	402.08
800.174	426.66
800.354	432.8
800.534	279.21
800.714	438.95
800.894	299.69
801.074	383.65
801.254	412.32
801.434	432.8
801.614	365.22
801.794	357.03
801.974	1391.25
802.154	418.47
802.334	381.6
802.514	391.84
802.693	318.12
802.873	381.6
803.053	389.8
803.233	338.6
803.413	342.69
803.592	316.07
803.772	346.79
803.952	334.5
804.131	365.22
804.311	354.98
804.491	369.32
804.67	342.69
804.85	338.6
805.03	309.93
805.209	443.04
805.389	350.89
805.568	295.59
805.748	285.35
805.928	234.15
806.107	314.02
806.287	332.45
806.466	295.59
806.646	369.32
806.825	316.07
807.004	283.3
807.184	301.73
807.363	346.79
807.543	395.94
807.722	250.53
807.901	303.78
808.081	365.22
808.26	205.48
808.439	326.31
808.619	248.49
808.798	334.5
808.977	268.97
809.156	375.46
809.336	330.41
809.515	348.84
809.694	236.2
809.873	252.58
810.052	234.15
810.231	338.6
810.411	305.83
810.59	256.68
810.769	344.74
810.948	361.13
811.127	203.43
811.306	248.49
811.485	234.15
811.664	332.45
811.843	238.25
812.022	314.02
812.201	248.49
812.38	273.06
812.559	193.19
812.737	252.58
812.916	211.62
813.095	283.3
813.274	232.1
813.453	291.49
813.632	234.15
813.811	307.88
813.989	166.57
814.168	279.21
814.347	230.06
814.526	248.49
814.704	275.11
814.883	285.35
815.062	248.49
815.24	246.44
815.419	256.68
815.598	277.16
815.776	162.47
815.955	250.53
816.133	162.47
816.312	248.49
816.49	260.77
816.669	316.07
816.847	258.73
817.026	228.01
817.204	287.4
817.383	197.29
817.561	156.33
817.74	217.77
817.918	334.5
818.097	172.71
818.275	191.14
818.453	228.01
818.632	242.34
818.81	240.3
818.988	211.62
819.167	166.57
819.345	240.3
819.523	246.44
819.701	197.29
819.879	256.68
820.058	264.87
820.236	213.67
820.414	154.28
820.592	219.82
820.77	150.18
820.948	182.95
821.127	154.28
821.305	158.38
821.483	240.3
821.661	242.34
821.839	166.57
822.017	223.91
822.195	207.53
822.373	305.83
822.551	168.62
822.729	230.06
822.907	109.23
823.085	240.3
823.262	178.86
823.44	172.71
823.618	105.13
823.796	207.53
823.974	88.75
824.152	107.18
824.329	141.99
824.507	213.67
824.685	215.72
824.863	146.09
825.04	180.9
825.218	232.1
825.396	187.05
825.574	174.76
825.751	135.85
825.929	230.06
826.107	101.03
826.284	187.05
826.462	217.77
826.639	174.76
826.817	29.35
826.994	117.42
827.172	125.61
827.349	246.44
827.527	117.42
827.704	185
827.882	170.66
828.059	150.18
828.237	199.34
828.414	215.72
828.591	92.84
828.769	103.08
828.946	205.48
829.124	215.72
829.301	172.71
829.478	191.14
829.655	242.34
829.833	160.42
830.01	152.23
830.187	109.23
830.364	178.86
830.542	221.86
830.719	199.34
830.896	164.52
831.073	166.57
831.25	176.81
831.427	133.8
831.604	154.28
831.782	78.51
831.959	160.42
832.136	121.51
832.313	162.47
832.49	141.99
832.667	174.76
832.844	90.79
833.021	234.15
833.198	53.93
833.374	72.36
833.551	158.38
833.728	185
833.905	191.14
834.082	70.31
834.259	158.38
834.436	162.47
834.612	94.89
834.789	133.8
834.966	101.03
835.143	174.76
835.319	86.7
835.496	84.65
835.673	127.66
835.85	141.99
836.026	86.7
836.203	185
836.38	80.55
836.556	37.55
836.733	141.99
836.909	191.14
837.086	101.03
837.262	88.75
837.439	76.46
837.616	92.84
837.792	160.42
837.968	72.36
838.145	53.93
838.321	60.07
838.498	150.18
838.674	78.51
838.851	105.13
839.027	101.03
839.203	76.46
839.38	150.18
839.556	135.85
839.732	211.62
839.909	129.7
840.085	78.51
840.261	68.27
840.437	66.22
840.614	103.08
840.79	146.09
840.966	121.51
841.142	4.78
841.318	58.03
841.494	94.89
841.671	137.9
841.847	-15.7
842.023	96.94
842.199	154.28
842.375	41.64
842.551	96.94
842.727	101.03
842.903	94.89
843.079	105.13
843.255	166.57
843.431	60.07
843.607	35.5
843.783	4.78
843.959	170.66
844.134	94.89
844.31	166.57
844.486	27.31
844.662	119.46
844.838	119.46
845.013	88.75
845.189	98.99
845.365	84.65
845.541	94.89
845.716	172.71
845.892	109.23
846.068	182.95
846.244	25.26
846.419	51.88
846.595	125.61
846.77	60.07
846.946	121.51
847.122	51.88
847.297	72.36
847.473	152.23
847.648	10.92
847.824	27.31
847.999	23.21
848.175	82.6
848.35	68.27
848.526	111.27
848.701	139.94
848.876	168.62
849.052	68.27
849.227	185
849.403	51.88
849.578	117.42
849.753	119.46
849.929	64.17
850.104	10.92
850.279	117.42
850.454	76.46
850.63	133.8
850.805	37.55
850.98	90.79
851.155	139.94
851.33	76.46
851.505	10.92
851.681	135.85
851.856	-5.46
852.031	62.12
852.206	68.27
852.381	68.27
852.556	60.07
852.731	88.75
852.906	21.16
853.081	84.65
853.256	144.04
853.431	76.46
853.606	94.89
853.781	-1.37
853.956	27.31
854.131	103.08
854.305	62.12
854.48	76.46
854.655	29.35
854.83	80.55
855.005	47.79
855.18	45.74
855.354	92.84
855.529	33.45
855.704	92.84
855.879	125.61
856.053	-11.61
856.228	37.55
856.403	58.03
856.577	47.79
856.752	39.59
856.926	66.22
857.101	17.07
857.276	41.64
857.45	117.42
857.625	60.07
857.799	27.31
857.974	88.75
858.148	60.07
858.323	119.46
858.497	70.31
858.672	72.36
858.846	72.36
859.02	111.27
859.195	-11.61
859.369	-36.18
859.543	0.68
859.718	111.27
859.892	-9.56
860.066	2.73
860.241	-9.56
860.415	35.5
860.589	29.35
860.763	78.51
860.938	94.89
861.112	101.03
861.286	33.45
861.46	117.42
861.634	41.64
861.808	90.79
861.982	113.32
862.157	-3.41
862.331	53.93
862.505	-15.7
862.679	-52.56
862.853	35.5
863.027	-11.61
863.201	78.51
863.375	23.21
863.549	86.7
863.722	10.92
863.896	82.6
864.07	33.45
864.244	51.88
864.418	35.5
864.592	43.69
864.766	-42.32
864.939	141.99
865.113	-11.61
865.287	133.8
865.461	60.07
865.634	78.51
865.808	47.79
865.982	12.97
866.156	64.17
866.329	-9.56
866.503	78.51
866.676	103.08
866.85	27.31
867.024	2.73
867.197	55.98
867.371	76.46
867.544	21.16
867.718	-27.99
867.891	129.7
868.065	23.21
868.238	88.75
868.412	125.61
868.585	51.88
868.759	23.21
868.932	-3.41
869.105	6.83
869.279	45.74
869.452	49.83
869.625	49.83
869.799	31.4
869.972	-21.84
870.145	-23.89
870.319	72.36
870.492	4.78
870.665	-23.89
870.838	0.68
871.011	2.73
871.185	-30.04
871.358	10.92
871.531	60.07
871.704	2.73
871.877	82.6
872.05	-11.61
872.223	47.79
872.396	41.64
872.569	10.92
872.742	0.68
872.915	-48.47
873.088	2.73
873.261	64.17
873.434	96.94
873.607	35.5
873.78	119.46
873.953	37.55
874.126	0.68
874.299	39.59
874.471	-60.76
874.644	23.21
874.817	47.79
874.99	80.55
875.163	66.22
875.335	84.65
875.508	62.12
875.681	105.13
875.853	6.83
876.026	37.55
876.199	101.03
876.371	90.79
876.544	43.69
876.717	33.45
876.889	-5.46
877.062	19.11
877.234	-3.41
877.407	10.92
877.579	6.83
877.752	10.92
877.924	76.46
878.097	62.12
878.269	0.68
878.442	-7.51
878.614	51.88
878.786	-21.84
878.959	45.74
879.131	15.02
879.303	-9.56
879.476	-36.18
879.648	33.45
879.82	10.92
879.993	41.64
880.165	37.55
880.337	2.73
880.509	125.61
880.681	-30.04
880.854	-7.51
881.026	-13.65
881.198	47.79
881.37	6.83
881.542	47.79
881.714	-3.41
881.886	35.5
882.058	19.11
882.23	119.46
882.402	4.78
882.574	78.51
882.746	6.83
882.918	127.66
883.09	41.64
883.262	107.18
883.434	76.46
883.606	4.78
883.778	70.31
883.95	113.32
884.122	33.45
884.293	35.5
884.465	2.73
884.637	74.41
884.809	-9.56
884.98	-46.42
885.152	49.83
885.324	111.27
885.496	60.07
885.667	90.79
885.839	-77.14
886.011	72.36
886.182	74.41
886.354	76.46
886.525	-9.56
886.697	45.74
886.869	43.69
887.04	29.35
887.212	51.88
887.383	45.74
887.555	-30.04
887.726	0.68
887.897	55.98
888.069	43.69
888.24	86.7
888.412	21.16
888.583	-17.75
888.754	-13.65
888.926	-42.32
889.097	4.78
889.268	-27.99
889.44	43.69
889.611	-23.89
889.782	35.5
889.953	4.78
890.125	111.27
890.296	-25.94
890.467	-13.65
890.638	64.17
890.809	60.07
890.98	49.83
891.151	37.55
891.323	41.64
891.494	-52.56
891.665	62.12
891.836	27.31
892.007	-25.94
892.178	47.79
892.349	-83.28
892.52	0.68
892.691	-13.65
892.862	35.5
893.032	47.79
893.203	2.73
893.374	64.17
893.545	117.42
893.716	23.21
893.887	55.98
894.057	-13.65
894.228	27.31
894.399	-30.04
894.57	111.27
894.74	37.55
894.911	66.22
895.082	-42.32
895.253	-21.84
895.423	55.98
895.594	55.98
895.764	19.11
895.935	-15.7
896.106	-7.51
896.276	17.07
896.447	29.35
896.617	-38.23
896.788	-85.33
896.958	-21.84
897.129	-1.37
897.299	15.02
897.47	49.83
897.64	21.16
897.81	17.07
897.981	-13.65
898.151	-1.37
898.322	19.11
898.492	43.69
898.662	-66.9
898.832	51.88
899.003	10.92
899.173	51.88
899.343	-23.89
899.513	-27.99
