Data from USB4F104151__60__13-05-41-881.txt Node

Date: Fri Mar 14 13:05:41 EDT 2025
User: louis
Spectrometer: USB4F10415
Trigger mode: 4
Integration Time (sec): 4.000000E-2
Scans to average: 1
Electric dark correction enabled: true
Nonlinearity correction enabled: false
Boxcar width: 0
XAxis mode: Wavelengths
Number of Pixels in Spectrum: 3648
>>>>>Begin Spectral Data<<<<<
178.204	-197.46
178.424	-197.46
178.644	-197.46
178.864	-199.51
179.084	-133.97
179.304	-43.86
179.524	-33.62
179.744	-15.19
179.964	40.11
180.184	-33.62
180.404	33.96
180.624	60.59
180.844	-37.72
181.064	-41.81
181.283	17.58
181.503	-11.09
181.723	64.68
181.943	-123.73
182.163	38.06
182.383	62.63
182.602	-23.38
182.822	117.93
183.042	48.3
183.262	38.06
183.482	66.73
183.701	7.34
183.921	58.54
184.141	23.72
184.361	36.01
184.58	64.68
184.8	21.67
185.02	36.01
185.239	74.92
185.459	9.39
185.679	105.64
185.898	-82.77
186.118	5.29
186.338	103.59
186.557	66.73
186.777	25.77
186.997	25.77
187.216	-4.95
187.436	138.41
187.655	31.91
187.875	56.49
188.095	38.06
188.314	58.54
188.534	19.63
188.753	13.48
188.973	68.78
189.192	87.21
189.412	93.35
189.631	44.2
189.851	46.25
190.07	87.21
190.29	-27.48
190.509	95.4
190.729	50.35
190.948	103.59
191.168	273.57
191.387	42.15
191.607	3.24
191.826	17.58
192.045	15.53
192.265	1.19
192.484	42.15
192.704	60.59
192.923	-31.57
193.142	154.79
193.362	89.26
193.581	66.73
193.8	56.49
194.02	38.06
194.239	31.91
194.458	23.72
194.678	103.59
194.897	74.92
195.116	58.54
195.335	72.87
195.555	31.91
195.774	25.77
195.993	89.26
196.212	79.02
196.432	9.39
196.651	58.54
196.87	-2.9
197.089	56.49
197.308	58.54
197.528	15.53
197.747	93.35
197.966	105.64
198.185	124.07
198.404	17.58
198.623	13.48
198.842	31.91
199.062	5.29
199.281	167.08
199.5	95.4
199.719	46.25
199.938	-9.05
200.157	36.01
200.376	54.44
200.595	95.4
200.814	144.55
201.033	38.06
201.252	97.45
201.471	-60.24
201.69	56.49
201.909	64.68
202.128	93.35
202.347	60.59
202.566	40.11
202.785	19.63
203.004	-39.76
203.223	197.8
203.442	89.26
203.661	70.83
203.879	56.49
204.098	46.25
204.317	9.39
204.536	79.02
204.755	50.35
204.974	64.68
205.193	124.07
205.411	101.55
205.63	48.3
205.849	46.25
206.068	3.24
206.287	-37.72
206.505	74.92
206.724	-9.05
206.943	-15.19
207.162	1.19
207.381	58.54
207.599	-19.29
207.818	54.44
208.037	-4.95
208.255	31.91
208.474	38.06
208.693	-27.48
208.911	7.34
209.13	152.74
209.349	58.54
209.567	66.73
209.786	85.16
210.005	36.01
210.223	-0.85
210.442	-31.57
210.661	23.72
210.879	52.39
211.098	97.45
211.316	107.69
211.535	76.97
211.753	58.54
211.972	66.73
212.191	56.49
212.409	27.82
212.628	113.83
212.846	-9.05
213.065	87.21
213.283	83.11
213.502	66.73
213.72	-35.67
213.938	95.4
214.157	21.67
214.375	7.34
214.594	25.77
214.812	134.31
215.031	-11.09
215.249	-41.81
215.467	62.63
215.686	44.2
215.904	-13.14
216.122	-68.44
216.341	40.11
216.559	17.58
216.778	70.83
216.996	42.15
217.214	44.2
217.432	7.34
217.651	3.24
217.869	70.83
218.087	21.67
218.306	-50
218.524	-52.05
218.742	-2.9
218.96	97.45
219.179	93.35
219.397	-11.09
219.615	60.59
219.833	93.35
220.051	21.67
220.27	85.16
220.488	87.21
220.706	60.59
220.924	46.25
221.142	23.72
221.36	56.49
221.578	79.02
221.796	-19.29
222.015	62.63
222.233	66.73
222.451	101.55
222.669	23.72
222.887	5.29
223.105	25.77
223.323	31.91
223.541	21.67
223.759	62.63
223.977	5.29
224.195	95.4
224.413	56.49
224.631	103.59
224.849	99.5
225.067	136.36
225.285	40.11
225.503	-17.24
225.721	19.63
225.939	40.11
226.157	95.4
226.375	95.4
226.592	-31.57
226.81	-29.52
227.028	93.35
227.246	134.31
227.464	21.67
227.682	79.02
227.9	62.63
228.117	72.87
228.335	58.54
228.553	95.4
228.771	29.87
228.989	36.01
229.206	31.91
229.424	38.06
229.642	-15.19
229.86	-4.95
230.077	29.87
230.295	62.63
230.513	89.26
230.731	42.15
230.948	89.26
231.166	146.6
231.384	25.77
231.601	-2.9
231.819	111.78
232.037	29.87
232.254	13.48
232.472	70.83
232.689	21.67
232.907	126.12
233.125	44.2
233.342	33.96
233.56	9.39
233.777	52.39
233.995	-11.09
234.213	27.82
234.43	89.26
234.648	-37.72
234.865	76.97
235.083	31.91
235.3	40.11
235.518	58.54
235.735	95.4
235.953	62.63
236.17	9.39
236.388	23.72
236.605	72.87
236.822	87.21
237.04	72.87
237.257	38.06
237.475	11.43
237.692	111.78
237.909	72.87
238.127	33.96
238.344	9.39
238.562	136.36
238.779	31.91
238.996	-56.15
239.214	74.92
239.431	103.59
239.648	128.17
239.865	25.77
240.083	29.87
240.3	23.72
240.517	38.06
240.735	36.01
240.952	87.21
241.169	29.87
241.386	-2.9
241.603	7.34
241.821	-21.33
242.038	76.97
242.255	38.06
242.472	-43.86
242.689	66.73
242.907	-9.05
243.124	3.24
243.341	15.53
243.558	19.63
243.775	-62.29
243.992	-25.43
244.209	23.72
244.426	113.83
244.643	17.58
244.86	44.2
245.078	46.25
245.295	-43.86
245.512	-23.38
245.729	66.73
245.946	91.31
246.163	48.3
246.38	58.54
246.597	38.06
246.814	-27.48
247.031	115.88
247.248	87.21
247.464	50.35
247.681	1.19
247.898	72.87
248.115	66.73
248.332	17.58
248.549	46.25
248.766	54.44
248.983	70.83
249.2	105.64
249.417	54.44
249.633	-17.24
249.85	68.78
250.067	-11.09
250.284	31.91
250.501	3.24
250.717	128.17
250.934	-13.14
251.151	42.15
251.368	29.87
251.585	83.11
251.801	29.87
252.018	66.73
252.235	124.07
252.451	21.67
252.668	48.3
252.885	76.97
253.102	105.64
253.318	54.44
253.535	66.73
253.752	103.59
253.968	5.29
254.185	29.87
254.401	-37.72
254.618	144.55
254.835	33.96
255.051	60.59
255.268	5.29
255.484	29.87
255.701	99.5
255.917	70.83
256.134	52.39
256.351	54.44
256.567	-11.09
256.784	50.35
257	66.73
257.217	29.87
257.433	72.87
257.65	33.96
257.866	113.83
258.082	70.83
258.299	-37.72
258.515	66.73
258.732	-82.77
258.948	79.02
259.165	46.25
259.381	17.58
259.597	111.78
259.814	23.72
260.03	-11.09
260.246	27.82
260.463	109.74
260.679	97.45
260.895	83.11
261.112	76.97
261.328	-7
261.544	31.91
261.761	111.78
261.977	85.16
262.193	-19.29
262.409	60.59
262.626	81.07
262.842	21.67
263.058	19.63
263.274	113.83
263.49	62.63
263.707	58.54
263.923	36.01
264.139	-17.24
264.355	-52.05
264.571	136.36
264.787	38.06
265.004	191.66
265.22	40.11
265.436	13.48
265.652	29.87
265.868	107.69
266.084	-0.85
266.3	95.4
266.516	29.87
266.732	50.35
266.948	81.07
267.164	89.26
267.38	33.96
267.596	23.72
267.812	132.26
268.028	38.06
268.244	-64.34
268.46	-11.09
268.676	74.92
268.892	74.92
269.108	21.67
269.324	13.48
269.54	68.78
269.756	44.2
269.972	-80.72
270.188	62.63
270.403	44.2
270.619	36.01
270.835	95.4
271.051	13.48
271.267	-35.67
271.483	23.72
271.698	72.87
271.914	81.07
272.13	62.63
272.346	-41.81
272.562	-2.9
272.777	68.78
272.993	54.44
273.209	58.54
273.425	62.63
273.64	9.39
273.856	93.35
274.072	46.25
274.287	21.67
274.503	109.74
274.719	33.96
274.934	54.44
275.15	70.83
275.366	23.72
275.581	15.53
275.797	56.49
276.012	-62.29
276.228	3.24
276.444	95.4
276.659	13.48
276.875	60.59
277.09	95.4
277.306	58.54
277.521	-11.09
277.737	93.35
277.952	113.83
278.168	33.96
278.383	-15.19
278.599	89.26
278.814	48.3
279.03	79.02
279.245	74.92
279.461	56.49
279.676	162.98
279.892	-31.57
280.107	33.96
280.322	50.35
280.538	97.45
280.753	-107.35
280.969	33.96
281.184	23.72
281.399	38.06
281.615	79.02
281.83	99.5
282.045	3.24
282.26	5.29
282.476	95.4
282.691	93.35
282.906	46.25
283.122	9.39
283.337	21.67
283.552	85.16
283.767	-43.86
283.983	103.59
284.198	44.2
284.413	40.11
284.628	46.25
284.843	9.39
285.058	42.15
285.274	107.69
285.489	99.5
285.704	113.83
285.919	42.15
286.134	27.82
286.349	15.53
286.564	50.35
286.779	83.11
286.995	60.59
287.21	13.48
287.425	13.48
287.64	-17.24
287.855	105.64
288.07	-58.2
288.285	136.36
288.5	21.67
288.715	15.53
288.93	27.82
289.145	-23.38
289.36	46.25
289.575	23.72
289.79	154.79
290.004	68.78
290.219	64.68
290.434	17.58
290.649	38.06
290.864	19.63
291.079	-0.85
291.294	119.98
291.509	72.87
291.724	31.91
291.938	29.87
292.153	13.48
292.368	13.48
292.583	74.92
292.798	126.12
293.012	56.49
293.227	107.69
293.442	19.63
293.657	124.07
293.871	87.21
294.086	103.59
294.301	160.94
294.516	126.12
294.73	5.29
294.945	48.3
295.16	-27.48
295.374	23.72
295.589	140.46
295.804	54.44
296.018	1.19
296.233	99.5
296.447	33.96
296.662	105.64
296.877	107.69
297.091	52.39
297.306	89.26
297.52	7.34
297.735	15.53
297.949	13.48
298.164	46.25
298.378	79.02
298.593	-2.9
298.807	70.83
299.022	23.72
299.236	119.98
299.451	42.15
299.665	27.82
299.88	56.49
300.094	87.21
300.309	66.73
300.523	36.01
300.737	-27.48
300.952	-2.9
301.166	111.78
301.381	-7
301.595	38.06
301.809	44.2
302.024	66.73
302.238	29.87
302.452	156.84
302.667	19.63
302.881	93.35
303.095	136.36
303.309	21.67
303.524	15.53
303.738	58.54
303.952	21.67
304.166	107.69
304.381	-39.76
304.595	134.31
304.809	-62.29
305.023	76.97
305.237	105.64
305.452	-27.48
305.666	68.78
305.88	124.07
306.094	95.4
306.308	76.97
306.522	-33.62
306.736	115.88
306.95	97.45
307.164	-29.52
307.379	-13.14
307.593	99.5
307.807	119.98
308.021	87.21
308.235	27.82
308.449	-17.24
308.663	21.67
308.877	48.3
309.091	52.39
309.305	95.4
309.519	-25.43
309.733	142.5
309.947	-0.85
310.161	117.93
310.374	95.4
310.588	89.26
310.802	105.64
311.016	11.43
311.23	17.58
311.444	29.87
311.658	25.77
311.872	76.97
312.085	103.59
312.299	128.17
312.513	158.89
312.727	58.54
312.941	-66.39
313.154	13.48
313.368	44.2
313.582	-15.19
313.796	36.01
314.009	42.15
314.223	33.96
314.437	119.98
314.651	38.06
314.864	-9.05
315.078	5.29
315.292	-25.43
315.505	9.39
315.719	79.02
315.933	122.02
316.146	40.11
316.36	66.73
316.573	56.49
316.787	72.87
317.001	76.97
317.214	38.06
317.428	11.43
317.641	1.19
317.855	13.48
318.068	9.39
318.282	109.74
318.495	81.07
318.709	19.63
318.922	13.48
319.136	66.73
319.349	66.73
319.563	81.07
319.776	-11.09
319.99	36.01
320.203	48.3
320.417	76.97
320.63	162.98
320.843	185.51
321.057	-9.05
321.27	23.72
321.483	52.39
321.697	42.15
321.91	56.49
322.124	107.69
322.337	25.77
322.55	-45.91
322.763	19.63
322.977	31.91
323.19	-25.43
323.403	56.49
323.617	33.96
323.83	46.25
324.043	74.92
324.256	-11.09
324.469	11.43
324.683	136.36
324.896	-50
325.109	85.16
325.322	1.19
325.535	62.63
325.748	85.16
325.962	62.63
326.175	85.16
326.388	62.63
326.601	33.96
326.814	21.67
327.027	93.35
327.24	128.17
327.453	-23.38
327.666	52.39
327.879	122.02
328.092	122.02
328.305	76.97
328.518	64.68
328.731	-7
328.944	17.58
329.157	21.67
329.37	97.45
329.583	193.7
329.796	91.31
330.009	-13.14
330.222	105.64
330.435	68.78
330.648	13.48
330.861	105.64
331.073	105.64
331.286	113.83
331.499	87.21
331.712	50.35
331.925	74.92
332.138	17.58
332.35	119.98
332.563	-2.9
332.776	72.87
332.989	-9.05
333.202	3.24
333.414	81.07
333.627	42.15
333.84	15.53
334.053	62.63
334.265	103.59
334.478	-17.24
334.691	21.67
334.903	54.44
335.116	72.87
335.329	21.67
335.541	13.48
335.754	119.98
335.966	3.24
336.179	48.3
336.392	-11.09
336.604	44.2
336.817	66.73
337.029	46.25
337.242	-58.2
337.454	70.83
337.667	97.45
337.88	144.55
338.092	87.21
338.305	46.25
338.517	5.29
338.729	44.2
338.942	52.39
339.154	23.72
339.367	58.54
339.579	83.11
339.792	48.3
340.004	62.63
340.217	74.92
340.429	-2.9
340.641	33.96
340.854	56.49
341.066	17.58
341.278	64.68
341.491	70.83
341.703	105.64
341.915	7.34
342.128	79.02
342.34	85.16
342.552	-17.24
342.764	87.21
342.977	5.29
343.189	72.87
343.401	87.21
343.613	-2.9
343.826	48.3
344.038	15.53
344.25	17.58
344.462	70.83
344.674	33.96
344.886	79.02
345.099	46.25
345.311	68.78
345.523	70.83
345.735	52.39
345.947	79.02
346.159	5.29
346.371	50.35
346.583	-0.85
346.795	74.92
347.007	1.19
347.219	109.74
347.431	74.92
347.643	52.39
347.855	-9.05
348.067	54.44
348.279	13.48
348.491	56.49
348.703	74.92
348.915	64.68
349.127	62.63
349.339	-2.9
349.551	-0.85
349.763	17.58
349.975	70.83
350.187	64.68
350.399	101.55
350.61	-2.9
350.822	17.58
351.034	50.35
351.246	33.96
351.458	31.91
351.669	56.49
351.881	97.45
352.093	185.51
352.305	97.45
352.517	99.5
352.728	177.32
352.94	56.49
353.152	56.49
353.363	54.44
353.575	50.35
353.787	70.83
353.999	-9.05
354.21	138.41
354.422	52.39
354.633	79.02
354.845	117.93
355.057	81.07
355.268	79.02
355.48	40.11
355.692	-23.38
355.903	87.21
356.115	99.5
356.326	48.3
356.538	79.02
356.749	25.77
356.961	109.74
357.172	36.01
357.384	-7
357.595	183.46
357.807	93.35
358.018	38.06
358.23	38.06
358.441	79.02
358.653	50.35
358.864	23.72
359.075	3.24
359.287	19.63
359.498	91.31
359.709	74.92
359.921	87.21
360.132	93.35
360.344	85.16
360.555	99.5
360.766	70.83
360.977	33.96
361.189	54.44
361.4	31.91
361.611	87.21
361.823	89.26
362.034	38.06
362.245	-11.09
362.456	-0.85
362.667	138.41
362.879	42.15
363.09	58.54
363.301	-25.43
363.512	68.78
363.723	93.35
363.935	48.3
364.146	119.98
364.357	46.25
364.568	62.63
364.779	-0.85
364.99	122.02
365.201	38.06
365.412	115.88
365.623	33.96
365.834	109.74
366.045	111.78
366.256	107.69
366.467	50.35
366.678	46.25
366.889	7.34
367.1	83.11
367.311	66.73
367.522	101.55
367.733	83.11
367.944	72.87
368.155	5.29
368.366	62.63
368.577	105.64
368.788	87.21
368.999	83.11
369.209	54.44
369.42	150.7
369.631	152.74
369.842	21.67
370.053	72.87
370.264	66.73
370.474	70.83
370.685	52.39
370.896	62.63
371.107	85.16
371.317	74.92
371.528	38.06
371.739	64.68
371.95	74.92
372.16	91.31
372.371	19.63
372.582	-2.9
372.792	42.15
373.003	115.88
373.214	21.67
373.424	144.55
373.635	42.15
373.846	117.93
374.056	29.87
374.267	115.88
374.477	64.68
374.688	111.78
374.898	81.07
375.109	38.06
375.319	56.49
375.53	58.54
375.74	122.02
375.951	95.4
376.161	128.17
376.372	95.4
376.582	40.11
376.793	72.87
377.003	-9.05
377.214	46.25
377.424	72.87
377.635	70.83
377.845	-25.43
378.055	160.94
378.266	-41.81
378.476	19.63
378.686	72.87
378.897	42.15
379.107	33.96
379.317	52.39
379.528	40.11
379.738	79.02
379.948	-11.09
380.158	62.63
380.369	56.49
380.579	134.31
380.789	64.68
380.999	23.72
381.21	81.07
381.42	171.18
381.63	62.63
381.84	72.87
382.05	81.07
382.261	85.16
382.471	101.55
382.681	29.87
382.891	173.22
383.101	70.83
383.311	48.3
383.521	109.74
383.731	105.64
383.941	152.74
384.151	136.36
384.361	72.87
384.571	54.44
384.781	87.21
384.991	33.96
385.201	85.16
385.411	48.3
385.621	162.98
385.831	64.68
386.041	111.78
386.251	-9.05
386.461	165.03
386.671	38.06
386.881	122.02
387.091	136.36
387.301	15.53
387.511	74.92
387.72	146.6
387.93	97.45
388.14	15.53
388.35	119.98
388.56	197.8
388.769	95.4
388.979	165.03
389.189	87.21
389.399	1.19
389.609	126.12
389.818	33.96
390.028	138.41
390.238	60.59
390.447	124.07
390.657	103.59
390.867	58.54
391.076	25.77
391.286	105.64
391.496	93.35
391.705	91.31
391.915	103.59
392.125	156.84
392.334	70.83
392.544	136.36
392.753	122.02
392.963	72.87
393.172	103.59
393.382	95.4
393.591	128.17
393.801	29.87
394.01	134.31
394.22	148.65
394.429	23.72
394.639	91.31
394.848	144.55
395.058	113.83
395.267	40.11
395.477	62.63
395.686	146.6
395.895	105.64
396.105	189.61
396.314	140.46
396.524	107.69
396.733	5.29
396.942	205.99
397.152	124.07
397.361	171.18
397.57	132.26
397.78	130.22
397.989	146.6
398.198	171.18
398.407	38.06
398.617	132.26
398.826	89.26
399.035	79.02
399.244	154.79
399.453	158.89
399.663	218.28
399.872	128.17
400.081	42.15
400.29	97.45
400.499	85.16
400.708	152.74
400.917	144.55
401.127	185.51
401.336	130.22
401.545	152.74
401.754	169.13
401.963	124.07
402.172	177.32
402.381	160.94
402.59	70.83
402.799	154.79
403.008	191.66
403.217	130.22
403.426	171.18
403.635	136.36
403.844	162.98
404.053	177.32
404.262	72.87
404.471	232.62
404.68	212.14
404.888	173.22
405.097	126.12
405.306	167.08
405.515	298.15
405.724	189.61
405.933	251.05
406.142	263.33
406.35	210.09
406.559	160.94
406.768	275.62
406.977	285.86
407.185	255.14
407.394	263.33
407.603	222.38
407.812	259.24
408.02	300.2
408.229	300.2
408.438	218.28
408.646	218.28
408.855	316.58
409.064	341.16
409.272	263.33
409.481	390.31
409.69	287.91
409.898	279.72
410.107	371.88
410.315	343.21
410.524	316.58
410.733	427.17
410.941	359.59
411.15	490.66
411.358	400.55
411.567	492.71
411.775	435.36
411.984	476.32
412.192	537.76
412.401	410.79
412.609	564.39
412.818	595.11
413.026	535.71
413.234	574.63
413.443	625.83
413.651	507.04
413.86	646.3
414.068	732.32
414.276	799.9
414.485	664.74
414.693	726.18
414.901	791.71
415.11	810.14
415.318	754.85
415.526	859.29
415.734	871.58
415.943	849.05
416.151	959.64
416.359	906.4
416.567	1049.75
416.776	1010.84
416.984	1078.43
417.192	1197.21
417.4	1119.39
417.608	1004.7
417.817	1131.67
418.025	1174.68
418.233	1445.01
418.441	1221.78
418.649	1383.57
418.857	1410.2
419.065	1520.79
419.273	1432.72
419.481	1508.5
419.689	1596.56
419.897	1578.13
420.105	1682.58
420.313	1782.93
420.521	1864.85
420.729	1797.26
420.937	1950.86
421.145	2090.12
421.353	2036.88
421.561	2169.99
421.769	2167.95
421.977	2360.45
422.185	2217.1
422.393	2528.39
422.601	2532.48
422.809	2432.13
423.017	2602.11
423.224	2716.8
423.432	2886.78
423.64	2823.3
423.848	3032.19
424.056	2966.65
424.263	3062.91
424.471	3366.01
424.679	3282.04
424.887	3406.97
425.094	3474.55
425.302	3540.08
425.51	3759.22
425.718	3800.18
425.925	3964.01
426.133	3867.76
426.341	4349.03
426.548	4326.5
426.756	4385.9
426.964	4392.04
427.171	4742.24
427.379	4750.43
427.586	4940.9
427.794	4895.84
428.001	5321.82
428.209	5459.03
428.417	5489.75
428.624	5782.61
428.832	5946.45
429.039	5801.04
429.247	5872.72
429.454	6368.33
429.662	6868.03
429.869	6583.37
430.076	6847.55
430.284	6655.05
430.491	6908.99
430.699	7287.87
430.906	7357.5
431.114	7502.9
431.321	7597.11
431.528	7840.82
431.736	8277.04
431.943	8612.9
432.15	8416.3
432.358	8498.22
432.565	9020.45
432.772	8813.6
432.979	9579.54
433.187	9587.74
433.394	9624.6
433.601	10220.56
433.808	10382.35
434.016	10189.84
434.223	10843.14
434.43	11312.13
434.637	11277.31
434.844	11725.82
435.052	12104.69
435.259	12121.07
435.466	11957.24
435.673	11967.48
435.88	12958.69
436.087	13497.31
436.294	13437.92
436.501	13171.68
436.708	13513.69
436.915	14046.16
437.122	14463.95
437.329	14377.94
437.537	14955.46
437.743	15160.26
437.95	15104.96
438.157	16049.08
438.364	16475.06
438.571	16237.49
438.778	16630.7
438.985	17855.39
439.192	17150.88
439.399	17953.69
439.606	17380.26
439.813	18394
440.02	19676.03
440.227	19059.59
440.433	19170.18
440.64	19723.13
440.847	19614.59
441.054	20081.53
441.261	21410.66
441.467	20845.42
441.674	21394.28
441.881	22244.18
442.088	22375.25
442.294	21965.66
442.501	22608.72
442.708	23110.47
442.914	24329.02
443.121	24978.22
443.328	24302.39
443.534	26258.2
443.741	25482.02
443.948	24886.06
444.154	26839.83
444.361	26592.02
444.568	26931.98
444.774	27030.29
444.981	27271.95
445.187	28144.38
445.394	29108.97
445.6	29084.4
445.807	31490.76
446.013	30440.15
446.22	30917.33
446.426	31853.25
446.633	32316.09
446.839	33299.12
447.046	31849.16
447.252	33768.1
447.459	33839.78
447.665	33632.94
447.871	35000.98
448.078	36704.89
448.284	35134.1
448.491	35965.57
448.697	37554.8
448.903	37753.45
449.11	38351.46
449.316	37495.41
449.522	38373.99
449.728	39332.43
449.935	39791.18
450.141	39531.09
450.347	40458.82
450.553	39293.52
450.76	39864.91
450.966	40983.1
451.172	40929.85
451.378	41710.13
451.584	40821.31
451.791	42019.37
451.997	41855.53
452.203	42410.53
452.409	42637.86
452.615	42295.85
452.821	40645.18
453.027	40428.1
453.233	42506.79
453.44	40829.5
453.646	41335.35
453.852	41636.4
454.058	42279.46
454.264	40858.17
454.47	42076.71
454.676	40624.7
454.882	42189.35
455.088	38589.02
455.294	39010.9
455.5	39864.91
455.705	40415.81
455.911	38586.97
456.117	37794.41
456.323	37386.86
456.529	35299.98
456.735	36987.51
456.941	35947.14
457.147	35445.39
457.352	34613.91
457.558	33878.69
457.764	34042.53
457.97	33299.12
458.176	32813.75
458.381	32811.7
458.587	30966.48
458.793	31240.91
458.999	29334.25
459.204	31580.87
459.41	31046.35
459.616	28818.16
459.821	29231.85
460.027	28402.43
460.233	28128
460.438	27038.48
460.644	27302.67
460.85	25656.1
461.055	25289.51
461.261	25520.93
461.466	23470.92
461.672	22750.03
461.878	24546.1
462.083	22911.82
462.289	22279
462.494	22025.05
462.7	21039.98
462.905	20689.77
463.111	21570.4
463.316	21375.84
463.522	20820.84
463.727	20728.69
463.932	20894.57
464.138	20601.71
464.343	20839.28
464.549	20038.52
464.754	20728.69
464.959	20452.21
465.165	20779.89
465.37	19487.62
465.575	18850.7
465.781	19815.29
465.986	19923.83
466.191	19338.12
466.397	18963.34
466.602	17943.45
466.807	18621.33
467.012	18643.85
467.218	18457.49
467.423	18189.21
467.628	18449.3
467.833	19241.86
468.038	18439.06
468.244	17757.08
468.449	18736.01
468.654	18056.09
468.859	17992.6
469.064	17824.67
469.269	17060.77
469.474	17197.99
469.679	17558.43
469.885	17011.62
470.09	17576.86
470.295	17146.79
470.5	16757.67
470.705	16962.47
470.91	16577.45
471.115	16513.97
471.32	16626.6
471.525	16554.93
471.73	16524.21
471.935	16042.93
472.139	15504.32
472.344	15621.05
472.549	15764.41
472.754	15266.75
472.959	15229.89
473.164	14891.98
473.369	14521.29
473.574	15145.92
473.778	14945.22
473.983	14744.52
474.188	14771.15
474.393	14066.64
474.598	14187.47
474.802	14232.53
475.007	13859.8
475.212	13835.22
475.417	13286.37
475.621	13530.08
475.826	13587.42
476.031	13384.67
476.235	13093.86
476.44	13360.09
476.645	12743.66
476.849	12964.84
477.054	12817.38
477.259	12379.12
477.463	12782.57
477.668	12383.21
477.872	12389.36
478.077	12084.21
478.282	11942.9
478.486	11901.94
478.691	11783.16
478.895	11803.64
479.1	11625.47
479.304	11885.56
479.509	11287.55
479.713	11709.43
479.918	11422.72
480.122	10990.59
480.326	11244.54
480.531	11357.18
480.735	11103.23
480.94	11090.95
481.144	11170.82
481.348	10689.54
481.553	10935.3
481.757	10494.99
481.961	10738.69
482.166	11027.46
482.37	11047.94
482.574	10845.19
482.778	10802.18
482.983	11068.42
483.187	10834.95
483.391	10818.57
483.595	10761.22
483.8	10736.65
484.004	10949.64
484.208	10931.2
484.412	10822.66
484.616	10820.61
484.821	10765.32
485.025	10793.99
485.229	10738.69
485.433	10714.12
485.637	10677.26
485.841	10650.63
486.045	10769.41
486.249	10802.18
486.453	10884.1
486.657	10642.44
486.861	10613.77
487.065	10454.03
487.269	10597.38
487.473	10640.39
487.677	10687.5
487.881	10884.1
488.085	10777.61
488.289	10871.81
488.493	10818.57
488.697	10902.53
488.901	10857.48
489.105	10773.51
489.309	11023.36
489.512	10779.65
489.716	10949.64
489.92	10937.35
490.124	10963.97
490.328	11070.47
490.531	10861.57
490.735	10955.78
490.939	11052.03
491.143	10861.57
491.346	10982.4
491.55	11334.65
491.754	11191.3
491.958	11277.31
492.161	11224.06
492.365	11074.56
492.569	11213.82
492.772	11260.93
492.976	11508.73
493.18	11482.11
493.383	11502.59
493.587	11547.64
493.79	11789.3
493.994	11691
494.197	11836.41
494.401	11957.24
494.605	11963.38
494.808	12102.64
495.012	12024.82
495.215	12231.66
495.419	12282.86
495.622	12295.15
495.825	12522.48
496.029	12315.63
496.232	12860.39
496.436	12626.92
496.639	13009.89
496.843	12688.36
497.046	13038.56
497.249	13190.11
497.453	13239.26
497.656	13327.33
497.859	13229.02
498.063	13634.52
498.266	13906.9
498.469	13841.37
498.673	14074.84
498.876	14031.83
499.079	14246.87
499.282	14400.46
499.485	14838.73
499.689	14920.65
499.892	15096.77
500.095	14941.13
500.298	15451.07
500.501	15184.83
500.705	15901.62
500.908	15643.58
501.111	16016.31
501.314	16194.48
501.517	16165.81
501.72	16090.04
501.923	16366.51
502.126	16870.31
502.329	17105.83
502.532	17111.97
502.735	17316.77
502.938	17589.15
503.141	17476.51
503.344	17836.95
503.547	17929.11
503.75	18369.43
503.953	18357.14
504.156	18543.5
504.359	18729.87
504.562	18776.97
504.765	19223.43
504.968	19325.83
505.17	19637.12
505.373	19790.72
505.576	20208.5
505.779	20288.37
505.982	20298.61
506.185	20857.71
506.387	20700.01
506.59	20904.81
506.793	21443.43
506.996	21654.37
507.198	22080.35
507.401	22020.95
507.604	22047.58
507.807	22580.05
508.009	22661.97
508.212	22879.05
508.415	23006.03
508.617	23315.27
508.82	23518.02
509.022	23206.73
509.225	23855.93
509.428	24335.16
509.63	24331.06
509.833	24322.87
510.035	24933.17
510.238	25123.63
510.44	25273.13
510.643	25555.75
510.845	25934.62
511.048	26004.25
511.25	26243.87
511.453	26489.62
511.655	27161.36
511.858	27116.3
512.06	27263.75
512.262	27491.08
512.465	27144.97
512.667	27955.97
512.87	27931.39
513.072	27974.4
513.274	28750.58
513.477	28891.89
513.679	28773.11
513.881	29264.62
514.084	29608.68
514.286	29907.68
514.488	30290.65
514.69	30704.34
514.893	30626.52
515.095	30978.77
515.297	31359.69
515.499	31519.43
515.701	31869.64
515.904	31949.51
516.106	32213.7
516.308	32555.71
516.51	33002.16
516.712	32961.2
516.914	33538.73
517.116	33929.89
517.318	33581.74
517.52	34427.55
517.722	34468.51
517.925	34671.26
518.127	34980.5
518.329	35525.26
518.531	35107.47
518.733	36242.05
518.935	36258.43
519.136	36311.68
519.338	36858.49
519.54	36790.91
519.742	37245.55
519.944	37128.82
520.146	37937.77
520.348	37786.22
520.55	38480.48
520.752	38277.73
520.954	38969.94
521.155	38707.8
521.357	39625.29
521.559	39995.98
521.761	40612.41
521.963	40206.92
522.164	40505.92
522.366	40698.43
522.568	40960.57
522.77	41237.05
522.971	41775.66
523.173	41126.46
523.375	41818.67
523.576	41761.33
523.778	41876.01
523.98	42697.25
524.181	42883.61
524.383	42889.76
524.584	43362.84
524.786	43125.27
524.988	43166.23
525.189	43784.72
525.391	43971.08
525.592	44298.76
525.794	44554.75
525.995	44833.28
526.197	44663.3
526.398	44425.73
526.6	44788.22
526.801	45515.25
527.003	45654.51
527.204	45816.3
527.406	46191.08
527.607	45922.8
527.808	46635.49
528.01	45801.97
528.211	46199.27
528.412	47036.89
528.614	46494.18
528.815	46643.68
529.016	46903.77
529.218	46881.25
529.419	46995.93
529.62	46995.93
529.822	47591.89
530.023	47391.19
530.224	47532.5
530.425	47643.09
530.626	46791.14
530.828	47188.44
531.029	48333.26
531.23	47598.04
531.431	47706.58
531.632	48015.82
531.833	47729.11
532.035	48079.31
532.236	48095.69
532.437	48142.8
532.638	48087.5
532.839	48417.22
533.04	48699.84
533.241	47866.32
533.442	48871.87
533.643	48181.71
533.844	48378.31
534.045	48542.15
534.246	48048.59
534.447	48603.59
534.648	48366.02
534.849	48785.86
535.05	48114.12
535.251	48630.21
535.451	48517.57
535.652	48681.41
535.853	48447.94
536.054	48916.93
536.255	48955.84
536.456	48241.1
536.657	49019.33
536.857	48505.29
537.058	48493
537.259	49228.22
537.46	48677.32
537.66	48493
537.861	48589.25
538.062	48691.65
538.263	48693.7
538.463	48589.25
538.664	48439.75
538.865	48789.95
539.065	48812.48
539.266	48372.17
539.466	49101.25
539.667	48177.61
539.868	49074.62
540.068	48705.99
540.269	48169.42
540.469	49056.19
540.67	48327.11
540.87	48589.25
541.071	48544.2
541.271	48480.71
541.472	48660.93
541.672	48445.9
541.873	48665.03
542.073	47950.29
542.274	48593.35
542.474	48480.71
542.675	48026.06
542.875	48988.61
543.075	48480.71
543.276	47925.71
543.476	48566.73
543.676	48224.71
543.877	48474.57
544.077	48505.29
544.277	48433.61
544.478	48482.76
544.678	48515.53
544.878	48314.83
545.078	48437.7
545.279	48130.51
545.479	48216.52
545.679	48335.31
545.879	48243.15
546.079	48103.88
546.28	48173.52
546.48	47874.51
546.68	48222.67
546.88	48351.69
547.08	48179.66
547.28	47831.5
547.48	47360.47
547.68	48265.67
547.88	47581.65
548.081	48118.22
548.281	48392.65
548.481	48038.35
548.681	48325.07
548.881	47860.18
549.081	47933.9
549.28	48019.92
549.48	48128.46
549.68	48495.05
549.88	48374.22
550.08	47641.04
550.28	48185.8
550.48	47935.95
550.68	48060.88
550.88	47667.67
551.08	47329.75
551.279	48050.64
551.479	47499.73
551.679	47907.28
551.879	47624.66
552.079	48046.54
552.278	47634.9
552.478	47722.96
552.678	47466.97
552.878	48222.67
553.077	47925.71
553.277	47094.24
553.477	48142.8
553.676	47405.53
553.876	47311.32
554.076	47198.68
554.275	47702.48
554.475	47038.94
554.674	46981.6
554.874	47325.66
555.074	47104.48
555.273	47440.34
555.473	47411.67
555.672	47180.25
555.872	47127
556.071	47598.04
556.271	47063.52
556.47	46858.72
556.67	46584.29
556.869	46868.96
557.068	46858.72
557.268	47110.62
557.467	46580.2
557.667	46572
557.866	46961.12
558.065	46252.52
558.265	46410.21
558.464	46113.26
558.663	46602.72
558.863	46057.96
559.062	46729.7
559.261	46211.56
559.461	46277.1
559.66	45701.62
559.859	46236.14
560.058	46170.6
560.258	45883.89
560.457	45259.26
560.656	46070.25
560.855	46072.3
561.054	45793.78
561.253	45332.98
561.453	45556.21
561.652	45545.97
561.851	45570.55
562.05	45697.52
562.249	44861.95
562.448	45142.52
562.647	45146.62
562.846	45138.43
563.045	45068.79
563.244	44562.95
563.443	45113.85
563.642	44116.49
563.841	44700.16
564.04	44679.68
564.239	44988.92
564.438	44454.4
564.637	44134.92
564.836	44315.14
565.035	43872.78
565.234	44100.11
565.432	43717.14
565.631	43616.79
565.83	43455
566.029	43604.5
566.228	43504.15
566.427	43475.48
566.625	43563.54
566.824	42908.19
567.023	43395.6
567.222	42938.91
567.42	43270.68
567.619	43000.35
567.818	42471.97
568.016	42721.82
568.215	43229.72
568.414	42371.62
568.612	43158.04
568.811	42381.86
569.01	42934.81
569.208	41775.66
569.407	42170.92
569.605	41644.59
569.804	42009.13
570.002	41929.26
570.201	42000.94
570.4	41515.57
570.598	41204.28
570.797	41196.09
570.995	41730.61
571.193	41103.93
571.392	41620.02
571.59	40845.88
571.789	41368.12
571.987	40800.83
572.186	40841.79
572.384	40753.72
572.582	40737.34
572.781	40600.13
572.979	40348.23
573.177	40604.22
573.376	40348.23
573.574	40063.56
573.772	40272.45
573.971	39727.69
574.169	39944.78
574.367	39539.28
574.565	39815.76
574.763	39690.83
574.962	39260.76
575.16	39098.97
575.358	39623.25
575.556	38978.14
575.754	39744.08
575.952	39029.34
576.151	39467.6
576.349	38318.69
576.547	38697.56
576.745	38695.52
576.943	38496.86
577.141	38457.95
577.339	38486.62
577.537	38247.01
577.735	38445.66
577.933	38601.31
578.131	38240.87
578.329	38072.93
578.527	37730.92
578.725	37714.54
578.923	37788.27
579.121	37638.76
579.319	37687.92
579.516	37909.1
579.714	37509.74
579.912	37087.86
580.11	37139.06
580.308	37139.06
580.506	36856.44
580.704	36561.53
580.901	36649.6
581.099	37057.14
581.297	36569.72
581.495	36321.92
581.692	36299.39
581.89	36266.63
582.088	36412.03
582.285	36485.76
582.483	36336.26
582.681	36047.49
582.878	36145.8
583.076	35609.23
583.274	36176.51
583.471	35146.39
583.669	35400.33
583.866	35394.19
584.064	35390.09
584.262	35056.28
584.459	35238.54
584.657	34828.95
584.854	35406.48
585.052	34261.66
585.249	34820.76
585.447	34951.83
585.644	34464.41
585.841	34366.11
586.039	35009.17
586.236	34013.86
586.434	34362.01
586.631	33968.8
586.828	34294.43
587.026	33794.73
587.223	33868.45
587.42	34071.2
587.618	33944.23
587.815	33725.1
588.012	33356.46
588.21	33520.3
588.407	33591.98
588.604	33235.63
588.801	33217.2
588.999	33186.48
589.196	33149.62
589.393	33098.42
589.59	32670.39
589.787	32580.28
589.984	32613.05
590.182	32506.55
590.379	32660.15
590.576	32275.13
590.773	32244.41
590.97	32441.02
591.167	31775.43
591.364	31687.37
591.561	31853.25
591.758	31539.91
591.955	31408.84
592.152	31955.65
592.349	31404.75
592.546	31660.74
592.743	31617.74
592.94	31011.54
593.137	31318.73
593.334	31288.01
593.531	30755.54
593.727	31034.07
593.924	31056.59
594.121	30538.46
594.318	30507.74
594.515	30348
594.712	30790.36
594.908	30382.81
595.105	30309.08
595.302	29940.45
595.499	30077.66
595.696	29938.4
595.892	29887.2
596.089	30001.89
596.286	29836
596.482	30067.42
596.679	29625.06
596.876	29481.7
597.072	29467.37
597.269	29610.73
597.466	29295.34
597.662	29164.27
597.859	28984.05
598.055	29117.17
598.252	29012.72
598.448	28961.52
598.645	28531.45
598.841	28537.59
599.038	28723.96
599.234	28246.78
599.431	28263.16
599.627	28420.86
599.824	28363.51
600.02	27855.62
600.217	28416.76
600.413	27955.97
600.609	27802.37
600.806	27667.2
601.002	27892.48
601.198	27540.23
601.395	27507.46
601.591	27585.29
601.787	27716.36
601.984	27134.73
602.18	27486.98
602.376	26948.37
602.572	26929.94
602.769	27056.91
602.965	26874.64
603.161	26929.94
603.357	26510.1
603.553	26618.64
603.75	26774.29
603.946	26391.32
604.142	26256.15
604.338	26290.97
604.534	26387.22
604.73	26213.15
604.926	26010.4
605.122	26125.08
605.318	25791.27
605.514	25576.23
605.71	25555.75
605.906	25770.79
606.102	25660.2
606.298	25758.5
606.494	25479.97
606.69	25563.94
606.886	25609
607.082	25363.24
607.278	25338.66
607.474	24902.45
607.67	25205.55
607.866	24834.86
608.062	25064.24
608.257	25004.85
608.453	25008.94
608.649	24996.65
608.845	24685.36
609.041	24730.42
609.236	24779.57
609.432	24754.99
609.628	24734.51
609.824	24585.01
610.019	24763.18
610.215	24691.51
610.411	24814.38
610.606	24486.71
610.802	24349.5
610.998	24521.52
611.193	24435.51
611.389	24103.74
611.584	24134.46
611.78	24011.58
611.976	23978.81
612.171	24582.96
612.367	23909.18
612.562	23909.18
612.758	23757.63
612.953	23663.43
613.149	24003.39
613.344	23755.58
613.539	23911.23
613.735	23565.12
613.93	23792.45
614.126	23171.91
614.321	23544.64
614.517	23219.02
614.712	23339.85
614.907	23489.35
615.103	23421.77
615.298	23020.36
615.493	23358.28
615.688	22934.35
615.884	23419.72
616.079	22926.16
616.274	23153.48
616.47	23178.06
616.665	23094.09
616.86	23018.32
617.055	22885.2
617.25	22887.25
617.445	22649.68
617.641	22528.85
617.836	22696.78
618.031	22131.54
618.226	22508.37
618.421	22385.49
618.616	22557.52
618.811	21934.94
619.006	22418.26
619.201	21975.9
619.396	22145.88
619.591	21726.05
619.786	22180.7
619.981	21545.83
620.176	21963.61
620.371	21371.75
620.566	21853.02
620.761	21422.95
620.956	21603.17
621.151	21076.84
621.346	21177.19
621.541	21011.31
621.735	21572.45
621.93	20767.6
622.125	20708.21
622.32	20439.92
622.515	20353.91
622.709	20564.85
622.904	20650.86
623.099	20175.73
623.294	20329.33
623.488	19975.03
623.683	20159.35
623.878	19807.1
624.072	19768.19
624.267	19635.07
624.462	19680.13
624.656	19385.22
624.851	19583.87
625.046	19336.07
625.24	19131.27
625.435	19078.02
625.629	18934.67
625.824	19030.92
626.018	18852.75
626.213	18398.1
626.407	18365.33
626.602	18580.37
626.796	18353.04
626.991	18387.86
627.185	18025.37
627.38	18025.37
627.574	17912.73
627.768	17957.78
627.963	17654.69
628.157	17834.91
628.352	17656.73
628.546	17398.69
628.74	17585.05
628.935	17419.17
629.129	17214.37
629.323	16989.1
629.517	17097.64
629.712	16960.42
629.906	16765.87
630.1	16706.48
630.294	16653.23
630.489	16497.58
630.683	16741.29
630.877	16374.7
631.071	16079.8
631.265	16319.41
631.459	16343.99
631.653	16106.42
631.848	15889.34
632.042	16081.85
632.236	15979.45
632.43	15713.21
632.624	15641.53
632.818	15594.43
633.012	15455.17
633.206	15365.06
633.4	15549.37
633.594	15287.23
633.788	15174.6
633.982	15199.17
634.176	15246.27
634.369	14928.84
634.563	14873.54
634.757	14982.09
634.951	14912.46
635.145	14531.53
635.339	14631.88
635.533	14466
635.726	14185.43
635.92	14406.61
636.114	14308.3
636.308	14212.05
636.501	14261.2
636.695	14128.08
636.889	14293.97
637.083	13908.95
637.276	13876.18
637.47	13908.95
637.664	13781.98
637.857	13784.02
638.051	13665.24
638.244	13458.4
638.438	13589.47
638.632	13288.42
638.825	13341.66
639.019	13206.5
639.212	12997.6
639.406	13284.32
639.599	13067.24
639.793	12946.41
639.986	12747.75
640.18	12841.96
640.373	12786.66
640.567	12549.1
640.76	12704.74
640.954	12698.6
641.147	12583.91
641.34	12313.58
641.534	12420.08
641.727	12254.19
641.92	12213.23
642.114	12190.7
642.307	12166.13
642.5	11998.2
642.694	11877.37
642.887	11910.13
643.08	11887.61
643.273	11840.5
643.467	11805.69
643.66	11543.55
643.853	11543.55
644.046	11549.69
644.239	11498.49
644.432	11357.18
644.626	11150.34
644.819	11293.69
645.012	11262.97
645.205	11131.9
645.398	11275.26
645.591	11088.9
645.784	11039.75
645.977	10935.3
646.17	10839.05
646.363	10941.44
646.556	10693.64
646.749	10677.26
646.942	10583.05
647.135	10550.28
647.328	10638.34
647.521	10470.41
647.714	10286.09
647.907	10462.22
648.099	10511.37
648.292	10345.48
648.485	10341.39
648.678	10345.48
648.871	10181.65
649.064	10163.22
649.256	9999.38
649.449	9858.07
649.642	9921.56
649.835	9724.95
650.027	9890.84
650.22	9526.3
650.413	9802.77
650.605	9892.88
650.798	9491.48
650.991	9516.06
651.183	9507.87
651.376	9559.06
651.568	9514.01
651.761	9335.84
651.954	9384.99
652.146	9352.22
652.339	9401.37
652.531	9471
652.724	9219.1
652.916	9028.64
653.109	9008.16
653.301	8981.54
653.494	9135.14
653.686	8922.15
653.879	9108.51
654.071	8846.37
654.263	8639.53
654.456	8930.34
654.648	8811.56
654.84	8322.09
655.033	8512.55
655.225	8631.33
655.417	8623.14
655.61	8516.65
655.802	8627.24
655.994	8315.95
656.186	8346.67
656.379	8240.17
656.571	8332.33
656.763	8152.11
656.955	8188.97
657.148	8145.97
657.34	8162.35
657.532	8012.85
657.724	8258.6
657.916	8000.56
658.108	8066.1
658.3	8012.85
658.492	8059.95
658.684	7900.21
658.876	7887.92
659.068	7787.57
659.26	7486.52
659.452	7648.31
659.644	7740.47
659.836	7660.6
660.028	7488.57
660.22	7349.31
660.412	7611.45
660.604	7341.11
660.796	7287.87
660.988	7371.83
661.18	7291.96
661.372	7128.13
661.563	7463.99
661.755	7244.86
661.947	7244.86
662.139	7332.92
662.331	7218.24
662.522	7035.97
662.714	7066.69
662.906	6847.55
663.097	7103.55
663.289	6927.42
663.481	6937.66
663.673	6945.86
663.864	6863.94
664.056	6831.17
664.247	6966.34
664.439	6786.12
664.631	6880.32
664.822	6734.92
665.014	6810.69
665.205	6763.59
665.397	6736.96
665.588	6679.62
665.78	6452.3
665.971	6546.5
666.163	6558.79
666.354	6472.78
666.546	6487.11
666.737	6538.31
666.929	6423.62
667.12	6546.5
667.311	6431.82
667.503	6274.12
667.694	6427.72
667.885	6382.67
668.077	6130.77
668.268	6243.4
668.459	6401.1
668.651	6298.7
668.842	6343.75
669.033	6157.39
669.224	6143.05
669.416	6315.08
669.607	6112.33
669.798	6149.2
669.989	6218.83
670.18	6143.05
670.371	6229.07
670.563	5999.7
670.754	6038.61
670.945	5997.65
671.136	5846.1
671.327	5911.63
671.518	5944.4
671.709	5971.02
671.9	6042.7
672.091	6003.79
672.282	5909.58
672.473	5770.32
672.664	5921.87
672.855	5887.06
673.046	5954.64
673.237	5829.71
673.428	5819.47
673.619	5788.75
673.809	5749.84
674	5823.57
674.191	5715.03
674.382	5936.21
674.573	5786.71
674.764	5547.09
674.954	5762.13
675.145	5725.27
675.336	5622.87
675.527	5733.46
675.717	5817.43
675.908	5633.11
676.099	5749.84
676.289	5704.79
676.48	5616.72
676.671	5690.45
676.861	5717.08
677.052	5499.99
677.243	5571.67
677.433	5440.6
677.624	5635.16
677.814	5461.08
678.005	5598.29
678.195	5559.38
678.386	5426.26
678.576	5497.94
678.767	5559.38
678.957	5514.33
679.148	5637.2
679.338	5467.22
679.529	5510.23
679.719	5469.27
679.909	5553.24
680.1	5620.82
680.29	5454.94
680.481	5569.62
680.671	5543
680.861	5416.02
681.052	5467.22
681.242	5641.3
681.432	5452.89
681.622	5499.99
681.813	5524.57
682.003	5518.42
682.193	5358.68
682.383	5534.81
682.573	5475.42
682.764	5495.89
682.954	5579.86
683.144	5477.46
683.334	5409.88
683.524	5452.89
683.714	5381.21
683.904	5278.81
684.094	5495.89
684.284	5538.9
684.474	5387.35
684.664	5467.22
684.854	5280.86
685.044	5379.16
685.234	5108.83
685.424	5420.12
685.614	5131.36
685.804	5155.93
685.994	5157.98
686.184	5272.67
686.374	5311.58
686.564	5182.56
686.753	5248.09
686.943	5016.67
687.133	5200.99
687.323	5088.35
687.513	5026.91
687.702	5121.12
687.892	4990.05
688.082	5055.58
688.272	5102.68
688.461	5055.58
688.651	5026.91
688.841	4971.61
689.03	4971.61
689.22	4785.25
689.41	4901.98
689.599	4906.08
689.789	4789.35
689.979	4828.26
690.168	4785.25
690.358	4662.37
690.547	4719.71
690.737	4643.94
690.926	4908.13
691.116	4570.21
691.305	4670.56
691.495	4633.7
691.684	4547.69
691.874	4660.32
692.063	4559.97
692.252	4674.66
692.442	4543.59
692.631	4281.45
692.82	4398.18
693.01	4476.01
693.199	4351.08
693.388	4457.57
693.578	4414.57
693.767	4437.09
693.956	4322.41
694.146	4166.76
694.335	4213.87
694.524	4258.92
694.713	4349.03
694.902	4246.63
695.092	4281.45
695.281	4240.49
695.47	4342.89
695.659	4211.82
695.848	4131.95
696.037	4086.89
696.226	4240.49
696.415	4287.59
696.604	4240.49
696.793	4117.61
696.982	4054.12
697.171	4185.19
697.36	3939.44
697.549	4093.04
697.738	3947.63
697.927	3980.4
698.116	4105.32
698.305	4039.79
698.494	4011.12
698.683	4043.88
698.872	4252.78
699.061	3882.1
699.25	3998.83
699.438	4004.97
699.627	4047.98
699.816	3966.06
700.005	3900.53
700.193	3906.67
700.382	4103.28
700.571	4039.79
700.76	3949.68
700.948	3890.29
701.137	3900.53
701.326	4025.45
701.514	3857.52
701.703	3912.81
701.892	3951.73
702.08	4052.08
702.269	4011.12
702.457	3648.63
702.646	4011.12
702.834	3869.81
703.023	3982.45
703.212	3945.58
703.4	3763.31
703.589	3802.22
703.777	3806.32
703.965	3949.68
704.154	3775.6
704.342	3931.25
704.531	3927.15
704.719	3847.28
704.907	3996.78
705.096	3787.89
705.284	3802.22
705.472	3939.44
705.661	3859.57
705.849	3878
706.037	3810.42
706.226	3961.97
706.414	3904.62
706.602	3929.2
706.79	3933.29
706.979	3875.95
707.167	3945.58
707.355	3947.63
707.543	3794.03
707.731	3961.97
707.919	3800.18
708.107	4021.36
708.296	3992.69
708.484	3808.37
708.672	3902.58
708.86	3898.48
709.048	3933.29
709.236	3810.42
709.424	3904.62
709.612	3873.9
709.8	3921.01
709.988	3902.58
710.176	3966.06
710.364	4039.79
710.551	3982.45
710.739	3957.87
710.927	3878
711.115	3939.44
711.303	3990.64
711.491	3812.46
711.679	4054.12
711.866	3978.35
712.054	4029.55
712.242	4039.79
712.43	4068.46
712.617	3970.16
712.805	4004.97
712.993	3921.01
713.181	3767.41
713.368	4019.31
713.556	4019.31
713.744	3832.94
713.931	4242.54
714.119	3988.59
714.306	4097.13
714.494	3986.54
714.682	4109.42
714.869	3867.76
715.057	3968.11
715.244	3968.11
715.432	4060.27
715.619	4013.17
715.807	4029.55
715.994	4064.36
716.182	3972.21
716.369	4203.63
716.556	4134
716.744	4146.28
716.931	3935.34
717.119	4170.86
717.306	4099.18
717.493	4209.77
717.681	4177
717.868	4164.72
718.055	4043.88
718.242	4068.46
718.43	3961.97
718.617	4213.87
718.804	3978.35
718.991	4129.9
719.179	4119.66
719.366	4082.8
719.553	4064.36
719.74	4086.89
719.927	4240.49
720.114	4207.72
720.301	4125.8
720.488	4197.48
720.676	4136.04
720.863	4213.87
721.05	4134
721.237	4168.81
721.424	4125.8
721.611	4025.45
721.798	4041.84
721.985	4101.23
722.172	4101.23
722.358	4193.39
722.545	4303.98
722.732	4181.1
722.919	4217.96
723.106	4117.61
723.293	4189.29
723.48	4320.36
723.667	4123.76
723.853	4162.67
724.04	4144.24
724.227	4236.39
724.414	4174.95
724.6	4035.69
724.787	4195.43
724.974	4084.84
725.161	4220.01
725.347	4144.24
725.534	4211.82
725.72	4291.69
725.907	4346.98
726.094	4265.07
726.28	4187.24
726.467	4166.76
726.653	4134
726.84	4185.19
727.027	4289.64
727.213	4215.91
727.4	4191.34
727.586	4158.57
727.773	4168.81
727.959	4230.25
728.145	4320.36
728.332	4389.99
728.518	4254.83
728.705	4252.78
728.891	4371.56
729.077	4193.39
729.264	4242.54
729.45	4150.38
729.636	4330.6
729.823	4187.24
730.009	4318.31
730.195	4299.88
730.382	4228.2
730.568	4263.02
730.754	4349.03
730.94	4222.06
731.126	4297.83
731.313	4269.16
731.499	4203.63
731.685	4279.4
731.871	4289.64
732.057	4357.22
732.243	4271.21
732.429	4357.22
732.615	4400.23
732.801	4277.35
732.987	4273.26
733.173	4217.96
733.359	4289.64
733.545	4213.87
733.731	4123.76
733.917	4363.37
734.103	4328.55
734.289	4322.41
734.475	4199.53
734.661	4269.16
734.847	4375.66
735.033	4183.15
735.219	4322.41
735.404	4314.22
735.59	4318.31
735.776	4265.07
735.962	4289.64
736.148	4340.84
736.333	4306.02
736.519	4193.39
736.705	4258.92
736.89	4314.22
737.076	4297.83
737.262	4242.54
737.447	4166.76
737.633	4236.39
737.819	4238.44
738.004	4152.43
738.19	4328.55
738.375	4181.1
738.561	4303.98
738.747	4195.43
738.932	4263.02
739.118	4277.35
739.303	4082.8
739.489	4213.87
739.674	4181.1
739.859	4279.4
740.045	4172.91
740.23	4060.27
740.416	3984.49
740.601	4256.87
740.786	3951.73
740.972	3912.81
741.157	4066.41
741.342	3927.15
741.528	3855.47
741.713	4123.76
741.898	3890.29
742.084	4068.46
742.269	3951.73
742.454	4000.88
742.639	3978.35
742.824	3910.77
743.01	3791.98
743.195	3966.06
743.38	3804.27
743.565	3865.71
743.75	3941.49
743.935	3914.86
744.12	3869.81
744.305	3912.81
744.49	3814.51
744.675	3775.6
744.86	3781.74
745.045	3992.69
745.23	3699.83
745.415	3701.87
745.6	3779.7
745.785	3609.72
745.97	3662.96
746.155	3726.45
746.34	3652.72
746.525	3626.1
746.71	3636.34
746.895	3658.87
747.079	3531.89
747.264	3474.55
747.449	3642.48
747.634	3513.46
747.819	3499.13
748.003	3495.03
748.188	3366.01
748.373	3445.88
748.557	3374.2
748.742	3327.1
748.927	3312.76
749.111	3361.91
749.296	3200.12
749.481	3523.7
749.665	3126.39
749.85	3159.16
750.034	3169.4
750.219	3142.78
750.404	3302.52
750.588	3208.31
750.773	3060.86
750.957	3097.72
751.141	3101.82
751.326	2964.61
751.51	3085.44
751.695	3046.52
751.879	3048.57
752.064	2966.65
752.248	3021.95
752.432	3019.9
752.617	2970.75
752.801	2915.45
752.985	2905.21
753.17	2940.03
753.354	2905.21
753.538	2856.06
753.722	2821.25
753.907	2741.38
754.091	2794.62
754.275	2671.75
754.459	2718.85
754.643	2643.07
754.828	2768
755.012	2528.39
755.196	2651.27
755.38	2610.31
755.564	2544.77
755.748	2577.54
755.932	2610.31
756.116	2593.92
756.3	2454.66
756.484	2387.08
756.668	2495.62
756.852	2505.86
757.036	2524.29
757.22	2385.03
757.404	2495.62
757.588	2456.71
757.772	2421.89
757.956	2471.04
758.14	2438.28
758.323	2307.21
758.507	2311.3
758.691	2311.3
758.875	2362.5
759.059	2360.45
759.242	2225.29
759.426	2251.91
759.61	2264.2
759.794	2157.71
759.977	2299.02
760.161	2268.3
760.345	2225.29
760.528	2176.14
760.712	2157.71
760.895	2213
761.079	2167.95
761.263	2040.97
761.446	2118.79
761.63	2065.55
761.813	2198.67
761.997	2045.07
762.18	2020.49
762.364	2032.78
762.547	2022.54
762.731	2004.11
762.914	1989.77
763.098	1997.96
763.281	1983.63
763.464	2063.5
763.648	2010.25
763.831	1965.2
764.015	2024.59
764.198	1981.58
764.381	1897.61
764.564	1914
764.748	1922.19
764.931	1932.43
765.114	1842.32
765.297	1893.52
765.481	1903.76
765.664	1819.79
765.847	1893.52
766.03	1856.65
766.213	1791.12
766.397	1873.04
766.58	1803.41
766.763	1879.18
766.946	1764.5
767.129	1848.46
767.312	1752.21
767.495	1791.12
767.678	1741.97
767.861	1832.08
768.044	1780.88
768.227	1809.55
768.41	1692.82
768.593	1692.82
768.776	1717.39
768.959	1709.2
769.142	1774.74
769.324	1662.1
769.507	1582.23
769.69	1678.48
769.873	1600.66
770.056	1606.8
770.239	1674.39
770.421	1637.52
770.604	1610.9
770.787	1719.44
770.97	1555.6
771.152	1596.56
771.335	1549.46
771.518	1498.26
771.7	1662.1
771.883	1569.94
772.066	1528.98
772.248	1635.47
772.431	1506.45
772.613	1514.64
772.796	1465.49
772.978	1442.96
773.161	1586.32
773.343	1496.21
773.526	1404.05
773.708	1387.67
773.891	1410.2
774.073	1442.96
774.256	1549.46
774.438	1494.16
774.621	1399.96
774.803	1488.02
774.985	1275.03
775.168	1393.81
775.35	1334.42
775.532	1397.91
775.715	1318.04
775.897	1332.37
776.079	1324.18
776.261	1287.32
776.444	1309.85
776.626	1238.17
776.808	1299.61
776.99	1236.12
777.173	1309.85
777.355	1236.12
777.537	1215.64
777.719	1217.69
777.901	1211.54
778.083	1252.5
778.265	1119.39
778.447	1299.61
778.629	1139.87
778.811	1168.54
778.993	1219.74
779.175	1133.72
779.357	1195.16
779.539	1219.74
779.721	1098.91
779.903	1043.61
780.085	1094.81
780.267	1072.28
780.449	1070.23
780.631	1176.73
780.812	1066.14
780.994	1033.37
781.176	1082.52
781.358	969.88
781.54	1064.09
781.721	984.22
781.903	971.93
782.085	1066.14
782.267	1025.18
782.448	906.4
782.63	914.59
782.812	935.07
782.993	1004.7
783.175	922.78
783.357	910.49
783.538	881.82
783.72	892.06
783.901	939.16
784.083	924.83
784.264	982.17
784.446	853.15
784.627	900.25
784.809	912.54
784.99	849.05
785.172	904.35
785.353	842.91
785.535	797.85
785.716	820.38
785.897	873.63
786.079	775.33
786.26	840.86
786.441	857.25
786.623	717.98
786.804	816.29
786.985	699.55
787.167	769.18
787.348	828.57
787.529	742.56
787.71	861.34
787.891	767.13
788.073	777.37
788.254	771.23
788.435	769.18
788.616	773.28
788.797	664.74
788.978	760.99
789.159	711.84
789.34	750.75
789.522	720.03
789.703	638.11
789.884	685.22
790.065	705.7
790.246	707.74
790.427	679.07
790.607	791.71
790.788	652.45
790.969	570.53
791.15	701.6
791.331	644.26
791.512	586.91
791.693	597.15
791.874	539.81
792.054	713.89
792.235	668.83
792.416	570.53
792.597	605.35
792.778	619.68
792.958	693.41
793.139	652.45
793.32	582.82
793.5	640.16
793.681	703.65
793.862	599.2
794.042	564.39
794.223	560.29
794.404	570.53
794.584	480.42
794.765	509.09
794.945	494.76
795.126	527.52
795.306	548
795.487	494.76
795.667	572.58
795.848	461.99
796.028	533.67
796.209	609.44
796.389	545.95
796.57	517.28
796.75	476.32
796.93	527.52
797.111	539.81
797.291	523.43
797.471	537.76
797.652	457.89
797.832	533.67
798.012	578.72
798.192	478.37
798.373	500.9
798.553	517.28
798.733	515.23
798.913	392.36
799.093	437.41
799.274	584.87
799.454	414.88
799.634	492.71
799.814	488.61
799.994	459.94
800.174	439.46
800.354	392.36
800.534	478.37
800.714	490.66
800.894	476.32
801.074	425.12
801.254	418.98
801.434	494.76
801.614	443.56
801.794	359.59
801.974	1287.32
802.154	441.51
802.334	519.33
802.514	472.23
802.693	406.69
802.873	404.64
803.053	466.08
803.233	431.27
803.413	373.92
803.592	341.16
803.772	431.27
803.952	425.12
804.131	416.93
804.311	423.08
804.491	408.74
804.67	390.31
804.85	382.12
805.03	425.12
805.209	449.7
805.389	330.92
805.568	251.05
805.748	408.74
805.928	349.35
806.107	394.4
806.287	418.98
806.466	457.89
806.646	343.21
806.825	357.54
807.004	382.12
807.184	326.82
807.363	367.78
807.543	427.17
807.722	332.97
807.901	324.77
808.081	382.12
808.26	218.28
808.439	404.64
808.619	324.77
808.798	365.73
808.977	382.12
809.156	459.94
809.336	257.19
809.515	310.44
809.694	296.1
809.873	347.3
810.052	318.63
810.231	310.44
810.411	304.29
810.59	429.22
810.769	332.97
810.948	357.54
811.127	251.05
811.306	171.18
811.485	289.96
811.664	357.54
811.843	318.63
812.022	384.16
812.201	216.23
812.38	316.58
812.559	285.86
812.737	277.67
812.916	292.01
813.095	236.71
813.274	294.05
813.453	332.97
813.632	304.29
813.811	306.34
813.989	263.33
814.168	302.25
814.347	240.81
814.526	226.47
814.704	302.25
814.883	269.48
815.062	205.99
815.24	339.11
815.419	265.38
815.598	242.85
815.776	197.8
815.955	173.22
816.133	162.98
816.312	386.21
816.49	257.19
816.669	265.38
816.847	343.21
817.026	246.95
817.204	167.08
817.383	234.66
817.561	210.09
817.74	257.19
817.918	304.29
818.097	220.33
818.275	185.51
818.453	271.53
818.632	328.87
818.81	267.43
818.988	193.7
819.167	222.38
819.345	222.38
819.523	173.22
819.701	56.49
819.879	205.99
820.058	251.05
820.236	275.62
820.414	253.09
820.592	158.89
820.77	201.9
820.948	228.52
821.127	246.95
821.305	187.56
821.483	236.71
821.661	246.95
821.839	201.9
822.017	171.18
822.195	158.89
822.373	208.04
822.551	191.66
822.729	214.18
822.907	201.9
823.085	285.86
823.262	146.6
823.44	191.66
823.618	205.99
823.796	236.71
823.974	203.94
824.152	242.85
824.329	160.94
824.507	259.24
824.685	236.71
824.863	132.26
825.04	226.47
825.218	160.94
825.396	154.79
825.574	214.18
825.751	210.09
825.929	236.71
826.107	189.61
826.284	226.47
826.462	171.18
826.639	203.94
826.817	130.22
826.994	212.14
827.172	171.18
827.349	259.24
827.527	193.7
827.704	201.9
827.882	144.55
828.059	230.57
828.237	165.03
828.414	154.79
828.591	91.31
828.769	130.22
828.946	99.5
829.124	179.37
829.301	263.33
829.478	79.02
829.655	179.37
829.833	144.55
830.01	134.31
830.187	185.51
830.364	152.74
830.542	152.74
830.719	220.33
830.896	142.5
831.073	169.13
831.25	179.37
831.427	193.7
831.604	134.31
831.782	76.97
831.959	87.21
832.136	150.7
832.313	122.02
832.49	105.64
832.667	234.66
832.844	191.66
833.021	181.42
833.198	146.6
833.374	126.12
833.551	156.84
833.728	162.98
833.905	122.02
834.082	119.98
834.259	169.13
834.436	169.13
834.612	99.5
834.789	175.27
834.966	140.46
835.143	208.04
835.319	113.83
835.496	156.84
835.673	162.98
835.85	197.8
836.026	136.36
836.203	148.65
836.38	87.21
836.556	113.83
836.733	117.93
836.909	134.31
837.086	107.69
837.262	76.97
837.439	122.02
837.616	27.82
837.792	105.64
837.968	132.26
838.145	101.55
838.321	31.91
838.498	56.49
838.674	187.56
838.851	105.64
839.027	138.41
839.203	99.5
839.38	146.6
839.556	-9.05
839.732	156.84
839.909	124.07
840.085	81.07
840.261	74.92
840.437	95.4
840.614	130.22
840.79	195.75
840.966	111.78
841.142	72.87
841.318	101.55
841.494	175.27
841.671	113.83
841.847	36.01
842.023	103.59
842.199	144.55
842.375	97.45
842.551	124.07
842.727	70.83
842.903	162.98
843.079	89.26
843.255	175.27
843.431	95.4
843.607	91.31
843.783	-39.76
843.959	122.02
844.134	72.87
844.31	185.51
844.486	66.73
844.662	97.45
844.838	89.26
845.013	76.97
845.189	130.22
845.365	68.78
845.541	95.4
845.716	31.91
845.892	46.25
846.068	87.21
846.244	89.26
846.419	177.32
846.595	50.35
846.77	36.01
846.946	119.98
847.122	68.78
847.297	62.63
847.473	185.51
847.648	46.25
847.824	95.4
847.999	31.91
848.175	83.11
848.35	87.21
848.526	175.27
848.701	117.93
848.876	89.26
849.052	136.36
849.227	62.63
849.403	105.64
849.578	64.68
849.753	107.69
849.929	185.51
850.104	25.77
850.279	91.31
850.454	156.84
850.63	111.78
850.805	89.26
850.98	42.15
851.155	36.01
851.33	115.88
851.505	1.19
851.681	130.22
851.856	81.07
852.031	146.6
852.206	117.93
852.381	81.07
852.556	56.49
852.731	85.16
852.906	60.59
853.081	83.11
853.256	122.02
853.431	79.02
853.606	7.34
853.781	5.29
853.956	29.87
854.131	81.07
854.305	40.11
854.48	56.49
854.655	1.19
854.83	3.24
855.005	70.83
855.18	79.02
855.354	21.67
855.529	81.07
855.704	54.44
855.879	72.87
856.053	23.72
856.228	56.49
856.403	-2.9
856.577	-2.9
856.752	23.72
856.926	93.35
857.101	50.35
857.276	9.39
857.45	156.84
857.625	81.07
857.799	17.58
857.974	44.2
858.148	33.96
858.323	122.02
858.497	81.07
858.672	13.48
858.846	5.29
859.02	70.83
859.195	7.34
859.369	42.15
859.543	-41.81
859.718	83.11
859.892	40.11
860.066	74.92
860.241	-66.39
860.415	95.4
860.589	52.39
860.763	38.06
860.938	58.54
861.112	40.11
861.286	31.91
861.46	13.48
861.634	-9.05
861.808	74.92
861.982	7.34
862.157	15.53
862.331	33.96
862.505	-17.24
862.679	3.24
862.853	-2.9
863.027	-7
863.201	122.02
863.375	64.68
863.549	7.34
863.722	111.78
863.896	95.4
864.07	17.58
864.244	79.02
864.418	50.35
864.592	40.11
864.766	25.77
864.939	-21.33
865.113	64.68
865.287	111.78
865.461	-11.09
865.634	-0.85
865.808	54.44
865.982	-2.9
866.156	11.43
866.329	-33.62
866.503	19.63
866.676	21.67
866.85	46.25
867.024	-27.48
867.197	97.45
867.371	44.2
867.544	81.07
867.718	13.48
867.891	46.25
868.065	21.67
868.238	21.67
868.412	62.63
868.585	23.72
868.759	58.54
868.932	66.73
869.105	9.39
869.279	42.15
869.452	33.96
869.625	-0.85
869.799	23.72
869.972	-50
870.145	-7
870.319	-33.62
870.492	7.34
870.665	40.11
870.838	-64.34
871.011	-11.09
871.185	-15.19
871.358	-47.96
871.531	72.87
871.704	-27.48
871.877	56.49
872.05	79.02
872.223	-52.05
872.396	27.82
872.569	101.55
872.742	17.58
872.915	48.3
873.088	-31.57
873.261	25.77
873.434	101.55
873.607	1.19
873.78	79.02
873.953	-39.76
874.126	40.11
874.299	70.83
874.471	58.54
874.644	21.67
874.817	38.06
874.99	111.78
875.163	33.96
875.335	-2.9
875.508	-54.1
875.681	89.26
875.853	36.01
876.026	-39.76
876.199	140.46
876.371	54.44
876.544	17.58
876.717	81.07
876.889	7.34
877.062	119.98
877.234	25.77
877.407	-33.62
877.579	31.91
877.752	50.35
877.924	95.4
878.097	58.54
878.269	-13.14
878.442	42.15
878.614	33.96
878.786	58.54
878.959	113.83
879.131	21.67
879.303	-76.63
879.476	-19.29
879.648	81.07
879.82	50.35
879.993	1.19
880.165	-66.39
880.337	9.39
880.509	-7
880.681	-27.48
880.854	33.96
881.026	62.63
881.198	97.45
881.37	13.48
881.542	97.45
881.714	-21.33
881.886	-45.91
882.058	40.11
882.23	3.24
882.402	122.02
882.574	5.29
882.746	33.96
882.918	113.83
883.09	87.21
883.262	-27.48
883.434	15.53
883.606	-56.15
883.778	-9.05
883.95	52.39
884.122	11.43
884.293	52.39
884.465	74.92
884.637	31.91
884.809	-31.57
884.98	62.63
885.152	-23.38
885.324	-4.95
885.496	-35.67
885.667	115.88
885.839	-17.24
886.011	85.16
886.182	111.78
886.354	64.68
886.525	52.39
886.697	44.2
886.869	-105.3
887.04	33.96
887.212	33.96
887.383	44.2
887.555	27.82
887.726	-4.95
887.897	3.24
888.069	-23.38
888.24	81.07
888.412	-54.1
888.583	38.06
888.754	-15.19
888.926	11.43
889.097	21.67
889.268	-27.48
889.44	-2.9
889.611	-84.82
889.782	-11.09
889.953	-35.67
890.125	83.11
890.296	33.96
890.467	54.44
890.638	-0.85
890.809	5.29
890.98	-27.48
891.151	21.67
891.323	122.02
891.494	62.63
891.665	74.92
891.836	-11.09
892.007	66.73
892.178	29.87
892.349	19.63
892.52	-52.05
892.691	40.11
892.862	-2.9
893.032	-27.48
893.203	3.24
893.374	19.63
893.545	-37.72
893.716	-47.96
893.887	29.87
894.057	-11.09
894.228	83.11
894.399	-19.29
894.57	128.17
894.74	-11.09
894.911	-23.38
895.082	-13.14
895.253	13.48
895.423	36.01
895.594	85.16
895.764	58.54
895.935	-50
896.106	68.78
896.276	-0.85
896.447	101.55
896.617	-39.76
896.788	-21.33
896.958	54.44
897.129	5.29
897.299	-13.14
897.47	17.58
897.64	31.91
897.81	9.39
897.981	89.26
898.151	1.19
898.322	1.19
898.492	19.63
898.662	27.82
898.832	-13.14
899.003	-2.9
899.173	58.54
899.343	-39.76
899.513	-66.39
