Data from USB4F104151__12__13-04-22-292.txt Node

Date: Fri Mar 14 13:04:22 EDT 2025
User: louis
Spectrometer: USB4F10415
Trigger mode: 4
Integration Time (sec): 4.000000E-2
Scans to average: 1
Electric dark correction enabled: true
Nonlinearity correction enabled: false
Boxcar width: 0
XAxis mode: Wavelengths
Number of Pixels in Spectrum: 3648
>>>>>Begin Spectral Data<<<<<
178.204	-157.01
178.424	-157.01
178.644	-157.01
178.864	-167.25
179.084	-234.83
179.304	8.87
179.524	-34.13
179.744	-36.18
179.964	94.89
180.184	17.07
180.404	15.02
180.624	-27.99
180.844	-23.89
181.064	-40.28
181.283	47.79
181.503	-64.85
181.723	43.69
181.943	-93.52
182.163	88.75
182.383	-7.51
182.602	70.31
182.822	94.89
183.042	78.51
183.262	55.98
183.482	35.5
183.701	33.45
183.921	66.22
184.141	-66.9
184.361	78.51
184.58	31.4
184.8	62.12
185.02	139.94
185.239	15.02
185.459	80.55
185.679	-46.42
185.898	-23.89
186.118	45.74
186.338	23.21
186.557	146.09
186.777	64.17
186.997	15.02
187.216	66.22
187.436	148.14
187.655	53.93
187.875	23.21
188.095	8.87
188.314	64.17
188.534	144.04
188.753	64.17
188.973	64.17
189.192	-19.8
189.412	55.98
189.631	80.55
189.851	29.35
190.07	66.22
190.29	-19.8
190.509	8.87
190.729	117.42
190.948	47.79
191.168	279.21
191.387	88.75
191.607	6.83
191.826	80.55
192.045	-34.13
192.265	35.5
192.484	80.55
192.704	70.31
192.923	-62.8
193.142	60.07
193.362	133.8
193.581	68.27
193.8	35.5
194.02	137.9
194.239	17.07
194.458	37.55
194.678	33.45
194.897	23.21
195.116	53.93
195.335	68.27
195.555	80.55
195.774	111.27
195.993	41.64
196.212	49.83
196.432	68.27
196.651	21.16
196.87	37.55
197.089	121.51
197.308	19.11
197.528	90.79
197.747	25.26
197.966	60.07
198.185	70.31
198.404	45.74
198.623	33.45
198.842	74.41
199.062	68.27
199.281	86.7
199.5	103.08
199.719	66.22
199.938	76.46
200.157	135.85
200.376	43.69
200.595	70.31
200.814	35.5
201.033	6.83
201.252	27.31
201.471	64.17
201.69	131.75
201.909	-15.7
202.128	64.17
202.347	45.74
202.566	74.41
202.785	-17.75
203.004	-1.37
203.223	53.93
203.442	29.35
203.661	31.4
203.879	51.88
204.098	49.83
204.317	-56.66
204.536	92.84
204.755	-1.37
204.974	72.36
205.193	55.98
205.411	166.57
205.63	103.08
205.849	-19.8
206.068	74.41
206.287	29.35
206.505	8.87
206.724	-23.89
206.943	51.88
207.162	25.26
207.381	92.84
207.599	45.74
207.818	4.78
208.037	25.26
208.255	68.27
208.474	119.46
208.693	62.12
208.911	35.5
209.13	33.45
209.349	47.79
209.567	-1.37
209.786	117.42
210.005	121.51
210.223	-9.56
210.442	-32.08
210.661	37.55
210.879	-13.65
211.098	58.03
211.316	33.45
211.535	127.66
211.753	17.07
211.972	62.12
212.191	12.97
212.409	41.64
212.628	-50.52
212.846	92.84
213.065	6.83
213.283	84.65
213.502	4.78
213.72	8.87
213.938	31.4
214.157	-17.75
214.375	78.51
214.594	53.93
214.812	70.31
215.031	-3.41
215.249	39.59
215.467	66.22
215.686	127.66
215.904	62.12
216.122	-3.41
216.341	92.84
216.559	90.79
216.778	29.35
216.996	37.55
217.214	29.35
217.432	31.4
217.651	-19.8
217.869	64.17
218.087	25.26
218.306	12.97
218.524	90.79
218.742	-9.56
218.96	47.79
219.179	53.93
219.397	123.56
219.615	92.84
219.833	113.32
220.051	0.68
220.27	68.27
220.488	49.83
220.706	119.46
220.924	-19.8
221.142	-9.56
221.36	29.35
221.578	10.92
221.796	51.88
222.015	39.59
222.233	17.07
222.451	43.69
222.669	-44.37
222.887	92.84
223.105	-34.13
223.323	21.16
223.541	37.55
223.759	-3.41
223.977	31.4
224.195	62.12
224.413	58.03
224.631	51.88
224.849	31.4
225.067	105.13
225.285	0.68
225.503	37.55
225.721	-19.8
225.939	4.78
226.157	10.92
226.375	172.71
226.592	-9.56
226.81	90.79
227.028	121.51
227.246	60.07
227.464	96.94
227.682	88.75
227.9	-32.08
228.117	66.22
228.335	23.21
228.553	-40.28
228.771	51.88
228.989	80.55
229.206	37.55
229.424	47.79
229.642	25.26
229.86	55.98
230.077	135.85
230.295	58.03
230.513	133.8
230.731	117.42
230.948	88.75
231.166	152.23
231.384	4.78
231.601	4.78
231.819	144.04
232.037	27.31
232.254	86.7
232.472	12.97
232.689	12.97
232.907	86.7
233.125	21.16
233.342	4.78
233.56	-5.46
233.777	2.73
233.995	39.59
234.213	135.85
234.43	86.7
234.648	39.59
234.865	19.11
235.083	12.97
235.3	35.5
235.518	29.35
235.735	96.94
235.953	70.31
236.17	49.83
236.388	17.07
236.605	15.02
236.822	111.27
237.04	107.18
237.257	53.93
237.475	80.55
237.692	86.7
237.909	51.88
238.127	-25.94
238.344	41.64
238.562	47.79
238.779	2.73
238.996	-32.08
239.214	70.31
239.431	78.51
239.648	6.83
239.865	39.59
240.083	94.89
240.3	2.73
240.517	-13.65
240.735	15.02
240.952	109.22
241.169	62.12
241.386	70.31
241.603	78.51
241.821	29.35
242.038	45.74
242.255	58.03
242.472	86.7
242.689	-1.37
242.907	111.27
243.124	21.16
243.341	51.88
243.558	4.78
243.775	-15.7
243.992	-44.37
244.209	107.18
244.426	125.61
244.643	49.83
244.86	-9.56
245.078	84.65
245.295	62.12
245.512	33.45
245.729	-60.76
245.946	103.08
246.163	86.7
246.38	62.12
246.597	51.88
246.814	6.83
247.031	121.51
247.248	74.41
247.464	-9.56
247.681	103.08
247.898	-25.94
248.115	123.56
248.332	62.12
248.549	55.98
248.766	98.99
248.983	45.74
249.2	-79.19
249.417	47.79
249.633	29.35
249.85	27.31
250.067	43.69
250.284	58.03
250.501	53.93
250.717	68.27
250.934	31.4
251.151	47.79
251.368	84.65
251.585	107.18
251.801	84.65
252.018	37.55
252.235	101.03
252.451	-38.23
252.668	33.45
252.885	117.42
253.102	51.88
253.318	78.51
253.535	51.88
253.752	31.4
253.968	37.55
254.185	-3.41
254.401	31.4
254.618	-9.56
254.835	0.68
255.051	78.51
255.268	96.94
255.484	78.51
255.701	62.12
255.917	31.4
256.134	12.97
256.351	88.75
256.567	-52.56
256.784	15.02
257	-11.61
257.217	25.26
257.433	70.31
257.65	66.22
257.866	41.64
258.082	8.87
258.299	-60.76
258.515	55.98
258.732	90.79
258.948	19.11
259.165	-64.85
259.381	31.4
259.597	74.41
259.814	41.64
260.03	29.35
260.246	25.26
260.463	137.9
260.679	31.4
260.895	8.87
261.112	62.12
261.328	41.64
261.544	55.98
261.761	152.23
261.977	-1.37
262.193	-27.99
262.409	15.02
262.626	55.98
262.842	82.6
263.058	55.98
263.274	62.12
263.49	37.55
263.707	111.27
263.923	88.75
264.139	-17.75
264.355	10.92
264.571	103.08
264.787	53.93
265.004	107.18
265.22	-19.8
265.436	62.12
265.652	39.59
265.868	64.17
266.084	21.16
266.3	86.7
266.516	0.68
266.732	58.03
266.948	78.51
267.164	80.55
267.38	37.55
267.596	27.31
267.812	115.37
268.028	60.07
268.244	55.98
268.46	45.74
268.676	41.64
268.892	72.36
269.108	4.78
269.324	21.16
269.54	4.78
269.756	2.73
269.972	37.55
270.188	72.36
270.403	12.97
270.619	68.27
270.835	23.21
271.051	53.93
271.267	-5.46
271.483	21.16
271.698	19.11
271.914	-9.56
272.13	-1.37
272.346	-7.51
272.562	17.07
272.777	-27.99
272.993	29.35
273.209	0.68
273.425	15.02
273.64	-62.8
273.856	43.69
274.072	51.88
274.287	-3.41
274.503	62.12
274.719	39.59
274.934	111.27
275.15	37.55
275.366	2.73
275.581	19.11
275.797	92.84
276.012	78.51
276.228	47.79
276.444	31.4
276.659	84.65
276.875	-27.99
277.09	-68.95
277.306	4.78
277.521	6.83
277.737	35.5
277.952	0.68
278.168	109.22
278.383	144.04
278.599	35.5
278.814	41.64
279.03	12.97
279.245	49.83
279.461	33.45
279.676	78.51
279.892	-64.85
280.107	-25.94
280.322	10.92
280.538	39.59
280.753	-68.95
280.969	70.31
281.184	-3.41
281.399	98.99
281.615	119.46
281.83	43.69
282.045	66.22
282.26	111.27
282.476	-11.61
282.691	15.02
282.906	37.55
283.122	121.51
283.337	0.68
283.552	90.79
283.767	8.87
283.983	37.55
284.198	12.97
284.413	152.23
284.628	-32.08
284.843	27.31
285.058	92.84
285.274	19.11
285.489	0.68
285.704	121.51
285.919	31.4
286.134	12.97
286.349	10.92
286.564	64.17
286.779	129.7
286.995	47.79
287.21	-71
287.425	39.59
287.64	10.92
287.855	98.99
288.07	8.87
288.285	90.79
288.5	96.94
288.715	12.97
288.93	43.69
289.145	-27.99
289.36	35.5
289.575	-42.32
289.79	103.08
290.004	37.55
290.219	90.79
290.434	72.36
290.649	37.55
290.864	-7.51
291.079	25.26
291.294	47.79
291.509	15.02
291.724	98.99
291.938	27.31
292.153	19.11
292.368	-30.04
292.583	82.6
292.798	70.31
293.012	25.26
293.227	82.6
293.442	-7.51
293.657	166.57
293.871	111.27
294.086	-15.7
294.301	86.7
294.516	92.84
294.73	27.31
294.945	2.73
295.16	96.94
295.374	88.75
295.589	90.79
295.804	43.69
296.018	37.55
296.233	150.18
296.447	53.93
296.662	58.03
296.877	152.23
297.091	64.17
297.306	105.13
297.52	103.08
297.735	-3.41
297.949	72.36
298.164	31.4
298.378	70.31
298.593	74.41
298.807	-5.46
299.022	64.17
299.236	70.31
299.451	76.46
299.665	96.94
299.88	-50.52
300.094	101.03
300.309	74.41
300.523	6.83
300.737	58.03
300.952	55.98
301.166	64.17
301.381	-30.04
301.595	37.55
301.809	12.97
302.024	45.74
302.238	-46.42
302.452	86.7
302.667	55.98
302.881	105.13
303.095	31.4
303.309	58.03
303.524	2.73
303.738	55.98
303.952	-3.41
304.166	82.6
304.381	10.92
304.595	62.12
304.809	33.45
305.023	-68.95
305.237	-17.75
305.452	27.31
305.666	121.51
305.88	119.46
306.094	27.31
306.308	4.78
306.522	94.89
306.736	8.87
306.95	88.75
307.164	37.55
307.379	-75.09
307.593	90.79
307.807	27.31
308.021	117.42
308.235	74.41
308.449	-9.56
308.663	19.11
308.877	205.48
309.091	60.07
309.305	82.6
309.519	21.16
309.733	51.88
309.947	-50.52
310.161	47.79
310.374	33.45
310.588	47.79
310.802	15.02
311.016	37.55
311.23	90.79
311.444	12.97
311.658	109.22
311.872	70.31
312.085	105.13
312.299	62.12
312.513	78.51
312.727	74.41
312.941	31.4
313.154	45.74
313.368	80.55
313.582	27.31
313.796	31.4
314.009	55.98
314.223	58.03
314.437	15.02
314.651	88.75
314.864	-30.04
315.078	39.59
315.292	-3.41
315.505	51.88
315.719	80.55
315.933	98.99
316.146	19.11
316.36	-19.8
316.573	84.65
316.787	6.83
317.001	37.55
317.214	0.68
317.428	80.55
317.641	35.5
317.855	72.36
318.068	21.16
318.282	-7.51
318.495	98.99
318.709	-27.99
318.922	55.98
319.136	96.94
319.349	60.07
319.563	23.21
319.776	80.55
319.99	43.69
320.203	33.45
320.417	27.31
320.63	70.31
320.843	139.94
321.057	47.79
321.27	94.89
321.483	123.56
321.697	144.04
321.91	58.03
322.124	70.31
322.337	53.93
322.55	37.55
322.763	17.07
322.977	58.03
323.19	-58.71
323.403	70.31
323.617	66.22
323.83	62.12
324.043	72.36
324.256	62.12
324.469	12.97
324.683	98.99
324.896	39.59
325.109	-17.75
325.322	78.51
325.535	90.79
325.748	31.4
325.962	8.87
326.175	4.78
326.388	29.35
326.601	88.75
326.814	66.22
327.027	101.03
327.24	62.12
327.453	21.16
327.666	119.46
327.879	47.79
328.092	55.98
328.305	49.83
328.518	19.11
328.731	51.88
328.944	121.51
329.157	-13.65
329.37	66.22
329.583	74.41
329.796	101.03
330.009	6.83
330.222	41.64
330.435	31.4
330.648	37.55
330.861	21.16
331.073	146.09
331.286	113.32
331.499	41.64
331.712	4.78
331.925	-3.41
332.138	86.7
332.35	47.79
332.563	19.11
332.776	88.75
332.989	21.16
333.202	47.79
333.414	0.68
333.627	19.11
333.84	-11.61
334.053	-7.51
334.265	27.31
334.478	55.98
334.691	74.41
334.903	27.31
335.116	25.26
335.329	4.78
335.541	86.7
335.754	27.31
335.966	82.6
336.179	19.11
336.392	80.55
336.604	62.12
336.817	68.27
337.029	12.97
337.242	94.89
337.454	64.17
337.667	25.26
337.88	23.21
338.092	37.55
338.305	78.51
338.517	0.68
338.729	86.7
338.942	72.36
339.154	-3.41
339.367	0.68
339.579	94.89
339.792	-34.13
340.004	37.55
340.217	17.07
340.429	15.02
340.641	58.03
340.854	37.55
341.066	21.16
341.278	76.46
341.491	43.69
341.703	55.98
341.915	-5.46
342.128	25.26
342.34	41.64
342.552	94.89
342.764	45.74
342.977	146.09
343.189	70.31
343.401	139.94
343.613	21.16
343.826	51.88
344.038	27.31
344.25	88.75
344.462	-5.46
344.674	103.08
344.886	72.36
345.099	62.12
345.311	-3.41
345.523	64.17
345.735	-15.7
345.947	96.94
346.159	101.03
346.371	-1.37
346.583	78.51
346.795	170.66
347.007	21.16
347.219	68.27
347.431	17.07
347.643	17.07
347.855	17.07
348.067	156.33
348.279	2.73
348.491	45.74
348.703	37.55
348.915	101.03
349.127	23.21
349.339	21.16
349.551	-23.89
349.763	107.18
349.975	0.68
350.187	92.84
350.399	70.31
350.61	70.31
350.822	31.4
351.034	64.17
351.246	-15.7
351.458	-3.41
351.669	160.42
351.881	107.18
352.093	111.27
352.305	90.79
352.517	156.33
352.728	76.46
352.94	49.83
353.152	37.55
353.363	-9.56
353.575	29.35
353.787	64.17
353.999	62.12
354.21	127.66
354.422	4.78
354.633	96.94
354.845	82.6
355.057	21.16
355.268	53.93
355.48	127.66
355.692	-34.13
355.903	45.74
356.115	33.45
356.326	4.78
356.538	70.31
356.749	-17.75
356.961	64.17
357.172	72.36
357.384	72.36
357.595	131.75
357.807	45.74
358.018	58.03
358.23	39.59
358.441	152.23
358.653	62.12
358.864	-34.13
359.075	35.5
359.287	74.41
359.498	113.32
359.709	74.41
359.921	74.41
360.132	45.74
360.344	82.6
360.555	39.59
360.766	125.61
360.977	4.78
361.189	60.07
361.4	47.79
361.611	78.51
361.823	72.36
362.034	47.79
362.245	-17.75
362.456	68.27
362.667	88.75
362.879	39.59
363.09	25.26
363.301	105.13
363.512	86.7
363.723	25.26
363.935	6.83
364.146	64.17
364.357	76.46
364.568	8.87
364.779	0.68
364.99	80.55
365.201	41.64
365.412	88.75
365.623	-27.99
365.834	6.83
366.045	37.55
366.256	47.79
366.467	129.7
366.678	15.02
366.889	131.75
367.1	21.16
367.311	92.84
367.522	12.97
367.733	19.11
367.944	78.51
368.155	6.83
368.366	101.03
368.577	80.55
368.788	29.35
368.999	78.51
369.209	49.83
369.42	39.59
369.631	107.18
369.842	70.31
370.053	39.59
370.264	144.04
370.474	-13.65
370.685	33.45
370.896	51.88
371.107	64.17
371.317	-25.94
371.528	53.93
371.739	125.61
371.95	33.45
372.16	45.74
372.371	35.5
372.582	12.97
372.792	66.22
373.003	101.03
373.214	-7.51
373.424	137.9
373.635	23.21
373.846	66.22
374.056	53.93
374.267	25.26
374.477	80.55
374.688	41.64
374.898	74.41
375.109	-5.46
375.319	53.93
375.53	66.22
375.74	123.56
375.951	113.32
376.161	76.46
376.372	19.11
376.582	43.69
376.793	41.64
377.003	74.41
377.214	-32.08
377.424	101.03
377.635	60.07
377.845	17.07
378.055	86.7
378.266	21.16
378.476	62.12
378.686	41.64
378.897	64.17
379.107	58.03
379.317	17.07
379.528	72.36
379.738	103.08
379.948	12.97
380.158	74.41
380.369	35.5
380.579	109.22
380.789	107.18
380.999	174.76
381.21	119.46
381.42	144.04
381.63	29.35
381.84	12.97
382.05	76.46
382.261	76.46
382.471	103.08
382.681	-11.61
382.891	94.89
383.101	64.17
383.311	12.97
383.521	60.07
383.731	80.55
383.941	8.87
384.151	111.27
384.361	37.55
384.571	82.6
384.781	80.55
384.991	123.56
385.201	135.85
385.411	115.37
385.621	23.21
385.831	8.87
386.041	15.02
386.251	23.21
386.461	12.97
386.671	80.55
386.881	37.55
387.091	90.79
387.301	72.36
387.511	101.03
387.72	55.98
387.93	80.55
388.14	39.59
388.35	51.88
388.56	66.22
388.769	47.79
388.979	111.27
389.189	17.07
389.399	62.12
389.609	90.79
389.818	74.41
390.028	101.03
390.238	103.08
390.447	113.32
390.657	125.61
390.867	60.07
391.076	19.11
391.286	156.33
391.496	70.31
391.705	45.74
391.915	146.09
392.125	105.13
392.334	62.12
392.544	39.59
392.753	-71
392.963	105.13
393.172	88.75
393.382	-23.89
393.591	168.62
393.801	51.88
394.01	129.7
394.22	86.7
394.429	74.41
394.639	47.79
394.848	98.99
395.058	39.59
395.267	127.66
395.477	90.79
395.686	82.6
395.895	127.66
396.105	178.86
396.314	121.51
396.524	6.83
396.733	72.36
396.942	121.51
397.152	103.08
397.361	139.94
397.57	199.34
397.78	135.85
397.989	80.55
398.198	158.38
398.407	94.89
398.617	111.27
398.826	105.13
399.035	125.61
399.244	150.18
399.453	103.08
399.663	55.98
399.872	131.75
400.081	117.42
400.29	162.47
400.499	80.55
400.708	70.31
400.917	80.55
401.127	119.46
401.336	55.98
401.545	172.71
401.754	92.84
401.963	113.32
402.172	66.22
402.381	96.94
402.59	51.88
402.799	86.7
403.008	107.18
403.217	72.36
403.426	185
403.635	37.55
403.844	8.87
404.053	195.24
404.262	144.04
404.471	135.85
404.68	137.9
404.888	144.04
405.097	139.94
405.306	146.09
405.515	135.85
405.724	121.51
405.933	193.19
406.142	152.23
406.35	144.04
406.559	209.58
406.768	197.29
406.977	219.82
407.185	197.29
407.394	195.24
407.603	90.79
407.812	221.86
408.02	250.53
408.229	172.71
408.438	236.2
408.646	164.52
408.855	162.47
409.064	228.01
409.272	205.48
409.481	230.06
409.69	238.25
409.898	238.25
410.107	275.11
410.315	359.08
410.524	228.01
410.733	289.45
410.941	332.45
411.15	299.69
411.358	311.97
411.567	352.93
411.775	189.1
411.984	330.41
412.192	260.77
412.401	363.17
412.609	381.6
412.818	361.13
413.026	342.69
413.234	410.28
413.443	422.56
413.651	418.47
413.86	428.71
414.068	490.15
414.276	596.64
414.485	438.95
414.693	484
414.901	602.79
415.11	598.69
415.318	510.63
415.526	551.59
415.734	598.69
415.943	594.59
416.151	670.37
416.359	656.03
416.567	666.27
416.776	692.9
416.984	627.36
417.192	783.01
417.4	713.38
417.608	768.67
417.817	838.3
418.025	826.01
418.233	889.5
418.441	856.73
418.649	817.82
418.857	1016.48
419.065	1024.67
419.273	969.37
419.481	963.23
419.689	1055.39
419.897	1071.77
420.105	1172.12
420.313	1260.18
420.521	1311.38
420.729	1280.66
420.937	1233.56
421.145	1303.19
421.353	1264.28
421.561	1477.27
421.769	1360.53
421.977	1553.04
422.185	1602.19
422.393	1645.2
422.601	1786.51
422.809	1594
423.017	1651.35
423.224	1825.42
423.432	1860.24
423.64	1856.14
423.848	2105.99
424.056	1983.12
424.263	2163.34
424.471	2163.34
424.679	2278.02
424.887	2419.33
425.094	2380.42
425.302	2370.18
425.51	2499.2
425.718	2605.7
425.925	2577.03
426.133	2654.85
426.341	2898.56
426.548	2904.7
426.756	2974.33
426.964	2943.61
427.171	3099.26
427.379	3175.03
427.586	3175.03
427.794	3308.15
428.001	3580.53
428.209	3748.47
428.417	3742.32
428.624	3959.41
428.832	3912.3
429.039	3873.39
429.247	3873.39
429.454	4330.09
429.662	4588.13
429.869	4223.59
430.076	4637.28
430.284	4538.98
430.491	4600.42
430.699	4864.61
430.906	4858.46
431.114	5016.16
431.321	5253.72
431.528	5272.15
431.736	5648.98
431.943	5921.36
432.15	5802.58
432.358	5675.6
432.565	6187.6
432.772	5917.26
432.979	6328.91
433.187	6527.56
433.394	6591.05
433.601	6937.15
433.808	6828.61
434.016	6787.65
434.223	7152.19
434.43	7549.5
434.637	7490.1
434.844	7995.95
435.052	8223.28
435.259	8112.69
435.466	8114.73
435.673	8120.88
435.88	8565.29
436.087	9050.66
436.294	9105.95
436.501	8608.3
436.708	9222.69
436.915	9087.52
437.122	9751.06
437.329	9814.55
437.537	10097.17
437.743	9974.29
437.95	9939.47
438.157	10570.25
438.364	10969.6
438.571	10961.41
438.778	10820.1
438.985	12024.31
439.192	11538.94
439.399	11856.37
439.606	11569.66
439.813	12401.13
440.02	13085.15
440.227	12614.12
440.433	12732.9
440.64	13193.7
440.847	13011.43
441.054	13316.58
441.261	14387.66
441.467	13959.64
441.674	14381.52
441.881	15139.27
442.088	14770.63
442.294	14938.57
442.501	15159.75
442.708	15530.43
442.914	16118.2
443.121	16759.21
443.328	16187.83
443.534	17199.52
443.741	17078.69
443.948	16677.29
444.154	17809.82
444.361	17924.51
444.568	18002.33
444.774	18000.28
444.981	18264.47
445.187	18657.68
445.394	19708.29
445.6	19288.45
445.807	21352.8
446.013	20238.71
446.22	20609.39
446.426	21361
446.633	21723.49
446.839	22446.42
447.046	21311.85
447.252	22927.69
447.459	22962.51
447.665	22813.01
447.871	23644.48
448.078	24836.4
448.284	23306.57
448.491	23990.59
448.697	25239.85
448.903	25506.09
449.11	25764.13
449.316	25319.72
449.522	25790.75
449.728	26677.52
449.935	26984.72
450.141	26542.36
450.347	27058.45
450.553	26708.24
450.76	26949.9
450.966	27498.76
451.172	27533.57
451.378	28190.97
451.584	27554.05
451.791	27986.18
451.997	28326.14
452.203	28911.86
452.409	28580.09
452.615	28612.85
452.821	27396.36
453.027	26923.28
453.233	28694.77
453.44	27472.14
453.646	27668.74
453.852	28096.77
454.058	28459.26
454.264	27449.61
454.47	28227.84
454.676	27416.84
454.882	28487.93
455.088	26100
455.294	26593.56
455.5	26859.79
455.705	26915.09
455.911	25829.66
456.117	25211.18
456.323	25516.33
456.529	23855.42
456.735	24725.81
456.941	24342.84
457.147	23765.31
457.352	22896.97
457.558	22780.24
457.764	23026
457.97	22573.39
458.176	22002.01
458.381	21924.19
458.587	20984.17
458.793	20865.39
458.999	19872.12
459.204	20930.92
459.41	20502.9
459.616	19218.82
459.821	19239.3
460.027	19218.82
460.233	18848.14
460.438	18090.39
460.644	18102.68
460.85	17420.7
461.055	17291.68
461.261	16982.44
461.466	15720.89
461.672	15288.77
461.878	16320.95
462.083	15282.63
462.289	14911.94
462.494	14672.33
462.7	14383.57
462.905	13795.8
463.111	14275.02
463.316	14293.46
463.522	13994.45
463.727	14031.32
463.932	14240.21
464.138	13898.2
464.343	13873.62
464.549	13509.08
464.754	13744.6
464.959	13916.63
465.165	13636.06
465.37	13146.59
465.575	12718.57
465.781	13072.87
465.986	13171.17
466.191	12853.73
466.397	12851.69
466.602	12034.55
466.807	12401.13
467.012	12644.84
467.218	12583.4
467.423	12243.44
467.628	12509.68
467.833	12786.15
468.038	12397.04
468.244	12075.51
468.449	12546.54
468.654	11860.47
468.859	11987.44
469.064	11794.93
469.269	11540.99
469.474	11792.89
469.679	11700.73
469.885	11518.46
470.09	11663.86
470.295	11590.14
470.5	11311.61
470.705	11524.6
470.91	10940.93
471.115	10783.24
471.32	11026.95
471.525	11254.27
471.73	11035.14
471.935	10818.05
472.139	10570.25
472.344	10500.62
472.549	10430.99
472.754	10330.64
472.959	10156.56
473.164	10097.17
473.369	9769.49
473.574	10289.68
473.778	9992.72
473.983	10121.74
474.188	9888.28
474.393	9566.74
474.598	9628.18
474.802	9490.97
475.007	9460.25
475.212	9531.93
475.417	9132.58
475.621	8915.49
475.826	9126.43
476.031	8962.59
476.235	8809
476.44	8907.3
476.645	8798.76
476.849	8591.91
477.054	8591.91
477.259	8520.23
477.463	8344.11
477.668	8258.09
477.872	8286.76
478.077	8041.01
478.282	8059.44
478.486	8079.92
478.691	7959.09
478.895	7924.27
479.1	7854.64
479.304	7750.2
479.509	7670.33
479.713	7545.4
479.918	7469.62
480.122	7381.56
480.326	7504.44
480.531	7725.62
480.735	7686.71
480.94	7236.16
481.144	7559.74
481.348	7248.44
481.553	7508.54
481.757	7451.19
481.961	7279.16
482.166	7639.61
482.37	7375.42
482.574	7162.43
482.778	7455.29
482.983	7383.61
483.187	7170.62
483.391	7252.54
483.595	7320.12
483.8	7125.57
484.004	7275.07
484.208	7297.6
484.412	7289.4
484.616	7279.16
484.821	7320.12
485.025	7258.68
485.229	7375.42
485.433	7119.42
485.637	7254.59
485.841	7195.2
486.045	7230.01
486.249	7287.36
486.453	7156.29
486.657	7399.99
486.861	7217.72
487.065	7303.74
487.269	7359.03
487.473	7168.57
487.677	7412.28
487.881	7303.74
488.085	7080.51
488.289	7336.51
488.493	7207.48
488.697	7348.79
488.901	7459.38
489.105	7303.74
489.309	7311.93
489.512	7406.14
489.716	7393.85
489.92	7395.9
490.124	7221.82
490.328	7516.73
490.531	7436.86
490.735	7467.58
490.939	7492.15
491.143	7518.78
491.346	7379.51
491.55	7621.17
491.754	7498.3
491.958	7660.09
492.161	7598.65
492.365	7701.05
492.569	7742
492.772	7434.81
492.976	7664.18
493.18	7694.9
493.383	7776.82
493.587	7942.71
493.79	7991.86
493.994	7848.5
494.197	7973.43
494.401	8022.58
494.605	8221.23
494.808	8213.04
495.012	8047.15
495.215	7987.76
495.419	8466.99
495.622	8423.98
495.825	8489.51
496.029	8589.86
496.232	8522.28
496.436	8675.88
496.639	8667.69
496.843	8639.01
497.046	8659.49
497.249	8974.88
497.453	9015.84
497.656	9038.37
497.859	9132.58
498.063	9249.31
498.266	9347.61
498.469	9312.8
498.673	9599.51
498.876	9603.61
499.079	9767.45
499.282	9894.42
499.485	10279.44
499.689	10254.86
499.892	10416.65
500.095	10185.23
500.298	10392.08
500.501	10410.51
500.705	10662.41
500.908	10813.96
501.111	10783.24
501.314	10947.08
501.517	11244.03
501.72	11262.46
501.923	11082.24
502.126	11168.26
502.329	11528.7
502.532	11571.71
502.735	11637.24
502.938	11956.72
503.141	11966.96
503.344	12257.78
503.547	12161.52
503.75	12341.74
503.953	12564.97
504.156	12618.22
504.359	12755.43
504.562	12716.52
504.765	13251.04
504.968	13314.53
505.17	13337.06
505.373	13175.27
505.576	13685.21
505.779	13816.28
505.982	13705.69
506.185	14100.95
506.387	14062.04
506.59	14248.4
506.793	14731.72
506.996	14455.25
507.198	14936.52
507.401	14944.71
507.604	14797.26
507.807	15219.14
508.009	15442.37
508.212	15604.16
508.415	15724.99
508.617	15843.77
508.82	15987.13
509.022	16130.48
509.225	16441.78
509.428	16648.62
509.63	16732.59
509.833	16873.9
510.035	17045.93
510.238	17117.61
510.44	17314.21
510.643	17336.74
510.845	17523.1
511.048	17641.89
511.25	17779.1
511.453	18047.38
511.655	18538.9
511.858	18467.22
512.06	18717.07
512.262	18796.94
512.465	18897.29
512.667	19372.42
512.87	19700.09
513.072	19474.82
513.274	19663.23
513.477	20144.5
513.679	20093.3
513.881	20537.71
514.084	20558.19
514.286	20660.59
514.488	20615.54
514.69	21223.78
514.893	21148.01
515.095	20992.36
515.297	21604.7
515.499	21789.02
515.701	21881.18
515.904	22182.23
516.106	22690.13
516.308	22575.44
516.51	22847.82
516.712	22784.33
516.914	23210.31
517.116	23611.71
517.318	23572.8
517.52	23851.33
517.722	23736.64
517.925	24256.82
518.127	24496.44
518.329	24850.74
518.531	24684.85
518.733	25143.59
518.935	25342.25
519.136	25436.45
519.338	25829.66
519.54	25893.15
519.742	25997.6
519.944	26321.18
520.146	26554.65
520.348	26673.43
520.55	27015.44
520.752	27281.67
520.954	27324.68
521.155	27332.87
521.357	27613.45
521.559	27832.58
521.761	28236.03
521.963	28195.07
522.164	28659.96
522.366	28645.62
522.568	29051.12
522.77	28920.05
522.971	29784.29
523.173	29264.11
523.375	29688.04
523.576	29815.01
523.778	29995.23
523.98	30408.92
524.181	30363.87
524.383	30466.27
524.584	30736.6
524.786	30775.51
524.988	30427.35
525.189	31430.86
525.391	31455.43
525.592	31525.07
525.794	31789.25
525.995	32065.73
526.197	32129.22
526.398	32006.34
526.6	32532.67
526.801	32088.26
527.003	32809.14
527.204	32503.99
527.406	32952.5
527.607	32981.17
527.808	32991.41
528.01	32788.66
528.211	33253.55
528.412	34418.85
528.614	33493.16
528.815	33743.02
529.016	34209.95
529.218	33900.71
529.419	34074.79
529.62	34033.83
529.822	34193.57
530.023	34209.95
530.224	34105.51
530.425	34257.06
530.626	34089.12
530.828	34130.08
531.029	34912.41
531.23	34250.91
531.431	34853.01
531.632	34791.58
531.833	34537.63
532.035	34767
532.236	34848.92
532.437	34992.28
532.638	34949.27
532.839	35451.02
533.04	35299.47
533.241	34853.01
533.442	35432.59
533.643	35223.7
533.844	34947.22
534.045	35309.71
534.246	35051.67
534.447	35612.81
534.648	35348.62
534.849	35313.81
535.05	35160.21
535.251	35283.09
535.451	35166.35
535.652	35291.28
535.853	35418.25
536.054	35354.77
536.255	35846.28
536.456	35301.52
536.657	35682.44
536.857	35592.33
537.058	35219.6
537.259	35489.93
537.46	35231.89
537.66	35344.53
537.861	35881.1
538.062	35432.59
538.263	35586.19
538.463	35629.19
538.664	35299.47
538.865	35399.82
539.065	35821.7
539.266	35389.58
539.466	36014.21
539.667	35315.86
539.868	35451.02
540.068	35213.46
540.269	35608.72
540.469	35553.42
540.67	35305.62
540.87	35528.84
541.071	35659.91
541.271	35494.03
541.472	35414.16
541.672	35295.38
541.873	35332.24
542.073	35029.14
542.274	35567.76
542.474	35289.23
542.675	35307.66
542.875	35840.14
543.075	35291.28
543.276	35176.59
543.476	35471.5
543.676	35207.31
543.877	35274.9
544.077	35420.3
544.277	35190.93
544.478	35463.31
544.678	35248.27
544.878	35616.91
545.078	35391.63
545.279	35033.24
545.479	35223.7
545.679	35453.07
545.879	35055.76
546.079	35326.1
546.28	35137.68
546.48	35014.8
546.68	35387.53
546.88	35283.09
547.08	35278.99
547.28	35322
547.48	35090.58
547.68	35512.46
547.88	34936.98
548.081	35145.87
548.281	35082.39
548.481	35170.45
548.681	34896.02
548.881	34871.45
549.081	35014.8
549.28	34951.32
549.48	35356.82
549.68	34963.61
549.88	35551.37
550.08	35109.01
550.28	35068.05
550.48	35223.7
550.68	35602.57
550.88	34898.07
551.08	34740.38
551.279	35467.41
551.479	34492.57
551.679	35254.42
551.879	34635.93
552.079	35098.77
552.278	34971.8
552.478	35104.91
552.678	34977.94
552.878	35182.74
553.077	35020.95
553.277	34570.4
553.477	35111.06
553.676	35143.83
553.876	35225.75
554.076	34918.55
554.275	34721.94
554.475	34521.24
554.674	34857.11
554.874	34554.01
555.074	34582.68
555.273	34652.31
555.473	34658.46
555.672	34615.45
555.872	34404.51
556.071	34541.72
556.271	34607.26
556.47	34410.65
556.67	34349.21
556.869	34357.41
557.068	34181.28
557.268	34103.46
557.467	34003.11
557.667	34148.51
557.866	34068.64
558.065	33804.45
558.265	34158.75
558.464	33802.41
558.663	33939.62
558.863	33646.76
559.062	34275.49
559.261	33427.63
559.461	33902.76
559.66	33433.77
559.859	33513.64
560.058	33327.28
560.258	33796.26
560.457	33546.41
560.656	33632.43
560.855	33421.48
561.054	33267.89
561.253	32778.42
561.453	33007.79
561.652	32997.56
561.851	33550.51
562.05	33056.95
562.249	32684.22
562.448	33210.54
562.647	32514.23
562.846	32743.61
563.045	32743.61
563.244	32522.43
563.443	32661.69
563.642	31936.71
563.841	32389.31
564.04	32538.81
564.239	32809.14
564.438	31895.75
564.637	32405.69
564.836	32114.88
565.035	31938.76
565.234	31944.9
565.432	31791.3
565.631	31586.5
565.83	31875.27
566.029	31578.31
566.228	31414.48
566.427	31172.81
566.625	31617.22
566.824	31203.53
567.023	31467.72
567.222	30851.28
567.42	31264.97
567.619	30980.31
567.818	31158.48
568.016	31213.77
568.215	30863.57
568.414	30851.28
568.612	30759.13
568.811	30607.58
569.01	30234.85
569.208	29919.46
569.407	30662.87
569.605	30171.36
569.804	30372.06
570.002	30103.78
570.201	30501.08
570.4	29817.06
570.598	30044.38
570.797	29405.42
570.995	29552.87
571.193	29167.85
571.392	29638.89
571.59	29444.33
571.789	29632.74
571.987	29346.03
572.186	29346.03
572.384	29057.26
572.582	29460.71
572.781	29305.07
572.979	28690.68
573.177	29049.07
573.376	29024.5
573.574	28606.71
573.772	28512.5
573.971	28571.89
574.169	28254.46
574.367	28094.72
574.565	28238.08
574.763	27640.07
574.962	28020.99
575.16	27879.68
575.358	28100.86
575.556	27691.27
575.754	27928.83
575.952	27549.96
576.151	27996.42
576.349	27554.05
576.547	27414.79
576.745	27502.85
576.943	27742.47
577.141	27361.55
577.339	27105.55
577.537	27414.79
577.735	27474.18
577.933	26804.5
578.131	27150.6
578.329	27099.41
578.527	26657.04
578.725	26609.94
578.923	26687.76
579.121	26591.51
579.319	26104.09
579.516	26923.28
579.714	26511.64
579.912	26409.24
580.11	26255.64
580.308	26540.31
580.506	26274.07
580.704	25870.62
580.901	25852.19
581.099	26327.32
581.297	25774.37
581.495	25911.58
581.692	25831.71
581.89	25778.47
582.088	25727.27
582.285	25108.78
582.483	25624.87
582.681	25286.95
582.878	25385.26
583.076	25055.53
583.274	25336.1
583.471	25192.75
583.669	24852.78
583.866	24867.12
584.064	25125.16
584.262	24863.02
584.459	24949.04
584.657	24494.39
584.854	24629.55
585.052	24435
585.249	24543.54
585.447	24506.68
585.644	24058.17
585.841	24553.78
586.039	24256.82
586.236	23849.28
586.434	23847.23
586.631	23785.79
586.828	23912.77
587.026	23961.92
587.223	23791.94
587.42	23728.45
587.618	23482.69
587.815	23607.62
588.012	23431.49
588.21	23376.2
588.407	23828.8
588.604	23521.6
588.801	23081.29
588.999	23085.39
589.196	23245.13
589.393	23101.77
589.59	22987.08
589.787	22694.22
589.984	22935.88
590.182	22573.39
590.379	22894.93
590.576	22634.83
590.773	22589.78
590.97	22460.76
591.167	22471
591.364	22192.47
591.561	22706.51
591.758	22022.49
591.955	22128.98
592.152	22276.44
592.349	21956.96
592.546	21969.24
592.743	22075.74
592.94	21684.58
593.137	21662.05
593.334	22012.25
593.531	21633.38
593.727	21477.73
593.924	21623.14
594.121	21285.22
594.318	21500.26
594.515	21457.25
594.712	21414.24
594.908	21580.13
595.105	21350.76
595.302	21000.55
595.499	21045.61
595.696	20943.21
595.892	21102.95
596.089	21080.42
596.286	20945.26
596.482	20754.8
596.679	20754.8
596.876	20627.82
597.072	20582.77
597.269	20529.52
597.466	20273.53
597.662	20423.03
597.859	20029.82
598.055	20171.13
598.252	20406.64
598.448	20158.84
598.645	19962.23
598.841	19927.42
599.038	20099.45
599.234	20226.42
599.431	19788.16
599.627	19870.08
599.824	19853.69
600.02	19538.3
600.217	19749.25
600.413	19386.75
600.609	19544.45
600.806	19446.15
601.002	19425.67
601.198	18975.11
601.395	19179.91
601.591	19026.31
601.787	19097.99
601.984	19267.97
602.18	19116.42
602.376	19026.31
602.572	18960.78
602.769	18923.91
602.965	18682.25
603.161	18997.64
603.357	18456.98
603.553	18868.62
603.75	18489.74
603.946	18516.37
604.142	18301.33
604.338	18309.52
604.534	18487.7
604.73	18037.14
604.926	18149.78
605.122	18481.55
605.318	18043.29
605.514	18176.41
605.71	18020.76
605.906	18049.43
606.102	18004.38
606.298	18018.71
606.494	17660.32
606.69	17858.97
606.886	17879.45
607.082	17457.57
607.278	17668.51
607.474	17404.32
607.67	17658.27
607.866	17209.76
608.062	17445.28
608.257	17617.31
608.453	17379.75
608.649	17584.54
608.845	17086.89
609.041	17400.23
609.236	17273.25
609.432	17263.01
609.628	17113.51
609.824	17154.47
610.019	17011.11
610.215	17056.17
610.411	17097.13
610.606	16961.96
610.802	16953.77
610.998	16830.89
611.193	17121.7
611.389	16712.11
611.584	16931.24
611.78	16783.79
611.976	16761.26
612.171	16714.16
612.367	16687.53
612.562	16705.96
612.758	16269.75
612.953	16282.03
613.149	16478.64
613.344	16384.43
613.539	16499.12
613.735	16392.62
613.93	16519.6
614.126	16339.38
614.321	16519.6
614.517	16236.98
614.712	16296.37
614.907	16181.68
615.103	16433.58
615.298	16193.97
615.493	16230.83
615.688	15937.98
615.884	16232.88
616.079	15923.64
616.274	16245.17
616.47	15849.91
616.665	16097.72
616.86	15804.86
617.055	15808.95
617.25	15704.51
617.445	16241.07
617.641	15462.85
617.836	15544.77
618.031	15520.19
618.226	15552.96
618.421	15415.74
618.616	15675.84
618.811	15303.11
619.006	15333.82
619.201	15327.68
619.396	15368.64
619.591	15114.69
619.786	15243.71
619.981	14873.03
620.176	15161.8
620.371	15098.31
620.566	15055.3
620.761	14899.66
620.956	15112.64
621.151	14660.04
621.346	14907.85
621.541	14651.85
621.735	14502.35
621.93	14260.69
622.125	14426.57
622.32	14326.22
622.515	14287.31
622.709	14285.26
622.904	14148.05
623.099	13961.69
623.294	14133.72
623.488	13879.77
623.683	13965.78
623.878	13760.98
624.072	13767.13
624.267	13648.35
624.462	13468.13
624.656	13507.04
624.851	13816.28
625.046	13287.9
625.24	13398.49
625.435	13138.4
625.629	13101.54
625.824	12988.9
626.018	13038.05
626.213	12800.49
626.407	13001.19
626.602	12806.63
626.796	12648.94
626.991	12743.14
627.185	12526.06
627.38	12607.98
627.574	12507.63
627.768	12495.34
627.963	12364.27
628.157	12364.27
628.352	12151.28
628.546	11932.15
628.74	12089.84
628.935	12102.13
629.129	12065.27
629.323	11801.08
629.517	11825.65
629.712	11739.64
629.906	11790.84
630.1	11391.48
630.294	11731.45
630.489	11276.8
630.683	11450.88
630.877	11346.43
631.071	11276.8
631.265	11276.8
631.459	11129.34
631.653	11061.76
631.848	11096.58
632.042	11037.19
632.236	11057.67
632.43	11002.37
632.624	11018.75
632.818	10807.81
633.012	10840.58
633.206	10729.99
633.4	10686.98
633.594	10531.34
633.788	10672.65
633.982	10533.39
634.176	10441.23
634.369	10469.9
634.563	10297.87
634.757	10340.88
634.951	10439.18
635.145	10230.29
635.339	10050.07
635.533	10254.86
635.726	10226.19
635.92	9779.73
636.114	9970.19
636.308	9746.97
636.501	9882.13
636.695	9892.37
636.889	9802.26
637.083	9558.55
637.276	9402.91
637.47	9490.97
637.664	9658.9
637.857	9583.13
638.051	9404.96
638.244	9613.85
638.438	9364
638.632	9517.59
638.825	9226.78
639.019	9026.08
639.212	9247.26
639.406	9089.57
639.599	9044.51
639.793	9161.25
639.986	8739.37
640.18	8712.74
640.373	8989.22
640.567	8663.59
640.76	8823.33
640.954	8673.83
641.147	8583.72
641.34	8596.01
641.534	8645.16
641.727	8725.03
641.92	8471.08
642.114	8421.93
642.307	8323.63
642.5	8149.55
642.694	8120.88
642.887	8122.93
643.08	8153.65
643.273	8208.94
643.467	8075.82
643.66	8135.21
643.853	8006.19
644.046	8059.44
644.239	8008.24
644.432	7965.23
644.626	7895.6
644.819	7950.9
645.012	7797.3
645.205	7795.25
645.398	7731.76
645.591	7590.45
645.784	7705.14
645.977	7371.32
646.17	7520.82
646.363	7649.85
646.556	7393.85
646.749	7381.56
646.942	7420.47
647.135	7287.36
647.328	7488.06
647.521	7289.4
647.714	7119.42
647.907	7223.87
648.099	7096.89
648.292	7207.48
648.485	7146.05
648.678	6844.99
648.871	7053.89
649.064	6898.24
649.256	6945.34
649.449	6931.01
649.642	6726.21
649.835	6804.03
650.027	6746.69
650.22	6912.58
650.413	6681.16
650.605	6644.29
650.798	6632.01
650.991	6703.68
651.183	6722.12
651.376	6562.37
651.568	6658.63
651.761	6580.81
651.954	6597.19
652.146	6433.35
652.339	6564.42
652.531	6410.82
652.724	6214.22
652.916	6140.49
653.109	6017.61
653.301	6283.85
653.494	6310.47
653.686	6195.79
653.879	6099.53
654.071	6230.6
654.263	6109.77
654.456	6191.69
654.648	6259.28
654.84	6126.16
655.033	6038.09
655.225	5978.7
655.417	5929.55
655.61	5839.44
655.802	5939.79
655.994	5872.21
656.186	5884.5
656.379	5878.35
656.571	5886.54
656.763	5739.09
656.955	5724.76
657.148	5597.78
657.34	5714.52
657.532	5419.61
657.724	5657.17
657.916	5691.99
658.108	5560.92
658.3	5507.67
658.492	5536.34
658.684	5388.89
658.876	5325.4
659.068	5378.65
659.26	5552.73
659.452	5442.14
659.644	5225.05
659.836	5388.89
660.028	5335.64
660.22	5300.83
660.412	5403.22
660.604	5218.91
660.796	5182.04
660.988	5225.05
661.18	5196.38
661.372	5239.39
661.563	5079.65
661.755	5143.13
661.947	5075.55
662.139	5061.21
662.331	5079.65
662.522	4856.42
662.714	5055.07
662.906	4981.34
663.097	4872.8
663.289	4985.44
663.481	4852.32
663.673	4901.47
663.864	4784.74
664.056	4870.75
664.247	4899.42
664.439	4649.57
664.631	4792.93
664.822	4766.31
665.014	4889.18
665.205	4749.92
665.397	4541.03
665.588	4620.9
665.78	4612.71
665.971	4637.28
666.163	4547.17
666.354	4606.56
666.546	4676.2
666.737	4655.72
666.929	4559.46
667.12	4575.84
667.311	4510.31
667.503	4446.82
667.694	4536.93
667.885	4465.25
668.077	4590.18
668.268	4471.4
668.459	4479.59
668.651	4489.83
668.842	4389.48
669.033	4274.79
669.224	4412.01
669.416	4475.49
669.607	4371.05
669.798	4176.49
669.989	4438.63
670.18	4268.65
670.371	4391.53
670.563	4315.75
670.754	4330.09
670.945	4323.94
671.136	4287.08
671.327	4274.79
671.518	4379.24
671.709	4346.47
671.9	4098.67
672.091	4280.94
672.282	4250.22
672.473	4330.09
672.664	4229.74
672.855	4299.37
673.046	4313.7
673.237	4276.84
673.428	4254.31
673.619	4340.33
673.809	4305.51
674	4231.79
674.191	4088.43
674.382	4201.07
674.573	4158.06
674.764	4061.8
674.954	4293.23
675.145	4137.58
675.336	3973.74
675.527	4082.28
675.717	4037.23
675.908	4151.92
676.099	4094.57
676.289	4113
676.48	4100.72
676.671	4061.8
676.861	4053.61
677.052	4121.2
677.243	3943.02
677.433	4194.92
677.624	4119.15
677.814	4127.34
678.005	4119.15
678.195	4133.48
678.386	4110.96
678.576	4170.35
678.767	4031.09
678.957	4049.52
679.148	4209.26
679.338	4110.96
679.529	4141.68
679.719	4264.55
679.909	4313.7
680.1	4182.63
680.29	4067.95
680.481	4143.72
680.671	4266.6
680.861	4258.41
681.052	4141.68
681.242	4092.52
681.432	4141.68
681.622	4209.26
681.813	4022.89
682.003	4145.77
682.193	4174.44
682.383	4242.03
682.573	4235.88
682.764	4100.72
682.954	4055.66
683.144	4246.12
683.334	3943.02
683.524	4053.61
683.714	4125.29
683.904	4088.43
684.094	4008.56
684.284	4088.43
684.474	4051.56
684.664	4014.7
684.854	4098.67
685.044	4070
685.234	4072.04
685.424	3959.41
685.614	4051.56
685.804	3934.83
685.994	3990.13
686.184	4067.95
686.374	3916.4
686.564	4033.13
686.753	3889.78
686.943	3891.82
687.133	3920.49
687.323	3900.02
687.513	3930.73
687.702	3873.39
687.892	3961.45
688.082	3789.42
688.272	3930.73
688.461	3897.97
688.651	3766.9
688.841	3641.97
689.03	3832.43
689.22	3742.32
689.41	3652.21
689.599	3791.47
689.789	3578.48
689.979	3791.47
690.168	3590.77
690.358	3592.82
690.547	3631.73
690.737	3615.35
690.926	3601.01
691.116	3621.49
691.305	3549.81
691.495	3502.71
691.684	3437.17
691.874	3414.65
692.063	3330.68
692.252	3582.58
692.442	3400.31
692.631	3418.74
692.82	3426.93
693.01	3398.26
693.199	3535.48
693.388	3314.3
693.578	3254.9
693.767	3347.06
693.956	3369.59
694.146	3238.52
694.335	3349.11
694.524	3302.01
694.713	3416.69
694.902	3218.04
695.092	3246.71
695.281	3175.03
695.47	3140.22
695.659	3154.55
695.848	3132.03
696.037	3181.18
696.226	3312.25
696.415	3205.75
696.604	3162.75
696.793	3220.09
696.982	3187.32
697.171	3242.62
697.36	3084.92
697.549	3191.42
697.738	3154.55
697.927	3132.03
698.116	3125.88
698.305	3187.32
698.494	3195.51
698.683	3060.35
698.872	3119.74
699.061	3097.21
699.25	3123.84
699.438	3060.35
699.627	3011.2
699.816	3142.27
700.005	3074.68
700.193	3119.74
700.382	3150.46
700.571	3189.37
700.76	3121.79
700.948	3209.85
701.137	3146.36
701.326	3054.2
701.514	3113.6
701.703	3136.12
701.892	3152.51
702.08	3203.71
702.269	3132.03
702.457	3101.31
702.646	3084.92
702.834	3056.25
703.023	3195.51
703.212	3148.41
703.4	3062.4
703.589	3172.99
703.777	3195.51
703.965	3119.74
704.154	3119.74
704.342	3185.27
704.531	3291.77
704.719	3099.26
704.907	3336.82
705.096	3111.55
705.284	3142.27
705.472	3138.17
705.661	3195.51
705.849	3175.03
706.037	3136.12
706.226	3273.34
706.414	3226.23
706.602	3086.97
706.79	3240.57
706.979	3142.27
707.167	3261.05
707.355	3127.93
707.543	3191.42
707.731	3193.47
707.919	3289.72
708.107	3256.95
708.296	3308.15
708.484	3152.51
708.672	3240.57
708.86	3256.95
709.048	3326.58
709.236	3189.37
709.424	3291.77
709.612	3285.62
709.8	3306.1
709.988	3310.2
710.176	3381.88
710.364	3148.41
710.551	3306.1
710.739	3295.86
710.927	3306.1
711.115	3076.73
711.303	3447.41
711.491	3453.56
711.679	3267.19
711.866	3365.5
712.054	3275.38
712.242	3441.27
712.43	3471.99
712.617	3365.5
712.805	3359.35
712.993	3252.86
713.181	3400.31
713.368	3345.02
713.556	3539.57
713.744	3201.66
713.931	3627.64
714.119	3363.45
714.306	3449.46
714.494	3377.78
714.682	3400.31
714.869	3455.61
715.057	3428.98
715.244	3285.62
715.432	3388.02
715.619	3416.69
715.807	3515
715.994	3396.21
716.182	3490.42
716.369	3637.88
716.556	3527.28
716.744	3420.79
716.931	3545.72
717.119	3547.76
717.306	3512.95
717.493	3619.44
717.681	3543.67
717.868	3627.64
718.055	3545.72
718.242	3615.35
718.43	3695.22
718.617	3490.42
718.804	3676.79
718.991	3576.44
719.179	3715.7
719.366	3609.2
719.553	3607.16
719.74	3539.57
719.927	3629.68
720.114	3547.76
720.301	3558
720.488	3680.88
720.676	3484.28
720.863	3699.31
721.05	3727.99
721.237	3543.67
721.424	3762.8
721.611	3596.92
721.798	3570.29
721.985	3596.92
722.172	3658.35
722.358	3570.29
722.545	3641.97
722.732	3635.83
722.919	3775.09
723.106	3742.32
723.293	3619.44
723.48	3682.93
723.667	3660.4
723.853	3791.47
724.04	3844.72
724.227	3672.69
724.414	3775.09
724.6	3650.16
724.787	3916.4
724.974	3801.71
725.161	3711.6
725.347	3662.45
725.534	3795.57
725.72	3842.67
725.907	3762.8
726.094	3912.3
726.28	3756.66
726.467	3701.36
726.653	3756.66
726.84	3818.1
727.027	3873.39
727.213	3824.24
727.4	3844.72
727.586	3805.81
727.773	3797.62
727.959	3879.54
728.145	3861.1
728.332	3873.39
728.518	3779.18
728.705	3938.93
728.891	3852.91
729.077	3838.58
729.264	3877.49
729.45	3920.49
729.636	3897.97
729.823	3885.68
730.009	3928.69
730.195	3805.81
730.382	3977.84
730.568	3961.45
730.754	3945.07
730.94	3928.69
731.126	3953.26
731.313	3969.65
731.499	3963.5
731.685	3891.82
731.871	3863.15
732.057	3928.69
732.243	3881.58
732.429	3873.39
732.615	3945.07
732.801	3877.49
732.987	3881.58
733.173	3922.54
733.359	3945.07
733.545	3852.91
733.731	3936.88
733.917	4004.46
734.103	4026.99
734.289	4063.85
734.475	3893.87
734.661	4172.39
734.847	3992.17
735.033	3953.26
735.219	4000.37
735.404	3906.16
735.59	4016.75
735.776	3887.73
735.962	3922.54
736.148	4076.14
736.333	3881.58
736.519	3889.78
736.705	3893.87
736.89	3863.15
737.076	3889.78
737.262	3893.87
737.447	3969.65
737.633	3830.38
737.819	3766.9
738.004	3930.73
738.19	3943.02
738.375	3953.26
738.561	3854.96
738.747	3809.9
738.932	3826.29
739.118	3949.17
739.303	3986.03
739.489	3830.38
739.674	3834.48
739.859	3824.24
740.045	3957.36
740.23	3744.37
740.416	3754.61
740.601	3717.75
740.786	3699.31
740.972	3863.15
741.157	3713.65
741.342	3838.58
741.528	3715.7
741.713	3797.62
741.898	3877.49
742.084	3682.93
742.269	3693.17
742.454	3764.85
742.639	3814
742.824	3650.16
743.01	3711.6
743.195	3629.68
743.38	3480.18
743.565	3596.92
743.75	3646.07
743.935	3578.48
744.12	3621.49
744.305	3543.67
744.49	3584.63
744.675	3506.81
744.86	3404.41
745.045	3463.8
745.23	3455.61
745.415	3439.22
745.6	3584.63
745.785	3420.79
745.97	3478.13
746.155	3330.68
746.34	3474.04
746.525	3428.98
746.71	3418.74
746.895	3279.48
747.079	3302.01
747.264	3273.34
747.449	3363.45
747.634	3250.81
747.819	3187.32
748.003	3250.81
748.188	3201.66
748.373	3304.06
748.557	3261.05
748.742	3127.93
748.927	3234.43
749.111	3089.02
749.296	3117.69
749.481	3056.25
749.665	3033.72
749.85	2964.09
750.034	2970.24
750.219	2888.32
750.404	2896.51
750.588	3084.92
750.773	2892.41
750.957	2859.65
751.141	2953.85
751.326	2949.76
751.51	2847.36
751.695	2742.91
751.879	2689.67
752.064	2884.22
752.248	2908.8
752.432	2886.27
752.617	2767.49
752.801	2738.82
752.985	2683.52
753.17	2814.59
753.354	2685.57
753.538	2781.82
753.722	2665.09
753.907	2546.31
754.091	2462.34
754.275	2646.66
754.459	2544.26
754.643	2517.64
754.828	2517.64
755.012	2448.01
755.196	2329.22
755.38	2486.92
755.564	2443.91
755.748	2462.34
755.932	2458.25
756.116	2366.09
756.3	2314.89
756.484	2286.22
756.668	2437.77
756.852	2187.91
757.036	2345.61
757.22	2341.51
757.404	2353.8
757.588	2282.12
757.772	2353.8
757.956	2323.08
758.14	2183.82
758.323	2159.24
758.507	2265.74
758.691	2136.71
758.875	2177.67
759.059	2105.99
759.242	2161.29
759.426	2040.46
759.61	2073.23
759.794	2026.12
759.977	2108.04
760.161	2050.7
760.345	2062.99
760.528	2048.65
760.712	1942.16
760.895	2056.84
761.079	2048.65
761.263	1956.49
761.446	1880.72
761.63	2009.74
761.813	1888.91
761.997	1878.67
762.18	1964.68
762.364	1948.3
762.547	1778.32
762.731	1843.85
762.914	1936.01
763.098	1856.14
763.281	1780.37
763.464	1798.8
763.648	1944.2
763.831	1804.94
764.015	1813.13
764.198	1843.85
764.381	1800.85
764.564	1776.27
764.748	1766.03
764.931	1710.74
765.114	1733.26
765.297	1612.43
765.481	1712.78
765.664	1702.54
765.847	1790.61
766.03	1800.85
766.213	1718.93
766.397	1798.8
766.58	1700.5
766.763	1729.17
766.946	1581.71
767.129	1608.34
767.312	1606.29
767.495	1563.28
767.678	1628.82
767.861	1567.38
768.044	1585.81
768.227	1606.29
768.41	1540.76
768.593	1553.04
768.776	1495.7
768.959	1653.39
769.142	1645.2
769.324	1647.25
769.507	1522.32
769.69	1495.7
769.873	1483.41
770.056	1618.58
770.239	1542.8
770.421	1596.05
770.604	1512.08
770.787	1510.04
770.97	1446.55
771.152	1520.28
771.335	1469.08
771.518	1417.88
771.7	1454.74
771.883	1428.12
772.066	1442.45
772.248	1559.19
772.431	1483.41
772.613	1378.97
772.796	1331.86
772.978	1389.21
773.161	1430.16
773.343	1444.5
773.526	1360.53
773.708	1319.57
773.891	1331.86
774.073	1366.68
774.256	1372.82
774.438	1434.26
774.621	1303.19
774.803	1299.09
774.985	1247.9
775.168	1358.49
775.35	1258.14
775.532	1258.14
775.715	1157.78
775.897	1170.07
776.079	1272.47
776.261	1260.18
776.444	1223.32
776.626	1163.93
776.808	1200.79
776.99	1118.87
777.173	1223.32
777.355	1172.12
777.537	1145.5
777.719	1139.35
777.901	1182.36
778.083	1065.63
778.265	1127.07
778.447	1127.07
778.629	1075.87
778.811	1065.63
778.993	1077.91
779.175	1088.15
779.357	1082.01
779.539	1096.35
779.721	1059.48
779.903	948.89
780.085	1020.57
780.267	1061.53
780.449	1008.28
780.631	975.52
780.812	1043.1
780.994	967.32
781.176	957.08
781.358	907.93
781.54	991.9
781.721	965.28
781.903	895.64
782.085	1012.38
782.267	971.42
782.448	881.31
782.63	866.97
782.812	885.41
782.993	889.5
783.175	828.06
783.357	821.92
783.538	883.36
783.72	826.01
783.901	774.81
784.083	840.35
784.264	846.49
784.446	830.11
784.627	789.15
784.809	832.16
784.99	823.97
785.172	791.2
785.353	799.39
785.535	836.25
785.716	770.72
785.897	772.77
786.079	785.05
786.26	744.1
786.441	748.19
786.623	768.67
786.804	696.99
786.985	805.53
787.167	723.62
787.348	676.51
787.529	684.7
787.71	799.39
787.891	713.38
788.073	633.51
788.254	615.07
788.435	731.81
788.616	699.04
788.797	631.46
788.978	696.99
789.159	643.74
789.34	631.46
789.522	629.41
789.703	627.36
789.884	617.12
790.065	715.42
790.246	674.46
790.427	619.17
790.607	725.66
790.788	619.17
790.969	545.44
791.15	684.7
791.331	553.63
791.512	578.21
791.693	582.31
791.874	590.5
792.054	653.98
792.235	590.5
792.416	559.78
792.597	555.68
792.778	590.5
792.958	629.41
793.139	610.98
793.32	565.92
793.5	461.48
793.681	647.84
793.862	441
794.042	610.98
794.223	488.1
794.404	512.67
794.584	424.61
794.765	434.85
794.945	527.01
795.126	553.63
795.306	514.72
795.487	465.57
795.667	506.53
795.848	576.16
796.028	484
796.209	531.11
796.389	514.72
796.57	492.2
796.75	496.29
796.93	590.5
797.111	441
797.291	443.04
797.471	471.72
797.652	498.34
797.832	553.63
798.012	543.39
798.192	408.23
798.373	457.38
798.553	438.95
798.733	561.83
798.913	486.05
799.093	422.56
799.274	367.27
799.454	473.76
799.634	377.51
799.814	539.3
799.994	496.29
800.174	434.85
800.354	393.89
800.534	330.41
800.714	455.33
800.894	346.79
801.074	393.89
801.254	316.07
801.434	383.65
801.614	479.91
801.794	365.22
801.974	1307.29
802.154	369.32
802.334	510.63
802.514	350.89
802.693	354.98
802.873	365.22
803.053	406.18
803.233	426.66
803.413	365.22
803.592	352.93
803.772	391.84
803.952	408.23
804.131	281.25
804.311	381.6
804.491	406.18
804.67	395.94
804.85	365.22
805.03	473.76
805.209	375.46
805.389	350.89
805.568	291.49
805.748	342.69
805.928	404.13
806.107	305.83
806.287	393.89
806.466	348.84
806.646	314.02
806.825	324.26
807.004	332.45
807.184	344.74
807.363	328.36
807.543	330.41
807.722	289.45
807.901	395.94
808.081	375.46
808.26	264.87
808.439	262.82
808.619	219.82
808.798	258.73
808.977	285.35
809.156	324.26
809.336	264.87
809.515	324.26
809.694	195.24
809.873	268.97
810.052	295.59
810.231	385.7
810.411	260.77
810.59	311.97
810.769	262.82
810.948	383.65
811.127	238.25
811.306	285.35
811.485	283.3
811.664	279.21
811.843	277.16
812.022	295.59
812.201	193.19
812.38	307.88
812.559	299.69
812.737	299.69
812.916	162.47
813.095	268.97
813.274	285.35
813.453	219.82
813.632	275.11
813.811	271.01
813.989	246.44
814.168	258.73
814.347	219.82
814.526	324.26
814.704	262.82
814.883	293.54
815.062	209.58
815.24	242.34
815.419	158.38
815.598	268.97
815.776	168.62
815.955	240.29
816.133	156.33
816.312	221.86
816.49	262.82
816.669	217.77
816.847	205.48
817.026	215.72
817.204	180.9
817.383	137.9
817.561	248.49
817.74	195.24
817.918	301.73
818.097	238.25
818.275	217.77
818.453	187.05
818.632	182.95
818.81	225.96
818.988	252.58
819.167	195.24
819.345	180.9
819.523	205.48
819.701	217.77
819.879	242.34
820.058	201.38
820.236	199.34
820.414	262.82
820.592	203.43
820.77	121.51
820.948	228.01
821.127	162.47
821.305	144.04
821.483	129.7
821.661	293.54
821.839	293.54
822.017	197.29
822.195	160.42
822.373	248.49
822.551	205.48
822.729	275.11
822.907	144.04
823.085	187.05
823.262	211.62
823.44	141.99
823.618	107.18
823.796	221.86
823.974	135.85
824.152	119.46
824.329	213.67
824.507	197.29
824.685	178.86
824.863	223.91
825.04	191.14
825.218	193.19
825.396	92.84
825.574	176.81
825.751	146.09
825.929	217.77
826.107	209.58
826.284	168.62
826.462	203.43
826.639	223.91
826.817	178.86
826.994	191.14
827.172	189.1
827.349	244.39
827.527	209.58
827.704	176.81
827.882	215.72
828.059	135.85
828.237	172.71
828.414	242.34
828.591	135.85
828.769	152.23
828.946	146.09
829.124	180.9
829.301	193.19
829.478	201.38
829.655	182.95
829.833	119.46
830.01	187.05
830.187	215.72
830.364	197.29
830.542	162.47
830.719	240.29
830.896	160.42
831.073	98.99
831.25	199.34
831.427	168.62
831.604	152.23
831.782	47.79
831.959	205.48
832.136	133.8
832.313	82.6
832.49	144.04
832.667	228.01
832.844	27.31
833.021	160.42
833.198	135.85
833.374	121.51
833.551	133.8
833.728	66.22
833.905	225.96
834.082	53.93
834.259	101.03
834.436	193.19
834.612	43.69
834.789	197.29
834.966	109.22
835.143	113.32
835.319	80.55
835.496	64.17
835.673	78.51
835.85	207.53
836.026	144.04
836.203	182.95
836.38	80.55
836.556	45.74
836.733	6.83
836.909	199.34
837.086	92.84
837.262	72.36
837.439	111.27
837.616	70.31
837.792	101.03
837.968	98.99
838.145	60.07
838.321	133.8
838.498	76.46
838.674	117.42
838.851	158.38
839.027	62.12
839.203	51.88
839.38	103.08
839.556	125.61
839.732	170.66
839.909	-11.61
840.085	119.46
840.261	107.18
840.437	180.9
840.614	113.32
840.79	96.94
840.966	172.71
841.142	64.17
841.318	98.99
841.494	225.96
841.671	70.31
841.847	123.56
842.023	78.51
842.199	193.19
842.375	76.46
842.551	105.13
842.727	41.64
842.903	131.75
843.079	23.21
843.255	127.66
843.431	88.75
843.607	70.31
843.783	31.4
843.959	103.08
844.134	80.55
844.31	123.56
844.486	78.51
844.662	94.89
844.838	127.66
845.013	119.46
845.189	129.7
845.365	113.32
845.541	68.27
845.716	127.66
845.892	94.89
846.068	12.97
846.244	51.88
846.419	123.56
846.595	88.75
846.77	80.55
846.946	172.71
847.122	113.32
847.297	92.84
847.473	117.42
847.648	31.4
847.824	94.89
847.999	-7.51
848.175	109.22
848.35	45.74
848.526	90.79
848.701	53.93
848.876	139.94
849.052	113.32
849.227	62.12
849.403	21.16
849.578	133.8
849.753	6.83
849.929	98.99
850.104	-3.41
850.279	72.36
850.454	98.99
850.63	137.9
850.805	78.51
850.98	187.05
851.155	51.88
851.33	101.03
851.505	41.64
851.681	121.51
851.856	-11.61
852.031	94.89
852.206	103.08
852.381	12.97
852.556	92.84
852.731	82.6
852.906	92.84
853.081	111.27
853.256	125.61
853.431	113.32
853.606	62.12
853.781	70.31
853.956	-7.51
854.131	62.12
854.305	17.07
854.48	62.12
854.655	39.59
854.83	47.79
855.005	19.11
855.18	94.89
855.354	39.59
855.529	88.75
855.704	21.16
855.879	166.57
856.053	64.17
856.228	88.75
856.403	-15.7
856.577	68.27
856.752	29.35
856.926	90.79
857.101	76.46
857.276	-3.41
857.45	103.08
857.625	55.98
857.799	37.55
857.974	25.26
858.148	-1.37
858.323	107.18
858.497	-17.75
858.672	37.55
858.846	23.21
859.02	37.55
859.195	-42.32
859.369	115.37
859.543	35.5
859.718	58.03
859.892	27.31
860.066	23.21
860.241	41.64
860.415	35.5
860.589	21.16
860.763	47.79
860.938	15.02
861.112	70.31
861.286	-11.61
861.46	37.55
861.634	64.17
861.808	113.32
861.982	94.89
862.157	-17.75
862.331	23.21
862.505	8.87
862.679	15.02
862.853	70.31
863.027	-44.37
863.201	86.7
863.375	27.31
863.549	29.35
863.722	84.65
863.896	72.36
864.07	8.87
864.244	10.92
864.418	60.07
864.592	17.07
864.766	-15.7
864.939	12.97
865.113	-9.56
865.287	86.7
865.461	39.59
865.634	49.83
865.808	29.35
865.982	-7.51
866.156	8.87
866.329	15.02
866.503	27.31
866.676	88.75
866.85	-27.99
867.024	17.07
867.197	39.59
867.371	62.12
867.544	107.18
867.718	45.74
867.891	94.89
868.065	-38.23
868.238	23.21
868.412	37.55
868.585	-54.61
868.759	37.55
868.932	45.74
869.105	-11.61
869.279	45.74
869.452	-54.61
869.625	96.94
869.799	64.17
869.972	25.26
870.145	-36.18
870.319	66.22
870.492	-50.52
870.665	-30.04
870.838	6.83
871.011	-93.52
871.185	-3.41
871.358	86.7
871.531	8.87
871.704	78.51
871.877	37.55
872.05	45.74
872.223	2.73
872.396	6.83
872.569	60.07
872.742	68.27
872.915	109.22
873.088	-11.61
873.261	21.16
873.434	78.51
873.607	17.07
873.78	78.51
873.953	-1.37
874.126	113.32
874.299	-23.89
874.471	66.22
874.644	80.55
874.817	-32.08
874.99	119.46
875.163	43.69
875.335	101.03
875.508	-27.99
875.681	115.37
875.853	-27.99
876.026	-17.75
876.199	74.41
876.371	39.59
876.544	-42.32
876.717	68.27
876.889	17.07
877.062	70.31
877.234	4.78
877.407	-15.7
877.579	82.6
877.752	66.22
877.924	-15.7
878.097	58.03
878.269	-25.94
878.442	23.21
878.614	82.6
878.786	37.55
878.959	10.92
879.131	21.16
879.303	-85.33
879.476	-32.08
879.648	88.75
879.82	55.98
879.993	-46.42
880.165	17.07
880.337	-9.56
880.509	78.51
880.681	-36.18
880.854	4.78
881.026	60.07
881.198	72.36
881.37	-42.32
881.542	62.12
881.714	4.78
881.886	-17.75
882.058	-32.08
882.23	4.78
882.402	-25.94
882.574	43.69
882.746	58.03
882.918	78.51
883.09	-17.75
883.262	-11.61
883.434	55.98
883.606	82.6
883.778	-3.41
883.95	39.59
884.122	-1.37
884.293	10.92
884.465	-9.56
884.637	17.07
884.809	109.22
884.98	70.31
885.152	29.35
885.324	88.75
885.496	25.26
885.667	-17.75
885.839	45.74
886.011	58.03
886.182	137.9
886.354	43.69
886.525	31.4
886.697	70.31
886.869	21.16
887.04	4.78
887.212	94.89
887.383	90.79
887.555	23.21
887.726	15.02
887.897	21.16
888.069	27.31
888.24	43.69
888.412	15.02
888.583	64.17
888.754	15.02
888.926	33.45
889.097	45.74
889.268	-27.99
889.44	29.35
889.611	-3.41
889.782	-9.56
889.953	-48.47
890.125	23.21
890.296	-1.37
890.467	21.16
890.638	2.73
890.809	33.45
890.98	55.98
891.151	37.55
891.323	47.79
891.494	-7.51
891.665	23.21
891.836	43.69
892.007	-17.75
892.178	17.07
892.349	33.45
892.52	37.55
892.691	-27.99
892.862	-30.04
893.032	-9.56
893.203	45.74
893.374	74.41
893.545	37.55
893.716	29.35
893.887	90.79
894.057	-21.85
894.228	15.02
894.399	-36.18
894.57	27.31
894.74	-9.56
894.911	-11.61
895.082	-17.75
895.253	23.21
895.423	-11.61
895.594	-3.41
895.764	-9.56
895.935	39.59
896.106	62.12
896.276	-34.13
896.447	-1.37
896.617	-23.89
896.788	23.21
896.958	37.55
897.129	37.55
897.299	-19.8
897.47	74.41
897.64	62.12
897.81	47.79
897.981	-7.51
898.151	55.98
898.322	21.16
898.492	39.59
898.662	12.97
898.832	-5.46
899.003	-46.42
899.173	45.74
899.343	-25.94
899.513	43.69
