Data from USB4F104151__88__13-06-20-598.txt Node

Date: Fri Mar 14 13:06:20 EDT 2025
User: louis
Spectrometer: USB4F10415
Trigger mode: 4
Integration Time (sec): 4.000000E-2
Scans to average: 1
Electric dark correction enabled: true
Nonlinearity correction enabled: false
Boxcar width: 0
XAxis mode: Wavelengths
Number of Pixels in Spectrum: 3648
>>>>>Begin Spectral Data<<<<<
178.204	-234.83
178.424	-234.83
178.644	-234.83
178.864	-216.4
179.084	-236.88
179.304	-23.89
179.524	6.83
179.744	12.97
179.964	-11.61
180.184	37.55
180.404	25.26
180.624	-19.8
180.844	35.5
181.064	-44.37
181.283	17.07
181.503	-48.47
181.723	12.97
181.943	-38.23
182.163	49.83
182.383	-40.28
182.602	-19.8
182.822	92.84
183.042	12.97
183.262	51.88
183.482	55.98
183.701	-64.85
183.921	2.73
184.141	-58.71
184.361	17.07
184.58	70.31
184.8	6.83
185.02	17.07
185.239	107.18
185.459	6.83
185.679	84.65
185.898	33.45
186.118	39.59
186.338	-1.37
186.557	107.18
186.777	-3.41
186.997	-27.99
187.216	62.12
187.436	55.98
187.655	-17.75
187.875	84.65
188.095	-1.37
188.314	29.35
188.534	80.55
188.753	8.87
188.973	37.55
189.192	135.85
189.412	-11.61
189.631	117.42
189.851	60.07
190.07	111.27
190.29	10.92
190.509	72.36
190.729	8.87
190.948	41.64
191.168	148.14
191.387	84.65
191.607	-21.84
191.826	105.13
192.045	27.31
192.265	41.64
192.484	29.35
192.704	-25.94
192.923	23.21
193.142	47.79
193.362	76.46
193.581	41.64
193.8	4.78
194.02	55.98
194.239	53.93
194.458	76.46
194.678	49.83
194.897	-11.61
195.116	-56.66
195.335	-1.37
195.555	58.03
195.774	25.26
195.993	70.31
196.212	-46.42
196.432	62.12
196.651	17.07
196.87	19.11
197.089	137.9
197.308	27.31
197.528	37.55
197.747	-109.91
197.966	35.5
198.185	80.55
198.404	-75.09
198.623	68.27
198.842	15.02
199.062	43.69
199.281	148.14
199.5	31.4
199.719	23.21
199.938	23.21
200.157	-11.61
200.376	82.6
200.595	82.6
200.814	-87.38
201.033	-13.65
201.252	47.79
201.471	60.07
201.69	119.46
201.909	60.07
202.128	39.59
202.347	94.89
202.566	37.55
202.785	-44.37
203.004	-42.32
203.223	182.95
203.442	51.88
203.661	-56.66
203.879	25.26
204.098	82.6
204.317	-3.41
204.536	21.16
204.755	35.5
204.974	2.73
205.193	74.41
205.411	105.13
205.63	37.55
205.849	15.02
206.068	-7.51
206.287	-52.56
206.505	90.79
206.724	64.17
206.943	-23.89
207.162	29.35
207.381	-3.41
207.599	15.02
207.818	92.84
208.037	64.17
208.255	-23.89
208.474	21.16
208.693	31.4
208.911	-7.51
209.13	-17.75
209.349	31.4
209.567	6.83
209.786	37.55
210.005	70.31
210.223	29.35
210.442	-21.84
210.661	70.31
210.879	45.74
211.098	29.35
211.316	-9.56
211.535	-7.51
211.753	31.4
211.972	-19.8
212.191	10.92
212.409	-48.47
212.628	-19.8
212.846	33.45
213.065	70.31
213.283	98.99
213.502	29.35
213.72	49.83
213.938	0.68
214.157	39.59
214.375	78.51
214.594	49.83
214.812	60.07
215.031	8.87
215.249	-23.89
215.467	66.22
215.686	-1.37
215.904	70.31
216.122	62.12
216.341	62.12
216.559	29.35
216.778	115.37
216.996	78.51
217.214	-11.61
217.432	-30.04
217.651	8.87
217.869	-17.75
218.087	-27.99
218.306	-7.51
218.524	47.79
218.742	37.55
218.96	-46.42
219.179	29.35
219.397	31.4
219.615	152.23
219.833	29.35
220.051	-11.61
220.27	115.37
220.488	47.79
220.706	-5.46
220.924	10.92
221.142	-13.65
221.36	-21.84
221.578	6.83
221.796	33.45
222.015	113.32
222.233	31.4
222.451	33.45
222.669	-56.66
222.887	58.03
223.105	-27.99
223.323	-25.94
223.541	-40.28
223.759	10.92
223.977	-3.41
224.195	49.83
224.413	49.83
224.631	-40.28
224.849	27.31
225.067	88.75
225.285	12.97
225.503	-32.08
225.721	-15.7
225.939	82.6
226.157	80.55
226.375	152.23
226.592	27.31
226.81	43.69
227.028	78.51
227.246	15.02
227.464	55.98
227.682	82.6
227.9	31.4
228.117	86.7
228.335	78.51
228.553	98.99
228.771	27.31
228.989	47.79
229.206	4.78
229.424	29.35
229.642	-1.37
229.86	-44.37
230.077	70.31
230.295	10.92
230.513	27.31
230.731	29.35
230.948	170.66
231.166	62.12
231.384	49.83
231.601	39.59
231.819	39.59
232.037	-5.46
232.254	-7.51
232.472	119.46
232.689	27.31
232.907	-40.28
233.125	127.66
233.342	4.78
233.56	31.4
233.777	70.31
233.995	58.03
234.213	80.55
234.43	49.83
234.648	-11.61
234.865	-62.8
235.083	-34.13
235.3	29.35
235.518	37.55
235.735	17.07
235.953	82.6
236.17	31.4
236.388	33.45
236.605	43.69
236.822	33.45
237.04	94.89
237.257	-50.52
237.475	-30.04
237.692	72.36
237.909	51.88
238.127	21.16
238.344	2.73
238.562	-34.13
238.779	-64.85
238.996	-3.41
239.214	-1.37
239.431	96.94
239.648	-1.37
239.865	119.46
240.083	53.93
240.3	21.16
240.517	-44.37
240.735	47.79
240.952	2.73
241.169	60.07
241.386	88.75
241.603	-7.51
241.821	6.83
242.038	19.11
242.255	45.74
242.472	12.97
242.689	47.79
242.907	103.08
243.124	-9.56
243.341	-15.7
243.558	19.11
243.775	25.26
243.992	-79.19
244.209	62.12
244.426	82.6
244.643	-9.56
244.86	8.87
245.078	-27.99
245.295	66.22
245.512	-3.41
245.729	8.87
245.946	47.79
246.163	19.11
246.38	12.97
246.597	0.68
246.814	47.79
247.031	-42.32
247.248	25.26
247.464	-1.37
247.681	37.55
247.898	53.93
248.115	74.41
248.332	-9.56
248.549	148.14
248.766	135.85
248.983	72.36
249.2	39.59
249.417	82.6
249.633	-25.94
249.85	45.74
250.067	29.35
250.284	-23.89
250.501	-1.37
250.717	121.51
250.934	-32.08
251.151	6.83
251.368	37.55
251.585	86.7
251.801	35.5
252.018	8.87
252.235	70.31
252.451	-75.09
252.668	-21.84
252.885	103.08
253.102	37.55
253.318	-9.56
253.535	45.74
253.752	25.26
253.968	-3.41
254.185	4.78
254.401	33.45
254.618	-40.28
254.835	-7.51
255.051	72.36
255.268	-64.85
255.484	53.93
255.701	72.36
255.917	64.17
256.134	21.16
256.351	78.51
256.567	12.97
256.784	62.12
257	-17.75
257.217	29.35
257.433	78.51
257.65	21.16
257.866	58.03
258.082	-11.61
258.299	4.78
258.515	-5.46
258.732	-9.56
258.948	8.87
259.165	37.55
259.381	19.11
259.597	29.35
259.814	-25.94
260.03	-34.13
260.246	-27.99
260.463	-52.56
260.679	94.89
260.895	53.93
261.112	43.69
261.328	45.74
261.544	-27.99
261.761	94.89
261.977	-50.52
262.193	4.78
262.409	15.02
262.626	-42.32
262.842	62.12
263.058	-1.37
263.274	105.13
263.49	-3.41
263.707	51.88
263.923	92.84
264.139	-27.99
264.355	-25.94
264.571	41.64
264.787	21.16
265.004	53.93
265.22	49.83
265.436	41.64
265.652	-50.52
265.868	125.61
266.084	12.97
266.3	51.88
266.516	66.22
266.732	82.6
266.948	60.07
267.164	-19.8
267.38	82.6
267.596	49.83
267.812	58.03
268.028	37.55
268.244	-15.7
268.46	-11.61
268.676	15.02
268.892	115.37
269.108	-30.04
269.324	-9.56
269.54	-1.37
269.756	15.02
269.972	-9.56
270.188	70.31
270.403	-44.37
270.619	12.97
270.835	-23.89
271.051	86.7
271.267	-48.47
271.483	4.78
271.698	60.07
271.914	29.35
272.13	49.83
272.346	31.4
272.562	21.16
272.777	6.83
272.993	35.5
273.209	2.73
273.425	-40.28
273.64	53.93
273.856	68.27
274.072	-27.99
274.287	-54.61
274.503	-1.37
274.719	82.6
274.934	-32.08
275.15	37.55
275.366	-5.46
275.581	2.73
275.797	-21.84
276.012	-3.41
276.228	6.83
276.444	31.4
276.659	68.27
276.875	-71
277.09	21.16
277.306	-19.8
277.521	47.79
277.737	12.97
277.952	29.35
278.168	141.99
278.383	-32.08
278.599	-3.41
278.814	82.6
279.03	68.27
279.245	96.94
279.461	-19.8
279.676	12.97
279.892	29.35
280.107	19.11
280.322	23.21
280.538	53.93
280.753	-13.65
280.969	82.6
281.184	10.92
281.399	17.07
281.615	-13.65
281.83	23.21
282.045	-42.32
282.26	43.69
282.476	43.69
282.691	27.31
282.906	31.4
283.122	29.35
283.337	53.93
283.552	92.84
283.767	21.16
283.983	166.57
284.198	-1.37
284.413	58.03
284.628	21.16
284.843	21.16
285.058	-5.46
285.274	53.93
285.489	78.51
285.704	64.17
285.919	-30.04
286.134	-3.41
286.349	6.83
286.564	21.16
286.779	66.22
286.995	31.4
287.21	2.73
287.425	107.18
287.64	23.21
287.855	47.79
288.07	-93.52
288.285	-11.61
288.5	96.94
288.715	70.31
288.93	2.73
289.145	-23.89
289.36	78.51
289.575	37.55
289.79	53.93
290.004	15.02
290.219	23.21
290.434	-15.7
290.649	-9.56
290.864	-40.28
291.079	64.17
291.294	-3.41
291.509	-9.56
291.724	-101.72
291.938	6.83
292.153	4.78
292.368	78.51
292.583	29.35
292.798	49.83
293.012	123.56
293.227	0.68
293.442	10.92
293.657	123.56
293.871	115.37
294.086	12.97
294.301	80.55
294.516	49.83
294.73	-105.81
294.945	66.22
295.16	37.55
295.374	148.14
295.589	66.22
295.804	0.68
296.018	49.83
296.233	31.4
296.447	-9.56
296.662	-91.48
296.877	-42.32
297.091	43.69
297.306	25.26
297.52	103.08
297.735	62.12
297.949	-1.37
298.164	27.31
298.378	43.69
298.593	-25.94
298.807	-79.19
299.022	64.17
299.236	62.12
299.451	37.55
299.665	-13.65
299.88	31.4
300.094	33.45
300.309	23.21
300.523	33.45
300.737	15.02
300.952	23.21
301.166	21.16
301.381	72.36
301.595	15.02
301.809	49.83
302.024	-5.46
302.238	-5.46
302.452	45.74
302.667	-32.08
302.881	29.35
303.095	119.46
303.309	78.51
303.524	-46.42
303.738	0.68
303.952	-38.23
304.166	55.98
304.381	-38.23
304.595	62.12
304.809	-42.32
305.023	12.97
305.237	96.94
305.452	10.92
305.666	49.83
305.88	74.41
306.094	62.12
306.308	21.16
306.522	166.57
306.736	17.07
306.95	-42.32
307.164	6.83
307.379	31.4
307.593	127.66
307.807	53.93
308.021	27.31
308.235	96.94
308.449	-13.65
308.663	101.03
308.877	105.13
309.091	27.31
309.305	51.88
309.519	-75.09
309.733	94.89
309.947	25.26
310.161	8.87
310.374	62.12
310.588	76.46
310.802	2.73
311.016	-9.56
311.23	23.21
311.444	-27.99
311.658	6.83
311.872	51.88
312.085	4.78
312.299	23.21
312.513	107.18
312.727	27.31
312.941	-36.18
313.154	-3.41
313.368	6.83
313.582	70.31
313.796	15.02
314.009	-38.23
314.223	-19.8
314.437	-5.46
314.651	29.35
314.864	0.68
315.078	2.73
315.292	19.11
315.505	43.69
315.719	70.31
315.933	86.7
316.146	6.83
316.36	-87.38
316.573	12.97
316.787	70.31
317.001	31.4
317.214	8.87
317.428	66.22
317.641	6.83
317.855	-32.08
318.068	64.17
318.282	0.68
318.495	111.27
318.709	60.07
318.922	98.99
319.136	103.08
319.349	58.03
319.563	39.59
319.776	-7.51
319.99	23.21
320.203	37.55
320.417	55.98
320.63	90.79
320.843	103.08
321.057	105.13
321.27	68.27
321.483	39.59
321.697	70.31
321.91	45.74
322.124	4.78
322.337	158.38
322.55	-34.13
322.763	98.99
322.977	49.83
323.19	33.45
323.403	47.79
323.617	103.08
323.83	29.35
324.043	2.73
324.256	53.93
324.469	25.26
324.683	4.78
324.896	47.79
325.109	49.83
325.322	15.02
325.535	31.4
325.748	37.55
325.962	-58.71
326.175	39.59
326.388	6.83
326.601	27.31
326.814	25.26
327.027	49.83
327.24	60.07
327.453	-56.66
327.666	66.22
327.879	29.35
328.092	35.5
328.305	62.12
328.518	33.45
328.731	-30.04
328.944	58.03
329.157	55.98
329.37	21.16
329.583	135.85
329.796	90.79
330.009	39.59
330.222	60.07
330.435	70.31
330.648	90.79
330.861	53.93
331.073	64.17
331.286	82.6
331.499	-34.13
331.712	2.73
331.925	62.12
332.138	0.68
332.35	80.55
332.563	37.55
332.776	62.12
332.989	-21.84
333.202	53.93
333.414	12.97
333.627	-52.56
333.84	-52.56
334.053	47.79
334.265	-27.99
334.478	-13.65
334.691	49.83
334.903	113.32
335.116	39.59
335.329	4.78
335.541	94.89
335.754	47.79
335.966	-30.04
336.179	68.27
336.392	45.74
336.604	17.07
336.817	49.83
337.029	43.69
337.242	37.55
337.454	58.03
337.667	103.08
337.88	64.17
338.092	129.7
338.305	37.55
338.517	43.69
338.729	62.12
338.942	37.55
339.154	-15.7
339.367	6.83
339.579	74.41
339.792	8.87
340.004	107.18
340.217	27.31
340.429	45.74
340.641	2.73
340.854	-50.52
341.066	-3.41
341.278	8.87
341.491	4.78
341.703	-1.37
341.915	72.36
342.128	37.55
342.34	8.87
342.552	27.31
342.764	-23.89
342.977	45.74
343.189	84.65
343.401	68.27
343.613	-40.28
343.826	23.21
344.038	0.68
344.25	60.07
344.462	17.07
344.674	8.87
344.886	12.97
345.099	66.22
345.311	51.88
345.523	15.02
345.735	-15.7
345.947	53.93
346.159	27.31
346.371	25.26
346.583	78.51
346.795	47.79
347.007	35.5
347.219	25.26
347.431	45.74
347.643	55.98
347.855	-38.23
348.067	-19.8
348.279	-77.14
348.491	98.99
348.703	98.99
348.915	43.69
349.127	8.87
349.339	78.51
349.551	-11.61
349.763	21.16
349.975	53.93
350.187	62.12
350.399	29.35
350.61	47.79
350.822	80.55
351.034	53.93
351.246	86.7
351.458	51.88
351.669	76.46
351.881	94.89
352.093	107.18
352.305	23.21
352.517	103.08
352.728	74.41
352.94	47.79
353.152	66.22
353.363	45.74
353.575	-15.7
353.787	60.07
353.999	68.27
354.21	98.99
354.422	17.07
354.633	12.97
354.845	39.59
355.057	27.31
355.268	-36.18
355.48	70.31
355.692	15.02
355.903	31.4
356.115	-32.08
356.326	23.21
356.538	78.51
356.749	127.66
356.961	105.13
357.172	41.64
357.384	-17.75
357.595	178.86
357.807	37.55
358.018	62.12
358.23	-36.18
358.441	41.64
358.653	94.89
358.864	10.92
359.075	15.02
359.287	90.79
359.498	156.33
359.709	103.08
359.921	66.22
360.132	60.07
360.344	-9.56
360.555	12.97
360.766	96.94
360.977	45.74
361.189	23.21
361.4	17.07
361.611	84.65
361.823	98.99
362.034	58.03
362.245	-40.28
362.456	45.74
362.667	47.79
362.879	47.79
363.09	101.03
363.301	45.74
363.512	53.93
363.723	19.11
363.935	-3.41
364.146	21.16
364.357	80.55
364.568	31.4
364.779	-52.56
364.99	90.79
365.201	-50.52
365.412	105.13
365.623	-27.99
365.834	-1.37
366.045	72.36
366.256	72.36
366.467	12.97
366.678	4.78
366.889	47.79
367.1	49.83
367.311	141.99
367.522	74.41
367.733	-17.75
367.944	31.4
368.155	-27.99
368.366	51.88
368.577	29.35
368.788	119.46
368.999	51.88
369.209	17.07
369.42	162.47
369.631	127.66
369.842	133.8
370.053	62.12
370.264	96.94
370.474	37.55
370.685	68.27
370.896	-1.37
371.107	111.27
371.317	62.12
371.528	66.22
371.739	53.93
371.95	92.84
372.16	49.83
372.371	-3.41
372.582	0.68
372.792	66.22
373.003	123.56
373.214	17.07
373.424	86.7
373.635	-15.7
373.846	94.89
374.056	55.98
374.267	94.89
374.477	105.13
374.688	37.55
374.898	37.55
375.109	17.07
375.319	41.64
375.53	127.66
375.74	41.64
375.951	64.17
376.161	70.31
376.372	70.31
376.582	4.78
376.793	115.37
377.003	37.55
377.214	27.31
377.424	27.31
377.635	-32.08
377.845	60.07
378.055	45.74
378.266	-38.23
378.476	37.55
378.686	105.13
378.897	84.65
379.107	96.94
379.317	2.73
379.528	-15.7
379.738	105.13
379.948	12.97
380.158	72.36
380.369	45.74
380.579	62.12
380.789	45.74
380.999	170.66
381.21	82.6
381.42	119.46
381.63	80.55
381.84	78.51
382.05	70.31
382.261	96.94
382.471	74.41
382.681	-3.41
382.891	107.18
383.101	64.17
383.311	39.59
383.521	31.4
383.731	115.37
383.941	45.74
384.151	58.03
384.361	-9.56
384.571	51.88
384.781	15.02
384.991	98.99
385.201	109.23
385.411	25.26
385.621	47.79
385.831	82.6
386.041	15.02
386.251	-9.56
386.461	103.08
386.671	-3.41
386.881	23.21
387.091	78.51
387.301	45.74
387.511	62.12
387.72	107.18
387.93	-1.37
388.14	0.68
388.35	47.79
388.56	72.36
388.769	111.27
388.979	96.94
389.189	8.87
389.399	53.93
389.609	21.16
389.818	105.13
390.028	62.12
390.238	76.46
390.447	39.59
390.657	55.98
390.867	25.26
391.076	-23.89
391.286	45.74
391.496	103.08
391.705	47.79
391.915	115.37
392.125	29.35
392.334	58.03
392.544	115.37
392.753	82.6
392.963	58.03
393.172	31.4
393.382	58.03
393.591	105.13
393.801	88.75
394.01	21.16
394.22	12.97
394.429	45.74
394.639	-1.37
394.848	96.94
395.058	66.22
395.267	121.51
395.477	53.93
395.686	78.51
395.895	101.03
396.105	203.43
396.314	66.22
396.524	82.6
396.733	-58.71
396.942	109.23
397.152	80.55
397.361	146.09
397.57	86.7
397.78	70.31
397.989	150.18
398.198	191.14
398.407	115.37
398.617	135.85
398.826	21.16
399.035	137.9
399.244	125.61
399.453	60.07
399.663	62.12
399.872	123.56
400.081	47.79
400.29	94.89
400.499	39.59
400.708	158.38
400.917	37.55
401.127	74.41
401.336	47.79
401.545	205.48
401.754	154.28
401.963	131.75
402.172	103.08
402.381	60.07
402.59	74.41
402.799	103.08
403.008	201.38
403.217	125.61
403.426	55.98
403.635	41.64
403.844	86.7
404.053	141.99
404.262	121.51
404.471	207.53
404.68	62.12
404.888	170.66
405.097	164.52
405.306	109.23
405.515	189.1
405.724	121.51
405.933	76.46
406.142	144.04
406.35	219.82
406.559	197.29
406.768	144.04
406.977	219.82
407.185	236.2
407.394	164.52
407.603	189.1
407.812	299.69
408.02	176.81
408.229	160.42
408.438	207.53
408.646	195.24
408.855	158.38
409.064	223.91
409.272	230.06
409.481	236.2
409.69	170.66
409.898	260.77
410.107	262.82
410.315	219.82
410.524	311.97
410.733	324.26
410.941	289.45
411.15	336.55
411.358	307.88
411.567	336.55
411.775	383.65
411.984	303.78
412.192	336.55
412.401	367.27
412.609	481.96
412.818	520.87
413.026	481.96
413.234	430.76
413.443	443.04
413.651	531.11
413.86	455.33
414.068	524.96
414.276	610.98
414.485	582.31
414.693	666.27
414.901	727.71
415.11	713.38
415.318	701.09
415.526	719.52
415.734	744.1
415.943	742.05
416.151	811.68
416.359	785.05
416.567	832.16
416.776	832.16
416.984	901.79
417.192	1036.95
417.4	879.26
417.608	877.21
417.817	1020.57
418.025	1051.29
418.233	1145.5
418.441	1051.29
418.649	1141.4
418.857	1184.41
419.065	1358.49
419.273	1196.7
419.481	1292.95
419.689	1331.86
419.897	1460.88
420.105	1559.19
420.313	1438.36
420.521	1579.67
420.729	1469.08
420.937	1600.15
421.145	1583.76
421.353	1800.85
421.561	1936.01
421.769	1919.63
421.977	2009.74
422.185	2046.6
422.393	2175.63
422.601	2259.59
422.809	2155.15
423.017	2163.34
423.224	2224.78
423.432	2368.13
423.64	2460.29
423.848	2624.13
424.056	2609.79
424.263	2693.76
424.471	2781.82
424.679	2890.37
424.887	3009.15
425.094	2982.53
425.302	3039.87
425.51	3220.09
425.718	3265.14
425.925	3326.58
426.133	3424.89
426.341	3754.61
426.548	3744.37
426.756	3795.57
426.964	3834.48
427.171	4067.95
427.379	4186.73
427.586	4219.5
427.794	4344.42
428.001	4674.15
428.209	4782.69
428.417	4643.43
428.624	5083.74
428.832	4958.82
429.039	4921.95
429.247	4956.77
429.454	5495.38
429.662	5773.91
429.869	5558.87
430.076	5925.46
430.284	5808.72
430.491	6058.57
430.699	6363.72
430.906	6353.48
431.114	6134.35
431.321	6709.83
431.528	6797.89
431.736	7156.29
431.943	7524.92
432.15	7379.51
432.358	7350.84
432.565	7813.68
432.772	7748.15
432.979	8084.02
433.187	8217.13
433.394	8385.07
433.601	8862.24
433.808	8866.34
434.016	8876.58
434.223	9216.54
434.43	9859.6
434.637	9673.24
434.844	10105.36
435.052	10271.25
435.259	10486.28
435.466	10336.78
435.673	10207.76
435.88	10959.36
436.087	11715.06
436.294	11729.4
436.501	11313.66
436.708	11545.08
436.915	11993.59
437.122	12517.87
437.329	12298.73
437.537	13044.2
437.743	13009.38
437.95	12927.46
438.157	13498.84
438.364	14201.3
438.571	14160.34
438.778	14074.32
438.985	15423.94
439.192	14901.7
439.399	15530.43
439.606	14830.02
439.813	15710.65
440.02	16847.27
440.227	16544.17
440.433	16341.43
440.64	16705.96
440.847	17025.45
441.054	17117.61
441.261	18397.59
441.467	18256.28
441.674	18743.69
441.881	19085.7
442.088	19155.33
442.294	19214.73
442.501	19628.42
442.708	20064.63
442.914	20619.63
443.121	21520.74
443.328	20910.44
443.534	22577.49
443.741	21547.36
443.948	21479.78
444.154	23267.66
444.361	22913.36
444.568	23200.07
444.774	23355.72
444.981	23482.69
445.187	24344.89
445.394	25264.43
445.6	25000.24
445.807	27132.17
446.013	26100
446.22	26669.33
446.426	27568.39
446.633	28154.11
446.839	28735.73
447.046	27961.6
447.252	29235.44
447.459	29268.2
447.665	29286.64
447.871	30300.38
448.078	31963.33
448.284	30208.22
448.491	31056.08
448.697	32032.96
448.903	32866.49
449.11	33163.44
449.316	32301.25
449.522	33128.63
449.728	34494.62
449.935	34613.4
450.141	33999.01
450.347	35381.39
450.553	34003.11
450.76	34963.61
450.966	35528.84
451.172	35199.12
451.378	36239.49
451.584	35821.7
451.791	36419.71
451.997	36556.92
452.203	37306.48
452.409	36925.56
452.615	36978.81
452.821	35539.08
453.027	34832.54
453.233	37304.43
453.44	35457.17
453.646	36139.14
453.852	35909.77
454.058	36763.77
454.264	35244.18
454.47	36235.39
454.676	35569.8
454.882	36837.5
455.088	33708.2
455.294	34148.51
455.5	34492.57
455.705	35217.55
455.911	33427.63
456.117	33083.57
456.323	32678.07
456.529	31039.7
456.735	32434.36
456.941	31504.59
457.147	30787.8
457.352	29946.08
457.558	29505.77
457.764	29950.18
457.97	29124.85
458.176	28991.73
458.381	28375.29
458.587	27312.39
458.793	27179.28
458.999	25706.79
459.204	27605.25
459.41	26976.53
459.616	24932.65
459.821	25010.48
460.027	25200.94
460.233	24506.68
460.438	23433.54
460.644	23933.25
460.85	22440.28
461.055	22307.16
461.261	22190.42
461.466	20670.83
461.672	19929.47
461.878	21180.78
462.083	20171.13
462.289	19620.22
462.494	19231.11
462.7	18334.1
462.905	18026.9
463.111	18497.94
463.316	18825.61
463.522	18332.05
463.727	18172.31
463.932	18108.82
464.138	17809.82
464.343	17879.45
464.549	17359.27
464.754	18231.7
464.959	17832.35
465.165	17807.77
465.37	17029.54
465.575	16535.98
465.781	17369.51
465.986	17449.38
466.191	16755.12
466.397	16454.06
466.602	15612.35
466.807	16310.71
467.012	16478.64
467.218	16181.68
467.423	16007.61
467.628	15960.5
467.833	16746.92
468.038	16161.2
468.244	15686.08
468.449	16263.6
468.654	15622.59
468.859	15598.01
469.064	15512
469.269	14842.31
469.474	15053.25
469.679	15462.85
469.885	14989.77
470.09	15176.13
470.295	15141.32
470.5	14565.84
470.705	14688.71
470.91	14479.82
471.115	14166.48
471.32	14547.4
471.525	14418.38
471.73	13914.58
471.935	14135.76
472.139	13459.93
472.344	13881.81
472.549	13685.21
472.754	13588.96
472.959	13167.07
473.164	12777.96
473.369	12759.53
473.574	13531.61
473.778	12855.78
473.983	13095.39
474.188	13072.87
474.393	12366.32
474.598	12251.63
474.802	12171.76
475.007	12478.96
475.212	12472.81
475.417	11846.13
475.621	11766.26
475.826	11862.52
476.031	11543.03
476.235	11434.49
476.44	11530.75
476.645	11442.68
476.849	11303.42
477.054	11145.73
477.259	10949.12
477.463	10920.45
477.668	10695.18
477.872	10793.48
478.077	10660.36
478.282	10205.71
478.486	10402.32
478.691	10406.41
478.895	10332.68
479.1	10351.12
479.304	10244.62
479.509	9861.65
479.713	10246.67
479.918	10068.5
480.122	9566.74
480.326	9865.75
480.531	9875.99
480.735	9503.26
480.94	9583.13
481.144	9927.19
481.348	9331.23
481.553	9511.45
481.757	9499.16
481.961	9474.59
482.166	9724.44
482.37	9490.97
482.574	9400.86
482.778	9392.67
482.983	9585.18
483.187	9619.99
483.391	9484.83
483.595	9435.67
483.8	9308.7
484.004	9341.47
484.208	9710.1
484.412	9345.56
484.616	9486.87
484.821	9364
485.025	9298.46
485.229	9544.22
485.433	9574.94
485.637	9519.64
485.841	9400.86
486.045	9450.01
486.249	9351.71
486.453	9273.89
486.657	9503.26
486.861	9427.48
487.065	9425.43
487.269	9484.83
487.473	8999.46
487.677	9558.55
487.881	9556.5
488.085	9413.15
488.289	9316.89
488.493	9347.61
488.697	9552.41
488.901	9458.2
489.105	9400.86
489.309	9701.91
489.512	9656.86
489.716	9650.71
489.92	9550.36
490.124	9339.42
490.328	9720.34
490.531	9423.39
490.735	9484.83
490.939	9450.01
491.143	9685.53
491.346	9820.69
491.55	9898.52
491.754	10043.92
491.958	9955.86
492.161	9740.82
492.365	9890.32
492.569	9984.53
492.772	9900.56
492.976	9962
493.18	10045.97
493.383	10306.06
493.587	10158.61
493.79	10453.52
493.994	10306.06
494.197	10224.14
494.401	10557.96
494.605	10383.88
494.808	10592.78
495.012	10607.11
495.215	10729.99
495.419	10809.86
495.622	10852.87
495.825	10916.36
496.029	11168.26
496.232	11092.48
496.436	11244.03
496.639	11336.19
496.843	11332.09
497.046	11497.98
497.249	11434.49
497.453	11686.39
497.656	11622.91
497.859	11864.57
498.063	11655.67
498.266	12173.81
498.469	12102.13
498.673	12585.45
498.876	12435.95
499.079	12444.14
499.282	12440.04
499.485	12935.65
499.689	12872.17
499.892	12945.89
500.095	12925.41
500.298	13461.98
500.501	13363.68
500.705	13937.11
500.908	14133.71
501.111	14096.85
501.314	14326.22
501.517	14318.03
501.72	14344.66
501.923	14389.71
502.126	14639.56
502.329	14983.62
502.532	14979.53
502.735	15223.23
502.938	15489.47
503.141	15532.48
503.344	15696.32
503.547	15892.92
503.75	15974.84
503.953	16036.28
504.156	16343.47
504.359	16527.79
504.562	16630.19
504.765	16716.2
504.968	17242.53
505.17	17502.62
505.373	17322.4
505.576	17592.73
505.779	17619.36
505.982	17707.42
506.185	18200.98
506.387	18315.67
506.59	18608.53
506.793	19005.83
506.996	18882.95
507.198	19405.19
507.401	19261.83
507.604	19519.87
507.807	19644.8
508.009	19958.14
508.212	19882.36
508.415	20359.54
508.617	20552.05
508.82	20689.26
509.022	20568.43
509.225	21313.89
509.428	21389.67
509.63	21541.22
509.833	21625.18
510.035	22212.95
510.238	22057.31
510.44	22348.12
510.643	22581.59
510.845	22937.93
511.048	22675.79
511.25	22995.28
511.453	23195.98
511.655	24195.39
511.858	23759.17
512.06	24138.04
512.262	24303.93
512.465	24179
512.667	24752.43
512.87	24975.66
513.072	25098.54
513.274	25424.17
513.477	25547.04
513.679	25991.45
513.881	26059.04
514.084	26521.88
514.286	26321.18
514.488	26487.06
514.69	27447.56
514.893	27556.1
515.095	27779.33
515.297	27785.47
515.499	27932.93
515.701	28328.19
515.904	28469.5
516.106	28739.83
516.308	29145.33
516.51	29241.58
516.712	29194.48
516.914	29599.97
517.116	30085.34
517.318	30107.87
517.52	30427.35
517.722	30546.14
517.925	30892.24
518.127	31342.8
518.329	31344.84
518.531	31385.8
518.733	32121.02
518.935	31998.15
519.136	32526.52
519.338	32872.63
519.54	32676.02
519.742	33228.98
519.944	33487.02
520.146	33757.35
520.348	34015.4
520.55	34246.82
520.752	33996.96
520.954	34939.03
521.155	34699.42
521.357	35293.33
521.559	35623.05
521.761	35938.44
521.963	35891.33
522.164	36257.92
522.366	36028.55
522.568	36661.37
522.77	36735.1
522.971	37253.23
523.173	37007.48
523.375	37722.22
523.576	37650.54
523.778	37347.44
523.98	37724.27
524.181	38430.82
524.383	38332.51
524.584	39028.82
524.786	38893.66
524.988	38897.75
525.189	39090.26
525.391	39321.68
525.592	39608.4
525.794	39446.61
525.995	39706.7
526.197	39993.42
526.398	39899.21
526.6	39979.08
526.801	40325.19
527.003	40468.55
527.204	40683.58
527.406	40941.63
527.607	41082.94
527.808	41639.98
528.01	40704.06
528.211	41472.05
528.412	41844.78
528.614	41496.63
528.815	42235.94
529.016	42104.87
529.218	41990.19
529.419	41816.11
529.62	41889.84
529.822	42096.68
530.023	42430.5
530.224	42706.97
530.425	42022.95
530.626	41961.51
530.828	42270.76
531.029	43309.08
531.23	42676.26
531.431	42561.57
531.632	42917.92
531.833	42809.37
532.035	43186.2
532.236	43091.99
532.437	43329.56
532.638	43188.25
532.839	43442.2
533.04	43487.25
533.241	42694.69
533.442	43614.23
533.643	43382.8
533.844	43278.36
534.045	43208.73
534.246	42852.38
534.447	43560.98
534.648	43114.52
534.849	42967.07
535.05	43167.77
535.251	43327.51
535.451	43595.79
535.652	43591.7
535.853	43452.44
536.054	43569.17
536.255	43868.17
536.456	43657.23
536.657	43986.96
536.857	43716.62
537.058	43577.36
537.259	43753.49
537.46	43626.51
537.66	43286.55
537.861	43773.97
538.062	43493.39
538.263	43507.73
538.463	43413.52
538.664	43677.71
538.865	43712.53
539.065	44111.88
539.266	43253.78
539.466	43747.34
539.667	43487.25
539.868	43685.9
540.068	43423.76
540.269	43464.72
540.469	43700.24
540.67	43380.76
540.87	43606.03
541.071	43167.77
541.271	43773.97
541.472	43792.4
541.672	43208.73
541.873	43599.89
542.073	43431.96
542.274	43720.72
542.474	43364.37
542.675	43124.76
542.875	44032.01
543.075	43405.33
543.276	43075.61
543.476	43644.94
543.676	43192.34
543.877	43376.66
544.077	43653.14
544.277	43241.49
544.478	43657.23
544.678	43606.03
544.878	43276.31
545.078	43186.2
545.279	43247.64
545.479	43089.95
545.679	43386.9
545.879	43388.95
546.079	43376.66
546.28	43245.59
546.48	42815.52
546.68	42860.57
546.88	43036.7
547.08	43603.99
547.28	43091.99
547.48	42616.86
547.68	43100.18
547.88	42762.27
548.081	43208.73
548.281	43239.45
548.481	42641.44
548.681	43634.7
548.881	43032.6
549.081	43169.82
549.28	42500.13
549.48	43407.38
549.68	42862.62
549.88	43655.18
550.08	42997.79
550.28	43132.95
550.48	42760.22
550.68	43339.8
550.88	42983.45
551.08	42602.53
551.279	43200.54
551.479	42577.95
551.679	43192.34
551.879	42858.52
552.079	42881.05
552.278	42680.35
552.478	42586.14
552.678	42854.43
552.878	43022.36
553.077	42889.24
553.277	42577.95
553.477	43143.19
553.676	42463.27
553.876	42453.03
554.076	42856.48
554.275	42469.41
554.475	42450.98
554.674	42614.82
554.874	42735.65
555.074	42330.15
555.273	42336.29
555.473	42952.73
555.672	42192.93
555.872	42508.32
556.071	42219.56
556.271	42643.49
556.47	42131.5
556.67	42070.06
556.869	42254.37
557.068	42790.94
557.268	41963.56
557.467	42205.22
557.667	42164.26
557.866	41979.95
558.065	41941.03
558.265	41783.34
558.464	41625.65
558.663	42371.11
558.863	41734.19
559.062	42272.81
559.261	41521.2
559.461	42219.56
559.66	41240.63
559.859	41713.71
560.058	41347.12
560.258	41349.17
560.457	41429.04
560.656	41648.18
560.855	41119.8
561.054	41320.5
561.253	41001.02
561.453	40980.54
561.652	41261.11
561.851	41175.09
562.05	41039.93
562.249	40550.46
562.448	40783.93
562.647	41064.5
562.846	40665.15
563.045	40716.35
563.244	40407.11
563.443	41148.47
563.642	39880.78
563.841	40298.56
564.04	39770.19
564.239	40839.23
564.438	39878.73
564.637	40202.31
564.836	40142.92
565.035	39555.15
565.234	39706.7
565.432	39514.19
565.631	39569.49
565.83	39422.03
566.029	39166.04
566.228	39333.97
566.427	39229.52
566.625	39102.55
566.824	38862.94
567.023	39366.74
567.222	38910.04
567.42	39370.83
567.619	38711.39
567.818	38783.07
568.016	38647.9
568.215	38946.9
568.414	38631.52
568.612	38932.57
568.811	38555.74
569.01	38279.27
569.208	37886.06
569.407	38357.09
569.605	37693.55
569.804	37990.5
570.002	37458.03
570.201	37695.6
570.4	37423.22
570.598	37167.22
570.797	36984.95
570.995	37406.83
571.193	36759.67
571.392	37369.97
571.59	36993.14
571.789	37023.86
571.987	36968.57
572.186	36831.35
572.384	36812.92
572.582	37015.67
572.781	36788.35
572.979	36028.55
573.177	36810.87
573.376	36722.81
573.574	36272.26
573.772	36475.01
573.971	36214.91
574.169	36077.7
574.367	35487.89
574.565	36200.58
574.763	35836.04
574.962	35774.6
575.16	35360.91
575.358	35590.28
575.556	35139.73
575.754	35747.98
575.952	35094.68
576.151	35207.31
576.349	34896.02
576.547	34519.2
576.745	35387.53
576.943	35094.68
577.141	34726.04
577.339	34965.65
577.537	34926.74
577.735	34691.23
577.933	34654.36
578.131	34605.21
578.329	34003.11
578.527	33953.96
578.725	34146.47
578.923	34148.51
579.121	33966.24
579.319	33755.3
579.516	34007.2
579.714	34132.13
579.912	33386.67
580.11	33624.23
580.308	33622.19
580.506	33452.2
580.704	32774.33
580.901	33515.69
581.099	33550.51
581.297	33077.43
581.495	33198.26
581.692	33364.14
581.89	32899.25
582.088	33138.86
582.285	32397.5
582.483	32633.02
582.681	32612.54
582.878	32436.41
583.076	32417.98
583.274	32622.78
583.471	32004.29
583.669	32469.18
583.866	31750.34
584.064	32131.26
584.262	31492.3
584.459	32075.97
584.657	31627.46
584.854	31963.33
585.052	31494.35
585.249	31641.8
585.447	31420.62
585.644	30965.97
585.841	30859.48
586.039	31004.88
586.236	31158.48
586.434	30935.25
586.631	30775.51
586.828	30912.72
587.026	30746.84
587.223	30800.08
587.42	30322.91
587.618	30288.09
587.815	30175.45
588.012	30159.07
588.21	30128.35
588.407	30357.72
588.604	29886.69
588.801	29921.51
588.999	29681.89
589.196	29767.91
589.393	29577.45
589.59	29409.51
589.787	29427.95
589.984	29485.29
590.182	29389.03
590.379	29452.52
590.576	29047.02
590.773	29128.94
590.97	29503.72
591.167	29053.17
591.364	29083.89
591.561	28965.1
591.758	28414.2
591.955	28526.84
592.152	28508.41
592.349	28313.85
592.546	28582.13
592.743	28281.08
592.94	28215.55
593.137	28487.93
593.334	28389.63
593.531	27844.87
593.727	27951.36
593.924	27846.91
594.121	27848.96
594.318	27904.26
594.515	27418.89
594.712	27932.93
594.908	27281.67
595.105	27537.67
595.302	26999.05
595.499	27197.71
595.696	27097.36
595.892	26716.44
596.089	27134.22
596.286	26878.22
596.482	26982.67
596.679	26814.74
596.876	26698
597.072	26460.44
597.269	26622.23
597.466	26423.58
597.662	26296.6
597.859	26134.81
598.055	26304.79
598.252	25805.09
598.448	25911.58
598.645	26093.85
598.841	25932.06
599.038	25794.85
599.234	25706.79
599.431	25645.35
599.627	25137.45
599.824	25479.46
600.02	25207.08
600.217	25461.03
600.413	25131.31
600.609	25202.99
600.806	25069.87
601.002	25309.48
601.198	24854.83
601.395	24748.34
601.591	24688.95
601.787	24963.37
601.984	24484.15
602.18	24996.14
602.376	24447.29
602.572	24435
602.769	24353.08
602.965	24074.56
603.161	24185.15
603.357	24131.9
603.553	24346.94
603.75	24092.99
603.946	23982.4
604.142	24285.5
604.338	23583.04
604.534	23847.23
604.73	23562.56
604.926	23726.4
605.122	23468.36
605.318	23423.3
605.514	23198.02
605.71	23372.1
605.906	23181.64
606.102	23310.66
606.298	23103.82
606.494	23148.87
606.69	22919.5
606.886	22921.55
607.082	22661.46
607.278	22991.18
607.474	22866.25
607.67	22792.53
607.866	22434.13
608.062	22726.99
608.257	22589.78
608.453	22681.94
608.649	22473.04
608.845	22178.14
609.041	22270.29
609.236	22401.36
609.432	22327.64
609.628	22266.2
609.824	22006.11
610.019	22194.52
610.215	21928.28
610.411	22137.18
610.606	22028.63
610.802	22157.66
610.998	21758.3
611.193	21913.95
611.389	21760.35
611.584	21487.97
611.78	21361
611.976	21442.92
612.171	21821.79
612.367	21725.54
612.562	21629.28
612.758	21135.72
612.953	21238.12
613.149	21821.79
613.344	21436.77
613.539	21465.44
613.735	21021.03
613.93	21141.86
614.126	21080.42
614.321	21336.42
614.517	21096.81
614.712	20957.55
614.907	20781.42
615.103	21182.82
615.298	21313.89
615.493	20949.35
615.688	20633.97
615.884	20846.96
616.079	20597.1
616.274	20857.2
616.47	20629.87
616.665	20732.27
616.86	20443.51
617.055	20402.55
617.25	20488.56
617.445	20636.02
617.641	19964.28
617.836	20263.29
618.031	20050.3
618.226	20277.62
618.421	20070.78
618.616	20427.12
618.811	19812.73
619.006	20212.09
619.201	19485.06
619.396	19693.95
619.591	19292.55
619.786	19673.47
619.981	19300.74
620.176	19526.02
620.371	19237.25
620.566	19425.67
620.761	19083.66
620.956	19442.05
621.151	18952.59
621.346	19100.04
621.541	18676.11
621.735	19057.03
621.93	18712.97
622.125	18680.21
622.32	18284.95
622.515	18651.53
622.709	18502.03
622.904	18332.05
623.099	18325.91
623.294	18137.49
623.488	18184.6
623.683	17963.42
623.878	17602.97
624.072	17996.18
624.267	17975.7
624.462	17521.06
624.656	17363.36
624.851	17396.13
625.046	17568.16
625.24	17381.79
625.435	17119.65
625.629	17123.75
625.824	17031.59
626.018	16791.98
626.213	16622
626.407	16798.12
626.602	16273.84
626.796	16462.26
626.991	16660.91
627.185	16298.42
627.38	16169.4
627.574	16126.39
627.768	16052.66
627.963	16124.34
628.157	15702.46
628.352	16054.71
628.546	15552.96
628.74	15546.81
628.935	15759.8
629.129	15395.26
629.323	15397.31
629.517	15270.34
629.712	15276.48
629.906	15270.34
630.1	14969.29
630.294	15165.89
630.489	14930.37
630.683	15198.66
630.877	14881.22
631.071	14746.06
631.265	14709.19
631.459	14531.02
631.653	14451.15
631.848	14322.13
632.042	14332.37
632.236	14578.12
632.43	13885.91
632.624	14219.73
632.818	14053.84
633.012	13859.29
633.206	13951.45
633.4	13892.05
633.594	13683.16
633.788	13791.7
633.982	13591
634.176	13677.02
634.369	13629.91
634.563	13636.06
634.757	13267.42
634.951	13277.66
635.145	13351.39
635.339	13142.5
635.533	13001.19
635.726	12886.5
635.92	12863.97
636.114	12800.49
636.308	12775.91
636.501	12771.82
636.695	12761.58
636.889	12577.26
637.083	12507.63
637.276	12407.28
637.47	12206.58
637.664	12462.57
637.857	12409.33
638.051	12046.83
638.244	12055.03
638.438	12075.51
638.632	11930.1
638.825	11837.94
639.019	11956.72
639.212	11776.5
639.406	11799.03
639.599	11639.29
639.793	11733.5
639.986	11602.43
640.18	11659.77
640.373	11354.62
640.567	11297.28
640.76	11483.64
640.954	11084.29
641.147	11078.15
641.34	11131.39
641.534	11395.58
641.727	11276.8
641.92	11072
642.114	10949.12
642.307	10961.41
642.5	10838.53
642.694	10592.78
642.887	10811.91
643.08	10813.96
643.273	10510.86
643.467	10781.19
643.66	10619.4
643.853	10400.27
644.046	10168.85
644.239	10240.53
644.432	10316.3
644.626	10261.01
644.819	10074.64
645.012	10035.73
645.205	10150.42
645.398	10048.02
645.591	9812.5
645.784	9804.31
645.977	9667.1
646.17	9898.52
646.363	9861.65
646.556	9456.15
646.749	9710.1
646.942	9654.81
647.135	9517.59
647.328	9458.2
647.521	9548.31
647.714	9294.36
647.907	9404.96
648.099	9308.7
648.292	9079.33
648.485	9286.17
648.678	9073.18
648.871	8946.21
649.064	9032.22
649.256	9175.58
649.449	8886.82
649.642	8823.33
649.835	8636.97
650.027	8868.39
650.22	8880.68
650.413	8690.21
650.605	8722.98
650.798	8606.25
650.991	8495.66
651.183	8598.06
651.376	8493.61
651.568	8561.19
651.761	8501.8
651.954	8440.36
652.146	8337.96
652.339	8409.64
652.531	8223.28
652.724	8256.04
652.916	8108.59
653.109	8059.44
653.301	8254
653.494	8206.89
653.686	7907.89
653.879	8116.78
654.071	7899.7
654.263	7750.2
654.456	7782.96
654.648	7885.36
654.84	7742
655.033	7625.27
655.225	7643.7
655.417	7569.98
655.61	7713.33
655.802	7496.25
655.994	7488.06
656.186	7494.2
656.379	7301.69
656.571	7610.93
656.763	7318.07
656.955	7285.31
657.148	7330.36
657.34	7260.73
657.532	7279.16
657.724	7127.61
657.916	7082.56
658.108	7146.05
658.3	7127.61
658.492	7039.55
658.684	6935.1
658.876	6914.63
659.068	7033.41
659.26	6767.17
659.452	6875.71
659.644	6785.6
659.836	6857.28
660.028	6828.61
660.22	6615.62
660.412	6752.84
660.604	6591.05
660.796	6646.34
660.988	6730.31
661.18	6625.86
661.372	6343.24
661.563	6619.72
661.755	6431.3
661.947	6466.12
662.139	6599.24
662.331	6412.87
662.522	6404.68
662.714	6435.4
662.906	6275.66
663.097	6296.14
663.289	6193.74
663.481	6271.56
663.673	6062.67
663.864	6136.4
664.056	6077.01
664.247	6101.58
664.439	6087.25
664.631	6036.05
664.822	6011.47
665.014	6074.96
665.205	6009.42
665.397	5929.55
665.588	5857.87
665.78	6023.76
665.971	5763.67
666.163	5888.59
666.354	5878.35
666.546	5737.04
666.737	5763.67
666.929	5855.83
667.12	5546.58
667.311	5765.71
667.503	5667.41
667.694	5636.69
667.885	5663.32
668.077	5597.78
668.268	5538.39
668.459	5456.47
668.651	5614.16
668.842	5562.97
669.033	5380.7
669.224	5304.92
669.416	5589.59
669.607	5532.25
669.798	5546.58
669.989	5419.61
670.18	5444.18
670.371	5401.18
670.563	5362.26
670.754	5386.84
670.945	5306.97
671.136	5440.09
671.327	5429.85
671.518	5311.07
671.709	5319.26
671.9	5288.54
672.091	5169.76
672.282	5290.59
672.473	5288.54
672.664	5251.67
672.855	5190.24
673.046	5110.36
673.237	5231.19
673.428	5206.62
673.619	5241.43
673.809	5182.04
674	5136.99
674.191	5212.76
674.382	5159.52
674.573	5245.53
674.764	5124.7
674.954	5177.95
675.145	5100.12
675.336	5005.92
675.527	5036.64
675.717	5048.93
675.908	4956.77
676.099	4999.77
676.289	5001.82
676.48	5007.97
676.671	4891.23
676.861	5102.17
677.052	4897.38
677.243	4919.9
677.433	4874.85
677.624	5005.92
677.814	4930.14
678.005	5055.07
678.195	5089.89
678.386	4815.46
678.576	4850.27
678.767	4946.53
678.957	5059.17
679.148	4915.81
679.338	4977.25
679.529	4893.28
679.719	4842.08
679.909	5014.11
680.1	4858.46
680.29	4987.49
680.481	4891.23
680.671	4778.59
680.861	4860.51
681.052	4919.9
681.242	4815.46
681.432	5042.78
681.622	4878.94
681.813	4751.97
682.003	4876.9
682.193	4686.44
682.383	4870.75
682.573	4696.68
682.764	4905.57
682.954	4844.13
683.144	4856.42
683.334	4723.3
683.524	4782.69
683.714	4780.64
683.904	4708.96
684.094	4827.74
684.284	4696.68
684.474	4756.07
684.664	4727.39
684.854	4719.2
685.044	4807.27
685.234	4723.3
685.424	4784.74
685.614	4708.96
685.804	4760.16
685.994	4772.45
686.184	4653.67
686.374	4549.22
686.564	4366.95
686.753	4768.35
686.943	4641.38
687.133	4489.83
687.323	4557.41
687.513	4418.15
687.702	4518.5
687.892	4495.97
688.082	4500.07
688.272	4434.53
688.461	4534.89
688.651	4448.87
688.841	4325.99
689.03	4385.38
689.22	4291.18
689.41	4420.2
689.599	4319.85
689.789	4309.61
689.979	4467.3
690.168	4213.35
690.358	4194.92
690.547	4043.37
690.737	4190.83
690.926	4131.44
691.116	4244.07
691.305	4117.1
691.495	4196.97
691.684	4139.63
691.874	4051.56
692.063	4012.65
692.252	4061.8
692.442	4149.87
692.631	4070
692.82	4024.94
693.01	3969.65
693.199	3949.17
693.388	3805.81
693.578	3977.84
693.767	3889.78
693.956	3791.47
694.146	3920.49
694.335	3900.02
694.524	3840.62
694.713	3793.52
694.902	3820.14
695.092	3822.19
695.281	3717.75
695.47	3730.03
695.659	3717.75
695.848	3695.22
696.037	3766.9
696.226	3797.62
696.415	3721.84
696.604	3732.08
696.793	3676.79
696.982	3658.35
697.171	3760.75
697.36	3672.69
697.549	3693.17
697.738	3615.35
697.927	3725.94
698.116	3588.72
698.305	3502.71
698.494	3707.51
698.683	3678.83
698.872	3639.92
699.061	3625.59
699.25	3555.96
699.438	3576.44
699.627	3572.34
699.816	3668.59
700.005	3512.95
700.193	3545.72
700.382	3596.92
700.571	3535.48
700.76	3535.48
700.948	3664.5
701.137	3680.88
701.326	3533.43
701.514	3662.45
701.703	3596.92
701.892	3541.62
702.08	3717.75
702.269	3609.2
702.457	3469.94
702.646	3603.06
702.834	3549.81
703.023	3650.16
703.212	3535.48
703.4	3531.38
703.589	3558
703.777	3570.29
703.965	3551.86
704.154	3478.13
704.342	3564.15
704.531	3539.57
704.719	3560.05
704.907	3648.12
705.096	3558
705.284	3519.09
705.472	3572.34
705.661	3535.48
705.849	3680.88
706.037	3723.89
706.226	3596.92
706.414	3533.43
706.602	3568.24
706.79	3539.57
706.979	3574.39
707.167	3570.29
707.355	3478.13
707.543	3480.18
707.731	3562.1
707.919	3684.98
708.107	3574.39
708.296	3480.18
708.484	3574.39
708.672	3502.71
708.86	3644.02
709.048	3641.97
709.236	3564.15
709.424	3650.16
709.612	3652.21
709.8	3648.12
709.988	3500.66
710.176	3523.19
710.364	3738.23
710.551	3670.64
710.739	3553.91
710.927	3633.78
711.115	3613.3
711.303	3646.07
711.491	3736.18
711.679	3596.92
711.866	3611.25
712.054	3494.52
712.242	3545.72
712.43	3682.93
712.617	3705.46
712.805	3775.09
712.993	3668.59
713.181	3553.91
713.368	3689.07
713.556	3578.48
713.744	3478.13
713.931	3775.09
714.119	3713.65
714.306	3801.71
714.494	3814
714.682	3664.5
714.869	3572.34
715.057	3879.54
715.244	3725.94
715.432	3900.02
715.619	3840.62
715.807	3781.23
715.994	3809.9
716.182	3633.78
716.369	3859.06
716.556	3803.76
716.744	3770.99
716.931	3658.35
717.119	3723.89
717.306	3846.77
717.493	3848.82
717.681	3752.56
717.868	3891.82
718.055	3805.81
718.242	3863.15
718.43	3748.47
718.617	3799.66
718.804	3715.7
718.991	3826.29
719.179	3789.42
719.366	3719.79
719.553	3998.32
719.74	3766.9
719.927	3818.1
720.114	3842.67
720.301	3773.04
720.488	3719.79
720.676	3854.96
720.863	3902.06
721.05	3928.69
721.237	3781.23
721.424	3826.29
721.611	3871.34
721.798	3928.69
721.985	3920.49
722.172	3678.83
722.358	3795.57
722.545	3920.49
722.732	3826.29
722.919	4010.61
723.106	3859.06
723.293	3998.32
723.48	4029.04
723.667	3824.24
723.853	3822.19
724.04	3834.48
724.227	3838.58
724.414	3914.35
724.6	3746.42
724.787	3824.24
724.974	4117.1
725.161	3832.43
725.347	3773.04
725.534	4088.43
725.72	3959.41
725.907	3936.88
726.094	3895.92
726.28	3818.1
726.467	3940.97
726.653	3906.16
726.84	3983.98
727.027	4100.72
727.213	3965.55
727.4	3940.97
727.586	3859.06
727.773	4022.89
727.959	4004.46
728.145	4051.56
728.332	3895.92
728.518	3965.55
728.705	4049.52
728.891	3889.78
729.077	3887.73
729.264	3955.31
729.45	3949.17
729.636	3947.12
729.823	3883.63
730.009	3979.89
730.195	3977.84
730.382	3973.74
730.568	3949.17
730.754	4010.61
730.94	4031.09
731.126	3998.32
731.313	4141.68
731.499	3947.12
731.685	4012.65
731.871	3986.03
732.057	4059.76
732.243	4004.46
732.429	3783.28
732.615	4070
732.801	4035.18
732.987	4010.61
733.173	3895.92
733.359	4051.56
733.545	4004.46
733.731	3900.02
733.917	4090.48
734.103	4074.09
734.289	4002.41
734.475	3879.54
734.661	4039.28
734.847	4104.81
735.033	4002.41
735.219	3961.45
735.404	4043.37
735.59	4059.76
735.776	3955.31
735.962	4127.34
736.148	4014.7
736.333	4000.37
736.519	3906.16
736.705	3902.06
736.89	3971.69
737.076	4094.57
737.262	3840.62
737.447	4039.28
737.633	3902.06
737.819	3959.41
738.004	3871.34
738.19	3988.08
738.375	3988.08
738.561	3947.12
738.747	3803.76
738.932	3793.52
739.118	3785.33
739.303	3988.08
739.489	3852.91
739.674	3725.94
739.859	3893.87
740.045	3891.82
740.23	3857.01
740.416	3658.35
740.601	3930.73
740.786	3703.41
740.972	3857.01
741.157	3795.57
741.342	3766.9
741.528	3803.76
741.713	3861.1
741.898	3789.42
742.084	3705.46
742.269	3758.71
742.454	3709.55
742.639	3820.14
742.824	3670.64
743.01	3789.42
743.195	3756.66
743.38	3662.45
743.565	3521.14
743.75	3660.4
743.935	3482.23
744.12	3551.86
744.305	3596.92
744.49	3515
744.675	3617.4
744.86	3439.22
745.045	3482.23
745.23	3529.33
745.415	3512.95
745.6	3482.23
745.785	3394.17
745.97	3437.17
746.155	3410.55
746.34	3422.84
746.525	3373.69
746.71	3398.26
746.895	3347.06
747.079	3230.33
747.264	3287.67
747.449	3289.72
747.634	3191.42
747.819	3181.18
748.003	3142.27
748.188	3179.13
748.373	3164.79
748.557	3003
748.742	3132.03
748.927	3177.08
749.111	3095.16
749.296	3232.38
749.481	3132.03
749.665	3082.88
749.85	2947.71
750.034	3084.92
750.219	2830.98
750.404	2896.51
750.588	2984.57
750.773	3029.63
750.957	2890.37
751.141	2871.93
751.326	2736.77
751.51	2822.78
751.695	2830.98
751.879	2853.5
752.064	2886.27
752.248	2777.73
752.432	2632.32
752.617	2693.76
752.801	2724.48
752.985	2769.54
753.17	2677.38
753.354	2736.77
753.538	2708.1
753.722	2650.75
753.907	2669.19
754.091	2468.49
754.275	2663.04
754.459	2577.03
754.643	2429.57
754.828	2599.56
755.012	2538.12
755.196	2529.92
755.38	2488.96
755.564	2376.33
755.748	2398.85
755.932	2392.71
756.116	2349.7
756.3	2249.35
756.484	2306.7
756.668	2265.74
756.852	2224.78
757.036	2384.52
757.22	2175.63
757.404	2198.15
757.588	2298.5
757.772	2282.12
757.956	2259.59
758.14	2349.7
758.323	2142.86
758.507	2226.82
758.691	2216.58
758.875	2288.26
759.059	2140.81
759.242	2030.22
759.426	2056.84
759.61	2167.43
759.794	2036.36
759.977	2194.06
760.161	2192.01
760.345	2056.84
760.528	2054.8
760.712	2032.27
760.895	1948.3
761.079	1964.68
761.263	1882.77
761.446	1952.4
761.63	1897.1
761.813	1882.77
761.997	1888.91
762.18	1958.54
762.364	1888.91
762.547	1905.29
762.731	1841.81
762.914	1890.96
763.098	1938.06
763.281	1811.09
763.464	1907.34
763.648	1942.16
763.831	1751.7
764.015	1798.8
764.198	1819.28
764.381	1827.47
764.564	1823.37
764.748	1860.24
764.931	1915.53
765.114	1766.03
765.297	1815.18
765.481	1663.63
765.664	1655.44
765.847	1809.04
766.03	1759.89
766.213	1741.46
766.397	1725.07
766.58	1620.63
766.763	1727.12
766.946	1647.25
767.129	1637.01
767.312	1622.67
767.495	1725.07
767.678	1589.91
767.861	1583.76
768.044	1604.24
768.227	1542.8
768.41	1729.17
768.593	1514.13
768.776	1559.19
768.959	1563.28
769.142	1612.43
769.324	1399.45
769.507	1530.52
769.69	1567.38
769.873	1624.72
770.056	1577.62
770.239	1524.37
770.421	1424.02
770.604	1497.75
770.787	1553.04
770.97	1512.08
771.152	1510.04
771.335	1499.8
771.518	1407.64
771.7	1499.8
771.883	1448.6
772.066	1489.56
772.248	1495.7
772.431	1475.22
772.613	1458.84
772.796	1381.01
772.978	1415.83
773.161	1450.64
773.343	1309.33
773.526	1399.45
773.708	1413.78
773.891	1235.61
774.073	1356.44
774.256	1342.1
774.438	1446.55
774.621	1268.38
774.803	1327.77
774.985	1198.74
775.168	1254.04
775.35	1233.56
775.532	1186.46
775.715	1256.09
775.897	1247.9
776.079	1217.18
776.261	1297.05
776.444	1143.45
776.626	1229.46
776.808	1190.55
776.99	1198.74
777.173	1249.94
777.355	1108.63
777.537	1104.54
777.719	1159.83
777.901	1159.83
778.083	1118.87
778.265	1139.35
778.447	1241.75
778.629	1102.49
778.811	1077.91
778.993	1020.57
779.175	1139.35
779.357	1073.82
779.539	1034.91
779.721	1014.43
779.903	1053.34
780.085	1022.62
780.267	1073.82
780.449	957.08
780.631	1008.28
780.812	1094.3
780.994	1030.81
781.176	1000.09
781.358	938.65
781.54	907.93
781.721	1006.24
781.903	932.51
782.085	891.55
782.267	918.17
782.448	778.91
782.63	879.26
782.812	877.21
782.993	901.79
783.175	869.02
783.357	918.17
783.538	932.51
783.72	758.43
783.901	879.26
784.083	875.17
784.264	789.15
784.446	823.97
784.627	721.57
784.809	873.12
784.99	815.77
785.172	807.58
785.353	778.91
785.535	793.25
785.716	819.87
785.897	793.25
786.079	653.98
786.26	762.53
786.441	791.2
786.623	696.99
786.804	750.24
786.985	750.24
787.167	746.14
787.348	670.37
787.529	733.86
787.71	678.56
787.891	696.99
788.073	735.9
788.254	717.47
788.435	783.01
788.616	719.52
788.797	701.09
788.978	785.05
789.159	561.83
789.34	660.13
789.522	701.09
789.703	565.92
789.884	553.63
790.065	522.91
790.246	721.57
790.427	676.51
790.607	602.79
790.788	627.36
790.969	608.93
791.15	629.41
791.331	567.97
791.512	598.69
791.693	514.72
791.874	590.5
792.054	740
792.235	672.42
792.416	502.44
792.597	578.21
792.778	541.35
792.958	494.24
793.139	588.45
793.32	539.3
793.5	498.34
793.681	520.87
793.862	596.64
794.042	533.15
794.223	576.16
794.404	610.98
794.584	570.02
794.765	430.76
794.945	473.76
795.126	531.11
795.306	520.87
795.487	414.37
795.667	408.23
795.848	537.25
796.028	397.99
796.209	481.96
796.389	567.97
796.57	426.66
796.75	459.43
796.93	545.44
797.111	447.14
797.291	479.91
797.471	443.04
797.652	453.28
797.832	397.99
798.012	506.53
798.192	389.8
798.373	416.42
798.553	508.58
798.733	459.43
798.913	432.8
799.093	426.66
799.274	494.24
799.454	504.48
799.634	463.52
799.814	504.48
799.994	414.37
800.174	471.72
800.354	375.46
800.534	457.38
800.714	467.62
800.894	336.55
801.074	322.21
801.254	432.8
801.434	436.9
801.614	484
801.794	322.21
801.974	1319.57
802.154	414.37
802.334	430.76
802.514	336.55
802.693	301.73
802.873	332.45
803.053	434.85
803.233	395.94
803.413	397.99
803.592	250.53
803.772	324.26
803.952	383.65
804.131	322.21
804.311	363.17
804.491	387.75
804.67	389.8
804.85	397.99
805.03	330.41
805.209	498.34
805.389	289.45
805.568	291.49
805.748	397.99
805.928	318.12
806.107	406.18
806.287	332.45
806.466	373.41
806.646	334.5
806.825	387.75
807.004	213.67
807.184	328.36
807.363	408.23
807.543	273.06
807.722	293.54
807.901	375.46
808.081	367.27
808.26	275.11
808.439	287.4
808.619	344.74
808.798	244.39
808.977	283.3
809.156	414.37
809.336	336.55
809.515	350.89
809.694	221.86
809.873	279.21
810.052	324.26
810.231	283.3
810.411	301.73
810.59	346.79
810.769	193.19
810.948	275.11
811.127	187.05
811.306	254.63
811.485	209.58
811.664	373.41
811.843	307.88
812.022	264.87
812.201	223.91
812.38	287.4
812.559	230.06
812.737	318.12
812.916	234.15
813.095	291.49
813.274	279.21
813.453	203.43
813.632	252.58
813.811	221.86
813.989	180.9
814.168	293.54
814.347	176.81
814.526	236.2
814.704	289.45
814.883	232.1
815.062	285.35
815.24	217.77
815.419	232.1
815.598	213.67
815.776	156.33
815.955	228.01
816.133	205.48
816.312	219.82
816.49	195.24
816.669	246.44
816.847	207.53
817.026	291.49
817.204	250.53
817.383	283.3
817.561	174.76
817.74	193.19
817.918	248.49
818.097	201.38
818.275	180.9
818.453	146.09
818.632	250.53
818.81	185
818.988	189.1
819.167	174.76
819.345	242.34
819.523	203.43
819.701	182.95
819.879	215.72
820.058	178.86
820.236	131.75
820.414	236.2
820.592	119.46
820.77	178.86
820.948	166.57
821.127	205.48
821.305	191.14
821.483	127.66
821.661	301.73
821.839	152.23
822.017	211.62
822.195	123.56
822.373	248.49
822.551	228.01
822.729	193.19
822.907	180.9
823.085	174.76
823.262	117.42
823.44	135.85
823.618	236.2
823.796	156.33
823.974	168.62
824.152	217.77
824.329	111.27
824.507	193.19
824.685	148.14
824.863	195.24
825.04	185
825.218	207.53
825.396	152.23
825.574	195.24
825.751	160.42
825.929	160.42
826.107	135.85
826.284	209.58
826.462	135.85
826.639	164.52
826.817	62.12
826.994	139.94
827.172	135.85
827.349	144.04
827.527	182.95
827.704	160.42
827.882	205.48
828.059	162.47
828.237	115.37
828.414	209.58
828.591	45.74
828.769	78.51
828.946	94.89
829.124	113.32
829.301	172.71
829.478	119.46
829.655	211.62
829.833	178.86
830.01	68.27
830.187	195.24
830.364	35.5
830.542	101.03
830.719	133.8
830.896	139.94
831.073	154.28
831.25	144.04
831.427	156.33
831.604	86.7
831.782	191.14
831.959	154.28
832.136	41.64
832.313	168.62
832.49	168.62
832.667	72.36
832.844	74.41
833.021	117.42
833.198	123.56
833.374	113.32
833.551	115.37
833.728	135.85
833.905	158.38
834.082	-44.37
834.259	182.95
834.436	158.38
834.612	76.46
834.789	170.66
834.966	148.14
835.143	201.38
835.319	123.56
835.496	107.18
835.673	207.53
835.85	141.99
836.026	168.62
836.203	115.37
836.38	33.45
836.556	51.88
836.733	117.42
836.909	127.66
837.086	158.38
837.262	53.93
837.439	72.36
837.616	150.18
837.792	82.6
837.968	109.23
838.145	6.83
838.321	125.61
838.498	150.18
838.674	107.18
838.851	127.66
839.027	53.93
839.203	64.17
839.38	94.89
839.556	117.42
839.732	88.75
839.909	90.79
840.085	123.56
840.261	41.64
840.437	58.03
840.614	86.7
840.79	150.18
840.966	78.51
841.142	72.36
841.318	129.7
841.494	86.7
841.671	82.6
841.847	45.74
842.023	6.83
842.199	78.51
842.375	60.07
842.551	47.79
842.727	-7.51
842.903	144.04
843.079	-13.65
843.255	78.51
843.431	66.22
843.607	27.31
843.783	55.98
843.959	-7.51
844.134	6.83
844.31	94.89
844.486	4.78
844.662	107.18
844.838	64.17
845.013	98.99
845.189	125.61
845.365	90.79
845.541	125.61
845.716	68.27
845.892	86.7
846.068	66.22
846.244	49.83
846.419	74.41
846.595	-1.37
846.77	39.59
846.946	101.03
847.122	82.6
847.297	33.45
847.473	45.74
847.648	78.51
847.824	64.17
847.999	-25.94
848.175	78.51
848.35	139.94
848.526	129.7
848.701	78.51
848.876	72.36
849.052	90.79
849.227	53.93
849.403	19.11
849.578	19.11
849.753	105.13
849.929	76.46
850.104	12.97
850.279	82.6
850.454	47.79
850.63	74.41
850.805	23.21
850.98	58.03
851.155	74.41
851.33	80.55
851.505	29.35
851.681	137.9
851.856	-79.19
852.031	92.84
852.206	113.32
852.381	-56.66
852.556	-21.84
852.731	137.9
852.906	82.6
853.081	80.55
853.256	62.12
853.431	35.5
853.606	0.68
853.781	-27.99
853.956	-77.14
854.131	6.83
854.305	-21.84
854.48	-11.61
854.655	-58.71
854.83	33.45
855.005	62.12
855.18	17.07
855.354	62.12
855.529	88.75
855.704	10.92
855.879	66.22
856.053	17.07
856.228	80.55
856.403	23.21
856.577	115.37
856.752	-27.99
856.926	51.88
857.101	19.11
857.276	25.26
857.45	10.92
857.625	33.45
857.799	49.83
857.974	103.08
858.148	78.51
858.323	6.83
858.497	4.78
858.672	33.45
858.846	41.64
859.02	17.07
859.195	37.55
859.369	0.68
859.543	17.07
859.718	33.45
859.892	-11.61
860.066	4.78
860.241	-19.8
860.415	-101.72
860.589	2.73
860.763	53.93
860.938	39.59
861.112	88.75
861.286	68.27
861.46	98.99
861.634	49.83
861.808	111.27
861.982	-23.89
862.157	-34.13
862.331	-42.32
862.505	-27.99
862.679	21.16
862.853	10.92
863.027	19.11
863.201	84.65
863.375	47.79
863.549	-9.56
863.722	-9.56
863.896	90.79
864.07	6.83
864.244	80.55
864.418	78.51
864.592	4.78
864.766	37.55
864.939	45.74
865.113	21.16
865.287	-19.8
865.461	-27.99
865.634	64.17
865.808	6.83
865.982	62.12
866.156	37.55
866.329	-9.56
866.503	64.17
866.676	62.12
866.85	23.21
867.024	-15.7
867.197	-11.61
867.371	98.99
867.544	45.74
867.718	-7.51
867.891	98.99
868.065	-23.89
868.238	80.55
868.412	86.7
868.585	125.61
868.759	-32.08
868.932	15.02
869.105	21.16
869.279	62.12
869.452	-68.95
869.625	-3.41
869.799	6.83
869.972	-25.94
870.145	41.64
870.319	37.55
870.492	10.92
870.665	-62.8
870.838	12.97
871.011	-19.8
871.185	-19.8
871.358	0.68
871.531	64.17
871.704	12.97
871.877	80.55
872.05	-11.61
872.223	-77.14
872.396	-5.46
872.569	68.27
872.742	-34.13
872.915	58.03
873.088	-32.08
873.261	-68.95
873.434	8.87
873.607	25.26
873.78	29.35
873.953	-27.99
874.126	-36.18
874.299	94.89
874.471	-34.13
874.644	-64.85
874.817	-17.75
874.99	55.98
875.163	-11.61
875.335	-1.37
875.508	17.07
875.681	31.4
875.853	2.73
876.026	29.35
876.199	-5.46
876.371	-5.46
876.544	6.83
876.717	-25.94
876.889	37.55
877.062	23.21
877.234	-17.75
877.407	-11.61
877.579	-34.13
877.752	64.17
877.924	4.78
878.097	45.74
878.269	12.97
878.442	-30.04
878.614	39.59
878.786	33.45
878.959	4.78
879.131	53.93
879.303	6.83
879.476	8.87
879.648	41.64
879.82	-46.42
879.993	-54.61
880.165	-19.8
880.337	6.83
880.509	17.07
880.681	-23.89
880.854	-83.28
881.026	23.21
881.198	76.46
881.37	49.83
881.542	45.74
881.714	-11.61
881.886	-7.51
882.058	-17.75
882.23	12.97
882.402	-15.7
882.574	45.74
882.746	17.07
882.918	98.99
883.09	10.92
883.262	-25.94
883.434	39.59
883.606	-11.61
883.778	6.83
883.95	29.35
884.122	25.26
884.293	-34.13
884.465	6.83
884.637	15.02
884.809	-23.89
884.98	-30.04
885.152	15.02
885.324	15.02
885.496	-56.66
885.667	-44.37
885.839	31.4
886.011	70.31
886.182	-19.8
886.354	29.35
886.525	15.02
886.697	-32.08
886.869	-36.18
887.04	-27.99
887.212	10.92
887.383	47.79
887.555	21.16
887.726	-38.23
887.897	0.68
888.069	35.5
888.24	-25.94
888.412	15.02
888.583	-36.18
888.754	29.35
888.926	-27.99
889.097	-52.56
889.268	33.45
889.44	8.87
889.611	-27.99
889.782	-52.56
889.953	-107.86
890.125	66.22
890.296	-52.56
890.467	-27.99
890.638	-21.84
890.809	-3.41
890.98	-97.62
891.151	109.23
891.323	0.68
891.494	74.41
891.665	31.4
891.836	12.97
892.007	12.97
892.178	-54.61
892.349	31.4
892.52	31.4
892.691	-58.71
892.862	19.11
893.032	-27.99
893.203	68.27
893.374	21.16
893.545	39.59
893.716	-7.51
893.887	12.97
894.057	-19.8
894.228	27.31
894.399	-75.09
894.57	17.07
894.74	-64.85
894.911	2.73
895.082	-17.75
895.253	-32.08
895.423	29.35
895.594	51.88
895.764	43.69
895.935	6.83
896.106	129.7
896.276	-52.56
896.447	-19.8
896.617	-50.52
896.788	25.26
896.958	-15.7
897.129	17.07
897.299	6.83
897.47	76.46
897.64	60.07
897.81	-50.52
897.981	21.16
898.151	-13.65
898.322	17.07
898.492	-27.99
898.662	-34.13
898.832	-36.18
899.003	96.94
899.173	31.4
899.343	-46.42
899.513	-1.37
