Data from USB4F104151__11__13-04-21-851.txt Node

Date: Fri Mar 14 13:04:21 EDT 2025
User: louis
Spectrometer: USB4F10415
Trigger mode: 4
Integration Time (sec): 4.000000E-2
Scans to average: 1
Electric dark correction enabled: true
Nonlinearity correction enabled: false
Boxcar width: 0
XAxis mode: Wavelengths
Number of Pixels in Spectrum: 3648
>>>>>Begin Spectral Data<<<<<
178.204	-163.33
178.424	-163.33
178.644	-163.33
178.864	-144.89
179.084	-189.95
179.304	18.94
179.524	29.18
179.744	0.51
179.964	-13.82
180.184	33.28
180.404	29.18
180.624	0.51
180.844	-28.16
181.064	-48.64
181.283	6.66
181.503	-30.21
181.723	2.56
181.943	-62.98
182.163	23.04
182.383	33.28
182.602	59.9
182.822	164.35
183.042	6.66
183.262	57.86
183.482	64
183.701	-9.73
183.921	31.23
184.141	10.75
184.361	88.57
184.58	86.53
184.8	72.19
185.02	-11.78
185.239	113.15
185.459	53.76
185.679	76.29
185.898	2.56
186.118	102.91
186.338	61.95
186.557	55.81
186.777	-54.78
186.997	41.47
187.216	25.09
187.436	72.19
187.655	127.49
187.875	33.28
188.095	68.09
188.314	68.09
188.534	98.81
188.753	6.66
188.973	111.1
189.192	150.01
189.412	31.23
189.631	43.52
189.851	74.24
190.07	92.67
190.29	-7.68
190.509	29.18
190.729	35.33
190.948	135.68
191.168	170.49
191.387	96.77
191.607	47.62
191.826	55.81
192.045	2.56
192.265	37.38
192.484	64
192.704	45.57
192.923	61.95
193.142	156.16
193.362	123.39
193.581	74.24
193.8	102.91
194.02	139.77
194.239	33.28
194.458	170.49
194.678	88.57
194.897	82.43
195.116	31.23
195.335	64
195.555	92.67
195.774	10.75
195.993	39.42
196.212	43.52
196.432	45.57
196.651	59.9
196.87	100.86
197.089	80.38
197.308	119.29
197.528	23.04
197.747	10.75
197.966	23.04
198.185	123.39
198.404	31.23
198.623	90.62
198.842	-9.73
199.062	59.9
199.281	109.05
199.5	43.52
199.719	107.01
199.938	27.14
200.157	111.1
200.376	74.24
200.595	168.45
200.814	86.53
201.033	-28.16
201.252	100.86
201.471	25.09
201.69	102.91
201.909	55.81
202.128	-13.82
202.347	45.57
202.566	-79.36
202.785	59.9
203.004	-24.06
203.223	209.4
203.442	33.28
203.661	14.85
203.879	64
204.098	88.57
204.317	115.2
204.536	84.48
204.755	88.57
204.974	96.77
205.193	47.62
205.411	94.72
205.63	43.52
205.849	98.81
206.068	31.23
206.287	14.85
206.505	162.3
206.724	41.47
206.943	33.28
207.162	74.24
207.381	74.24
207.599	37.38
207.818	72.19
208.037	-38.4
208.255	59.9
208.474	25.09
208.693	0.51
208.911	78.33
209.13	111.1
209.349	37.38
209.567	8.7
209.786	76.29
210.005	98.81
210.223	47.62
210.442	35.33
210.661	64
210.879	39.42
211.098	59.9
211.316	82.43
211.535	141.82
211.753	57.86
211.972	102.91
212.191	72.19
212.409	47.62
212.628	-28.16
212.846	23.04
213.065	102.91
213.283	90.62
213.502	49.66
213.72	109.05
213.938	49.66
214.157	53.76
214.375	31.23
214.594	27.14
214.812	96.77
215.031	23.04
215.249	41.47
215.467	43.52
215.686	98.81
215.904	72.19
216.122	35.33
216.341	178.69
216.559	86.53
216.778	119.29
216.996	64
217.214	51.71
217.432	47.62
217.651	14.85
217.869	70.14
218.087	68.09
218.306	33.28
218.524	33.28
218.742	-34.3
218.96	94.72
219.179	16.9
219.397	55.81
219.615	197.12
219.833	74.24
220.051	12.8
220.27	47.62
220.488	80.38
220.706	70.14
220.924	78.33
221.142	59.9
221.36	100.86
221.578	82.43
221.796	-9.73
222.015	100.86
222.233	76.29
222.451	64
222.669	61.95
222.887	111.1
223.105	10.75
223.323	23.04
223.541	16.9
223.759	145.92
223.977	23.04
224.195	113.15
224.413	51.71
224.631	14.85
224.849	-1.54
225.067	166.4
225.285	39.42
225.503	78.33
225.721	25.09
225.939	8.7
226.157	4.61
226.375	129.53
226.592	-9.73
226.81	104.96
227.028	86.53
227.246	80.38
227.464	33.28
227.682	119.29
227.9	113.15
228.117	74.24
228.335	8.7
228.553	90.62
228.771	70.14
228.989	25.09
229.206	0.51
229.424	86.53
229.642	-13.82
229.86	29.18
230.077	94.72
230.295	98.81
230.513	131.58
230.731	133.63
230.948	59.9
231.166	92.67
231.384	57.86
231.601	6.66
231.819	61.95
232.037	6.66
232.254	-15.87
232.472	117.25
232.689	6.66
232.907	53.76
233.125	35.33
233.342	57.86
233.56	41.47
233.777	-17.92
233.995	143.87
234.213	217.6
234.43	14.85
234.648	80.38
234.865	53.76
235.083	31.23
235.3	121.34
235.518	80.38
235.735	115.2
235.953	53.76
236.17	80.38
236.388	31.23
236.605	16.9
236.822	129.53
237.04	92.67
237.257	125.44
237.475	33.28
237.692	98.81
237.909	64
238.127	6.66
238.344	88.57
238.562	74.24
238.779	0.51
238.996	8.7
239.214	90.62
239.431	31.23
239.648	23.04
239.865	86.53
240.083	145.92
240.3	47.62
240.517	-67.07
240.735	84.48
240.952	70.14
241.169	113.15
241.386	20.99
241.603	53.76
241.821	-22.02
242.038	82.43
242.255	92.67
242.472	16.9
242.689	61.95
242.907	158.21
243.124	31.23
243.341	47.62
243.558	-32.26
243.775	98.81
243.992	-62.98
244.209	51.71
244.426	125.44
244.643	68.09
244.86	10.75
245.078	33.28
245.295	23.04
245.512	47.62
245.729	-34.3
245.946	53.76
246.163	45.57
246.38	47.62
246.597	25.09
246.814	39.42
247.031	35.33
247.248	115.2
247.464	64
247.681	-9.73
247.898	107.01
248.115	66.05
248.332	35.33
248.549	104.96
248.766	92.67
248.983	115.2
249.2	96.77
249.417	147.97
249.633	-1.54
249.85	72.19
250.067	-40.45
250.284	47.62
250.501	72.19
250.717	49.66
250.934	18.94
251.151	39.42
251.368	66.05
251.585	113.15
251.801	57.86
252.018	66.05
252.235	172.54
252.451	-26.11
252.668	33.28
252.885	98.81
253.102	78.33
253.318	76.29
253.535	61.95
253.752	104.96
253.968	47.62
254.185	-56.83
254.401	72.19
254.618	-9.73
254.835	-22.02
255.051	68.09
255.268	57.86
255.484	12.8
255.701	68.09
255.917	2.56
256.134	29.18
256.351	76.29
256.567	25.09
256.784	12.8
257	-28.16
257.217	82.43
257.433	55.81
257.65	76.29
257.866	29.18
258.082	27.14
258.299	6.66
258.515	92.67
258.732	78.33
258.948	43.52
259.165	59.9
259.381	102.91
259.597	84.48
259.814	92.67
260.03	-5.63
260.246	16.9
260.463	59.9
260.679	57.86
260.895	39.42
261.112	109.05
261.328	82.43
261.544	6.66
261.761	55.81
261.977	27.14
262.193	-50.69
262.409	100.86
262.626	16.9
262.842	88.57
263.058	31.23
263.274	119.29
263.49	72.19
263.707	76.29
263.923	14.85
264.139	14.85
264.355	123.39
264.571	90.62
264.787	55.81
265.004	137.73
265.22	25.09
265.436	6.66
265.652	6.66
265.868	51.71
266.084	37.38
266.3	45.57
266.516	-24.06
266.732	-1.54
266.948	55.81
267.164	-36.35
267.38	92.67
267.596	66.05
267.812	115.2
268.028	76.29
268.244	0.51
268.46	33.28
268.676	94.72
268.892	-17.92
269.108	2.56
269.324	102.91
269.54	-34.3
269.756	47.62
269.972	-3.58
270.188	90.62
270.403	6.66
270.619	0.51
270.835	39.42
271.051	80.38
271.267	102.91
271.483	4.61
271.698	49.66
271.914	37.38
272.13	70.14
272.346	98.81
272.562	98.81
272.777	129.53
272.993	10.75
273.209	68.09
273.425	31.23
273.64	-24.06
273.856	88.57
274.072	14.85
274.287	66.05
274.503	55.81
274.719	72.19
274.934	72.19
275.15	20.99
275.366	35.33
275.581	14.85
275.797	2.56
276.012	14.85
276.228	70.14
276.444	109.05
276.659	94.72
276.875	31.23
277.09	90.62
277.306	27.14
277.521	61.95
277.737	80.38
277.952	121.34
278.168	72.19
278.383	64
278.599	20.99
278.814	49.66
279.03	33.28
279.245	82.43
279.461	59.9
279.676	57.86
279.892	-30.21
280.107	57.86
280.322	94.72
280.538	74.24
280.753	-1.54
280.969	55.81
281.184	49.66
281.399	129.53
281.615	131.58
281.83	6.66
282.045	-101.89
282.26	-24.06
282.476	-5.63
282.691	27.14
282.906	-17.92
283.122	12.8
283.337	35.33
283.552	51.71
283.767	109.05
283.983	68.09
284.198	12.8
284.413	80.38
284.628	0.51
284.843	68.09
285.058	8.7
285.274	39.42
285.489	37.38
285.704	129.53
285.919	23.04
286.134	16.9
286.349	-32.26
286.564	8.7
286.779	145.92
286.995	39.42
287.21	20.99
287.425	86.53
287.64	41.47
287.855	23.04
288.07	-26.11
288.285	59.9
288.5	82.43
288.715	117.25
288.93	35.33
289.145	31.23
289.36	0.51
289.575	-9.73
289.79	20.99
290.004	49.66
290.219	61.95
290.434	33.28
290.649	-1.54
290.864	72.19
291.079	-1.54
291.294	90.62
291.509	-28.16
291.724	41.47
291.938	14.85
292.153	88.57
292.368	45.57
292.583	8.7
292.798	92.67
293.012	82.43
293.227	39.42
293.442	57.86
293.657	84.48
293.871	107.01
294.086	14.85
294.301	88.57
294.516	129.53
294.73	16.9
294.945	47.62
295.16	-101.89
295.374	137.73
295.589	90.62
295.804	-28.16
296.018	57.86
296.233	49.66
296.447	47.62
296.662	-13.82
296.877	154.11
297.091	16.9
297.306	57.86
297.52	78.33
297.735	104.96
297.949	119.29
298.164	74.24
298.378	35.33
298.593	-24.06
298.807	-79.36
299.022	102.91
299.236	154.11
299.451	-3.58
299.665	82.43
299.88	41.47
300.094	74.24
300.309	6.66
300.523	66.05
300.737	-1.54
300.952	123.39
301.166	68.09
301.381	-30.21
301.595	76.29
301.809	47.62
302.024	41.47
302.238	-52.74
302.452	104.96
302.667	68.09
302.881	74.24
303.095	109.05
303.309	55.81
303.524	10.75
303.738	20.99
303.952	72.19
304.166	25.09
304.381	-5.63
304.595	78.33
304.809	14.85
305.023	98.81
305.237	-48.64
305.452	70.14
305.666	84.48
305.88	80.38
306.094	31.23
306.308	68.09
306.522	115.2
306.736	66.05
306.95	-9.73
307.164	135.68
307.379	41.47
307.593	139.77
307.807	76.29
308.021	111.1
308.235	117.25
308.449	39.42
308.663	23.04
308.877	145.92
309.091	25.09
309.305	115.2
309.519	14.85
309.733	90.62
309.947	-11.78
310.161	43.52
310.374	61.95
310.588	117.25
310.802	33.28
311.016	27.14
311.23	80.38
311.444	90.62
311.658	80.38
311.872	88.57
312.085	64
312.299	66.05
312.513	80.38
312.727	57.86
312.941	37.38
313.154	109.05
313.368	18.94
313.582	23.04
313.796	27.14
314.009	4.61
314.223	104.96
314.437	53.76
314.651	141.82
314.864	49.66
315.078	70.14
315.292	16.9
315.505	41.47
315.719	121.34
315.933	39.42
316.146	41.47
316.36	-103.93
316.573	211.45
316.787	72.19
317.001	68.09
317.214	49.66
317.428	18.94
317.641	8.7
317.855	31.23
318.068	41.47
318.282	88.57
318.495	156.16
318.709	195.07
318.922	41.47
319.136	31.23
319.349	64
319.563	123.39
319.776	61.95
319.99	-15.87
320.203	37.38
320.417	82.43
320.63	33.28
320.843	100.86
321.057	94.72
321.27	47.62
321.483	111.1
321.697	100.86
321.91	57.86
322.124	-17.92
322.337	82.43
322.55	18.94
322.763	51.71
322.977	64
323.19	-48.64
323.403	25.09
323.617	109.05
323.83	147.97
324.043	68.09
324.256	96.77
324.469	-44.54
324.683	100.86
324.896	57.86
325.109	18.94
325.322	-50.69
325.535	57.86
325.748	98.81
325.962	2.56
326.175	33.28
326.388	104.96
326.601	96.77
326.814	66.05
327.027	80.38
327.24	76.29
327.453	4.61
327.666	102.91
327.879	84.48
328.092	94.72
328.305	23.04
328.518	72.19
328.731	-11.78
328.944	66.05
329.157	47.62
329.37	92.67
329.583	98.81
329.796	72.19
330.009	-19.97
330.222	53.76
330.435	121.34
330.648	70.14
330.861	84.48
331.073	23.04
331.286	88.57
331.499	76.29
331.712	47.62
331.925	33.28
332.138	64
332.35	96.77
332.563	2.56
332.776	150.01
332.989	35.33
333.202	37.38
333.414	109.05
333.627	49.66
333.84	76.29
334.053	55.81
334.265	64
334.478	33.28
334.691	111.1
334.903	59.9
335.116	0.51
335.329	-38.4
335.541	86.53
335.754	90.62
335.966	14.85
336.179	41.47
336.392	57.86
336.604	47.62
336.817	74.24
337.029	57.86
337.242	68.09
337.454	37.38
337.667	55.81
337.88	72.19
338.092	39.42
338.305	98.81
338.517	70.14
338.729	90.62
338.942	74.24
339.154	10.75
339.367	18.94
339.579	49.66
339.792	2.56
340.004	49.66
340.217	61.95
340.429	10.75
340.641	-81.41
340.854	107.01
341.066	78.33
341.278	82.43
341.491	96.77
341.703	61.95
341.915	-1.54
342.128	98.81
342.34	76.29
342.552	57.86
342.764	47.62
342.977	31.23
343.189	64
343.401	137.73
343.613	-50.69
343.826	66.05
344.038	-17.92
344.25	55.81
344.462	76.29
344.674	88.57
344.886	16.9
345.099	72.19
345.311	23.04
345.523	16.9
345.735	-40.45
345.947	121.34
346.159	137.73
346.371	53.76
346.583	119.29
346.795	139.77
347.007	47.62
347.219	-42.5
347.431	107.01
347.643	152.06
347.855	47.62
348.067	178.69
348.279	2.56
348.491	137.73
348.703	72.19
348.915	107.01
349.127	-42.5
349.339	145.92
349.551	4.61
349.763	55.81
349.975	-26.11
350.187	96.77
350.399	43.52
350.61	102.91
350.822	57.86
351.034	25.09
351.246	96.77
351.458	90.62
351.669	102.91
351.881	123.39
352.093	113.15
352.305	70.14
352.517	45.57
352.728	150.01
352.94	35.33
353.152	57.86
353.363	16.9
353.575	61.95
353.787	100.86
353.999	96.77
354.21	139.77
354.422	-7.68
354.633	72.19
354.845	18.94
355.057	74.24
355.268	80.38
355.48	68.09
355.692	-44.54
355.903	78.33
356.115	-5.63
356.326	-1.54
356.538	84.48
356.749	123.39
356.961	70.14
357.172	25.09
357.384	6.66
357.595	156.16
357.807	86.53
358.018	64
358.23	6.66
358.441	125.44
358.653	90.62
358.864	39.42
359.075	47.62
359.287	129.53
359.498	131.58
359.709	43.52
359.921	37.38
360.132	53.76
360.344	45.57
360.555	98.81
360.766	125.44
360.977	76.29
361.189	117.25
361.4	51.71
361.611	104.96
361.823	90.62
362.034	98.81
362.245	16.9
362.456	41.47
362.667	72.19
362.879	100.86
363.09	37.38
363.301	66.05
363.512	35.33
363.723	41.47
363.935	86.53
364.146	74.24
364.357	72.19
364.568	14.85
364.779	-24.06
364.99	111.1
365.201	47.62
365.412	23.04
365.623	-3.58
365.834	160.25
366.045	-19.97
366.256	41.47
366.467	16.9
366.678	49.66
366.889	76.29
367.1	43.52
367.311	133.63
367.522	49.66
367.733	20.99
367.944	39.42
368.155	96.77
368.366	16.9
368.577	109.05
368.788	107.01
368.999	-32.26
369.209	47.62
369.42	133.63
369.631	182.78
369.842	104.96
370.053	61.95
370.264	104.96
370.474	117.25
370.685	90.62
370.896	76.29
371.107	76.29
371.317	121.34
371.528	55.81
371.739	113.15
371.95	133.63
372.16	137.73
372.371	25.09
372.582	31.23
372.792	90.62
373.003	68.09
373.214	23.04
373.424	102.91
373.635	27.14
373.846	92.67
374.056	57.86
374.267	68.09
374.477	51.71
374.688	82.43
374.898	84.48
375.109	80.38
375.319	141.82
375.53	61.95
375.74	68.09
375.951	57.86
376.161	72.19
376.372	102.91
376.582	27.14
376.793	82.43
377.003	47.62
377.214	90.62
377.424	96.77
377.635	82.43
377.845	84.48
378.055	139.77
378.266	-22.02
378.476	84.48
378.686	-5.63
378.897	117.25
379.107	68.09
379.317	107.01
379.528	51.71
379.738	96.77
379.948	64
380.158	115.2
380.369	66.05
380.579	57.86
380.789	98.81
380.999	162.3
381.21	113.15
381.42	86.53
381.63	41.47
381.84	129.53
382.05	72.19
382.261	111.1
382.471	86.53
382.681	84.48
382.891	74.24
383.101	55.81
383.311	2.56
383.521	10.75
383.731	84.48
383.941	115.2
384.151	100.86
384.361	61.95
384.571	16.9
384.781	92.67
384.991	168.45
385.201	184.83
385.411	96.77
385.621	76.29
385.831	84.48
386.041	74.24
386.251	68.09
386.461	68.09
386.671	23.04
386.881	68.09
387.091	64
387.301	53.76
387.511	59.9
387.72	127.49
387.93	111.1
388.14	-1.54
388.35	55.81
388.56	45.57
388.769	109.05
388.979	117.25
389.189	57.86
389.399	115.2
389.609	90.62
389.818	68.09
390.028	12.8
390.238	111.1
390.447	55.81
390.657	104.96
390.867	109.05
391.076	23.04
391.286	113.15
391.496	41.47
391.705	84.48
391.915	145.92
392.125	80.38
392.334	70.14
392.544	145.92
392.753	141.82
392.963	-42.5
393.172	49.66
393.382	25.09
393.591	139.77
393.801	6.66
394.01	90.62
394.22	92.67
394.429	80.38
394.639	104.96
394.848	129.53
395.058	20.99
395.267	123.39
395.477	107.01
395.686	121.34
395.895	145.92
396.105	186.88
396.314	137.73
396.524	80.38
396.733	23.04
396.942	107.01
397.152	111.1
397.361	158.21
397.57	82.43
397.78	45.57
397.989	84.48
398.198	164.35
398.407	47.62
398.617	-13.82
398.826	61.95
399.035	88.57
399.244	92.67
399.453	162.3
399.663	137.73
399.872	150.01
400.081	92.67
400.29	137.73
400.499	72.19
400.708	162.3
400.917	57.86
401.127	61.95
401.336	41.47
401.545	113.15
401.754	125.44
401.963	137.73
402.172	109.05
402.381	64
402.59	125.44
402.799	121.34
403.008	172.54
403.217	141.82
403.426	137.73
403.635	64
403.844	68.09
404.053	166.4
404.262	100.86
404.471	211.45
404.68	100.86
404.888	205.31
405.097	113.15
405.306	131.58
405.515	100.86
405.724	125.44
405.933	205.31
406.142	156.16
406.35	178.69
406.559	170.49
406.768	186.88
406.977	203.26
407.185	242.17
407.394	123.39
407.603	115.2
407.812	199.16
408.02	209.4
408.229	250.36
408.438	227.84
408.646	143.87
408.855	225.79
409.064	311.8
409.272	262.65
409.481	223.74
409.69	92.67
409.898	227.84
410.107	270.84
410.315	260.6
410.524	207.36
410.733	389.63
410.941	350.71
411.15	281.08
411.358	326.14
411.567	301.56
411.775	303.61
411.984	309.76
412.192	358.91
412.401	279.04
412.609	387.58
412.818	385.53
413.026	377.34
413.234	358.91
413.443	565.75
413.651	416.25
413.86	367.1
414.068	432.63
414.276	571.9
414.485	471.54
414.693	573.94
414.901	571.9
415.11	532.98
415.318	473.59
415.526	588.28
415.734	631.29
415.943	596.47
416.151	637.43
416.359	647.67
416.567	743.92
416.776	680.44
416.984	741.88
417.192	776.69
417.4	793.08
417.608	733.68
417.817	754.16
418.025	918
418.233	958.96
418.441	887.28
418.649	907.76
418.857	969.2
419.065	1057.26
419.273	965.11
419.481	1106.42
419.689	1128.94
419.897	1047.02
420.105	1161.71
420.313	1217.01
420.521	1276.4
420.729	1233.39
420.937	1237.49
421.145	1317.36
421.353	1415.66
421.561	1587.69
421.769	1520.1
421.977	1616.36
422.185	1548.78
422.393	1649.13
422.601	1755.62
422.809	1743.33
423.017	1747.43
423.224	1935.84
423.432	2040.29
423.64	1921.51
423.848	2032.1
424.056	1917.41
424.263	2148.83
424.471	2062.82
424.679	2214.37
424.887	2255.33
425.094	2499.03
425.302	2449.88
425.51	2566.62
425.718	2578.9
425.925	2517.47
426.133	2597.34
426.341	2841.04
426.548	2896.34
426.756	2914.77
426.964	3070.42
427.171	3185.1
427.379	3281.36
427.586	3273.17
427.794	3590.6
428.001	3707.34
428.209	3600.84
428.417	3625.42
428.624	3916.23
428.832	3854.79
429.039	3934.66
429.247	3924.42
429.454	4309.44
429.662	4569.53
429.869	4293.05
430.076	4569.53
430.284	4448.7
430.491	4626.87
430.699	4882.87
430.906	4719.03
431.114	4993.46
431.321	5087.67
431.528	5104.05
431.736	5515.69
431.943	5888.42
432.15	5712.3
432.358	5693.87
432.565	6048.16
432.772	5943.72
432.979	6312.35
433.187	6406.56
433.394	6541.72
433.601	6828.44
433.808	6881.69
434.016	6859.16
434.223	7160.21
434.43	7559.56
434.637	7567.76
434.844	7909.77
435.052	8157.57
435.259	8124.8
435.466	8133
435.673	8057.22
435.88	8642.94
436.087	8989.05
436.294	8860.02
436.501	8665.47
436.708	9111.92
436.915	9415.02
437.122	9849.19
437.329	9738.6
437.537	10080.61
437.743	10150.25
437.95	10035.56
438.157	10641.76
438.364	10940.76
438.571	11012.44
438.778	11125.08
438.985	12013.9
439.192	11508.05
439.399	11966.79
439.606	11700.56
439.813	12638.53
440.02	13048.12
440.227	12886.33
440.433	12673.34
440.64	13191.48
440.847	13216.05
441.054	13437.23
441.261	14510.37
441.467	14072.11
441.674	14473.51
441.881	14909.72
442.088	14932.25
442.294	14891.29
442.501	15235.35
442.708	15694.1
442.914	16099.59
443.121	16881.92
443.328	16134.41
443.534	17373.43
443.741	16951.55
443.948	16802.05
444.154	18307.3
444.361	17780.98
444.568	17996.01
444.774	18239.72
444.981	18204.91
445.187	18952.41
445.394	19900.62
445.6	19212.51
445.807	20990.14
446.013	20510.92
446.22	20529.35
446.426	21766.32
446.633	21684.41
446.839	22476.97
447.046	21631.16
447.252	22726.82
447.459	23029.92
447.665	22497.45
447.871	23842.96
448.078	24762.5
448.284	23822.48
448.491	24230.03
448.697	25034.88
448.903	25763.96
449.11	25972.85
449.316	25333.89
449.522	25688.18
449.728	26632.3
449.935	26789.99
450.141	26689.64
450.347	27207.78
450.553	26210.42
450.76	26589.29
450.966	27738.2
451.172	27189.35
451.378	28086.36
451.584	27742.3
451.791	28194.9
451.997	28334.16
452.203	28489.81
452.409	28647.5
452.615	28616.78
452.821	27598.94
453.027	27332.7
453.233	28921.93
453.44	27510.88
453.646	27768.92
453.852	27947.09
454.058	28235.86
454.264	27600.99
454.47	28344.4
454.676	27355.23
454.882	28555.34
455.088	26181.74
455.294	26267.76
455.5	26933.35
455.705	27172.96
455.911	26030.19
456.117	25440.38
456.323	25090.18
456.529	23806.1
456.735	24961.16
456.941	24262.8
457.147	24223.89
457.352	23105.7
457.558	23206.05
457.764	22929.57
457.97	22509.74
458.176	21938.35
458.381	22048.94
458.587	20865.22
458.793	21014.72
458.999	19859.66
459.204	21428.41
459.41	20609.22
459.616	19196.12
459.821	19411.16
460.027	19263.71
460.233	18778.34
460.438	17934.57
460.644	18200.81
460.85	17357.05
461.055	17135.87
461.261	17058.04
461.466	15782.16
461.672	15386.9
461.878	16238.86
462.083	15343.89
462.289	14879
462.494	14702.88
462.7	14018.86
462.905	13867.31
463.111	14354.72
463.316	14520.61
463.522	14088.49
463.727	14057.77
463.932	13881.64
464.138	13898.03
464.343	13822.25
464.549	13484.34
464.754	13936.94
464.959	13852.97
465.165	13568.3
465.37	13091.13
465.575	12638.53
465.781	13306.16
465.986	13386.04
466.191	12667.2
466.397	12577.09
466.602	11893.07
466.807	12462.4
467.012	12771.65
467.218	12618.05
467.423	12458.31
467.628	12341.57
467.833	12939.58
468.038	12407.11
468.244	12048.71
468.449	12597.57
468.654	12101.96
468.859	12087.62
469.064	12040.52
469.269	11610.45
469.474	11612.49
469.679	11745.61
469.885	11479.38
470.09	11716.94
470.295	11477.33
470.5	11356.5
470.705	11323.73
470.91	11106.65
471.115	11082.07
471.32	11188.57
471.525	11354.45
471.73	10666.33
471.935	10842.46
472.139	10410.34
472.344	10582.37
472.549	10410.34
472.754	10516.83
472.959	10170.72
473.164	10103.14
473.369	9892.2
473.574	10029.41
473.778	10039.65
473.983	9961.83
474.188	10144.1
474.393	9513.33
474.598	9462.13
474.802	9437.55
475.007	9408.88
475.212	9601.39
475.417	9183.6
475.621	9124.21
475.826	9044.34
476.031	8831.35
476.235	8724.86
476.44	9025.91
476.645	8747.39
476.849	8675.71
477.054	8739.19
477.259	8515.97
477.463	8544.64
477.668	8182.15
477.872	8538.49
478.077	8233.35
478.282	8046.98
478.486	7856.52
478.691	7733.64
478.895	7795.08
479.1	7917.96
479.304	7999.88
479.509	7580.04
479.713	7846.28
479.918	7741.83
480.122	7580.04
480.326	7627.15
480.531	7569.8
480.735	7639.44
480.94	7553.42
481.144	7747.98
481.348	7352.72
481.553	7553.42
481.757	7199.12
481.961	7371.15
482.166	7491.98
482.37	7463.31
482.574	7281.04
482.778	7297.42
482.983	7496.08
483.187	7395.73
483.391	7313.81
483.595	7305.62
483.8	7301.52
484.004	7399.82
484.208	7432.59
484.412	7436.69
484.616	7133.59
484.821	7424.4
485.025	7031.19
485.229	7412.11
485.433	7301.52
485.637	7348.62
485.841	7401.87
486.045	7336.34
486.249	7254.42
486.453	7348.62
486.657	7190.93
486.861	7362.96
487.065	7182.74
487.269	7381.39
487.473	6977.94
487.677	7176.59
487.881	7389.58
488.085	7209.36
488.289	7248.27
488.493	7264.66
488.697	7276.94
488.901	7332.24
489.105	7274.9
489.309	7264.66
489.512	7395.73
489.716	7319.95
489.92	7393.68
490.124	7369.1
490.328	7571.85
490.531	7268.75
490.735	7655.82
490.939	7338.38
491.143	7426.45
491.346	7455.12
491.55	7416.21
491.754	7410.06
491.958	7602.57
492.161	7545.23
492.365	7690.63
492.569	7666.06
492.772	7829.9
492.976	7842.18
493.18	7590.28
493.383	7971.21
493.587	7948.68
493.79	8059.27
493.994	7821.7
494.197	7977.35
494.401	8120.71
494.605	8143.24
494.808	8159.62
495.012	7997.83
495.215	8239.49
495.419	8515.97
495.622	8245.63
495.825	8440.19
496.029	8305.03
496.232	8647.04
496.436	8821.11
496.639	8788.35
496.843	8759.67
497.046	8974.71
497.249	8976.76
497.453	9040.25
497.656	8991.09
497.859	9226.61
498.063	9208.18
498.266	9437.55
498.469	9369.97
498.673	9646.44
498.876	9718.12
499.079	9894.25
499.282	9828.71
499.485	9978.22
499.689	10115.43
499.892	10309.99
500.095	10260.84
500.298	10424.67
500.501	10348.9
500.705	10617.18
500.908	10588.51
501.111	10805.6
501.314	11135.32
501.517	10996.06
501.72	11278.68
501.923	11227.48
502.126	11682.13
502.329	11655.5
502.532	11596.11
502.735	11637.07
502.938	11944.27
503.141	12054.86
503.344	12087.62
503.547	12087.62
503.75	12239.17
503.953	12542.27
504.156	12710.21
504.359	12720.45
504.562	12894.52
504.765	13121.85
504.968	13019.45
505.17	13191.48
505.373	13459.76
505.576	13740.33
505.779	13875.5
505.982	14070.06
506.185	14080.3
506.387	14315.81
506.59	14295.33
506.793	14655.78
506.996	14563.62
507.198	15196.44
507.401	14938.4
507.604	15143.19
507.807	15450.39
508.009	15520.02
508.212	15399.19
508.415	15495.44
508.617	16075.02
508.82	16044.3
509.022	16011.53
509.225	16472.32
509.428	16388.36
509.63	16791.81
509.833	16711.94
510.035	17303.8
510.238	17123.58
510.44	17408.25
510.643	17506.55
510.845	17414.39
511.048	17500.4
511.25	18209
511.453	18041.07
511.655	18559.2
511.858	18608.36
512.06	18847.97
512.262	18624.74
512.465	18747.62
512.667	19101.92
512.87	19267.8
513.072	19394.78
513.274	19839.19
513.477	20175.05
513.679	19783.89
513.881	20230.35
514.084	20687.04
514.286	20547.78
514.488	20689.09
514.69	21225.66
514.893	21498.04
515.095	21303.48
515.297	21452.98
515.499	21819.57
515.701	22118.57
515.904	22339.76
516.106	22347.95
516.308	22732.97
516.51	22829.22
516.712	23062.69
516.914	23351.45
517.116	23781.53
517.318	23607.45
517.52	23947.41
517.722	23926.93
517.925	24305.81
518.127	24518.79
518.329	24795.27
518.531	24535.18
518.733	25374.84
518.935	25350.27
519.136	25481.34
519.338	25804.92
519.54	25659.51
519.742	26210.42
519.944	26032.24
520.146	26562.67
520.348	26499.18
520.55	26818.66
520.752	27045.99
520.954	27474.01
521.155	27138.15
521.357	27775.06
521.559	27824.22
521.761	28297.3
521.963	28438.61
522.164	28631.12
522.366	28633.16
522.568	29057.09
522.77	28893.26
522.971	29265.99
523.173	29501.5
523.375	29599.8
523.576	29706.3
523.778	29767.74
523.98	30488.62
524.181	30435.38
524.383	30529.58
524.584	30865.45
524.786	30998.57
524.988	30715.95
525.189	31428.64
525.391	31430.69
525.592	31610.91
525.794	31576.09
525.995	31903.77
526.197	31754.27
526.398	32006.17
526.6	32323.6
526.801	32141.33
527.003	32499.73
527.204	32540.69
527.406	32974.86
527.607	33146.89
527.808	33019.91
528.01	33101.83
528.211	32677.9
528.412	33923.07
528.614	33523.71
528.815	33658.88
529.016	34093.05
529.218	34084.86
529.419	33882.11
529.62	34150.39
529.822	34070.52
530.023	34146.29
530.224	34359.28
530.425	34181.11
530.626	34023.42
530.828	33918.97
531.029	34887.66
531.23	34658.29
531.431	34471.92
531.632	34877.42
531.833	34875.37
532.035	34398.2
532.236	34701.29
532.437	35010.54
532.638	34666.48
532.839	35047.4
533.04	35282.92
533.241	34891.76
533.442	35530.72
533.643	35178.47
533.844	35180.52
534.045	35217.38
534.246	34842.6
534.447	35438.56
534.648	35078.12
534.849	35547.11
535.05	35268.58
535.251	35141.61
535.451	35321.83
535.652	35655.65
535.853	35500
536.054	35182.57
536.255	35583.97
536.456	35172.33
536.657	35973.08
536.857	35461.09
537.058	35092.46
537.259	35610.59
537.46	35626.98
537.66	35227.62
537.861	35833.82
538.062	35514.34
538.263	35635.17
538.463	35139.56
538.664	35598.3
538.865	35555.3
539.065	35723.23
539.266	35434.47
539.466	35796.96
539.667	35368.93
539.868	35669.98
540.068	35698.66
540.269	35440.61
540.469	35778.53
540.67	35409.89
540.87	35436.52
541.071	35379.17
541.271	35747.81
541.472	35456.99
541.672	35520.48
541.873	35336.16
542.073	35201
542.274	36014.04
542.474	35362.79
542.675	35377.12
542.875	35768.29
543.075	35203.05
543.276	35067.88
543.476	35667.94
543.676	35450.85
543.877	35573.73
544.077	35366.88
544.277	35303.4
544.478	35258.34
544.678	35657.7
544.878	35401.7
545.078	35340.26
545.279	35092.46
545.479	35368.93
545.679	35456.99
545.879	35229.67
546.079	35028.97
546.28	35352.55
546.48	35233.77
546.68	35608.54
546.88	35500
547.08	35147.75
547.28	35184.62
547.48	34836.46
547.68	35479.52
547.88	35348.45
548.081	35307.49
548.281	35336.16
548.481	35033.07
548.681	35563.49
548.881	34955.24
549.081	35121.13
549.28	34936.81
549.48	35446.76
549.68	34983.91
549.88	35125.22
550.08	35002.35
550.28	35413.99
550.48	35254.25
550.68	35151.85
550.88	34717.68
551.08	35035.11
551.279	35190.76
551.479	34838.51
551.679	35047.4
551.879	34539.5
552.079	34983.91
552.278	34983.91
552.478	34895.85
552.678	34891.76
552.878	35135.46
553.077	34811.88
553.277	34580.46
553.477	35350.5
553.676	34957.29
553.876	34875.37
554.076	34858.99
554.275	34416.63
554.475	34359.28
554.674	34979.82
554.874	34840.56
555.074	34502.64
555.273	34846.7
555.473	34834.41
555.672	34412.53
555.872	34375.67
556.071	34795.5
556.271	35125.22
556.47	34236.41
556.67	34181.11
556.869	34508.79
557.068	34713.58
557.268	34039.8
557.467	34158.58
557.667	34029.56
557.866	34367.48
558.065	33984.51
558.265	34168.82
558.464	34013.18
558.663	34213.88
558.863	33671.17
559.062	34002.94
559.261	33740.8
559.461	34099.19
559.66	33517.57
559.859	33918.97
560.058	33345.54
560.258	33824.76
560.457	33249.28
560.656	33794.04
560.855	33058.82
561.054	33466.37
561.253	33028.1
561.453	32942.09
561.652	33095.69
561.851	33183.75
562.05	32872.46
562.249	32864.27
562.448	33220.61
562.647	33091.59
562.846	32706.57
563.045	32964.62
563.244	32589.84
563.443	32897.03
563.642	32256.02
563.841	32552.98
564.04	32462.86
564.239	32784.4
564.438	32057.37
564.637	32249.88
564.836	32354.32
565.035	31932.44
565.234	32022.55
565.432	31850.52
565.631	31821.85
565.83	31940.63
566.029	31297.57
566.228	31528.99
566.427	31619.1
566.625	31232.04
566.824	31217.7
567.023	31381.54
567.222	30664.75
567.42	31014.95
567.619	31031.33
567.818	30767.15
568.016	31045.67
568.215	31385.63
568.414	30810.15
568.612	30834.73
568.811	30498.86
569.01	30599.21
569.208	30279.73
569.407	30441.52
569.605	29935.67
569.804	30324.79
570.002	30310.45
570.201	29890.62
570.4	30072.89
570.598	29687.87
570.797	29696.06
570.995	29681.72
571.193	29450.3
571.392	29857.85
571.59	29364.29
571.789	29571.13
571.987	29370.43
572.186	29255.75
572.384	29036.61
572.582	29153.35
572.781	28973.13
572.979	28692.55
573.177	28790.86
573.376	29182.02
573.574	28606.54
573.772	28325.97
573.971	28534.86
574.169	28307.54
574.367	28192.85
574.565	28563.53
574.763	28051.54
574.962	28106.84
575.16	27986
575.358	28242
575.556	27652.19
575.754	28084.31
575.952	27883.61
576.151	28092.5
576.349	27682.91
576.547	27119.71
576.745	27773.02
576.943	27347.04
577.141	27478.11
577.339	27117.67
577.537	27207.78
577.735	27400.29
577.933	26951.78
578.131	26800.23
578.329	27132
578.527	26781.8
578.725	26871.91
578.923	26732.65
579.121	26591.34
579.319	26478.7
579.516	26865.77
579.714	26507.37
579.912	26400.88
580.11	26464.36
580.308	26447.98
580.506	26097.78
580.704	25538.68
580.901	26187.89
581.099	26032.24
581.297	25813.11
581.495	25716.86
581.692	25684.09
581.89	25376.89
582.088	25790.58
582.285	25395.32
582.483	25651.32
582.681	25585.79
582.878	25530.49
583.076	25045.12
583.274	25542.78
583.471	24969.35
583.669	25215.1
583.866	24926.34
584.064	25262.21
584.262	24912
584.459	24955.01
584.657	24979.59
584.854	24873.09
585.052	24270.99
585.249	24709.25
585.447	24754.31
585.644	24193.17
585.841	24223.89
586.039	24563.85
586.236	24164.5
586.434	24330.38
586.631	23926.93
586.828	24084.62
587.026	24062.1
587.223	23736.47
587.42	24027.28
587.618	24055.95
587.815	23683.22
588.012	23781.53
588.21	23640.22
588.407	23681.17
588.604	23273.63
588.801	22995.11
588.999	23195.81
589.196	23292.06
589.393	23330.97
589.59	23146.65
589.787	22753.44
589.984	22997.15
590.182	22603.94
590.379	22720.68
590.576	22710.44
590.773	23001.25
590.97	22419.63
591.167	22583.46
591.364	22425.77
591.561	22403.24
591.758	22229.16
591.955	22433.96
592.152	22304.94
592.349	22114.48
592.546	22206.64
592.743	22096.05
592.94	21983.41
593.137	22116.53
593.334	21995.7
593.531	21596.34
593.727	21653.69
593.924	21633.21
594.121	21248.19
594.318	21319.87
594.515	21446.84
594.712	21199.04
594.908	21477.56
595.105	21303.48
595.302	21115.07
595.499	21176.51
595.696	20762.82
595.892	20918.46
596.089	20928.7
596.286	21108.93
596.482	20977.86
596.679	21018.82
596.876	20846.79
597.072	20420.81
597.269	20576.45
597.466	20281.55
597.662	20234.44
597.859	20224.2
598.055	20541.64
598.252	20109.52
598.448	20134.09
598.645	20070.61
598.841	20138.19
599.038	20203.72
599.234	19876.05
599.431	19787.99
599.627	19681.49
599.824	19947.73
600.02	19896.53
600.217	19902.67
600.413	19759.31
600.609	19673.3
600.806	19491.03
601.002	19355.86
601.198	19306.71
601.395	19333.34
601.591	19484.89
601.787	19339.48
601.984	19048.67
602.18	19163.36
602.376	18888.93
602.572	18776.29
602.769	18966.75
602.965	19036.38
603.161	19024.09
603.357	18450.66
603.553	18747.62
603.75	18503.91
603.946	18563.3
604.142	18598.12
604.338	18479.33
604.534	18374.89
604.73	18338.02
604.926	18104.56
605.122	18325.74
605.318	18155.75
605.514	17897.71
605.71	18323.69
605.906	18174.19
606.102	17881.33
606.298	17809.65
606.494	17946.86
606.69	17838.32
606.886	17793.26
607.082	17662.19
607.278	17973.49
607.474	17522.93
607.67	17729.78
607.866	17449.21
608.062	17774.83
608.257	17246.46
608.453	17379.57
608.649	17422.58
608.845	17234.17
609.041	17260.79
609.236	17484.02
609.432	17477.88
609.628	17316.09
609.824	17164.54
610.019	16693.51
610.215	16996.6
610.411	17084.67
610.606	16877.82
610.802	17017.08
610.998	16808.19
611.193	16732.42
611.389	16906.49
611.584	16748.8
611.78	16697.6
611.976	16521.48
612.171	16695.55
612.367	16457.99
612.562	16849.15
612.758	16488.71
612.953	16392.45
613.149	16410.89
613.344	16439.56
613.539	16867.58
613.735	16677.12
613.93	16787.71
614.126	16261.38
614.321	16326.92
614.517	16312.58
614.712	16288.01
614.907	15943.95
615.103	16349.45
615.298	16058.63
615.493	16183.56
615.688	16017.68
615.884	16267.53
616.079	15999.24
616.274	16118.03
616.47	15886.61
616.665	15896.85
616.86	16103.69
617.055	15782.16
617.25	15606.03
617.445	16091.4
617.641	15722.77
617.836	15812.88
618.031	15397.14
618.226	15540.5
618.421	15327.51
618.616	15708.43
618.811	15569.17
619.006	15343.89
619.201	15632.66
619.396	15444.24
619.591	15153.43
619.786	15237.4
619.981	15137.05
620.176	15239.45
620.371	15036.7
620.566	15087.9
620.761	14784.8
620.956	15120.67
621.151	14706.98
621.346	14860.57
621.541	14649.63
621.735	14612.77
621.93	14596.39
622.125	14481.7
622.32	14235.94
622.515	14360.87
622.709	14244.13
622.904	14235.94
623.099	13994.28
623.294	14104.87
623.488	13945.13
623.683	13873.45
623.878	13834.54
624.072	13945.13
624.267	13455.67
624.462	13652.27
624.656	13490.48
624.851	13691.18
625.046	13316.4
625.24	13179.19
625.435	13187.38
625.629	12876.09
625.824	13230.39
626.018	13146.42
626.213	12781.88
626.407	13009.21
626.602	12708.16
626.796	12677.44
626.991	12960.06
627.185	12532.03
627.38	12659.01
627.574	12501.31
627.768	12443.97
627.963	12433.73
628.157	12314.95
628.352	12360
628.546	12065.1
628.74	12120.39
628.935	11893.07
629.129	12077.38
629.323	11962.7
629.517	11784.52
629.712	11755.85
629.906	11819.34
630.1	11608.4
630.294	11579.73
630.489	11561.3
630.683	11438.42
630.877	11327.83
631.071	11456.85
631.265	11467.09
631.459	11338.07
631.653	11428.18
631.848	11223.38
632.042	11225.43
632.236	10916.19
632.43	11110.74
632.624	10979.67
632.818	10801.5
633.012	10901.85
633.206	10776.92
633.4	10766.68
633.594	10684.76
633.788	10506.59
633.982	10834.27
634.176	10686.81
634.369	10430.82
634.563	10201.44
634.757	10588.51
634.951	10244.45
635.145	10271.08
635.339	10326.37
635.533	10199.4
635.726	10066.28
635.92	10117.48
636.114	10066.28
636.308	10078.57
636.501	9810.28
636.695	9748.84
636.889	9685.36
637.083	9621.87
637.276	9646.44
637.47	9597.29
637.664	9384.3
637.857	9548.14
638.051	9582.96
638.244	9546.09
638.438	9345.39
638.632	9234.8
638.825	9032.05
639.019	9118.07
639.212	8872.31
639.406	9111.92
639.599	9144.69
639.793	9007.48
639.986	8821.11
640.18	8745.34
640.373	9034.1
640.567	8878.46
640.76	8601.98
640.954	8694.14
641.147	8577.41
641.34	8608.12
641.534	8685.95
641.727	8630.65
641.92	8380.8
642.114	8565.12
642.307	8397.18
642.5	8501.63
642.694	8321.41
642.887	8112.52
643.08	8249.73
643.273	8343.94
643.467	8157.57
643.66	7983.49
643.853	7807.37
644.046	7823.75
644.239	7965.06
644.432	8049.03
644.626	7829.9
644.819	7813.51
645.012	7887.24
645.205	7815.56
645.398	7833.99
645.591	7498.13
645.784	7510.41
645.977	7436.69
646.17	7528.85
646.363	7559.56
646.556	7225.75
646.749	7440.78
646.942	7483.79
647.135	7375.25
647.328	7446.93
647.521	7225.75
647.714	7184.79
647.907	7233.94
648.099	7244.18
648.292	7317.9
648.485	7209.36
648.678	7084.44
648.871	7082.39
649.064	7039.38
649.256	6773.14
649.449	6826.39
649.642	6947.22
649.835	6826.39
650.027	6818.2
650.22	6832.54
650.413	6680.99
650.605	6758.81
650.798	6769.05
650.991	6650.27
651.183	6648.22
651.376	6517.15
651.568	6678.94
651.761	6529.44
651.954	6547.87
652.146	6351.26
652.339	6373.79
652.531	6367.65
652.724	6392.22
652.916	6209.95
653.109	6103.46
653.301	6207.91
653.494	6381.98
653.686	6232.48
653.879	6306.21
654.071	6240.67
654.263	5949.86
654.456	6160.8
654.648	6089.12
654.84	5915.05
655.033	5923.24
655.225	5822.89
655.417	5847.46
655.61	5869.99
655.802	5757.35
655.994	5888.42
656.186	5855.65
656.379	5806.5
656.571	5839.27
656.763	5753.26
656.955	5714.34
657.148	5697.96
657.34	5716.39
657.532	5560.75
657.724	5620.14
657.916	5704.1
658.108	5534.12
658.3	5503.4
658.492	5407.15
658.684	5540.27
658.876	5429.68
659.068	5364.14
659.26	5321.13
659.452	5398.96
659.644	5267.89
659.836	5341.61
660.028	5343.66
660.22	5159.35
660.412	5165.49
660.604	5194.16
660.796	5210.54
660.988	5228.98
661.18	5120.43
661.372	5167.54
661.563	5255.6
661.755	5020.08
661.947	5194.16
662.139	5116.34
662.331	5081.52
662.522	4899.25
662.714	4854.2
662.906	4901.3
663.097	4940.21
663.289	4868.53
663.481	4899.25
663.673	5011.89
663.864	4991.41
664.056	4796.85
664.247	4831.67
664.439	4780.47
664.631	4813.24
664.822	4891.06
665.014	4729.27
665.205	4798.9
665.397	4727.22
665.588	4788.66
665.78	4616.63
665.971	4626.87
666.163	4682.17
666.354	4633.02
666.546	4673.98
666.737	4594.11
666.929	4495.8
667.12	4594.11
667.311	4610.49
667.503	4569.53
667.694	4587.96
667.885	4571.58
668.077	4475.32
668.268	4291.01
668.459	4430.27
668.651	4329.92
668.842	4467.13
669.033	4420.03
669.224	4299.2
669.416	4469.18
669.607	4469.18
669.798	4370.88
669.989	4424.12
670.18	4526.52
670.371	4307.39
670.563	4135.36
670.754	4372.93
670.945	4331.97
671.136	4288.96
671.327	4350.4
671.518	4325.82
671.709	4301.25
671.9	4123.07
672.091	4389.31
672.282	4116.93
672.473	4209.09
672.664	4172.22
672.855	4174.27
673.046	4262.33
673.237	4360.64
673.428	4024.77
673.619	4204.99
673.809	4190.66
674	4184.51
674.191	4168.13
674.382	4123.07
674.573	4311.49
674.764	4217.28
674.954	4182.46
675.145	4096.45
675.336	4032.96
675.527	4139.46
675.717	4137.41
675.908	4174.27
676.099	4057.54
676.289	4137.41
676.48	4090.31
676.671	4223.42
676.861	4139.46
677.052	4164.03
677.243	4088.26
677.433	4135.36
677.624	4155.84
677.814	4061.63
678.005	4235.71
678.195	4280.77
678.386	4141.5
678.576	4073.92
678.767	4159.94
678.957	4274.62
679.148	4184.51
679.338	4125.12
679.529	4243.9
679.719	4151.74
679.909	4184.51
680.1	4151.74
680.29	4319.68
680.481	4100.55
680.671	4047.3
680.861	4164.03
681.052	4082.11
681.242	4078.02
681.432	4274.62
681.622	4151.74
681.813	4092.35
682.003	4096.45
682.193	4080.07
682.383	4190.66
682.573	4075.97
682.764	4207.04
682.954	4069.83
683.144	4176.32
683.334	4182.46
683.524	4196.8
683.714	4192.7
683.904	4096.45
684.094	4116.93
684.284	3881.41
684.474	4170.18
684.664	4159.94
684.854	4139.46
685.044	4059.59
685.234	3959.24
685.424	3998.15
685.614	4061.63
685.804	4198.85
685.994	4008.39
686.184	4008.39
686.374	4110.79
686.564	4004.29
686.753	4043.2
686.943	3856.84
687.133	3949
687.323	3967.43
687.513	3938.76
687.702	3924.42
687.892	3807.69
688.082	3920.32
688.272	4016.58
688.461	3914.18
688.651	3883.46
688.841	3932.61
689.03	3750.34
689.22	3776.97
689.41	3758.53
689.599	3709.38
689.789	3535.31
689.979	3711.43
690.168	3729.86
690.358	3711.43
690.547	3654.09
690.737	3654.09
690.926	3627.46
691.116	3523.02
691.305	3713.48
691.495	3592.65
691.684	3516.87
691.874	3508.68
692.063	3520.97
692.252	3643.85
692.442	3447.24
692.631	3488.2
692.82	3465.68
693.01	3312.08
693.199	3396.04
693.388	3394
693.578	3291.6
693.767	3463.63
693.956	3281.36
694.146	3338.7
694.335	3301.84
694.524	3348.94
694.713	3281.36
694.902	3314.13
695.092	3271.12
695.281	3166.67
695.47	3162.58
695.659	3217.87
695.848	3150.29
696.037	3228.11
696.226	3332.56
696.415	3219.92
696.604	3334.61
696.793	3166.67
696.982	3252.69
697.171	3242.45
697.36	3168.72
697.549	3166.67
697.738	3084.75
697.927	3295.69
698.116	3078.61
698.305	3115.47
698.494	3193.3
698.683	3092.94
698.872	3123.66
699.061	3199.44
699.25	3189.2
699.438	3285.45
699.627	3234.25
699.816	3244.49
700.005	3027.41
700.193	3193.3
700.382	3113.42
700.571	3074.51
700.76	3166.67
700.948	3113.42
701.137	3242.45
701.326	2988.5
701.514	3133.9
701.703	3187.15
701.892	3097.04
702.08	3201.49
702.269	3111.38
702.457	3056.08
702.646	3174.86
702.834	3054.03
703.023	3269.07
703.212	3156.43
703.4	3170.77
703.589	3260.88
703.777	3146.19
703.965	3051.99
704.154	3269.07
704.342	3172.82
704.531	3199.44
704.719	3133.9
704.907	3142.1
705.096	3164.62
705.284	3060.18
705.472	3158.48
705.661	3133.9
705.849	3201.49
706.037	3262.93
706.226	3111.38
706.414	3084.75
706.602	3170.77
706.79	3168.72
706.979	3248.59
707.167	3154.38
707.355	3090.9
707.543	3099.09
707.731	3228.11
707.919	3256.78
708.107	3205.58
708.296	3197.39
708.484	3348.94
708.672	3121.62
708.86	3150.29
709.048	3238.35
709.236	3326.41
709.424	3330.51
709.612	3221.97
709.8	3273.17
709.988	3277.26
710.176	3291.6
710.364	3424.72
710.551	3334.61
710.739	3250.64
710.927	3297.74
711.115	3299.79
711.303	3342.8
711.491	3346.89
711.679	3361.23
711.866	3416.52
712.054	3283.41
712.242	3342.8
712.43	3342.8
712.617	3402.19
712.805	3412.43
712.993	3484.11
713.181	3430.86
713.368	3449.29
713.556	3457.48
713.744	3267.02
713.931	3475.91
714.119	3488.2
714.306	3469.77
714.494	3475.91
714.682	3465.68
714.869	3418.57
715.057	3447.24
715.244	3422.67
715.432	3459.53
715.619	3529.16
715.807	3412.43
715.994	3465.68
716.182	3490.25
716.369	3570.12
716.556	3561.93
716.744	3459.53
716.931	3449.29
717.119	3477.96
717.306	3568.07
717.493	3543.5
717.681	3455.44
717.868	3553.74
718.055	3514.83
718.242	3508.68
718.43	3600.84
718.617	3606.98
718.804	3647.94
718.991	3723.72
719.179	3754.44
719.366	3606.98
719.553	3594.7
719.74	3672.52
719.927	3621.32
720.114	3537.35
720.301	3602.89
720.488	3647.94
720.676	3639.75
720.863	3670.47
721.05	3627.46
721.237	3701.19
721.424	3574.22
721.611	3748.29
721.798	3533.26
721.985	3647.94
722.172	3680.71
722.358	3617.22
722.545	3750.34
722.732	3727.82
722.919	3791.3
723.106	3695.05
723.293	3762.63
723.48	3684.81
723.667	3750.34
723.853	3738.05
724.04	3799.49
724.227	3819.97
724.414	3723.72
724.6	3643.85
724.787	3787.21
724.974	3774.92
725.161	3774.92
725.347	3588.55
725.534	3736.01
725.72	3776.97
725.907	3815.88
726.094	3822.02
726.28	3742.15
726.467	3631.56
726.653	3805.64
726.84	3858.89
727.027	3891.65
727.213	3805.64
727.4	3850.69
727.586	3961.28
727.773	3850.69
727.959	3834.31
728.145	3858.89
728.332	3926.47
728.518	3783.11
728.705	3846.6
728.891	3967.43
729.077	3826.12
729.264	3785.16
729.45	3848.65
729.636	3930.56
729.823	3985.86
730.009	3910.08
730.195	3936.71
730.382	3924.42
730.568	3842.5
730.754	4022.72
730.94	3758.53
731.126	3836.36
731.313	3981.76
731.499	3949
731.685	3914.18
731.871	3862.98
732.057	3889.6
732.243	3908.04
732.429	3865.03
732.615	3996.1
732.801	3824.07
732.987	4004.29
733.173	3854.79
733.359	3865.03
733.545	3963.33
733.731	3873.22
733.917	3946.95
734.103	4028.87
734.289	3897.8
734.475	4032.96
734.661	4055.49
734.847	3852.74
735.033	4000.19
735.219	3903.94
735.404	3889.6
735.59	3768.77
735.776	3834.31
735.962	3942.85
736.148	4000.19
736.333	4008.39
736.519	3873.22
736.705	3957.19
736.89	3987.91
737.076	3860.93
737.262	3944.9
737.447	3791.3
737.633	3942.85
737.819	3918.28
738.004	3846.6
738.19	3934.66
738.375	3832.26
738.561	3930.56
738.747	3996.1
738.932	3760.58
739.118	3994.05
739.303	3736.01
739.489	3905.99
739.674	3928.52
739.859	3795.4
740.045	3848.65
740.23	3801.54
740.416	3678.66
740.601	3742.15
740.786	3779.01
740.972	3664.33
741.157	3791.3
741.342	3672.52
741.528	3598.79
741.713	3795.4
741.898	3733.96
742.084	3670.47
742.269	3770.82
742.454	3709.38
742.639	3781.06
742.824	3713.48
743.01	3799.49
743.195	3703.24
743.38	3723.72
743.565	3602.89
743.75	3639.75
743.935	3459.53
744.12	3703.24
744.305	3453.39
744.49	3539.4
744.675	3525.07
744.86	3537.35
745.045	3559.88
745.23	3551.69
745.415	3381.71
745.6	3471.82
745.785	3381.71
745.97	3434.96
746.155	3387.85
746.34	3406.28
746.525	3353.04
746.71	3457.48
746.895	3258.83
747.079	3346.89
747.264	3152.34
747.449	3334.61
747.634	3279.31
747.819	3377.61
748.003	3197.39
748.188	3185.1
748.373	3160.53
748.557	3197.39
748.742	3088.85
748.927	3123.66
749.111	3232.21
749.296	3049.94
749.481	2998.74
749.665	3013.07
749.85	2939.35
750.034	3066.32
750.219	3017.17
750.404	2931.16
750.588	3031.51
750.773	2900.44
750.957	2925.01
751.141	2896.34
751.326	2834.9
751.51	2718.17
751.695	2824.66
751.879	2867.67
752.064	2890.2
752.248	2900.44
752.432	2826.71
752.617	2808.28
752.801	2781.65
752.985	2685.4
753.17	2781.65
753.354	2781.65
753.538	2640.34
753.722	2638.3
753.907	2621.91
754.091	2521.56
754.275	2730.45
754.459	2632.15
754.643	2447.83
754.828	2679.26
755.012	2517.47
755.196	2529.75
755.38	2550.23
755.564	2439.64
755.748	2499.03
755.932	2499.03
756.116	2382.3
756.3	2392.54
756.484	2286.05
756.668	2482.65
756.852	2150.88
757.036	2345.44
757.22	2234.85
757.404	2261.47
757.588	2202.08
757.772	2206.17
757.956	2234.85
758.14	2171.36
758.323	2310.62
758.507	2214.37
758.691	2114.02
758.875	2159.07
759.059	2214.37
759.242	2021.86
759.426	2066.91
759.61	2130.4
759.794	2116.06
759.977	2107.87
760.161	2243.04
760.345	2062.82
760.528	2154.98
760.712	2038.24
760.895	2032.1
761.079	2013.67
761.263	1939.94
761.446	1991.14
761.63	2001.38
761.813	2083.3
761.997	1931.75
762.18	1960.42
762.364	1946.08
762.547	1788.39
762.731	1866.21
762.914	1950.18
763.098	1919.46
763.281	1853.92
763.464	1784.29
763.648	1849.83
763.831	1886.69
764.015	1763.81
764.198	1876.45
764.381	1741.29
764.564	1782.24
764.748	1765.86
764.931	1671.65
765.114	1665.51
765.297	1819.11
765.481	1704.42
765.664	1798.63
765.847	1757.67
766.03	1841.64
766.213	1696.23
766.397	1696.23
766.58	1681.89
766.763	1788.39
766.946	1628.65
767.129	1595.88
767.312	1589.74
767.495	1704.42
767.678	1677.8
767.861	1681.89
768.044	1690.09
768.227	1651.17
768.41	1589.74
768.593	1669.61
768.776	1700.33
768.959	1542.63
769.142	1563.11
769.324	1610.22
769.507	1616.36
769.69	1509.86
769.873	1569.26
770.056	1655.27
770.239	1518.06
770.421	1589.74
770.604	1610.22
770.787	1481.19
770.97	1464.81
771.152	1452.52
771.335	1468.91
771.518	1501.67
771.7	1581.54
771.883	1466.86
772.066	1470.95
772.248	1419.75
772.431	1487.34
772.613	1520.1
772.796	1401.32
772.978	1360.36
773.161	1374.7
773.343	1466.86
773.526	1389.03
773.708	1315.31
773.891	1311.21
774.073	1368.56
774.256	1335.79
774.438	1417.71
774.621	1362.41
774.803	1300.97
774.985	1313.26
775.168	1319.4
775.35	1278.44
775.532	1260.01
775.715	1286.64
775.897	1298.92
776.079	1231.34
776.261	1409.51
776.444	1212.91
776.626	1243.63
776.808	1161.71
776.99	1128.94
777.173	1225.2
777.355	1202.67
777.537	1280.49
777.719	1092.08
777.901	1063.41
778.083	1049.07
778.265	1104.37
778.447	1212.91
778.629	1114.61
778.811	1055.22
778.993	1057.26
779.175	1130.99
779.357	1026.54
779.539	1004.02
779.721	1051.12
779.903	1049.07
780.085	1057.26
780.267	1114.61
780.449	1022.45
780.631	999.92
780.812	1032.69
780.994	973.3
781.176	1001.97
781.358	963.06
781.54	985.58
781.721	928.24
781.903	952.82
782.085	944.63
782.267	913.91
782.448	940.53
782.63	891.38
782.812	874.99
782.993	922.1
783.175	1004.02
783.357	909.81
783.538	915.95
783.72	868.85
783.901	899.57
784.083	887.28
784.264	848.37
784.446	803.32
784.627	739.83
784.809	788.98
784.99	739.83
785.172	743.92
785.353	874.99
785.535	874.99
785.716	778.74
785.897	825.84
786.079	778.74
786.26	881.14
786.441	752.12
786.623	639.48
786.804	715.25
786.985	725.49
787.167	827.89
787.348	686.58
787.529	745.97
787.71	752.12
787.891	784.88
788.073	655.86
788.254	659.96
788.435	774.64
788.616	715.25
788.797	647.67
788.978	627.19
789.159	608.76
789.34	713.21
789.522	649.72
789.703	664.05
789.884	698.87
790.065	678.39
790.246	752.12
790.427	584.18
790.607	688.63
790.788	614.9
790.969	557.56
791.15	647.67
791.331	596.47
791.512	571.9
791.693	629.24
791.874	522.74
792.054	627.19
792.235	582.14
792.416	551.42
792.597	557.56
792.778	573.94
792.958	592.37
793.139	594.42
793.32	592.37
793.5	520.7
793.681	645.62
793.862	590.33
794.042	500.22
794.223	510.46
794.404	565.75
794.584	479.74
794.765	487.93
794.945	535.03
795.126	539.13
795.306	588.28
795.487	524.79
795.667	518.65
795.848	539.13
796.028	410.11
796.209	619
796.389	530.94
796.57	467.45
796.75	446.97
796.93	586.23
797.111	481.78
797.291	477.69
797.471	580.09
797.652	461.3
797.832	504.31
798.012	506.36
798.192	418.3
798.373	449.02
798.553	432.63
798.733	451.07
798.913	434.68
799.093	438.78
799.274	416.25
799.454	492.02
799.634	473.59
799.814	410.11
799.994	475.64
800.174	449.02
800.354	500.22
800.534	352.76
800.714	432.63
800.894	328.19
801.074	358.91
801.254	457.21
801.434	455.16
801.614	383.48
801.794	369.15
801.974	1333.74
802.154	408.06
802.334	426.49
802.514	363
802.693	440.83
802.873	356.86
803.053	358.91
803.233	406.01
803.413	408.06
803.592	391.67
803.772	322.04
803.952	356.86
804.131	334.33
804.311	401.91
804.491	418.3
804.67	451.07
804.85	393.72
805.03	406.01
805.209	393.72
805.389	309.76
805.568	375.29
805.748	330.23
805.928	342.52
806.107	385.53
806.287	356.86
806.466	332.28
806.646	375.29
806.825	354.81
807.004	363
807.184	393.72
807.363	344.57
807.543	289.28
807.722	254.46
807.901	293.37
808.081	356.86
808.26	303.61
808.439	346.62
808.619	330.23
808.798	320
808.977	326.14
809.156	350.71
809.336	276.99
809.515	330.23
809.694	313.85
809.873	258.56
810.052	270.84
810.231	371.19
810.411	313.85
810.59	238.08
810.769	297.47
810.948	373.24
811.127	221.69
811.306	238.08
811.485	266.75
811.664	420.35
811.843	242.17
812.022	289.28
812.201	279.04
812.38	322.04
812.559	244.22
812.737	246.27
812.916	262.65
813.095	264.7
813.274	221.69
813.453	213.5
813.632	264.7
813.811	326.14
813.989	172.54
814.168	293.37
814.347	268.8
814.526	291.32
814.704	291.32
814.883	295.42
815.062	238.08
815.24	379.39
815.419	197.12
815.598	342.52
815.776	211.45
815.955	268.8
816.133	299.52
816.312	276.99
816.49	297.47
816.669	270.84
816.847	299.52
817.026	260.6
817.204	260.6
817.383	166.4
817.561	199.16
817.74	330.23
817.918	274.94
818.097	195.07
818.275	256.51
818.453	233.98
818.632	211.45
818.81	211.45
818.988	201.21
819.167	188.93
819.345	227.84
819.523	252.41
819.701	211.45
819.879	301.56
820.058	223.74
820.236	229.88
820.414	201.21
820.592	168.45
820.77	199.16
820.948	205.31
821.127	240.12
821.305	184.83
821.483	170.49
821.661	260.6
821.839	229.88
822.017	236.03
822.195	268.8
822.373	279.04
822.551	240.12
822.729	195.07
822.907	227.84
823.085	209.4
823.262	268.8
823.44	223.74
823.618	156.16
823.796	225.79
823.974	174.59
824.152	229.88
824.329	195.07
824.507	238.08
824.685	276.99
824.863	107.01
825.04	225.79
825.218	139.77
825.396	160.25
825.574	231.93
825.751	188.93
825.929	188.93
826.107	121.34
826.284	207.36
826.462	125.44
826.639	143.87
826.817	107.01
826.994	264.7
827.172	117.25
827.349	170.49
827.527	184.83
827.704	182.78
827.882	176.64
828.059	125.44
828.237	172.54
828.414	207.36
828.591	57.86
828.769	145.92
828.946	133.63
829.124	121.34
829.301	166.4
829.478	164.35
829.655	203.26
829.833	211.45
830.01	135.68
830.187	160.25
830.364	104.96
830.542	150.01
830.719	147.97
830.896	211.45
831.073	176.64
831.25	152.06
831.427	156.16
831.604	94.72
831.782	80.38
831.959	145.92
832.136	96.77
832.313	82.43
832.49	113.15
832.667	109.05
832.844	74.24
833.021	207.36
833.198	125.44
833.374	162.3
833.551	160.25
833.728	147.97
833.905	168.45
834.082	47.62
834.259	154.11
834.436	205.31
834.612	115.2
834.789	154.11
834.966	164.35
835.143	180.73
835.319	70.14
835.496	96.77
835.673	211.45
835.85	236.03
836.026	217.6
836.203	178.69
836.38	82.43
836.556	123.39
836.733	100.86
836.909	248.32
837.086	14.85
837.262	45.57
837.439	96.77
837.616	150.01
837.792	127.49
837.968	90.62
838.145	92.67
838.321	188.93
838.498	92.67
838.674	145.92
838.851	109.05
839.027	141.82
839.203	113.15
839.38	217.6
839.556	64
839.732	203.26
839.909	90.62
840.085	102.91
840.261	203.26
840.437	164.35
840.614	125.44
840.79	121.34
840.966	107.01
841.142	117.25
841.318	117.25
841.494	182.78
841.671	113.15
841.847	88.57
842.023	119.29
842.199	86.53
842.375	164.35
842.551	43.52
842.727	74.24
842.903	119.29
843.079	0.51
843.255	197.12
843.431	18.94
843.607	70.14
843.783	64
843.959	100.86
844.134	41.47
844.31	59.9
844.486	143.87
844.662	23.04
844.838	86.53
845.013	172.54
845.189	129.53
845.365	143.87
845.541	86.53
845.716	64
845.892	100.86
846.068	107.01
846.244	-1.54
846.419	82.43
846.595	31.23
846.77	45.57
846.946	109.05
847.122	111.1
847.297	20.99
847.473	55.81
847.648	25.09
847.824	137.73
847.999	-15.87
848.175	82.43
848.35	92.67
848.526	96.77
848.701	88.57
848.876	168.45
849.052	121.34
849.227	125.44
849.403	51.71
849.578	57.86
849.753	96.77
849.929	109.05
850.104	31.23
850.279	55.81
850.454	68.09
850.63	129.53
850.805	68.09
850.98	66.05
851.155	123.39
851.33	41.47
851.505	72.19
851.681	98.81
851.856	74.24
852.031	92.67
852.206	25.09
852.381	88.57
852.556	100.86
852.731	115.2
852.906	66.05
853.081	150.01
853.256	113.15
853.431	-9.73
853.606	-3.58
853.781	74.24
853.956	25.09
854.131	82.43
854.305	59.9
854.48	70.14
854.655	-5.63
854.83	55.81
855.005	74.24
855.18	78.33
855.354	-5.63
855.529	74.24
855.704	102.91
855.879	76.29
856.053	68.09
856.228	111.1
856.403	2.56
856.577	76.29
856.752	-15.87
856.926	70.14
857.101	49.66
857.276	25.09
857.45	51.71
857.625	57.86
857.799	68.09
857.974	4.61
858.148	31.23
858.323	25.09
858.497	29.18
858.672	20.99
858.846	-15.87
859.02	88.57
859.195	12.8
859.369	37.38
859.543	111.1
859.718	72.19
859.892	123.39
860.066	80.38
860.241	49.66
860.415	59.9
860.589	53.76
860.763	72.19
860.938	41.47
861.112	113.15
861.286	27.14
861.46	49.66
861.634	88.57
861.808	78.33
861.982	-36.35
862.157	68.09
862.331	23.04
862.505	84.48
862.679	12.8
862.853	82.43
863.027	39.42
863.201	188.93
863.375	59.9
863.549	31.23
863.722	107.01
863.896	84.48
864.07	-13.82
864.244	80.38
864.418	113.15
864.592	20.99
864.766	39.42
864.939	61.95
865.113	25.09
865.287	109.05
865.461	68.09
865.634	131.58
865.808	64
865.982	47.62
866.156	25.09
866.329	29.18
866.503	-5.63
866.676	61.95
866.85	18.94
867.024	23.04
867.197	39.42
867.371	96.77
867.544	16.9
867.718	74.24
867.891	115.2
868.065	33.28
868.238	49.66
868.412	123.39
868.585	45.57
868.759	12.8
868.932	74.24
869.105	-28.16
869.279	-5.63
869.452	47.62
869.625	74.24
869.799	102.91
869.972	27.14
870.145	35.33
870.319	76.29
870.492	25.09
870.665	53.76
870.838	8.7
871.011	-30.21
871.185	82.43
871.358	18.94
871.531	31.23
871.704	84.48
871.877	84.48
872.05	-19.97
872.223	74.24
872.396	66.05
872.569	45.57
872.742	39.42
872.915	129.53
873.088	25.09
873.261	-9.73
873.434	76.29
873.607	-3.58
873.78	47.62
873.953	2.56
874.126	51.71
874.299	2.56
874.471	12.8
874.644	57.86
874.817	51.71
874.99	154.11
875.163	-13.82
875.335	-22.02
875.508	-42.5
875.681	147.97
875.853	4.61
876.026	51.71
876.199	80.38
876.371	74.24
876.544	-50.69
876.717	109.05
876.889	-9.73
877.062	104.96
877.234	-67.07
877.407	10.75
877.579	-17.92
877.752	64
877.924	31.23
878.097	43.52
878.269	57.86
878.442	39.42
878.614	98.81
878.786	51.71
878.959	43.52
879.131	68.09
879.303	-1.54
879.476	70.14
879.648	90.62
879.82	61.95
879.993	18.94
880.165	-19.97
880.337	8.7
880.509	86.53
880.681	-1.54
880.854	0.51
881.026	29.18
881.198	113.15
881.37	64
881.542	23.04
881.714	-71.17
881.886	49.66
882.058	14.85
882.23	35.33
882.402	-26.11
882.574	66.05
882.746	-1.54
882.918	141.82
883.09	80.38
883.262	-15.87
883.434	49.66
883.606	-24.06
883.778	-7.68
883.95	41.47
884.122	-1.54
884.293	129.53
884.465	33.28
884.637	119.29
884.809	-9.73
884.98	57.86
885.152	51.71
885.324	66.05
885.496	25.09
885.667	111.1
885.839	14.85
886.011	197.12
886.182	88.57
886.354	100.86
886.525	37.38
886.697	8.7
886.869	-15.87
887.04	18.94
887.212	39.42
887.383	102.91
887.555	76.29
887.726	61.95
887.897	12.8
888.069	84.48
888.24	113.15
888.412	37.38
888.583	31.23
888.754	51.71
888.926	-24.06
889.097	23.04
889.268	-30.21
889.44	31.23
889.611	-22.02
889.782	10.75
889.953	31.23
890.125	41.47
890.296	31.23
890.467	41.47
890.638	41.47
890.809	49.66
890.98	-19.97
891.151	90.62
891.323	43.52
891.494	23.04
891.665	57.86
891.836	59.9
892.007	39.42
892.178	64
892.349	51.71
892.52	18.94
892.691	121.34
892.862	27.14
893.032	-54.78
893.203	35.33
893.374	-5.63
893.545	45.57
893.716	-11.78
893.887	88.57
894.057	41.47
894.228	20.99
894.399	61.95
894.57	53.76
894.74	31.23
894.911	59.9
895.082	-36.35
895.253	-15.87
895.423	10.75
895.594	33.28
895.764	16.9
895.935	-50.69
896.106	-1.54
896.276	-38.4
896.447	41.47
896.617	18.94
896.788	-9.73
896.958	27.14
897.129	70.14
897.299	29.18
897.47	74.24
897.64	39.42
897.81	-40.45
897.981	25.09
898.151	41.47
898.322	-30.21
898.492	51.71
898.662	-3.58
898.832	35.33
899.003	-22.02
899.173	59.9
899.343	-56.83
899.513	-13.82
