Data from USB4F104151__27__13-04-46-648.txt Node

Date: Fri Mar 14 13:04:46 EDT 2025
User: louis
Spectrometer: USB4F10415
Trigger mode: 4
Integration Time (sec): 4.000000E-2
Scans to average: 1
Electric dark correction enabled: true
Nonlinearity correction enabled: false
Boxcar width: 0
XAxis mode: Wavelengths
Number of Pixels in Spectrum: 3648
>>>>>Begin Spectral Data<<<<<
178.204	-169.64
178.424	-169.64
178.644	-169.64
178.864	-247.46
179.084	-218.79
179.304	-18.09
179.524	14.68
179.744	10.58
179.964	-46.76
180.184	39.25
180.404	-13.99
180.624	-20.14
180.844	-11.95
181.064	0.34
181.283	41.3
181.503	26.96
181.723	-22.19
181.943	-5.8
182.163	106.84
182.383	37.2
182.602	102.74
182.822	115.03
183.042	63.83
183.262	0.34
183.482	-28.33
183.701	29.01
183.921	26.96
184.141	10.58
184.361	131.41
184.58	94.55
184.8	16.73
185.02	-9.9
185.239	63.83
185.459	31.06
185.679	14.68
185.898	-16.04
186.118	98.64
186.338	-11.95
186.557	67.92
186.777	43.35
186.997	108.88
187.216	92.5
187.436	121.17
187.655	67.92
187.875	88.4
188.095	20.82
188.314	121.17
188.534	110.93
188.753	-1.71
188.973	110.93
189.192	76.12
189.412	94.55
189.631	33.11
189.851	-30.38
190.07	121.17
190.29	139.6
190.509	-77.48
190.729	-3.75
190.948	86.36
191.168	211.28
191.387	86.36
191.607	41.3
191.826	43.35
192.045	41.3
192.265	59.73
192.484	49.49
192.704	94.55
192.923	-22.19
193.142	108.88
193.362	8.53
193.581	104.79
193.8	98.64
194.02	98.64
194.239	26.96
194.458	61.78
194.678	39.25
194.897	10.58
195.116	94.55
195.335	29.01
195.555	121.17
195.774	43.35
195.993	84.31
196.212	78.16
196.432	33.11
196.651	26.96
196.87	12.63
197.089	74.07
197.308	86.36
197.528	29.01
197.747	26.96
197.966	53.59
198.185	84.31
198.404	6.49
198.623	86.36
198.842	59.73
199.062	96.6
199.281	88.4
199.5	16.73
199.719	110.93
199.938	84.31
200.157	108.88
200.376	121.17
200.595	84.31
200.814	16.73
201.033	49.49
201.252	33.11
201.471	121.17
201.69	74.07
201.909	129.36
202.128	80.21
202.347	141.65
202.566	43.35
202.785	49.49
203.004	31.06
203.223	96.6
203.442	18.77
203.661	33.11
203.879	59.73
204.098	90.45
204.317	-20.14
204.536	47.44
204.755	59.73
204.974	74.07
205.193	96.6
205.411	168.27
205.63	51.54
205.849	55.64
206.068	63.83
206.287	76.12
206.505	65.88
206.724	88.4
206.943	-28.33
207.162	35.16
207.381	26.96
207.599	8.53
207.818	102.74
208.037	-5.8
208.255	88.4
208.474	31.06
208.693	26.96
208.911	119.12
209.13	117.08
209.349	20.82
209.567	100.69
209.786	80.21
210.005	96.6
210.223	102.74
210.442	-61.1
210.661	78.16
210.879	92.5
211.098	47.44
211.316	63.83
211.535	74.07
211.753	41.3
211.972	33.11
212.191	18.77
212.409	26.96
212.628	57.68
212.846	43.35
213.065	61.78
213.283	53.59
213.502	10.58
213.72	47.44
213.938	69.97
214.157	35.16
214.375	145.75
214.594	78.16
214.812	135.51
215.031	76.12
215.249	72.02
215.467	33.11
215.686	166.23
215.904	76.12
216.122	67.92
216.341	41.3
216.559	78.16
216.778	4.44
216.996	63.83
217.214	-20.14
217.432	72.02
217.651	16.73
217.869	100.69
218.087	121.17
218.306	-22.19
218.524	0.34
218.742	29.01
218.96	61.78
219.179	-36.52
219.397	55.64
219.615	135.51
219.833	86.36
220.051	69.97
220.27	170.32
220.488	145.75
220.706	24.92
220.924	78.16
221.142	35.16
221.36	-13.99
221.578	22.87
221.796	86.36
222.015	96.6
222.233	53.59
222.451	151.89
222.669	59.73
222.887	76.12
223.105	4.44
223.323	59.73
223.541	59.73
223.759	127.32
223.977	76.12
224.195	100.69
224.413	84.31
224.631	88.4
224.849	49.49
225.067	37.2
225.285	22.87
225.503	26.96
225.721	-3.75
225.939	18.77
226.157	119.12
226.375	155.99
226.592	0.34
226.81	22.87
227.028	84.31
227.246	207.19
227.464	2.39
227.682	51.54
227.9	135.51
228.117	-7.85
228.335	90.45
228.553	29.01
228.771	43.35
228.989	26.96
229.206	10.58
229.424	20.82
229.642	8.53
229.86	51.54
230.077	112.98
230.295	67.92
230.513	29.01
230.731	69.97
230.948	127.32
231.166	59.73
231.384	-38.57
231.601	57.68
231.819	162.13
232.037	76.12
232.254	-18.09
232.472	43.35
232.689	18.77
232.907	69.97
233.125	14.68
233.342	-1.71
233.56	117.08
233.777	12.63
233.995	51.54
234.213	84.31
234.43	69.97
234.648	76.12
234.865	-20.14
235.083	82.26
235.3	74.07
235.518	84.31
235.735	92.5
235.953	117.08
236.17	84.31
236.388	45.4
236.605	-5.8
236.822	137.56
237.04	63.83
237.257	63.83
237.475	51.54
237.692	67.92
237.909	53.59
238.127	45.4
238.344	-7.85
238.562	96.6
238.779	88.4
238.996	12.63
239.214	20.82
239.431	86.36
239.648	-18.09
239.865	65.88
240.083	123.22
240.3	76.12
240.517	-24.23
240.735	-22.19
240.952	84.31
241.169	119.12
241.386	51.54
241.603	86.36
241.821	20.82
242.038	33.11
242.255	43.35
242.472	-22.19
242.689	51.54
242.907	76.12
243.124	88.4
243.341	-22.19
243.558	-38.57
243.775	-34.47
243.992	-7.85
244.209	115.03
244.426	151.89
244.643	100.69
244.86	-7.85
245.078	104.79
245.295	72.02
245.512	26.96
245.729	110.93
245.946	155.99
246.163	-7.85
246.38	29.01
246.597	37.2
246.814	117.08
247.031	8.53
247.248	65.88
247.464	96.6
247.681	74.07
247.898	149.84
248.115	119.12
248.332	39.25
248.549	55.64
248.766	153.94
248.983	117.08
249.2	18.77
249.417	8.53
249.633	74.07
249.85	43.35
250.067	-26.28
250.284	35.16
250.501	88.4
250.717	86.36
250.934	33.11
251.151	-18.09
251.368	57.68
251.585	61.78
251.801	43.35
252.018	37.2
252.235	153.94
252.451	18.77
252.668	10.58
252.885	31.06
253.102	59.73
253.318	31.06
253.535	47.44
253.752	20.82
253.968	84.31
254.185	31.06
254.401	35.16
254.618	84.31
254.835	26.96
255.051	121.17
255.268	35.16
255.484	55.64
255.701	67.92
255.917	65.88
256.134	-34.47
256.351	74.07
256.567	43.35
256.784	112.98
257	14.68
257.217	78.16
257.433	53.59
257.65	47.44
257.866	78.16
258.082	31.06
258.299	-67.24
258.515	67.92
258.732	31.06
258.948	80.21
259.165	39.25
259.381	-13.99
259.597	158.03
259.814	0.34
260.03	37.2
260.246	117.08
260.463	61.78
260.679	100.69
260.895	86.36
261.112	94.55
261.328	22.87
261.544	63.83
261.761	194.9
261.977	72.02
262.193	16.73
262.409	86.36
262.626	137.56
262.842	82.26
263.058	4.44
263.274	125.27
263.49	69.97
263.707	51.54
263.923	31.06
264.139	26.96
264.355	69.97
264.571	119.12
264.787	162.13
265.004	76.12
265.22	55.64
265.436	80.21
265.652	35.16
265.868	51.54
266.084	57.68
266.3	-22.19
266.516	10.58
266.732	88.4
266.948	65.88
267.164	74.07
267.38	-22.19
267.596	69.97
267.812	162.13
268.028	92.5
268.244	14.68
268.46	98.64
268.676	-50.86
268.892	26.96
269.108	26.96
269.324	-44.71
269.54	-5.8
269.756	84.31
269.972	16.73
270.188	14.68
270.403	-71.34
270.619	76.12
270.835	112.98
271.051	47.44
271.267	51.54
271.483	18.77
271.698	47.44
271.914	20.82
272.13	47.44
272.346	59.73
272.562	96.6
272.777	108.88
272.993	16.73
273.209	55.64
273.425	100.69
273.64	-20.14
273.856	84.31
274.072	-3.75
274.287	-20.14
274.503	69.97
274.719	55.64
274.934	4.44
275.15	0.34
275.366	-3.75
275.581	63.83
275.797	31.06
276.012	0.34
276.228	26.96
276.444	76.12
276.659	123.22
276.875	16.73
277.09	72.02
277.306	67.92
277.521	86.36
277.737	74.07
277.952	96.6
278.168	84.31
278.383	-38.57
278.599	20.82
278.814	137.56
279.03	43.35
279.245	78.16
279.461	76.12
279.676	88.4
279.892	-13.99
280.107	-3.75
280.322	29.01
280.538	10.58
280.753	29.01
280.969	78.16
281.184	4.44
281.399	86.36
281.615	61.78
281.83	141.65
282.045	22.87
282.26	76.12
282.476	6.49
282.691	57.68
282.906	20.82
283.122	84.31
283.337	-34.47
283.552	98.64
283.767	2.39
283.983	92.5
284.198	29.01
284.413	41.3
284.628	-7.85
284.843	102.74
285.058	121.17
285.274	10.58
285.489	33.11
285.704	131.41
285.919	29.01
286.134	47.44
286.349	26.96
286.564	76.12
286.779	110.93
286.995	43.35
287.21	-24.23
287.425	82.26
287.64	-7.85
287.855	43.35
288.07	2.39
288.285	53.59
288.5	80.21
288.715	14.68
288.93	-5.8
289.145	37.2
289.36	121.17
289.575	33.11
289.79	102.74
290.004	22.87
290.219	176.47
290.434	16.73
290.649	43.35
290.864	16.73
291.079	55.64
291.294	115.03
291.509	8.53
291.724	53.59
291.938	80.21
292.153	123.22
292.368	26.96
292.583	39.25
292.798	20.82
293.012	24.92
293.227	45.4
293.442	16.73
293.657	102.74
293.871	45.4
294.086	96.6
294.301	108.88
294.516	41.3
294.73	45.4
294.945	69.97
295.16	43.35
295.374	98.64
295.589	125.27
295.804	43.35
296.018	-5.8
296.233	90.45
296.447	20.82
296.662	35.16
296.877	88.4
297.091	80.21
297.306	47.44
297.52	12.63
297.735	12.63
297.949	43.35
298.164	26.96
298.378	72.02
298.593	72.02
298.807	26.96
299.022	4.44
299.236	57.68
299.451	35.16
299.665	-5.8
299.88	74.07
300.094	24.92
300.309	-3.75
300.523	127.32
300.737	41.3
300.952	72.02
301.166	39.25
301.381	22.87
301.595	10.58
301.809	76.12
302.024	72.02
302.238	2.39
302.452	78.16
302.667	61.78
302.881	24.92
303.095	100.69
303.309	29.01
303.524	78.16
303.738	127.32
303.952	61.78
304.166	57.68
304.381	18.77
304.595	141.65
304.809	29.01
305.023	59.73
305.237	33.11
305.452	16.73
305.666	63.83
305.88	92.5
306.094	88.4
306.308	20.82
306.522	96.6
306.736	35.16
306.95	80.21
307.164	61.78
307.379	53.59
307.593	53.59
307.807	112.98
308.021	82.26
308.235	102.74
308.449	47.44
308.663	49.49
308.877	63.83
309.091	112.98
309.305	104.79
309.519	12.63
309.733	133.46
309.947	88.4
310.161	96.6
310.374	49.49
310.588	84.31
310.802	53.59
311.016	65.88
311.23	35.16
311.444	53.59
311.658	39.25
311.872	84.31
312.085	168.27
312.299	141.65
312.513	61.78
312.727	55.64
312.941	35.16
313.154	24.92
313.368	61.78
313.582	76.12
313.796	55.64
314.009	43.35
314.223	102.74
314.437	67.92
314.651	104.79
314.864	61.78
315.078	-18.09
315.292	14.68
315.505	59.73
315.719	100.69
315.933	8.53
316.146	39.25
316.36	20.82
316.573	176.47
316.787	94.55
317.001	86.36
317.214	35.16
317.428	158.03
317.641	80.21
317.855	12.63
318.068	65.88
318.282	53.59
318.495	147.8
318.709	59.73
318.922	61.78
319.136	78.16
319.349	108.88
319.563	14.68
319.776	47.44
319.99	72.02
320.203	67.92
320.417	127.32
320.63	115.03
320.843	129.36
321.057	39.25
321.27	86.36
321.483	22.87
321.697	129.36
321.91	74.07
322.124	141.65
322.337	78.16
322.55	-44.71
322.763	39.25
322.977	0.34
323.19	-28.33
323.403	29.01
323.617	61.78
323.83	131.41
324.043	-22.19
324.256	65.88
324.469	39.25
324.683	76.12
324.896	-9.9
325.109	41.3
325.322	61.78
325.535	33.11
325.748	61.78
325.962	41.3
326.175	43.35
326.388	47.44
326.601	76.12
326.814	4.44
327.027	106.84
327.24	217.43
327.453	29.01
327.666	86.36
327.879	149.84
328.092	76.12
328.305	61.78
328.518	119.12
328.731	94.55
328.944	51.54
329.157	55.64
329.37	59.73
329.583	86.36
329.796	104.79
330.009	6.49
330.222	18.77
330.435	90.45
330.648	100.69
330.861	39.25
331.073	41.3
331.286	69.97
331.499	26.96
331.712	12.63
331.925	67.92
332.138	90.45
332.35	98.64
332.563	29.01
332.776	115.03
332.989	39.25
333.202	49.49
333.414	24.92
333.627	22.87
333.84	45.4
334.053	-7.85
334.265	78.16
334.478	-1.71
334.691	53.59
334.903	92.5
335.116	0.34
335.329	35.16
335.541	41.3
335.754	92.5
335.966	6.49
336.179	31.06
336.392	45.4
336.604	61.78
336.817	84.31
337.029	67.92
337.242	112.98
337.454	-7.85
337.667	4.44
337.88	98.64
338.092	78.16
338.305	67.92
338.517	74.07
338.729	96.6
338.942	22.87
339.154	14.68
339.367	57.68
339.579	20.82
339.792	76.12
340.004	100.69
340.217	61.78
340.429	18.77
340.641	53.59
340.854	51.54
341.066	55.64
341.278	92.5
341.491	119.12
341.703	-5.8
341.915	-32.43
342.128	67.92
342.34	72.02
342.552	49.49
342.764	102.74
342.977	37.2
343.189	24.92
343.401	98.64
343.613	-11.95
343.826	2.39
344.038	2.39
344.25	35.16
344.462	14.68
344.674	145.75
344.886	37.2
345.099	59.73
345.311	65.88
345.523	51.54
345.735	22.87
345.947	84.31
346.159	-5.8
346.371	76.12
346.583	67.92
346.795	53.59
347.007	39.25
347.219	100.69
347.431	49.49
347.643	88.4
347.855	-20.14
348.067	127.32
348.279	96.6
348.491	74.07
348.703	67.92
348.915	104.79
349.127	35.16
349.339	37.2
349.551	69.97
349.763	53.59
349.975	76.12
350.187	55.64
350.399	127.32
350.61	92.5
350.822	-7.85
351.034	74.07
351.246	61.78
351.458	104.79
351.669	57.68
351.881	108.88
352.093	94.55
352.305	78.16
352.517	92.5
352.728	72.02
352.94	127.32
353.152	112.98
353.363	-63.15
353.575	96.6
353.787	119.12
353.999	127.32
354.21	135.51
354.422	35.16
354.633	96.6
354.845	18.77
355.057	96.6
355.268	59.73
355.48	74.07
355.692	98.64
355.903	98.64
356.115	16.73
356.326	-5.8
356.538	133.46
356.749	100.69
356.961	12.63
357.172	22.87
357.384	139.6
357.595	201.04
357.807	74.07
358.018	104.79
358.23	74.07
358.441	139.6
358.653	67.92
358.864	47.44
359.075	24.92
359.287	43.35
359.498	41.3
359.709	18.77
359.921	63.83
360.132	29.01
360.344	61.78
360.555	57.68
360.766	94.55
360.977	80.21
361.189	90.45
361.4	45.4
361.611	119.12
361.823	145.75
362.034	65.88
362.245	47.44
362.456	94.55
362.667	137.56
362.879	53.59
363.09	65.88
363.301	92.5
363.512	102.74
363.723	65.88
363.935	51.54
364.146	141.65
364.357	74.07
364.568	100.69
364.779	10.58
364.99	176.47
365.201	86.36
365.412	72.02
365.623	-18.09
365.834	53.59
366.045	43.35
366.256	69.97
366.467	102.74
366.678	43.35
366.889	26.96
367.1	4.44
367.311	33.11
367.522	37.2
367.733	98.64
367.944	86.36
368.155	82.26
368.366	63.83
368.577	65.88
368.788	110.93
368.999	59.73
369.209	45.4
369.42	252.24
369.631	209.23
369.842	31.06
370.053	102.74
370.264	96.6
370.474	-11.95
370.685	59.73
370.896	63.83
371.107	110.93
371.317	98.64
371.528	63.83
371.739	57.68
371.95	96.6
372.16	133.46
372.371	-13.99
372.582	55.64
372.792	43.35
373.003	84.31
373.214	102.74
373.424	-28.33
373.635	-18.09
373.846	198.99
374.056	33.11
374.267	39.25
374.477	51.54
374.688	131.41
374.898	45.4
375.109	151.89
375.319	115.03
375.53	110.93
375.74	155.99
375.951	57.68
376.161	80.21
376.372	100.69
376.582	69.97
376.793	47.44
377.003	69.97
377.214	31.06
377.424	104.79
377.635	10.58
377.845	80.21
378.055	94.55
378.266	16.73
378.476	59.73
378.686	47.44
378.897	72.02
379.107	59.73
379.317	76.12
379.528	37.2
379.738	106.84
379.948	18.77
380.158	74.07
380.369	49.49
380.579	53.59
380.789	12.63
380.999	86.36
381.21	184.66
381.42	207.19
381.63	-5.8
381.84	88.4
382.05	41.3
382.261	106.84
382.471	106.84
382.681	12.63
382.891	112.98
383.101	88.4
383.311	-11.95
383.521	98.64
383.731	100.69
383.941	72.02
384.151	94.55
384.361	90.45
384.571	90.45
384.781	43.35
384.991	59.73
385.201	178.51
385.411	51.54
385.621	121.17
385.831	80.21
386.041	35.16
386.251	67.92
386.461	92.5
386.671	67.92
386.881	16.73
387.091	104.79
387.301	94.55
387.511	80.21
387.72	88.4
387.93	117.08
388.14	37.2
388.35	100.69
388.56	115.03
388.769	139.6
388.979	72.02
389.189	53.59
389.399	141.65
389.609	102.74
389.818	96.6
390.028	96.6
390.238	100.69
390.447	31.06
390.657	57.68
390.867	55.64
391.076	43.35
391.286	143.7
391.496	88.4
391.705	121.17
391.915	186.71
392.125	188.75
392.334	123.22
392.544	139.6
392.753	102.74
392.963	131.41
393.172	31.06
393.382	117.08
393.591	248.15
393.801	37.2
394.01	168.27
394.22	133.46
394.429	76.12
394.639	110.93
394.848	92.5
395.058	102.74
395.267	102.74
395.477	37.2
395.686	125.27
395.895	162.13
396.105	139.6
396.314	123.22
396.524	129.36
396.733	76.12
396.942	151.89
397.152	211.28
397.361	176.47
397.57	145.75
397.78	158.03
397.989	127.32
398.198	168.27
398.407	117.08
398.617	100.69
398.826	72.02
399.035	119.12
399.244	176.47
399.453	110.93
399.663	155.99
399.872	141.65
400.081	123.22
400.29	211.28
400.499	31.06
400.708	176.47
400.917	129.36
401.127	131.41
401.336	182.61
401.545	170.32
401.754	176.47
401.963	176.47
402.172	188.75
402.381	137.56
402.59	141.65
402.799	102.74
403.008	149.84
403.217	213.33
403.426	174.42
403.635	92.5
403.844	160.08
404.053	141.65
404.262	149.84
404.471	264.53
404.68	295.25
404.888	219.47
405.097	172.37
405.306	160.08
405.515	217.43
405.724	203.09
405.933	121.17
406.142	162.13
406.35	280.91
406.559	100.69
406.768	176.47
406.977	270.67
407.185	203.09
407.394	264.53
407.603	207.19
407.812	174.42
408.02	282.96
408.229	209.23
408.438	233.81
408.646	235.86
408.855	282.96
409.064	309.58
409.272	315.73
409.481	242
409.69	313.68
409.898	274.77
410.107	317.78
410.315	346.45
410.524	280.91
410.733	360.78
410.941	319.82
411.15	389.46
411.358	424.27
411.567	463.18
411.775	338.26
411.984	373.07
412.192	411.98
412.401	397.65
412.609	506.19
412.818	543.05
413.026	495.95
413.234	538.96
413.443	526.67
413.651	530.77
413.86	600.4
414.068	622.92
414.276	710.99
414.485	688.46
414.693	702.79
414.901	708.94
415.11	713.03
415.318	706.89
415.526	743.75
415.734	770.38
415.943	803.15
416.151	919.88
416.359	817.48
416.567	874.82
416.776	919.88
416.984	952.65
417.192	1091.91
417.4	936.26
417.608	901.45
417.817	958.79
418.025	1116.48
418.233	1210.69
418.441	1173.83
418.649	1214.79
418.857	1290.56
419.065	1286.47
419.273	1276.23
419.481	1378.62
419.689	1337.66
419.897	1446.21
420.105	1501.5
420.313	1546.56
420.521	1599.8
420.729	1624.38
420.937	1653.05
421.145	1786.17
421.353	1835.32
421.561	1927.48
421.769	1993.01
421.977	1974.58
422.185	1956.15
422.393	2111.8
422.601	2289.97
422.809	2201.91
423.017	2224.44
423.224	2302.26
423.432	2523.44
423.64	2410.8
423.848	2615.6
424.056	2613.55
424.263	2744.62
424.471	2795.82
424.679	2771.24
424.887	3090.73
425.094	3082.53
425.302	3195.17
425.51	3189.03
425.718	3330.34
425.925	3354.91
426.133	3436.83
426.341	3729.69
426.548	3875.1
426.756	3875.1
426.964	3862.81
427.171	4057.37
427.379	4131.09
427.586	4258.07
427.794	4524.3
428.001	4624.65
428.209	4790.54
428.417	4800.78
428.624	5105.93
428.832	5134.6
429.039	5122.31
429.247	4985.1
429.454	5591.3
429.662	5835
429.869	5599.49
430.076	5984.51
430.284	5691.65
430.491	5814.52
430.699	6471.92
430.906	6226.17
431.114	6361.33
431.321	6656.24
431.528	6873.32
431.736	7272.68
431.943	7590.11
432.15	7348.45
432.358	7530.72
432.565	8163.54
432.772	7813.34
432.979	8362.2
433.187	8380.63
433.394	8380.63
433.601	8947.92
433.808	9087.18
434.016	8943.82
434.223	9251.02
434.43	9857.21
434.637	9869.5
434.844	10213.56
435.052	10518.71
435.259	10467.51
435.466	10709.17
435.673	10399.93
435.88	11131.05
436.087	11708.58
436.294	11716.77
436.501	11647.14
436.708	11667.62
436.915	12183.71
437.122	12814.48
437.329	12529.81
437.537	12976.27
437.743	13191.31
437.95	13070.48
438.157	13854.85
438.364	14135.42
438.571	14190.72
438.778	14340.22
438.985	15779.94
439.192	15014
439.399	15362.15
439.606	15294.57
439.813	16066.66
440.02	17320.01
440.227	16564.31
440.433	16609.37
440.64	17051.73
440.847	17023.06
441.054	17576.01
441.261	18518.07
441.467	18315.33
441.674	18827.32
441.881	19284.02
442.088	19138.61
442.294	19181.62
442.501	19662.89
442.708	20041.76
442.914	20748.31
443.121	21909.51
443.328	21022.74
443.534	22630.4
443.741	21952.52
443.948	21516.3
444.154	23326.71
444.361	23126
444.568	23494.64
444.774	23549.93
444.981	23973.86
445.187	24496.1
445.394	25231.32
445.6	25036.76
445.807	28006.31
446.013	26468.29
446.22	26701.76
446.426	27852.72
446.633	28266.41
446.839	29314.97
447.046	27803.57
447.252	29198.23
447.459	29327.25
447.665	29443.99
447.871	30672.77
448.078	31864.69
448.284	30359.43
448.491	31418.23
448.697	32341.86
448.903	32773.99
449.11	33122.14
449.316	32612.2
449.522	33441.62
449.728	34826.05
449.935	34570.05
450.141	34037.58
450.347	35438.39
450.553	34115.4
450.76	34615.11
450.966	35845.94
451.172	35383.1
451.378	36118.32
451.584	35493.69
451.791	36513.58
451.997	36323.12
452.203	37011.23
452.409	37074.72
452.615	36998.94
452.821	35678
453.027	35544.89
453.233	36886.31
453.44	35524.41
453.646	36226.86
453.852	36233
454.058	36976.42
454.264	35465.02
454.47	36323.12
454.676	35551.03
454.882	36792.1
455.088	33939.28
455.294	34082.64
455.5	34723.65
455.705	35233.6
455.911	34041.68
456.117	33298.27
456.323	32794.46
456.529	30889.85
456.735	32368.49
456.941	31459.19
457.147	31100.79
457.352	30093.19
457.558	29769.62
457.764	30023.56
457.97	29538.19
458.176	28401.57
458.381	28632.99
458.587	27555.76
458.793	27201.46
458.999	26107.85
459.204	27733.93
459.41	27135.93
459.616	25257.94
459.821	25245.65
460.027	24987.61
460.233	24340.45
460.438	23455.73
460.644	23324.66
460.85	22501.37
461.055	22280.19
461.261	21919.75
461.466	20181.03
461.672	19965.99
461.878	21190.67
462.083	20035.62
462.289	19281.97
462.494	19257.39
462.7	18151.49
462.905	18141.25
463.111	18597.95
463.316	18718.78
463.522	18481.21
463.727	18378.81
463.932	18313.28
464.138	17967.17
464.343	18122.82
464.549	17545.29
464.754	18219.07
464.959	17987.65
465.165	17608.78
465.37	17272.91
465.575	16652.38
465.781	17383.5
465.986	17453.13
466.191	16906.32
466.397	16308.32
466.602	15671.4
466.807	16234.59
467.012	16173.15
467.218	16232.54
467.423	15968.35
467.628	16005.22
467.833	16666.71
468.038	16025.7
468.244	15448.17
468.449	16158.81
468.654	15638.63
468.859	15669.35
469.064	15454.31
469.269	14794.87
469.474	15030.38
469.679	15380.59
469.885	15034.48
470.09	14938.23
470.295	14911.6
470.5	14743.67
470.705	14884.98
470.91	14495.86
471.115	14270.59
471.32	14284.92
471.525	14346.36
471.73	14114.94
471.935	14162.05
472.139	13559.94
472.344	13643.91
472.549	13467.78
472.754	13174.92
472.959	13174.92
473.164	12888.21
473.369	12892.3
473.574	13207.69
473.778	12912.78
473.983	12980.37
474.188	12779.67
474.393	12247.19
474.598	12234.91
474.802	12157.08
475.007	12212.38
475.212	12060.83
475.417	11612.32
475.621	11782.31
475.826	11772.07
476.031	11333.8
476.235	11253.93
476.44	11430.05
476.645	11225.26
476.849	11118.76
477.054	11145.39
477.259	10911.92
477.463	11055.28
477.668	10809.52
477.872	10817.71
478.077	10764.47
478.282	10158.27
478.486	10178.75
478.691	10299.58
478.895	10246.33
479.1	10268.86
479.304	9990.33
479.509	9945.28
479.713	10053.82
479.918	9894.08
480.122	9558.21
480.326	9793.73
480.531	9910.46
480.735	9783.49
480.94	9607.36
481.144	9869.5
481.348	9504.96
481.553	9533.64
481.757	9371.85
481.961	9095.37
482.166	9601.22
482.37	9504.96
482.574	9337.03
482.778	9341.13
482.983	9586.88
483.187	9529.54
483.391	9531.59
483.595	9396.42
483.8	9265.35
484.004	9337.03
484.208	9447.62
484.412	9357.51
484.616	9564.36
484.821	9349.32
485.025	9414.85
485.229	9382.09
485.433	9349.32
485.637	9291.98
485.841	9433.29
486.045	9259.21
486.249	9666.75
486.453	9173.19
486.657	9296.07
486.861	9285.83
487.065	9210.06
487.269	9404.61
487.473	9089.23
487.677	9396.42
487.881	9488.58
488.085	9480.39
488.289	9312.46
488.493	9195.72
488.697	9312.46
488.901	9457.86
489.105	9353.41
489.309	9408.71
489.512	9580.74
489.716	9550.02
489.92	9455.81
490.124	9562.31
490.328	9685.19
490.531	9484.48
490.735	9674.95
490.939	9588.93
491.143	9771.2
491.346	9578.69
491.55	9705.67
491.754	9676.99
491.958	9648.32
492.161	9765.06
492.365	9914.56
492.569	9894.08
492.772	9810.11
492.976	9937.09
493.18	10121.4
493.383	10100.92
493.587	10250.42
493.79	10195.13
493.994	10117.31
494.197	10545.33
494.401	10234.04
494.605	10234.04
494.808	10375.35
495.012	10404.02
495.215	10684.59
495.419	10705.07
495.622	10690.74
495.825	10852.53
496.029	10922.16
496.232	11126.96
496.436	10963.12
496.639	11208.87
496.843	11176.11
497.046	11366.57
497.249	11661.48
497.453	11499.69
497.656	11604.13
497.859	11671.72
498.063	11915.42
498.266	12157.08
498.469	11948.19
498.673	12193.95
498.876	12368.02
499.079	12755.09
499.282	12413.08
499.485	12656.79
499.689	12648.6
499.892	12961.94
500.095	12955.79
500.298	13459.59
500.501	13148.3
500.705	13490.31
500.908	13875.33
501.111	13836.42
501.314	14282.88
501.517	14231.68
501.72	14207.1
501.923	14160
502.126	14633.08
502.329	14801.01
502.532	14913.65
502.735	14833.78
502.938	15386.73
503.141	15403.11
503.344	15732.84
503.547	15655.01
503.75	15892.58
503.953	16128.1
504.156	16056.42
504.359	16414.81
504.562	16359.52
504.765	16719.96
504.968	16830.55
505.17	16814.16
505.373	17025.11
505.576	17258.57
505.779	17539.15
505.982	17571.91
506.185	18094.15
506.387	17864.77
506.59	18311.23
506.793	18614.33
506.996	18444.35
507.198	19177.52
507.401	18724.92
507.604	19505.2
507.807	19691.56
508.009	19468.33
508.212	19648.55
508.415	20119.59
508.617	20318.24
508.82	20555.8
509.022	20258.85
509.225	20641.82
509.428	20815.9
509.63	21026.84
509.833	21145.62
510.035	21821.45
510.238	21569.55
510.44	22183.94
510.643	22114.31
510.845	22556.67
511.048	22474.75
511.25	22996.98
511.453	22710.27
511.655	23697.39
511.858	23113.72
512.06	23613.42
512.262	23697.39
512.465	23834.6
512.667	24483.81
512.87	24514.53
513.072	24733.66
513.274	24973.27
513.477	25298.9
513.679	25294.8
513.881	25855.95
514.084	26085.32
514.286	25935.82
514.488	26173.38
514.69	27029.43
514.893	26867.64
515.095	27115.45
515.297	27312.05
515.499	27289.52
515.701	27953.07
515.904	28067.75
516.106	28491.68
516.308	28313.51
516.51	28880.8
516.712	28477.35
516.914	28778.4
517.116	29323.16
517.318	29245.34
517.52	29732.75
517.722	29882.25
517.925	29984.65
518.127	30640
518.329	30885.76
518.531	30900.09
518.733	31586.16
518.935	31557.49
519.136	31410.04
519.338	32163.69
519.54	31858.54
519.742	32401.25
519.944	32900.96
520.146	33077.08
520.348	33251.16
520.55	33523.54
520.752	33797.97
520.954	34215.76
521.155	33826.64
521.357	34778.95
521.559	34819.91
521.761	34940.74
521.963	35245.88
522.164	35612.47
522.366	35458.87
522.568	35821.36
522.77	35651.38
522.971	36738.85
523.173	36308.78
523.375	36869.92
523.576	36472.62
523.778	36865.83
523.98	37177.12
524.181	37150.49
524.383	37785.36
524.584	38080.27
524.786	37764.89
524.988	38221.58
525.189	38598.41
525.391	38600.46
525.592	38600.46
525.794	38657.8
525.995	39329.53
526.197	39415.55
526.398	39044.87
526.6	39302.91
526.801	39395.07
527.003	39855.86
527.204	39954.16
527.406	40156.91
527.607	39925.49
527.808	40673
528.01	40212.21
528.211	40433.39
528.412	41096.93
528.614	41129.7
528.815	40836.84
529.016	41113.31
529.218	41041.64
529.419	41314.01
529.62	41457.37
529.822	41074.4
530.023	41846.49
530.224	41289.44
530.425	41400.03
530.626	41359.07
530.828	41178.85
531.029	41725.66
531.23	41490.14
531.431	42071.76
531.632	42344.14
531.833	42143.44
532.035	42131.15
532.236	42307.28
532.437	42383.05
532.638	42059.48
532.839	42811.08
533.04	42780.36
533.241	41926.36
533.442	43187.91
533.643	42501.84
533.844	42653.39
534.045	42796.74
534.246	42548.94
534.447	42817.22
534.648	42645.19
534.849	42720.97
535.05	42434.25
535.251	42839.75
535.451	42237.65
535.652	42776.26
535.853	42817.22
536.054	42915.53
536.255	42641.1
536.456	42182.35
536.657	42960.58
536.857	42942.15
537.058	42610.38
537.259	42983.11
537.46	42929.86
537.66	42637
537.861	42856.14
538.062	42907.33
538.263	42716.87
538.463	42436.3
538.664	42856.14
538.865	42677.96
539.065	43443.9
539.266	42645.19
539.466	42753.74
539.667	42528.46
539.868	43357.89
540.068	42895.05
540.269	42456.78
540.469	43343.55
540.67	42487.5
540.87	42763.98
541.071	42610.38
541.271	42897.09
541.472	42737.35
541.672	42753.74
541.873	42145.49
542.073	42012.37
542.274	42960.58
542.474	42540.75
542.675	42454.73
542.875	43110.08
543.075	42788.55
543.276	42202.83
543.476	42933.96
543.676	42395.34
543.877	42718.92
544.077	42921.67
544.277	42786.5
544.478	42759.88
544.678	42553.04
544.878	42532.56
545.078	42727.11
545.279	42309.33
545.479	42360.53
545.679	42694.35
545.879	41869.01
546.079	42692.3
546.28	42249.94
546.48	42352.34
546.68	42315.47
546.88	42393.29
547.08	42602.19
547.28	42165.97
547.48	41993.94
547.68	42274.51
547.88	42094.29
548.081	42557.13
548.281	42432.21
548.481	42358.48
548.681	42104.53
548.881	42243.79
549.081	42612.43
549.28	42176.21
549.48	42106.58
549.68	42176.21
549.88	42987.21
550.08	41948.89
550.28	42247.89
550.48	42053.33
550.68	42129.11
550.88	42018.52
551.08	42012.37
551.279	42098.39
551.479	42004.18
551.679	41983.7
551.879	41768.66
552.079	42440.4
552.278	41993.94
552.478	41811.67
552.678	41832.15
552.878	42186.45
553.077	41713.37
553.277	41125.6
553.477	41651.93
553.676	41717.46
553.876	41393.89
554.076	41469.66
554.275	41799.38
554.475	41457.37
554.674	41729.75
554.874	41580.25
555.074	41283.3
555.273	41621.21
555.473	41471.71
555.672	41703.13
555.872	41477.85
556.071	41389.79
556.271	41639.64
556.47	41088.74
556.67	40845.03
556.869	41137.89
557.068	41352.93
557.268	40892.13
557.467	41330.4
557.667	41066.21
557.866	41463.52
558.065	40607.47
558.265	40435.44
558.464	40748.78
558.663	41008.87
558.863	40736.49
559.062	41084.64
559.261	40546.03
559.461	40935.14
559.66	40378.09
559.859	40546.03
560.058	40398.57
560.258	40417
560.457	39773.94
560.656	40556.27
560.855	40099.57
561.054	40138.48
561.253	39722.74
561.453	40156.91
561.652	40312.56
561.851	40189.68
562.05	39843.57
562.249	39339.77
562.448	39855.86
562.647	39388.92
562.846	39366.4
563.045	39976.69
563.244	39132.93
563.443	39511.8
563.642	38876.93
563.841	39321.34
564.04	39182.08
564.239	39610.1
564.438	38702.85
564.637	38684.42
564.836	39171.84
565.035	38530.83
565.234	39030.53
565.432	38076.18
565.631	38557.45
565.83	38803.21
566.029	38098.7
566.228	37680.92
566.427	38412.04
566.625	38070.03
566.824	37986.07
567.023	38061.84
567.222	37418.78
567.42	37871.38
567.619	37492.51
567.818	37601.05
568.016	37250.84
568.215	37644.05
568.414	37453.59
568.612	37373.72
568.811	37625.62
569.01	37443.35
569.208	36804.39
569.407	37373.72
569.605	36781.86
569.804	36888.35
570.002	36591.4
570.201	36933.41
570.4	36218.67
570.598	36194.09
570.797	36067.12
570.995	36697.89
571.193	36405.03
571.392	36075.31
571.59	36099.89
571.789	35995.44
571.987	36052.78
572.186	35725.11
572.384	35649.33
572.582	35579.7
572.781	35557.17
572.979	35428.15
573.177	35577.65
573.376	35407.67
573.574	34944.83
573.772	35321.66
573.971	34920.26
574.169	34848.58
574.367	34707.27
574.565	35221.31
574.763	34637.64
574.962	34293.58
575.16	34516.81
575.358	34621.25
575.556	34232.14
575.754	34459.46
575.952	33886.03
576.151	34385.74
576.349	33619.8
576.547	34121.55
576.745	33785.68
576.943	33429.34
577.141	33773.39
577.339	33898.32
577.537	33638.23
577.735	33503.06
577.933	33402.71
578.131	33312.6
578.329	32952.16
578.527	33044.32
578.725	32808.8
578.923	32755.55
579.121	32915.3
579.319	32755.55
579.516	32860
579.714	32882.53
579.912	32530.28
580.11	32700.26
580.308	32669.54
580.506	32399.21
580.704	31731.57
580.901	32206.7
581.099	32143.21
581.297	31807.34
581.495	32087.92
581.692	31909.74
581.89	31860.59
582.088	32206.7
582.285	31598.45
582.483	31858.54
582.681	31893.36
582.878	31317.88
583.076	31188.86
583.274	31735.67
583.471	31074.17
583.669	30871.42
583.866	30699.39
584.064	31227.77
584.262	30388.1
584.459	30934.91
584.657	30726.02
584.854	30656.39
585.052	30111.63
585.249	30611.33
585.447	30287.75
585.644	29888.4
585.841	30609.28
586.039	30470.02
586.236	29577.11
586.434	30001.04
586.631	30130.06
586.828	29812.62
587.026	29532.05
587.223	29470.61
587.42	29581.2
587.618	29480.85
587.815	29093.79
588.012	29388.69
588.21	28966.81
588.407	29292.44
588.604	29165.46
588.801	29013.91
588.999	28913.56
589.196	28721.06
589.393	28825.5
589.59	28630.94
589.787	28632.99
589.984	28479.39
590.182	28372.9
590.379	28399.52
590.576	28020.65
590.773	28372.9
590.97	28323.75
591.167	28288.93
591.364	27895.72
591.561	28049.32
591.758	27623.34
591.955	27611.06
592.152	27674.54
592.349	27615.15
592.546	27514.8
592.743	27422.64
592.94	26933.18
593.137	27310
593.334	27402.16
593.531	26980.28
593.727	27094.97
593.924	27365.3
594.121	26931.13
594.318	27117.5
594.515	26777.53
594.712	26857.4
594.908	26716.09
595.105	26722.24
595.302	26419.14
595.499	26628.03
595.696	26169.29
595.892	26109.89
596.089	26312.64
596.286	26161.09
596.482	26154.95
596.679	25896.91
596.876	25624.53
597.072	25526.22
597.269	25614.29
597.466	25610.19
597.662	25544.66
597.859	25266.13
598.055	25188.31
598.252	25249.75
598.448	25128.92
598.645	25186.26
598.841	25003.99
599.038	25333.71
599.234	25249.75
599.431	24651.74
599.627	24526.82
599.824	24690.65
600.02	24375.27
600.217	24723.42
600.413	24633.31
600.609	24291.3
600.806	24211.43
601.002	24266.72
601.198	24137.7
601.395	24043.49
601.591	23885.8
601.787	23920.62
601.984	23773.16
602.18	24045.54
602.376	23541.74
602.572	23373.81
602.769	23828.46
602.965	23322.61
603.161	23549.93
603.357	23441.39
603.553	23005.17
603.75	23160.82
603.946	23279.6
604.142	23220.21
604.338	22896.63
604.534	23304.18
604.73	22794.23
604.926	22908.92
605.122	22931.45
605.318	22702.07
605.514	22482.94
605.71	22624.25
605.906	22491.13
606.102	22460.41
606.298	22540.29
606.494	22425.6
606.69	22544.38
606.886	22513.66
607.082	21962.76
607.278	22345.73
607.474	21555.21
607.67	22099.97
607.866	21694.47
608.062	22081.54
608.257	21426.19
608.453	21657.61
608.649	21760.01
608.845	21866.5
609.041	21751.82
609.236	21915.65
609.432	21465.1
609.628	21344.27
609.824	21532.68
610.019	21561.36
610.215	21506.06
610.411	21463.05
610.606	20971.54
610.802	21280.78
610.998	21006.36
611.193	21219.35
611.389	21094.42
611.584	20924.44
611.78	21080.08
611.976	20926.49
612.171	20858.9
612.367	20998.16
612.562	20865.05
612.758	20621.34
612.953	20678.68
613.149	20953.11
613.344	20729.88
613.539	20977.69
613.735	20537.37
613.93	20500.51
614.126	20600.86
614.321	20811.8
614.517	20801.56
614.712	20328.48
614.907	20588.57
615.103	20553.76
615.298	20052
615.493	20525.08
615.688	19851.3
615.884	20463.65
616.079	20144.16
616.274	20506.65
616.47	19978.28
616.665	20201.51
616.86	19853.35
617.055	19922.98
617.25	20023.33
617.445	19988.52
617.641	19429.42
617.836	19820.58
618.031	19570.73
618.226	19777.58
618.421	19419.18
618.616	19757.1
618.811	19376.17
619.006	19777.58
619.201	18976.82
619.396	19421.23
619.591	18878.52
619.786	19324.97
619.981	18982.96
620.176	19140.66
620.371	18698.3
620.566	18815.03
620.761	18858.04
620.956	18841.65
621.151	18579.51
621.346	18829.37
621.541	18010.18
621.735	18341.95
621.93	18311.23
622.125	18395.2
622.32	17999.94
622.515	17782.85
622.709	17848.39
622.904	17963.08
623.099	17813.57
623.294	17793.09
623.488	17561.67
623.683	17502.28
623.878	17485.9
624.072	17234
624.267	17299.53
624.462	17324.11
624.656	16992.34
624.851	17168.46
625.046	16891.99
625.24	16726.1
625.435	16693.33
625.629	16549.98
625.824	16748.63
626.018	16552.02
626.213	16124
626.407	16427.1
626.602	16089.18
626.796	16236.64
626.991	16132.19
627.185	15722.6
627.38	15773.8
627.574	15781.99
627.768	15673.45
627.963	15620.2
628.157	15532.14
628.352	15386.73
628.546	15093.87
628.74	15474.79
628.935	15345.77
629.129	15274.09
629.323	15104.11
629.517	14805.11
629.712	14874.74
629.906	14837.87
630.1	14415.99
630.294	14583.93
630.489	14448.76
630.683	14518.39
630.877	14295.16
631.071	14200.96
631.265	14291.07
631.459	14211.2
631.653	14157.95
631.848	14018.69
632.042	13856.9
632.236	13772.93
632.43	13531.27
632.624	13805.7
632.818	13707.4
633.012	13625.48
633.206	13631.62
633.4	13666.44
633.594	13361.29
633.788	13377.67
633.982	13146.25
634.176	13201.55
634.369	13158.54
634.563	12994.7
634.757	12929.17
634.951	12968.08
635.145	12847.25
635.339	12910.74
635.533	12839.06
635.726	12560.53
635.92	12359.83
636.114	12466.33
636.308	12523.67
636.501	12544.15
636.695	12437.66
636.889	12368.02
637.083	12290.2
637.276	12189.85
637.47	12040.35
637.664	11896.99
637.857	12015.77
638.051	11896.99
638.244	11708.58
638.438	11899.04
638.632	11684
638.825	11673.76
639.019	11569.32
639.212	11471.01
639.406	11487.4
639.599	11350.18
639.793	11409.58
639.986	11053.23
640.18	11294.89
640.373	11186.35
640.567	11198.63
640.76	11120.81
640.954	11268.27
641.147	11010.22
641.34	10803.38
641.534	10834.1
641.727	10832.05
641.92	10801.33
642.114	10660.02
642.307	10545.33
642.5	10481.85
642.694	10363.06
642.887	10455.22
643.08	10537.14
643.273	10324.15
643.467	10256.57
643.66	10178.75
643.853	10193.08
644.046	10115.26
644.239	10074.3
644.432	9971.9
644.626	9816.26
644.819	9736.38
645.012	9892.03
645.205	9767.1
645.398	9808.06
645.591	9740.48
645.784	9566.4
645.977	9619.65
646.17	9535.68
646.363	9410.76
646.556	9261.26
646.749	9392.33
646.942	9322.7
647.135	9222.34
647.328	9017.55
647.521	9312.46
647.714	9185.48
647.907	8943.82
648.099	9144.52
648.292	8949.96
648.485	8874.19
648.678	8822.99
648.871	8636.63
649.064	8751.31
649.256	8866
649.449	8753.36
649.642	8800.46
649.835	8646.87
650.027	8464.6
650.22	8589.52
650.413	8540.37
650.605	8530.13
650.798	8538.32
650.991	8317.14
651.183	8442.07
651.376	8311
651.568	8091.87
651.761	8358.1
651.954	8200.41
652.146	8181.98
652.339	8315.09
652.531	8161.5
652.724	7915.74
652.916	7782.62
653.109	7977.18
653.301	7858.4
653.494	7971.04
653.686	7803.1
653.879	7893.21
654.071	7702.75
654.263	7635.17
654.456	7882.97
654.648	7694.56
654.84	7725.28
655.033	7520.48
655.225	7563.49
655.417	7346.41
655.61	7540.96
655.802	7616.74
655.994	7428.32
656.186	7375.08
656.379	7448.8
656.571	7246.05
656.763	7327.97
656.955	7196.9
657.148	7284.97
657.34	7393.51
657.532	6969.58
657.724	7078.12
657.916	7135.46
658.108	6924.52
658.3	6881.52
658.492	7049.45
658.684	6705.39
658.876	6717.68
659.068	6891.76
659.26	6596.85
659.452	6836.46
659.644	6699.25
659.836	6779.12
660.028	6791.41
660.22	6725.87
660.412	6736.11
660.604	6672.62
660.796	6568.18
660.988	6461.68
661.18	6492.4
661.372	6447.35
661.563	6369.52
661.755	6361.33
661.947	6344.95
662.139	6252.79
662.331	6281.46
662.522	6138.1
662.714	6308.09
662.906	6224.12
663.097	6203.64
663.289	6152.44
663.481	6246.65
663.673	6162.68
663.864	6047.99
664.056	6009.08
664.247	6127.86
664.439	5792
664.631	6080.76
664.822	5787.9
665.014	5835
665.205	5886.2
665.397	5968.12
665.588	5830.91
665.78	5859.58
665.971	5796.09
666.163	5871.87
666.354	5832.96
666.546	5576.96
666.737	5710.08
666.929	5640.45
667.12	5763.33
667.311	5687.55
667.503	5601.54
667.694	5710.08
667.885	5615.87
668.077	5771.52
668.268	5503.23
668.459	5609.73
668.651	5413.12
668.842	5587.2
669.033	5456.13
669.224	5386.5
669.416	5609.73
669.607	5351.68
669.798	5320.96
669.989	5509.38
670.18	5470.47
670.371	5339.4
670.563	5286.15
670.754	5374.21
670.945	5214.47
671.136	5507.33
671.327	5179.65
671.518	5144.84
671.709	5296.39
671.9	5179.65
672.091	5288.2
672.282	5286.15
672.473	5177.61
672.664	5181.7
672.855	5079.3
673.046	5228.81
673.237	5380.36
673.428	5153.03
673.619	5134.6
673.809	4913.42
674	5218.57
674.191	4964.62
674.382	5116.17
674.573	4909.32
674.764	5081.35
674.954	5191.94
675.145	4854.03
675.336	4915.47
675.527	5042.44
675.717	5189.89
675.908	5007.62
676.099	5021.96
676.289	4962.57
676.48	4921.61
676.671	4966.67
676.861	5013.77
677.052	5026.06
677.243	4966.67
677.433	4878.6
677.624	5028.1
677.814	4968.71
678.005	4970.76
678.195	4913.42
678.386	4858.12
678.576	4819.21
678.767	5001.48
678.957	4770.06
679.148	4995.34
679.338	4995.34
679.529	4917.51
679.719	4806.92
679.909	5052.68
680.1	4966.67
680.29	4892.94
680.481	5005.58
680.671	4894.99
680.861	4761.87
681.052	4880.65
681.242	4706.57
681.432	4942.09
681.622	4987.15
681.813	4794.64
682.003	4821.26
682.193	4825.36
682.383	4886.79
682.573	4823.31
682.764	4778.25
682.954	4847.88
683.144	4899.08
683.334	4962.57
683.524	4722.96
683.714	4733.2
683.904	4886.79
684.094	4866.32
684.284	4688.14
684.474	5038.34
684.664	4782.35
684.854	4751.63
685.044	4727.05
685.234	4745.48
685.424	4630.8
685.614	4630.8
685.804	4753.68
685.994	4686.09
686.184	4632.85
686.374	4569.36
686.564	4704.53
686.753	4573.46
686.943	4573.46
687.133	4520.21
687.323	4530.45
687.513	4598.03
687.702	4559.12
687.892	4415.76
688.082	4399.38
688.272	4325.65
688.461	4323.6
688.651	4534.54
688.841	4321.56
689.03	4313.36
689.22	4378.9
689.41	4428.05
689.599	4253.97
689.789	4278.55
689.979	4096.28
690.168	4229.4
690.358	4204.82
690.547	4165.91
690.737	4157.72
690.926	4153.62
691.116	4086.04
691.305	4014.36
691.495	4063.51
691.684	3936.54
691.874	4114.71
692.063	3954.97
692.252	4137.24
692.442	3868.95
692.631	3832.09
692.82	3936.54
693.01	3862.81
693.199	3825.95
693.388	3877.15
693.578	3694.88
693.767	3952.92
693.956	3930.39
694.146	3789.08
694.335	3698.97
694.524	3950.87
694.713	3780.89
694.902	3735.84
695.092	3707.16
695.281	3655.97
695.47	3815.71
695.659	3604.77
695.848	3672.35
696.037	3674.4
696.226	3707.16
696.415	3537.18
696.604	3797.28
696.793	3698.97
696.982	3553.57
697.171	3672.35
697.36	3668.25
697.549	3592.48
697.738	3596.57
697.927	3492.13
698.116	3653.92
698.305	3598.62
698.494	3455.26
698.683	3533.09
698.872	3555.62
699.061	3477.79
699.25	3528.99
699.438	3578.14
699.627	3524.9
699.816	3582.24
700.005	3410.21
700.193	3547.42
700.382	3467.55
700.571	3488.03
700.76	3561.76
700.948	3565.85
701.137	3602.72
701.326	3528.99
701.514	3404.07
701.703	3492.13
701.892	3285.28
702.08	3428.64
702.269	3451.17
702.457	3352.87
702.646	3512.61
702.834	3361.06
703.023	3438.88
703.212	3496.22
703.4	3522.85
703.589	3397.92
703.777	3592.48
703.965	3324.19
704.154	3440.93
704.342	3449.12
704.531	3430.69
704.719	3361.06
704.907	3379.49
705.096	3369.25
705.284	3397.92
705.472	3569.95
705.661	3434.78
705.849	3420.45
706.037	3617.05
706.226	3336.48
706.414	3490.08
706.602	3457.31
706.79	3424.55
706.979	3469.6
707.167	3483.94
707.355	3318.05
707.543	3561.76
707.731	3514.66
707.919	3563.81
708.107	3600.67
708.296	3574.05
708.484	3338.53
708.672	3481.89
708.86	3447.07
709.048	3451.17
709.236	3555.62
709.424	3492.13
709.612	3594.53
709.8	3473.7
709.988	3539.23
710.176	3524.9
710.364	3512.61
710.551	3414.31
710.739	3426.59
710.927	3459.36
711.115	3533.09
711.303	3500.32
711.491	3414.31
711.679	3483.94
711.866	3565.85
712.054	3508.51
712.242	3473.7
712.43	3631.39
712.617	3635.49
712.805	3590.43
712.993	3602.72
713.181	3447.07
713.368	3598.62
713.556	3643.68
713.744	3600.67
713.931	3555.62
714.119	3533.09
714.306	3516.7
714.494	3572
714.682	3576.09
714.869	3592.48
715.057	3647.77
715.244	3592.48
715.432	3590.43
715.619	3584.29
715.807	3549.47
715.994	3485.98
716.182	3520.8
716.369	3569.95
716.556	3739.93
716.744	3537.18
716.931	3600.67
717.119	3758.36
717.306	3551.52
717.493	3617.05
717.681	3725.6
717.868	3688.73
718.055	3690.78
718.242	3744.03
718.43	3760.41
718.617	3576.09
718.804	3541.28
718.991	3748.12
719.179	3768.6
719.366	3696.92
719.553	3762.46
719.74	3690.78
719.927	3733.79
720.114	3625.25
720.301	3686.69
720.488	3578.14
720.676	3545.38
720.863	3770.65
721.05	3823.9
721.237	3797.28
721.424	3815.71
721.611	3735.84
721.798	3688.73
721.985	3842.33
722.172	3633.44
722.358	3748.12
722.545	3893.53
722.732	3713.31
722.919	3850.52
723.106	3766.56
723.293	3782.94
723.48	3901.72
723.667	3733.79
723.853	3846.43
724.04	3830.04
724.227	3887.39
724.414	3666.21
724.6	3768.6
724.787	3772.7
724.974	3776.8
725.161	3709.21
725.347	3787.04
725.534	3860.76
725.72	3850.52
725.907	3789.08
726.094	3787.04
726.28	3731.74
726.467	3838.23
726.653	3737.88
726.84	3830.04
727.027	3893.53
727.213	3909.91
727.4	3971.35
727.586	3969.3
727.773	3821.85
727.959	3836.19
728.145	3975.45
728.332	3766.56
728.518	3909.91
728.705	3954.97
728.891	3936.54
729.077	3850.52
729.264	3893.53
729.45	3821.85
729.636	3883.29
729.823	3721.5
730.009	3834.14
730.195	3930.39
730.382	3862.81
730.568	3860.76
730.754	3930.39
730.94	3914.01
731.126	3852.57
731.313	3875.1
731.499	3879.19
731.685	3983.64
731.871	3983.64
732.057	3772.7
732.243	3868.95
732.429	3948.83
732.615	3930.39
732.801	3959.06
732.987	3971.35
733.173	4034.84
733.359	3821.85
733.545	3789.08
733.731	3817.76
733.917	3969.3
734.103	3926.3
734.289	3860.76
734.475	3858.71
734.661	3918.11
734.847	3879.19
735.033	3862.81
735.219	3975.45
735.404	3868.95
735.59	3909.91
735.776	3903.77
735.962	4004.12
736.148	3993.88
736.333	3877.15
736.519	3932.44
736.705	3789.08
736.89	3914.01
737.076	3809.56
737.262	3889.43
737.447	3891.48
737.633	3879.19
737.819	3971.35
738.004	3827.99
738.19	3873.05
738.375	3819.8
738.561	3729.69
738.747	3678.49
738.932	3789.08
739.118	3936.54
739.303	3756.32
739.489	3842.33
739.674	3791.13
739.859	3754.27
740.045	3748.12
740.23	3680.54
740.416	3608.86
740.601	3698.97
740.786	3784.99
740.972	3617.05
741.157	3688.73
741.342	3574.05
741.528	3653.92
741.713	3651.87
741.898	3528.99
742.084	3637.53
742.269	3608.86
742.454	3567.9
742.639	3621.15
742.824	3602.72
743.01	3645.73
743.195	3563.81
743.38	3510.56
743.565	3623.2
743.75	3508.51
743.935	3473.7
744.12	3537.18
744.305	3559.71
744.49	3541.28
744.675	3313.95
744.86	3432.74
745.045	3475.74
745.23	3475.74
745.415	3330.34
745.6	3350.82
745.785	3240.23
745.97	3406.11
746.155	3356.96
746.34	3297.57
746.525	3225.89
746.71	3350.82
746.895	3143.97
747.079	3223.84
747.264	3246.37
747.449	3277.09
747.634	3184.93
747.819	3094.82
748.003	3092.77
748.188	3133.73
748.373	3119.4
748.557	3215.65
748.742	2986.28
748.927	3146.02
749.111	2920.74
749.296	3238.18
749.481	2992.42
749.665	2937.13
749.85	2988.33
750.034	3017
750.219	2904.36
750.404	2969.9
750.588	2930.98
750.773	2718
750.957	2906.41
751.141	2922.79
751.326	2713.9
751.51	2707.76
751.695	2781.48
751.879	2808.11
752.064	2826.54
752.248	2830.63
752.432	2816.3
752.617	2666.8
752.801	2732.33
752.985	2634.03
753.17	2640.17
753.354	2605.36
753.538	2566.45
753.722	2642.22
753.907	2603.31
754.091	2621.74
754.275	2525.49
754.459	2578.73
754.643	2568.49
754.828	2548.01
755.012	2464.05
755.196	2414.9
755.38	2363.7
755.564	2427.18
755.748	2322.74
755.932	2367.79
756.116	2355.51
756.3	2412.85
756.484	2242.87
756.668	2236.72
756.852	2203.96
757.036	2226.48
757.22	2265.39
757.404	2158.9
757.588	2296.11
757.772	2222.39
757.956	2177.33
758.14	2302.26
758.323	2074.93
758.507	2132.28
758.691	2201.91
758.875	2210.1
759.059	2154.8
759.242	2099.51
759.426	2015.54
759.61	2146.61
759.794	2038.07
759.977	2052.41
760.161	2117.94
760.345	1999.16
760.528	1958.2
760.712	1898.81
760.895	1894.71
761.079	1999.16
761.263	1847.61
761.446	1872.18
761.63	1882.42
761.813	1941.82
761.997	1839.42
762.18	1878.33
762.364	1909.05
762.547	1651
762.731	1898.81
762.914	1777.98
763.098	1814.84
763.281	1798.46
763.464	1786.17
763.648	1755.45
763.831	1816.89
764.015	1722.68
764.198	1730.87
764.381	1730.87
764.564	1698.11
764.748	1679.68
764.931	1761.59
765.114	1747.26
765.297	1757.5
765.481	1784.12
765.664	1755.45
765.847	1683.77
766.03	1782.07
766.213	1757.5
766.397	1603.9
766.58	1630.52
766.763	1657.15
766.946	1558.85
767.129	1640.76
767.312	1659.2
767.495	1601.85
767.678	1696.06
767.861	1642.81
768.044	1614.14
768.227	1601.85
768.41	1517.89
768.593	1569.09
768.776	1591.61
768.959	1509.69
769.142	1528.13
769.324	1534.27
769.507	1505.6
769.69	1487.17
769.873	1386.82
770.056	1564.99
770.239	1481.02
770.421	1548.61
770.604	1538.37
770.787	1507.65
770.97	1419.58
771.152	1478.97
771.335	1345.86
771.518	1556.8
771.7	1497.41
771.883	1460.54
772.066	1352
772.248	1405.25
772.431	1421.63
772.613	1454.4
772.796	1536.32
772.978	1358.14
773.161	1325.38
773.343	1292.61
773.526	1272.13
773.708	1276.23
773.891	1261.89
774.073	1276.23
774.256	1321.28
774.438	1329.47
774.621	1327.43
774.803	1249.6
774.985	1202.5
775.168	1265.99
775.35	1231.17
775.532	1243.46
775.715	1251.65
775.897	1251.65
776.079	1194.31
776.261	1194.31
776.444	1179.97
776.626	1155.4
776.808	1112.39
776.99	1139.01
777.173	1208.64
777.355	1100.1
777.537	1141.06
777.719	1243.46
777.901	1200.45
778.083	1026.37
778.265	1100.1
778.447	1073.48
778.629	1130.82
778.811	1143.11
778.993	1059.14
779.175	1077.57
779.357	1053
779.539	1001.8
779.721	1012.04
779.903	1053
780.085	1022.28
780.267	981.32
780.449	1018.18
780.631	1036.61
780.812	1096
780.994	1009.99
781.176	917.83
781.358	964.93
781.54	878.92
781.721	1003.85
781.903	977.22
782.085	921.93
782.267	923.98
782.448	850.25
782.63	870.73
782.812	866.63
782.993	878.92
783.175	915.78
783.357	825.67
783.538	958.79
783.72	837.96
783.901	862.54
784.083	909.64
784.264	837.96
784.446	811.34
784.627	862.54
784.809	856.39
784.99	799.05
785.172	792.91
785.353	813.38
785.535	817.48
785.716	776.52
785.897	678.22
786.079	772.43
786.26	766.28
786.441	717.13
786.623	760.14
786.804	792.91
786.985	774.47
787.167	745.8
787.348	739.66
787.529	651.6
787.71	784.71
787.891	665.93
788.073	725.32
788.254	690.51
788.435	735.56
788.616	686.41
788.797	614.73
788.978	665.93
789.159	616.78
789.34	700.75
789.522	657.74
789.703	518.48
789.884	741.71
790.065	624.97
790.246	700.75
790.427	633.16
790.607	690.51
790.788	672.08
790.969	639.31
791.15	674.12
791.331	633.16
791.512	667.98
791.693	559.44
791.874	545.1
792.054	624.97
792.235	643.4
792.416	647.5
792.597	584.01
792.778	612.68
792.958	659.79
793.139	557.39
793.32	524.62
793.5	592.2
793.681	555.34
793.862	557.39
794.042	547.15
794.223	487.76
794.404	457.04
794.584	479.57
794.765	559.44
794.945	600.4
795.126	426.32
795.306	530.77
795.487	520.53
795.667	551.24
795.848	534.86
796.028	559.44
796.209	485.71
796.389	493.9
796.57	469.33
796.75	446.8
796.93	510.29
797.111	469.33
797.291	518.48
797.471	491.85
797.652	430.41
797.832	383.31
798.012	481.61
798.192	428.37
798.373	495.95
798.553	461.13
798.733	454.99
798.913	381.26
799.093	387.41
799.274	448.85
799.454	493.9
799.634	395.6
799.814	397.65
799.994	389.46
800.174	426.32
800.354	414.03
800.534	422.22
800.714	381.26
800.894	411.98
801.074	426.32
801.254	420.17
801.434	414.03
801.614	356.69
801.794	430.41
801.974	1352
802.154	313.68
802.334	434.51
802.514	356.69
802.693	393.55
802.873	321.87
803.053	420.17
803.233	422.22
803.413	328.02
803.592	389.46
803.772	356.69
803.952	364.88
804.131	405.84
804.311	344.4
804.491	371.02
804.67	315.73
804.85	313.68
805.03	401.74
805.209	354.64
805.389	291.15
805.568	319.82
805.748	346.45
805.928	377.17
806.107	309.58
806.287	317.78
806.466	319.82
806.646	371.02
806.825	280.91
807.004	362.83
807.184	366.93
807.363	366.93
807.543	332.11
807.722	321.87
807.901	414.03
808.081	385.36
808.26	289.1
808.439	403.79
808.619	315.73
808.798	262.48
808.977	346.45
809.156	377.17
809.336	266.58
809.515	391.5
809.694	276.82
809.873	321.87
810.052	289.1
810.231	248.15
810.411	375.12
810.59	332.11
810.769	389.46
810.948	344.4
811.127	233.81
811.306	274.77
811.485	270.67
811.664	409.94
811.843	309.58
812.022	231.76
812.201	219.47
812.38	260.43
812.559	244.05
812.737	244.05
812.916	196.95
813.095	246.1
813.274	285.01
813.453	250.19
813.632	242
813.811	305.49
813.989	211.28
814.168	268.63
814.347	231.76
814.526	213.33
814.704	330.06
814.883	248.15
815.062	192.85
815.24	297.3
815.419	182.61
815.598	289.1
815.776	205.14
815.955	196.95
816.133	153.94
816.312	196.95
816.49	209.23
816.669	190.8
816.847	248.15
817.026	244.05
817.204	227.67
817.383	217.43
817.561	225.62
817.74	270.67
817.918	287.06
818.097	217.43
818.275	280.91
818.453	209.23
818.632	242
818.81	266.58
818.988	207.19
819.167	198.99
819.345	180.56
819.523	184.66
819.701	127.32
819.879	219.47
820.058	231.76
820.236	274.77
820.414	225.62
820.592	256.34
820.77	207.19
820.948	233.81
821.127	139.6
821.305	207.19
821.483	207.19
821.661	233.81
821.839	252.24
822.017	223.57
822.195	225.62
822.373	215.38
822.551	170.32
822.729	242
822.907	223.57
823.085	244.05
823.262	168.27
823.44	239.95
823.618	207.19
823.796	184.66
823.974	153.94
824.152	188.75
824.329	180.56
824.507	168.27
824.685	229.71
824.863	127.32
825.04	217.43
825.218	217.43
825.396	135.51
825.574	151.89
825.751	209.23
825.929	248.15
826.107	133.46
826.284	198.99
826.462	194.9
826.639	102.74
826.817	198.99
826.994	205.14
827.172	117.08
827.349	137.56
827.527	188.75
827.704	133.46
827.882	158.03
828.059	211.28
828.237	164.18
828.414	237.91
828.591	174.42
828.769	203.09
828.946	143.7
829.124	164.18
829.301	209.23
829.478	108.88
829.655	239.95
829.833	233.81
830.01	76.12
830.187	178.51
830.364	162.13
830.542	168.27
830.719	166.23
830.896	123.22
831.073	170.32
831.25	153.94
831.427	131.41
831.604	106.84
831.782	104.79
831.959	164.18
832.136	178.51
832.313	160.08
832.49	192.85
832.667	176.47
832.844	125.27
833.021	176.47
833.198	176.47
833.374	135.51
833.551	133.46
833.728	67.92
833.905	188.75
834.082	67.92
834.259	117.08
834.436	129.36
834.612	45.4
834.789	196.95
834.966	143.7
835.143	153.94
835.319	108.88
835.496	198.99
835.673	178.51
835.85	225.62
836.026	153.94
836.203	94.55
836.38	80.21
836.556	151.89
836.733	61.78
836.909	164.18
837.086	61.78
837.262	67.92
837.439	92.5
837.616	94.55
837.792	86.36
837.968	123.22
838.145	84.31
838.321	102.74
838.498	104.79
838.674	143.7
838.851	63.83
839.027	127.32
839.203	127.32
839.38	110.93
839.556	84.31
839.732	139.6
839.909	102.74
840.085	215.38
840.261	133.46
840.437	112.98
840.614	135.51
840.79	182.61
840.966	135.51
841.142	94.55
841.318	26.96
841.494	184.66
841.671	188.75
841.847	88.4
842.023	29.01
842.199	67.92
842.375	190.8
842.551	76.12
842.727	100.69
842.903	162.13
843.079	119.12
843.255	74.07
843.431	76.12
843.607	117.08
843.783	69.97
843.959	131.41
844.134	110.93
844.31	217.43
844.486	43.35
844.662	-28.33
844.838	88.4
845.013	112.98
845.189	69.97
845.365	153.94
845.541	51.54
845.716	102.74
845.892	84.31
846.068	67.92
846.244	80.21
846.419	145.75
846.595	67.92
846.77	69.97
846.946	160.08
847.122	26.96
847.297	37.2
847.473	203.09
847.648	63.83
847.824	131.41
847.999	80.21
848.175	29.01
848.35	78.16
848.526	125.27
848.701	149.84
848.876	145.75
849.052	166.23
849.227	51.54
849.403	100.69
849.578	110.93
849.753	67.92
849.929	86.36
850.104	20.82
850.279	94.55
850.454	78.16
850.63	53.59
850.805	72.02
850.98	59.73
851.155	76.12
851.33	133.46
851.505	2.39
851.681	168.27
851.856	96.6
852.031	117.08
852.206	115.03
852.381	78.16
852.556	29.01
852.731	55.64
852.906	153.94
853.081	129.36
853.256	92.5
853.431	14.68
853.606	31.06
853.781	61.78
853.956	-32.43
854.131	47.44
854.305	55.64
854.48	-22.19
854.655	39.25
854.83	104.79
855.005	18.77
855.18	108.88
855.354	98.64
855.529	69.97
855.704	35.16
855.879	112.98
856.053	10.58
856.228	10.58
856.403	24.92
856.577	43.35
856.752	-11.95
856.926	-13.99
857.101	57.68
857.276	76.12
857.45	76.12
857.625	96.6
857.799	57.68
857.974	53.59
858.148	29.01
858.323	63.83
858.497	63.83
858.672	29.01
858.846	22.87
859.02	180.56
859.195	49.49
859.369	84.31
859.543	2.39
859.718	59.73
859.892	110.93
860.066	117.08
860.241	53.59
860.415	69.97
860.589	84.31
860.763	10.58
860.938	61.78
861.112	39.25
861.286	162.13
861.46	108.88
861.634	61.78
861.808	53.59
861.982	4.44
862.157	-3.75
862.331	18.77
862.505	18.77
862.679	59.73
862.853	31.06
863.027	78.16
863.201	125.27
863.375	26.96
863.549	53.59
863.722	67.92
863.896	94.55
864.07	18.77
864.244	-40.62
864.418	37.2
864.592	53.59
864.766	69.97
864.939	8.53
865.113	-20.14
865.287	84.31
865.461	43.35
865.634	117.08
865.808	51.54
865.982	-3.75
866.156	53.59
866.329	-46.76
866.503	51.54
866.676	90.45
866.85	72.02
867.024	4.44
867.197	96.6
867.371	84.31
867.544	47.44
867.718	-54.95
867.891	57.68
868.065	6.49
868.238	55.64
868.412	110.93
868.585	80.21
868.759	-36.52
868.932	59.73
869.105	14.68
869.279	-57
869.452	-46.76
869.625	-7.85
869.799	-7.85
869.972	-18.09
870.145	-30.38
870.319	47.44
870.492	115.03
870.665	47.44
870.838	18.77
871.011	0.34
871.185	-16.04
871.358	-7.85
871.531	100.69
871.704	63.83
871.877	108.88
872.05	26.96
872.223	-22.19
872.396	14.68
872.569	123.22
872.742	-5.8
872.915	88.4
873.088	16.73
873.261	-63.15
873.434	90.45
873.607	100.69
873.78	18.77
873.953	31.06
874.126	4.44
874.299	26.96
874.471	112.98
874.644	82.26
874.817	82.26
874.99	69.97
875.163	-75.43
875.335	82.26
875.508	-16.04
875.681	45.4
875.853	20.82
876.026	-11.95
876.199	14.68
876.371	104.79
876.544	31.06
876.717	-20.14
876.889	-50.86
877.062	22.87
877.234	33.11
877.407	-50.86
877.579	80.21
877.752	47.44
877.924	65.88
878.097	98.64
878.269	61.78
878.442	47.44
878.614	92.5
878.786	26.96
878.959	67.92
879.131	131.41
879.303	-3.75
879.476	29.01
879.648	26.96
879.82	4.44
879.993	-11.95
880.165	14.68
880.337	-71.34
880.509	59.73
880.681	-38.57
880.854	-1.71
881.026	82.26
881.198	63.83
881.37	-32.43
881.542	-26.28
881.714	-36.52
881.886	-67.24
882.058	51.54
882.23	22.87
882.402	37.2
882.574	22.87
882.746	24.92
882.918	49.49
883.09	59.73
883.262	39.25
883.434	51.54
883.606	-28.33
883.778	80.21
883.95	92.5
884.122	-18.09
884.293	119.12
884.465	35.16
884.637	12.63
884.809	-5.8
884.98	59.73
885.152	18.77
885.324	59.73
885.496	-20.14
885.667	43.35
885.839	39.25
886.011	74.07
886.182	35.16
886.354	108.88
886.525	-5.8
886.697	65.88
886.869	51.54
887.04	26.96
887.212	112.98
887.383	63.83
887.555	80.21
887.726	-65.19
887.897	2.39
888.069	90.45
888.24	51.54
888.412	82.26
888.583	43.35
888.754	16.73
888.926	10.58
889.097	4.44
889.268	-44.71
889.44	57.68
889.611	-75.43
889.782	-18.09
889.953	65.88
890.125	88.4
890.296	29.01
890.467	-5.8
890.638	0.34
890.809	51.54
890.98	51.54
891.151	37.2
891.323	-1.71
891.494	20.82
891.665	22.87
891.836	-13.99
892.007	26.96
892.178	47.44
892.349	53.59
892.52	-13.99
892.691	47.44
892.862	65.88
893.032	2.39
893.203	53.59
893.374	2.39
893.545	82.26
893.716	20.82
893.887	37.2
894.057	6.49
894.228	-20.14
894.399	2.39
894.57	108.88
894.74	-9.9
894.911	57.68
895.082	-7.85
895.253	-11.95
895.423	22.87
895.594	104.79
895.764	-30.38
895.935	-7.85
896.106	-28.33
896.276	2.39
896.447	100.69
896.617	18.77
896.788	51.54
896.958	53.59
897.129	100.69
897.299	37.2
897.47	86.36
897.64	20.82
897.81	51.54
897.981	43.35
898.151	12.63
898.322	10.58
898.492	67.92
898.662	-71.34
898.832	69.97
899.003	6.49
899.173	39.25
899.343	10.58
899.513	-34.47
