Data from USB4F104151__86__13-06-19-877.txt Node

Date: Fri Mar 14 13:06:19 EDT 2025
User: louis
Spectrometer: USB4F10415
Trigger mode: 4
Integration Time (sec): 4.000000E-2
Scans to average: 1
Electric dark correction enabled: true
Nonlinearity correction enabled: false
Boxcar width: 0
XAxis mode: Wavelengths
Number of Pixels in Spectrum: 3648
>>>>>Begin Spectral Data<<<<<
178.204	-185
178.424	-185
178.644	-185
178.864	-211.62
179.084	-193.19
179.304	30.04
179.524	-31.4
179.744	-58.03
179.964	38.23
180.184	30.04
180.404	44.37
180.624	-51.88
180.844	58.71
181.064	-27.31
181.283	-15.02
181.503	-35.5
181.723	17.75
181.943	-53.93
182.163	64.85
182.383	13.65
182.602	34.13
182.822	77.14
183.042	21.85
183.262	-35.5
183.482	-19.11
183.701	32.08
183.921	56.66
184.141	-37.55
184.361	46.42
184.58	3.41
184.8	1.37
185.02	30.04
185.239	40.28
185.459	19.8
185.679	-6.83
185.898	-23.21
186.118	1.37
186.338	-8.87
186.557	-35.5
186.777	-45.74
186.997	-55.98
187.216	-55.98
187.436	11.61
187.655	64.85
187.875	111.96
188.095	-6.83
188.314	120.15
188.534	-0.68
188.753	34.13
188.973	5.46
189.192	42.32
189.412	-12.97
189.631	1.37
189.851	-12.97
190.07	103.76
190.29	40.28
190.509	83.28
190.729	73.04
190.948	-2.73
191.168	224.59
191.387	42.32
191.607	3.41
191.826	36.18
192.045	48.47
192.265	58.71
192.484	-8.87
192.704	21.85
192.923	-62.12
193.142	128.34
193.362	23.89
193.581	34.13
193.8	-6.83
194.02	111.96
194.239	-37.55
194.458	-8.87
194.678	38.23
194.897	1.37
195.116	25.94
195.335	15.7
195.555	13.65
195.774	13.65
195.993	42.32
196.212	83.28
196.432	-19.11
196.651	40.28
196.87	25.94
197.089	124.24
197.308	105.81
197.528	93.52
197.747	23.89
197.966	36.18
198.185	79.19
198.404	-58.03
198.623	9.56
198.842	36.18
199.062	75.09
199.281	62.8
199.5	-17.07
199.719	75.09
199.938	95.57
200.157	50.52
200.376	-2.73
200.595	46.42
200.814	-15.02
201.033	30.04
201.252	34.13
201.471	-35.5
201.69	101.72
201.909	17.75
202.128	44.37
202.347	30.04
202.566	30.04
202.785	36.18
203.004	-12.97
203.223	138.58
203.442	27.99
203.661	27.99
203.879	19.8
204.098	21.85
204.317	7.51
204.536	99.67
204.755	36.18
204.974	38.23
205.193	30.04
205.411	30.04
205.63	36.18
205.849	-2.73
206.068	19.8
206.287	-51.88
206.505	83.28
206.724	-31.4
206.943	23.89
207.162	23.89
207.381	81.24
207.599	1.37
207.818	1.37
208.037	-4.78
208.255	9.56
208.474	46.42
208.693	-37.55
208.911	25.94
209.13	-49.83
209.349	40.28
209.567	-6.83
209.786	107.86
210.005	27.99
210.223	48.47
210.442	-88.75
210.661	36.18
210.879	-17.07
211.098	85.33
211.316	17.75
211.535	-21.16
211.753	5.46
211.972	36.18
212.191	-31.4
212.409	-35.5
212.628	58.71
212.846	11.61
213.065	50.52
213.283	157.01
213.502	75.09
213.72	5.46
213.938	38.23
214.157	42.32
214.375	-39.59
214.594	-15.02
214.812	21.85
215.031	-4.78
215.249	21.85
215.467	-0.68
215.686	15.7
215.904	48.47
216.122	46.42
216.341	99.67
216.559	58.71
216.778	93.52
216.996	118.1
217.214	58.71
217.432	46.42
217.651	1.37
217.869	-51.88
218.087	50.52
218.306	-27.31
218.524	44.37
218.742	27.99
218.96	79.19
219.179	-6.83
219.397	5.46
219.615	68.95
219.833	54.61
220.051	9.56
220.27	62.8
220.488	-19.11
220.706	36.18
220.924	58.71
221.142	9.56
221.36	46.42
221.578	21.85
221.796	13.65
222.015	-10.92
222.233	-4.78
222.451	91.48
222.669	50.52
222.887	34.13
223.105	-23.21
223.323	56.66
223.541	1.37
223.759	75.09
223.977	38.23
224.195	99.67
224.413	27.99
224.631	32.08
224.849	23.89
225.067	114
225.285	-29.35
225.503	-90.79
225.721	-43.69
225.939	-23.21
226.157	-41.64
226.375	152.91
226.592	-29.35
226.81	1.37
227.028	91.48
227.246	52.56
227.464	27.99
227.682	42.32
227.9	71
228.117	-6.83
228.335	-6.83
228.553	44.37
228.771	77.14
228.989	62.8
229.206	17.75
229.424	-27.31
229.642	-41.64
229.86	21.85
230.077	83.28
230.295	7.51
230.513	58.71
230.731	42.32
230.948	91.48
231.166	68.95
231.384	25.94
231.601	3.41
231.819	89.43
232.037	48.47
232.254	-127.66
232.472	-29.35
232.689	77.14
232.907	-6.83
233.125	7.51
233.342	-8.87
233.56	46.42
233.777	-49.83
233.995	54.61
234.213	73.04
234.43	50.52
234.648	9.56
234.865	46.42
235.083	95.57
235.3	54.61
235.518	-15.02
235.735	85.33
235.953	58.71
236.17	56.66
236.388	9.56
236.605	107.86
236.822	68.95
237.04	-10.92
237.257	73.04
237.475	-15.02
237.692	-12.97
237.909	71
238.127	-0.68
238.344	32.08
238.562	68.95
238.779	13.65
238.996	-10.92
239.214	21.85
239.431	64.85
239.648	32.08
239.865	30.04
240.083	48.47
240.3	66.9
240.517	3.41
240.735	-15.02
240.952	68.95
241.169	62.8
241.386	48.47
241.603	25.94
241.821	-27.31
242.038	17.75
242.255	52.56
242.472	58.71
242.689	52.56
242.907	52.56
243.124	-0.68
243.341	27.99
243.558	-10.92
243.775	-27.31
243.992	11.61
244.209	9.56
244.426	130.39
244.643	-4.78
244.86	-23.21
245.078	-21.16
245.295	-19.11
245.512	-51.88
245.729	-15.02
245.946	-21.16
246.163	-4.78
246.38	58.71
246.597	114
246.814	27.99
247.031	25.94
247.248	-45.74
247.464	44.37
247.681	23.89
247.898	11.61
248.115	89.43
248.332	-111.27
248.549	62.8
248.766	58.71
248.983	118.1
249.2	85.33
249.417	116.05
249.633	-29.35
249.85	60.76
250.067	25.94
250.284	34.13
250.501	36.18
250.717	34.13
250.934	19.8
251.151	13.65
251.368	-31.4
251.585	-23.21
251.801	-6.83
252.018	-55.98
252.235	30.04
252.451	38.23
252.668	-90.79
252.885	-17.07
253.102	60.76
253.318	3.41
253.535	-6.83
253.752	-19.11
253.968	19.8
254.185	15.7
254.401	-23.21
254.618	38.23
254.835	1.37
255.051	83.28
255.268	81.24
255.484	-35.5
255.701	62.8
255.917	25.94
256.134	42.32
256.351	-58.03
256.567	5.46
256.784	9.56
257	17.75
257.217	-6.83
257.433	85.33
257.65	19.8
257.866	107.86
258.082	-17.07
258.299	17.75
258.515	1.37
258.732	-23.21
258.948	-37.55
259.165	-51.88
259.381	-10.92
259.597	-10.92
259.814	30.04
260.03	38.23
260.246	9.56
260.463	-2.73
260.679	21.85
260.895	3.41
261.112	87.38
261.328	34.13
261.544	-15.02
261.761	154.96
261.977	-64.17
262.193	-45.74
262.409	23.89
262.626	93.52
262.842	-31.4
263.058	44.37
263.274	81.24
263.49	91.48
263.707	52.56
263.923	75.09
264.139	30.04
264.355	19.8
264.571	23.89
264.787	30.04
265.004	144.72
265.22	52.56
265.436	68.95
265.652	-8.87
265.868	-25.26
266.084	-53.93
266.3	81.24
266.516	19.8
266.732	1.37
266.948	15.7
267.164	17.75
267.38	48.47
267.596	19.8
267.812	85.33
268.028	97.62
268.244	34.13
268.46	91.48
268.676	-35.5
268.892	-23.21
269.108	-4.78
269.324	-23.21
269.54	25.94
269.756	48.47
269.972	-45.74
270.188	27.99
270.403	-0.68
270.619	1.37
270.835	17.75
271.051	62.8
271.267	-2.73
271.483	-2.73
271.698	38.23
271.914	-27.31
272.13	-8.87
272.346	-6.83
272.562	34.13
272.777	103.76
272.993	-21.16
273.209	-4.78
273.425	50.52
273.64	13.65
273.856	58.71
274.072	7.51
274.287	-37.55
274.503	19.8
274.719	27.99
274.934	1.37
275.15	9.56
275.366	13.65
275.581	-8.87
275.797	-8.87
276.012	68.95
276.228	54.61
276.444	-31.4
276.659	105.81
276.875	-15.02
277.09	13.65
277.306	25.94
277.521	56.66
277.737	111.96
277.952	36.18
278.168	66.9
278.383	40.28
278.599	3.41
278.814	56.66
279.03	116.05
279.245	52.56
279.461	-72.36
279.676	71
279.892	-29.35
280.107	5.46
280.322	-47.79
280.538	-0.68
280.753	-6.83
280.969	19.8
281.184	-19.11
281.399	13.65
281.615	17.75
281.83	-35.5
282.045	-41.64
282.26	-29.35
282.476	23.89
282.691	38.23
282.906	111.96
283.122	-4.78
283.337	27.99
283.552	75.09
283.767	97.62
283.983	32.08
284.198	9.56
284.413	-10.92
284.628	38.23
284.843	62.8
285.058	140.63
285.274	3.41
285.489	-31.4
285.704	136.53
285.919	30.04
286.134	73.04
286.349	50.52
286.564	-10.92
286.779	58.71
286.995	-35.5
287.21	-29.35
287.425	91.48
287.64	-39.59
287.855	42.32
288.07	-129.7
288.285	5.46
288.5	103.76
288.715	73.04
288.93	23.89
289.145	-29.35
289.36	120.15
289.575	-15.02
289.79	46.42
290.004	-17.07
290.219	42.32
290.434	62.8
290.649	85.33
290.864	-15.02
291.079	17.75
291.294	40.28
291.509	71
291.724	48.47
291.938	30.04
292.153	1.37
292.368	-15.02
292.583	95.57
292.798	62.8
293.012	7.51
293.227	60.76
293.442	75.09
293.657	48.47
293.871	32.08
294.086	5.46
294.301	83.28
294.516	73.04
294.73	13.65
294.945	-12.97
295.16	34.13
295.374	-2.73
295.589	5.46
295.804	-51.88
296.018	15.7
296.233	109.91
296.447	9.56
296.662	-15.02
296.877	75.09
297.091	23.89
297.306	3.41
297.52	-19.11
297.735	105.81
297.949	-51.88
298.164	17.75
298.378	-66.22
298.593	-31.4
298.807	42.32
299.022	-12.97
299.236	103.76
299.451	3.41
299.665	11.61
299.88	-2.73
300.094	-4.78
300.309	50.52
300.523	5.46
300.737	-39.59
300.952	5.46
301.166	7.51
301.381	-53.93
301.595	19.8
301.809	52.56
302.024	-47.79
302.238	-17.07
302.452	58.71
302.667	34.13
302.881	140.63
303.095	15.7
303.309	34.13
303.524	13.65
303.738	95.57
303.952	-29.35
304.166	93.52
304.381	-68.27
304.595	25.94
304.809	46.42
305.023	85.33
305.237	-12.97
305.452	-10.92
305.666	52.56
305.88	68.95
306.094	3.41
306.308	27.99
306.522	60.76
306.736	34.13
306.95	5.46
307.164	23.89
307.379	50.52
307.593	138.58
307.807	75.09
308.021	-12.97
308.235	42.32
308.449	-15.02
308.663	-6.83
308.877	175.44
309.091	9.56
309.305	52.56
309.519	3.41
309.733	81.24
309.947	5.46
310.161	52.56
310.374	73.04
310.588	38.23
310.802	-29.35
311.016	54.61
311.23	50.52
311.444	3.41
311.658	25.94
311.872	66.9
312.085	159.06
312.299	101.72
312.513	114
312.727	-29.35
312.941	-60.07
313.154	60.76
313.368	-21.16
313.582	93.52
313.796	-25.26
314.009	9.56
314.223	1.37
314.437	9.56
314.651	99.67
314.864	17.75
315.078	-15.02
315.292	21.85
315.505	-6.83
315.719	25.94
315.933	-6.83
316.146	19.8
316.36	-4.78
316.573	34.13
316.787	-0.68
317.001	-29.35
317.214	-45.74
317.428	75.09
317.641	46.42
317.855	9.56
318.068	34.13
318.282	7.51
318.495	34.13
318.709	-39.59
318.922	21.85
319.136	83.28
319.349	116.05
319.563	30.04
319.776	73.04
319.99	-43.69
320.203	68.95
320.417	85.33
320.63	77.14
320.843	175.44
321.057	40.28
321.27	38.23
321.483	60.76
321.697	58.71
321.91	13.65
322.124	13.65
322.337	91.48
322.55	66.9
322.763	56.66
322.977	91.48
323.19	-27.31
323.403	-19.11
323.617	83.28
323.83	64.85
324.043	3.41
324.256	-33.45
324.469	-33.45
324.683	48.47
324.896	-41.64
325.109	85.33
325.322	-35.5
325.535	60.76
325.748	58.71
325.962	30.04
326.175	30.04
326.388	-2.73
326.601	116.05
326.814	15.7
327.027	1.37
327.24	71
327.453	-15.02
327.666	19.8
327.879	34.13
328.092	15.7
328.305	-25.26
328.518	-10.92
328.731	-31.4
328.944	56.66
329.157	54.61
329.37	-2.73
329.583	34.13
329.796	116.05
330.009	9.56
330.222	32.08
330.435	-29.35
330.648	11.61
330.861	-8.87
331.073	-17.07
331.286	66.9
331.499	32.08
331.712	42.32
331.925	-4.78
332.138	-6.83
332.35	126.29
332.563	36.18
332.776	52.56
332.989	9.56
333.202	30.04
333.414	-39.59
333.627	5.46
333.84	9.56
334.053	46.42
334.265	27.99
334.478	-21.16
334.691	5.46
334.903	77.14
335.116	23.89
335.329	-15.02
335.541	25.94
335.754	101.72
335.966	-2.73
336.179	83.28
336.392	-86.7
336.604	56.66
336.817	103.76
337.029	77.14
337.242	21.85
337.454	23.89
337.667	77.14
337.88	118.1
338.092	21.85
338.305	-2.73
338.517	-6.83
338.729	21.85
338.942	52.56
339.154	-21.16
339.367	5.46
339.579	-4.78
339.792	34.13
340.004	17.75
340.217	79.19
340.429	11.61
340.641	15.7
340.854	54.61
341.066	-15.02
341.278	99.67
341.491	1.37
341.703	68.95
341.915	23.89
342.128	66.9
342.34	15.7
342.552	-8.87
342.764	95.57
342.977	7.51
343.189	13.65
343.401	64.85
343.613	3.41
343.826	56.66
344.038	5.46
344.25	-12.97
344.462	-51.88
344.674	68.95
344.886	36.18
345.099	62.8
345.311	77.14
345.523	44.37
345.735	-80.55
345.947	38.23
346.159	58.71
346.371	44.37
346.583	-19.11
346.795	99.67
347.007	79.19
347.219	-0.68
347.431	-8.87
347.643	79.19
347.855	1.37
348.067	9.56
348.279	-4.78
348.491	42.32
348.703	34.13
348.915	46.42
349.127	3.41
349.339	-23.21
349.551	19.8
349.763	87.38
349.975	-0.68
350.187	99.67
350.399	23.89
350.61	50.52
350.822	25.94
351.034	-21.16
351.246	36.18
351.458	5.46
351.669	79.19
351.881	60.76
352.093	60.76
352.305	62.8
352.517	38.23
352.728	152.91
352.94	-23.21
353.152	58.71
353.363	-35.5
353.575	56.66
353.787	34.13
353.999	79.19
354.21	93.52
354.422	25.94
354.633	-4.78
354.845	62.8
355.057	32.08
355.268	19.8
355.48	60.76
355.692	34.13
355.903	-27.31
356.115	-2.73
356.326	11.61
356.538	89.43
356.749	87.38
356.961	159.06
357.172	-35.5
357.384	-29.35
357.595	132.44
357.807	17.75
358.018	5.46
358.23	-17.07
358.441	163.15
358.653	32.08
358.864	46.42
359.075	17.75
359.287	13.65
359.498	87.38
359.709	3.41
359.921	42.32
360.132	27.99
360.344	54.61
360.555	97.62
360.766	50.52
360.977	13.65
361.189	68.95
361.4	36.18
361.611	95.57
361.823	144.72
362.034	19.8
362.245	9.56
362.456	15.7
362.667	60.76
362.879	17.75
363.09	62.8
363.301	38.23
363.512	23.89
363.723	25.94
363.935	48.47
364.146	23.89
364.357	-41.64
364.568	75.09
364.779	38.23
364.99	87.38
365.201	-19.11
365.412	101.72
365.623	-4.78
365.834	27.99
366.045	77.14
366.256	36.18
366.467	-33.45
366.678	46.42
366.889	52.56
367.1	19.8
367.311	30.04
367.522	87.38
367.733	56.66
367.944	25.94
368.155	1.37
368.366	75.09
368.577	21.85
368.788	42.32
368.999	32.08
369.209	25.94
369.42	66.9
369.631	214.35
369.842	75.09
370.053	32.08
370.264	87.38
370.474	62.8
370.685	-6.83
370.896	9.56
371.107	66.9
371.317	54.61
371.528	-15.02
371.739	46.42
371.95	91.48
372.16	68.95
372.371	87.38
372.582	13.65
372.792	77.14
373.003	44.37
373.214	3.41
373.424	89.43
373.635	11.61
373.846	116.05
374.056	34.13
374.267	140.63
374.477	52.56
374.688	50.52
374.898	34.13
375.109	-0.68
375.319	124.24
375.53	107.86
375.74	58.71
375.951	-17.07
376.161	66.9
376.372	77.14
376.582	-31.4
376.793	48.47
377.003	62.8
377.214	21.85
377.424	93.52
377.635	64.85
377.845	-17.07
378.055	124.24
378.266	62.8
378.476	9.56
378.686	60.76
378.897	23.89
379.107	52.56
379.317	73.04
379.528	25.94
379.738	105.81
379.948	-4.78
380.158	11.61
380.369	68.95
380.579	75.09
380.789	38.23
380.999	93.52
381.21	15.7
381.42	68.95
381.63	-6.83
381.84	32.08
382.05	54.61
382.261	64.85
382.471	73.04
382.681	-31.4
382.891	66.9
383.101	62.8
383.311	-12.97
383.521	-19.11
383.731	140.63
383.941	-19.11
384.151	21.85
384.361	99.67
384.571	52.56
384.781	99.67
384.991	136.53
385.201	124.24
385.411	75.09
385.621	19.8
385.831	58.71
386.041	27.99
386.251	-25.26
386.461	50.52
386.671	44.37
386.881	95.57
387.091	-0.68
387.301	91.48
387.511	-25.26
387.72	77.14
387.93	58.71
388.14	-35.5
388.35	68.95
388.56	71
388.769	87.38
388.979	52.56
389.189	-45.74
389.399	83.28
389.609	56.66
389.818	89.43
390.028	21.85
390.238	34.13
390.447	-12.97
390.657	50.52
390.867	52.56
391.076	30.04
391.286	95.57
391.496	46.42
391.705	11.61
391.915	81.24
392.125	128.34
392.334	50.52
392.544	91.48
392.753	27.99
392.963	19.8
393.172	91.48
393.382	36.18
393.591	128.34
393.801	19.8
394.01	148.82
394.22	77.14
394.429	71
394.639	91.48
394.848	32.08
395.058	54.61
395.267	103.76
395.477	118.1
395.686	68.95
395.895	66.9
396.105	120.15
396.314	89.43
396.524	111.96
396.733	42.32
396.942	52.56
397.152	42.32
397.361	181.59
397.57	118.1
397.78	36.18
397.989	97.62
398.198	126.29
398.407	124.24
398.617	107.86
398.826	32.08
399.035	5.46
399.244	101.72
399.453	116.05
399.663	75.09
399.872	181.59
400.081	-17.07
400.29	116.05
400.499	97.62
400.708	140.63
400.917	79.19
401.127	95.57
401.336	73.04
401.545	126.29
401.754	114
401.963	134.48
402.172	93.52
402.381	91.48
402.59	68.95
402.799	101.72
403.008	116.05
403.217	107.86
403.426	157.01
403.635	38.23
403.844	189.78
404.053	206.16
404.262	95.57
404.471	240.98
404.68	134.48
404.888	81.24
405.097	124.24
405.306	89.43
405.515	169.3
405.724	144.72
405.933	183.63
406.142	200.02
406.35	228.69
406.559	183.63
406.768	132.44
406.977	275.79
407.185	210.26
407.394	245.07
407.603	202.07
407.812	243.03
408.02	189.78
408.229	251.22
408.438	183.63
408.646	157.01
408.855	288.08
409.064	296.27
409.272	234.83
409.481	230.74
409.69	298.32
409.898	122.2
410.107	286.03
410.315	365.9
410.524	292.18
410.733	306.51
410.941	236.88
411.15	339.28
411.358	333.14
411.567	482.64
411.775	429.39
411.984	386.38
412.192	443.73
412.401	400.72
412.609	525.65
412.818	517.45
413.026	451.92
413.234	554.32
413.443	490.83
413.651	570.7
413.86	505.17
414.068	662.86
414.276	683.34
414.485	585.04
414.693	605.52
414.901	634.19
415.11	626
415.318	693.58
415.526	716.11
415.734	755.02
415.943	791.88
416.151	779.59
416.359	830.79
416.567	826.7
416.776	871.75
416.984	910.66
417.192	957.77
417.4	918.86
417.608	800.07
417.817	982.34
418.025	1193.28
418.233	1129.8
418.441	1109.32
418.649	1181
418.857	1228.1
419.065	1242.43
419.273	1246.53
419.481	1336.64
419.689	1318.21
419.897	1393.98
420.105	1549.63
420.313	1428.8
420.521	1598.78
420.729	1494.33
420.937	1627.45
421.145	1692.99
421.353	1893.69
421.561	1862.97
421.769	2008.37
421.977	2032.95
422.185	1850.68
422.393	2110.77
422.601	2327.86
422.809	2198.84
423.017	2094.39
423.224	2436.4
423.432	2452.78
423.64	2522.41
423.848	2678.06
424.056	2630.96
424.263	2719.02
424.471	2839.85
424.679	2975.02
424.887	2962.73
425.094	3120.42
425.302	3218.72
425.51	3265.83
425.718	3403.04
425.925	3427.62
426.133	3581.21
426.341	3687.71
426.548	3974.42
426.756	3808.54
426.964	3935.51
427.171	4070.68
427.379	4205.85
427.586	4347.15
427.794	4490.51
428.001	4654.35
428.209	4949.26
428.417	4867.34
428.624	5129.48
428.832	5137.67
429.039	4959.5
429.247	5182.73
429.454	5604.61
429.662	6071.54
429.869	5612.8
430.076	5954.81
430.284	5633.28
430.491	6171.9
430.699	6356.21
430.906	6403.32
431.114	6513.91
431.321	6753.52
431.528	6878.44
431.736	7214.31
431.943	7550.18
432.15	7331.05
432.358	7472.36
432.565	7922.91
432.772	7822.56
432.979	8303.83
433.187	8439
433.394	8283.35
433.601	8985.8
433.808	9233.61
434.016	9116.87
434.223	9481.41
434.43	10095.8
434.637	9761.98
434.844	10388.66
435.052	10572.98
435.259	10413.24
435.466	10658.99
435.673	10583.22
435.88	11193.51
436.087	11883.68
436.294	11762.85
436.501	11539.62
436.708	11949.22
436.915	12166.3
437.122	12661.91
437.329	12848.27
437.537	13161.61
437.743	13388.94
437.95	13460.62
438.157	14199.93
438.364	14333.05
438.571	14222.46
438.778	14470.26
438.985	15903.84
439.192	15311.98
439.399	15754.34
439.606	15434.86
439.813	16282.72
440.02	17443.92
440.227	17048.66
440.433	16870.48
440.64	17167.44
440.847	17265.74
441.054	17802.31
441.261	18893.88
441.467	18738.23
441.674	19043.38
441.881	19725.35
442.088	19563.56
442.294	19559.47
442.501	19967.01
442.708	20390.94
442.914	21027.86
443.121	21978.12
443.328	21556.24
443.534	22989.81
443.741	22336.51
443.948	21922.82
444.154	23692.27
444.361	23712.75
444.568	23641.07
444.774	23888.87
444.981	23806.95
445.187	24957.91
445.394	25768.91
445.6	25457.62
445.807	27837.36
446.013	26768.32
446.22	27245.49
446.426	28330.92
446.633	28470.18
446.839	29639.57
447.046	28220.33
447.252	29768.59
447.459	30116.75
447.665	29764.5
447.871	30978.94
448.078	32539.49
448.284	31024
448.491	32025.45
448.697	33243.99
448.903	33649.49
449.11	33864.53
449.316	33274.71
449.522	33825.62
449.728	35216.19
449.935	35074.88
450.141	35169.08
450.347	35887.92
450.553	34788.16
450.76	35593.01
450.966	36457.26
451.172	35996.46
451.378	36844.32
451.584	36002.61
451.791	37184.29
451.997	36698.92
452.203	37724.95
452.409	38079.25
452.615	37772.05
452.821	36383.53
453.027	35963.7
453.233	37944.08
453.44	36442.92
453.646	36543.27
453.852	36946.72
454.058	37806.87
454.264	36367.15
454.47	37581.59
454.676	36344.62
454.882	37788.44
455.088	34327.37
455.294	35025.73
455.5	35328.83
455.705	35840.82
455.911	34331.47
456.117	33913.68
456.323	33211.23
456.529	31572.85
456.735	32791.39
456.941	32160.62
457.147	31689.59
457.352	30774.14
457.558	30286.73
457.764	30753.66
457.97	29957
458.176	29340.57
458.381	29272.98
458.587	28027.82
458.793	27706.29
458.999	26522.56
459.204	28625.82
459.41	27513.78
459.616	25877.45
459.821	25740.24
460.027	25838.54
460.233	25422.8
460.438	23790.57
460.644	23950.31
460.85	23106.55
461.055	22660.09
461.261	22469.63
461.466	21013.52
461.672	20227.1
461.878	21881.86
462.083	20284.45
462.289	19848.23
462.494	19858.47
462.7	18908.21
462.905	18166.85
463.111	19022.9
463.316	18969.65
463.522	18750.52
463.727	18670.65
463.932	18570.3
464.138	18170.94
464.343	18697.27
464.549	17873.99
464.754	18607.16
464.959	18537.53
465.165	18328.64
465.37	17525.83
465.575	16974.93
465.781	17667.14
465.986	17673.29
466.191	17163.34
466.397	16704.6
466.602	15932.51
466.807	16618.58
467.012	16653.4
467.218	16512.09
467.423	16409.69
467.628	16358.49
467.833	17114.19
468.038	16551
468.244	15975.52
468.449	16766.04
468.654	16018.53
468.859	16122.98
469.064	15604.84
469.269	15359.08
469.474	15447.15
469.679	15641.7
469.885	15238.25
470.09	15365.23
470.295	15101.04
470.5	15074.42
470.705	15031.41
470.91	14785.65
471.115	14875.76
471.32	15015.02
471.525	14539.9
471.73	14447.74
471.935	14337.15
472.139	13763.72
472.344	14048.38
472.549	13681.8
472.754	13681.8
472.959	13296.78
473.164	13245.58
473.369	12958.86
473.574	13866.11
473.778	13329.55
473.983	13178
474.188	13186.19
474.393	12502.17
474.598	12733.59
474.802	12799.12
475.007	12430.49
475.212	12590.23
475.417	12135.58
475.621	12108.96
475.826	11973.79
476.031	12070.05
476.235	11592.87
476.44	11998.37
476.645	11437.22
476.849	11873.44
477.054	11513
477.259	11269.29
477.463	11277.48
477.668	11076.78
477.872	11127.98
478.077	10765.49
478.282	10650.8
478.486	10671.28
478.691	10548.4
478.895	10699.95
479.1	10603.7
479.304	10685.62
479.509	10099.9
479.713	10486.97
479.918	10122.43
480.122	9839.81
480.326	10005.69
480.531	10104
480.735	10065.08
480.94	10118.33
481.144	10290.36
481.348	9583.81
481.553	9741.5
481.757	9624.77
481.961	9694.4
482.166	9979.07
482.37	9772.22
482.574	9573.57
482.778	9575.62
482.983	9985.21
483.187	9626.82
483.391	9749.7
483.595	9571.52
483.8	9544.9
484.004	9514.18
484.208	9766.08
484.412	9714.88
484.616	9753.79
484.821	9467.08
485.025	9544.9
485.229	9569.48
485.433	9632.96
485.637	9473.22
485.841	9518.28
486.045	9516.23
486.249	9745.6
486.453	9503.94
486.657	9536.71
486.861	9616.58
487.065	9348.29
487.269	9667.78
487.473	9530.56
487.677	9737.41
487.881	9792.7
488.085	9708.74
488.289	9723.07
488.493	9649.35
488.697	9725.12
488.901	9528.52
489.105	9721.02
489.309	9761.98
489.512	9837.76
489.716	9796.8
489.92	9471.17
490.124	9626.82
490.328	9960.64
490.531	9751.74
490.735	9825.47
490.939	10015.93
491.143	9909.44
491.346	9868.48
491.55	9972.93
491.754	10192.06
491.958	10181.82
492.161	10216.63
492.365	10218.68
492.569	10120.38
492.772	10089.66
492.976	10230.97
493.18	10278.07
493.383	10329.27
493.587	10431.67
493.79	10507.44
493.994	10366.14
494.197	10605.75
494.401	10595.51
494.605	10765.49
494.808	10871.98
495.012	10863.79
495.215	10998.96
495.419	10982.57
495.622	10914.99
495.825	11248.81
496.029	11283.63
496.232	11398.31
496.436	11295.91
496.639	11609.25
496.843	11715.75
497.046	11795.62
497.249	11875.49
497.453	11732.13
497.656	12004.51
497.859	12450.97
498.063	12352.66
498.266	12438.68
498.469	12139.68
498.673	12657.81
498.876	12731.54
499.079	12795.03
499.282	12842.13
499.485	13126.8
499.689	13216.91
499.892	13513.86
500.095	13468.81
500.298	13771.91
500.501	13765.76
500.705	13950.08
500.908	14304.38
501.111	14460.02
501.314	14646.39
501.517	14742.64
501.72	14906.48
501.923	14890.1
502.126	15148.14
502.329	15524.97
502.532	15352.94
502.735	15565.93
502.938	16004.19
503.141	15866.98
503.344	16323.68
503.547	16120.93
503.75	16579.67
503.953	16612.44
504.156	16917.59
504.359	16780.37
504.562	17108.05
504.765	17243.21
504.968	17755.21
505.17	17890.37
505.373	17839.17
505.576	18072.64
505.779	18236.48
505.982	18261.05
506.185	18631.74
506.387	18547.77
506.59	18897.97
506.793	19174.45
506.996	19199.02
507.198	19772.46
507.401	19842.09
507.604	19936.29
507.807	20446.24
508.009	20079.65
508.212	20560.92
508.415	20601.88
508.617	21169.17
508.82	21068.82
509.022	21222.42
509.225	21496.85
509.428	21742.6
509.63	21636.11
509.833	21918.73
510.035	22606.84
510.238	22264.83
510.44	22981.62
510.643	23079.93
510.845	23323.63
511.048	23127.03
511.25	23890.92
511.453	23905.26
511.655	24650.72
511.858	24366.05
512.06	24523.74
512.262	25064.41
512.465	24703.96
512.667	25592.78
512.87	25250.77
513.072	25707.47
513.274	26133.45
513.477	26241.99
513.679	26686.4
513.881	26893.24
514.084	26909.63
514.286	26911.67
514.488	27382.71
514.69	28025.77
514.893	28181.42
515.095	28189.61
515.297	28599.2
515.499	28734.37
515.701	28715.94
515.904	29277.08
516.106	29418.39
516.308	29461.4
516.51	30200.71
516.712	30387.08
516.914	30385.03
517.116	31019.9
517.318	30837.63
517.52	31236.98
517.722	31646.58
517.925	32052.08
518.127	32035.69
518.329	32394.09
518.531	32027.5
518.733	33112.92
518.935	33008.48
519.136	33211.23
519.338	33153.88
519.54	33518.42
519.742	34128.72
519.944	34321.23
520.146	34782.02
520.348	35134.27
520.55	34908.99
520.752	34931.52
520.954	35441.46
521.155	35486.52
521.357	36498.22
521.559	36309.8
521.761	36793.12
521.963	36569.9
522.164	37215.01
522.366	36975.39
522.568	37589.78
522.77	37767.96
522.971	38503.18
523.173	37651.22
523.375	38355.72
523.576	38785.8
523.778	38560.52
523.98	38912.77
524.181	39191.3
524.383	39590.65
524.584	39561.98
524.786	39572.22
524.988	39652.09
525.189	40020.72
525.391	40157.94
525.592	40835.81
525.794	40624.87
525.995	40727.27
526.197	41151.2
526.398	40973.03
526.6	41358.05
526.801	41478.88
527.003	42050.26
527.204	41589.47
527.406	41788.12
527.607	41796.31
527.808	41997.01
528.01	41786.07
528.211	41964.24
528.412	43383.49
528.614	42781.38
528.815	42871.5
529.016	43442.88
529.218	43188.93
529.419	43143.87
529.62	43074.24
529.822	43397.82
530.023	43082.44
530.224	43469.5
530.425	43649.72
530.626	43162.31
530.828	43356.86
531.029	43977.4
531.23	43727.55
531.431	43963.06
531.632	43879.1
531.833	44131
532.035	44313.27
532.236	43813.56
532.437	44061.36
532.638	43819.7
532.839	44212.91
533.04	44638.89
533.241	44208.82
533.442	44784.3
533.643	44434.1
533.844	44368.56
534.045	44864.17
534.246	44270.26
534.447	44544.69
534.648	44382.9
534.849	44724.91
535.05	44847.78
535.251	44741.29
535.451	44331.7
535.652	44915.37
535.853	44380.85
536.054	44903.08
536.255	44911.27
536.456	44366.51
536.657	45402.78
536.857	44593.84
537.058	44561.07
537.259	45001.38
537.46	44636.84
537.66	44792.49
537.861	44919.46
538.062	44681.9
538.263	44972.71
538.463	44800.68
538.664	44702.38
538.865	44774.06
539.065	45052.58
539.266	44894.89
539.466	44841.64
539.667	44255.92
539.868	44886.7
540.068	44950.18
540.269	44579.5
540.469	44798.63
540.67	44675.76
540.87	44663.47
541.071	44231.35
541.271	44724.91
541.472	44399.28
541.672	44298.93
541.873	44485.29
542.073	44315.31
542.274	45138.6
542.474	44640.94
542.675	44542.64
542.875	44665.52
543.075	44368.56
543.276	44116.66
543.476	45021.86
543.676	44159.67
543.877	44622.51
544.077	44700.33
544.277	43950.77
544.478	44667.56
544.678	44335.79
544.878	44446.38
545.078	44460.72
545.279	44243.63
545.479	43975.35
545.679	44399.28
545.879	44536.49
546.079	44479.15
546.28	44325.55
546.48	44210.87
546.68	44294.83
546.88	44417.71
547.08	44159.67
547.28	44364.46
547.48	43850.42
547.68	44178.1
547.88	43952.82
548.081	44184.24
548.281	43680.44
548.481	44112.56
548.681	44683.95
548.881	44354.22
549.081	44221.11
549.28	43881.14
549.48	44104.37
549.68	44237.49
549.88	44311.22
550.08	43940.53
550.28	44319.41
550.48	43786.94
550.68	44448.43
550.88	44182.2
551.08	43881.14
551.279	44556.97
551.479	43797.18
551.679	44317.36
551.879	44079.8
552.079	44178.1
552.278	43942.58
552.478	43766.46
552.678	43602.62
552.878	44153.52
553.077	44020.41
553.277	43778.75
553.477	44286.64
553.676	43700.92
553.876	43623.1
554.076	43602.62
554.275	43461.31
554.475	43209.41
554.674	43713.21
554.874	43582.14
555.074	43610.81
555.273	43565.76
555.473	43928.25
555.672	43664.06
555.872	43455.17
556.071	43659.96
556.271	43821.75
556.47	43363.01
556.67	43207.36
556.869	43389.63
557.068	43360.96
557.268	42959.56
557.467	42971.85
557.667	43092.68
557.866	42795.72
558.065	42963.65
558.265	42992.33
558.464	42918.6
558.663	43254.47
558.863	42623.69
559.062	43254.47
559.261	42517.2
559.461	43461.31
559.66	42455.76
559.859	42906.31
560.058	42369.74
560.258	42341.07
560.457	41976.53
560.656	42746.57
560.855	42621.64
561.054	42418.89
561.253	42369.74
561.453	41980.63
561.652	42173.14
561.851	42076.88
562.05	41933.53
562.249	41489.12
562.448	42156.75
562.647	41710.3
562.846	41530.08
563.045	41693.91
563.244	41343.71
563.443	41743.06
563.642	40952.55
563.841	41190.11
564.04	40823.53
564.239	41282.27
564.438	41138.91
564.637	41202.4
564.836	41177.82
565.035	40811.24
565.234	40764.14
565.432	40569.58
565.631	40602.35
565.83	41063.14
566.029	40461.04
566.228	40641.26
566.427	39914.23
566.625	40082.16
566.824	39770.87
567.023	40215.28
567.222	39389.95
567.42	39895.8
567.619	40125.17
567.818	39889.65
568.016	39469.82
568.215	39807.73
568.414	39136
568.612	39707.38
568.811	39064.32
569.01	39099.14
569.208	38955.78
569.407	39838.45
569.605	38634.25
569.804	39054.08
570.002	38617.86
570.201	39011.07
570.4	38466.31
570.598	38288.14
570.797	38099.73
570.995	38423.31
571.193	37841.68
571.392	38593.29
571.59	38302.48
571.789	38474.51
571.987	37964.56
572.186	37894.93
572.384	37542.68
572.582	37942.03
572.781	37880.6
572.979	37327.64
573.177	37645.08
573.376	37534.49
573.574	36926.24
573.772	37593.88
573.971	37317.4
574.169	36950.82
574.367	36889.38
574.565	37458.71
574.763	36795.17
574.962	36498.22
575.16	36539.18
575.358	36561.7
575.556	36272.94
575.754	36971.3
575.952	36129.58
576.151	36487.98
576.349	35902.26
576.547	36008.75
576.745	35658.55
576.943	35918.64
577.141	35873.59
577.339	35783.48
577.537	35670.84
577.735	35285.82
577.933	35177.28
578.131	35513.14
578.329	35138.37
578.527	34816.83
578.725	35023.68
578.923	35248.96
579.121	34784.07
579.319	34663.24
579.516	34872.13
579.714	34448.2
579.912	34468.68
580.11	34571.08
580.308	34245.45
580.506	34327.37
580.704	33708.88
580.901	34124.62
581.099	34448.2
581.297	33631.06
581.495	34069.33
581.692	34083.66
581.89	33409.88
582.088	33774.42
582.285	33839.95
582.483	33485.65
582.681	33307.48
582.878	32951.13
583.076	33157.98
583.274	33332.06
583.471	32922.46
583.669	32861.02
583.866	32793.44
584.064	32596.84
584.262	32355.18
584.459	32777.06
584.657	32320.36
584.854	32664.42
585.052	32097.13
585.249	32586.6
585.447	32416.61
585.644	31957.87
585.841	32103.28
586.039	32164.71
586.236	31560.56
586.434	31632.24
586.631	31943.53
586.828	31499.12
587.026	31523.7
587.223	31517.56
587.42	31347.57
587.618	31474.55
587.815	31150.97
588.012	31216.5
588.21	31001.47
588.407	31437.69
588.604	30702.46
588.801	30645.12
588.999	30417.8
589.196	30751.62
589.393	30524.29
589.59	30184.33
589.787	30362.5
589.984	30268.3
590.182	30172.04
590.379	29991.82
590.576	29989.77
590.773	29807.5
590.97	29805.45
591.167	29875.09
591.364	29473.68
591.561	29719.44
591.758	29195.16
591.955	29506.45
592.152	29592.47
592.349	29137.82
592.546	29281.17
592.743	29203.35
592.94	28552.1
593.137	28976.03
593.334	29180.82
593.531	28588.96
593.727	28793.76
593.924	28631.97
594.121	28115.88
594.318	28365.73
594.515	28068.78
594.712	28572.58
594.908	28177.32
595.105	27841.45
595.302	27990.95
595.499	28058.54
595.696	27904.94
595.892	27511.73
596.089	27564.98
596.286	27810.73
596.482	27192.25
596.679	27589.55
596.876	27329.46
597.072	27458.48
597.269	27300.79
597.466	26827.71
597.662	26872.76
597.859	26792.89
598.055	26760.12
598.252	26784.7
598.448	26512.32
598.645	26522.56
598.841	26391.49
599.038	26442.69
599.234	26590.14
599.431	26344.39
599.627	26010.57
599.824	26373.06
600.02	25676.75
600.217	26188.74
600.413	25902.03
600.609	25658.32
600.806	25992.14
601.002	25869.26
601.198	25379.79
601.395	25648.08
601.591	25365.46
601.787	25484.24
601.984	25312.21
602.18	24945.62
602.376	25129.94
602.572	24935.38
602.769	25318.35
602.965	24884.19
603.161	25074.65
603.357	24394.72
603.553	24658.91
603.75	24837.08
603.946	24593.37
604.142	24552.41
604.338	24249.32
604.534	24214.5
604.73	24257.51
604.926	24077.29
605.122	24159.2
605.318	24314.85
605.514	23802.86
605.71	23739.37
605.906	23710.7
606.102	23657.45
606.298	23679.98
606.494	23626.73
606.69	23696.36
606.886	23346.16
607.082	23286.77
607.278	23591.92
607.474	23186.42
607.67	23423.98
607.866	23174.13
608.062	23204.85
608.257	23155.7
608.453	23215.09
608.649	23440.37
608.845	22770.68
609.041	22830.07
609.236	23038.97
609.432	22733.82
609.628	23254
609.824	22643.71
610.019	22565.88
610.215	22651.9
610.411	22600.7
610.606	22815.74
610.802	22610.94
610.998	22201.35
611.193	22565.88
611.389	22434.81
611.584	22492.16
611.78	21941.25
611.976	22029.32
612.171	22338.56
612.367	22121.48
612.562	21963.78
612.758	21666.83
612.953	21758.99
613.149	21867.53
613.344	21650.44
613.539	22045.7
613.735	21666.83
613.93	21705.74
614.126	21632.01
614.321	21836.81
614.517	21830.66
614.712	21531.66
614.907	21363.73
615.103	21726.22
615.298	21449.74
615.493	21558.28
615.688	21007.38
615.884	21527.56
616.079	21025.81
616.274	21441.55
616.47	21091.35
616.665	21150.74
616.86	21189.65
617.055	20939.8
617.25	21267.47
617.445	21177.36
617.641	20864.02
617.836	20784.15
618.031	20335.65
618.226	20880.41
618.421	20687.9
618.616	20859.93
618.811	20456.48
619.006	20735
619.201	20116.51
619.396	20134.95
619.591	20050.98
619.786	20368.41
619.981	19807.27
620.176	19776.55
620.371	19729.45
620.566	20085.79
620.761	19856.42
620.956	19770.41
621.151	19477.55
621.346	19526.7
621.541	19346.48
621.735	19508.27
621.93	19162.16
622.125	19137.59
622.32	18811.96
622.515	19018.8
622.709	18859.06
622.904	18824.25
623.099	18576.44
623.294	18738.23
623.488	18353.21
623.683	18592.83
623.878	18232.38
624.072	18293.82
624.267	17951.81
624.462	18115.65
624.656	17917
624.851	18062.4
625.046	17773.64
625.24	17755.21
625.435	17695.82
625.629	17523.79
625.824	17247.31
626.018	17005.65
626.213	17071.18
626.407	17296.46
626.602	16991.31
626.796	17187.92
626.991	16780.37
627.185	16634.97
627.38	16657.5
627.574	16196.7
627.768	16323.68
627.963	16493.66
628.157	16344.16
628.352	16094.3
628.546	15991.91
628.74	16098.4
628.935	15807.59
629.129	16163.93
629.323	15580.26
629.517	15701.09
629.712	15606.89
629.906	15535.21
630.1	15406.19
630.294	15453.29
630.489	15498.34
630.683	15244.4
630.877	15139.95
631.071	15236.2
631.265	15111.28
631.459	14982.26
631.653	14890.1
631.848	15053.94
632.042	14775.41
632.236	14910.58
632.43	14636.15
632.624	14511.22
632.818	14240.89
633.012	14288
633.206	14095.49
633.4	14269.56
633.594	13980.8
633.788	14134.4
633.982	13948.03
634.176	14296.19
634.369	13788.29
634.563	13708.42
634.757	13794.43
634.951	13483.14
635.145	13538.44
635.339	13583.49
635.533	13589.64
635.726	13128.84
635.92	13212.81
636.114	13270.15
636.308	13018.25
636.501	13075.6
636.695	12942.48
636.889	12958.86
637.083	12758.16
637.276	12579.99
637.47	12911.76
637.664	12651.67
637.857	12524.69
638.051	12508.31
638.244	12510.36
638.438	12356.76
638.632	12485.78
638.825	12225.69
639.019	12371.1
639.212	12053.66
639.406	12104.86
639.599	11844.77
639.793	12160.16
639.986	11725.99
640.18	11775.14
640.373	11611.3
640.567	11725.99
640.76	11789.47
640.954	11615.4
641.147	11478.18
641.34	11353.26
641.534	11289.77
641.727	11173.03
641.92	11379.88
642.114	11226.28
642.307	11322.54
642.5	11187.37
642.694	10880.18
642.887	11041.96
643.08	11009.2
643.273	10810.54
643.467	10648.75
643.66	10800.3
643.853	10536.12
644.046	10560.69
644.239	10722.48
644.432	10269.88
644.626	10439.86
644.819	10296.5
645.012	10335.42
645.205	10321.08
645.398	10253.5
645.591	10241.21
645.784	10257.59
645.977	10036.41
646.17	10089.66
646.363	9940.16
646.556	9819.33
646.749	9868.48
646.942	9721.02
647.135	9757.89
647.328	9614.53
647.521	9635.01
647.714	9465.03
647.907	9514.18
648.099	9475.27
648.292	9555.14
648.485	9374.92
648.678	9405.64
648.871	9333.96
649.064	9286.86
649.256	9239.75
649.449	8948.94
649.642	8991.95
649.835	9034.96
650.027	9030.86
650.22	9118.92
650.413	8860.88
650.605	8903.89
650.798	8912.08
650.991	8674.51
651.183	8905.93
651.376	8674.51
651.568	8697.04
651.761	8400.09
651.954	8561.87
652.146	8555.73
652.339	8623.31
652.531	8471.76
652.724	8350.93
652.916	8266.97
653.109	8471.76
653.301	8309.97
653.494	8189.14
653.686	8035.55
653.879	8164.57
654.071	8193.24
654.263	7933.15
654.456	7988.44
654.648	8002.78
654.84	7931.1
655.033	7980.25
655.225	7857.37
655.417	7808.22
655.61	7853.28
655.802	7826.65
655.994	7718.11
656.186	7818.46
656.379	7709.92
656.571	7804.13
656.763	7589.09
656.955	7632.1
657.148	7439.59
657.34	7537.89
657.532	7365.86
657.724	7222.5
657.916	7445.73
658.108	7154.92
658.3	7179.5
658.492	7402.72
658.684	7081.19
658.876	7406.82
659.068	7109.86
659.26	7238.89
659.452	7066.86
659.644	7081.19
659.836	7062.76
660.028	6966.51
660.22	6847.72
660.412	6913.26
660.604	6767.85
660.796	6821.1
660.988	6798.57
661.18	6911.21
661.372	6642.93
661.563	6700.27
661.755	6700.27
661.947	6786.29
662.139	6628.59
662.331	6745.33
662.522	6311.16
662.714	6431.99
662.906	6403.32
663.097	6382.84
663.289	6251.77
663.481	6427.89
663.673	6468.85
663.864	6296.82
664.056	6210.81
664.247	6194.42
664.439	6212.85
664.631	6151.42
664.822	6223.09
665.014	5979.39
665.205	5934.33
665.397	6235.38
665.588	6075.64
665.78	5973.24
665.971	6114.55
666.163	6055.16
666.354	6024.44
666.546	5766.4
666.737	5893.37
666.929	5858.56
667.12	5817.6
667.311	5801.21
667.503	5766.4
667.694	5856.51
667.885	5713.15
668.077	5666.05
668.268	5719.29
668.459	5657.85
668.651	5651.71
668.842	5707.01
669.033	5793.02
669.224	5694.72
669.416	5752.06
669.607	5557.5
669.798	5508.35
669.989	5645.57
670.18	5668.09
670.371	5561.6
670.563	5418.24
670.754	5571.84
670.945	5475.59
671.136	5475.59
671.327	5430.53
671.518	5438.72
671.709	5324.04
671.9	5444.87
672.091	5330.18
672.282	5313.8
672.473	5219.59
672.664	5391.62
672.855	5098.76
673.046	5352.71
673.237	5369.09
673.428	5184.77
673.619	5317.89
673.809	5197.06
674	5190.92
674.191	5186.82
674.382	5184.77
674.573	5303.56
674.764	5254.41
674.954	5154.05
675.145	5223.69
675.336	5238.02
675.527	5254.41
675.717	5186.82
675.908	5166.34
676.099	5164.29
676.289	5098.76
676.48	4996.36
676.671	5178.63
676.861	5045.51
677.052	5078.28
677.243	5137.67
677.433	5188.87
677.624	5197.06
677.814	5088.52
678.005	5215.49
678.195	5248.26
678.386	4910.35
678.576	5025.03
678.767	5092.62
678.957	5012.74
679.148	5098.76
679.338	5035.27
679.529	5033.22
679.719	4982.03
679.909	5018.89
680.1	5092.62
680.29	5098.76
680.481	4887.82
680.671	5000.46
680.861	4992.27
681.052	4959.5
681.242	5031.18
681.432	5098.76
681.622	4904.2
681.813	5027.08
682.003	5037.32
682.193	4904.2
682.383	4846.86
682.573	4916.49
682.764	5109
682.954	4994.31
683.144	4979.98
683.334	4939.02
683.524	4889.87
683.714	4910.35
683.904	4822.28
684.094	5014.79
684.284	4975.88
684.474	4945.16
684.664	4848.91
684.854	4828.43
685.044	4730.13
685.234	4844.81
685.424	4810
685.614	4803.85
685.804	4953.35
685.994	4711.69
686.184	4859.15
686.374	4781.32
686.564	4656.4
686.753	4766.99
686.943	4744.46
687.133	4666.64
687.323	4855.05
687.513	4527.38
687.702	4656.4
687.892	4486.42
688.082	4517.14
688.272	4547.86
688.461	4580.62
688.651	4601.1
688.841	4519.18
689.03	4519.18
689.22	4457.75
689.41	4441.36
689.599	4363.54
689.789	4500.75
689.979	4414.74
690.168	4295.96
690.358	4203.8
690.547	4324.63
690.737	4277.52
690.926	4275.48
691.116	4089.11
691.305	4412.69
691.495	4093.21
691.684	4271.38
691.874	4179.22
692.063	4197.65
692.252	4093.21
692.442	4152.6
692.631	4005.14
692.82	4046.1
693.01	3947.8
693.199	3984.66
693.388	3902.75
693.578	3892.51
693.767	4103.45
693.956	4003.1
694.146	4007.19
694.335	4052.25
694.524	3917.08
694.713	4097.3
694.902	3773.72
695.092	3755.29
695.281	3910.94
695.47	3962.14
695.659	3968.28
695.848	3843.35
696.037	3792.16
696.226	3962.14
696.415	3708.19
696.604	3804.44
696.793	3722.52
696.982	3743
697.171	3882.27
697.36	3661.09
697.549	3714.33
697.738	3710.24
697.927	3646.75
698.116	3790.11
698.305	3691.81
698.494	3777.82
698.683	3636.51
698.872	3763.48
699.061	3673.37
699.25	3618.08
699.438	3620.13
699.627	3728.67
699.816	3714.33
700.005	3656.99
700.193	3757.34
700.382	3728.67
700.571	3609.89
700.76	3577.12
700.948	3804.44
701.137	3693.85
701.326	3589.41
701.514	3724.57
701.703	3585.31
701.892	3628.32
702.08	3634.46
702.269	3702.04
702.457	3613.98
702.646	3716.38
702.834	3691.81
703.023	3722.52
703.212	3683.61
703.4	3642.65
703.589	3507.49
703.777	3646.75
703.965	3618.08
704.154	3757.34
704.342	3622.17
704.531	3507.49
704.719	3579.17
704.907	3669.28
705.096	3599.65
705.284	3697.95
705.472	3642.65
705.661	3648.8
705.849	3669.28
706.037	3704.09
706.226	3556.64
706.414	3532.06
706.602	3714.33
706.79	3706.14
706.979	3679.52
707.167	3691.81
707.355	3622.17
707.543	3726.62
707.731	3716.38
707.919	3663.13
708.107	3693.85
708.296	3630.37
708.484	3646.75
708.672	3564.83
708.86	3667.23
709.048	3630.37
709.236	3650.85
709.424	3802.4
709.612	3700
709.8	3689.76
709.988	3663.13
710.176	3730.72
710.364	3820.83
710.551	3710.24
710.739	3693.85
710.927	3708.19
711.115	3667.23
711.303	3632.41
711.491	3702.04
711.679	3747.1
711.866	3665.18
712.054	3745.05
712.242	3925.27
712.43	3910.94
712.617	3845.4
712.805	3624.22
712.993	3671.33
713.181	3695.9
713.368	3783.96
713.556	3761.44
713.744	3763.48
713.931	3964.18
714.119	3638.56
714.306	3898.65
714.494	3790.11
714.682	3900.7
714.869	3765.53
715.057	3912.99
715.244	3806.49
715.432	3894.55
715.619	3734.81
715.807	3724.57
715.994	3810.59
716.182	3757.34
716.369	3771.68
716.556	3747.1
716.744	3808.54
716.931	3884.31
717.119	3917.08
717.306	3915.03
717.493	3796.25
717.681	3867.93
717.868	3908.89
718.055	3802.4
718.242	3896.6
718.43	3980.57
718.617	3915.03
718.804	4046.1
718.991	3933.47
719.179	3890.46
719.366	3990.81
719.553	4054.3
719.74	3937.56
719.927	4015.38
720.114	3859.74
720.301	3927.32
720.488	3806.49
720.676	3878.17
720.863	4103.45
721.05	4019.48
721.237	3888.41
721.424	3931.42
721.611	4064.54
721.798	3831.07
721.985	3943.71
722.172	3990.81
722.358	3953.94
722.545	3912.99
722.732	3880.22
722.919	4033.82
723.106	3802.4
723.293	4011.29
723.48	3937.56
723.667	4048.15
723.853	3960.09
724.04	4017.43
724.227	4146.45
724.414	4025.62
724.6	4031.77
724.787	4025.62
724.974	4091.16
725.161	3966.23
725.347	4068.63
725.534	3999
725.72	4068.63
725.907	4175.13
726.094	4064.54
726.28	4005.14
726.467	3999
726.653	3937.56
726.84	4152.6
727.027	4175.13
727.213	3925.27
727.4	4039.96
727.586	4001.05
727.773	4066.58
727.959	4066.58
728.145	3990.81
728.332	4140.31
728.518	3945.75
728.705	3951.9
728.891	4181.27
729.077	4175.13
729.264	4009.24
729.45	4099.35
729.636	4132.12
729.823	4080.92
730.009	4142.36
730.195	4099.35
730.382	4115.73
730.568	4119.83
730.754	4252.95
730.94	4046.1
731.126	4226.32
731.313	4132.12
731.499	3941.66
731.685	4062.49
731.871	3986.71
732.057	4082.97
732.243	4111.64
732.429	4070.68
732.615	4156.69
732.801	4117.78
732.987	4166.93
733.173	4019.48
733.359	4308.24
733.545	4052.25
733.731	4042.01
733.917	3978.52
734.103	4087.06
734.289	4121.88
734.475	4093.21
734.661	4244.76
734.847	4232.47
735.033	4183.32
735.219	4140.31
735.404	4056.34
735.59	4009.24
735.776	4001.05
735.962	4187.41
736.148	4003.1
736.333	4158.74
736.519	4082.97
736.705	4152.6
736.89	4048.15
737.076	3988.76
737.262	4064.54
737.447	4142.36
737.633	4005.14
737.819	4066.58
738.004	3874.07
738.19	4054.3
738.375	3937.56
738.561	4097.3
738.747	4115.73
738.932	3917.08
739.118	3937.56
739.303	4087.06
739.489	4031.77
739.674	3878.17
739.859	3820.83
740.045	4052.25
740.23	3804.44
740.416	3808.54
740.601	3896.6
740.786	3835.16
740.972	3833.11
741.157	3890.46
741.342	3730.72
741.528	3949.85
741.713	3796.25
741.898	3773.72
742.084	3761.44
742.269	3816.73
742.454	3829.02
742.639	3841.31
742.824	3648.8
743.01	3724.57
743.195	3794.2
743.38	3724.57
743.565	3669.28
743.75	3706.14
743.935	3562.78
744.12	3693.85
744.305	3697.95
744.49	3573.02
744.675	3591.45
744.86	3630.37
745.045	3671.33
745.23	3527.97
745.415	3575.07
745.6	3536.16
745.785	3484.96
745.97	3622.17
746.155	3542.3
746.34	3519.78
746.525	3427.62
746.71	3544.35
746.895	3441.95
747.079	3327.27
747.264	3474.72
747.449	3298.6
747.634	3386.66
747.819	3429.66
748.003	3208.48
748.188	3403.04
748.373	3181.86
748.557	3204.39
748.742	3259.68
748.927	3192.1
749.111	3249.44
749.296	3251.49
749.481	3165.48
749.665	3167.53
749.85	3011.88
750.034	3200.29
750.219	3030.31
750.404	2946.34
750.588	3020.07
750.773	2970.92
750.957	2962.73
751.141	3073.32
751.326	2927.91
751.51	2843.95
751.695	2827.56
751.879	2854.19
752.064	2991.4
752.248	2868.52
752.432	2848.04
752.617	2968.87
752.801	2798.89
752.985	2852.14
753.17	2768.17
753.354	2747.69
753.538	2866.47
753.722	2653.48
753.907	2649.39
754.091	2573.61
754.275	2665.77
754.459	2678.06
754.643	2561.33
754.828	2733.36
755.012	2420.02
755.196	2477.36
755.38	2508.08
755.564	2436.4
755.748	2516.27
755.932	2567.47
756.116	2460.98
756.3	2444.59
756.484	2327.86
756.668	2409.78
756.852	2458.93
757.036	2336.05
757.22	2284.85
757.404	2387.25
757.588	2379.06
757.772	2266.42
757.956	2194.74
758.14	2311.47
758.323	2239.8
758.507	2207.03
758.691	2211.12
758.875	2209.08
759.059	2116.92
759.242	2227.51
759.426	2125.11
759.61	2084.15
759.794	2123.06
759.977	2161.97
760.161	2168.12
760.345	2295.09
760.528	2090.29
760.712	2104.63
760.895	2075.96
761.079	2037.05
761.263	1951.03
761.446	1961.27
761.63	1946.94
761.813	1991.99
761.997	2020.66
762.18	1934.65
762.364	1910.07
762.547	1766.71
762.731	1893.69
762.914	1975.61
763.098	1926.46
763.281	1953.08
763.464	1867.06
763.648	1875.26
763.831	1908.02
764.015	1811.77
764.198	1801.53
764.381	1852.73
764.564	1729.85
764.748	1797.43
764.931	1875.26
765.114	1760.57
765.297	1918.26
765.481	1828.15
765.664	1666.36
765.847	1779
766.03	1842.49
766.213	1893.69
766.397	1723.71
766.58	1727.8
766.763	1770.81
766.946	1768.76
767.129	1727.8
767.312	1656.12
767.495	1746.23
767.678	1723.71
767.861	1754.43
768.044	1652.03
768.227	1664.32
768.41	1692.99
768.593	1609.02
768.776	1701.18
768.959	1531.2
769.142	1703.23
769.324	1647.93
769.507	1637.69
769.69	1625.4
769.873	1492.29
770.056	1735.99
770.239	1541.44
770.421	1641.79
770.604	1518.91
770.787	1731.9
770.97	1631.55
771.152	1504.57
771.335	1432.9
771.518	1428.8
771.7	1539.39
771.883	1588.54
772.066	1566.01
772.248	1398.08
772.431	1541.44
772.613	1436.99
772.796	1473.85
772.978	1461.57
773.161	1402.18
773.343	1385.79
773.526	1385.79
773.708	1273.15
773.891	1353.02
774.073	1346.88
774.256	1439.04
774.438	1353.02
774.621	1285.44
774.803	1344.83
774.985	1254.72
775.168	1320.26
775.35	1201.48
775.532	1422.66
775.715	1221.95
775.897	1283.39
776.079	1256.77
776.261	1262.91
776.444	1260.87
776.626	1181
776.808	1224
776.99	1133.89
777.173	1213.76
777.355	1158.47
777.537	1236.29
777.719	1133.89
777.901	1140.04
778.083	1123.65
778.265	1152.32
778.447	1137.99
778.629	1086.79
778.811	1199.43
778.993	1123.65
779.175	1101.12
779.357	1082.69
779.539	1019.21
779.721	1086.79
779.903	984.39
780.085	1092.93
780.267	1054.02
780.449	998.73
780.631	1002.82
780.812	1006.92
780.994	970.05
781.176	1070.4
781.358	900.42
781.54	998.73
781.721	992.58
781.903	959.81
782.085	869.7
782.267	918.86
782.448	963.91
782.63	912.71
782.812	935.24
782.993	939.33
783.175	937.29
783.357	968.01
783.538	879.94
783.72	931.14
783.901	795.98
784.083	873.8
784.264	914.76
784.446	806.22
784.627	820.55
784.809	834.89
784.99	877.9
785.172	832.84
785.353	830.79
785.535	824.65
785.716	787.79
785.897	761.16
786.079	738.63
786.26	828.74
786.441	781.64
786.623	738.63
786.804	675.15
786.985	787.79
787.167	771.4
787.348	699.72
787.529	746.83
787.71	718.15
787.891	777.55
788.073	591.18
788.254	695.63
788.435	795.98
788.616	714.06
788.797	646.48
788.978	564.56
789.159	593.23
789.34	648.52
789.522	646.48
789.703	681.29
789.884	740.68
790.065	679.24
790.246	738.63
790.427	648.52
790.607	689.48
790.788	736.59
790.969	589.13
791.15	582.99
791.331	556.36
791.512	617.8
791.693	533.84
791.874	603.47
792.054	681.29
792.235	550.22
792.416	576.84
792.597	507.21
792.778	566.6
792.958	638.28
793.139	542.03
793.32	634.19
793.5	550.22
793.681	660.81
793.862	568.65
794.042	492.88
794.223	490.83
794.404	570.7
794.584	468.3
794.765	539.98
794.945	472.4
795.126	519.5
795.306	464.21
795.487	517.45
795.667	525.65
795.848	429.39
796.028	474.45
796.209	558.41
796.389	529.74
796.57	535.89
796.75	380.24
796.93	517.45
797.111	437.58
797.291	478.54
797.471	478.54
797.652	587.08
797.832	554.32
798.012	515.41
798.192	451.92
798.373	468.3
798.553	451.92
798.733	435.53
798.913	312.66
799.093	496.97
799.274	482.64
799.454	527.69
799.634	415.06
799.814	408.91
799.994	419.15
800.174	367.95
800.354	456.01
800.534	378.19
800.714	365.9
800.894	390.48
801.074	398.67
801.254	349.52
801.434	488.78
801.614	413.01
801.794	339.28
801.974	1228.1
802.154	347.47
802.334	423.25
802.514	410.96
802.693	408.91
802.873	394.58
803.053	382.29
803.233	451.92
803.413	339.28
803.592	335.18
803.772	351.57
803.952	302.42
804.131	255.31
804.311	396.62
804.491	410.96
804.67	351.57
804.85	361.81
805.03	376.14
805.209	359.76
805.389	331.09
805.568	386.38
805.748	359.76
805.928	378.19
806.107	316.75
806.287	341.33
806.466	374.1
806.646	298.32
806.825	337.23
807.004	326.99
807.184	355.66
807.363	357.71
807.543	331.09
807.722	367.95
807.901	335.18
808.081	355.66
808.26	226.64
808.439	333.14
808.619	281.94
808.798	261.46
808.977	357.71
809.156	370
809.336	339.28
809.515	316.75
809.694	240.98
809.873	345.42
810.052	245.07
810.231	322.9
810.411	306.51
810.59	339.28
810.769	247.12
810.948	261.46
811.127	304.46
811.306	279.89
811.485	236.88
811.664	392.53
811.843	283.99
812.022	204.11
812.201	222.55
812.38	222.55
812.559	247.12
812.737	255.31
812.916	234.83
813.095	240.98
813.274	240.98
813.453	228.69
813.632	308.56
813.811	320.85
813.989	193.87
814.168	322.9
814.347	193.87
814.526	185.68
814.704	335.18
814.883	361.81
815.062	191.83
815.24	226.64
815.419	197.97
815.598	308.56
815.776	195.92
815.955	296.27
816.133	161.11
816.312	191.83
816.49	157.01
816.669	220.5
816.847	214.35
817.026	236.88
817.204	208.21
817.383	193.87
817.561	136.53
817.74	298.32
817.918	132.44
818.097	304.46
818.275	271.7
818.453	232.79
818.632	202.07
818.81	191.83
818.988	159.06
819.167	206.16
819.345	210.26
819.523	134.48
819.701	195.92
819.879	216.4
820.058	150.87
820.236	185.68
820.414	200.02
820.592	208.21
820.77	177.49
820.948	214.35
821.127	114
821.305	138.58
821.483	185.68
821.661	226.64
821.839	169.3
822.017	159.06
822.195	234.83
822.373	157.01
822.551	152.91
822.729	183.63
822.907	148.82
823.085	216.4
823.262	204.11
823.44	89.43
823.618	161.11
823.796	173.39
823.974	243.03
824.152	195.92
824.329	122.2
824.507	189.78
824.685	165.2
824.863	105.81
825.04	142.68
825.218	240.98
825.396	107.86
825.574	247.12
825.751	152.91
825.929	159.06
826.107	75.09
826.284	154.96
826.462	200.02
826.639	140.63
826.817	167.25
826.994	200.02
827.172	116.05
827.349	138.58
827.527	144.72
827.704	171.35
827.882	107.86
828.059	99.67
828.237	257.36
828.414	181.59
828.591	93.52
828.769	157.01
828.946	142.68
829.124	157.01
829.301	216.4
829.478	159.06
829.655	126.29
829.833	116.05
830.01	95.57
830.187	85.33
830.364	148.82
830.542	142.68
830.719	206.16
830.896	159.06
831.073	107.86
831.25	148.82
831.427	109.91
831.604	148.82
831.782	126.29
831.959	116.05
832.136	77.14
832.313	87.38
832.49	118.1
832.667	195.92
832.844	111.96
833.021	173.39
833.198	152.91
833.374	91.48
833.551	200.02
833.728	107.86
833.905	128.34
834.082	83.28
834.259	1.37
834.436	208.21
834.612	99.67
834.789	163.15
834.966	124.24
835.143	66.9
835.319	91.48
835.496	111.96
835.673	99.67
835.85	140.63
836.026	138.58
836.203	154.96
836.38	73.04
836.556	42.32
836.733	13.65
836.909	130.39
837.086	118.1
837.262	32.08
837.439	-10.92
837.616	30.04
837.792	58.71
837.968	165.2
838.145	101.72
838.321	32.08
838.498	85.33
838.674	124.24
838.851	128.34
839.027	111.96
839.203	116.05
839.38	120.15
839.556	38.23
839.732	140.63
839.909	27.99
840.085	122.2
840.261	91.48
840.437	107.86
840.614	91.48
840.79	126.29
840.966	161.11
841.142	107.86
841.318	132.44
841.494	107.86
841.671	48.47
841.847	44.37
842.023	87.38
842.199	126.29
842.375	169.3
842.551	17.75
842.727	42.32
842.903	144.72
843.079	13.65
843.255	105.81
843.431	58.71
843.607	27.99
843.783	-10.92
843.959	111.96
844.134	71
844.31	-4.78
844.486	64.85
844.662	25.94
844.838	52.56
845.013	109.91
845.189	122.2
845.365	71
845.541	52.56
845.716	58.71
845.892	136.53
846.068	56.66
846.244	7.51
846.419	124.24
846.595	42.32
846.77	17.75
846.946	154.96
847.122	11.61
847.297	68.95
847.473	48.47
847.648	-78.51
847.824	68.95
847.999	30.04
848.175	75.09
848.35	44.37
848.526	91.48
848.701	132.44
848.876	44.37
849.052	134.48
849.227	21.85
849.403	107.86
849.578	-6.83
849.753	85.33
849.929	152.91
850.104	9.56
850.279	79.19
850.454	34.13
850.63	5.46
850.805	81.24
850.98	36.18
851.155	60.76
851.33	42.32
851.505	-60.07
851.681	54.61
851.856	44.37
852.031	15.7
852.206	9.56
852.381	9.56
852.556	83.28
852.731	132.44
852.906	62.8
853.081	30.04
853.256	87.38
853.431	11.61
853.606	19.8
853.781	-19.11
853.956	54.61
854.131	95.57
854.305	-8.87
854.48	34.13
854.655	3.41
854.83	17.75
855.005	58.71
855.18	11.61
855.354	-35.5
855.529	-25.26
855.704	30.04
855.879	64.85
856.053	103.76
856.228	73.04
856.403	3.41
856.577	21.85
856.752	-4.78
856.926	42.32
857.101	-43.69
857.276	-27.31
857.45	60.76
857.625	75.09
857.799	134.48
857.974	5.46
858.148	83.28
858.323	116.05
858.497	5.46
858.672	27.99
858.846	34.13
859.02	77.14
859.195	-12.97
859.369	52.56
859.543	38.23
859.718	38.23
859.892	40.28
860.066	46.42
860.241	17.75
860.415	-17.07
860.589	7.51
860.763	99.67
860.938	17.75
861.112	17.75
861.286	-12.97
861.46	17.75
861.634	-47.79
861.808	52.56
861.982	75.09
862.157	64.85
862.331	32.08
862.505	-29.35
862.679	-12.97
862.853	-68.27
863.027	-37.55
863.201	83.28
863.375	-25.26
863.549	66.9
863.722	1.37
863.896	15.7
864.07	83.28
864.244	13.65
864.418	93.52
864.592	-17.07
864.766	75.09
864.939	46.42
865.113	-37.55
865.287	73.04
865.461	-23.21
865.634	-45.74
865.808	62.8
865.982	-64.17
866.156	-37.55
866.329	30.04
866.503	25.94
866.676	93.52
866.85	17.75
867.024	25.94
867.197	91.48
867.371	71
867.544	23.89
867.718	60.76
867.891	36.18
868.065	62.8
868.238	-10.92
868.412	77.14
868.585	21.85
868.759	21.85
868.932	-80.55
869.105	32.08
869.279	15.7
869.452	9.56
869.625	30.04
869.799	-72.36
869.972	-53.93
870.145	19.8
870.319	54.61
870.492	-21.16
870.665	-19.11
870.838	19.8
871.011	-64.17
871.185	-15.02
871.358	-74.41
871.531	54.61
871.704	-12.97
871.877	-64.17
872.05	32.08
872.223	-2.73
872.396	91.48
872.569	66.9
872.742	7.51
872.915	11.61
873.088	-2.73
873.261	62.8
873.434	19.8
873.607	-58.03
873.78	11.61
873.953	-43.69
874.126	9.56
874.299	79.19
874.471	66.9
874.644	9.56
874.817	9.56
874.99	134.48
875.163	-6.83
875.335	3.41
875.508	30.04
875.681	38.23
875.853	-62.12
876.026	-19.11
876.199	-4.78
876.371	-49.83
876.544	-23.21
876.717	-27.31
876.889	-68.27
877.062	34.13
877.234	21.85
877.407	-21.16
877.579	-82.6
877.752	40.28
877.924	34.13
878.097	93.52
878.269	36.18
878.442	73.04
878.614	3.41
878.786	-2.73
878.959	-6.83
879.131	62.8
879.303	23.89
879.476	27.99
879.648	50.52
879.82	3.41
879.993	-88.75
880.165	-19.11
880.337	-55.98
880.509	-49.83
880.681	-25.26
880.854	-8.87
881.026	-0.68
881.198	114
881.37	-29.35
881.542	54.61
881.714	-19.11
881.886	-35.5
882.058	-62.12
882.23	-4.78
882.402	9.56
882.574	-10.92
882.746	-0.68
882.918	58.71
883.09	-2.73
883.262	9.56
883.434	13.65
883.606	-2.73
883.778	-10.92
883.95	52.56
884.122	-31.4
884.293	71
884.465	87.38
884.637	50.52
884.809	-27.31
884.98	-23.21
885.152	36.18
885.324	36.18
885.496	-21.16
885.667	-10.92
885.839	5.46
886.011	83.28
886.182	5.46
886.354	75.09
886.525	19.8
886.697	-15.02
886.869	-49.83
887.04	-94.89
887.212	21.85
887.383	83.28
887.555	-0.68
887.726	-47.79
887.897	-55.98
888.069	1.37
888.24	-0.68
888.412	-31.4
888.583	-78.51
888.754	-15.02
888.926	-21.16
889.097	-19.11
889.268	1.37
889.44	68.95
889.611	-80.55
889.782	-25.26
889.953	-90.79
890.125	68.95
890.296	-76.46
890.467	-6.83
890.638	-4.78
890.809	-43.69
890.98	-31.4
891.151	99.67
891.323	64.85
891.494	27.99
891.665	34.13
891.836	-2.73
892.007	-80.55
892.178	-0.68
892.349	9.56
892.52	-51.88
892.691	36.18
892.862	9.56
893.032	11.61
893.203	-21.16
893.374	25.94
893.545	32.08
893.716	-35.5
893.887	1.37
894.057	-58.03
894.228	75.09
894.399	-39.59
894.57	3.41
894.74	13.65
894.911	66.9
895.082	50.52
895.253	-21.16
895.423	13.65
895.594	38.23
895.764	-33.45
895.935	-53.93
896.106	-12.97
896.276	-31.4
896.447	38.23
896.617	-111.27
896.788	-31.4
896.958	9.56
897.129	-23.21
897.299	-49.83
897.47	46.42
897.64	54.61
897.81	-29.35
897.981	-15.02
898.151	-35.5
898.322	3.41
898.492	27.99
898.662	-10.92
898.832	-51.88
899.003	-47.79
899.173	3.41
899.343	-6.83
899.513	-15.02
