Data from USB4F104151__68__13-05-57-960.txt Node

Date: Fri Mar 14 13:05:57 EDT 2025
User: louis
Spectrometer: USB4F10415
Trigger mode: 4
Integration Time (sec): 4.000000E-2
Scans to average: 1
Electric dark correction enabled: true
Nonlinearity correction enabled: false
Boxcar width: 0
XAxis mode: Wavelengths
Number of Pixels in Spectrum: 3648
>>>>>Begin Spectral Data<<<<<
178.204	-194.56
178.424	-194.56
178.644	-194.56
178.864	-192.51
179.084	-149.5
179.304	38.91
179.524	-6.14
179.744	2.05
179.964	53.25
180.184	59.39
180.404	-45.06
180.624	-40.96
180.844	6.14
181.064	-6.14
181.283	-57.34
181.503	-4.1
181.723	-0
181.943	-59.39
182.163	100.35
182.383	30.72
182.602	102.4
182.822	24.58
183.042	-2.05
183.262	36.86
183.482	73.73
183.701	18.43
183.921	26.62
184.141	-0
184.361	71.68
184.58	69.63
184.8	49.15
185.02	-28.67
185.239	71.68
185.459	30.72
185.679	94.21
185.898	22.53
186.118	147.45
186.338	81.92
186.557	32.77
186.777	-32.77
186.997	-26.62
187.216	-12.29
187.436	92.16
187.655	104.45
187.875	61.44
188.095	86.01
188.314	67.58
188.534	81.92
188.753	55.3
188.973	53.25
189.192	114.69
189.412	55.3
189.631	34.82
189.851	57.34
190.07	124.93
190.29	-2.05
190.509	-4.1
190.729	14.34
190.948	131.07
191.168	178.17
191.387	104.45
191.607	38.91
191.826	43.01
192.045	6.14
192.265	81.92
192.484	-22.53
192.704	10.24
192.923	8.19
193.142	161.79
193.362	36.86
193.581	63.49
193.8	122.88
194.02	75.77
194.239	26.62
194.458	32.77
194.678	83.97
194.897	38.91
195.116	73.73
195.335	79.87
195.555	88.06
195.774	43.01
195.993	55.3
196.212	55.3
196.432	55.3
196.651	12.29
196.87	75.77
197.089	116.73
197.308	53.25
197.528	106.49
197.747	-73.73
197.966	135.17
198.185	81.92
198.404	-8.19
198.623	-26.62
198.842	102.4
199.062	6.14
199.281	75.77
199.5	34.82
199.719	100.35
199.938	69.63
200.157	155.65
200.376	69.63
200.595	100.35
200.814	47.1
201.033	83.97
201.252	47.1
201.471	100.35
201.69	22.53
201.909	4.1
202.128	2.05
202.347	131.07
202.566	55.3
202.785	57.34
203.004	12.29
203.223	98.3
203.442	-2.05
203.661	49.15
203.879	63.49
204.098	96.25
204.317	83.97
204.536	110.59
204.755	57.34
204.974	10.24
205.193	57.34
205.411	79.87
205.63	79.87
205.849	59.39
206.068	32.77
206.287	45.06
206.505	-2.05
206.724	-57.34
206.943	-24.58
207.162	24.58
207.381	73.73
207.599	53.25
207.818	112.64
208.037	-0
208.255	57.34
208.474	28.67
208.693	40.96
208.911	57.34
209.13	-4.1
209.349	96.25
209.567	79.87
209.786	114.69
210.005	36.86
210.223	-8.19
210.442	-38.91
210.661	79.87
210.879	55.3
211.098	16.38
211.316	104.45
211.535	92.16
211.753	26.62
211.972	81.92
212.191	26.62
212.409	32.77
212.628	86.01
212.846	96.25
213.065	94.21
213.283	96.25
213.502	100.35
213.72	53.25
213.938	45.06
214.157	-32.77
214.375	83.97
214.594	38.91
214.812	12.29
215.031	32.77
215.249	-34.82
215.467	47.1
215.686	4.1
215.904	38.91
216.122	38.91
216.341	-0
216.559	67.58
216.778	67.58
216.996	45.06
217.214	83.97
217.432	-18.43
217.651	2.05
217.869	26.62
218.087	34.82
218.306	-0
218.524	30.72
218.742	53.25
218.96	53.25
219.179	24.58
219.397	75.77
219.615	120.83
219.833	83.97
220.051	94.21
220.27	114.69
220.488	129.02
220.706	65.53
220.924	40.96
221.142	51.2
221.36	65.53
221.578	30.72
221.796	-4.1
222.015	83.97
222.233	-26.62
222.451	73.73
222.669	49.15
222.887	67.58
223.105	86.01
223.323	67.58
223.541	22.53
223.759	98.3
223.977	51.2
224.195	137.21
224.413	88.06
224.631	63.49
224.849	139.26
225.067	83.97
225.285	67.58
225.503	10.24
225.721	-22.53
225.939	20.48
226.157	67.58
226.375	176.13
226.592	20.48
226.81	10.24
227.028	86.01
227.246	129.02
227.464	65.53
227.682	71.68
227.9	133.12
228.117	106.49
228.335	59.39
228.553	36.86
228.771	55.3
228.989	67.58
229.206	88.06
229.424	-57.34
229.642	47.1
229.86	-10.24
230.077	135.17
230.295	131.07
230.513	75.77
230.731	73.73
230.948	71.68
231.166	75.77
231.384	47.1
231.601	55.3
231.819	79.87
232.037	22.53
232.254	40.96
232.472	18.43
232.689	59.39
232.907	59.39
233.125	45.06
233.342	32.77
233.56	-14.34
233.777	-6.14
233.995	59.39
234.213	43.01
234.43	34.82
234.648	-10.24
234.865	83.97
235.083	155.65
235.3	120.83
235.518	14.34
235.735	110.59
235.953	43.01
236.17	36.86
236.388	49.15
236.605	47.1
236.822	184.32
237.04	22.53
237.257	73.73
237.475	-16.38
237.692	38.91
237.909	16.38
238.127	14.34
238.344	55.3
238.562	49.15
238.779	-32.77
238.996	59.39
239.214	71.68
239.431	-8.19
239.648	-34.82
239.865	20.48
240.083	112.64
240.3	16.38
240.517	-34.82
240.735	-10.24
240.952	65.53
241.169	61.44
241.386	28.67
241.603	24.58
241.821	-10.24
242.038	40.96
242.255	81.92
242.472	18.43
242.689	67.58
242.907	47.1
243.124	10.24
243.341	69.63
243.558	30.72
243.775	30.72
243.992	24.58
244.209	38.91
244.426	186.37
244.643	90.11
244.86	24.58
245.078	61.44
245.295	16.38
245.512	18.43
245.729	-18.43
245.946	22.53
246.163	61.44
246.38	-24.58
246.597	2.05
246.814	-10.24
247.031	4.1
247.248	63.49
247.464	16.38
247.681	83.97
247.898	79.87
248.115	94.21
248.332	20.48
248.549	47.1
248.766	139.26
248.983	118.78
249.2	59.39
249.417	79.87
249.633	28.67
249.85	81.92
250.067	38.91
250.284	63.49
250.501	73.73
250.717	36.86
250.934	-24.58
251.151	59.39
251.368	-0
251.585	-8.19
251.801	71.68
252.018	-26.62
252.235	96.25
252.451	-0
252.668	24.58
252.885	116.73
253.102	36.86
253.318	22.53
253.535	-16.38
253.752	51.2
253.968	63.49
254.185	-28.67
254.401	38.91
254.618	30.72
254.835	88.06
255.051	137.21
255.268	32.77
255.484	8.19
255.701	45.06
255.917	88.06
256.134	-34.82
256.351	30.72
256.567	-26.62
256.784	55.3
257	-8.19
257.217	98.3
257.433	20.48
257.65	45.06
257.866	102.4
258.082	43.01
258.299	116.73
258.515	32.77
258.732	-22.53
258.948	8.19
259.165	26.62
259.381	59.39
259.597	24.58
259.814	53.25
260.03	36.86
260.246	14.34
260.463	122.88
260.679	38.91
260.895	34.82
261.112	100.35
261.328	59.39
261.544	4.1
261.761	110.59
261.977	10.24
262.193	-8.19
262.409	116.73
262.626	71.68
262.842	8.19
263.058	81.92
263.274	129.02
263.49	86.01
263.707	102.4
263.923	67.58
264.139	24.58
264.355	90.11
264.571	100.35
264.787	20.48
265.004	104.45
265.22	40.96
265.436	49.15
265.652	22.53
265.868	59.39
266.084	51.2
266.3	65.53
266.516	-8.19
266.732	22.53
266.948	104.45
267.164	71.68
267.38	90.11
267.596	36.86
267.812	116.73
268.028	94.21
268.244	14.34
268.46	112.64
268.676	90.11
268.892	-2.05
269.108	6.14
269.324	32.77
269.54	-43.01
269.756	118.78
269.972	28.67
270.188	79.87
270.403	73.73
270.619	-28.67
270.835	-8.19
271.051	14.34
271.267	49.15
271.483	24.58
271.698	73.73
271.914	65.53
272.13	2.05
272.346	14.34
272.562	108.54
272.777	110.59
272.993	55.3
273.209	34.82
273.425	147.45
273.64	32.77
273.856	79.87
274.072	32.77
274.287	57.34
274.503	131.07
274.719	110.59
274.934	-4.1
275.15	24.58
275.366	-8.19
275.581	38.91
275.797	43.01
276.012	34.82
276.228	14.34
276.444	45.06
276.659	63.49
276.875	28.67
277.09	22.53
277.306	86.01
277.521	36.86
277.737	53.25
277.952	200.7
278.168	-0
278.383	51.2
278.599	47.1
278.814	73.73
279.03	-12.29
279.245	133.12
279.461	69.63
279.676	96.25
279.892	36.86
280.107	16.38
280.322	16.38
280.538	81.92
280.753	40.96
280.969	81.92
281.184	28.67
281.399	104.45
281.615	43.01
281.83	108.54
282.045	-20.48
282.26	26.62
282.476	59.39
282.691	116.73
282.906	43.01
283.122	8.19
283.337	6.14
283.552	38.91
283.767	79.87
283.983	8.19
284.198	79.87
284.413	110.59
284.628	-30.72
284.843	92.16
285.058	86.01
285.274	143.36
285.489	59.39
285.704	100.35
285.919	18.43
286.134	55.3
286.349	18.43
286.564	63.49
286.779	104.45
286.995	10.24
287.21	57.34
287.425	114.69
287.64	26.62
287.855	32.77
288.07	4.1
288.285	137.21
288.5	104.45
288.715	38.91
288.93	-2.05
289.145	14.34
289.36	102.4
289.575	49.15
289.79	61.44
290.004	43.01
290.219	110.59
290.434	86.01
290.649	24.58
290.864	-22.53
291.079	63.49
291.294	106.49
291.509	120.83
291.724	-8.19
291.938	-16.38
292.153	47.1
292.368	-2.05
292.583	-26.62
292.798	112.64
293.012	30.72
293.227	34.82
293.442	47.1
293.657	104.45
293.871	114.69
294.086	8.19
294.301	71.68
294.516	77.82
294.73	14.34
294.945	-90.11
295.16	73.73
295.374	143.36
295.589	122.88
295.804	51.2
296.018	118.78
296.233	77.82
296.447	38.91
296.662	79.87
296.877	83.97
297.091	69.63
297.306	-36.86
297.52	-4.1
297.735	49.15
297.949	32.77
298.164	71.68
298.378	100.35
298.593	34.82
298.807	-12.29
299.022	71.68
299.236	90.11
299.451	67.58
299.665	24.58
299.88	-0
300.094	137.21
300.309	24.58
300.523	63.49
300.737	38.91
300.952	65.53
301.166	40.96
301.381	49.15
301.595	18.43
301.809	34.82
302.024	139.26
302.238	28.67
302.452	122.88
302.667	38.91
302.881	71.68
303.095	83.97
303.309	40.96
303.524	30.72
303.738	6.14
303.952	55.3
304.166	47.1
304.381	-26.62
304.595	133.12
304.809	-36.86
305.023	106.49
305.237	110.59
305.452	75.77
305.666	137.21
305.88	-4.1
306.094	143.36
306.308	129.02
306.522	88.06
306.736	116.73
306.95	18.43
307.164	126.97
307.379	24.58
307.593	135.17
307.807	71.68
308.021	110.59
308.235	55.3
308.449	2.05
308.663	30.72
308.877	204.8
309.091	69.63
309.305	40.96
309.519	6.14
309.733	81.92
309.947	43.01
310.161	51.2
310.374	43.01
310.588	49.15
310.802	2.05
311.016	69.63
311.23	51.2
311.444	-18.43
311.658	34.82
311.872	79.87
312.085	79.87
312.299	47.1
312.513	120.83
312.727	30.72
312.941	-43.01
313.154	20.48
313.368	96.25
313.582	55.3
313.796	167.93
314.009	-16.38
314.223	-14.34
314.437	63.49
314.651	-20.48
314.864	49.15
315.078	55.3
315.292	88.06
315.505	34.82
315.719	118.78
315.933	96.25
316.146	61.44
316.36	24.58
316.573	88.06
316.787	55.3
317.001	110.59
317.214	83.97
317.428	47.1
317.641	6.14
317.855	96.25
318.068	-8.19
318.282	40.96
318.495	63.49
318.709	43.01
318.922	59.39
319.136	73.73
319.349	96.25
319.563	79.87
319.776	-12.29
319.99	47.1
320.203	106.49
320.417	26.62
320.63	28.67
320.843	133.12
321.057	40.96
321.27	38.91
321.483	92.16
321.697	102.4
321.91	63.49
322.124	-10.24
322.337	63.49
322.55	100.35
322.763	8.19
322.977	51.2
323.19	34.82
323.403	14.34
323.617	92.16
323.83	139.26
324.043	-47.1
324.256	24.58
324.469	-36.86
324.683	67.58
324.896	18.43
325.109	102.4
325.322	51.2
325.535	129.02
325.748	43.01
325.962	49.15
326.175	43.01
326.388	47.1
326.601	28.67
326.814	71.68
327.027	108.54
327.24	75.77
327.453	57.34
327.666	63.49
327.879	79.87
328.092	90.11
328.305	10.24
328.518	-0
328.731	69.63
328.944	155.65
329.157	63.49
329.37	18.43
329.583	141.31
329.796	167.93
330.009	36.86
330.222	75.77
330.435	49.15
330.648	98.3
330.861	43.01
331.073	90.11
331.286	120.83
331.499	81.92
331.712	108.54
331.925	88.06
332.138	110.59
332.35	69.63
332.563	47.1
332.776	149.5
332.989	-30.72
333.202	20.48
333.414	4.1
333.627	65.53
333.84	71.68
334.053	98.3
334.265	-8.19
334.478	75.77
334.691	2.05
334.903	71.68
335.116	14.34
335.329	59.39
335.541	124.93
335.754	139.26
335.966	120.83
336.179	94.21
336.392	24.58
336.604	20.48
336.817	83.97
337.029	65.53
337.242	112.64
337.454	38.91
337.667	102.4
337.88	83.97
338.092	116.73
338.305	118.78
338.517	67.58
338.729	124.93
338.942	59.39
339.154	10.24
339.367	16.38
339.579	69.63
339.792	59.39
340.004	65.53
340.217	18.43
340.429	120.83
340.641	77.82
340.854	20.48
341.066	57.34
341.278	63.49
341.491	139.26
341.703	81.92
341.915	30.72
342.128	143.36
342.34	14.34
342.552	43.01
342.764	106.49
342.977	65.53
343.189	90.11
343.401	88.06
343.613	12.29
343.826	65.53
344.038	4.1
344.25	73.73
344.462	129.02
344.674	34.82
344.886	94.21
345.099	116.73
345.311	100.35
345.523	63.49
345.735	26.62
345.947	100.35
346.159	49.15
346.371	63.49
346.583	79.87
346.795	202.75
347.007	73.73
347.219	28.67
347.431	43.01
347.643	104.45
347.855	-18.43
348.067	120.83
348.279	73.73
348.491	-26.62
348.703	65.53
348.915	65.53
349.127	28.67
349.339	83.97
349.551	65.53
349.763	86.01
349.975	104.45
350.187	81.92
350.399	147.45
350.61	131.07
350.822	59.39
351.034	143.36
351.246	43.01
351.458	8.19
351.669	49.15
351.881	122.88
352.093	122.88
352.305	147.45
352.517	55.3
352.728	106.49
352.94	69.63
353.152	149.5
353.363	67.58
353.575	8.19
353.787	180.22
353.999	55.3
354.21	120.83
354.422	38.91
354.633	28.67
354.845	73.73
355.057	79.87
355.268	18.43
355.48	79.87
355.692	26.62
355.903	106.49
356.115	36.86
356.326	24.58
356.538	169.98
356.749	98.3
356.961	129.02
357.172	-8.19
357.384	2.05
357.595	120.83
357.807	61.44
358.018	49.15
358.23	57.34
358.441	90.11
358.653	71.68
358.864	45.06
359.075	-4.1
359.287	63.49
359.498	124.93
359.709	32.77
359.921	120.83
360.132	79.87
360.344	169.98
360.555	90.11
360.766	86.01
360.977	77.82
361.189	176.13
361.4	51.2
361.611	96.25
361.823	106.49
362.034	137.21
362.245	86.01
362.456	63.49
362.667	108.54
362.879	79.87
363.09	63.49
363.301	79.87
363.512	145.41
363.723	69.63
363.935	-18.43
364.146	69.63
364.357	34.82
364.568	106.49
364.779	-18.43
364.99	67.58
365.201	75.77
365.412	122.88
365.623	-26.62
365.834	106.49
366.045	59.39
366.256	126.97
366.467	116.73
366.678	71.68
366.889	67.58
367.1	131.07
367.311	83.97
367.522	43.01
367.733	16.38
367.944	53.25
368.155	49.15
368.366	116.73
368.577	57.34
368.788	96.25
368.999	4.1
369.209	92.16
369.42	139.26
369.631	51.2
369.842	75.77
370.053	90.11
370.264	190.46
370.474	20.48
370.685	139.26
370.896	67.58
371.107	104.45
371.317	169.98
371.528	90.11
371.739	163.84
371.95	53.25
372.16	65.53
372.371	49.15
372.582	129.02
372.792	104.45
373.003	43.01
373.214	32.77
373.424	122.88
373.635	20.48
373.846	96.25
374.056	30.72
374.267	118.78
374.477	143.36
374.688	77.82
374.898	155.65
375.109	30.72
375.319	59.39
375.53	100.35
375.74	165.89
375.951	43.01
376.161	165.89
376.372	114.69
376.582	67.58
376.793	47.1
377.003	55.3
377.214	49.15
377.424	32.77
377.635	155.65
377.845	28.67
378.055	135.17
378.266	77.82
378.476	100.35
378.686	53.25
378.897	79.87
379.107	147.45
379.317	126.97
379.528	6.14
379.738	96.25
379.948	49.15
380.158	98.3
380.369	22.53
380.579	102.4
380.789	67.58
380.999	139.26
381.21	180.22
381.42	194.56
381.63	139.26
381.84	69.63
382.05	61.44
382.261	57.34
382.471	73.73
382.681	65.53
382.891	145.41
383.101	96.25
383.311	116.73
383.521	6.14
383.731	157.69
383.941	133.12
384.151	83.97
384.361	135.17
384.571	90.11
384.781	8.19
384.991	169.98
385.201	188.41
385.411	22.53
385.621	153.6
385.831	100.35
386.041	112.64
386.251	88.06
386.461	108.54
386.671	94.21
386.881	88.06
387.091	38.91
387.301	169.98
387.511	153.6
387.72	104.45
387.93	120.83
388.14	-18.43
388.35	120.83
388.56	182.27
388.769	165.89
388.979	100.35
389.189	86.01
389.399	118.78
389.609	126.97
389.818	143.36
390.028	153.6
390.238	116.73
390.447	155.65
390.657	81.92
390.867	36.86
391.076	26.62
391.286	79.87
391.496	96.25
391.705	129.02
391.915	178.17
392.125	51.2
392.334	155.65
392.544	100.35
392.753	196.6
392.963	106.49
393.172	163.84
393.382	30.72
393.591	73.73
393.801	120.83
394.01	243.71
394.22	133.12
394.429	77.82
394.639	73.73
394.848	188.41
395.058	126.97
395.267	47.1
395.477	143.36
395.686	96.25
395.895	215.04
396.105	157.69
396.314	139.26
396.524	155.65
396.733	124.93
396.942	120.83
397.152	178.17
397.361	69.63
397.57	139.26
397.78	53.25
397.989	167.93
398.198	237.56
398.407	131.07
398.617	108.54
398.826	118.78
399.035	57.34
399.244	227.32
399.453	145.41
399.663	184.32
399.872	215.04
400.081	172.03
400.29	196.6
400.499	145.41
400.708	237.56
400.917	190.46
401.127	155.65
401.336	129.02
401.545	215.04
401.754	151.55
401.963	153.6
402.172	149.5
402.381	143.36
402.59	182.27
402.799	221.18
403.008	194.56
403.217	178.17
403.426	243.71
403.635	157.69
403.844	161.79
404.053	141.31
404.262	219.13
404.471	241.66
404.68	196.6
404.888	182.27
405.097	174.08
405.306	212.99
405.515	247.8
405.724	122.88
405.933	227.32
406.142	282.62
406.35	237.56
406.559	210.94
406.768	237.56
406.977	292.86
407.185	364.54
407.394	253.95
407.603	284.67
407.812	374.78
408.02	344.06
408.229	421.88
408.438	380.92
408.646	260.09
408.855	288.76
409.064	309.24
409.272	346.11
409.481	407.55
409.69	421.88
409.898	346.11
410.107	514.04
410.315	487.42
410.524	487.42
410.733	473.08
410.941	462.84
411.15	509.94
411.358	505.85
411.567	610.29
411.775	593.91
411.984	464.89
412.192	614.39
412.401	532.47
412.609	679.93
412.818	735.22
413.026	681.97
413.234	753.65
413.443	749.56
413.651	733.17
413.86	841.72
414.068	874.48
414.276	851.95
414.485	858.1
414.693	903.15
414.901	964.59
415.11	892.91
415.318	884.72
415.526	997.36
415.734	1073.14
415.943	1142.77
416.151	1075.18
416.359	1144.81
416.567	1128.43
416.776	1267.69
416.984	1296.36
417.192	1427.43
417.4	1263.6
417.608	1331.18
417.817	1417.19
418.025	1439.72
418.233	1601.51
418.441	1454.06
418.649	1521.64
418.857	1742.82
419.065	1816.55
419.273	1710.05
419.481	1791.97
419.689	1943.52
419.897	2078.69
420.105	2131.94
420.313	2158.56
420.521	2242.53
420.729	2308.06
420.937	2287.58
421.145	2287.58
421.353	2553.82
421.561	2570.2
421.769	2693.08
421.977	2914.26
422.185	2752.47
422.393	2824.15
422.601	3168.21
422.809	3117.01
423.017	3131.34
423.224	3170.26
423.432	3336.14
423.64	3379.15
423.848	3835.85
424.056	3563.47
424.263	3749.83
424.471	3839.94
424.679	3966.92
424.887	4292.54
425.094	4308.93
425.302	4265.92
425.51	4462.52
425.718	4468.67
425.925	4681.66
426.133	4853.69
426.341	5142.45
426.548	5294
426.756	5259.18
426.964	5472.17
427.171	5769.13
427.379	5801.9
427.586	5945.25
427.794	6082.47
428.001	6180.77
428.209	6659.99
428.417	6655.9
428.624	7028.63
428.832	7114.64
429.039	7174.03
429.247	6981.53
429.454	7774.09
429.662	8247.17
429.869	7751.56
430.076	8140.68
430.284	7835.53
430.491	8310.66
430.699	8849.27
430.906	8974.2
431.114	8820.6
431.321	9273.2
431.528	9412.46
431.736	10051.43
431.943	10581.85
432.15	10131.3
432.358	10381.15
432.565	10932.06
432.772	10829.66
432.979	11491.15
433.187	11597.65
433.394	11691.85
433.601	12545.86
433.808	12539.71
434.016	12384.07
434.223	13072.18
434.43	13635.38
434.637	13322.04
434.844	14270.25
435.052	14440.23
435.259	14393.12
435.466	14700.32
435.673	14653.22
435.88	15589.14
436.087	16324.36
436.294	16318.22
436.501	15873.81
436.708	16215.82
436.915	16797.44
437.122	17485.56
437.329	17315.58
437.537	17919.73
437.743	18310.89
437.95	18587.36
438.157	19068.64
438.364	19736.27
438.571	19881.68
438.778	19885.78
438.985	21823.15
439.192	20815.55
439.399	21149.37
439.606	21046.97
439.813	22144.69
440.02	23631.51
440.227	23246.49
440.433	22970.02
440.64	23699.09
440.847	23426.71
441.054	24290.96
441.261	25826.93
441.467	25564.79
441.674	26089.07
441.881	26775.14
442.088	26936.93
442.294	26691.18
442.501	27362.91
442.708	27971.16
442.914	28882.5
443.121	30074.42
443.328	29668.92
443.534	31542.81
443.741	30418.48
443.948	30148.15
444.154	32306.71
444.361	32271.89
444.568	32450.06
444.774	32448.02
444.981	32851.47
445.187	33691.13
445.394	34962.92
445.6	34690.54
445.807	38051.26
446.013	36292.05
446.22	37045.71
446.426	38620.59
446.633	38512.05
446.839	39972.25
447.046	38602.16
447.252	40785.3
447.459	40854.93
447.665	40338.84
447.871	42161.53
448.078	44750.17
448.284	42071.42
448.491	42974.58
448.697	44479.83
448.903	45935.94
449.11	45667.66
449.316	44848.47
449.522	45665.61
449.728	47322.41
449.935	47523.11
450.141	47387.95
450.347	48577.82
450.553	47265.07
450.76	47701.29
450.966	49509.64
451.172	48819.48
451.378	49874.18
451.584	49102.1
451.791	50064.64
451.997	50162.95
452.203	50664.7
452.409	50980.09
452.615	50627.84
452.821	48934.17
453.027	48469.28
453.233	50650.36
453.44	48917.78
453.646	49245.46
453.852	49837.32
454.058	50285.82
454.264	49243.41
454.47	50046.21
454.676	49026.32
454.882	50920.69
455.088	46323.01
455.294	47101.23
455.5	47826.21
455.705	48432.41
455.911	46048.58
456.117	45550.92
456.323	44811.6
456.529	42966.38
456.735	44485.98
456.941	42902.9
457.147	42569.08
457.352	41303.43
457.558	40908.18
457.764	41074.06
457.97	40068.51
458.176	39519.65
458.381	39069.1
458.587	37238.22
458.793	37422.53
458.999	35528.16
459.204	38288.82
459.41	36707.79
459.616	34582
459.821	34653.68
460.027	34498.03
460.233	34016.76
460.438	32310.8
460.644	32478.74
460.85	31319.59
461.055	30699.05
461.261	30637.61
461.466	28302.93
461.672	27672.15
461.878	29353.54
462.083	27283.04
462.289	26531.44
462.494	26603.11
462.7	25419.39
462.905	24966.79
463.111	25826.93
463.316	25480.83
463.522	25005.7
463.727	25290.37
463.932	24958.6
464.138	24872.58
464.343	25212.54
464.549	24026.77
464.754	24913.54
464.959	24430.22
465.165	24444.56
465.37	23819.92
465.575	23187.1
465.781	23996.05
465.986	24202.89
466.191	23355.04
466.397	22695.59
466.602	21706.42
466.807	22585
467.012	22515.37
467.218	22523.56
467.423	22298.28
467.628	22314.67
467.833	22824.61
468.038	22142.64
468.244	21755.57
468.449	22707.88
468.654	21825.2
468.859	21919.41
469.064	21567.16
469.269	20528.84
469.474	20993.73
469.679	21335.74
469.885	20846.27
470.09	20913.86
470.295	20821.7
470.5	20389.58
470.705	20657.86
470.91	20066
471.115	20172.49
471.32	20092.62
471.525	20066
471.73	19390.17
471.935	19267.29
472.139	18790.11
472.344	18730.72
472.549	19050.21
472.754	18593.51
472.959	18380.52
473.164	17694.45
473.369	17794.8
473.574	18345.7
473.778	18181.87
473.983	18020.08
474.188	17823.47
474.393	17268.47
474.598	17258.23
474.802	16844.54
475.007	16766.72
475.212	16848.64
475.417	16398.09
475.621	16422.66
475.826	16531.2
476.031	16174.86
476.235	15744.78
476.44	16064.27
476.645	15675.15
476.849	15550.23
477.054	15204.12
477.259	15363.86
477.463	15120.15
477.668	15007.51
477.872	15152.92
478.077	14817.05
478.282	14159.66
478.486	14272.29
478.691	14167.85
478.895	14348.07
479.1	14165.8
479.304	14014.25
479.509	13602.61
479.713	13958.95
479.918	13776.69
480.122	13342.52
480.326	13686.58
480.531	13793.07
480.735	13526.83
480.94	13346.61
481.144	13721.39
481.348	12973.88
481.553	13360.95
481.757	12851
481.961	13410.1
482.166	13301.56
482.37	13322.04
482.574	12764.99
482.778	12752.7
482.983	13178.68
483.187	12992.31
483.391	13215.54
483.595	13023.03
483.8	12834.62
484.004	13115.19
484.208	13156.15
484.412	13016.89
484.616	13074.23
484.821	13008.7
485.025	12818.24
485.229	12959.55
485.433	12906.3
485.637	13066.04
485.841	13014.84
486.045	12920.63
486.249	13096.76
486.453	12640.06
486.657	12998.46
486.861	12908.35
487.065	12744.51
487.269	12969.79
487.473	12771.13
487.677	13276.98
487.881	13219.64
488.085	12777.28
488.289	13281.08
488.493	12851
488.697	13330.23
488.901	13168.44
489.105	13088.57
489.309	13266.74
489.512	13143.86
489.716	13166.39
489.92	13166.39
490.124	13027.13
490.328	13375.28
490.531	13287.22
490.735	13377.33
490.939	13424.44
491.143	13498.16
491.346	13436.72
491.55	13553.46
491.754	13633.33
491.958	13649.71
492.161	13600.56
492.365	13770.54
492.569	13786.93
492.772	13819.69
492.976	13954.86
493.18	13961
493.383	14178.09
493.587	14329.64
493.79	14171.94
493.994	13965.1
494.197	14092.07
494.401	14264.1
494.605	14429.99
494.808	14714.66
495.012	14470.95
495.215	14518.05
495.419	14991.13
495.622	14747.42
495.825	15173.4
496.029	14968.6
496.232	15236.89
496.436	15486.74
496.639	15798.03
496.843	15658.77
497.046	15949.58
497.249	16074.51
497.453	16232.2
497.656	16254.73
497.859	16328.45
498.063	16500.48
498.266	16834.3
498.469	16633.6
498.673	17026.81
498.876	17116.92
499.079	17377.01
499.282	17268.47
499.485	17911.53
499.689	18030.32
499.892	18038.51
500.095	18075.37
500.298	18671.33
500.501	18304.74
500.705	18767.59
500.908	19080.92
501.111	19543.77
501.314	19484.37
501.517	19726.03
501.72	19922.64
501.923	19934.93
502.126	20281.03
502.329	20604.61
502.532	20860.61
502.735	21051.07
502.938	21657.27
503.141	21063.36
503.344	21767.86
503.547	21571.25
503.75	22003.38
503.953	22515.37
504.156	22363.82
504.359	22750.88
504.562	22744.74
504.765	23307.93
504.968	23361.18
505.17	23873.17
505.373	23725.72
505.576	24295.05
505.779	24329.87
505.982	24723.08
506.185	25048.71
506.387	25144.96
506.59	25415.29
506.793	25796.21
506.996	25886.33
507.198	26338.93
507.401	26154.61
507.604	26685.03
507.807	26996.32
508.009	27330.14
508.212	27489.88
508.415	27756.12
508.617	28085.84
508.82	28110.42
509.022	28182.1
509.225	28880.46
509.428	28978.76
509.63	29367.87
509.833	29451.84
510.035	29883.96
510.238	30191.16
510.44	30451.25
510.643	30971.43
510.845	31053.35
511.048	30969.38
511.25	31329.83
511.453	31116.84
511.655	32501.26
511.858	32269.84
512.06	32560.66
512.262	33021.45
512.465	32968.2
512.667	33502.72
512.87	33877.5
513.072	33830.4
513.274	34571.76
513.477	34776.56
513.679	35003.88
513.881	35296.74
514.084	35767.77
514.286	35501.54
514.488	35814.88
514.69	36971.98
514.893	36502.99
515.095	36914.64
515.297	37395.91
515.499	37703.1
515.701	37924.29
515.904	38378.93
516.106	38679.99
516.308	38716.85
516.51	39646.63
516.712	38974.89
516.914	39630.24
517.116	40420.76
517.318	40105.37
517.52	40824.21
517.722	40942.99
517.925	41231.75
518.127	41702.79
518.329	41708.93
518.531	41571.72
518.733	42753.4
518.935	42726.77
519.136	43130.22
519.338	43480.42
519.54	44023.14
519.742	44240.22
519.944	44340.57
520.146	44914
520.348	45487.43
520.55	45053.26
520.752	45743.43
520.954	45997.38
521.155	46179.65
521.357	46990.64
521.559	47179.06
521.761	47318.32
521.963	47181.1
522.164	47639.85
522.366	47719.72
522.568	48379.17
522.77	48530.72
522.971	49138.96
523.173	48739.61
523.375	49382.67
523.576	49059.09
523.778	49270.03
523.98	49829.13
524.181	50146.56
524.383	50150.66
524.584	50783.48
524.786	50840.82
524.988	50455.81
525.189	51236.08
525.391	51750.12
525.592	52026.6
525.794	51731.69
525.995	52268.26
526.197	52212.96
526.398	52182.24
526.6	52235.49
526.801	52849.88
527.003	52720.86
527.204	53026.01
527.406	53345.49
527.607	53075.16
527.808	54060.23
528.01	53044.44
528.211	53540.05
528.412	54326.47
528.614	53972.17
528.815	54379.71
529.016	54471.87
529.218	54179.01
529.419	54715.58
529.62	54824.12
529.822	54625.47
530.023	54514.88
530.224	54899.9
530.425	54871.23
530.626	54406.34
530.828	54846.65
531.029	55872.68
531.23	54752.44
531.431	55086.26
531.632	55491.76
531.833	56100.01
532.035	55209.14
532.236	55403.7
532.437	55903.4
532.638	55217.33
532.839	55760.05
533.04	55794.86
533.241	55463.09
533.442	56458.4
533.643	55698.61
533.844	56108.2
534.045	55930.03
534.246	55467.19
534.447	56032.42
534.648	55647.41
534.849	55930.03
535.05	55307.44
535.251	55821.48
535.451	55585.97
535.652	56329.38
535.853	55608.5
536.054	55856.3
536.255	56485.03
536.456	55563.44
536.657	56145.06
536.857	55934.12
537.058	55747.76
537.259	56190.12
537.46	56214.69
537.66	55751.85
537.861	56095.91
538.062	56016.04
538.263	56294.56
538.463	55399.6
538.664	56136.87
538.865	56134.82
539.065	56521.89
539.266	55262.39
539.466	56388.77
539.667	55456.95
539.868	56409.25
540.068	55753.9
540.269	55682.22
540.469	56345.76
540.67	56089.77
540.87	55678.13
541.071	56036.52
541.271	55606.45
541.472	55893.16
541.672	55819.44
541.873	55340.21
542.073	55319.73
542.274	55901.35
542.474	55893.16
542.675	55538.86
542.875	56065.19
543.075	55571.63
543.276	54932.67
543.476	55647.41
543.676	55432.37
543.877	55792.81
544.077	55739.57
544.277	55420.08
544.478	55282.87
544.678	55817.39
544.878	55803.05
545.078	55512.24
545.279	55510.19
545.479	55303.35
545.679	55739.57
545.879	55596.21
546.079	54852.79
546.28	55116.98
546.48	55233.72
546.68	55547.06
546.88	55360.69
547.08	55018.68
547.28	55452.85
547.48	54750.4
547.68	55829.68
547.88	54936.76
548.081	55518.38
548.281	55481.52
548.481	54854.84
548.681	55522.48
548.881	55309.49
549.081	55413.94
549.28	54711.49
549.48	55260.34
549.68	55078.07
549.88	55571.63
550.08	54953.15
550.28	55184.57
550.48	54727.87
550.68	55717.04
550.88	54944.95
551.08	55223.48
551.279	55207.09
551.479	54592.7
551.679	55076.02
551.879	54684.86
552.079	55295.16
552.278	54746.3
552.478	55205.05
552.678	54924.47
552.878	55270.58
553.077	54539.46
553.277	54219.97
553.477	55184.57
553.676	54500.54
553.876	54648
554.076	54310.08
554.275	54533.31
554.475	53918.92
554.674	54469.82
554.874	54533.31
555.074	54260.93
555.273	54684.86
555.473	54768.83
555.672	54088.9
555.872	54125.77
556.071	54305.99
556.271	54469.82
556.47	54144.2
556.67	53368.02
556.869	53707.98
557.068	54348.99
557.268	54152.39
557.467	53976.26
557.667	53724.36
557.866	53898.44
558.065	53429.46
558.265	52942.04
558.464	53310.67
558.663	54187.21
558.863	53212.37
559.062	54019.27
559.261	53023.96
559.461	53675.21
559.66	52626.65
559.859	53644.49
560.058	52667.61
560.258	53038.29
560.457	52761.82
560.656	53218.52
560.855	52774.11
561.054	53210.32
561.253	52403.42
561.453	52714.72
561.652	52929.75
561.851	52827.35
562.05	52471.01
562.249	51961.06
562.448	52468.96
562.647	52139.24
562.846	52104.42
563.045	52487.39
563.244	51703.02
563.443	52384.99
563.642	51397.87
563.841	51823.85
564.04	51496.17
564.239	52251.87
564.438	51500.27
564.637	51186.93
564.836	51438.83
565.035	51102.96
565.234	51215.6
565.432	50654.46
565.631	50861.3
565.83	51645.68
566.029	50699.51
566.228	50687.23
566.427	50959.61
566.625	50361.6
566.824	50402.56
567.023	50662.65
567.222	49870.09
567.42	50722.04
567.619	50261.25
567.818	49888.52
568.016	49949.96
568.215	50162.95
568.414	50003.2
568.612	50089.22
568.811	49693.96
569.01	49786.12
569.208	48936.21
569.407	49829.13
569.605	48975.12
569.804	49636.62
570.002	49464.59
570.201	49243.41
570.4	49055
570.598	48880.92
570.797	48256.29
570.995	48993.56
571.193	48547.1
571.392	48790.81
571.59	48092.45
571.789	48475.42
571.987	47977.76
572.186	48061.73
572.384	47813.93
572.582	48338.21
572.781	47766.82
572.979	47385.9
573.177	47904.04
573.376	48131.36
573.574	47410.48
573.772	47394.09
573.971	47154.48
574.169	47303.98
574.367	46804.28
574.565	47019.31
574.763	46816.57
574.962	46986.55
575.16	46050.63
575.358	46951.73
575.556	46269.76
575.754	46562.62
575.952	45864.26
576.151	46351.68
576.349	45720.9
576.547	45667.66
576.745	45862.21
576.943	45995.33
577.141	45446.47
577.339	45352.27
577.537	45503.82
577.735	45270.35
577.933	44842.32
578.131	45665.61
578.329	45110.61
578.527	44811.6
578.725	44709.21
578.923	45122.9
579.121	44500.31
579.319	44629.33
579.516	44430.68
579.714	44442.97
579.912	44647.77
580.11	44270.94
580.308	44148.06
580.506	44111.2
580.704	43292.01
580.901	43963.75
581.099	44184.93
581.297	43349.35
581.495	43537.77
581.692	43451.75
581.89	43089.26
582.088	43378.03
582.285	43492.71
582.483	43244.91
582.681	42960.24
582.878	42845.55
583.076	42698.1
583.274	42747.25
583.471	42399.1
583.669	42161.53
583.866	42014.08
584.064	42370.43
584.262	41895.3
584.459	42122.62
584.657	42046.85
584.854	42057.09
585.052	41106.83
585.249	41923.97
585.447	41751.94
585.644	42048.89
585.841	41026.96
586.039	41457.03
586.236	40816.02
586.434	41024.91
586.631	40873.36
586.828	40519.06
587.026	41016.72
587.223	40531.35
587.42	40187.29
587.618	40248.73
587.815	39853.47
588.012	39650.72
588.21	39820.7
588.407	39806.37
588.604	39660.96
588.801	39490.98
588.999	39935.39
589.196	39515.56
589.393	39581.09
589.59	39220.65
589.787	39073.2
589.984	39189.93
590.182	38886.83
590.379	39153.07
590.576	38479.28
590.773	38907.31
590.97	38342.07
591.167	38569.4
591.364	38223.29
591.561	38403.51
591.758	38333.88
591.955	37957.05
592.152	38358.45
592.349	37578.18
592.546	37922.24
592.743	37701.06
592.94	37457.35
593.137	37342.66
593.334	37475.78
593.531	36885.97
593.727	37115.34
593.924	37006.8
594.121	36787.66
594.318	36978.12
594.515	36435.41
594.712	36736.46
594.908	36492.76
595.105	36812.24
595.302	36259.29
595.499	36361.69
595.696	36537.81
595.892	35878.36
596.089	36269.53
596.286	35894.75
596.482	36287.96
596.679	35515.87
596.876	35526.11
597.072	35356.13
597.269	35458.53
597.466	35284.45
597.662	35020.27
597.859	35089.9
598.055	35134.95
598.252	34719.21
598.448	35249.64
598.645	34670.06
598.841	34293.24
599.038	34747.89
599.234	34293.24
599.431	34010.62
599.627	34012.67
599.824	34162.17
600.02	33850.88
600.217	33918.46
600.413	33711.61
600.609	33506.82
600.806	33451.52
601.002	33723.9
601.198	33252.87
601.395	33195.53
601.591	33359.36
601.787	33109.51
601.984	32773.64
602.18	33000.97
602.376	32347.67
602.572	32552.46
602.769	32728.59
602.965	32044.57
603.161	32540.18
603.357	31929.88
603.553	31985.18
603.75	32194.07
603.946	32089.62
604.142	32665.1
604.338	31548.96
604.534	31741.47
604.73	31723.04
604.926	31573.53
605.122	31630.88
605.318	30983.72
605.514	31219.24
605.71	31194.66
605.906	31116.84
606.102	30920.23
606.298	30926.38
606.494	30944.81
606.69	31026.73
606.886	30928.42
607.082	30762.54
607.278	30918.18
607.474	30307.89
607.67	30467.63
607.866	30080.56
608.062	30715.44
608.257	30246.45
608.453	30225.97
608.649	30359.09
608.845	29912.63
609.041	29976.12
609.236	30414.38
609.432	29881.91
609.628	29931.06
609.824	29783.61
610.019	29511.23
610.215	29957.69
610.411	29888.06
610.606	29472.32
610.802	29564.48
610.998	29533.76
611.193	29566.52
611.389	29103.68
611.584	29052.48
611.78	29199.94
611.976	29107.78
612.171	29429.31
612.367	29175.36
612.562	28989
612.758	28552.78
612.953	28741.19
613.149	29034.05
613.344	28716.62
613.539	28882.5
613.735	28765.77
613.93	28773.96
614.126	28571.21
614.321	28669.51
614.517	28776.01
614.712	28337.74
614.907	28204.63
615.103	28237.39
615.298	27948.63
615.493	28450.38
615.688	27721.31
615.884	28419.66
616.079	28020.31
616.274	28141.14
616.47	27856.47
616.665	27827.8
616.86	27881.05
617.055	27541.08
617.25	27539.04
617.445	27600.47
617.641	27346.53
617.836	27590.24
618.031	27065.95
618.226	27233.89
618.421	27188.83
618.616	27577.95
618.811	27063.91
619.006	27100.77
619.201	26918.5
619.396	26916.45
619.591	26183.28
619.786	26828.39
619.981	26388.08
620.176	26549.87
620.371	26017.4
620.566	26441.32
620.761	26066.55
620.956	26295.92
621.151	25521.79
621.346	25755.25
621.541	25312.89
621.735	25806.45
621.93	25038.47
622.125	25257.6
622.32	25073.28
622.515	25038.47
622.709	24759.94
622.904	24755.85
623.099	24632.97
623.294	24704.65
623.488	24379.02
623.683	24155.79
623.878	24004.24
624.072	23926.42
624.267	23987.86
624.462	23830.16
624.656	23776.92
624.851	23678.61
625.046	23742.1
625.24	23226.01
625.435	23082.66
625.629	23207.58
625.824	23144.09
626.018	22685.35
626.213	22417.07
626.407	22898.34
626.602	22642.34
626.796	22419.11
626.991	22339.24
627.185	22337.2
627.38	21962.42
627.574	21778.1
627.768	21872.31
627.963	21665.46
628.157	21329.59
628.352	21857.97
628.546	21495.48
628.74	21286.59
628.935	21190.33
629.129	21141.18
629.323	20713.16
629.517	20723.4
629.712	20743.88
629.906	20668.1
630.1	20377.29
630.294	20463.3
630.489	20385.48
630.683	20440.78
630.877	20106.96
631.071	20008.65
631.265	20092.62
631.459	19891.92
631.653	19865.3
631.848	19687.12
632.042	19341.02
632.236	19619.54
632.43	19365.59
632.624	19175.13
632.818	18986.72
633.012	18833.12
633.206	18806.5
633.4	18941.66
633.594	18409.19
633.788	18745.06
633.982	18505.45
634.176	18663.14
634.369	18177.77
634.563	18302.7
634.757	17921.77
634.951	18093.8
635.145	17788.66
635.339	17878.77
635.533	17635.06
635.726	17698.55
635.92	17366.77
636.114	17526.52
636.308	17303.29
636.501	17243.9
636.695	17227.51
636.889	16967.42
637.083	17022.72
637.276	16936.7
637.47	17041.15
637.664	16764.67
637.857	16865.02
638.051	16811.78
638.244	16459.52
638.438	16248.58
638.632	16518.92
638.825	16123.66
639.019	16094.99
639.212	15884.05
639.406	16125.71
639.599	15963.92
639.793	16066.31
639.986	15671.06
640.18	15808.27
640.373	15679.25
640.567	15509.27
640.76	15478.55
640.954	15451.92
641.147	15281.94
641.34	15163.16
641.534	15062.81
641.727	15140.63
641.92	15128.35
642.114	14823.2
642.307	14645.02
642.5	14692.13
642.694	14640.93
642.887	14509.86
643.08	14679.84
643.273	14571.3
643.467	14485.28
643.66	14096.17
643.853	14163.75
644.046	14014.25
644.239	14067.5
644.432	14055.21
644.626	14063.4
644.819	13795.12
645.012	13788.97
645.205	13928.24
645.398	13733.68
645.591	13625.14
645.784	13571.89
645.977	13520.69
646.17	13518.64
646.363	13524.79
646.556	13154.1
646.749	13119.29
646.942	13217.59
647.135	13070.14
647.328	12984.12
647.521	13137.72
647.714	12590.91
647.907	12736.32
648.099	12701.5
648.292	12592.96
648.485	12488.51
648.678	12488.51
648.871	12570.43
649.064	12478.27
649.256	12224.33
649.449	12291.91
649.642	12187.46
649.835	12250.95
650.027	12025.67
650.22	11949.9
650.413	11956.04
650.605	11921.23
650.798	11933.51
650.991	11558.74
651.183	11788.11
651.376	11507.54
651.568	11597.65
651.761	11560.78
651.954	11640.65
652.146	11423.57
652.339	11575.12
652.531	11630.41
652.724	11321.17
652.916	10983.26
653.109	10997.59
653.301	11065.18
653.494	11214.68
653.686	10942.3
653.879	11032.41
654.071	10874.71
654.263	10880.86
654.456	10778.46
654.648	10927.96
654.84	10483.55
655.033	10706.78
655.225	10592.09
655.417	10565.47
655.61	10520.42
655.802	10497.89
655.994	10215.27
656.186	10385.25
656.379	10274.66
656.571	10176.36
656.763	10223.46
656.955	9895.78
657.148	10196.84
657.34	10082.15
657.532	9781.1
657.724	9734
657.916	9828.2
658.108	9901.93
658.3	9688.94
658.492	9850.73
658.684	9461.62
658.876	9586.54
659.068	9836.39
659.26	9529.2
659.452	9504.62
659.644	9480.05
659.836	9305.97
660.028	9420.66
660.22	9017.21
660.412	9377.65
660.604	8933.24
660.796	9127.8
660.988	9224.05
661.18	9060.21
661.372	9117.56
661.563	9078.65
661.755	8953.72
661.947	8877.94
662.139	8892.28
662.331	8777.59
662.522	8439.68
662.714	8757.11
662.906	8802.17
663.097	8722.3
663.289	8525.69
663.481	8458.11
663.673	8667
663.864	8294.27
664.056	8468.35
664.247	8425.34
664.439	8296.32
664.631	8308.61
664.822	8351.62
665.014	8128.39
665.205	8097.67
665.397	8294.27
665.588	8089.48
665.78	8071.04
665.971	8069
666.163	8091.52
666.354	8032.13
666.546	8028.04
666.737	7907.21
666.929	8021.89
667.12	7933.83
667.311	7774.09
667.503	7665.55
667.694	7776.14
667.885	7698.31
668.077	7661.45
668.268	7552.91
668.459	7649.16
668.651	7704.46
668.842	7561.1
669.033	7411.6
669.224	7427.98
669.416	7413.65
669.607	7538.57
669.798	7370.64
669.989	7315.34
670.18	7477.13
670.371	7352.21
670.563	7301.01
670.754	7341.97
670.945	7235.47
671.136	7415.69
671.327	7233.43
671.518	7147.41
671.709	7122.84
671.9	7317.39
672.091	7282.58
672.282	7083.92
672.473	7077.78
672.664	7128.98
672.855	6975.38
673.046	6977.43
673.237	7085.97
673.428	7214.99
673.619	7073.68
673.809	6993.81
674	7120.79
674.191	7034.77
674.382	6897.56
674.573	6911.89
674.764	6854.55
674.954	6899.61
675.145	6739.87
675.336	6698.91
675.527	6657.95
675.717	6893.46
675.908	6666.14
676.099	6842.26
676.289	6731.67
676.48	6602.65
676.671	6840.22
676.861	6586.27
677.052	6715.29
677.243	6545.31
677.433	6721.43
677.624	6815.64
677.814	6567.84
678.005	6528.92
678.195	6608.8
678.386	6610.84
678.576	6657.95
678.767	6639.51
678.957	6580.12
679.148	6649.75
679.338	6625.18
679.529	6580.12
679.719	6608.8
679.909	6616.99
680.1	6436.77
680.29	6535.07
680.481	6496.16
680.671	6504.35
680.861	6422.43
681.052	6404
681.242	6457.25
681.432	6551.45
681.622	6426.53
681.813	6348.7
682.003	6485.92
682.193	6418.33
682.383	6432.67
682.573	6301.6
682.764	6313.89
682.954	6270.88
683.144	6428.57
683.334	6451.1
683.524	6320.03
683.714	6352.8
683.904	6166.43
684.094	6322.08
684.284	6395.81
684.474	6381.47
684.664	6283.17
684.854	6211.49
685.044	6184.87
685.234	6025.12
685.424	6330.27
685.614	6068.13
685.804	6266.78
685.994	6133.67
686.184	6070.18
686.374	5920.68
686.564	5846.95
686.753	5955.49
686.943	5861.29
687.133	5978.02
687.323	5830.57
687.513	5988.26
687.702	5883.81
687.892	5894.05
688.082	5789.61
688.272	5846.95
688.461	5810.09
688.651	5648.3
688.841	5535.66
689.03	5617.58
689.22	5574.57
689.41	5588.91
689.599	5504.94
689.789	5488.56
689.979	5484.46
690.168	5441.45
690.358	5449.64
690.547	5416.88
690.737	5279.66
690.926	5328.81
691.116	5197.74
691.305	5427.12
691.495	5263.28
691.684	5210.03
691.874	5265.33
692.063	5216.18
692.252	5273.52
692.442	5103.54
692.631	5019.57
692.82	4986.8
693.01	4888.5
693.199	5052.34
693.388	4896.69
693.578	5095.35
693.767	5009.33
693.956	4800.44
694.146	4759.48
694.335	4859.83
694.524	4816.82
694.713	4812.73
694.902	4845.49
695.092	4732.86
695.281	4685.75
695.47	4757.43
695.659	4569.02
695.848	4722.62
696.037	4663.22
696.226	4634.55
696.415	4655.03
696.604	4734.9
696.793	4607.93
696.982	4595.64
697.171	4716.47
697.36	4683.7
697.549	4483
697.738	4480.96
697.927	4657.08
698.116	4540.35
698.305	4634.55
698.494	4532.15
698.683	4628.41
698.872	4376.51
699.061	4267.97
699.25	4335.55
699.438	4300.73
699.627	4353.98
699.816	4399.04
700.005	4192.19
700.193	4325.31
700.382	4616.12
700.571	4521.91
700.76	4521.91
700.948	4429.76
701.137	4470.72
701.326	4478.91
701.514	4224.96
701.703	4437.95
701.892	4454.33
702.08	4560.83
702.269	4345.79
702.457	4333.5
702.646	4386.75
702.834	4261.82
703.023	4310.97
703.212	4298.69
703.4	4360.13
703.589	4202.43
703.777	4380.61
703.965	4243.39
704.154	4198.34
704.342	4347.84
704.531	4261.82
704.719	4296.64
704.907	4390.84
705.096	4128.7
705.284	4319.17
705.472	4194.24
705.661	4233.15
705.849	4243.39
706.037	4372.41
706.226	4229.06
706.414	4110.27
706.602	4188.1
706.79	4343.74
706.979	4161.47
707.167	4241.34
707.355	4192.19
707.543	4114.37
707.731	4276.16
707.919	4149.18
708.107	4243.39
708.296	4171.71
708.484	4167.62
708.672	4057.03
708.86	4075.46
709.048	4192.19
709.236	4069.31
709.424	4171.71
709.612	4257.73
709.8	4165.57
709.988	4169.66
710.176	4184
710.364	4315.07
710.551	4356.03
710.739	4143.04
710.927	4261.82
711.115	4220.86
711.303	4294.59
711.491	4106.18
711.679	4243.39
711.866	4384.7
712.054	4272.06
712.242	4155.33
712.43	4288.45
712.617	4251.58
712.805	4210.62
712.993	4151.23
713.181	4212.67
713.368	4284.35
713.556	4143.04
713.744	4196.29
713.931	4249.54
714.119	4308.93
714.306	4253.63
714.494	4329.41
714.682	4210.62
714.869	4130.75
715.057	4421.56
715.244	4155.33
715.432	4175.81
715.619	4267.97
715.807	4310.97
715.994	4272.06
716.182	4224.96
716.369	4288.45
716.556	4401.08
716.744	4313.02
716.931	4265.92
717.119	4374.46
717.306	4419.52
717.493	4159.42
717.681	4300.73
717.868	4401.08
718.055	4327.36
718.242	4382.65
718.43	4394.94
718.617	4403.13
718.804	4308.93
718.991	4396.99
719.179	4415.42
719.366	4456.38
719.553	4444.09
719.74	4296.64
719.927	4399.04
720.114	4405.18
720.301	4450.24
720.488	4466.62
720.676	4444.09
720.863	4433.85
721.05	4376.51
721.237	4401.08
721.424	4347.84
721.611	4358.08
721.798	4229.06
721.985	4339.65
722.172	4409.28
722.358	4384.7
722.545	4466.62
722.732	4386.75
722.919	4503.48
723.106	4564.92
723.293	4454.33
723.48	4534.2
723.667	4464.57
723.853	4485.05
724.04	4464.57
724.227	4444.09
724.414	4511.68
724.6	4446.14
724.787	4495.29
724.974	4675.51
725.161	4528.06
725.347	4261.82
725.534	4536.25
725.72	4521.91
725.907	4503.48
726.094	4437.95
726.28	4427.71
726.467	4480.96
726.653	4483
726.84	4425.66
727.027	4532.15
727.213	4452.28
727.4	4548.54
727.586	4431.8
727.773	4499.39
727.959	4609.98
728.145	4562.87
728.332	4493.24
728.518	4542.39
728.705	4634.55
728.891	4566.97
729.077	4612.03
729.264	4734.9
729.45	4540.35
729.636	4702.14
729.823	4513.72
730.009	4552.63
730.195	4712.38
730.382	4593.59
730.568	4577.21
730.754	4636.6
730.94	4534.2
731.126	4571.07
731.313	4683.7
731.499	4544.44
731.685	4620.22
731.871	4630.46
732.057	4552.63
732.243	4601.79
732.429	4636.6
732.615	4544.44
732.801	4503.48
732.987	4556.73
733.173	4548.54
733.359	4833.21
733.545	4587.45
733.731	4440
733.917	4636.6
734.103	4634.55
734.289	4747.19
734.475	4442.04
734.661	4835.25
734.847	4693.94
735.033	4757.43
735.219	4642.75
735.404	4431.8
735.59	4433.85
735.776	4394.94
735.962	4614.07
736.148	4665.27
736.333	4503.48
736.519	4511.68
736.705	4577.21
736.89	4695.99
737.076	4464.57
737.262	4564.92
737.447	4401.08
737.633	4382.65
737.819	4540.35
738.004	4493.24
738.19	4425.66
738.375	4483
738.561	4448.19
738.747	4528.06
738.932	4382.65
739.118	4454.33
739.303	4327.36
739.489	4399.04
739.674	4442.04
739.859	4460.48
740.045	4370.37
740.23	4478.91
740.416	4306.88
740.601	4372.41
740.786	4429.76
740.972	4306.88
741.157	4370.37
741.342	4200.38
741.528	4296.64
741.713	4267.97
741.898	4284.35
742.084	4177.86
742.269	4233.15
742.454	4323.26
742.639	4255.68
742.824	4247.49
743.01	4229.06
743.195	4358.08
743.38	4218.82
743.565	4198.34
743.75	4218.82
743.935	3977.16
744.12	4018.11
744.305	4030.4
744.49	4030.4
744.675	3993.54
744.86	4071.36
745.045	3946.44
745.23	4046.79
745.415	3960.77
745.6	3938.24
745.785	3878.85
745.97	3866.56
746.155	4022.21
746.34	3950.53
746.525	3782.6
746.71	3889.09
746.895	3825.61
747.079	3831.75
747.264	3700.68
747.449	3872.71
747.634	3741.64
747.819	3792.84
748.003	3663.82
748.188	3696.58
748.373	3663.82
748.557	3678.15
748.742	3614.66
748.927	3649.48
749.111	3651.53
749.296	3456.97
749.481	3473.35
749.665	3323.85
749.85	3520.46
750.034	3547.08
750.219	3413.96
750.404	3463.12
750.588	3377.1
750.773	3323.85
750.957	3483.59
751.141	3387.34
751.326	3239.89
751.51	3364.81
751.695	3426.25
751.879	3192.78
752.064	3289.04
752.248	3241.93
752.432	3264.46
752.617	3203.02
752.801	3123.15
752.985	3147.73
753.17	3004.37
753.354	3114.96
753.538	3080.14
753.722	3106.77
753.907	2967.51
754.091	3008.47
754.275	3004.37
754.459	2887.64
754.643	2875.35
754.828	2932.69
755.012	2906.07
755.196	2738.13
755.38	2787.29
755.564	2688.98
755.748	2809.81
755.932	2809.81
756.116	2787.29
756.3	2750.42
756.484	2779.09
756.668	2844.63
756.852	2627.54
757.036	2461.66
757.22	2734.04
757.404	2623.45
757.588	2562.01
757.772	2576.34
757.956	2562.01
758.14	2734.04
758.323	2492.38
758.507	2605.02
758.691	2549.72
758.875	2502.62
759.059	2535.39
759.242	2402.27
759.426	2406.36
759.61	2398.17
759.794	2375.64
759.977	2467.8
760.161	2447.32
760.345	2408.41
760.528	2394.08
760.712	2349.02
760.895	2275.29
761.079	2396.12
761.263	2263.01
761.446	2244.57
761.63	2260.96
761.813	2256.86
761.997	2154.46
762.18	2283.49
762.364	2156.51
762.547	2103.26
762.731	2211.81
762.914	2238.43
763.098	2099.17
763.281	2174.94
763.464	2039.78
763.648	2185.18
763.831	2150.37
764.015	2088.93
764.198	2086.88
764.381	2021.35
764.564	2168.8
764.748	2004.96
764.931	2045.92
765.114	2009.06
765.297	2027.49
765.481	1918.95
765.664	1951.71
765.847	2021.35
766.03	1982.43
766.213	2066.4
766.397	1994.72
766.58	1880.04
766.763	1994.72
766.946	2039.78
767.129	1939.43
767.312	1882.08
767.495	1947.62
767.678	1877.99
767.861	1900.51
768.044	1871.84
768.227	1794.02
768.41	1904.61
768.593	1892.32
768.776	1773.54
768.959	1791.97
769.142	1996.77
769.324	1843.17
769.507	1818.6
769.69	1914.85
769.873	1730.53
770.056	1925.09
770.239	1869.8
770.421	1882.08
770.604	1826.79
770.787	1705.96
770.97	1812.45
771.152	1599.46
771.335	1789.92
771.518	1601.51
771.7	1818.6
771.883	1732.58
772.066	1613.8
772.248	1685.48
772.431	1703.91
772.613	1687.53
772.796	1556.46
772.978	1581.03
773.161	1626.09
773.343	1609.7
773.526	1492.97
773.708	1544.17
773.891	1562.6
774.073	1546.22
774.256	1515.5
774.438	1521.64
774.621	1456.11
774.803	1509.35
774.985	1566.7
775.168	1525.74
775.35	1490.92
775.532	1628.14
775.715	1298.41
775.897	1384.43
776.079	1337.32
776.261	1351.66
776.444	1374.19
776.626	1409
776.808	1277.93
776.99	1390.57
777.173	1419.24
777.355	1284.08
777.537	1388.52
777.719	1370.09
777.901	1347.56
778.083	1345.52
778.265	1343.47
778.447	1374.19
778.629	1355.76
778.811	1253.36
778.993	1325.04
779.175	1251.31
779.357	1218.54
779.539	1210.35
779.721	1161.2
779.903	1210.35
780.085	1193.97
780.267	1181.68
780.449	1273.84
780.631	1212.4
780.812	1273.84
780.994	1087.47
781.176	1146.86
781.358	1161.2
781.54	1023.98
781.721	1210.35
781.903	1183.73
782.085	995.31
782.267	1179.63
782.448	1071.09
782.63	1013.74
782.812	1038.32
782.993	1122.29
783.175	1056.75
783.357	1062.9
783.538	1003.5
783.72	1007.6
783.901	993.26
784.083	1048.56
784.264	927.73
784.446	1013.74
784.627	937.97
784.809	1009.65
784.99	997.36
785.172	909.3
785.353	923.63
785.535	991.22
785.716	909.3
785.897	919.54
786.079	917.49
786.26	847.86
786.441	897.01
786.623	813.04
786.804	880.63
786.985	798.71
787.167	856.05
787.348	847.86
787.529	813.04
787.71	870.39
787.891	837.62
788.073	841.72
788.254	722.93
788.435	835.57
788.616	858.1
788.797	804.85
788.978	802.8
789.159	741.36
789.34	833.52
789.522	716.79
789.703	798.71
789.884	765.94
790.065	727.03
790.246	722.93
790.427	612.34
790.607	677.88
790.788	729.08
790.969	684.02
791.15	761.84
791.331	647.16
791.512	681.97
791.693	763.89
791.874	677.88
792.054	641.01
792.235	712.69
792.416	636.92
792.597	671.73
792.778	657.4
792.958	759.8
793.139	688.12
793.32	702.45
793.5	653.3
793.681	679.93
793.862	612.34
794.042	555
794.223	634.87
794.404	614.39
794.584	614.39
794.765	677.88
794.945	563.19
795.126	665.59
795.306	653.3
795.487	634.87
795.667	575.48
795.848	608.25
796.028	579.58
796.209	593.91
796.389	548.86
796.57	600.05
796.75	557.05
796.93	622.58
797.111	524.28
797.291	616.44
797.471	518.14
797.652	507.9
797.832	571.38
798.012	604.15
798.192	577.53
798.373	473.08
798.553	526.33
798.733	598.01
798.913	589.81
799.093	444.41
799.274	544.76
799.454	569.34
799.634	534.52
799.814	563.19
799.994	516.09
800.174	555
800.354	448.51
800.534	471.03
800.714	485.37
800.894	499.7
801.074	511.99
801.254	501.75
801.434	522.23
801.614	452.6
801.794	493.56
801.974	1378.28
802.154	495.61
802.334	466.94
802.514	403.45
802.693	509.94
802.873	348.15
803.053	468.98
803.233	446.46
803.413	540.66
803.592	491.51
803.772	407.55
803.952	475.13
804.131	399.35
804.311	534.52
804.491	550.9
804.67	448.51
804.85	337.91
805.03	462.84
805.209	421.88
805.389	483.32
805.568	393.21
805.748	401.4
805.928	530.42
806.107	374.78
806.287	419.83
806.466	458.74
806.646	339.96
806.825	368.63
807.004	354.3
807.184	346.11
807.363	440.31
807.543	333.82
807.722	335.87
807.901	360.44
808.081	458.74
808.26	356.35
808.439	317.44
808.619	378.87
808.798	385.02
808.977	395.26
809.156	382.97
809.336	321.53
809.515	448.51
809.694	319.48
809.873	309.24
810.052	352.25
810.231	403.45
810.411	344.06
810.59	352.25
810.769	376.83
810.948	327.67
811.127	268.28
811.306	317.44
811.485	301.05
811.664	333.82
811.843	335.87
812.022	307.2
812.201	206.84
812.38	366.59
812.559	272.38
812.737	313.34
812.916	264.19
813.095	323.58
813.274	321.53
813.453	307.2
813.632	335.87
813.811	299
813.989	245.76
814.168	294.91
814.347	278.52
814.526	292.86
814.704	348.15
814.883	337.91
815.062	237.56
815.24	268.28
815.419	264.19
815.598	239.61
815.776	251.9
815.955	360.44
816.133	186.37
816.312	303.1
816.49	337.91
816.669	301.05
816.847	200.7
817.026	348.15
817.204	237.56
817.383	223.23
817.561	284.67
817.74	311.29
817.918	280.57
818.097	176.13
818.275	280.57
818.453	243.71
818.632	299
818.81	247.8
818.988	264.19
819.167	233.47
819.345	155.65
819.523	225.28
819.701	288.76
819.879	260.09
820.058	219.13
820.236	247.8
820.414	243.71
820.592	210.94
820.77	184.32
820.948	219.13
821.127	196.6
821.305	329.72
821.483	210.94
821.661	229.37
821.839	223.23
822.017	231.42
822.195	161.79
822.373	309.24
822.551	206.84
822.729	303.1
822.907	180.22
823.085	208.89
823.262	151.55
823.44	276.48
823.618	202.75
823.796	223.23
823.974	249.85
824.152	206.84
824.329	210.94
824.507	247.8
824.685	206.84
824.863	210.94
825.04	245.76
825.218	221.18
825.396	182.27
825.574	272.38
825.751	169.98
825.929	329.72
826.107	180.22
826.284	233.47
826.462	227.32
826.639	161.79
826.817	110.59
826.994	200.7
827.172	122.88
827.349	235.52
827.527	182.27
827.704	215.04
827.882	172.03
828.059	172.03
828.237	182.27
828.414	286.72
828.591	141.31
828.769	133.12
828.946	165.89
829.124	223.23
829.301	141.31
829.478	165.89
829.655	192.51
829.833	176.13
830.01	174.08
830.187	264.19
830.364	208.89
830.542	221.18
830.719	241.66
830.896	141.31
831.073	190.46
831.25	172.03
831.427	239.61
831.604	206.84
831.782	202.75
831.959	204.8
832.136	124.93
832.313	217.08
832.49	75.77
832.667	71.68
832.844	145.41
833.021	268.28
833.198	137.21
833.374	96.25
833.551	198.65
833.728	149.5
833.905	212.99
834.082	131.07
834.259	145.41
834.436	223.23
834.612	124.93
834.789	202.75
834.966	141.31
835.143	92.16
835.319	131.07
835.496	198.65
835.673	204.8
835.85	202.75
836.026	151.55
836.203	180.22
836.38	190.46
836.556	163.84
836.733	96.25
836.909	204.8
837.086	137.21
837.262	14.34
837.439	174.08
837.616	153.6
837.792	178.17
837.968	57.34
838.145	26.62
838.321	149.5
838.498	77.82
838.674	145.41
838.851	137.21
839.027	165.89
839.203	61.44
839.38	129.02
839.556	2.05
839.732	180.22
839.909	83.97
840.085	79.87
840.261	59.39
840.437	122.88
840.614	63.49
840.79	231.42
840.966	169.98
841.142	182.27
841.318	112.64
841.494	135.17
841.671	192.51
841.847	108.54
842.023	59.39
842.199	88.06
842.375	204.8
842.551	63.49
842.727	106.49
842.903	75.77
843.079	71.68
843.255	233.47
843.431	75.77
843.607	147.45
843.783	45.06
843.959	104.45
844.134	126.97
844.31	141.31
844.486	69.63
844.662	57.34
844.838	143.36
845.013	69.63
845.189	81.92
845.365	77.82
845.541	65.53
845.716	40.96
845.892	98.3
846.068	88.06
846.244	81.92
846.419	104.45
846.595	-12.29
846.77	43.01
846.946	188.41
847.122	108.54
847.297	86.01
847.473	141.31
847.648	22.53
847.824	32.77
847.999	12.29
848.175	55.3
848.35	61.44
848.526	139.26
848.701	110.59
848.876	139.26
849.052	116.73
849.227	57.34
849.403	102.4
849.578	133.12
849.753	94.21
849.929	112.64
850.104	65.53
850.279	75.77
850.454	75.77
850.63	71.68
850.805	94.21
850.98	32.77
851.155	106.49
851.33	106.49
851.505	16.38
851.681	96.25
851.856	59.39
852.031	38.91
852.206	98.3
852.381	8.19
852.556	47.1
852.731	106.49
852.906	55.3
853.081	131.07
853.256	133.12
853.431	96.25
853.606	79.87
853.781	6.14
853.956	28.67
854.131	65.53
854.305	100.35
854.48	-22.53
854.655	81.92
854.83	90.11
855.005	88.06
855.18	75.77
855.354	38.91
855.529	55.3
855.704	24.58
855.879	65.53
856.053	34.82
856.228	79.87
856.403	110.59
856.577	133.12
856.752	61.44
856.926	32.77
857.101	49.15
857.276	73.73
857.45	108.54
857.625	67.58
857.799	83.97
857.974	88.06
858.148	73.73
858.323	104.45
858.497	71.68
858.672	2.05
858.846	65.53
859.02	34.82
859.195	30.72
859.369	51.2
859.543	49.15
859.718	2.05
859.892	51.2
860.066	49.15
860.241	28.67
860.415	22.53
860.589	45.06
860.763	71.68
860.938	-2.05
861.112	96.25
861.286	20.48
861.46	45.06
861.634	63.49
861.808	83.97
861.982	69.63
862.157	51.2
862.331	34.82
862.505	-2.05
862.679	55.3
862.853	61.44
863.027	26.62
863.201	90.11
863.375	16.38
863.549	108.54
863.722	8.19
863.896	71.68
864.07	90.11
864.244	6.14
864.418	57.34
864.592	47.1
864.766	88.06
864.939	45.06
865.113	59.39
865.287	104.45
865.461	47.1
865.634	94.21
865.808	100.35
865.982	24.58
866.156	-0
866.329	8.19
866.503	55.3
866.676	55.3
866.85	47.1
867.024	38.91
867.197	63.49
867.371	51.2
867.544	55.3
867.718	18.43
867.891	63.49
868.065	12.29
868.238	75.77
868.412	43.01
868.585	-0
868.759	40.96
868.932	-26.62
869.105	28.67
869.279	73.73
869.452	8.19
869.625	30.72
869.799	-49.15
869.972	61.44
870.145	2.05
870.319	81.92
870.492	-2.05
870.665	-59.39
870.838	55.3
871.011	-22.53
871.185	32.77
871.358	-16.38
871.531	98.3
871.704	-8.19
871.877	40.96
872.05	-28.67
872.223	63.49
872.396	96.25
872.569	43.01
872.742	-94.21
872.915	96.25
873.088	6.14
873.261	18.43
873.434	14.34
873.607	8.19
873.78	81.92
873.953	26.62
874.126	14.34
874.299	79.87
874.471	61.44
874.644	-32.77
874.817	104.45
874.99	131.07
875.163	98.3
875.335	65.53
875.508	16.38
875.681	90.11
875.853	38.91
876.026	55.3
876.199	59.39
876.371	34.82
876.544	36.86
876.717	55.3
876.889	-51.2
877.062	40.96
877.234	6.14
877.407	38.91
877.579	43.01
877.752	30.72
877.924	75.77
878.097	-8.19
878.269	-16.38
878.442	129.02
878.614	-8.19
878.786	79.87
878.959	106.49
879.131	106.49
879.303	-38.91
879.476	34.82
879.648	81.92
879.82	45.06
879.993	73.73
880.165	-14.34
880.337	-38.91
880.509	57.34
880.681	57.34
880.854	4.1
881.026	172.03
881.198	126.97
881.37	18.43
881.542	-22.53
881.714	43.01
881.886	53.25
882.058	-34.82
882.23	63.49
882.402	-67.58
882.574	40.96
882.746	83.97
882.918	24.58
883.09	51.2
883.262	38.91
883.434	28.67
883.606	43.01
883.778	53.25
883.95	34.82
884.122	34.82
884.293	55.3
884.465	-34.82
884.637	63.49
884.809	-59.39
884.98	55.3
885.152	67.58
885.324	59.39
885.496	-12.29
885.667	-22.53
885.839	6.14
886.011	110.59
886.182	129.02
886.354	40.96
886.525	12.29
886.697	38.91
886.869	-8.19
887.04	-18.43
887.212	-0
887.383	88.06
887.555	55.3
887.726	10.24
887.897	-4.1
888.069	57.34
888.24	90.11
888.412	-10.24
888.583	16.38
888.754	8.19
888.926	-8.19
889.097	67.58
889.268	-24.58
889.44	79.87
889.611	-2.05
889.782	-8.19
889.953	-34.82
890.125	36.86
890.296	43.01
890.467	86.01
890.638	18.43
890.809	38.91
890.98	-40.96
891.151	100.35
891.323	55.3
891.494	59.39
891.665	53.25
891.836	30.72
892.007	22.53
892.178	59.39
892.349	6.14
892.52	-22.53
892.691	-14.34
892.862	-2.05
893.032	30.72
893.203	14.34
893.374	-10.24
893.545	63.49
893.716	-12.29
893.887	-10.24
894.057	-28.67
894.228	-20.48
894.399	26.62
894.57	77.82
894.74	38.91
894.911	55.3
895.082	51.2
895.253	-43.01
895.423	4.1
895.594	86.01
895.764	67.58
895.935	-45.06
896.106	141.31
896.276	6.14
896.447	86.01
896.617	18.43
896.788	-38.91
896.958	-4.1
897.129	-32.77
897.299	-51.2
897.47	43.01
897.64	67.58
897.81	47.1
897.981	-0
898.151	-45.06
898.322	10.24
898.492	34.82
898.662	-2.05
898.832	-4.1
899.003	-4.1
899.173	-8.19
899.343	-24.58
899.513	-2.05
