Data from USB4F104151__83__13-06-14-398.txt Node

Date: Fri Mar 14 13:06:14 EDT 2025
User: louis
Spectrometer: USB4F10415
Trigger mode: 4
Integration Time (sec): 4.000000E-2
Scans to average: 1
Electric dark correction enabled: true
Nonlinearity correction enabled: false
Boxcar width: 0
XAxis mode: Wavelengths
Number of Pixels in Spectrum: 3648
>>>>>Begin Spectral Data<<<<<
178.204	-157.52
178.424	-157.52
178.644	-157.52
178.864	-282.45
179.084	-167.76
179.304	-16.21
179.524	-85.84
179.744	8.36
179.964	12.46
180.184	26.79
180.404	14.51
180.624	86.19
180.844	-10.07
181.064	2.22
181.283	32.94
181.503	-12.12
181.723	-59.22
181.943	-46.93
182.163	98.47
182.383	2.22
182.602	71.85
182.822	61.61
183.042	24.75
183.262	32.94
183.482	37.03
183.701	55.47
183.921	-20.31
184.141	-77.65
184.361	30.89
184.58	22.7
184.8	14.51
185.02	-34.64
185.239	53.42
185.459	30.89
185.679	96.43
185.898	-51.03
186.118	94.38
186.338	-10.07
186.557	63.66
186.777	-18.26
186.997	-16.21
187.216	0.17
187.436	98.47
187.655	84.14
187.875	63.66
188.095	-20.31
188.314	104.62
188.534	30.89
188.753	47.27
188.973	59.56
189.192	67.75
189.412	39.08
189.631	-10.07
189.851	96.43
190.07	102.57
190.29	47.27
190.509	133.29
190.729	-57.17
190.948	51.37
191.168	129.19
191.387	-22.36
191.607	22.7
191.826	22.7
192.045	-32.6
192.265	6.31
192.484	6.31
192.704	14.51
192.923	-30.55
193.142	47.27
193.362	75.95
193.581	43.18
193.8	73.9
194.02	129.19
194.239	-5.97
194.458	51.37
194.678	49.32
194.897	26.79
195.116	61.61
195.335	59.56
195.555	73.9
195.774	-10.07
195.993	16.55
196.212	75.95
196.432	24.75
196.651	43.18
196.87	75.95
197.089	170.15
197.308	112.81
197.528	-8.02
197.747	32.94
197.966	-38.74
198.185	-18.26
198.404	-42.84
198.623	-5.97
198.842	145.58
199.062	20.65
199.281	80.04
199.5	57.51
199.719	80.04
199.938	145.58
200.157	39.08
200.376	110.76
200.595	34.99
200.814	80.04
201.033	80.04
201.252	88.23
201.471	51.37
201.69	51.37
201.909	92.33
202.128	57.51
202.347	32.94
202.566	63.66
202.785	4.27
203.004	-44.88
203.223	121
203.442	53.42
203.661	22.7
203.879	55.47
204.098	157.86
204.317	-16.21
204.536	116.9
204.755	63.66
204.974	65.71
205.193	-48.98
205.411	80.04
205.63	75.95
205.849	67.75
206.068	6.31
206.287	-106.32
206.505	96.43
206.724	16.55
206.943	24.75
207.162	129.19
207.381	22.7
207.599	73.9
207.818	59.56
208.037	98.47
208.255	-40.79
208.474	-1.88
208.693	77.99
208.911	10.41
209.13	47.27
209.349	51.37
209.567	92.33
209.786	65.71
210.005	59.56
210.223	45.23
210.442	-51.03
210.661	32.94
210.879	26.79
211.098	43.18
211.316	82.09
211.535	88.23
211.753	49.32
211.972	32.94
212.191	28.84
212.409	30.89
212.628	37.03
212.846	55.47
213.065	51.37
213.283	32.94
213.502	65.71
213.72	39.08
213.938	57.51
214.157	-1.88
214.375	127.14
214.594	18.6
214.812	84.14
215.031	14.51
215.249	57.51
215.467	26.79
215.686	90.28
215.904	10.41
216.122	65.71
216.341	59.56
216.559	94.38
216.778	57.51
216.996	92.33
217.214	14.51
217.432	8.36
217.651	20.65
217.869	80.04
218.087	2.22
218.306	-48.98
218.524	92.33
218.742	4.27
218.96	67.75
219.179	30.89
219.397	57.51
219.615	26.79
219.833	80.04
220.051	-53.08
220.27	127.14
220.488	30.89
220.706	2.22
220.924	61.61
221.142	-1.88
221.36	53.42
221.578	4.27
221.796	39.08
222.015	-1.88
222.233	-67.41
222.451	12.46
222.669	49.32
222.887	-10.07
223.105	-55.12
223.323	104.62
223.541	30.89
223.759	65.71
223.977	39.08
224.195	98.47
224.413	24.75
224.631	26.79
224.849	18.6
225.067	114.86
225.285	-14.17
225.503	16.55
225.721	-91.99
225.939	41.13
226.157	2.22
226.375	186.54
226.592	-55.12
226.81	-8.02
227.028	43.18
227.246	168.1
227.464	18.6
227.682	39.08
227.9	28.84
228.117	51.37
228.335	82.09
228.553	26.79
228.771	77.99
228.989	139.43
229.206	82.09
229.424	-36.69
229.642	34.99
229.86	18.6
230.077	28.84
230.295	2.22
230.513	170.15
230.731	61.61
230.948	-12.12
231.166	127.14
231.384	-55.12
231.601	34.99
231.819	26.79
232.037	10.41
232.254	37.03
232.472	75.95
232.689	32.94
232.907	73.9
233.125	30.89
233.342	32.94
233.56	-1.88
233.777	24.75
233.995	12.46
234.213	-42.84
234.43	41.13
234.648	22.7
234.865	20.65
235.083	61.61
235.3	45.23
235.518	45.23
235.735	90.28
235.953	75.95
236.17	63.66
236.388	84.14
236.605	-34.64
236.822	94.38
237.04	92.33
237.257	43.18
237.475	-40.79
237.692	32.94
237.909	-20.31
238.127	37.03
238.344	147.62
238.562	67.75
238.779	-1.88
238.996	-34.64
239.214	20.65
239.431	14.51
239.648	-16.21
239.865	98.47
240.083	92.33
240.3	20.65
240.517	-34.64
240.735	47.27
240.952	39.08
241.169	106.67
241.386	14.51
241.603	57.51
241.821	-63.32
242.038	92.33
242.255	39.08
242.472	16.55
242.689	37.03
242.907	127.14
243.124	28.84
243.341	32.94
243.558	2.22
243.775	28.84
243.992	24.75
244.209	86.19
244.426	92.33
244.643	90.28
244.86	-28.5
245.078	30.89
245.295	55.47
245.512	30.89
245.729	-5.97
245.946	-38.74
246.163	32.94
246.38	4.27
246.597	30.89
246.814	18.6
247.031	65.71
247.248	32.94
247.464	12.46
247.681	16.55
247.898	88.23
248.115	16.55
248.332	-26.45
248.549	65.71
248.766	123.05
248.983	16.55
249.2	82.09
249.417	65.71
249.633	16.55
249.85	63.66
250.067	49.32
250.284	6.31
250.501	20.65
250.717	69.8
250.934	-67.41
251.151	104.62
251.368	26.79
251.585	8.36
251.801	49.32
252.018	49.32
252.235	22.7
252.451	32.94
252.668	63.66
252.885	-34.64
253.102	112.81
253.318	57.51
253.535	10.41
253.752	71.85
253.968	-10.07
254.185	0.17
254.401	39.08
254.618	51.37
254.835	20.65
255.051	131.24
255.268	127.14
255.484	39.08
255.701	39.08
255.917	86.19
256.134	-1.88
256.351	53.42
256.567	123.05
256.784	45.23
257	80.04
257.217	67.75
257.433	55.47
257.65	63.66
257.866	155.82
258.082	26.79
258.299	32.94
258.515	86.19
258.732	37.03
258.948	-8.02
259.165	49.32
259.381	24.75
259.597	24.75
259.814	57.51
260.03	22.7
260.246	39.08
260.463	67.75
260.679	75.95
260.895	47.27
261.112	67.75
261.328	-53.08
261.544	-46.93
261.761	125.1
261.977	22.7
262.193	0.17
262.409	14.51
262.626	39.08
262.842	-14.17
263.058	8.36
263.274	57.51
263.49	47.27
263.707	10.41
263.923	0.17
264.139	-10.07
264.355	12.46
264.571	67.75
264.787	16.55
265.004	90.28
265.22	55.47
265.436	2.22
265.652	24.75
265.868	37.03
266.084	-18.26
266.3	104.62
266.516	20.65
266.732	18.6
266.948	26.79
267.164	-1.88
267.38	108.71
267.596	41.13
267.812	96.43
268.028	8.36
268.244	39.08
268.46	39.08
268.676	30.89
268.892	-16.21
269.108	-67.41
269.324	-10.07
269.54	59.56
269.756	73.9
269.972	53.42
270.188	-5.97
270.403	-89.94
270.619	49.32
270.835	59.56
271.051	51.37
271.267	-10.07
271.483	28.84
271.698	69.8
271.914	28.84
272.13	63.66
272.346	61.61
272.562	59.56
272.777	53.42
272.993	0.17
273.209	57.51
273.425	75.95
273.64	8.36
273.856	100.52
274.072	22.7
274.287	-1.88
274.503	69.8
274.719	49.32
274.934	-3.93
275.15	18.6
275.366	30.89
275.581	47.27
275.797	57.51
276.012	-44.88
276.228	28.84
276.444	-22.36
276.659	102.57
276.875	-14.17
277.09	12.46
277.306	-16.21
277.521	51.37
277.737	55.47
277.952	51.37
278.168	-26.45
278.383	34.99
278.599	57.51
278.814	88.23
279.03	26.79
279.245	77.99
279.461	41.13
279.676	90.28
279.892	-36.69
280.107	39.08
280.322	8.36
280.538	4.27
280.753	24.75
280.969	8.36
281.184	-18.26
281.399	149.67
281.615	41.13
281.83	73.9
282.045	-8.02
282.26	45.23
282.476	88.23
282.691	30.89
282.906	8.36
283.122	121
283.337	2.22
283.552	34.99
283.767	26.79
283.983	110.76
284.198	71.85
284.413	77.99
284.628	96.43
284.843	90.28
285.058	82.09
285.274	55.47
285.489	28.84
285.704	51.37
285.919	0.17
286.134	45.23
286.349	55.47
286.564	55.47
286.779	80.04
286.995	28.84
287.21	-57.17
287.425	16.55
287.64	-5.97
287.855	30.89
288.07	8.36
288.285	129.19
288.5	65.71
288.715	51.37
288.93	-51.03
289.145	65.71
289.36	43.18
289.575	47.27
289.79	39.08
290.004	-34.64
290.219	112.81
290.434	30.89
290.649	12.46
290.864	145.58
291.079	-36.69
291.294	84.14
291.509	63.66
291.724	8.36
291.938	100.52
292.153	47.27
292.368	-3.93
292.583	73.9
292.798	114.86
293.012	59.56
293.227	65.71
293.442	114.86
293.657	94.38
293.871	82.09
294.086	65.71
294.301	112.81
294.516	61.61
294.73	18.6
294.945	32.94
295.16	22.7
295.374	106.67
295.589	84.14
295.804	65.71
296.018	22.7
296.233	96.43
296.447	16.55
296.662	90.28
296.877	55.47
297.091	84.14
297.306	80.04
297.52	55.47
297.735	86.19
297.949	65.71
298.164	59.56
298.378	26.79
298.593	16.55
298.807	39.08
299.022	39.08
299.236	71.85
299.451	37.03
299.665	26.79
299.88	41.13
300.094	92.33
300.309	4.27
300.523	80.04
300.737	-65.36
300.952	16.55
301.166	51.37
301.381	41.13
301.595	-30.55
301.809	121
302.024	53.42
302.238	34.99
302.452	65.71
302.667	4.27
302.881	121
303.095	121
303.309	30.89
303.524	-5.97
303.738	59.56
303.952	-40.79
304.166	-79.7
304.381	-53.08
304.595	94.38
304.809	-10.07
305.023	22.7
305.237	32.94
305.452	-8.02
305.666	157.86
305.88	147.62
306.094	63.66
306.308	4.27
306.522	71.85
306.736	94.38
306.95	55.47
307.164	37.03
307.379	30.89
307.593	63.66
307.807	65.71
308.021	63.66
308.235	77.99
308.449	16.55
308.663	-5.97
308.877	211.11
309.091	18.6
309.305	43.18
309.519	2.22
309.733	104.62
309.947	-106.32
310.161	100.52
310.374	59.56
310.588	161.96
310.802	-1.88
311.016	22.7
311.23	86.19
311.444	-34.64
311.658	-10.07
311.872	-3.93
312.085	51.37
312.299	121
312.513	116.9
312.727	-24.4
312.941	30.89
313.154	61.61
313.368	12.46
313.582	59.56
313.796	65.71
314.009	43.18
314.223	30.89
314.437	24.75
314.651	24.75
314.864	-18.26
315.078	4.27
315.292	-34.64
315.505	55.47
315.719	6.31
315.933	53.42
316.146	65.71
316.36	24.75
316.573	71.85
316.787	127.14
317.001	96.43
317.214	71.85
317.428	-18.26
317.641	-28.5
317.855	55.47
318.068	30.89
318.282	67.75
318.495	90.28
318.709	75.95
318.922	39.08
319.136	104.62
319.349	71.85
319.563	-16.21
319.776	49.32
319.99	-83.8
320.203	86.19
320.417	22.7
320.63	98.47
320.843	71.85
321.057	39.08
321.27	10.41
321.483	127.14
321.697	37.03
321.91	59.56
322.124	-5.97
322.337	0.17
322.55	16.55
322.763	34.99
322.977	63.66
323.19	43.18
323.403	-12.12
323.617	57.51
323.83	143.53
324.043	57.51
324.256	28.84
324.469	2.22
324.683	170.15
324.896	84.14
325.109	55.47
325.322	-53.08
325.535	32.94
325.748	84.14
325.962	30.89
326.175	110.76
326.388	53.42
326.601	114.86
326.814	-16.21
327.027	22.7
327.24	90.28
327.453	6.31
327.666	45.23
327.879	137.38
328.092	86.19
328.305	65.71
328.518	4.27
328.731	24.75
328.944	24.75
329.157	-5.97
329.37	16.55
329.583	151.72
329.796	69.8
330.009	-3.93
330.222	143.53
330.435	96.43
330.648	39.08
330.861	80.04
331.073	59.56
331.286	-10.07
331.499	53.42
331.712	-26.45
331.925	55.47
332.138	39.08
332.35	90.28
332.563	18.6
332.776	84.14
332.989	-42.84
333.202	61.61
333.414	43.18
333.627	39.08
333.84	12.46
334.053	0.17
334.265	26.79
334.478	61.61
334.691	61.61
334.903	41.13
335.116	-12.12
335.329	10.41
335.541	20.65
335.754	114.86
335.966	6.31
336.179	63.66
336.392	0.17
336.604	12.46
336.817	22.7
337.029	8.36
337.242	4.27
337.454	123.05
337.667	10.41
337.88	98.47
338.092	4.27
338.305	32.94
338.517	106.67
338.729	90.28
338.942	75.95
339.154	-18.26
339.367	67.75
339.579	141.48
339.792	-46.93
340.004	82.09
340.217	51.37
340.429	55.47
340.641	-55.12
340.854	71.85
341.066	14.51
341.278	106.67
341.491	90.28
341.703	63.66
341.915	-42.84
342.128	125.1
342.34	112.81
342.552	65.71
342.764	69.8
342.977	90.28
343.189	34.99
343.401	-12.12
343.613	12.46
343.826	63.66
344.038	-59.22
344.25	57.51
344.462	32.94
344.674	71.85
344.886	77.99
345.099	123.05
345.311	125.1
345.523	-10.07
345.735	16.55
345.947	77.99
346.159	55.47
346.371	71.85
346.583	22.7
346.795	110.76
347.007	30.89
347.219	137.38
347.431	28.84
347.643	75.95
347.855	28.84
348.067	108.71
348.279	43.18
348.491	39.08
348.703	24.75
348.915	96.43
349.127	22.7
349.339	18.6
349.551	37.03
349.763	65.71
349.975	61.61
350.187	139.43
350.399	47.27
350.61	49.32
350.822	-14.17
351.034	45.23
351.246	12.46
351.458	4.27
351.669	73.9
351.881	32.94
352.093	123.05
352.305	121
352.517	110.76
352.728	100.52
352.94	43.18
353.152	0.17
353.363	-73.56
353.575	80.04
353.787	100.52
353.999	80.04
354.21	75.95
354.422	104.62
354.633	37.03
354.845	94.38
355.057	55.47
355.268	80.04
355.48	141.48
355.692	8.36
355.903	63.66
356.115	39.08
356.326	34.99
356.538	98.47
356.749	63.66
356.961	96.43
357.172	-36.69
357.384	39.08
357.595	161.96
357.807	-30.55
358.018	41.13
358.23	80.04
358.441	147.62
358.653	116.9
358.864	61.61
359.075	24.75
359.287	28.84
359.498	80.04
359.709	53.42
359.921	-42.84
360.132	39.08
360.344	121
360.555	20.65
360.766	28.84
360.977	102.57
361.189	49.32
361.4	39.08
361.611	39.08
361.823	112.81
362.034	39.08
362.245	-28.5
362.456	6.31
362.667	67.75
362.879	6.31
363.09	75.95
363.301	63.66
363.512	67.75
363.723	69.8
363.935	100.52
364.146	94.38
364.357	41.13
364.568	84.14
364.779	-22.36
364.99	123.05
365.201	106.67
365.412	67.75
365.623	34.99
365.834	73.9
366.045	67.75
366.256	63.66
366.467	110.76
366.678	82.09
366.889	55.47
367.1	43.18
367.311	92.33
367.522	26.79
367.733	75.95
367.944	59.56
368.155	75.95
368.366	28.84
368.577	77.99
368.788	121
368.999	8.36
369.209	59.56
369.42	198.82
369.631	178.34
369.842	94.38
370.053	30.89
370.264	49.32
370.474	57.51
370.685	86.19
370.896	-1.88
371.107	131.24
371.317	65.71
371.528	12.46
371.739	137.38
371.95	67.75
372.16	39.08
372.371	22.7
372.582	22.7
372.792	94.38
373.003	24.75
373.214	96.43
373.424	55.47
373.635	6.31
373.846	116.9
374.056	8.36
374.267	112.81
374.477	121
374.688	65.71
374.898	77.99
375.109	34.99
375.319	55.47
375.53	51.37
375.74	61.61
375.951	57.51
376.161	67.75
376.372	22.7
376.582	22.7
376.793	90.28
377.003	-59.22
377.214	65.71
377.424	88.23
377.635	106.67
377.845	61.61
378.055	84.14
378.266	51.37
378.476	65.71
378.686	34.99
378.897	28.84
379.107	71.85
379.317	127.14
379.528	86.19
379.738	86.19
379.948	39.08
380.158	57.51
380.369	51.37
380.579	96.43
380.789	59.56
380.999	71.85
381.21	106.67
381.42	108.71
381.63	55.47
381.84	49.32
382.05	112.81
382.261	77.99
382.471	139.43
382.681	-5.97
382.891	41.13
383.101	86.19
383.311	49.32
383.521	16.55
383.731	67.75
383.941	88.23
384.151	30.89
384.361	65.71
384.571	51.37
384.781	92.33
384.991	100.52
385.201	92.33
385.411	77.99
385.621	32.94
385.831	63.66
386.041	90.28
386.251	-24.4
386.461	18.6
386.671	41.13
386.881	147.62
387.091	57.51
387.301	114.86
387.511	16.55
387.72	49.32
387.93	53.42
388.14	-24.4
388.35	6.31
388.56	2.22
388.769	67.75
388.979	71.85
389.189	41.13
389.399	24.75
389.609	121
389.818	63.66
390.028	39.08
390.238	61.61
390.447	88.23
390.657	71.85
390.867	65.71
391.076	-20.31
391.286	34.99
391.496	71.85
391.705	55.47
391.915	59.56
392.125	69.8
392.334	75.95
392.544	174.25
392.753	75.95
392.963	88.23
393.172	75.95
393.382	88.23
393.591	172.2
393.801	61.61
394.01	82.09
394.22	100.52
394.429	55.47
394.639	65.71
394.848	100.52
395.058	24.75
395.267	100.52
395.477	139.43
395.686	75.95
395.895	164.01
396.105	102.57
396.314	104.62
396.524	178.34
396.733	104.62
396.942	106.67
397.152	53.42
397.361	161.96
397.57	47.27
397.78	2.22
397.989	170.15
398.198	256.17
398.407	96.43
398.617	149.67
398.826	88.23
399.035	69.8
399.244	123.05
399.453	110.76
399.663	155.82
399.872	116.9
400.081	90.28
400.29	151.72
400.499	71.85
400.708	231.59
400.917	141.48
401.127	176.3
401.336	90.28
401.545	178.34
401.754	121
401.963	245.93
402.172	71.85
402.381	108.71
402.59	190.63
402.799	129.19
403.008	204.97
403.217	110.76
403.426	139.43
403.635	39.08
403.844	164.01
404.053	155.82
404.262	104.62
404.471	211.11
404.68	137.38
404.888	133.29
405.097	161.96
405.306	118.95
405.515	127.14
405.724	155.82
405.933	155.82
406.142	118.95
406.35	196.78
406.559	155.82
406.768	213.16
406.977	284.84
407.185	168.1
407.394	252.07
407.603	131.24
407.812	213.16
408.02	204.97
408.229	219.3
408.438	233.64
408.646	229.54
408.855	235.69
409.064	338.09
409.272	288.93
409.481	338.09
409.69	262.31
409.898	293.03
410.107	274.6
410.315	317.61
410.524	327.85
410.733	278.69
410.941	436.39
411.15	368.81
411.358	430.24
411.567	485.54
411.775	415.91
411.984	501.92
412.192	471.2
412.401	395.43
412.609	450.72
412.818	579.75
413.026	483.49
413.234	536.74
413.443	630.95
413.651	534.69
413.86	600.23
414.068	649.38
414.276	678.05
414.485	637.09
414.693	710.82
414.901	704.67
415.11	704.67
415.318	647.33
415.526	729.25
415.734	794.78
415.943	870.56
416.151	796.83
416.359	839.84
416.567	876.7
416.776	897.18
416.984	997.53
417.192	1054.87
417.4	932
417.608	1009.82
417.817	1058.97
418.025	1185.94
418.233	1271.96
418.441	1112.22
418.649	1226.9
418.857	1276.06
419.065	1368.21
419.273	1271.96
419.481	1415.32
419.689	1632.4
419.897	1599.63
420.105	1585.3
420.313	1622.16
420.521	1738.9
420.729	1667.22
420.937	1810.58
421.145	1816.72
421.353	1955.98
421.561	2015.37
421.769	2087.05
421.977	2154.63
422.185	2048.14
422.393	2349.19
422.601	2472.07
422.809	2377.86
423.017	2353.29
423.224	2498.69
423.432	2597
423.64	2504.84
423.848	2828.42
424.056	2816.13
424.263	3111.04
424.471	3039.36
424.679	3045.5
424.887	3211.39
425.094	3303.54
425.302	3246.2
425.51	3436.66
425.718	3481.72
425.925	3627.12
426.133	3645.56
426.341	4008.05
426.548	4124.78
426.756	4135.02
426.964	4233.32
427.171	4409.45
427.379	4489.32
427.586	4489.32
427.794	4659.3
428.001	4974.69
428.209	5027.93
428.417	5044.32
428.624	5455.96
428.832	5611.61
429.039	5386.33
429.247	5615.7
429.454	5941.33
429.662	6453.32
429.869	6062.16
430.076	6348.87
430.284	6213.71
430.491	6559.81
430.699	6871.11
430.906	6840.39
431.114	6924.35
431.321	7237.69
431.528	7389.24
431.736	7755.83
431.943	8159.28
432.15	7780.4
432.358	7870.51
432.565	8489
432.772	8222.77
432.979	8804.39
433.187	8876.07
433.394	9029.66
433.601	9609.24
433.808	9779.22
434.016	9572.38
434.223	10328.08
434.43	10485.77
434.637	10278.93
434.844	11008
435.052	11032.58
435.259	11126.78
435.466	11446.27
435.673	11171.84
435.88	11915.25
436.087	12773.35
436.294	12613.61
436.501	12447.72
436.708	12586.99
436.915	12986.34
437.122	13717.47
437.329	13484
437.537	13832.15
437.743	14309.33
437.95	14182.35
438.157	14813.13
438.364	15278.02
438.571	15259.59
438.778	15202.24
438.985	16813.99
439.192	16183.22
439.399	16783.27
439.606	16295.86
439.813	16906.15
440.02	18519.95
440.227	17967
440.433	17708.96
440.64	18399.12
440.847	18231.19
441.054	18790.28
441.261	20121.46
441.467	19701.63
441.674	20100.98
441.881	20914.03
442.088	20821.87
442.294	20588.4
442.501	21260.13
442.708	21645.15
442.914	22583.12
443.121	23422.79
443.328	23123.79
443.534	24375.09
443.741	23592.77
443.948	23158.6
444.154	25327.4
444.361	24923.95
444.568	25124.65
444.774	25198.38
444.981	25046.83
445.187	26222.36
445.394	27162.38
445.6	27070.22
445.807	29828.84
446.013	28110.59
446.22	29095.66
446.426	29955.81
446.633	29939.43
446.839	31131.34
447.046	30117.6
447.252	31350.48
447.459	31686.34
447.665	31540.94
447.871	32978.61
448.078	34391.71
448.284	33214.13
448.491	33676.97
448.697	35073.68
448.903	35761.8
449.11	35798.66
449.316	35223.19
449.522	35849.86
449.728	36701.82
449.935	36759.16
450.141	36939.38
450.347	38076.01
450.553	36779.64
450.76	37500.53
450.966	38385.25
451.172	38037.09
451.378	39489.1
451.584	38133.35
451.791	39118.42
451.997	39290.45
452.203	39990.86
452.409	39616.08
452.615	39880.27
452.821	38092.39
453.027	37955.18
453.233	39847.5
453.44	38325.86
453.646	38925.91
453.852	39159.38
454.058	39675.47
454.264	38323.81
454.47	39253.59
454.676	38366.82
454.882	39654.99
455.088	36214.4
455.294	37029.49
455.5	37271.15
455.705	37977.7
455.911	36114.05
456.117	35737.23
456.323	35462.8
456.529	33554.09
456.735	34727.58
456.941	33967.78
457.147	33496.75
457.352	32417.47
457.558	32265.92
457.764	32175.81
457.97	31465.16
458.176	30891.73
458.381	30865.11
458.587	29300.46
458.793	29191.92
458.999	28014.34
459.204	30033.63
459.41	28911.35
459.616	26988.3
459.821	27248.39
460.027	27039.5
460.233	26357.53
460.438	25141.04
460.644	25311.02
460.85	24241.98
461.055	23770.94
461.261	24092.48
461.466	22619.99
461.672	21593.95
461.878	22880.08
462.083	21684.06
462.289	21200.74
462.494	20811.63
462.7	19855.23
462.905	19251.08
463.111	20014.97
463.316	19812.22
463.522	19658.62
463.727	19857.28
463.932	19752.83
464.138	19638.14
464.343	19543.94
464.549	19027.85
464.754	19666.81
464.959	19519.36
465.165	19259.27
465.37	18487.18
465.575	17745.82
465.781	18700.17
465.986	18907.02
466.191	18038.68
466.397	17487.78
466.602	16932.78
466.807	17817.5
467.012	17684.38
467.218	17354.66
467.423	17325.99
467.628	17491.87
467.833	17964.95
468.038	17495.97
468.244	16797.61
468.449	17586.08
468.654	16887.72
468.859	16879.53
469.064	16568.24
469.269	16238.51
469.474	16357.3
469.679	16676.78
469.885	16164.79
470.09	16058.29
470.295	16058.29
470.5	15937.46
470.705	16138.16
470.91	15712.19
471.115	15337.41
471.32	15497.15
471.525	15550.4
471.73	15310.79
471.935	14999.49
472.139	14438.35
472.344	14954.44
472.549	14882.76
472.754	14776.27
472.959	14303.18
473.164	14059.48
473.369	13965.27
473.574	14362.58
473.778	14372.82
473.983	14000.09
474.188	13948.89
474.393	13387.74
474.598	13371.36
474.802	13162.47
475.007	13055.97
475.212	13180.9
475.417	12812.26
475.621	12779.5
475.826	12718.06
476.031	12437.48
476.235	12339.18
476.44	12236.78
476.645	12304.37
476.849	12193.78
477.054	12115.95
477.259	11874.29
477.463	11730.94
477.668	11415.55
477.872	11741.18
478.077	11517.95
478.282	11204.61
478.486	11128.83
478.691	11251.71
478.895	11132.93
479.1	11137.02
479.304	11145.22
479.509	10979.33
479.713	10956.8
479.918	10608.65
480.122	10551.31
480.326	10543.11
480.531	10647.56
480.735	10373.13
480.94	10608.65
481.144	10862.6
481.348	10360.84
481.553	10383.37
481.757	10213.39
481.961	10127.38
482.166	10543.11
482.37	10500.11
482.574	10209.29
482.778	10178.58
482.983	10399.76
483.187	10414.09
483.391	10328.08
483.595	10147.86
483.8	9893.91
484.004	10283.02
484.208	10412.04
484.412	10323.98
484.616	10338.32
484.821	10256.4
485.025	10102.8
485.229	10301.45
485.433	10004.5
485.637	10276.88
485.841	10035.22
486.045	10178.58
486.249	10362.89
486.453	10074.13
486.657	10117.14
486.861	10131.47
487.065	9943.06
487.269	10180.62
487.473	9979.92
487.677	10123.28
487.881	10483.72
488.085	10162.19
488.289	10348.56
488.493	10170.38
488.697	10354.7
488.901	10041.36
489.105	10149.9
489.309	10350.6
489.512	10420.24
489.716	10207.25
489.92	10379.28
490.124	10201.1
490.328	10620.94
490.531	10469.39
490.735	10536.97
490.939	10643.46
491.143	10559.5
491.346	10545.16
491.55	10647.56
491.754	10430.48
491.958	10625.03
492.161	10477.58
492.365	10829.83
492.569	10840.07
492.772	10690.57
492.976	11182.08
493.18	11024.39
493.383	11046.91
493.587	11259.9
493.79	11417.6
493.994	11141.12
494.197	11268.09
494.401	11448.32
494.605	11282.43
494.808	11376.64
495.012	11538.43
495.215	11599.87
495.419	11853.81
495.622	11669.5
495.825	11868.15
496.029	11730.94
496.232	11958.26
496.436	12152.82
496.639	12343.28
496.843	12345.33
497.046	12543.98
497.249	12795.88
497.453	12517.36
497.656	12629.99
497.859	12818.41
498.063	13037.54
498.266	13203.43
498.469	13148.13
498.673	13377.5
498.876	13703.13
499.079	13494.24
499.282	13656.03
499.485	14163.92
499.689	14276.56
499.892	14434.25
500.095	14415.82
500.298	14391.25
500.501	14438.35
500.705	15155.14
500.908	15163.33
501.111	15364.03
501.314	15433.66
501.517	15468.48
501.72	15656.89
501.923	15624.12
502.126	16111.54
502.329	16345.01
502.532	16326.58
502.735	16453.55
502.938	16740.27
503.141	16900.01
503.344	16918.44
503.547	17158.05
503.75	17387.43
503.953	17649.57
504.156	17954.71
504.359	17995.67
504.562	17790.88
504.765	18413.46
504.968	18478.99
505.17	18767.76
505.373	18714.51
505.576	18874.25
505.779	19298.18
505.982	19304.32
506.185	19703.68
506.387	20139.9
506.59	20176.76
506.793	20297.59
506.996	20303.73
507.198	21104.49
507.401	20746.09
507.604	21260.13
507.807	21071.72
508.009	21630.82
508.212	21864.29
508.415	21845.85
508.617	22472.53
508.82	22407
509.022	22110.04
509.225	22890.32
509.428	23013.2
509.63	23226.18
509.833	23455.56
510.035	24117.05
510.238	23824.19
510.44	23957.31
510.643	24368.95
510.845	24737.59
511.048	24397.62
511.25	24897.33
511.453	25401.13
511.655	26238.75
511.858	25638.69
512.06	25909.02
512.262	26191.64
512.465	26138.4
512.667	26410.78
512.87	26994.45
513.072	26849.04
513.274	27500.3
513.477	27576.07
513.679	27959.04
513.881	28550.9
514.084	28544.76
514.286	28718.84
514.488	28770.04
514.69	29437.67
514.893	29585.13
515.095	29794.02
515.297	29847.27
515.499	30312.16
515.701	30605.02
515.904	30901.97
516.106	31000.27
516.308	31272.65
516.51	31755.97
516.712	31780.55
516.914	31993.54
517.116	32507.58
517.318	32753.33
517.52	33023.67
517.722	33072.82
517.925	33287.85
518.127	33822.37
518.329	33814.18
518.531	33693.35
518.733	34524.83
518.935	34684.57
519.136	34840.22
519.338	35350.16
519.54	35726.99
519.742	35536.52
519.944	36112
520.146	36185.73
520.348	36746.87
520.55	36966.01
520.752	36634.24
520.954	37838.44
521.155	37283.44
521.357	38061.67
521.559	38145.64
521.761	38454.88
521.963	38250.08
522.164	39183.96
522.366	38944.34
522.568	39278.16
522.77	39218.77
522.971	39798.35
523.173	39532.11
523.375	40240.71
523.576	39945.8
523.778	40394.31
523.98	40818.24
524.181	40986.17
524.383	40930.87
524.584	41590.32
524.786	41795.12
524.988	41369.14
525.189	42190.37
525.391	42173.99
525.592	42274.34
525.794	42559.01
525.995	42542.63
526.197	42692.13
526.398	42677.79
526.6	43216.41
526.801	43554.32
527.003	43656.72
527.204	43425.3
527.406	44279.3
527.607	43955.72
527.808	44135.95
528.01	43509.27
528.211	44135.95
528.412	45100.54
528.614	44684.8
528.815	44783.1
529.016	45057.53
529.218	44523.01
529.419	44983.8
529.62	44715.52
529.822	45043.2
530.023	45047.29
530.224	45309.43
530.425	45256.18
530.626	45129.21
530.828	45207.03
531.029	45741.55
531.23	45596.15
531.431	45567.48
531.632	45712.88
531.833	45884.91
532.035	46462.44
532.236	45895.15
532.437	46003.69
532.638	46038.51
532.839	46378.47
533.04	45975.02
533.241	45796.85
533.442	47048.16
533.643	46513.64
533.844	46061.04
534.045	46425.57
534.246	46374.38
534.447	46398.95
534.648	46233.07
534.849	46650.85
535.05	45895.15
535.251	46525.92
535.451	46190.06
535.652	46530.02
535.853	46407.14
536.054	46706.15
536.255	46401
536.456	46161.39
536.657	46867.94
536.857	46378.47
537.058	46130.67
537.259	46679.52
537.46	46423.53
537.66	46212.59
537.861	46769.63
538.062	46093.8
538.263	46822.88
538.463	46683.62
538.664	46446.05
538.865	46763.49
539.065	46794.21
539.266	46296.55
539.466	46843.36
539.667	46333.42
539.868	46976.48
540.068	46384.61
540.269	46347.75
540.469	46931.42
540.67	46128.62
540.87	46314.98
541.071	46329.32
541.271	46636.52
541.472	46376.42
541.672	46171.63
541.873	46603.75
542.073	45987.31
542.274	46716.39
542.474	46257.64
542.675	45948.4
542.875	46421.48
543.075	46015.98
543.276	45626.87
543.476	46372.33
543.676	46532.07
543.877	46669.28
544.077	46478.82
544.277	46114.28
544.478	45757.94
544.678	46251.5
544.878	46634.47
545.078	46474.73
545.279	46161.39
545.479	46401
545.679	46448.1
545.879	46476.77
546.079	46124.52
546.28	46231.02
546.48	46142.95
546.68	46345.7
546.88	46282.22
547.08	45829.62
547.28	45848.05
547.48	46018.03
547.68	46036.46
547.88	45846
548.081	46204.39
548.281	46157.29
548.481	45987.31
548.681	46018.03
548.881	45471.22
549.081	46247.4
549.28	45899.25
549.48	46429.67
549.68	45819.38
549.88	46235.11
550.08	45802.99
550.28	45770.22
550.48	45903.34
550.68	45979.12
550.88	45458.93
551.08	45735.41
551.279	45925.87
551.479	45424.12
551.679	45839.86
551.879	45553.14
552.079	45954.54
552.278	45624.82
552.478	45655.54
552.678	45950.45
552.878	46161.39
553.077	45657.59
553.277	45188.6
553.477	45876.72
553.676	45026.81
553.876	45581.81
554.076	45270.52
554.275	45256.18
554.475	45207.03
554.674	45762.03
554.874	45428.21
555.074	45166.07
555.273	45555.19
555.473	45401.59
555.672	45594.1
555.872	45166.07
556.071	45065.72
556.271	45581.81
556.47	45024.76
556.67	44881.41
556.869	44932.61
557.068	45057.53
557.268	44781.06
557.467	44570.11
557.667	45004.28
557.866	44688.9
558.065	44905.98
558.265	44725.76
558.464	44355.08
558.663	44449.28
558.863	43978.25
559.062	44838.4
559.261	44240.39
559.461	44736
559.66	43976.2
559.859	44477.96
560.058	43867.66
560.258	44357.13
560.457	43785.74
560.656	44400.13
560.855	43718.16
561.054	44152.33
561.253	43820.56
561.453	43918.86
561.652	43460.12
561.851	43961.87
562.05	43167.26
562.249	43484.69
562.448	43664.91
562.647	43415.06
562.846	43226.65
563.045	43324.95
563.244	43103.77
563.443	43449.88
563.642	42794.53
563.841	42968.6
564.04	43130.39
564.239	42737.18
564.438	42442.28
564.637	42571.3
564.836	42720.8
565.035	42710.56
565.234	42376.74
565.432	42346.02
565.631	42307.11
565.83	42253.86
566.029	42382.88
566.228	41731.63
566.427	41821.74
566.625	41780.78
566.824	40953.4
567.023	41948.71
567.222	41145.91
567.42	41539.12
567.619	41655.86
567.818	41199.16
568.016	41571.89
568.215	41510.45
568.414	41084.47
568.612	41408.05
568.811	40744.51
569.01	41301.56
569.208	41055.8
569.407	41031.22
569.605	40558.14
569.804	40431.17
570.002	40033.86
570.201	40607.3
570.4	40111.69
570.598	39917.13
570.797	39784.01
570.995	40214.09
571.193	39818.83
571.392	39771.72
571.59	39546.45
571.789	39997
571.987	39548.5
572.186	39161.43
572.384	39222.87
572.582	39136.85
572.781	39454.29
572.979	38712.92
573.177	38999.64
573.376	38987.35
573.574	38831.71
573.772	39128.66
573.971	38561.37
574.169	38598.24
574.367	38299.23
574.565	38696.54
574.763	38321.76
574.962	37811.82
575.16	37942.89
575.358	38239.84
575.556	37627.5
575.754	38209.12
575.952	37881.45
576.151	37674.6
576.349	37287.54
576.547	37170.8
576.745	37443.18
576.943	37381.74
577.141	37168.76
577.339	37426.8
577.537	37113.46
577.735	37213.81
577.933	36894.33
578.131	37267.06
578.329	36800.12
578.527	36368
578.725	36599.42
578.923	36609.66
579.121	36257.41
579.319	36529.79
579.516	36568.7
579.714	36163.2
579.912	36120.2
580.11	35966.6
580.308	36152.96
580.506	35696.27
580.704	35563.15
580.901	35507.85
581.099	35946.12
581.297	35348.11
581.495	35626.64
581.692	35769.99
581.89	35278.48
582.088	35413.65
582.285	35006.1
582.483	35092.12
582.681	35092.12
582.878	34823.83
583.076	34428.57
583.274	34784.92
583.471	34061.99
583.669	34549.4
583.866	34182.82
584.064	34705.05
584.262	34057.89
584.459	34072.23
584.657	33834.66
584.854	34082.47
585.052	33607.34
585.249	33666.73
585.447	33734.31
585.644	33294
585.841	33701.54
586.039	33773.22
586.236	33371.82
586.434	33044.15
586.631	33130.16
586.828	32970.42
587.026	33109.68
587.223	32892.6
587.42	32726.71
587.618	32747.19
587.815	32476.86
588.012	32128.7
588.21	32392.89
588.407	32470.72
588.604	32104.13
588.801	32327.36
588.999	32016.07
589.196	31872.71
589.393	31923.91
589.59	31635.14
589.787	31766.21
589.984	31755.97
590.182	31289.04
590.379	31424.2
590.576	31256.27
590.773	31307.47
590.97	30818
591.167	31119.06
591.364	30605.02
591.561	31129.3
591.758	30705.37
591.955	30801.62
592.152	30785.24
592.349	30535.38
592.546	30570.2
592.743	30590.68
592.94	30226.14
593.137	30322.4
593.334	30162.65
593.531	29791.97
593.727	30015.2
593.924	30021.34
594.121	29515.5
594.318	30082.78
594.515	29402.86
594.712	29746.92
594.908	29533.93
595.105	29619.94
595.302	29120.24
595.499	29564.65
595.696	29294.32
595.892	28837.62
596.089	28995.31
596.286	29236.97
596.482	28788.47
596.679	28903.15
596.876	28841.71
597.072	28755.7
597.269	28376.83
597.466	28544.76
597.662	28358.39
597.859	28389.11
598.055	28337.91
598.252	28149.5
598.448	28292.86
598.645	27840.26
598.841	27383.56
599.038	27862.79
599.234	27815.68
599.431	27549.45
599.627	27590.41
599.824	27819.78
600.02	27084.56
600.217	27373.32
600.413	27350.79
600.609	26963.73
600.806	27041.55
601.002	26846.99
601.198	26777.36
601.395	26646.29
601.591	26992.4
601.787	26846.99
601.984	26300.19
602.18	26842.9
602.376	26244.89
602.572	26263.32
602.769	26390.3
602.965	25675.55
603.161	26304.28
603.357	25966.37
603.553	25835.3
603.75	25929.5
603.946	25966.37
604.142	25712.42
604.338	25569.06
604.534	25450.28
604.73	25577.25
604.926	25440.04
605.122	25397.03
605.318	25388.84
605.514	25153.32
605.71	25259.82
605.906	25026.35
606.102	25071.4
606.298	24930.09
606.494	24794.93
606.69	25087.79
606.886	24776.5
607.082	24418.1
607.278	24876.85
607.474	24461.11
607.67	24481.59
607.866	24172.35
608.062	24358.71
608.257	24487.73
608.453	24067.9
608.649	24428.34
608.845	23795.52
609.041	24416.05
609.236	24059.71
609.432	23578.43
609.628	23926.59
609.824	24047.42
610.019	23959.36
610.215	23643.97
610.411	23756.61
610.606	23752.51
610.802	23770.94
610.998	23588.67
611.193	23713.6
611.389	23435.08
611.584	23390.02
611.78	23447.36
611.976	23527.24
612.171	23459.65
612.367	23375.69
612.562	22865.74
612.758	22841.17
612.953	23103.31
613.149	23013.2
613.344	22875.98
613.539	23318.34
613.735	23002.96
613.93	23072.59
614.126	22560.59
614.321	22769.49
614.517	23029.58
614.712	22878.03
614.907	22765.39
615.103	22611.79
615.298	22542.16
615.493	22673.23
615.688	22237.02
615.884	22925.13
616.079	22064.99
616.274	22368.09
616.47	22320.98
616.665	22382.42
616.86	21911.39
617.055	22185.82
617.25	22187.86
617.445	21970.78
617.641	21849.95
617.836	21921.63
618.031	21696.35
618.226	21962.59
618.421	21690.21
618.616	21608.29
618.811	21479.27
619.006	21778.27
619.201	21366.63
619.396	21481.31
619.591	21008.23
619.786	21432.16
619.981	20899.69
620.176	21321.57
620.371	20825.96
620.566	21196.65
620.761	20877.16
620.956	20729.71
621.151	20694.89
621.346	20725.61
621.541	20496.24
621.735	20588.4
621.93	20238.2
622.125	20166.52
622.32	19906.43
622.515	19900.28
622.709	20049.78
622.904	19847.04
623.099	19638.14
623.294	19773.31
623.488	19380.1
623.683	19607.42
623.878	19222.41
624.072	19134.34
624.267	19259.27
624.462	19134.34
624.656	18870.15
624.851	18888.59
625.046	18804.62
625.24	18847.63
625.435	18577.3
625.629	18442.13
625.824	18257.81
626.018	17958.81
626.213	17975.19
626.407	18010.01
626.602	17766.3
626.796	18057.11
626.991	17872.79
627.185	17848.22
627.38	17708.96
627.574	17455.01
627.768	17254.31
627.963	17495.97
628.157	17084.33
628.352	17149.86
628.546	16773.03
628.74	17110.95
628.935	16695.21
629.129	16900.01
629.323	16719.79
629.517	16588.72
629.712	16627.63
629.906	16512.94
630.1	16236.47
630.294	16203.7
630.489	16164.79
630.683	16322.48
630.877	15839.16
631.071	15671.23
631.265	15976.37
631.459	15857.59
631.653	15507.39
631.848	15720.38
632.042	15441.86
632.236	15718.33
632.43	15400.9
632.624	15294.4
632.818	15216.58
633.012	15192
633.206	14933.96
633.4	14745.55
633.594	15052.74
633.788	14612.43
633.982	14835.66
634.176	14839.75
634.369	14723.02
634.563	14475.21
634.757	14428.11
634.951	14344.14
635.145	14251.99
635.339	14440.4
635.533	14006.23
635.726	14063.57
635.92	14114.77
636.114	13883.35
636.308	13838.3
636.501	13686.75
636.695	13656.03
636.889	13582.3
637.083	13469.66
637.276	13459.42
637.47	13373.41
637.664	13045.73
637.857	13438.94
638.051	13365.21
638.244	13119.46
638.438	13033.44
638.632	13043.68
638.825	12986.34
639.019	12795.88
639.212	12752.87
639.406	12738.54
639.599	12535.79
639.793	12857.32
639.986	12609.51
640.18	12632.04
640.373	12632.04
640.567	12347.37
640.76	12396.53
640.954	12224.5
641.147	11884.53
641.34	12056.56
641.534	11966.45
641.727	12015.6
641.92	11968.5
642.114	11835.38
642.307	11790.33
642.5	11919.35
642.694	11528.19
642.887	11499.52
643.08	11720.7
643.273	11479.04
643.467	11474.94
643.66	11059.2
643.853	11311.1
644.046	11243.52
644.239	11145.22
644.432	11106.31
644.626	11057.15
644.819	10973.19
645.012	11030.53
645.205	11151.36
645.398	10764.29
645.591	10604.55
645.784	10799.11
645.977	10704.9
646.17	10780.68
646.363	10500.11
646.556	10440.72
646.749	10532.87
646.942	10313.74
647.135	10471.43
647.328	10360.84
647.521	10141.71
647.714	10188.82
647.907	10119.18
648.099	9973.78
648.292	10119.18
648.485	9979.92
648.678	9721.88
648.871	9875.48
649.064	9934.87
649.256	9811.99
649.449	9760.79
649.642	9570.33
649.835	9537.56
650.027	9506.84
650.22	9574.42
650.413	9572.38
650.605	9361.44
650.798	9349.15
650.991	9140.26
651.183	9306.14
651.376	9084.96
651.568	9279.52
651.761	9029.66
651.954	9254.94
652.146	8960.03
652.339	9007.14
652.531	8845.35
652.724	8753.19
652.916	8865.83
653.109	8783.91
653.301	8978.47
653.494	8828.96
653.686	8652.84
653.879	8605.74
654.071	8796.2
654.263	8577.06
654.456	8423.47
654.648	8536.1
654.84	8382.51
655.033	8452.14
655.225	8329.26
655.417	8255.53
655.61	8290.35
655.802	8314.92
655.994	8126.51
656.186	8177.71
656.379	8206.38
656.571	8116.27
656.763	7989.3
656.955	7903.28
657.148	7823.41
657.34	7931.95
657.532	7909.43
657.724	7804.98
657.916	7714.87
658.108	7778.36
658.3	7645.24
658.492	7714.87
658.684	7792.69
658.876	7462.97
659.068	7811.12
659.26	7444.54
659.452	7567.42
659.644	7651.38
659.836	7352.38
660.028	7536.7
660.22	7247.93
660.412	7272.51
660.604	7303.23
660.796	7114.81
660.988	7129.15
661.18	7014.46
661.372	7039.04
661.563	7161.92
661.755	7166.01
661.947	7018.56
662.139	7047.23
662.331	6965.31
662.522	6830.15
662.714	6922.31
662.906	6922.31
663.097	6875.2
663.289	6813.76
663.481	6916.16
663.673	6758.47
663.864	6725.7
664.056	6717.51
664.247	6664.26
664.439	6547.53
664.631	6475.85
664.822	6504.52
665.014	6518.86
665.205	6469.7
665.397	6422.6
665.588	6551.62
665.78	6365.26
665.971	6502.47
666.163	6330.44
666.354	6457.42
666.546	6289.48
666.737	6256.72
666.929	6232.14
667.12	6248.52
667.311	6154.32
667.503	6062.16
667.694	6164.56
667.885	6113.36
668.077	6105.17
668.268	5929.04
668.459	6068.3
668.651	6002.77
668.842	6041.68
669.033	5953.62
669.224	5953.62
669.416	6051.92
669.607	5900.37
669.798	5881.94
669.989	6197.32
670.18	5640.28
670.371	5894.22
670.563	5777.49
670.754	5986.38
670.945	5785.68
671.136	5783.63
671.327	5793.87
671.518	5826.64
671.709	5609.56
671.9	5836.88
672.091	5769.3
672.282	5714
672.473	5785.68
672.664	5810.26
672.855	5584.98
673.046	5613.65
673.237	5648.47
673.428	5646.42
673.619	5474.39
673.809	5529.69
674	5720.15
674.191	5501.01
674.382	5556.31
674.573	5625.94
674.764	5562.45
674.954	5517.4
675.145	5488.73
675.336	5320.79
675.527	5486.68
675.717	5548.12
675.908	5359.7
676.099	5486.68
676.289	5507.16
676.48	5292.12
676.671	5453.91
676.861	5357.66
677.052	5501.01
677.243	5347.42
677.433	5374.04
677.624	5363.8
677.814	5349.47
678.005	5367.9
678.195	5490.77
678.386	5242.97
678.576	5339.23
678.767	5353.56
678.957	5371.99
679.148	5494.87
679.338	5369.94
679.529	5363.8
679.719	5257.31
679.909	5421.14
680.1	5333.08
680.29	5427.29
680.481	5292.12
680.671	5259.35
680.861	5292.12
681.052	5304.41
681.242	5163.1
681.432	5355.61
681.622	5120.09
681.813	5197.92
682.003	5232.73
682.193	5322.84
682.383	5240.92
682.573	5232.73
682.764	5247.07
682.954	5296.22
683.144	5214.3
683.334	5181.53
683.524	5144.67
683.714	5228.63
683.904	5146.72
684.094	5281.88
684.284	5017.69
684.474	5296.22
684.664	5202.01
684.854	5177.44
685.044	5046.37
685.234	4986.97
685.424	5042.27
685.614	5081.18
685.804	4997.21
685.994	5044.32
686.184	5068.89
686.374	4986.97
686.564	5052.51
686.753	5050.46
686.943	4831.33
687.133	4857.95
687.323	4925.54
687.513	4702.31
687.702	4921.44
687.892	4958.3
688.082	4687.97
688.272	4804.71
688.461	4675.68
688.651	4753.51
688.841	4837.47
689.03	4679.78
689.22	4677.73
689.41	4651.11
689.599	4737.12
689.789	4608.1
689.979	4765.79
690.168	4739.17
690.358	4554.85
690.547	4495.46
690.737	4604
690.926	4434.02
691.116	4401.26
691.305	4388.97
691.495	4542.57
691.684	4495.46
691.874	4292.71
692.063	4407.4
692.252	4401.26
692.442	4372.58
692.631	4221.03
692.82	4380.78
693.01	4251.75
693.199	4276.33
693.388	4186.22
693.578	4178.03
693.767	4196.46
693.956	4218.99
694.146	4081.77
694.335	4085.87
694.524	4132.97
694.713	4089.96
694.902	4128.88
695.092	4071.53
695.281	4061.29
695.47	4085.87
695.659	4032.62
695.848	4003.95
696.037	3866.74
696.226	4171.88
696.415	3987.57
696.604	3989.61
696.793	3907.7
696.982	4020.33
697.171	4073.58
697.36	3831.92
697.549	3991.66
697.738	3979.37
697.927	3825.78
698.116	3987.57
698.305	3954.8
698.494	3885.17
698.683	3905.65
698.872	3903.6
699.061	3833.97
699.25	3901.55
699.438	3934.32
699.627	3854.45
699.816	3891.31
700.005	3844.21
700.193	3817.58
700.382	4014.19
700.571	3944.56
700.76	3747.95
700.948	3696.75
701.137	3946.61
701.326	3788.91
701.514	3831.92
701.703	3850.35
701.892	3731.57
702.08	3786.86
702.269	3827.82
702.457	3790.96
702.646	3803.25
702.834	3747.95
703.023	3838.06
703.212	3850.35
703.4	3995.76
703.589	3827.82
703.777	3850.35
703.965	3704.95
704.154	3684.47
704.342	3827.82
704.531	3823.73
704.719	3735.67
704.907	3850.35
705.096	3745.91
705.284	3817.58
705.472	3735.67
705.661	3709.04
705.849	3909.74
706.037	3762.29
706.226	3762.29
706.414	3766.39
706.602	3954.8
706.79	3803.25
706.979	3623.03
707.167	3829.87
707.355	3778.67
707.543	3922.03
707.731	3928.17
707.919	3760.24
708.107	3801.2
708.296	3766.39
708.484	3788.91
708.672	3766.39
708.86	3932.27
709.048	3868.78
709.236	3721.33
709.424	3848.3
709.612	3876.98
709.8	3889.26
709.988	3897.46
710.176	3799.15
710.364	3930.22
710.551	3809.39
710.739	3864.69
710.927	3897.46
711.115	3811.44
711.303	3942.51
711.491	3938.41
711.679	4006
711.866	3866.74
712.054	4020.33
712.242	3860.59
712.43	3821.68
712.617	3750
712.805	3879.02
712.993	3881.07
713.181	3805.3
713.368	3915.89
713.556	3932.27
713.744	3797.1
713.931	4049
714.119	4028.53
714.306	3942.51
714.494	3977.33
714.682	4038.77
714.869	3991.66
715.057	3872.88
715.244	3864.69
715.432	3946.61
715.619	3942.51
715.807	3997.81
715.994	3938.41
716.182	3946.61
716.369	3973.23
716.556	4012.14
716.744	3885.17
716.931	3833.97
717.119	4077.68
717.306	4042.86
717.493	3960.94
717.681	3989.61
717.868	3899.5
718.055	4092.01
718.242	3995.76
718.43	4012.14
718.617	4053.1
718.804	4036.72
718.991	4049
719.179	4214.89
719.366	4065.39
719.553	4196.46
719.74	3983.47
719.927	4108.4
720.114	4206.7
720.301	4145.26
720.488	3930.22
720.676	4057.2
720.863	4065.39
721.05	4096.11
721.237	4110.44
721.424	4046.96
721.611	4118.64
721.798	4116.59
721.985	4130.92
722.172	4147.31
722.358	4200.55
722.545	4194.41
722.732	4270.19
722.919	4169.84
723.106	4102.25
723.293	4040.81
723.48	4171.88
723.667	4118.64
723.853	4051.05
724.04	4182.12
724.227	4135.02
724.414	4057.2
724.6	4096.11
724.787	4268.14
724.974	4040.81
725.161	4122.73
725.347	4141.16
725.534	4237.42
725.72	4143.21
725.907	4194.41
726.094	4153.45
726.28	4130.92
726.467	4149.36
726.653	4100.2
726.84	4300.91
727.027	4081.77
727.213	4079.72
727.4	4184.17
727.586	4202.6
727.773	4180.07
727.959	4135.02
728.145	4243.56
728.332	4184.17
728.518	4135.02
728.705	4182.12
728.891	4235.37
729.077	4311.14
729.264	4243.56
729.45	4077.68
729.636	4229.23
729.823	4292.71
730.009	4169.84
730.195	4120.68
730.382	4204.65
730.568	4165.74
730.754	4188.27
730.94	4255.85
731.126	4313.19
731.313	4302.95
731.499	4249.71
731.685	4360.3
731.871	4268.14
732.057	4235.37
732.243	4366.44
732.429	4198.51
732.615	4241.51
732.801	4237.42
732.987	4313.19
733.173	4321.38
733.359	4221.03
733.545	4218.99
733.731	4194.41
733.917	4345.96
734.103	4307.05
734.289	4305
734.475	4200.55
734.661	4386.92
734.847	4350.06
735.033	4184.17
735.219	4345.96
735.404	4253.8
735.59	4167.79
735.776	4218.99
735.962	4261.99
736.148	4364.39
736.333	4274.28
736.519	4200.55
736.705	4221.03
736.89	4235.37
737.076	4145.26
737.262	4079.72
737.447	4151.4
737.633	4266.09
737.819	4343.91
738.004	4132.97
738.19	4257.9
738.375	4147.31
738.561	4288.62
738.747	3932.27
738.932	4153.45
739.118	4313.19
739.303	4243.56
739.489	4173.93
739.674	4079.72
739.859	4120.68
740.045	4122.73
740.23	4161.64
740.416	4077.68
740.601	4085.87
740.786	4061.29
740.972	4130.92
741.157	3940.46
741.342	4003.95
741.528	4063.34
741.713	3991.66
741.898	3975.28
742.084	3999.85
742.269	3956.85
742.454	3971.18
742.639	4069.48
742.824	3954.8
743.01	3991.66
743.195	3950.7
743.38	3913.84
743.565	3928.17
743.75	3846.26
743.935	3825.78
744.12	3893.36
744.305	3756.15
744.49	3711.09
744.675	3750
744.86	3774.58
745.045	3821.68
745.23	3801.2
745.415	3795.06
745.6	3795.06
745.785	3780.72
745.97	3764.34
746.155	3657.84
746.34	3549.3
746.525	3534.96
746.71	3713.14
746.895	3543.16
747.079	3598.45
747.264	3555.44
747.449	3610.74
747.634	3461.24
747.819	3559.54
748.003	3524.72
748.188	3352.7
748.373	3463.29
748.557	3469.43
748.742	3432.57
748.927	3352.7
749.111	3401.85
749.296	3252.35
749.481	3348.6
749.665	3309.69
749.85	3195
750.034	3289.21
750.219	3299.45
750.404	3145.85
750.588	3108.99
750.773	2977.92
750.957	3111.04
751.141	3221.63
751.326	3074.17
751.51	3043.45
751.695	3068.03
751.879	2975.87
752.064	3184.76
752.248	3018.88
752.432	3041.4
752.617	2928.77
752.801	3010.68
752.985	2828.42
753.17	2863.23
753.354	2867.33
753.538	2816.13
753.722	2939.01
753.907	2795.65
754.091	2777.22
754.275	2867.33
754.459	2691.2
754.643	2744.45
754.828	2769.02
755.012	2588.8
755.196	2680.96
755.38	2644.1
755.564	2642.05
755.748	2640
755.932	2683.01
756.116	2553.99
756.3	2611.33
756.484	2642.05
756.668	2474.12
756.852	2439.3
757.036	2451.59
757.22	2500.74
757.404	2353.29
757.588	2390.15
757.772	2453.64
757.956	2297.99
758.14	2480.26
758.323	2375.81
758.507	2455.69
758.691	2388.1
758.875	2353.29
759.059	2406.53
759.242	2234.5
759.426	2242.7
759.61	2345.09
759.794	2082.95
759.977	2271.37
760.161	2357.38
760.345	2211.98
760.528	2230.41
760.712	2150.54
760.895	2099.34
761.079	2181.26
761.263	2222.22
761.446	2211.98
761.63	2042
761.813	2252.94
761.997	2191.5
762.18	2066.57
762.364	2009.23
762.547	1900.69
762.731	1988.75
762.914	1953.93
763.098	1939.6
763.281	1988.75
763.464	1898.64
763.648	1949.84
763.831	2048.14
764.015	1970.32
764.198	1972.36
764.381	1937.55
764.564	1964.17
764.748	2001.04
764.931	1853.58
765.114	1923.21
765.297	1898.64
765.481	1980.56
765.664	1941.65
765.847	1841.29
766.03	1886.35
766.213	1829.01
766.397	1843.34
766.58	1728.66
766.763	1792.14
766.946	1845.39
767.129	1829.01
767.312	1763.47
767.495	1841.29
767.678	1851.53
767.861	1824.91
768.044	1761.42
768.227	1712.27
768.41	1757.33
768.593	1786
768.776	1849.49
768.959	1693.84
769.142	1769.62
769.324	1636.5
769.507	1720.46
769.69	1636.5
769.873	1693.84
770.056	1761.42
770.239	1671.31
770.421	1579.15
770.604	1609.87
770.787	1532.05
770.97	1675.41
771.152	1628.31
771.335	1601.68
771.518	1542.29
771.7	1597.59
771.883	1573.01
772.066	1697.94
772.248	1431.7
772.431	1689.74
772.613	1487
772.796	1607.83
772.978	1462.42
773.161	1564.82
773.343	1437.84
773.526	1394.84
773.708	1345.69
773.891	1394.84
774.073	1294.49
774.256	1437.84
774.438	1476.76
774.621	1394.84
774.803	1437.84
774.985	1360.02
775.168	1505.43
775.35	1378.45
775.532	1386.65
775.715	1310.87
775.897	1448.08
776.079	1345.69
776.261	1228.95
776.444	1245.34
776.626	1274.01
776.808	1339.54
776.99	1212.57
777.173	1241.24
777.355	1366.17
777.537	1292.44
777.719	1231
777.901	1241.24
778.083	1142.94
778.265	1120.41
778.447	1257.62
778.629	1163.42
778.811	1253.53
778.993	1204.38
779.175	1114.27
779.357	1140.89
779.539	1056.92
779.721	1216.66
779.903	1241.24
780.085	1013.92
780.267	1040.54
780.449	1073.31
780.631	1073.31
780.812	1124.51
780.994	1089.69
781.176	1038.49
781.358	1075.35
781.54	995.48
781.721	1058.97
781.903	1144.99
782.085	981.15
782.267	1120.41
782.448	983.2
782.63	927.9
782.812	927.9
782.993	1007.77
783.175	938.14
783.357	913.56
783.538	999.58
783.72	886.94
783.901	1001.63
784.083	893.09
784.264	876.7
784.446	856.22
784.627	888.99
784.809	858.27
784.99	843.93
785.172	929.95
785.353	888.99
785.535	856.22
785.716	817.31
785.897	776.35
786.079	776.35
786.26	878.75
786.441	784.54
786.623	780.45
786.804	739.49
786.985	778.4
787.167	751.78
787.348	702.62
787.529	800.93
787.71	802.97
787.891	856.22
788.073	743.58
788.254	721.06
788.435	815.26
788.616	829.6
788.797	680.1
788.978	657.57
789.159	641.18
789.34	737.44
789.522	776.35
789.703	682.14
789.884	641.18
790.065	653.47
790.246	776.35
790.427	684.19
790.607	581.79
790.788	716.96
790.969	608.42
791.15	647.33
791.331	608.42
791.512	643.23
791.693	585.89
791.874	659.62
792.054	737.44
792.235	696.48
792.416	528.55
792.597	602.27
792.778	651.42
792.958	665.76
793.139	544.93
793.32	581.79
793.5	610.47
793.681	602.27
793.862	522.4
794.042	520.35
794.223	501.92
794.404	596.13
794.584	491.68
794.765	557.22
794.945	546.98
795.126	653.47
795.306	598.18
795.487	510.11
795.667	467.11
795.848	536.74
796.028	557.22
796.209	485.54
796.389	528.55
796.57	546.98
796.75	540.83
796.93	544.93
797.111	522.4
797.291	411.81
797.471	546.98
797.652	534.69
797.832	465.06
798.012	487.59
798.192	456.87
798.373	448.68
798.553	503.97
798.733	469.16
798.913	440.48
799.093	424.1
799.274	471.2
799.454	499.88
799.634	532.64
799.814	444.58
799.994	514.21
800.174	411.81
800.354	481.44
800.534	374.95
800.714	434.34
800.894	426.15
801.074	397.48
801.254	374.95
801.434	528.55
801.614	385.19
801.794	370.85
801.974	1306.77
802.154	403.62
802.334	489.64
802.514	420
802.693	417.96
802.873	415.91
803.053	426.15
803.233	366.76
803.413	415.91
803.592	374.95
803.772	333.99
803.952	450.72
804.131	420
804.311	473.25
804.491	407.72
804.67	327.85
804.85	374.95
805.03	415.91
805.209	467.11
805.389	360.61
805.568	317.61
805.748	393.38
805.928	401.57
806.107	395.43
806.287	342.18
806.466	391.33
806.646	346.28
806.825	405.67
807.004	301.22
807.184	391.33
807.363	319.65
807.543	401.57
807.722	383.14
807.901	325.8
808.081	366.76
808.26	360.61
808.439	391.33
808.619	317.61
808.798	333.99
808.977	360.61
809.156	340.13
809.336	366.76
809.515	342.18
809.694	331.94
809.873	211.11
810.052	342.18
810.231	387.24
810.411	405.67
810.59	333.99
810.769	364.71
810.948	362.66
811.127	180.39
811.306	338.09
811.485	270.5
811.664	317.61
811.843	299.17
812.022	286.89
812.201	299.17
812.38	331.94
812.559	288.93
812.737	336.04
812.916	254.12
813.095	325.8
813.274	250.02
813.453	276.65
813.632	280.74
813.811	366.76
813.989	295.08
814.168	329.89
814.347	213.16
814.526	260.26
814.704	327.85
814.883	344.23
815.062	227.5
815.24	245.93
815.419	274.6
815.598	313.51
815.776	231.59
815.955	270.5
816.133	159.91
816.312	229.54
816.49	288.93
816.669	293.03
816.847	295.08
817.026	299.17
817.204	207.02
817.383	282.79
817.561	231.59
817.74	184.49
817.918	284.84
818.097	284.84
818.275	209.06
818.453	221.35
818.632	268.45
818.81	237.74
818.988	215.21
819.167	194.73
819.345	231.59
819.523	202.92
819.701	211.11
819.879	278.69
820.058	143.53
820.236	211.11
820.414	141.48
820.592	219.3
820.77	186.54
820.948	268.45
821.127	202.92
821.305	241.83
821.483	147.62
821.661	268.45
821.839	247.97
822.017	254.12
822.195	153.77
822.373	217.26
822.551	174.25
822.729	256.17
822.907	153.77
823.085	221.35
823.262	221.35
823.44	260.26
823.618	186.54
823.796	137.38
823.974	200.87
824.152	155.82
824.329	166.06
824.507	204.97
824.685	147.62
824.863	233.64
825.04	270.5
825.218	141.48
825.396	184.49
825.574	143.53
825.751	159.91
825.929	207.02
826.107	82.09
826.284	215.21
826.462	239.78
826.639	139.43
826.817	200.87
826.994	145.58
827.172	217.26
827.349	135.34
827.527	223.4
827.704	106.67
827.882	264.36
828.059	180.39
828.237	98.47
828.414	270.5
828.591	139.43
828.769	180.39
828.946	147.62
829.124	176.3
829.301	164.01
829.478	155.82
829.655	176.3
829.833	139.43
830.01	176.3
830.187	131.24
830.364	145.58
830.542	129.19
830.719	256.17
830.896	73.9
831.073	174.25
831.25	131.24
831.427	129.19
831.604	180.39
831.782	133.29
831.959	145.58
832.136	166.06
832.313	88.23
832.49	96.43
832.667	149.67
832.844	69.8
833.021	190.63
833.198	96.43
833.374	141.48
833.551	215.21
833.728	34.99
833.905	180.39
834.082	59.56
834.259	155.82
834.436	137.38
834.612	108.71
834.789	180.39
834.966	151.72
835.143	90.28
835.319	41.13
835.496	65.71
835.673	100.52
835.85	188.58
836.026	108.71
836.203	112.81
836.38	106.67
836.556	112.81
836.733	-3.93
836.909	180.39
837.086	82.09
837.262	125.1
837.439	121
837.616	96.43
837.792	161.96
837.968	104.62
838.145	-10.07
838.321	90.28
838.498	55.47
838.674	143.53
838.851	104.62
839.027	90.28
839.203	121
839.38	139.43
839.556	125.1
839.732	143.53
839.909	121
840.085	135.34
840.261	6.31
840.437	96.43
840.614	73.9
840.79	143.53
840.966	100.52
841.142	131.24
841.318	47.27
841.494	155.82
841.671	30.89
841.847	131.24
842.023	73.9
842.199	112.81
842.375	106.67
842.551	67.75
842.727	86.19
842.903	139.43
843.079	71.85
843.255	149.67
843.431	88.23
843.607	157.86
843.783	-20.31
843.959	125.1
844.134	37.03
844.31	196.78
844.486	147.62
844.662	90.28
844.838	71.85
845.013	131.24
845.189	129.19
845.365	80.04
845.541	121
845.716	94.38
845.892	176.3
846.068	-32.6
846.244	39.08
846.419	26.79
846.595	34.99
846.77	65.71
846.946	96.43
847.122	37.03
847.297	82.09
847.473	114.86
847.648	37.03
847.824	34.99
847.999	30.89
848.175	153.77
848.35	133.29
848.526	63.66
848.701	168.1
848.876	71.85
849.052	102.57
849.227	153.77
849.403	22.7
849.578	51.37
849.753	30.89
849.929	82.09
850.104	34.99
850.279	149.67
850.454	145.58
850.63	37.03
850.805	-3.93
850.98	39.08
851.155	90.28
851.33	53.42
851.505	34.99
851.681	147.62
851.856	32.94
852.031	100.52
852.206	47.27
852.381	-51.03
852.556	57.51
852.731	75.95
852.906	71.85
853.081	39.08
853.256	137.38
853.431	100.52
853.606	39.08
853.781	26.79
853.956	14.51
854.131	77.99
854.305	57.51
854.48	80.04
854.655	6.31
854.83	63.66
855.005	18.6
855.18	94.38
855.354	-51.03
855.529	67.75
855.704	84.14
855.879	55.47
856.053	75.95
856.228	22.7
856.403	26.79
856.577	45.23
856.752	37.03
856.926	145.58
857.101	67.75
857.276	47.27
857.45	92.33
857.625	51.37
857.799	71.85
857.974	92.33
858.148	-20.31
858.323	59.56
858.497	26.79
858.672	32.94
858.846	77.99
859.02	59.56
859.195	49.32
859.369	-18.26
859.543	-46.93
859.718	-1.88
859.892	47.27
860.066	65.71
860.241	57.51
860.415	14.51
860.589	96.43
860.763	20.65
860.938	14.51
861.112	123.05
861.286	24.75
861.46	77.99
861.634	-26.45
861.808	49.32
861.982	96.43
862.157	102.57
862.331	41.13
862.505	0.17
862.679	6.31
862.853	10.41
863.027	-16.21
863.201	145.58
863.375	22.7
863.549	32.94
863.722	10.41
863.896	-22.36
864.07	14.51
864.244	57.51
864.418	51.37
864.592	57.51
864.766	0.17
864.939	28.84
865.113	-22.36
865.287	137.38
865.461	39.08
865.634	77.99
865.808	16.55
865.982	14.51
866.156	-12.12
866.329	-8.02
866.503	2.22
866.676	82.09
866.85	59.56
867.024	0.17
867.197	49.32
867.371	63.66
867.544	-10.07
867.718	12.46
867.891	49.32
868.065	-75.6
868.238	-10.07
868.412	-22.36
868.585	26.79
868.759	-8.02
868.932	-14.17
869.105	-53.08
869.279	26.79
869.452	10.41
869.625	98.47
869.799	-1.88
869.972	-8.02
870.145	55.47
870.319	65.71
870.492	-26.45
870.665	75.95
870.838	39.08
871.011	-87.89
871.185	-20.31
871.358	8.36
871.531	131.24
871.704	63.66
871.877	55.47
872.05	22.7
872.223	-12.12
872.396	127.14
872.569	108.71
872.742	-30.55
872.915	65.71
873.088	-30.55
873.261	0.17
873.434	65.71
873.607	84.14
873.78	0.17
873.953	14.51
874.126	-12.12
874.299	8.36
874.471	86.19
874.644	2.22
874.817	57.51
874.99	82.09
875.163	-48.98
875.335	-34.64
875.508	92.33
875.681	88.23
875.853	-14.17
876.026	22.7
876.199	63.66
876.371	37.03
876.544	-24.4
876.717	-10.07
876.889	26.79
877.062	39.08
877.234	39.08
877.407	8.36
877.579	2.22
877.752	71.85
877.924	57.51
878.097	18.6
878.269	-14.17
878.442	47.27
878.614	26.79
878.786	57.51
878.959	88.23
879.131	51.37
879.303	-59.22
879.476	39.08
879.648	16.55
879.82	65.71
879.993	-28.5
880.165	37.03
880.337	26.79
880.509	55.47
880.681	-16.21
880.854	-12.12
881.026	39.08
881.198	96.43
881.37	14.51
881.542	10.41
881.714	-3.93
881.886	49.32
882.058	-1.88
882.23	-16.21
882.402	2.22
882.574	131.24
882.746	49.32
882.918	63.66
883.09	34.99
883.262	0.17
883.434	-51.03
883.606	-59.22
883.778	-77.65
883.95	96.43
884.122	-24.4
884.293	69.8
884.465	49.32
884.637	34.99
884.809	-40.79
884.98	90.28
885.152	4.27
885.324	20.65
885.496	-12.12
885.667	-44.88
885.839	-14.17
886.011	80.04
886.182	133.29
886.354	-20.31
886.525	92.33
886.697	59.56
886.869	-26.45
887.04	-91.99
887.212	28.84
887.383	141.48
887.555	47.27
887.726	30.89
887.897	24.75
888.069	-38.74
888.24	67.75
888.412	24.75
888.583	57.51
888.754	22.7
888.926	37.03
889.097	-1.88
889.268	-24.4
889.44	34.99
889.611	-46.93
889.782	8.36
889.953	-65.36
890.125	80.04
890.296	-32.6
890.467	-48.98
890.638	2.22
890.809	10.41
890.98	-48.98
891.151	-38.74
891.323	22.7
891.494	2.22
891.665	14.51
891.836	69.8
892.007	-8.02
892.178	47.27
892.349	8.36
892.52	20.65
892.691	-32.6
892.862	6.31
893.032	-42.84
893.203	-16.21
893.374	-32.6
893.545	47.27
893.716	6.31
893.887	26.79
894.057	0.17
894.228	34.99
894.399	0.17
894.57	47.27
894.74	10.41
894.911	73.9
895.082	47.27
895.253	32.94
895.423	-8.02
895.594	71.85
895.764	51.37
895.935	-44.88
896.106	59.56
896.276	-20.31
896.447	-67.41
896.617	-1.88
896.788	-10.07
896.958	8.36
897.129	28.84
897.299	0.17
897.47	41.13
897.64	-36.69
897.81	-28.5
897.981	73.9
898.151	-46.93
898.322	20.65
898.492	34.99
898.662	-75.6
898.832	-30.55
899.003	-61.27
899.173	14.51
899.343	14.51
899.513	-42.84
