Data from USB4F104151__194__11-05-24-132.txt Node

Date: Wed Feb 26 11:05:24 EST 2025
User: louis
Spectrometer: USB4F10415
Trigger mode: 4
Integration Time (sec): 1.000000E-1
Scans to average: 1
Electric dark correction enabled: true
Nonlinearity correction enabled: false
Boxcar width: 0
XAxis mode: Wavelengths
Number of Pixels in Spectrum: 3648
>>>>>Begin Spectral Data<<<<<
178.204	-381.6
178.424	-381.6
178.644	-381.6
178.864	-432.8
179.084	-420.52
179.304	-70.31
179.524	71
179.744	27.99
179.964	-4.78
180.184	-21.16
180.404	71
180.624	-80.55
180.844	38.23
181.064	-37.55
181.283	21.84
181.503	-82.6
181.723	66.9
181.943	-27.31
182.163	222.55
182.383	-8.87
182.602	71
182.822	191.83
183.042	-23.21
183.262	-51.88
183.482	-21.16
183.701	66.9
183.921	89.43
184.141	-33.45
184.361	81.24
184.58	54.61
184.8	66.9
185.02	-23.21
185.239	114
185.459	58.71
185.679	118.1
185.898	-129.7
186.118	58.71
186.338	60.76
186.557	169.3
186.777	-31.4
186.997	-27.31
187.216	-10.92
187.436	185.68
187.655	120.15
187.875	83.28
188.095	-8.87
188.314	79.19
188.534	126.29
188.753	-33.45
188.973	75.09
189.192	189.78
189.412	-4.78
189.631	3.41
189.851	32.08
190.07	142.68
190.29	-35.5
190.509	-55.98
190.729	-8.87
190.948	111.96
191.168	177.49
191.387	89.43
191.607	-35.5
191.826	73.04
192.045	17.75
192.265	17.75
192.484	-33.45
192.704	46.42
192.923	-105.13
193.142	187.73
193.362	64.85
193.581	200.02
193.8	48.47
194.02	91.48
194.239	71
194.458	36.18
194.678	1.37
194.897	3.41
195.116	-4.78
195.335	44.37
195.555	99.67
195.774	-72.36
195.993	93.52
196.212	15.7
196.432	11.61
196.651	-31.4
196.87	-0.68
197.089	228.69
197.308	73.04
197.528	60.76
197.747	-37.55
197.966	19.8
198.185	85.33
198.404	-33.45
198.623	50.52
198.842	159.06
199.062	64.85
199.281	114
199.5	54.61
199.719	66.9
199.938	48.47
200.157	5.46
200.376	66.9
200.595	124.24
200.814	34.13
201.033	77.14
201.252	146.77
201.471	11.61
201.69	50.52
201.909	7.51
202.128	99.67
202.347	79.19
202.566	1.37
202.785	-51.88
203.004	-43.69
203.223	206.16
203.442	54.61
203.661	-15.02
203.879	48.47
204.098	277.84
204.317	-76.46
204.536	91.48
204.755	97.62
204.974	17.75
205.193	-41.64
205.411	105.81
205.63	134.48
205.849	15.7
206.068	-17.07
206.287	-19.11
206.505	93.52
206.724	-62.12
206.943	-31.4
207.162	19.8
207.381	-15.02
207.599	-39.59
207.818	46.42
208.037	-29.35
208.255	95.57
208.474	62.8
208.693	40.28
208.911	83.28
209.13	62.8
209.349	-21.16
209.567	9.56
209.786	93.52
210.005	68.95
210.223	77.14
210.442	-101.03
210.661	38.23
210.879	111.96
211.098	27.99
211.316	7.51
211.535	60.76
211.753	23.89
211.972	9.56
212.191	38.23
212.409	1.37
212.628	38.23
212.846	27.99
213.065	-12.97
213.283	-8.87
213.502	81.24
213.72	1.37
213.938	-17.07
214.157	-0.68
214.375	134.48
214.594	58.71
214.812	75.09
215.031	23.89
215.249	-15.02
215.467	21.84
215.686	-19.11
215.904	114
216.122	126.29
216.341	173.39
216.559	1.37
216.778	163.15
216.996	105.81
217.214	11.61
217.432	44.37
217.651	-53.93
217.869	71
218.087	-41.64
218.306	-23.21
218.524	66.9
218.742	89.43
218.96	75.09
219.179	-33.45
219.397	-62.12
219.615	181.59
219.833	73.04
220.051	-96.94
220.27	50.52
220.488	128.34
220.706	52.56
220.924	15.7
221.142	3.41
221.36	38.23
221.578	124.24
221.796	-25.26
222.015	17.75
222.233	11.61
222.451	138.58
222.669	-37.55
222.887	56.66
223.105	-35.5
223.323	44.37
223.541	-41.64
223.759	44.37
223.977	32.08
224.195	152.91
224.413	44.37
224.631	5.46
224.849	73.04
225.067	200.02
225.285	-12.97
225.503	23.89
225.721	-129.7
225.939	114
226.157	25.94
226.375	294.22
226.592	46.42
226.81	77.14
227.028	111.96
227.246	124.24
227.464	40.28
227.682	58.71
227.9	60.76
228.117	34.13
228.335	103.76
228.553	-17.07
228.771	13.65
228.989	25.94
229.206	56.66
229.424	25.94
229.642	-29.35
229.86	-49.83
230.077	163.15
230.295	1.37
230.513	134.48
230.731	-17.07
230.948	138.58
231.166	202.07
231.384	48.47
231.601	-70.31
231.819	183.63
232.037	34.13
232.254	13.65
232.472	-55.98
232.689	71
232.907	87.38
233.125	-64.17
233.342	1.37
233.56	-8.87
233.777	-39.59
233.995	5.46
234.213	142.68
234.43	3.41
234.648	52.56
234.865	-76.46
235.083	50.52
235.3	-10.92
235.518	27.99
235.735	138.58
235.953	64.85
236.17	60.76
236.388	66.9
236.605	-23.21
236.822	54.61
237.04	-19.11
237.257	68.95
237.475	-31.4
237.692	60.76
237.909	52.56
238.127	42.32
238.344	40.28
238.562	27.99
238.779	-107.18
238.996	-8.87
239.214	3.41
239.431	177.49
239.648	-70.31
239.865	27.99
240.083	-39.59
240.3	-49.83
240.517	-27.31
240.735	19.8
240.952	128.34
241.169	-53.93
241.386	124.24
241.603	-66.22
241.821	-70.31
242.038	5.46
242.255	40.28
242.472	1.37
242.689	38.23
242.907	60.76
243.124	83.28
243.341	15.7
243.558	27.99
243.775	-47.79
243.992	15.7
244.209	95.57
244.426	185.68
244.643	111.96
244.86	-37.55
245.078	60.76
245.295	30.04
245.512	30.04
245.729	-101.03
245.946	128.34
246.163	89.43
246.38	56.66
246.597	44.37
246.814	-60.07
247.031	79.19
247.248	19.8
247.464	71
247.681	73.04
247.898	95.57
248.115	13.65
248.332	-8.87
248.549	118.1
248.766	91.48
248.983	89.43
249.2	73.04
249.417	32.08
249.633	56.66
249.85	38.23
250.067	79.19
250.284	13.65
250.501	60.76
250.717	50.52
250.934	-29.35
251.151	-31.4
251.368	27.99
251.585	85.33
251.801	34.13
252.018	-82.6
252.235	56.66
252.451	1.37
252.668	40.28
252.885	152.91
253.102	-4.78
253.318	40.28
253.535	60.76
253.752	44.37
253.968	30.04
254.185	-29.35
254.401	54.61
254.618	68.95
254.835	-15.02
255.051	93.52
255.268	48.47
255.484	103.76
255.701	-27.31
255.917	19.8
256.134	-70.31
256.351	27.99
256.567	-80.55
256.784	-29.35
257	-58.03
257.217	122.2
257.433	175.44
257.65	32.08
257.866	105.81
258.082	-72.36
258.299	-55.98
258.515	128.34
258.732	27.99
258.948	-21.16
259.165	5.46
259.381	-37.55
259.597	97.62
259.814	-2.73
260.03	54.61
260.246	17.75
260.463	11.61
260.679	163.15
260.895	32.08
261.112	114
261.328	32.08
261.544	-55.98
261.761	111.96
261.977	83.28
262.193	-49.83
262.409	128.34
262.626	13.65
262.842	-6.83
263.058	-64.17
263.274	75.09
263.49	48.47
263.707	138.58
263.923	32.08
264.139	-74.41
264.355	58.71
264.571	-12.97
264.787	15.7
265.004	30.04
265.22	-29.35
265.436	3.41
265.652	40.28
265.868	77.14
266.084	-37.55
266.3	83.28
266.516	-39.59
266.732	85.33
266.948	46.42
267.164	27.99
267.38	81.24
267.596	101.72
267.812	109.91
268.028	-0.68
268.244	23.89
268.46	42.32
268.676	23.89
268.892	52.56
269.108	-78.51
269.324	3.41
269.54	-86.7
269.756	64.85
269.972	-0.68
270.188	1.37
270.403	1.37
270.619	17.75
270.835	132.44
271.051	85.33
271.267	50.52
271.483	-70.31
271.698	105.81
271.914	-33.45
272.13	30.04
272.346	-23.21
272.562	73.04
272.777	150.87
272.993	48.47
273.209	44.37
273.425	5.46
273.64	3.41
273.856	81.24
274.072	85.33
274.287	58.71
274.503	58.71
274.719	54.61
274.934	-19.11
275.15	-76.46
275.366	66.9
275.581	5.46
275.797	52.56
276.012	19.8
276.228	-31.4
276.444	42.32
276.659	189.78
276.875	17.75
277.09	36.18
277.306	15.7
277.521	97.62
277.737	27.99
277.952	77.14
278.168	-51.88
278.383	1.37
278.599	27.99
278.814	136.53
279.03	9.56
279.245	157.01
279.461	81.24
279.676	83.28
279.892	-2.73
280.107	-107.18
280.322	-86.7
280.538	34.13
280.753	-29.35
280.969	9.56
281.184	21.84
281.399	126.29
281.615	23.89
281.83	85.33
282.045	-78.51
282.26	38.23
282.476	1.37
282.691	68.95
282.906	3.41
283.122	79.19
283.337	-84.65
283.552	21.84
283.767	32.08
283.983	116.05
284.198	19.8
284.413	85.33
284.628	-70.31
284.843	46.42
285.058	17.75
285.274	-66.22
285.489	-15.02
285.704	109.91
285.919	1.37
286.134	-12.97
286.349	30.04
286.564	-45.74
286.779	105.81
286.995	3.41
287.21	-105.13
287.425	109.91
287.64	60.76
287.855	48.47
288.07	-51.88
288.285	71
288.5	118.1
288.715	93.52
288.93	-19.11
289.145	-39.59
289.36	64.85
289.575	3.41
289.79	40.28
290.004	-4.78
290.219	122.2
290.434	68.95
290.649	-8.87
290.864	1.37
291.079	17.75
291.294	62.8
291.509	93.52
291.724	1.37
291.938	-0.68
292.153	60.76
292.368	-6.83
292.583	21.84
292.798	81.24
293.012	85.33
293.227	38.23
293.442	36.18
293.657	38.23
293.871	77.14
294.086	-15.02
294.301	197.97
294.516	202.07
294.73	58.71
294.945	15.7
295.16	46.42
295.374	134.48
295.589	38.23
295.804	64.85
296.018	83.28
296.233	99.67
296.447	68.95
296.662	-60.07
296.877	132.44
297.091	163.15
297.306	7.51
297.52	-4.78
297.735	42.32
297.949	-12.97
298.164	-15.02
298.378	-0.68
298.593	-76.46
298.807	15.7
299.022	54.61
299.236	175.44
299.451	-25.26
299.665	56.66
299.88	105.81
300.094	58.71
300.309	36.18
300.523	48.47
300.737	15.7
300.952	87.38
301.166	56.66
301.381	-35.5
301.595	7.51
301.809	64.85
302.024	75.09
302.238	7.51
302.452	134.48
302.667	-4.78
302.881	85.33
303.095	54.61
303.309	107.86
303.524	46.42
303.738	-10.92
303.952	-37.55
304.166	93.52
304.381	-43.69
304.595	91.48
304.809	-35.5
305.023	40.28
305.237	50.52
305.452	-84.65
305.666	136.53
305.88	79.19
306.094	38.23
306.308	107.86
306.522	54.61
306.736	101.72
306.95	132.44
307.164	-60.07
307.379	50.52
307.593	187.73
307.807	148.82
308.021	101.72
308.235	36.18
308.449	-121.51
308.663	50.52
308.877	269.65
309.091	36.18
309.305	56.66
309.519	-62.12
309.733	81.24
309.947	-45.74
310.161	-12.97
310.374	40.28
310.588	124.24
310.802	-31.4
311.016	89.43
311.23	13.65
311.444	-53.93
311.658	-17.07
311.872	132.44
312.085	210.26
312.299	91.48
312.513	95.57
312.727	62.8
312.941	11.61
313.154	15.7
313.368	21.84
313.582	52.56
313.796	73.04
314.009	-51.88
314.223	120.15
314.437	11.61
314.651	89.43
314.864	-23.21
315.078	19.8
315.292	-41.64
315.505	40.28
315.719	73.04
315.933	7.51
316.146	56.66
316.36	25.94
316.573	130.39
316.787	36.18
317.001	-8.87
317.214	-84.65
317.428	-45.74
317.641	-19.11
317.855	105.81
318.068	36.18
318.282	58.71
318.495	185.68
318.709	85.33
318.922	-19.11
319.136	124.24
319.349	114
319.563	48.47
319.776	107.86
319.99	-133.8
320.203	124.24
320.417	13.65
320.63	50.52
320.843	167.25
321.057	75.09
321.27	56.66
321.483	85.33
321.697	109.91
321.91	95.57
322.124	66.9
322.337	17.75
322.55	-4.78
322.763	-0.68
322.977	-29.35
323.19	62.8
323.403	62.8
323.617	27.99
323.83	79.19
324.043	48.47
324.256	-2.73
324.469	-17.07
324.683	87.38
324.896	-10.92
325.109	7.51
325.322	-43.69
325.535	85.33
325.748	87.38
325.962	-6.83
326.175	81.24
326.388	52.56
326.601	134.48
326.814	-10.92
327.027	83.28
327.24	163.15
327.453	-37.55
327.666	50.52
327.879	83.28
328.092	13.65
328.305	73.04
328.518	44.37
328.731	-31.4
328.944	5.46
329.157	38.23
329.37	32.08
329.583	159.06
329.796	66.9
330.009	-70.31
330.222	66.9
330.435	83.28
330.648	97.62
330.861	58.71
331.073	81.24
331.286	71
331.499	48.47
331.712	-0.68
331.925	56.66
332.138	103.76
332.35	64.85
332.563	-53.93
332.776	107.86
332.989	-37.55
333.202	38.23
333.414	85.33
333.627	68.95
333.84	-47.79
334.053	42.32
334.265	36.18
334.478	23.89
334.691	75.09
334.903	38.23
335.116	-8.87
335.329	13.65
335.541	52.56
335.754	148.82
335.966	-84.65
336.179	27.99
336.392	-58.03
336.604	9.56
336.817	66.9
337.029	52.56
337.242	11.61
337.454	13.65
337.667	109.91
337.88	195.92
338.092	58.71
338.305	36.18
338.517	-12.97
338.729	71
338.942	146.77
339.154	-86.7
339.367	-62.12
339.579	3.41
339.792	-55.98
340.004	27.99
340.217	58.71
340.429	7.51
340.641	-39.59
340.854	-19.11
341.066	-31.4
341.278	114
341.491	136.53
341.703	-2.73
341.915	34.13
342.128	83.28
342.34	19.8
342.552	-19.11
342.764	-15.02
342.977	-8.87
343.189	81.24
343.401	116.05
343.613	-33.45
343.826	30.04
344.038	-148.14
344.25	83.28
344.462	38.23
344.674	-27.31
344.886	32.08
345.099	40.28
345.311	105.81
345.523	-55.98
345.735	-80.55
345.947	87.38
346.159	23.89
346.371	-53.93
346.583	7.51
346.795	177.49
347.007	-31.4
347.219	75.09
347.431	56.66
347.643	122.2
347.855	-17.07
348.067	152.91
348.279	-37.55
348.491	-15.02
348.703	91.48
348.915	-6.83
349.127	7.51
349.339	1.37
349.551	25.94
349.763	91.48
349.975	97.62
350.187	146.77
350.399	163.15
350.61	68.95
350.822	-31.4
351.034	71
351.246	111.96
351.458	68.95
351.669	107.86
351.881	34.13
352.093	97.62
352.305	116.05
352.517	60.76
352.728	138.58
352.94	30.04
353.152	38.23
353.363	-74.41
353.575	97.62
353.787	212.31
353.999	68.95
354.21	91.48
354.422	75.09
354.633	21.84
354.845	-53.93
355.057	87.38
355.268	9.56
355.48	99.67
355.692	15.7
355.903	58.71
356.115	36.18
356.326	-78.51
356.538	167.25
356.749	52.56
356.961	218.45
357.172	46.42
357.384	-45.74
357.595	243.03
357.807	46.42
358.018	-17.07
358.23	-0.68
358.441	189.78
358.653	89.43
358.864	-8.87
359.075	17.75
359.287	-23.21
359.498	85.33
359.709	64.85
359.921	50.52
360.132	46.42
360.344	50.52
360.555	-10.92
360.766	32.08
360.977	50.52
361.189	77.14
361.4	-49.83
361.611	79.19
361.823	204.11
362.034	-23.21
362.245	19.8
362.456	25.94
362.667	15.7
362.879	68.95
363.09	38.23
363.301	50.52
363.512	30.04
363.723	103.76
363.935	-113.32
364.146	85.33
364.357	85.33
364.568	5.46
364.779	-90.79
364.99	126.29
365.201	-0.68
365.412	107.86
365.623	-29.35
365.834	116.05
366.045	25.94
366.256	56.66
366.467	66.9
366.678	-21.16
366.889	161.11
367.1	30.04
367.311	152.91
367.522	1.37
367.733	111.96
367.944	64.85
368.155	1.37
368.366	50.52
368.577	73.04
368.788	111.96
368.999	-39.59
369.209	79.19
369.42	257.36
369.631	259.41
369.842	42.32
370.053	32.08
370.264	32.08
370.474	56.66
370.685	66.9
370.896	-68.27
371.107	79.19
371.317	40.28
371.528	17.75
371.739	146.77
371.95	44.37
372.16	32.08
372.371	-29.35
372.582	3.41
372.792	99.67
373.003	27.99
373.214	52.56
373.424	111.96
373.635	-4.78
373.846	101.72
374.056	128.34
374.267	114
374.477	68.95
374.688	44.37
374.898	38.23
375.109	30.04
375.319	81.24
375.53	97.62
375.74	173.39
375.951	-45.74
376.161	56.66
376.372	87.38
376.582	38.23
376.793	17.75
377.003	44.37
377.214	-68.27
377.424	58.71
377.635	13.65
377.845	-27.31
378.055	165.2
378.266	-55.98
378.476	-0.68
378.686	48.47
378.897	136.53
379.107	126.29
379.317	-6.83
379.528	-10.92
379.738	95.57
379.948	21.84
380.158	52.56
380.369	-29.35
380.579	52.56
380.789	13.65
380.999	32.08
381.21	56.66
381.42	206.16
381.63	73.04
381.84	95.57
382.05	38.23
382.261	52.56
382.471	144.72
382.681	48.47
382.891	159.06
383.101	25.94
383.311	-49.83
383.521	3.41
383.731	118.1
383.941	204.11
384.151	103.76
384.361	-37.55
384.571	11.61
384.781	54.61
384.991	179.54
385.201	138.58
385.411	73.04
385.621	-35.5
385.831	38.23
386.041	30.04
386.251	44.37
386.461	66.9
386.671	30.04
386.881	15.7
387.091	23.89
387.301	81.24
387.511	15.7
387.72	97.62
387.93	95.57
388.14	-88.75
388.35	52.56
388.56	124.24
388.769	85.33
388.979	5.46
389.189	-90.79
389.399	-53.93
389.609	101.72
389.818	77.14
390.028	91.48
390.238	58.71
390.447	23.89
390.657	21.84
390.867	3.41
391.076	-101.03
391.286	71
391.496	1.37
391.705	19.8
391.915	126.29
392.125	118.1
392.334	-45.74
392.544	62.8
392.753	50.52
392.963	25.94
393.172	21.84
393.382	-51.88
393.591	165.2
393.801	-72.36
394.01	197.97
394.22	97.62
394.429	60.76
394.639	68.95
394.848	73.04
395.058	21.84
395.267	79.19
395.477	150.87
395.686	19.8
395.895	130.39
396.105	197.97
396.314	46.42
396.524	25.94
396.733	-21.16
396.942	105.81
397.152	58.71
397.361	81.24
397.57	79.19
397.78	30.04
397.989	-15.02
398.198	140.63
398.407	7.51
398.617	7.51
398.826	3.41
399.035	5.46
399.244	122.2
399.453	85.33
399.663	103.76
399.872	25.94
400.081	-6.83
400.29	116.05
400.499	-0.68
400.708	91.48
400.917	42.32
401.127	9.56
401.336	-10.92
401.545	165.2
401.754	154.96
401.963	144.72
402.172	-6.83
402.381	62.8
402.59	58.71
402.799	23.89
403.008	116.05
403.217	44.37
403.426	58.71
403.635	-68.27
403.844	103.76
404.053	-8.87
404.262	3.41
404.471	154.96
404.68	97.62
404.888	52.56
405.097	58.71
405.306	68.95
405.515	83.28
405.724	50.52
405.933	91.48
406.142	83.28
406.35	124.24
406.559	58.71
406.768	-10.92
406.977	189.78
407.185	25.94
407.394	17.75
407.603	-78.51
407.812	52.56
408.02	109.91
408.229	19.8
408.438	42.32
408.646	-113.32
408.855	48.47
409.064	87.38
409.272	68.95
409.481	40.28
409.69	50.52
409.898	-33.45
410.107	68.95
410.315	124.24
410.524	-29.35
410.733	73.04
410.941	73.04
411.15	50.52
411.358	56.66
411.567	85.33
411.775	52.56
411.984	34.13
412.192	44.37
412.401	46.42
412.609	187.73
412.818	120.15
413.026	154.96
413.234	27.99
413.443	15.7
413.651	-6.83
413.86	48.47
414.068	138.58
414.276	177.49
414.485	-55.98
414.693	152.91
414.901	202.07
415.11	154.96
415.318	9.56
415.526	58.71
415.734	105.81
415.943	85.33
416.151	124.24
416.359	46.42
416.567	75.09
416.776	138.58
416.984	181.59
417.192	175.44
417.4	40.28
417.608	34.13
417.817	-45.74
418.025	144.72
418.233	148.82
418.441	-45.74
418.649	1.37
418.857	52.56
419.065	161.11
419.273	17.75
419.481	58.71
419.689	56.66
419.897	-2.73
420.105	-66.22
420.313	126.29
420.521	132.44
420.729	116.05
420.937	87.38
421.145	40.28
421.353	77.14
421.561	122.2
421.769	126.29
421.977	-12.97
422.185	146.77
422.393	58.71
422.601	150.87
422.809	7.51
423.017	60.76
423.224	17.75
423.432	140.63
423.64	68.95
423.848	85.33
424.056	9.56
424.263	93.52
424.471	93.52
424.679	157.01
424.887	-47.79
425.094	157.01
425.302	48.47
425.51	64.85
425.718	197.97
425.925	81.24
426.133	-17.07
426.341	232.79
426.548	38.23
426.756	44.37
426.964	142.68
427.171	50.52
427.379	120.15
427.586	105.81
427.794	73.04
428.001	220.5
428.209	75.09
428.417	214.35
428.624	171.35
428.832	83.28
429.039	150.87
429.247	91.48
429.454	91.48
429.662	193.87
429.869	124.24
430.076	109.91
430.284	154.96
430.491	243.03
430.699	169.3
430.906	294.22
431.114	175.44
431.321	175.44
431.528	175.44
431.736	144.72
431.943	159.06
432.15	286.03
432.358	210.26
432.565	281.94
432.772	11.61
432.979	224.59
433.187	167.25
433.394	216.4
433.601	116.05
433.808	269.65
434.016	189.78
434.223	273.75
434.43	288.08
434.637	228.69
434.844	232.79
435.052	208.21
435.259	283.98
435.466	335.18
435.673	236.88
435.88	347.47
436.087	419.15
436.294	374.1
436.501	380.24
436.708	273.75
436.915	294.22
437.122	429.39
437.329	294.22
437.537	333.14
437.743	402.77
437.95	484.69
438.157	384.34
438.364	505.17
438.571	380.24
438.778	417.1
438.985	478.54
439.192	519.5
439.399	439.63
439.606	441.68
439.813	576.84
440.02	613.71
440.227	728.39
440.433	646.48
440.64	546.12
440.847	537.93
441.054	628.04
441.261	847.18
441.467	689.48
441.674	728.39
441.881	722.25
442.088	683.34
442.294	814.41
442.501	857.42
442.708	949.57
442.914	804.17
443.121	861.51
443.328	931.14
443.534	1021.25
443.741	1015.11
443.948	824.65
444.154	1099.08
444.361	1342.78
444.568	1129.8
444.774	1115.46
444.981	1146.18
445.187	1283.39
445.394	1314.11
445.6	1273.15
445.807	1336.64
446.013	1422.66
446.22	1316.16
446.426	1430.85
446.633	1641.79
446.839	1828.15
447.046	1600.83
447.252	1901.88
447.459	1791.29
447.665	1701.18
447.871	2075.96
448.078	2141.49
448.284	2047.29
448.491	2114.87
448.697	2266.42
448.903	2374.96
449.11	2381.1
449.316	2346.29
449.522	2557.23
449.728	2731.31
449.935	2837.8
450.141	2923.82
450.347	3132.71
450.553	2903.34
450.76	3132.71
450.966	3339.55
451.172	3380.51
451.378	3487.01
451.584	3568.93
451.791	3820.83
451.997	3941.66
452.203	4066.58
452.409	4121.88
452.615	4422.93
452.821	4263.19
453.027	4379.92
453.233	4824.33
453.44	4787.47
453.646	4828.43
453.852	5158.15
454.058	5403.91
454.264	5514.5
454.47	5848.32
454.676	5950.71
454.882	6378.74
455.088	6237.43
455.294	6468.85
455.5	6941.93
455.705	7314.66
455.911	7333.09
456.117	7597.28
456.323	7843.04
456.529	7720.16
456.735	8662.23
456.941	8744.14
457.147	9241.8
457.352	9358.53
457.558	9546.95
457.764	10325.18
457.97	10233.02
458.176	10738.87
458.381	11431.08
458.587	11474.09
458.793	12100.76
458.999	12117.15
459.204	13696.13
459.41	14412.92
459.616	14103.68
459.821	14857.33
460.027	15414.38
460.233	16116.83
460.438	16227.42
460.644	17222.73
460.85	17398.86
461.055	17951.81
461.261	18971.7
461.466	18504.76
461.672	18926.64
461.878	20816.92
462.083	20829.21
462.289	21208.08
462.494	21818.38
462.7	22152.2
462.905	22563.84
463.111	24298.47
463.316	25666.51
463.522	25684.94
463.727	26747.84
463.932	27990.95
464.138	28609.44
464.343	30131.08
464.549	30032.78
464.754	32263.02
464.959	32785.25
465.165	33137.5
465.37	33448.79
465.575	33282.91
465.781	35896.11
465.986	36725.54
466.191	36084.53
466.397	36139.82
466.602	35468.09
466.807	37366.56
467.012	38382.35
467.218	38658.82
467.423	39136
467.628	39703.29
467.833	41679.58
468.038	40776.42
468.244	40403.69
468.449	42687.18
468.654	41452.25
468.859	41736.92
469.064	41521.88
469.269	40616.68
469.474	40991.46
469.679	42410.7
469.885	40680.17
470.09	41366.24
470.295	41601.75
470.5	40631.02
470.705	40557.29
470.91	39729.91
471.115	39518.97
471.32	40129.26
471.525	39848.69
471.73	38238.99
471.935	38421.26
472.139	36987.68
472.344	37006.11
472.549	36893.47
472.754	35793.72
472.959	35119.93
473.164	34333.51
473.369	33352.54
473.574	34397
473.778	33835.86
473.983	33080.16
474.188	32766.82
474.393	30925.69
474.598	31173.5
474.802	30186.38
475.007	29604.75
475.212	29473.68
475.417	28386.21
475.621	28212.13
475.826	27448.24
476.031	27284.4
476.235	26827.71
476.44	26729.41
476.645	25899.98
476.849	25560.02
477.054	25344.98
477.259	24437.73
477.463	24558.56
477.668	23792.62
477.872	23991.27
478.077	23442.42
478.282	22756.35
478.486	22299.65
478.691	22207.49
478.895	22172.67
479.1	21722.12
479.304	21517.32
479.509	20909.08
479.713	21079.06
479.918	20993.04
480.122	20227.1
480.326	20544.54
480.531	20708.38
480.735	20157.47
480.94	19551.27
481.144	20376.61
481.348	19307.57
481.553	19553.32
481.757	18973.75
481.961	19475.5
482.166	18961.46
482.37	18906.16
482.574	18652.22
482.778	18738.23
482.983	18846.77
483.187	18629.69
483.391	18357.31
483.595	17880.13
483.8	17704.01
484.004	18023.49
484.208	17605.7
484.412	17607.75
484.616	17124.43
484.821	16995.41
485.025	16536.66
485.229	16802.9
485.433	16389.21
485.637	16352.35
485.841	15944.8
486.045	15830.12
486.249	15715.43
486.453	15402.09
486.657	15139.95
486.861	14982.26
487.065	14564.47
487.269	14595.19
487.473	13993.09
487.677	14423.16
487.881	14109.82
488.085	13712.52
488.289	13722.76
488.493	12956.82
488.697	13120.65
488.901	12911.76
489.105	12473.5
489.309	12235.93
489.512	12188.83
489.716	11861.15
489.92	11574.44
490.124	11453.61
490.328	11459.75
490.531	11127.98
490.735	11044.01
490.939	10652.85
491.143	10781.87
491.346	10159.29
491.55	10177.72
491.754	10087.61
491.958	10001.6
492.161	9671.87
492.365	9567.43
492.569	9235.66
492.772	9290.95
492.976	9239.75
493.18	8813.77
493.383	9045.2
493.587	8824.01
493.79	8694.99
493.994	8434.9
494.197	8381.65
494.401	8510.68
494.605	8096.99
494.808	8316.12
495.012	8219.86
495.215	8232.15
495.419	8092.89
495.622	7988.44
495.825	7910.62
496.029	8027.35
496.232	8119.51
496.436	7795.93
496.639	8148.18
496.843	7744.74
497.046	7859.42
497.249	7990.49
497.453	7865.57
497.656	7732.45
497.859	7773.41
498.063	7847.13
498.266	8072.41
498.469	7705.82
498.673	7965.92
498.876	7861.47
499.079	8021.21
499.282	8105.18
499.485	8295.64
499.689	8119.51
499.892	8168.66
500.095	7990.49
500.298	8348.89
500.501	8101.08
500.705	8402.13
500.908	8344.79
501.111	8471.76
501.314	8684.75
501.517	8735.95
501.72	8924.37
501.923	8752.34
502.126	8893.65
502.329	9057.48
502.532	9137.35
502.735	9209.03
502.938	9604.29
503.141	9407.69
503.344	9485.51
503.547	9635.01
503.75	9761.98
503.953	9839.81
504.156	10007.74
504.359	10398.9
504.562	10431.67
504.765	10486.97
504.968	10550.45
505.17	10757.3
505.373	10751.15
505.576	11216.04
505.779	11287.72
505.982	11289.77
506.185	11682.98
506.387	11891.87
506.59	11992.22
506.793	12424.34
506.996	12287.13
507.198	12623
507.401	12930.19
507.604	13065.36
507.807	13425.8
508.009	13673.6
508.212	13819.01
508.415	13995.14
508.617	14482.55
508.82	14697.59
509.022	15023.22
509.225	15109.23
509.428	15740.01
509.63	15787.11
509.833	16213.09
510.035	16919.64
510.238	16782.42
510.44	17171.54
510.643	17458.25
510.845	18332.73
511.048	18156.61
511.25	18852.92
511.453	19129.39
511.655	19858.47
511.858	20118.56
512.06	20569.12
512.262	20884.5
512.465	21300.24
512.667	21871.62
512.87	22213.63
513.072	22656
513.274	23481.33
513.477	23999.46
513.679	24529.89
513.881	25000.92
514.084	25461.71
514.286	26248.13
514.488	26233.8
514.69	27616.18
514.893	27911.08
515.095	28445.6
515.297	29260.69
515.499	29469.59
515.701	30036.87
515.904	30741.38
516.106	31576.95
516.308	32056.17
516.51	32901.98
516.712	33143.64
516.914	33706.83
517.116	34675.52
517.318	35261.24
517.52	36031.28
517.722	36303.66
517.925	36631.33
518.127	37716.76
518.329	38638.34
518.531	38253.33
518.733	39973.62
518.935	40194.8
519.136	40999.65
519.338	41495.26
519.54	41738.97
519.742	42740.43
519.944	43041.48
520.146	44067.51
520.348	44683.95
520.55	45101.73
520.752	45515.42
520.954	46488.21
521.155	46539.41
521.357	47358.59
521.559	47882.87
521.761	48779.88
521.963	48345.72
522.164	49586.78
522.366	49398.37
522.568	50367.06
522.77	50205.27
522.971	51055.18
523.173	50522.71
523.375	51665.47
523.576	51061.32
523.778	51143.24
523.98	52499
524.181	52380.21
524.383	52357.69
524.584	53025.32
524.786	52658.74
524.988	52697.65
525.189	53062.19
525.391	53056.04
525.592	52961.84
525.794	52617.78
525.995	52492.85
526.197	52732.46
526.398	52920.88
526.6	52908.59
526.801	52996.65
527.003	52619.83
527.204	52568.63
527.406	52857.39
527.607	52097.59
527.808	52056.63
528.01	51145.29
528.211	51567.17
528.412	51540.55
528.614	51216.97
528.815	50463.32
529.016	50870.86
529.218	49537.63
529.419	49668.7
529.62	49234.53
529.822	49005.16
530.023	48284.28
530.224	47901.31
530.425	47030.92
530.626	46338.71
530.828	45839
531.029	46518.93
531.23	45021.86
531.431	44679.85
531.632	44182.2
531.833	43975.35
532.035	43457.21
532.236	43037.38
532.437	42715.85
532.638	41947.86
532.839	42187.47
533.04	41337.57
533.241	40305.39
533.442	40723.18
533.643	39572.22
533.844	38957.83
534.045	38570.76
534.246	37706.52
534.447	37479.19
534.648	36813.6
534.849	36709.16
535.05	35652.41
535.251	35607.35
535.451	34419.53
535.652	34712.39
535.853	34124.62
536.054	33698.64
536.255	33137.5
536.456	32557.92
536.657	32611.17
536.857	32072.56
537.058	31439.73
537.259	31073.15
537.46	30655.36
537.66	30083.98
537.861	29938.57
538.062	29494.16
538.263	29141.91
538.463	28597.15
538.664	27939.75
538.865	28148.65
539.065	27507.63
539.266	27186.1
539.466	27052.98
539.667	26264.52
539.868	26571.71
540.068	25994.18
540.269	25447.38
540.469	25412.56
540.67	24992.73
540.87	24716.25
541.071	24501.22
541.271	24464.35
541.472	23884.78
541.672	23641.07
541.873	23282.67
542.073	22778.87
542.274	23067.64
542.474	22678.52
542.675	22215.68
542.875	22320.13
543.075	21595.15
543.276	21271.57
543.476	21709.83
543.676	21158.93
543.877	20827.16
544.077	20765.72
544.277	20302.88
544.478	20134.95
544.678	19948.58
544.878	19604.52
545.078	19371.05
545.279	19102.77
545.479	19018.8
545.679	18744.38
545.879	18715.7
546.079	18521.15
546.28	17962.05
546.48	17640.52
546.68	17978.43
546.88	17759.3
547.08	17380.43
547.28	17036.37
547.48	16630.87
547.68	17032.27
547.88	16448.6
548.081	16366.68
548.281	16315.48
548.481	15905.89
548.681	15752.29
548.881	15721.57
549.081	15418.47
549.28	15144.05
549.48	14986.35
549.68	14888.05
549.88	14476.41
550.08	14263.42
550.28	14290.04
550.48	13976.7
550.68	13870.21
550.88	13591.69
551.08	13223.05
551.279	13036.69
551.479	12956.82
551.679	12590.23
551.879	12600.47
552.079	12475.54
552.278	12360.86
552.478	12338.33
552.678	12031.13
552.878	11793.57
553.077	11719.84
553.277	11277.48
553.477	11209.9
553.676	10953.9
553.876	10894.51
554.076	10431.67
554.275	10624.18
554.475	10036.41
554.674	10060.99
554.874	10108.09
555.074	9741.5
555.273	9829.57
555.473	9678.02
555.672	9405.64
555.872	9170.12
556.071	9249.99
556.271	9043.15
556.47	8807.63
556.67	8555.73
556.869	8522.96
557.068	8258.78
557.268	8252.63
557.467	7912.67
557.667	8125.66
557.866	7689.44
558.065	7578.85
558.265	7539.94
558.464	7498.98
558.663	7316.71
558.863	7212.26
559.062	7269.61
559.261	7023.85
559.461	6974.7
559.66	6761.71
559.859	6700.27
560.058	6485.23
560.258	6399.22
560.457	6294.77
560.656	6356.21
560.855	6034.68
561.054	6194.42
561.253	6014.2
561.453	5911.8
561.652	5760.25
561.851	5782.78
562.05	5596.42
562.249	5293.32
562.448	5508.35
562.647	5274.88
562.846	5229.83
563.045	5235.97
563.244	5225.73
563.443	5055.75
563.642	4904.2
563.841	5004.55
564.04	4773.13
564.239	4902.15
564.438	4619.53
564.637	4474.13
564.836	4465.94
565.035	4461.84
565.234	4418.83
565.432	4238.61
565.631	4168.98
565.83	4328.72
566.029	4130.07
566.228	4156.69
566.427	3984.66
566.625	3962.14
566.824	3968.28
567.023	3970.33
567.222	3843.35
567.42	3718.43
567.619	3650.85
567.818	3587.36
568.016	3706.14
568.215	3577.12
568.414	3632.41
568.612	3474.72
568.811	3452.19
569.01	3349.79
569.208	3435.81
569.407	3306.79
569.605	3378.47
569.804	3302.69
570.002	3099.94
570.201	3046.69
570.4	3063.08
570.598	2942.25
570.797	3050.79
570.995	2802.99
571.193	2903.34
571.392	2845.99
571.59	2645.29
571.789	2649.39
571.987	2774.31
572.186	2710.83
572.384	2536.75
572.582	2493.74
572.781	2583.85
572.979	2405.68
573.177	2409.78
573.376	2452.78
573.574	2407.73
573.772	2389.3
573.971	2272.56
574.169	2202.93
574.367	2364.72
574.565	2098.49
574.763	2186.55
574.962	2037.05
575.16	2057.53
575.358	2055.48
575.556	2112.82
575.754	2106.68
575.952	1989.94
576.151	2078.01
576.349	2010.42
576.547	1807.67
576.745	1985.85
576.943	1959.22
577.141	1725.75
577.339	1727.8
577.537	1803.58
577.735	1750.33
577.933	1674.56
578.131	1674.56
578.329	1740.09
578.527	1637.69
578.725	1637.69
578.923	1385.79
579.121	1455.42
579.319	1357.12
579.516	1498.43
579.714	1649.98
579.912	1482.05
580.11	1346.88
580.308	1336.64
580.506	1275.2
580.704	1236.29
580.901	1256.77
581.099	1398.08
581.297	1363.26
581.495	1269.06
581.692	1217.86
581.89	1219.91
582.088	1277.25
582.285	1215.81
582.483	1109.32
582.681	1135.94
582.878	1097.03
583.076	1162.56
583.274	1107.27
583.471	1232.19
583.669	1111.36
583.866	1074.5
584.064	1117.51
584.262	941.38
584.459	943.43
584.657	1064.26
584.854	1041.73
585.052	1039.69
585.249	1025.35
585.447	961.86
585.644	843.08
585.841	972.1
586.039	965.96
586.236	1021.25
586.434	898.38
586.631	845.13
586.828	781.64
587.026	822.6
587.223	681.29
587.42	759.11
587.618	818.5
587.815	970.05
588.012	779.59
588.21	752.97
588.407	726.35
588.604	853.32
588.801	605.52
588.999	709.96
589.196	818.5
589.393	648.52
589.59	726.35
589.787	728.39
589.984	740.68
590.182	709.96
590.379	626
590.576	660.81
590.773	689.48
590.97	626
591.167	709.96
591.364	832.84
591.561	562.51
591.758	773.45
591.955	691.53
592.152	611.66
592.349	623.95
592.546	609.61
592.743	736.59
592.94	669
593.137	695.63
593.334	787.79
593.531	769.35
593.727	619.85
593.924	673.1
594.121	701.77
594.318	644.43
594.515	683.34
594.712	877.9
594.908	771.4
595.105	634.19
595.302	802.12
595.499	683.34
595.696	806.22
595.892	677.19
596.089	836.94
596.286	793.93
596.482	838.98
596.679	818.5
596.876	724.3
597.072	898.38
597.269	828.74
597.466	953.67
597.662	892.23
597.859	822.6
598.055	914.76
598.252	961.86
598.448	1113.41
598.645	1242.43
598.841	1148.23
599.038	1207.62
599.234	1320.26
599.431	1203.52
599.627	1224
599.824	1367.36
600.02	1228.1
600.217	1436.99
600.413	1465.66
600.609	1459.52
600.806	1936.7
601.002	1772.86
601.198	1725.75
601.395	1938.74
601.591	1725.75
601.787	1936.7
601.984	2053.43
602.18	2035
602.376	2137.4
602.572	2299.19
602.769	2381.1
602.965	2399.54
603.161	2581.81
603.357	2587.95
603.553	2762.03
603.75	2651.44
603.946	2782.51
604.142	2952.49
604.338	3032.36
604.534	3052.84
604.73	3183.91
604.926	3341.6
605.122	3611.93
605.318	3456.29
605.514	3683.61
605.71	3820.83
605.906	3794.2
606.102	4017.43
606.298	4224.28
606.494	4236.56
606.69	4457.75
606.886	4322.58
607.082	4359.44
607.278	4752.65
607.474	4879.63
607.67	5074.18
607.866	4973.83
608.062	5162.25
608.257	5444.87
608.453	5307.65
608.649	5672.19
608.845	5602.56
609.041	5885.18
609.236	6028.54
609.432	6339.83
609.628	6589.68
609.824	6632.69
610.019	6690.03
610.215	6896.88
610.411	7267.56
610.606	7431.4
610.802	7519.46
610.998	7806.17
611.193	8058.07
611.389	7884
611.584	8424.66
611.78	8400.09
611.976	8930.51
612.171	9041.1
612.367	9270.47
612.562	9495.75
612.758	9686.21
612.953	9927.87
613.149	10138.81
613.344	10464.44
613.539	10937.52
613.735	10966.19
613.93	11375.78
614.126	11644.07
614.321	11969.69
614.517	12270.75
614.712	12592.28
614.907	12776.59
615.103	13089.93
615.298	13575.3
615.493	13870.21
615.688	13837.44
615.884	14759.03
616.079	14789.75
616.274	15176.81
616.47	15584.36
616.665	15916.13
616.86	16221.28
617.055	16856.15
617.25	17300.56
617.445	17634.38
617.641	17847.36
617.836	18410.56
618.031	18703.42
618.226	19653.67
618.421	19833.89
618.616	20536.35
618.811	20087.84
619.006	21326.86
619.201	21300.24
619.396	22086.66
619.591	22332.42
619.786	23299.06
619.981	23538.67
620.176	24073.19
620.371	24320.99
620.566	24777.69
620.761	25396.18
620.956	26244.04
621.151	26454.98
621.346	26944.44
621.541	27192.25
621.735	27997.1
621.93	28220.33
622.125	29270.93
622.32	29270.93
622.515	29821.84
622.709	30331.78
622.904	30942.08
623.099	31380.34
623.294	32086.89
623.488	32492.39
623.683	33323.86
623.878	33235.8
624.072	34431.82
624.267	34616.13
624.462	34956.1
624.656	35380.03
624.851	35765.04
625.046	36352.81
625.24	37307.16
625.435	37012.26
625.629	38304.52
625.824	38388.49
626.018	38849.28
626.213	38837
626.407	39883.51
626.602	39858.93
626.796	40811.24
626.991	40854.25
627.185	40995.56
627.38	41202.4
627.574	41743.06
627.768	41698.01
627.963	41763.54
628.157	41659.1
628.352	41855.7
628.546	41747.16
628.74	42705.61
628.935	41859.8
629.129	42246.86
629.323	41691.87
629.517	41884.37
629.712	40991.46
629.906	40801
630.1	40248.05
630.294	40401.64
630.489	39310.08
630.683	39248.64
630.877	38400.78
631.071	37344.03
631.265	37118.75
631.459	36352.81
631.653	35580.73
631.848	34880.32
632.042	33614.68
632.236	33272.67
632.43	32211.82
632.624	31665.01
632.818	30380.93
633.012	29016.99
633.206	28378.02
633.4	27710.38
633.594	26471.36
633.788	25707.47
633.982	24964.06
634.176	24304.61
634.369	22907.9
634.563	22113.28
634.757	21087.25
634.951	20497.44
635.145	19905.57
635.339	19209.26
635.533	17886.28
635.726	17824.84
635.92	16540.76
636.114	16012.39
636.308	15416.43
636.501	14888.05
636.695	14277.76
636.889	13530.25
637.083	12971.15
637.276	12618.9
637.47	11773.09
637.664	11467.94
637.857	11152.56
638.051	10583.22
638.244	10210.49
638.438	9872.57
638.632	9522.37
638.825	8801.49
639.019	8885.45
639.212	8207.58
639.406	8072.41
639.599	7609.57
639.793	7322.85
639.986	6960.36
640.18	6999.27
640.373	6597.87
640.567	6114.55
640.76	6065.4
640.954	5840.12
641.147	5500.16
641.34	5348.61
641.534	5137.67
641.727	5203.21
641.92	4779.28
642.114	4629.77
642.307	4455.7
642.5	4394.26
642.694	4017.43
642.887	3941.66
643.08	3839.26
643.273	3761.44
643.467	3552.54
643.66	3366.18
643.853	3200.29
644.046	3155.24
644.239	3046.69
644.432	2934.06
644.626	2727.21
644.819	2671.92
645.012	2581.81
645.205	2495.79
645.398	2450.74
645.591	2352.43
645.784	2037.05
645.977	1987.89
646.17	2067.77
646.363	1842.49
646.556	1832.25
646.749	1738.04
646.942	1799.48
647.135	1668.41
647.328	1500.48
647.521	1592.64
647.714	1486.14
647.907	1432.9
648.099	1400.13
648.292	1477.95
648.485	1215.81
648.678	1148.23
648.871	1084.74
649.064	1248.58
649.256	963.91
649.449	1029.45
649.642	945.48
649.835	1031.49
650.027	894.28
650.22	1023.3
650.413	933.19
650.605	886.09
650.798	832.84
650.991	750.92
651.183	824.65
651.376	767.31
651.568	750.92
651.761	673.1
651.954	738.63
652.146	585.04
652.339	728.39
652.531	783.69
652.724	593.23
652.916	484.69
653.109	456.01
653.301	636.24
653.494	566.6
653.686	572.75
653.879	576.84
654.071	605.52
654.263	370
654.456	519.5
654.648	556.36
654.84	396.62
655.033	396.62
655.225	519.5
655.417	314.7
655.61	488.78
655.802	511.31
655.994	458.06
656.186	298.32
656.379	464.21
656.571	374.1
656.763	329.04
656.955	329.04
657.148	296.27
657.34	443.73
657.532	322.9
657.724	318.8
657.916	310.61
658.108	337.23
658.3	396.62
658.492	251.22
658.684	304.46
658.876	281.94
659.068	150.87
659.26	150.87
659.452	142.68
659.644	249.17
659.836	329.04
660.028	292.18
660.22	187.73
660.412	286.03
660.604	208.21
660.796	214.35
660.988	304.46
661.18	288.08
661.372	267.6
661.563	232.79
661.755	251.22
661.947	157.01
662.139	189.78
662.331	261.46
662.522	247.12
662.714	122.2
662.906	120.15
663.097	212.31
663.289	101.72
663.481	77.14
663.673	208.21
663.864	152.91
664.056	161.11
664.247	64.85
664.439	304.46
664.631	126.29
664.822	204.11
665.014	204.11
665.205	171.35
665.397	157.01
665.588	128.34
665.78	122.2
665.971	193.87
666.163	101.72
666.354	150.87
666.546	83.28
666.737	118.1
666.929	50.52
667.12	-6.83
667.311	132.44
667.503	183.63
667.694	191.83
667.885	167.25
668.077	210.26
668.268	99.67
668.459	161.11
668.651	130.39
668.842	105.81
669.033	62.8
669.224	89.43
669.416	286.03
669.607	146.77
669.798	107.86
669.989	234.83
670.18	126.29
670.371	181.59
670.563	3.41
670.754	173.39
670.945	130.39
671.136	228.69
671.327	60.76
671.518	247.12
671.709	333.14
671.9	214.35
672.091	187.73
672.282	165.2
672.473	175.44
672.664	101.72
672.855	161.11
673.046	216.4
673.237	130.39
673.428	114
673.619	124.24
673.809	126.29
674	152.91
674.191	218.45
674.382	142.68
674.573	116.05
674.764	109.91
674.954	232.79
675.145	85.33
675.336	71
675.527	-0.68
675.717	179.54
675.908	40.28
676.099	130.39
676.289	210.26
676.48	56.66
676.671	150.87
676.861	116.05
677.052	146.77
677.243	159.06
677.433	77.14
677.624	275.79
677.814	179.54
678.005	150.87
678.195	271.7
678.386	44.37
678.576	177.49
678.767	128.34
678.957	138.58
679.148	197.97
679.338	269.65
679.529	202.07
679.719	214.35
679.909	273.75
680.1	290.13
680.29	214.35
680.481	19.8
680.671	175.44
680.861	177.49
681.052	210.26
681.242	183.63
681.432	202.07
681.622	138.58
681.813	101.72
682.003	165.2
682.193	142.68
682.383	189.78
682.573	154.96
682.764	144.72
682.954	277.84
683.144	265.55
683.334	103.76
683.524	136.53
683.714	271.7
683.904	165.2
684.094	169.3
684.284	193.87
684.474	343.38
684.664	197.97
684.854	226.64
685.044	138.58
685.234	216.4
685.424	171.35
685.614	83.28
685.804	294.22
685.994	224.59
686.184	152.91
686.374	267.6
686.564	175.44
686.753	189.78
686.943	150.87
687.133	163.15
687.323	263.51
687.513	234.83
687.702	247.12
687.892	154.96
688.082	247.12
688.272	314.7
688.461	179.54
688.651	290.13
688.841	240.98
689.03	171.35
689.22	177.49
689.41	214.35
689.599	275.79
689.789	77.14
689.979	292.18
690.168	173.39
690.358	228.69
690.547	105.81
690.737	105.81
690.926	204.11
691.116	148.82
691.305	232.79
691.495	292.18
691.684	103.76
691.874	122.2
692.063	214.35
692.252	306.51
692.442	318.8
692.631	136.53
692.82	150.87
693.01	273.75
693.199	245.07
693.388	281.94
693.578	175.44
693.767	247.12
693.956	187.73
694.146	212.31
694.335	183.63
694.524	130.39
694.713	281.94
694.902	154.96
695.092	228.69
695.281	249.17
695.47	154.96
695.659	224.59
695.848	236.88
696.037	91.48
696.226	216.4
696.415	224.59
696.604	363.86
696.793	249.17
696.982	179.54
697.171	322.9
697.36	95.57
697.549	238.93
697.738	-27.31
697.927	142.68
698.116	140.63
698.305	165.2
698.494	146.77
698.683	216.4
698.872	347.47
699.061	144.72
699.25	169.3
699.438	181.59
699.627	202.07
699.816	312.66
700.005	38.23
700.193	240.98
700.382	232.79
700.571	208.21
700.76	228.69
700.948	306.51
701.137	322.9
701.326	222.55
701.514	206.16
701.703	202.07
701.892	177.49
702.08	357.71
702.269	157.01
702.457	118.1
702.646	263.51
702.834	95.57
703.023	236.88
703.212	228.69
703.4	257.36
703.589	132.44
703.777	191.83
703.965	148.82
704.154	177.49
704.342	126.29
704.531	173.39
704.719	214.35
704.907	273.75
705.096	152.91
705.284	193.87
705.472	222.55
705.661	165.2
705.849	185.68
706.037	261.46
706.226	165.2
706.414	255.31
706.602	126.29
706.79	210.26
706.979	99.67
707.167	208.21
707.355	34.13
707.543	232.79
707.731	193.87
707.919	163.15
708.107	148.82
708.296	134.48
708.484	189.78
708.672	222.55
708.86	257.36
709.048	208.21
709.236	189.78
709.424	271.7
709.612	247.12
709.8	105.81
709.988	212.31
710.176	228.69
710.364	294.22
710.551	152.91
710.739	212.31
710.927	146.77
711.115	204.11
711.303	294.22
711.491	265.55
711.679	109.91
711.866	265.55
712.054	181.59
712.242	195.92
712.43	271.7
712.617	200.02
712.805	353.62
712.993	109.91
713.181	128.34
713.368	224.59
713.556	206.16
713.744	179.54
713.931	353.62
714.119	263.51
714.306	210.26
714.494	247.12
714.682	208.21
714.869	183.63
715.057	165.2
715.244	116.05
715.432	259.41
715.619	142.68
715.807	109.91
715.994	189.78
716.182	204.11
716.369	304.46
716.556	202.07
716.744	126.29
716.931	167.25
717.119	281.94
717.306	187.73
717.493	261.46
717.681	95.57
717.868	136.53
718.055	279.89
718.242	134.48
718.43	281.94
718.617	322.9
718.804	177.49
718.991	324.94
719.179	216.4
719.366	269.65
719.553	357.71
719.74	210.26
719.927	224.59
720.114	249.17
720.301	222.55
720.488	195.92
720.676	175.44
720.863	230.74
721.05	281.94
721.237	175.44
721.424	212.31
721.611	294.22
721.798	154.96
721.985	197.97
722.172	288.08
722.358	187.73
722.545	238.93
722.732	298.32
722.919	259.41
723.106	273.75
723.293	208.21
723.48	204.11
723.667	150.87
723.853	304.46
724.04	230.74
724.227	292.18
724.414	224.59
724.6	214.35
724.787	300.37
724.974	343.38
725.161	240.98
725.347	154.96
725.534	247.12
725.72	259.41
725.907	288.08
726.094	286.03
726.28	255.31
726.467	263.51
726.653	165.2
726.84	363.86
727.027	398.67
727.213	286.03
727.4	298.32
727.586	267.6
727.773	230.74
727.959	183.63
728.145	220.5
728.332	224.59
728.518	228.69
728.705	273.75
728.891	310.61
729.077	206.16
729.264	165.2
729.45	261.46
729.636	345.42
729.823	255.31
730.009	388.43
730.195	281.94
730.382	218.45
730.568	75.09
730.754	283.98
730.94	206.16
731.126	273.75
731.313	253.27
731.499	234.83
731.685	271.7
731.871	300.37
732.057	300.37
732.243	372.05
732.429	326.99
732.615	392.53
732.801	353.62
732.987	263.51
733.173	290.13
733.359	159.06
733.545	259.41
733.731	210.26
733.917	306.51
734.103	324.94
734.289	210.26
734.475	267.6
734.661	363.86
734.847	310.61
735.033	247.12
735.219	281.94
735.404	306.51
735.59	222.55
735.776	298.32
735.962	308.56
736.148	353.62
736.333	427.34
736.519	197.97
736.705	281.94
736.89	273.75
737.076	318.8
737.262	228.69
737.447	165.2
737.633	263.51
737.819	355.66
738.004	267.6
738.19	226.64
738.375	316.75
738.561	367.95
738.747	290.13
738.932	232.79
739.118	359.76
739.303	308.56
739.489	292.18
739.674	257.36
739.859	150.87
740.045	265.55
740.23	320.85
740.416	116.05
740.601	214.35
740.786	308.56
740.972	193.87
741.157	292.18
741.342	154.96
741.528	85.33
741.713	345.42
741.898	283.98
742.084	286.03
742.269	263.51
742.454	394.58
742.639	398.67
742.824	257.36
743.01	355.66
743.195	388.43
743.38	236.88
743.565	304.46
743.75	240.98
743.935	273.75
744.12	386.38
744.305	107.86
744.49	236.88
744.675	197.97
744.86	263.51
745.045	286.03
745.23	191.83
745.415	279.89
745.6	406.86
745.785	230.74
745.97	230.74
746.155	294.22
746.34	308.56
746.525	185.68
746.71	365.9
746.895	193.87
747.079	169.3
747.264	259.41
747.449	281.94
747.634	249.17
747.819	234.83
748.003	243.03
748.188	144.72
748.373	245.07
748.557	277.84
748.742	236.88
748.927	271.7
749.111	222.55
749.296	200.02
749.481	316.75
749.665	226.64
749.85	154.96
750.034	259.41
750.219	212.31
750.404	200.02
750.588	304.46
750.773	200.02
750.957	152.91
751.141	290.13
751.326	304.46
751.51	161.11
751.695	191.83
751.879	177.49
752.064	269.65
752.248	171.35
752.432	267.6
752.617	320.85
752.801	304.46
752.985	128.34
753.17	193.87
753.354	179.54
753.538	236.88
753.722	120.15
753.907	169.3
754.091	116.05
754.275	251.22
754.459	146.77
754.643	105.81
754.828	220.5
755.012	306.51
755.196	165.2
755.38	142.68
755.564	163.15
755.748	169.3
755.932	216.4
756.116	191.83
756.3	161.11
756.484	87.38
756.668	206.16
756.852	81.24
757.036	224.59
757.22	195.92
757.404	46.42
757.588	152.91
757.772	226.64
757.956	101.72
758.14	277.84
758.323	79.19
758.507	177.49
758.691	116.05
758.875	202.07
759.059	263.51
759.242	124.24
759.426	111.96
759.61	177.49
759.794	101.72
759.977	208.21
760.161	370
760.345	220.5
760.528	247.12
760.712	124.24
760.895	228.69
761.079	109.91
761.263	44.37
761.446	122.2
761.63	152.91
761.813	126.29
761.997	21.84
762.18	87.38
762.364	179.54
762.547	48.47
762.731	107.86
762.914	73.04
763.098	42.32
763.281	58.71
763.464	64.85
763.648	126.29
763.831	73.04
764.015	87.38
764.198	200.02
764.381	116.05
764.564	126.29
764.748	109.91
764.931	214.35
765.114	83.28
765.297	169.3
765.481	17.75
765.664	71
765.847	105.81
766.03	220.5
766.213	50.52
766.397	71
766.58	27.99
766.763	154.96
766.946	44.37
767.129	71
767.312	3.41
767.495	95.57
767.678	7.51
767.861	132.44
768.044	89.43
768.227	60.76
768.41	52.56
768.593	142.68
768.776	146.77
768.959	124.24
769.142	212.31
769.324	85.33
769.507	30.04
769.69	21.84
769.873	116.05
770.056	214.35
770.239	85.33
770.421	163.15
770.604	124.24
770.787	97.62
770.97	79.19
771.152	-2.73
771.335	124.24
771.518	34.13
771.7	193.87
771.883	116.05
772.066	91.48
772.248	134.48
772.431	105.81
772.613	81.24
772.796	66.9
772.978	101.72
773.161	191.83
773.343	103.76
773.526	-8.87
773.708	17.75
773.891	-49.83
774.073	109.91
774.256	58.71
774.438	148.82
774.621	52.56
774.803	140.63
774.985	116.05
775.168	114
775.35	79.19
775.532	71
775.715	60.76
775.897	52.56
776.079	25.94
776.261	150.87
776.444	5.46
776.626	13.65
776.808	-0.68
776.99	38.23
777.173	126.29
777.355	81.24
777.537	19.8
777.719	64.85
777.901	-4.78
778.083	-8.87
778.265	-17.07
778.447	116.05
778.629	-23.21
778.811	19.8
778.993	97.62
779.175	118.1
779.357	66.9
779.539	-6.83
779.721	17.75
779.903	81.24
780.085	52.56
780.267	105.81
780.449	50.52
780.631	103.76
780.812	118.1
780.994	13.65
781.176	60.76
781.358	-25.26
781.54	56.66
781.721	38.23
781.903	107.86
782.085	1.37
782.267	220.5
782.448	-60.07
782.63	85.33
782.812	68.95
782.993	79.19
783.175	79.19
783.357	27.99
783.538	46.42
783.72	-23.21
783.901	83.28
784.083	40.28
784.264	146.77
784.446	-45.74
784.627	3.41
784.809	83.28
784.99	17.75
785.172	89.43
785.353	40.28
785.535	50.52
785.716	-82.6
785.897	-23.21
786.079	3.41
786.26	95.57
786.441	60.76
786.623	-139.94
786.804	-15.02
786.985	19.8
787.167	30.04
787.348	-19.11
787.529	42.32
787.71	128.34
787.891	19.8
788.073	17.75
788.254	-62.12
788.435	208.21
788.616	75.09
788.797	-0.68
788.978	40.28
789.159	3.41
789.34	83.28
789.522	-8.87
789.703	15.7
789.884	30.04
790.065	-6.83
790.246	157.01
790.427	-15.02
790.607	58.71
790.788	175.44
790.969	3.41
791.15	54.61
791.331	19.8
791.512	5.46
791.693	-74.41
791.874	42.32
792.054	138.58
792.235	62.8
792.416	17.75
792.597	-49.83
792.778	5.46
792.958	9.56
793.139	34.13
793.32	-15.02
793.5	-25.26
793.681	114
793.862	56.66
794.042	73.04
794.223	-19.11
794.404	-55.98
794.584	1.37
794.765	-55.98
794.945	32.08
795.126	58.71
795.306	101.72
795.487	1.37
795.667	-86.7
795.848	-45.74
796.028	-0.68
796.209	-2.73
796.389	40.28
796.57	32.08
796.75	-123.56
796.93	52.56
797.111	-37.55
797.291	46.42
797.471	42.32
797.652	36.18
797.832	-43.69
798.012	116.05
798.192	5.46
798.373	-103.08
798.553	-25.26
798.733	54.61
798.913	-76.46
799.093	25.94
799.274	-41.64
799.454	99.67
799.634	89.43
799.814	52.56
799.994	-2.73
800.174	13.65
800.354	-45.74
800.534	-60.07
800.714	19.8
800.894	-41.64
801.074	-23.21
801.254	50.52
801.434	23.89
801.614	83.28
801.794	-94.89
801.974	1916.22
802.154	21.84
802.334	40.28
802.514	38.23
802.693	30.04
802.873	-15.02
803.053	93.52
803.233	36.18
803.413	-19.11
803.592	-31.4
803.772	-0.68
803.952	73.04
804.131	-27.31
804.311	91.48
804.491	81.24
804.67	25.94
804.85	-103.08
805.03	-8.87
805.209	93.52
805.389	-6.83
805.568	-72.36
805.748	15.7
805.928	-4.78
806.107	79.19
806.287	15.7
806.466	62.8
806.646	30.04
806.825	-94.89
807.004	-43.69
807.184	58.71
807.363	68.95
807.543	99.67
807.722	-70.31
807.901	77.14
808.081	95.57
808.26	-78.51
808.439	-12.97
808.619	-2.73
808.798	13.65
808.977	-0.68
809.156	40.28
809.336	68.95
809.515	23.89
809.694	-43.69
809.873	-0.68
810.052	34.13
810.231	103.76
810.411	-17.07
810.59	142.68
810.769	-45.74
810.948	36.18
811.127	-123.56
811.306	-15.02
811.485	-39.59
811.664	87.38
811.843	17.75
812.022	36.18
812.201	-19.11
812.38	-10.92
812.559	-51.88
812.737	95.57
812.916	-135.85
813.095	-23.21
813.274	23.89
813.453	23.89
813.632	79.19
813.811	93.52
813.989	-80.55
814.168	-4.78
814.347	-35.5
814.526	-25.26
814.704	128.34
814.883	25.94
815.062	-129.7
815.24	42.32
815.419	-45.74
815.598	-6.83
815.776	-146.09
815.955	36.18
816.133	-144.04
816.312	-23.21
816.49	-111.27
816.669	-39.59
816.847	-37.55
817.026	36.18
817.204	-8.87
817.383	21.84
817.561	-80.55
817.74	79.19
817.918	-8.87
818.097	17.75
818.275	-58.03
818.453	30.04
818.632	-21.16
818.81	-23.21
818.988	58.71
819.167	-12.97
819.345	5.46
819.523	-35.5
819.701	-6.83
819.879	1.37
820.058	15.7
820.236	-45.74
820.414	-29.35
820.592	-94.89
820.77	19.8
820.948	-70.31
821.127	50.52
821.305	34.13
821.483	-68.27
821.661	116.05
821.839	-10.92
822.017	-62.12
822.195	-35.5
822.373	107.86
822.551	19.8
822.729	44.37
822.907	-12.97
823.085	13.65
823.262	30.04
823.44	-8.87
823.618	40.28
823.796	11.61
823.974	-49.83
824.152	-88.75
824.329	-62.12
824.507	32.08
824.685	60.76
824.863	-12.97
825.04	-72.36
825.218	-10.92
825.396	15.7
825.574	-23.21
825.751	116.05
825.929	38.23
826.107	13.65
826.284	-43.69
826.462	-12.97
826.639	-51.88
826.817	-168.62
826.994	-49.83
827.172	-72.36
827.349	48.47
827.527	15.7
827.704	-2.73
827.882	30.04
828.059	-12.97
828.237	-17.07
828.414	75.09
828.591	-68.27
828.769	-33.45
828.946	-176.81
829.124	-4.78
829.301	81.24
829.478	-25.26
829.655	79.19
829.833	42.32
830.01	-139.94
830.187	15.7
830.364	-8.87
830.542	52.56
830.719	150.87
830.896	23.89
831.073	-31.4
831.25	27.99
831.427	85.33
831.604	3.41
831.782	-113.32
831.959	-35.5
832.136	-29.35
832.313	-47.79
832.49	-55.98
832.667	-15.02
832.844	-33.45
833.021	27.99
833.198	103.76
833.374	-27.31
833.551	79.19
833.728	-15.02
833.905	66.9
834.082	-88.75
834.259	60.76
834.436	116.05
834.612	-78.51
834.789	79.19
834.966	15.7
835.143	-15.02
835.319	-105.13
835.496	-45.74
835.673	32.08
835.85	-15.02
836.026	75.09
836.203	-19.11
836.38	-60.07
836.556	-4.78
836.733	-105.13
836.909	85.33
837.086	-4.78
837.262	-119.46
837.439	-29.35
837.616	23.89
837.792	-51.88
837.968	17.75
838.145	-111.27
838.321	-64.17
838.498	-45.74
838.674	3.41
838.851	136.53
839.027	-78.51
839.203	-80.55
839.38	34.13
839.556	3.41
839.732	85.33
839.909	40.28
840.085	-39.59
840.261	-49.83
840.437	-70.31
840.614	-70.31
840.79	101.72
840.966	97.62
841.142	21.84
841.318	-27.31
841.494	64.85
841.671	83.28
841.847	-74.41
842.023	-60.07
842.199	46.42
842.375	27.99
842.551	-117.42
842.727	-80.55
842.903	77.14
843.079	-88.75
843.255	25.94
843.431	32.08
843.607	-0.68
843.783	-205.48
843.959	3.41
844.134	-98.99
844.31	27.99
844.486	-156.33
844.662	-53.93
844.838	32.08
845.013	-8.87
845.189	111.96
845.365	1.37
845.541	73.04
845.716	-37.55
845.892	52.56
846.068	-4.78
846.244	-105.13
846.419	-27.31
846.595	-74.41
846.77	-41.64
846.946	38.23
847.122	-64.17
847.297	3.41
847.473	144.72
847.648	-105.13
847.824	23.89
847.999	-111.27
848.175	52.56
848.35	44.37
848.526	111.96
848.701	54.61
848.876	-12.97
849.052	50.52
849.227	-47.79
849.403	-0.68
849.578	-35.5
849.753	-17.07
849.929	-80.55
850.104	-64.17
850.279	-66.22
850.454	27.99
850.63	21.84
850.805	17.75
850.98	-96.94
851.155	13.65
851.33	-29.35
851.505	-88.75
851.681	85.33
851.856	-88.75
852.031	36.18
852.206	68.95
852.381	-168.62
852.556	-17.07
852.731	32.08
852.906	68.95
853.081	-74.41
853.256	44.37
853.431	-25.26
853.606	-111.27
853.781	-21.16
853.956	-135.85
854.131	30.04
854.305	-47.79
854.48	-12.97
854.655	-107.18
854.83	-144.04
855.005	-45.74
855.18	-4.78
855.354	-19.11
855.529	-10.92
855.704	46.42
855.879	38.23
856.053	-39.59
856.228	-33.45
856.403	-109.23
856.577	-27.31
856.752	-72.36
856.926	-25.26
857.101	19.8
857.276	-121.51
857.45	-37.55
857.625	62.8
857.799	-23.21
857.974	-107.18
858.148	-70.31
858.323	44.37
858.497	-60.07
858.672	21.84
858.846	-78.51
859.02	48.47
859.195	-84.65
859.369	-23.21
859.543	-29.35
859.718	-37.55
859.892	52.56
860.066	19.8
860.241	-55.98
860.415	-58.03
860.589	-74.41
860.763	-31.4
860.938	-4.78
861.112	-37.55
861.286	-66.22
861.46	-72.36
861.634	17.75
861.808	42.32
861.982	-101.03
862.157	-127.66
862.331	-141.99
862.505	-94.89
862.679	-94.89
862.853	-25.26
863.027	-21.16
863.201	36.18
863.375	-19.11
863.549	60.76
863.722	79.19
863.896	50.52
864.07	-66.22
864.244	-47.79
864.418	66.9
864.592	-6.83
864.766	25.94
864.939	-12.97
865.113	15.7
865.287	103.76
865.461	-37.55
865.634	-21.16
865.808	-25.26
865.982	-6.83
866.156	-80.55
866.329	-111.27
866.503	30.04
866.676	34.13
866.85	13.65
867.024	-23.21
867.197	81.24
867.371	-19.11
867.544	-23.21
867.718	-123.56
867.891	34.13
868.065	-39.59
868.238	-86.7
868.412	75.09
868.585	40.28
868.759	-66.22
868.932	-58.03
869.105	-199.34
869.279	23.89
869.452	-139.94
869.625	52.56
869.799	-6.83
869.972	-154.28
870.145	-51.88
870.319	79.19
870.492	-17.07
870.665	-72.36
870.838	-129.7
871.011	-101.03
871.185	-64.17
871.358	-35.5
871.531	25.94
871.704	-86.7
871.877	91.48
872.05	-62.12
872.223	-146.09
872.396	25.94
872.569	15.7
872.742	-131.75
872.915	38.23
873.088	-23.21
873.261	-33.45
873.434	11.61
873.607	-39.59
873.78	122.2
873.953	-51.88
874.126	30.04
874.299	48.47
874.471	-53.93
874.644	-12.97
874.817	5.46
874.99	79.19
875.163	-62.12
875.335	11.61
875.508	17.75
875.681	142.68
875.853	-39.59
876.026	-49.83
876.199	-31.4
876.371	5.46
876.544	-60.07
876.717	-10.92
876.889	17.75
877.062	-53.93
877.234	-19.11
877.407	-144.04
877.579	50.52
877.752	-21.16
877.924	-55.98
878.097	-12.97
878.269	-31.4
878.442	-80.55
878.614	36.18
878.786	11.61
878.959	-68.27
879.131	-27.31
879.303	-105.13
879.476	-53.93
879.648	23.89
879.82	11.61
879.993	-29.35
880.165	-25.26
880.337	-43.69
880.509	-19.11
880.681	-49.83
880.854	-47.79
881.026	27.99
881.198	200.02
881.37	30.04
881.542	-6.83
881.714	-53.93
881.886	-49.83
882.058	-47.79
882.23	1.37
882.402	64.85
882.574	-47.79
882.746	91.48
882.918	30.04
883.09	50.52
883.262	-39.59
883.434	5.46
883.606	-62.12
883.778	-12.97
883.95	97.62
884.122	40.28
884.293	109.91
884.465	-23.21
884.637	-6.83
884.809	-82.6
884.98	62.8
885.152	48.47
885.324	9.56
885.496	-92.84
885.667	-41.64
885.839	-58.03
886.011	130.39
886.182	-43.69
886.354	87.38
886.525	54.61
886.697	21.84
886.869	-27.31
887.04	-68.27
887.212	97.62
887.383	163.15
887.555	-31.4
887.726	-80.55
887.897	9.56
888.069	25.94
888.24	66.9
888.412	-12.97
888.583	-43.69
888.754	-86.7
888.926	-113.32
889.097	-27.31
889.268	-101.03
889.44	15.7
889.611	-156.33
889.782	-141.99
889.953	-80.55
890.125	36.18
890.296	-127.66
890.467	-103.08
890.638	17.75
890.809	-33.45
890.98	-33.45
891.151	34.13
891.323	68.95
891.494	-45.74
891.665	25.94
891.836	11.61
892.007	-43.69
892.178	5.46
892.349	-45.74
892.52	-17.07
892.691	-39.59
892.862	-21.16
893.032	-119.46
893.203	-10.92
893.374	-31.4
893.545	77.14
893.716	-33.45
893.887	87.38
894.057	-72.36
894.228	-45.74
894.399	-33.45
894.57	38.23
894.74	-4.78
894.911	-51.88
895.082	-31.4
895.253	-45.74
895.423	38.23
895.594	101.72
895.764	38.23
895.935	-17.07
896.106	-4.78
896.276	-113.32
896.447	-21.16
896.617	-80.55
896.788	-33.45
896.958	-0.68
897.129	-127.66
897.299	-39.59
897.47	85.33
897.64	-4.78
897.81	-47.79
897.981	13.65
898.151	-37.55
898.322	-41.64
898.492	5.46
898.662	-60.07
898.832	-43.69
899.003	-6.83
899.173	17.75
899.343	-78.51
899.513	-62.12
