Data from USB4F104151__155__11-04-32-032.txt Node

Date: Wed Feb 26 11:04:32 EST 2025
User: louis
Spectrometer: USB4F10415
Trigger mode: 4
Integration Time (sec): 1.000000E-1
Scans to average: 1
Electric dark correction enabled: true
Nonlinearity correction enabled: false
Boxcar width: 0
XAxis mode: Wavelengths
Number of Pixels in Spectrum: 3648
>>>>>Begin Spectral Data<<<<<
178.204	-360.78
178.424	-360.78
178.644	-360.78
178.864	-438.61
179.084	-391.5
179.304	-8.53
179.524	-0.34
179.744	-31.06
179.964	13.99
180.184	54.95
180.404	46.76
180.624	7.85
180.844	-12.63
181.064	-65.88
181.283	30.38
181.503	-18.77
181.723	-16.73
181.943	-137.56
182.163	190.12
182.383	-63.83
182.602	67.24
182.822	46.76
183.042	-2.39
183.262	-45.4
183.482	26.28
183.701	24.23
183.921	73.39
184.141	-35.16
184.361	93.87
184.58	48.81
184.8	138.92
185.02	-33.11
185.239	102.06
185.459	61.1
185.679	126.63
185.898	-94.55
186.118	89.77
186.338	54.95
186.557	118.44
186.777	-29.01
186.997	-6.49
187.216	46.76
187.436	210.6
187.655	167.59
187.875	87.72
188.095	16.04
188.314	132.78
188.534	175.78
188.753	-80.21
188.973	171.69
189.192	145.06
189.412	34.47
189.631	5.8
189.851	110.25
190.07	231.08
190.29	-84.31
190.509	-24.92
190.729	65.19
190.948	140.97
191.168	173.74
191.387	-2.39
191.607	22.19
191.826	83.63
192.045	3.75
192.265	59.05
192.484	104.11
192.704	28.33
192.923	-69.97
193.142	114.34
193.362	102.06
193.581	192.17
193.8	40.62
194.02	44.71
194.239	3.75
194.458	77.48
194.678	38.57
194.897	-18.77
195.116	34.47
195.335	50.86
195.555	54.95
195.774	-61.78
195.993	183.98
196.212	-31.06
196.432	-16.73
196.651	-18.77
196.87	69.29
197.089	186.02
197.308	42.67
197.528	32.43
197.747	-26.96
197.966	28.33
198.185	161.45
198.404	-41.3
198.623	71.34
198.842	83.63
199.062	77.48
199.281	50.86
199.5	26.28
199.719	57
199.938	126.63
200.157	85.67
200.376	100.01
200.595	145.06
200.814	24.23
201.033	-10.58
201.252	151.21
201.471	52.91
201.69	16.04
201.909	63.15
202.128	128.68
202.347	106.15
202.566	26.28
202.785	-47.44
203.004	-26.96
203.223	165.54
203.442	71.34
203.661	3.75
203.879	108.2
204.098	120.49
204.317	-12.63
204.536	112.3
204.755	67.24
204.974	140.97
205.193	46.76
205.411	132.78
205.63	102.06
205.849	175.78
206.068	40.62
206.287	7.85
206.505	169.64
206.724	11.95
206.943	36.52
207.162	54.95
207.381	132.78
207.599	42.67
207.818	63.15
208.037	-43.35
208.255	50.86
208.474	42.67
208.693	112.3
208.911	79.53
209.13	140.97
209.349	79.53
209.567	63.15
209.786	102.06
210.005	122.54
210.223	67.24
210.442	-131.41
210.661	-24.92
210.879	75.43
211.098	22.19
211.316	18.09
211.535	138.92
211.753	67.24
211.972	61.1
212.191	63.15
212.409	-37.2
212.628	79.53
212.846	-6.49
213.065	59.05
213.283	130.73
213.502	-12.63
213.72	42.67
213.938	-22.87
214.157	7.85
214.375	114.34
214.594	9.9
214.812	110.25
215.031	-6.49
215.249	1.71
215.467	122.54
215.686	44.71
215.904	112.3
216.122	44.71
216.341	175.78
216.559	59.05
216.778	38.57
216.996	124.58
217.214	16.04
217.432	-10.58
217.651	-16.73
217.869	30.38
218.087	75.43
218.306	-26.96
218.524	32.43
218.742	-37.2
218.96	175.78
219.179	42.67
219.397	65.19
219.615	304.81
219.833	97.96
220.051	30.38
220.27	145.06
220.488	71.34
220.706	42.67
220.924	-31.06
221.142	36.52
221.36	81.58
221.578	212.65
221.796	24.23
222.015	18.09
222.233	11.95
222.451	128.68
222.669	-39.25
222.887	128.68
223.105	-61.78
223.323	104.11
223.541	20.14
223.759	-22.87
223.977	93.87
224.195	112.3
224.413	83.63
224.631	63.15
224.849	46.76
225.067	161.45
225.285	-55.64
225.503	13.99
225.721	-110.93
225.939	34.47
226.157	63.15
226.375	233.13
226.592	-78.16
226.81	16.04
227.028	97.96
227.246	93.87
227.464	104.11
227.682	140.97
227.9	36.52
228.117	52.91
228.335	63.15
228.553	-47.44
228.771	38.57
228.989	110.25
229.206	52.91
229.424	13.99
229.642	-33.11
229.86	-12.63
230.077	108.2
230.295	36.52
230.513	186.02
230.731	71.34
230.948	226.98
231.166	204.46
231.384	11.95
231.601	9.9
231.819	183.98
232.037	30.38
232.254	-63.83
232.472	102.06
232.689	73.39
232.907	77.48
233.125	48.81
233.342	-100.69
233.56	-69.97
233.777	87.72
233.995	-14.68
234.213	89.77
234.43	9.9
234.648	30.38
234.865	65.19
235.083	50.86
235.3	42.67
235.518	63.15
235.735	130.73
235.953	169.64
236.17	57
236.388	63.15
236.605	71.34
236.822	81.58
237.04	116.39
237.257	7.85
237.475	-22.87
237.692	102.06
237.909	95.91
238.127	-43.35
238.344	110.25
238.562	75.43
238.779	-86.36
238.996	-35.16
239.214	85.67
239.431	52.91
239.648	69.29
239.865	128.68
240.083	93.87
240.3	81.58
240.517	61.1
240.735	85.67
240.952	181.93
241.169	52.91
241.386	93.87
241.603	-37.2
241.821	-31.06
242.038	110.25
242.255	138.92
242.472	18.09
242.689	65.19
242.907	87.72
243.124	5.8
243.341	73.39
243.558	-10.58
243.775	-0.34
243.992	-55.64
244.209	104.11
244.426	198.31
244.643	116.39
244.86	26.28
245.078	9.9
245.295	22.19
245.512	-26.96
245.729	-0.34
245.946	100.01
246.163	54.95
246.38	40.62
246.597	77.48
246.814	52.91
247.031	54.95
247.248	40.62
247.464	79.53
247.681	48.81
247.898	52.91
248.115	48.81
248.332	20.14
248.549	134.82
248.766	153.26
248.983	63.15
249.2	136.87
249.417	138.92
249.633	57
249.85	28.33
250.067	54.95
250.284	69.29
250.501	48.81
250.717	114.34
250.934	-47.44
251.151	34.47
251.368	108.2
251.585	7.85
251.801	-12.63
252.018	-10.58
252.235	-18.77
252.451	-53.59
252.668	20.14
252.885	173.74
253.102	132.78
253.318	26.28
253.535	59.05
253.752	-35.16
253.968	67.24
254.185	16.04
254.401	3.75
254.618	59.05
254.835	-10.58
255.051	110.25
255.268	42.67
255.484	69.29
255.701	22.19
255.917	153.26
256.134	-2.39
256.351	20.14
256.567	-22.87
256.784	79.53
257	-0.34
257.217	122.54
257.433	54.95
257.65	54.95
257.866	153.26
258.082	-14.68
258.299	-2.39
258.515	9.9
258.732	-37.2
258.948	75.43
259.165	50.86
259.381	-29.01
259.597	89.77
259.814	110.25
260.03	-16.73
260.246	7.85
260.463	161.45
260.679	140.97
260.895	42.67
261.112	91.82
261.328	-12.63
261.544	46.76
261.761	140.97
261.977	-67.92
262.193	-10.58
262.409	75.43
262.626	91.82
262.842	42.67
263.058	3.75
263.274	126.63
263.49	100.01
263.707	163.5
263.923	104.11
264.139	-31.06
264.355	63.15
264.571	42.67
264.787	120.49
265.004	71.34
265.22	11.95
265.436	-94.55
265.652	24.23
265.868	132.78
266.084	-31.06
266.3	5.8
266.516	20.14
266.732	128.68
266.948	79.53
267.164	48.81
267.38	102.06
267.596	122.54
267.812	173.74
268.028	91.82
268.244	-2.39
268.46	89.77
268.676	-20.82
268.892	69.29
269.108	34.47
269.324	54.95
269.54	38.57
269.756	130.73
269.972	-47.44
270.188	63.15
270.403	-22.87
270.619	59.05
270.835	233.13
271.051	7.85
271.267	22.19
271.483	-37.2
271.698	122.54
271.914	73.39
272.13	9.9
272.346	-10.58
272.562	114.34
272.777	134.82
272.993	89.77
273.209	-59.73
273.425	89.77
273.64	-37.2
273.856	138.92
274.072	-2.39
274.287	-35.16
274.503	134.82
274.719	128.68
274.934	-45.4
275.15	-45.4
275.366	97.96
275.581	-49.49
275.797	93.87
276.012	95.91
276.228	-2.39
276.444	65.19
276.659	104.11
276.875	-8.53
277.09	22.19
277.306	-35.16
277.521	87.72
277.737	16.04
277.952	36.52
278.168	52.91
278.383	30.38
278.599	79.53
278.814	46.76
279.03	102.06
279.245	126.63
279.461	71.34
279.676	155.3
279.892	-20.82
280.107	-33.11
280.322	-59.73
280.538	44.71
280.753	32.43
280.969	34.47
281.184	77.48
281.399	73.39
281.615	134.82
281.83	132.78
282.045	-51.54
282.26	38.57
282.476	22.19
282.691	102.06
282.906	67.24
283.122	79.53
283.337	-31.06
283.552	30.38
283.767	91.82
283.983	57
284.198	46.76
284.413	77.48
284.628	-33.11
284.843	13.99
285.058	116.39
285.274	34.47
285.489	32.43
285.704	52.91
285.919	-39.25
286.134	-0.34
286.349	73.39
286.564	-0.34
286.779	130.73
286.995	9.9
287.21	-24.92
287.425	116.39
287.64	50.86
287.855	52.91
288.07	-18.77
288.285	181.93
288.5	83.63
288.715	69.29
288.93	136.87
289.145	-4.44
289.36	114.34
289.575	-84.31
289.79	145.06
290.004	30.38
290.219	175.78
290.434	-84.31
290.649	-4.44
290.864	-6.49
291.079	83.63
291.294	13.99
291.509	100.01
291.724	-20.82
291.938	85.67
292.153	22.19
292.368	16.04
292.583	40.62
292.798	143.02
293.012	124.58
293.227	1.71
293.442	-12.63
293.657	110.25
293.871	128.68
294.086	13.99
294.301	177.83
294.516	87.72
294.73	11.95
294.945	-69.97
295.16	54.95
295.374	200.36
295.589	124.58
295.804	-74.07
296.018	77.48
296.233	136.87
296.447	73.39
296.662	-4.44
296.877	143.02
297.091	50.86
297.306	-8.53
297.52	-33.11
297.735	52.91
297.949	52.91
298.164	85.67
298.378	102.06
298.593	52.91
298.807	-6.49
299.022	38.57
299.236	183.98
299.451	-16.73
299.665	7.85
299.88	-4.44
300.094	104.11
300.309	73.39
300.523	81.58
300.737	50.86
300.952	32.43
301.166	145.06
301.381	9.9
301.595	-143.7
301.809	63.15
302.024	-18.77
302.238	-20.82
302.452	124.58
302.667	44.71
302.881	104.11
303.095	85.67
303.309	54.95
303.524	-4.44
303.738	34.47
303.952	-67.92
304.166	157.35
304.381	-102.74
304.595	151.21
304.809	59.05
305.023	120.49
305.237	1.71
305.452	91.82
305.666	16.04
305.88	65.19
306.094	122.54
306.308	75.43
306.522	102.06
306.736	54.95
306.95	81.58
307.164	38.57
307.379	28.33
307.593	198.31
307.807	106.15
308.021	147.11
308.235	85.67
308.449	-12.63
308.663	18.09
308.877	249.51
309.091	89.77
309.305	67.24
309.519	-90.45
309.733	79.53
309.947	11.95
310.161	91.82
310.374	126.63
310.588	140.97
310.802	-4.44
311.016	63.15
311.23	59.05
311.444	-22.87
311.658	46.76
311.872	151.21
312.085	134.82
312.299	157.35
312.513	147.11
312.727	40.62
312.941	36.52
313.154	28.33
313.368	59.05
313.582	102.06
313.796	153.26
314.009	18.09
314.223	138.92
314.437	24.23
314.651	108.2
314.864	18.09
315.078	38.57
315.292	24.23
315.505	-20.82
315.719	81.58
315.933	155.3
316.146	-29.01
316.36	-0.34
316.573	132.78
316.787	-10.58
317.001	81.58
317.214	-4.44
317.428	112.3
317.641	-18.77
317.855	71.34
318.068	57
318.282	73.39
318.495	218.79
318.709	91.82
318.922	34.47
319.136	87.72
319.349	100.01
319.563	46.76
319.776	59.05
319.99	9.9
320.203	151.21
320.417	-0.34
320.63	81.58
320.843	181.93
321.057	118.44
321.27	28.33
321.483	114.34
321.697	204.46
321.91	57
322.124	79.53
322.337	110.25
322.55	-98.64
322.763	11.95
322.977	-14.68
323.19	34.47
323.403	-14.68
323.617	93.87
323.83	81.58
324.043	-0.34
324.256	57
324.469	-39.25
324.683	124.58
324.896	5.8
325.109	140.97
325.322	-115.03
325.535	30.38
325.748	112.3
325.962	59.05
326.175	38.57
326.388	120.49
326.601	155.3
326.814	18.09
327.027	38.57
327.24	93.87
327.453	-65.88
327.666	132.78
327.879	112.3
328.092	48.81
328.305	-18.77
328.518	-35.16
328.731	13.99
328.944	13.99
329.157	100.01
329.37	30.38
329.583	204.46
329.796	157.35
330.009	-2.39
330.222	153.26
330.435	95.91
330.648	50.86
330.861	20.14
331.073	20.14
331.286	132.78
331.499	114.34
331.712	-39.25
331.925	79.53
332.138	97.96
332.35	48.81
332.563	-2.39
332.776	173.74
332.989	-98.64
333.202	7.85
333.414	40.62
333.627	59.05
333.84	44.71
334.053	16.04
334.265	-6.49
334.478	30.38
334.691	97.96
334.903	24.23
335.116	-61.78
335.329	134.82
335.541	44.71
335.754	192.17
335.966	-41.3
336.179	91.82
336.392	102.06
336.604	59.05
336.817	102.06
337.029	67.24
337.242	50.86
337.454	171.69
337.667	-31.06
337.88	120.49
338.092	46.76
338.305	71.34
338.517	16.04
338.729	83.63
338.942	153.26
339.154	7.85
339.367	26.28
339.579	93.87
339.792	40.62
340.004	100.01
340.217	30.38
340.429	128.68
340.641	40.62
340.854	-4.44
341.066	28.33
341.278	91.82
341.491	87.72
341.703	28.33
341.915	40.62
342.128	132.78
342.34	75.43
342.552	38.57
342.764	11.95
342.977	-4.44
343.189	71.34
343.401	59.05
343.613	-53.59
343.826	-4.44
344.038	3.75
344.25	42.67
344.462	-53.59
344.674	40.62
344.886	11.95
345.099	38.57
345.311	85.67
345.523	-49.49
345.735	-94.55
345.947	122.54
346.159	1.71
346.371	-8.53
346.583	34.47
346.795	173.74
347.007	-2.39
347.219	132.78
347.431	48.81
347.643	136.87
347.855	26.28
348.067	136.87
348.279	-59.73
348.491	87.72
348.703	120.49
348.915	18.09
349.127	20.14
349.339	11.95
349.551	-20.82
349.763	5.8
349.975	44.71
350.187	52.91
350.399	167.59
350.61	112.3
350.822	26.28
351.034	79.53
351.246	95.91
351.458	16.04
351.669	106.15
351.881	48.81
352.093	100.01
352.305	83.63
352.517	67.24
352.728	116.39
352.94	124.58
353.152	100.01
353.363	-31.06
353.575	34.47
353.787	118.44
353.999	52.91
354.21	145.06
354.422	13.99
354.633	67.24
354.845	63.15
355.057	7.85
355.268	138.92
355.48	89.77
355.692	-59.73
355.903	24.23
356.115	9.9
356.326	-98.64
356.538	81.58
356.749	36.52
356.961	171.69
357.172	124.58
357.384	-69.97
357.595	188.07
357.807	-12.63
358.018	-6.49
358.23	-14.68
358.441	259.75
358.653	38.57
358.864	61.1
359.075	30.38
359.287	-0.34
359.498	126.63
359.709	61.1
359.921	50.86
360.132	149.16
360.344	-10.58
360.555	-22.87
360.766	7.85
360.977	-0.34
361.189	161.45
361.4	65.19
361.611	167.59
361.823	181.93
362.034	34.47
362.245	-59.73
362.456	61.1
362.667	30.38
362.879	36.52
363.09	143.02
363.301	87.72
363.512	71.34
363.723	34.47
363.935	79.53
364.146	112.3
364.357	36.52
364.568	67.24
364.779	-61.78
364.99	116.39
365.201	40.62
365.412	194.22
365.623	-104.79
365.834	102.06
366.045	5.8
366.256	3.75
366.467	81.58
366.678	28.33
366.889	42.67
367.1	42.67
367.311	153.26
367.522	7.85
367.733	83.63
367.944	100.01
368.155	75.43
368.366	145.06
368.577	132.78
368.788	126.63
368.999	-43.35
369.209	87.72
369.42	239.27
369.631	173.74
369.842	52.91
370.053	-6.49
370.264	100.01
370.474	-8.53
370.685	85.67
370.896	20.14
371.107	153.26
371.317	36.52
371.528	-35.16
371.739	112.3
371.95	32.43
372.16	93.87
372.371	-12.63
372.582	59.05
372.792	77.48
373.003	91.82
373.214	97.96
373.424	16.04
373.635	3.75
373.846	145.06
374.056	-6.49
374.267	97.96
374.477	52.91
374.688	5.8
374.898	42.67
375.109	67.24
375.319	38.57
375.53	79.53
375.74	102.06
375.951	-45.4
376.161	50.86
376.372	149.16
376.582	13.99
376.793	59.05
377.003	48.81
377.214	75.43
377.424	40.62
377.635	106.15
377.845	1.71
378.055	157.35
378.266	-51.54
378.476	-12.63
378.686	108.2
378.897	116.39
379.107	69.29
379.317	157.35
379.528	34.47
379.738	63.15
379.948	-12.63
380.158	128.68
380.369	28.33
380.579	73.39
380.789	65.19
380.999	157.35
381.21	89.77
381.42	179.88
381.63	7.85
381.84	145.06
382.05	161.45
382.261	110.25
382.471	165.54
382.681	-10.58
382.891	186.02
383.101	5.8
383.311	32.43
383.521	48.81
383.731	67.24
383.941	93.87
384.151	3.75
384.361	75.43
384.571	89.77
384.781	89.77
384.991	181.93
385.201	120.49
385.411	183.98
385.621	89.77
385.831	73.39
386.041	26.28
386.251	44.71
386.461	159.4
386.671	-8.53
386.881	120.49
387.091	24.23
387.301	110.25
387.511	9.9
387.72	85.67
387.93	136.87
388.14	-33.11
388.35	116.39
388.56	114.34
388.769	116.39
388.979	28.33
389.189	-43.35
389.399	-26.96
389.609	112.3
389.818	85.67
390.028	65.19
390.238	54.95
390.447	-10.58
390.657	77.48
390.867	9.9
391.076	-55.64
391.286	104.11
391.496	83.63
391.705	-47.44
391.915	110.25
392.125	114.34
392.334	-78.16
392.544	175.78
392.753	38.57
392.963	-31.06
393.172	-2.39
393.382	42.67
393.591	251.56
393.801	57
394.01	155.3
394.22	114.34
394.429	100.01
394.639	48.81
394.848	128.68
395.058	69.29
395.267	22.19
395.477	11.95
395.686	171.69
395.895	155.3
396.105	200.36
396.314	153.26
396.524	5.8
396.733	87.72
396.942	77.48
397.152	83.63
397.361	79.53
397.57	106.15
397.78	77.48
397.989	120.49
398.198	257.7
398.407	71.34
398.617	73.39
398.826	79.53
399.035	-16.73
399.244	155.3
399.453	38.57
399.663	42.67
399.872	48.81
400.081	38.57
400.29	198.31
400.499	-47.44
400.708	134.82
400.917	71.34
401.127	-14.68
401.336	-45.4
401.545	278.18
401.754	183.98
401.963	-37.2
402.172	40.62
402.381	-59.73
402.59	112.3
402.799	100.01
403.008	104.11
403.217	22.19
403.426	46.76
403.635	-55.64
403.844	-45.4
404.053	71.34
404.262	-41.3
404.471	194.22
404.68	81.58
404.888	-53.59
405.097	52.91
405.306	34.47
405.515	54.95
405.724	73.39
405.933	143.02
406.142	54.95
406.35	120.49
406.559	61.1
406.768	173.74
406.977	169.64
407.185	100.01
407.394	169.64
407.603	-41.3
407.812	181.93
408.02	169.64
408.229	77.48
408.438	118.44
408.646	30.38
408.855	104.11
409.064	126.63
409.272	75.43
409.481	46.76
409.69	20.14
409.898	59.05
410.107	54.95
410.315	188.07
410.524	-10.58
410.733	75.43
410.941	61.1
411.15	124.58
411.358	130.73
411.567	198.31
411.775	13.99
411.984	77.48
412.192	104.11
412.401	54.95
412.609	157.35
412.818	91.82
413.026	128.68
413.234	46.76
413.443	42.67
413.651	-4.44
413.86	61.1
414.068	204.46
414.276	97.96
414.485	50.86
414.693	206.5
414.901	173.74
415.11	-16.73
415.318	100.01
415.526	18.09
415.734	145.06
415.943	100.01
416.151	106.15
416.359	22.19
416.567	112.3
416.776	44.71
416.984	28.33
417.192	165.54
417.4	63.15
417.608	-39.25
417.817	-10.58
418.025	28.33
418.233	128.68
418.441	52.91
418.649	-65.88
418.857	95.91
419.065	183.98
419.273	-16.73
419.481	87.72
419.689	34.47
419.897	63.15
420.105	-24.92
420.313	171.69
420.521	196.26
420.729	116.39
420.937	95.91
421.145	-16.73
421.353	116.39
421.561	163.5
421.769	81.58
421.977	48.81
422.185	198.31
422.393	20.14
422.601	157.35
422.809	161.45
423.017	87.72
423.224	57
423.432	183.98
423.64	163.5
423.848	102.06
424.056	69.29
424.263	138.92
424.471	95.91
424.679	206.5
424.887	97.96
425.094	151.21
425.302	93.87
425.51	30.38
425.718	151.21
425.925	165.54
426.133	20.14
426.341	216.74
426.548	22.19
426.756	38.57
426.964	87.72
427.171	69.29
427.379	83.63
427.586	126.63
427.794	91.82
428.001	63.15
428.209	89.77
428.417	167.59
428.624	122.54
428.832	89.77
429.039	106.15
429.247	104.11
429.454	116.39
429.662	163.5
429.869	233.13
430.076	167.59
430.284	130.73
430.491	224.94
430.699	136.87
430.906	255.65
431.114	157.35
431.321	75.43
431.528	173.74
431.736	237.22
431.943	136.87
432.15	194.22
432.358	155.3
432.565	272.04
432.772	61.1
432.979	284.33
433.187	110.25
433.394	212.65
433.601	161.45
433.808	208.55
434.016	218.79
434.223	263.85
434.43	167.59
434.637	290.47
434.844	192.17
435.052	253.61
435.259	278.18
435.466	237.22
435.673	261.8
435.88	380.58
436.087	331.43
436.294	388.77
436.501	384.68
436.708	243.37
436.915	276.13
437.122	421.54
437.329	249.51
437.537	349.86
437.743	419.49
437.95	439.97
438.157	437.92
438.364	321.19
438.571	437.92
438.778	417.44
438.985	466.6
439.192	536.23
439.399	489.12
439.606	489.12
439.813	493.22
440.02	665.25
440.227	667.3
440.433	646.82
440.64	532.13
440.847	589.47
441.054	595.62
441.261	642.72
441.467	671.39
441.674	560.8
441.881	745.12
442.088	630.43
442.294	792.22
442.501	824.99
442.708	874.14
442.914	829.09
443.121	927.39
443.328	886.43
443.534	966.3
443.741	861.85
443.948	890.53
444.154	1044.12
444.361	1109.66
444.568	1085.08
444.774	1005.21
444.981	988.83
445.187	1210.01
445.394	1257.11
445.6	1191.58
445.807	1351.32
446.013	1263.26
446.22	1259.16
446.426	1320.6
446.633	1529.49
446.839	1740.43
447.046	1418.9
447.252	1644.18
447.459	1644.18
447.665	1816.21
447.871	1812.11
448.078	2080.39
448.284	1867.41
448.491	2053.77
448.697	2215.56
448.903	2246.28
449.11	2279.05
449.316	2229.9
449.522	2446.98
449.728	2614.91
449.935	2565.76
450.141	2604.67
450.347	2758.27
450.553	2782.85
450.76	2752.13
450.966	2932.35
451.172	3225.21
451.378	3350.14
451.584	3290.74
451.791	3479.16
451.997	3602.04
452.203	3694.19
452.409	3948.14
452.615	4177.51
452.821	3944.05
453.027	4036.21
453.233	4644.45
453.44	4185.71
453.646	4642.4
453.852	4748.9
454.058	4945.5
454.264	5228.12
454.47	5690.96
454.676	5662.29
454.882	6094.41
455.088	5772.88
455.294	6125.13
455.5	6389.32
455.705	6800.96
455.911	7026.24
456.117	7059.01
456.323	7185.98
456.529	7218.75
456.735	7870
456.941	8160.81
457.147	8541.74
457.352	8752.68
457.558	8934.95
457.764	9520.67
457.97	9850.39
458.176	10034.71
458.381	10477.07
458.587	10976.77
458.793	11378.17
458.999	11419.13
459.204	13223.39
459.41	13290.98
459.616	13229.54
459.821	13940.18
460.027	14497.23
460.233	15113.67
460.438	15351.23
460.644	16080.31
460.85	16231.86
461.055	16788.91
461.261	17700.25
461.466	17442.21
461.672	17690.01
461.878	19553.66
462.083	19623.3
462.289	19989.88
462.494	21040.49
462.7	21017.96
462.905	21087.59
463.111	22941
463.316	23979.32
463.522	24540.47
463.727	25087.28
463.932	26148.12
464.138	26942.74
464.343	28185.85
464.549	28116.22
464.754	30143.71
464.959	30999.76
465.165	31583.43
465.37	31503.56
465.575	31595.72
465.781	33320.11
465.986	34669.72
466.191	34049.19
466.397	34481.31
466.602	33569.96
466.807	35521.68
467.012	36078.72
467.218	36308.1
467.423	36838.52
467.628	37706.86
467.833	39404.63
468.038	38513.76
468.244	38085.73
468.449	40070.22
468.654	39101.53
468.859	39263.32
469.064	39334.99
469.269	38167.65
469.474	38773.85
469.679	39803.98
469.885	38968.41
470.09	39095.38
470.295	39283.8
470.5	38528.09
470.705	38833.24
470.91	37770.35
471.115	37264.5
471.32	37940.33
471.525	37545.07
471.73	36398.21
471.935	36310.14
472.139	34743.45
472.344	34735.26
472.549	34729.11
472.754	33987.75
472.959	33078.45
473.164	32228.54
473.369	31657.16
473.574	33053.87
473.778	31935.68
473.983	31163.6
474.188	30954.71
474.393	29357.29
474.598	29228.27
474.802	28361.98
475.007	28345.59
475.212	28163.32
475.417	26594.58
475.621	26688.79
475.826	26416.41
476.031	25769.25
476.235	25206.06
476.44	25548.07
476.645	24487.22
476.849	24368.44
477.054	23958.85
477.259	23328.07
477.463	23203.14
477.668	22537.55
477.872	22734.16
478.077	21955.93
478.282	21572.96
478.486	21095.78
478.691	20774.25
478.895	20837.74
479.1	20579.7
479.304	20614.51
479.509	19983.74
479.713	20288.89
479.918	19721.6
480.122	19330.44
480.326	19524.99
480.531	19299.72
480.735	19258.76
480.94	18677.13
481.144	19293.57
481.348	18306.45
481.553	18351.51
481.757	17853.85
481.961	18367.89
482.166	18371.99
482.37	18064.79
482.574	17534.37
482.778	17468.83
482.983	17919.39
483.187	17581.47
483.391	17374.63
483.595	17114.53
483.8	16827.82
484.004	17122.73
484.208	17104.29
484.412	16655.79
484.616	16520.62
484.821	16246.19
485.025	15564.22
485.229	15996.34
485.433	15435.2
485.637	15588.8
485.841	15263.17
486.045	15015.37
486.249	15005.13
486.453	14425.55
486.657	14364.11
486.861	14478.8
487.065	13641.18
487.269	13864.41
487.473	13436.38
487.677	13501.92
487.881	13626.84
488.085	12846.57
488.289	12862.95
488.493	12439.02
488.697	12504.56
488.901	12359.15
489.105	11855.35
489.309	11935.22
489.512	11595.26
489.716	11257.34
489.92	11161.09
490.124	10925.57
490.328	10927.62
490.531	10470.92
490.735	10444.3
490.939	10249.74
491.143	9846.29
491.346	9858.58
491.55	9639.45
491.754	9600.54
491.958	9412.12
492.161	9139.74
492.365	9047.58
492.569	8973.86
492.772	8775.2
492.976	8877.6
493.18	8588.84
493.383	8775.2
493.587	8517.16
493.79	8543.78
493.994	8009.26
494.197	8056.37
494.401	8085.04
494.605	8029.74
494.808	7910.96
495.012	7816.76
495.215	7892.53
495.419	7827
495.622	7630.39
495.825	7665.21
496.029	7507.51
496.232	7816.76
496.436	7487.03
496.639	7779.89
496.843	7503.42
497.046	7538.23
497.249	7736.88
497.453	7579.19
497.656	7575.1
497.859	7626.29
498.063	7603.77
498.266	7640.63
498.469	7503.42
498.673	7673.4
498.876	7745.08
499.079	7689.78
499.282	7792.18
499.485	8013.36
499.689	7923.25
499.892	8076.85
500.095	7894.58
500.298	8021.55
500.501	8046.13
500.705	8255.02
500.908	8283.69
501.111	8181.29
501.314	8418.86
501.517	8551.98
501.72	8513.06
501.923	8615.46
502.126	8541.74
502.329	9002.53
502.532	8971.81
502.735	8869.41
502.938	8988.19
503.141	8955.43
503.344	9268.77
503.547	9491.99
503.75	9477.66
503.953	9805.33
504.156	9840.15
504.359	9901.59
504.562	10059.28
504.765	10259.98
504.968	10298.89
505.17	10767.88
505.373	10499.59
505.576	10911.24
505.779	11118.08
505.982	11017.73
506.185	11437.56
506.387	11886.07
506.59	11722.23
506.793	12273.14
506.996	12127.73
507.198	12727.78
507.401	12701.16
507.604	13037.03
507.807	13082.08
508.009	13575.64
508.212	13589.98
508.415	14026.2
508.617	14177.75
508.82	14431.69
509.022	14796.23
509.225	15306.18
509.428	15324.61
509.63	15615.42
509.833	15900.09
510.035	16727.47
510.238	16895.4
510.44	17431.97
510.643	17722.78
510.845	18029.98
511.048	18195.86
511.25	18513.3
511.453	18969.99
511.655	19948.92
511.858	20069.75
512.06	20614.51
512.262	20540.79
512.465	21101.93
512.667	22013.27
512.87	22422.87
513.072	22955.34
513.274	23526.72
513.477	24008
513.679	24182.07
513.881	24825.14
514.084	25457.96
514.286	25754.91
514.488	26293.53
514.69	27299.08
514.893	27841.79
515.095	28138.75
515.297	28663.03
515.499	29072.62
515.701	30250.21
515.904	30739.67
516.106	31415.5
516.308	31827.14
516.51	32754.87
516.712	33070.26
516.914	33723.56
517.116	34442.4
517.318	35077.27
517.52	35617.93
517.722	36160.64
517.925	36689.02
518.127	37643.37
518.329	38517.85
518.531	38655.07
518.733	39519.31
518.935	40168.52
519.136	40414.27
519.338	41225.27
519.54	42314.79
519.742	42445.86
519.944	43136.02
520.146	44383.24
520.348	44723.2
520.55	45214.71
520.752	45177.85
520.954	46283.75
521.155	45966.32
521.357	47287.26
521.559	47815.63
521.761	48548.81
521.963	48360.39
522.164	48982.98
522.366	49306.55
522.568	49548.21
522.77	50660.26
522.971	50781.09
523.173	50428.84
523.375	51407.77
523.576	50957.22
523.778	51268.51
523.98	51880.85
524.181	51927.95
524.383	52048.78
524.584	52798.34
524.786	52511.63
524.988	52614.02
525.189	52908.93
525.391	52935.55
525.592	52923.27
525.794	53238.65
525.995	52671.37
526.197	52353.93
526.398	52321.16
526.6	52923.27
526.801	52427.66
527.003	52333.45
527.204	52202.38
527.406	52095.89
527.607	52097.94
527.808	51878.8
528.01	50619.3
528.211	51166.11
528.412	51487.64
528.614	50774.95
528.815	50381.74
529.016	50510.76
529.218	49458.1
529.419	49359.8
529.62	48976.83
529.822	48661.44
530.023	47639.51
530.224	47825.87
530.425	46978.01
530.626	46040.04
530.828	45822.96
531.029	46001.13
531.23	45028.35
531.431	44184.58
531.632	44352.52
531.833	43979.79
532.035	43289.62
532.236	42621.98
532.437	42603.55
532.638	41417.78
532.839	40840.25
533.04	40815.68
533.241	40229.96
533.442	40152.13
533.643	39464.02
533.844	38763.61
534.045	38214.76
534.246	37426.29
534.447	37479.53
534.648	36883.58
534.849	36330.62
535.05	35374.22
535.251	35331.22
535.451	34372.77
535.652	34387.1
535.853	33993.89
536.054	33668.26
536.255	33289.39
536.456	32525.5
536.657	32304.32
536.857	31616.2
537.058	30991.57
537.259	30803.16
537.46	30655.7
537.66	30094.56
537.861	29695.21
538.062	29207.79
538.263	28916.98
538.463	28550.39
538.664	27993.34
538.865	28083.45
539.065	27913.47
539.266	27383.05
539.466	27102.48
539.667	26381.59
539.868	26424.6
540.068	26070.3
540.269	25668.9
540.469	25644.32
540.67	25128.24
540.87	24868.14
541.071	24026.43
541.271	24266.04
541.472	23993.66
541.672	23383.37
541.873	23508.29
542.073	22781.26
542.274	22818.13
542.474	22465.88
542.675	22191.45
542.875	22492.5
543.075	21681.5
543.276	21378.4
543.476	21343.59
543.676	21161.32
543.877	21153.13
544.077	21032.3
544.277	20538.74
544.478	20327.8
544.678	20211.06
544.878	19842.43
545.078	19672.45
545.279	19441.03
545.479	19078.54
545.679	19170.69
545.879	18550.16
546.079	18650.51
546.28	18126.23
546.48	17847.71
546.68	18036.12
546.88	17401.25
547.08	17368.48
547.28	17192.36
547.48	17180.07
547.68	16936.36
547.88	16434.61
548.081	16565.68
548.281	16358.83
548.481	15762.87
548.681	15924.66
548.881	15320.51
549.081	15373.76
549.28	15011.27
549.48	15085
549.68	14890.44
549.88	14724.55
550.08	14415.31
550.28	14247.38
550.48	14142.93
550.68	13954.52
550.88	13661.66
551.08	13536.73
551.279	13434.33
551.479	12998.12
551.679	13034.98
551.879	12568.04
552.079	12563.95
552.278	12178.93
552.478	12246.51
552.678	12000.76
552.878	11763.19
553.077	11607.55
553.277	11177.47
553.477	11419.13
553.676	11208.19
553.876	10864.13
554.076	10663.43
554.275	10642.95
554.475	10393.1
554.674	10391.05
554.874	10124.82
555.074	9856.53
555.273	9672.22
555.473	9602.58
555.672	9397.79
555.872	9272.86
556.071	9352.73
556.271	9141.79
556.47	8971.81
556.67	8633.89
556.869	8470.06
557.068	8590.89
557.268	8357.42
557.467	8216.11
557.667	8181.29
557.866	7925.3
558.065	7980.59
558.265	7659.06
558.464	7484.98
558.663	7429.69
558.863	7333.43
559.062	7470.65
559.261	7183.93
559.461	6956.61
559.66	6635.08
559.859	6776.39
560.058	6489.67
560.258	6524.49
560.457	6430.28
560.656	6440.52
560.855	6139.47
561.054	6184.52
561.253	6092.37
561.453	6071.89
561.652	6002.26
561.851	5897.81
562.05	5674.58
562.249	5596.76
562.448	5467.74
562.647	5385.82
562.846	5461.59
563.045	5211.74
563.244	5289.56
563.443	5189.21
563.642	5140.06
563.841	5045.85
564.04	4937.31
564.239	4922.98
564.438	4812.39
564.637	4630.12
564.836	4650.6
565.035	4644.45
565.234	4486.76
565.432	4513.38
565.631	4308.58
565.83	4355.69
566.029	4273.77
566.228	4294.25
566.427	4206.19
566.625	4142.7
566.824	4021.87
567.023	4089.45
567.222	3901.04
567.42	3808.88
567.619	3683.95
567.818	3839.6
568.016	3882.61
568.215	3565.17
568.414	3665.52
568.612	3729.01
568.811	3614.32
569.01	3350.14
569.208	3405.43
569.407	3423.86
569.605	3372.66
569.804	3262.07
570.002	3231.35
570.201	3214.97
570.4	3198.59
570.598	3001.98
570.797	3098.24
570.995	2948.73
571.193	2899.58
571.392	2940.54
571.59	2674.31
571.789	2864.77
571.987	2860.67
572.186	2823.81
572.384	2694.79
572.582	2637.44
572.781	2664.07
572.979	2500.23
573.177	2500.23
573.376	2416.26
573.574	2479.75
573.772	2381.45
573.971	2309.77
574.169	2371.21
574.367	2340.49
574.565	2246.28
574.763	2270.86
574.962	2289.29
575.16	2252.42
575.358	2221.7
575.556	2018.96
575.754	2160.27
575.952	2125.45
576.151	2004.62
576.349	2088.59
576.547	1834.64
576.745	1978
576.943	1883.79
577.141	1719.95
577.339	1885.84
577.537	1924.75
577.735	1816.21
577.933	1713.81
578.131	1650.32
578.329	1867.41
578.527	1564.31
578.725	1732.24
578.923	1521.3
579.121	1592.98
579.319	1586.83
579.516	1595.03
579.714	1662.61
579.912	1461.91
580.11	1353.37
580.308	1498.77
580.506	1459.86
580.704	1201.82
580.901	1306.26
581.099	1449.62
581.297	1359.51
581.495	1291.93
581.692	1332.89
581.89	1359.51
582.088	1353.37
582.285	1167
582.483	1257.11
582.681	1203.86
582.878	1185.43
583.076	1304.21
583.274	1142.43
583.471	1371.8
583.669	1128.09
583.866	1005.21
584.064	1117.85
584.262	1074.84
584.459	1054.36
584.657	1068.7
584.854	1085.08
585.052	1089.18
585.249	1103.51
585.447	968.35
585.644	837.28
585.841	1011.36
586.039	1013.4
586.236	1060.51
586.434	919.2
586.631	857.76
586.828	857.76
587.026	886.43
587.223	788.13
587.42	857.76
587.618	935.58
587.815	931.48
588.012	804.51
588.21	874.14
588.407	859.81
588.604	843.42
588.801	710.3
588.999	816.8
589.196	882.33
589.393	718.5
589.59	669.34
589.787	738.98
589.984	765.6
590.182	800.41
590.379	732.83
590.576	689.82
590.773	730.78
590.97	683.68
591.167	751.26
591.364	784.03
591.561	661.15
591.758	788.13
591.955	865.95
592.152	743.07
592.349	722.59
592.546	698.02
592.743	644.77
592.94	728.74
593.137	640.67
593.334	820.89
593.531	788.13
593.727	779.93
593.924	773.79
594.121	765.6
594.318	716.45
594.515	775.84
594.712	820.89
594.908	802.46
595.105	681.63
595.302	775.84
595.499	841.37
595.696	831.13
595.892	837.28
596.089	855.71
596.286	870.05
596.482	876.19
596.679	908.96
596.876	859.81
597.072	911
597.269	845.47
597.466	978.59
597.662	913.05
597.859	904.86
598.055	1025.69
598.252	1074.84
598.448	1167
598.645	1123.99
598.841	1162.9
599.038	1240.73
599.234	1396.37
599.431	1369.75
599.627	1347.22
599.824	1509.01
600.02	1402.52
600.217	1461.91
600.413	1527.44
600.609	1646.23
600.806	1855.12
601.002	1838.73
601.198	1603.22
601.395	1967.76
601.591	1992.33
601.787	1894.03
601.984	2082.44
602.18	2293.38
602.376	2143.88
602.572	2504.32
602.769	2416.26
602.965	2403.97
603.161	2694.79
603.357	2670.21
603.553	2854.53
603.75	2875.01
603.946	2969.21
604.142	3053.18
604.338	3122.81
604.534	3184.25
604.73	3239.55
604.926	3368.57
605.122	3620.47
605.318	3556.98
605.514	3778.16
605.71	3808.88
605.906	4032.11
606.102	3982.96
606.298	4265.58
606.494	4499.05
606.69	4513.38
606.886	4472.42
607.082	4488.81
607.278	4859.49
607.474	5023.33
607.67	5099.1
607.866	5135.96
608.062	5336.67
608.257	5572.18
608.453	5598.81
608.649	5770.83
608.845	5867.09
609.041	6155.85
609.236	6282.83
609.432	6440.52
609.628	6557.25
609.824	6815.3
610.019	6762.05
610.215	6962.75
610.411	7362.11
610.606	7673.4
610.802	7781.94
610.998	8072.75
611.193	8191.53
611.389	8326.7
611.584	8754.73
611.78	8744.49
611.976	9043.49
612.171	9590.3
612.367	9649.69
612.562	9866.77
612.758	9870.87
612.953	9983.51
613.149	10440.2
613.344	10731.01
613.539	10989.06
613.735	11230.72
613.93	11716.09
614.126	11853.3
614.321	12527.08
614.517	12680.68
614.712	12860.9
614.907	13192.67
615.103	13598.17
615.298	13888.98
615.493	14206.42
615.688	14669.26
615.884	15121.86
616.079	14949.83
616.274	15721.91
616.47	15906.23
616.665	16582.06
616.86	16903.59
617.055	17202.6
617.25	17524.13
617.445	18345.36
617.641	18357.65
617.836	19148.17
618.031	19262.85
618.226	19987.83
618.421	20292.98
618.616	20843.88
618.811	21196.14
619.006	22048.09
619.201	21839.2
619.396	22910.29
619.591	23151.95
619.786	23981.37
619.981	23872.83
620.176	24642.87
620.371	25113.9
620.566	25650.47
620.761	26354.97
620.956	26967.31
621.151	26764.56
621.346	27839.75
621.541	28200.19
621.735	29181.17
621.93	29109.49
622.125	29904.1
622.32	30268.64
622.515	30745.81
622.709	31263.95
622.904	32158.91
623.099	32181.44
623.294	33395.89
623.488	33500.33
623.683	34450.59
623.878	34651.29
624.072	35462.29
624.267	35720.33
624.462	36543.61
624.656	36545.66
624.851	37551.21
625.046	37764.2
625.24	38149.22
625.435	39029.85
625.629	39328.85
625.824	39963.72
626.018	40356.93
626.213	40004.68
626.407	40979.51
626.602	40899.64
626.796	42003.5
626.991	42327.08
627.185	42529.83
627.38	42822.69
627.574	42720.29
627.768	42953.76
627.963	43133.98
628.157	43170.84
628.352	43754.51
628.546	43332.63
628.74	43582.48
628.935	42869.79
629.129	43293.72
629.323	42718.24
629.517	42808.35
629.712	42230.82
629.906	42081.32
630.1	41184.31
630.294	41503.79
630.489	40416.32
630.683	40225.86
630.877	39038.04
631.071	38390.88
631.265	38337.63
631.459	36875.38
631.653	36297.86
631.848	35515.53
632.042	34858.13
632.236	33897.64
632.43	32664.76
632.624	32455.87
632.818	31093.97
633.012	29834.47
633.206	28970.22
633.4	28245.24
633.594	26973.46
633.788	26047.77
633.982	25480.49
634.176	24446.26
634.369	23446.85
634.563	22508.88
634.757	21511.52
634.951	21042.54
635.145	20180.34
635.339	19404.16
635.533	18419.09
635.726	17778.08
635.92	16717.23
636.114	16453.04
636.308	15515.07
636.501	15128
636.695	14566.86
636.889	13589.98
637.083	13149.67
637.276	12793.32
637.47	12314.09
637.664	11826.68
637.857	11181.57
638.051	10769.93
638.244	10225.17
638.438	10022.42
638.632	9543.19
638.825	9096.74
639.019	8758.82
639.212	8259.12
639.406	8164.91
639.599	7847.47
639.793	7495.22
639.986	7108.16
640.18	7194.17
640.373	6854.21
640.567	6202.96
640.76	6288.97
640.954	6063.69
641.147	5830.23
641.34	5439.06
641.534	5340.76
641.727	5133.92
641.92	5080.67
642.114	4851.3
642.307	4587.11
642.5	4423.27
642.694	4228.71
642.887	3976.81
643.08	4038.25
643.273	3972.72
643.467	3632.76
643.66	3538.55
643.853	3292.79
644.046	3198.59
644.239	3126.91
644.432	3018.36
644.626	2819.71
644.819	2713.22
645.012	2727.55
645.205	2590.34
645.398	2391.69
645.591	2406.02
645.784	2195.08
645.977	2098.83
646.17	2076.3
646.363	2057.87
646.556	1916.56
646.749	1801.87
646.942	1736.34
647.135	1865.36
647.328	1646.23
647.521	1674.9
647.714	1543.83
647.907	1529.49
648.099	1390.23
648.292	1435.28
648.485	1310.36
648.678	1271.45
648.871	1212.06
649.064	1253.02
649.256	1056.41
649.449	1101.47
649.642	1054.36
649.835	960.16
650.027	982.68
650.22	986.78
650.413	898.72
650.605	974.49
650.798	812.7
650.991	853.66
651.183	855.71
651.376	779.93
651.568	843.42
651.761	718.5
651.954	720.54
652.146	618.15
652.339	718.5
652.531	665.25
652.724	556.71
652.916	657.06
653.109	491.17
653.301	724.64
653.494	609.95
653.686	558.75
653.879	562.85
654.071	554.66
654.263	468.64
654.456	401.06
654.648	538.27
654.84	513.7
655.033	417.44
655.225	587.43
655.417	362.15
655.61	503.46
655.802	530.08
655.994	525.99
656.186	265.89
656.379	392.87
656.571	403.11
656.763	335.53
656.955	302.76
657.148	315.05
657.34	419.49
657.532	306.85
657.724	278.18
657.916	372.39
658.108	339.62
658.3	356.01
658.492	310.95
658.684	140.97
658.876	315.05
659.068	179.88
659.26	192.17
659.452	204.46
659.644	274.09
659.836	362.15
660.028	304.81
660.22	235.18
660.412	206.5
660.604	233.13
660.796	241.32
660.988	353.96
661.18	237.22
661.372	249.51
661.563	188.07
661.755	218.79
661.947	149.16
662.139	104.11
662.331	239.27
662.522	181.93
662.714	77.48
662.906	77.48
663.097	188.07
663.289	112.3
663.481	128.68
663.673	183.98
663.864	190.12
664.056	235.18
664.247	190.12
664.439	257.7
664.631	249.51
664.822	151.21
665.014	163.5
665.205	69.29
665.397	151.21
665.588	212.65
665.78	140.97
665.971	226.98
666.163	100.01
666.354	192.17
666.546	132.78
666.737	112.3
666.929	77.48
667.12	52.91
667.311	237.22
667.503	116.39
667.694	224.94
667.885	204.46
668.077	175.78
668.268	-8.53
668.459	93.87
668.651	245.41
668.842	138.92
669.033	46.76
669.224	42.67
669.416	310.95
669.607	112.3
669.798	9.9
669.989	235.18
670.18	95.91
670.371	235.18
670.563	32.43
670.754	194.22
670.945	188.07
671.136	190.12
671.327	106.15
671.518	210.6
671.709	218.79
671.9	190.12
672.091	214.7
672.282	163.5
672.473	138.92
672.664	75.43
672.855	102.06
673.046	106.15
673.237	155.3
673.428	106.15
673.619	317.09
673.809	69.29
674	210.6
674.191	165.54
674.382	54.95
674.573	188.07
674.764	114.34
674.954	212.65
675.145	114.34
675.336	79.53
675.527	102.06
675.717	147.11
675.908	83.63
676.099	87.72
676.289	67.24
676.48	-14.68
676.671	140.97
676.861	108.2
677.052	190.12
677.243	149.16
677.433	112.3
677.624	181.93
677.814	128.68
678.005	124.58
678.195	210.6
678.386	69.29
678.576	116.39
678.767	52.91
678.957	171.69
679.148	245.41
679.338	290.47
679.529	183.98
679.719	110.25
679.909	282.28
680.1	183.98
680.29	143.02
680.481	28.33
680.671	169.64
680.861	134.82
681.052	261.8
681.242	122.54
681.432	206.5
681.622	143.02
681.813	136.87
682.003	239.27
682.193	161.45
682.383	198.31
682.573	179.88
682.764	97.96
682.954	104.11
683.144	272.04
683.334	169.64
683.524	173.74
683.714	272.04
683.904	171.69
684.094	44.71
684.284	192.17
684.474	233.13
684.664	239.27
684.854	153.26
685.044	153.26
685.234	128.68
685.424	169.64
685.614	79.53
685.804	237.22
685.994	247.46
686.184	112.3
686.374	226.98
686.564	214.7
686.753	173.74
686.943	145.06
687.133	100.01
687.323	165.54
687.513	198.31
687.702	163.5
687.892	171.69
688.082	272.04
688.272	218.79
688.461	192.17
688.651	378.53
688.841	216.74
689.03	95.91
689.22	110.25
689.41	200.36
689.599	181.93
689.789	110.25
689.979	245.41
690.168	140.97
690.358	253.61
690.547	145.06
690.737	145.06
690.926	179.88
691.116	198.31
691.305	284.33
691.495	253.61
691.684	147.11
691.874	122.54
692.063	188.07
692.252	226.98
692.442	337.57
692.631	128.68
692.82	165.54
693.01	186.02
693.199	157.35
693.388	284.33
693.578	159.4
693.767	196.26
693.956	161.45
694.146	118.44
694.335	231.08
694.524	167.59
694.713	175.78
694.902	124.58
695.092	231.08
695.281	282.28
695.47	110.25
695.659	130.73
695.848	192.17
696.037	147.11
696.226	292.52
696.415	179.88
696.604	353.96
696.793	284.33
696.982	116.39
697.171	241.32
697.36	181.93
697.549	167.59
697.738	-4.44
697.927	214.7
698.116	159.4
698.305	308.9
698.494	179.88
698.683	110.25
698.872	237.22
699.061	188.07
699.25	140.97
699.438	159.4
699.627	93.87
699.816	267.94
700.005	112.3
700.193	77.48
700.382	226.98
700.571	186.02
700.76	204.46
700.948	216.74
701.137	208.55
701.326	235.18
701.514	110.25
701.703	173.74
701.892	169.64
702.08	411.3
702.269	198.31
702.457	124.58
702.646	173.74
702.834	186.02
703.023	265.89
703.212	155.3
703.4	161.45
703.589	124.58
703.777	173.74
703.965	183.98
704.154	122.54
704.342	212.65
704.531	159.4
704.719	204.46
704.907	210.6
705.096	165.54
705.284	145.06
705.472	147.11
705.661	159.4
705.849	278.18
706.037	208.55
706.226	106.15
706.414	288.42
706.602	140.97
706.79	249.51
706.979	126.63
707.167	190.12
707.355	-12.63
707.543	188.07
707.731	278.18
707.919	190.12
708.107	128.68
708.296	155.3
708.484	145.06
708.672	153.26
708.86	214.7
709.048	206.5
709.236	177.83
709.424	210.6
709.612	296.61
709.8	161.45
709.988	161.45
710.176	157.35
710.364	212.65
710.551	159.4
710.739	134.82
710.927	138.92
711.115	159.4
711.303	224.94
711.491	235.18
711.679	140.97
711.866	257.7
712.054	159.4
712.242	183.98
712.43	263.85
712.617	108.2
712.805	212.65
712.993	124.58
713.181	126.63
713.368	216.74
713.556	167.59
713.744	161.45
713.931	343.72
714.119	274.09
714.306	128.68
714.494	183.98
714.682	157.35
714.869	71.34
715.057	38.57
715.244	118.44
715.432	169.64
715.619	114.34
715.807	163.5
715.994	145.06
716.182	192.17
716.369	186.02
716.556	224.94
716.744	85.67
716.931	91.82
717.119	245.41
717.306	200.36
717.493	263.85
717.681	175.78
717.868	112.3
718.055	233.13
718.242	165.54
718.43	218.79
718.617	313
718.804	163.5
718.991	190.12
719.179	179.88
719.366	321.19
719.553	274.09
719.74	167.59
719.927	200.36
720.114	208.55
720.301	93.87
720.488	155.3
720.676	77.48
720.863	335.53
721.05	310.95
721.237	251.56
721.424	239.27
721.611	255.65
721.798	145.06
721.985	159.4
722.172	212.65
722.358	161.45
722.545	261.8
722.732	265.89
722.919	323.24
723.106	235.18
723.293	179.88
723.48	249.51
723.667	95.91
723.853	294.57
724.04	222.89
724.227	214.7
724.414	192.17
724.6	188.07
724.787	294.57
724.974	351.91
725.161	233.13
725.347	85.67
725.534	290.47
725.72	194.22
725.907	239.27
726.094	300.71
726.28	151.21
726.467	206.5
726.653	186.02
726.84	351.91
727.027	294.57
727.213	267.94
727.4	153.26
727.586	284.33
727.773	175.78
727.959	272.04
728.145	194.22
728.332	216.74
728.518	208.55
728.705	274.09
728.891	196.26
729.077	175.78
729.264	106.15
729.45	155.3
729.636	276.13
729.823	253.61
730.009	282.28
730.195	239.27
730.382	282.28
730.568	85.67
730.754	204.46
730.94	181.93
731.126	233.13
731.313	294.57
731.499	282.28
731.685	282.28
731.871	339.62
732.057	247.46
732.243	249.51
732.429	202.41
732.615	329.38
732.801	276.13
732.987	222.89
733.173	282.28
733.359	122.54
733.545	261.8
733.731	122.54
733.917	261.8
734.103	280.23
734.289	220.84
734.475	151.21
734.661	351.91
734.847	186.02
735.033	274.09
735.219	368.29
735.404	149.16
735.59	186.02
735.776	245.41
735.962	269.99
736.148	323.24
736.333	376.48
736.519	272.04
736.705	249.51
736.89	243.37
737.076	216.74
737.262	128.68
737.447	241.32
737.633	202.41
737.819	323.24
738.004	274.09
738.19	222.89
738.375	186.02
738.561	317.09
738.747	249.51
738.932	118.44
739.118	378.53
739.303	257.7
739.489	353.96
739.674	190.12
739.859	149.16
740.045	335.53
740.23	212.65
740.416	126.63
740.601	239.27
740.786	249.51
740.972	155.3
741.157	186.02
741.342	175.78
741.528	159.4
741.713	372.39
741.898	179.88
742.084	159.4
742.269	145.06
742.454	294.57
742.639	284.33
742.824	284.33
743.01	353.96
743.195	302.76
743.38	231.08
743.565	218.79
743.75	220.84
743.935	245.41
744.12	349.86
744.305	161.45
744.49	202.41
744.675	290.47
744.86	183.98
745.045	247.46
745.23	210.6
745.415	237.22
745.6	317.09
745.785	194.22
745.97	335.53
746.155	300.71
746.34	282.28
746.525	276.13
746.71	329.38
746.895	194.22
747.079	140.97
747.264	208.55
747.449	208.55
747.634	272.04
747.819	304.81
748.003	212.65
748.188	87.72
748.373	245.41
748.557	186.02
748.742	261.8
748.927	278.18
749.111	192.17
749.296	200.36
749.481	216.74
749.665	143.02
749.85	198.31
750.034	140.97
750.219	249.51
750.404	169.64
750.588	214.7
750.773	91.82
750.957	204.46
751.141	108.2
751.326	151.21
751.51	120.49
751.695	257.7
751.879	124.58
752.064	288.42
752.248	222.89
752.432	362.15
752.617	257.7
752.801	214.7
752.985	116.39
753.17	278.18
753.354	233.13
753.538	116.39
753.722	153.26
753.907	200.36
754.091	122.54
754.275	204.46
754.459	65.19
754.643	159.4
754.828	181.93
755.012	241.32
755.196	87.72
755.38	251.56
755.564	54.95
755.748	175.78
755.932	212.65
756.116	245.41
756.3	220.84
756.484	61.1
756.668	257.7
756.852	32.43
757.036	173.74
757.22	114.34
757.404	124.58
757.588	85.67
757.772	165.54
757.956	128.68
758.14	317.09
758.323	147.11
758.507	220.84
758.691	87.72
758.875	192.17
759.059	233.13
759.242	87.72
759.426	194.22
759.61	165.54
759.794	65.19
759.977	226.98
760.161	343.72
760.345	196.26
760.528	265.89
760.712	124.58
760.895	171.69
761.079	163.5
761.263	46.76
761.446	48.81
761.63	87.72
761.813	190.12
761.997	36.52
762.18	140.97
762.364	245.41
762.547	30.38
762.731	44.71
762.914	104.11
763.098	175.78
763.281	50.86
763.464	20.14
763.648	87.72
763.831	87.72
764.015	63.15
764.198	253.61
764.381	149.16
764.564	73.39
764.748	181.93
764.931	124.58
765.114	63.15
765.297	173.74
765.481	42.67
765.664	134.82
765.847	71.34
766.03	175.78
766.213	18.09
766.397	75.43
766.58	26.28
766.763	140.97
766.946	22.19
767.129	46.76
767.312	34.47
767.495	75.43
767.678	73.39
767.861	85.67
768.044	77.48
768.227	79.53
768.41	26.28
768.593	102.06
768.776	108.2
768.959	100.01
769.142	257.7
769.324	93.87
769.507	93.87
769.69	32.43
769.873	87.72
770.056	255.65
770.239	57
770.421	253.61
770.604	208.55
770.787	102.06
770.97	-8.53
771.152	13.99
771.335	140.97
771.518	46.76
771.7	210.6
771.883	247.46
772.066	50.86
772.248	153.26
772.431	126.63
772.613	128.68
772.796	77.48
772.978	149.16
773.161	173.74
773.343	120.49
773.526	-16.73
773.708	-67.92
773.891	18.09
774.073	42.67
774.256	40.62
774.438	122.54
774.621	36.52
774.803	143.02
774.985	32.43
775.168	87.72
775.35	54.95
775.532	69.29
775.715	13.99
775.897	89.77
776.079	40.62
776.261	134.82
776.444	95.91
776.626	-10.58
776.808	18.09
776.99	-47.44
777.173	59.05
777.355	63.15
777.537	143.02
777.719	138.92
777.901	-10.58
778.083	102.06
778.265	-35.16
778.447	93.87
778.629	32.43
778.811	67.24
778.993	85.67
779.175	79.53
779.357	44.71
779.539	46.76
779.721	95.91
779.903	97.96
780.085	38.57
780.267	104.11
780.449	46.76
780.631	75.43
780.812	116.39
780.994	-22.87
781.176	-2.39
781.358	-12.63
781.54	59.05
781.721	118.44
781.903	147.11
782.085	-0.34
782.267	167.59
782.448	-37.2
782.63	22.19
782.812	67.24
782.993	42.67
783.175	120.49
783.357	-10.58
783.538	97.96
783.72	7.85
783.901	104.11
784.083	102.06
784.264	-6.49
784.446	-74.07
784.627	22.19
784.809	-4.44
784.99	22.19
785.172	116.39
785.353	-59.73
785.535	44.71
785.716	120.49
785.897	-47.44
786.079	18.09
786.26	69.29
786.441	93.87
786.623	-67.92
786.804	-63.83
786.985	48.81
787.167	110.25
787.348	3.75
787.529	20.14
787.71	186.02
787.891	65.19
788.073	1.71
788.254	-63.83
788.435	204.46
788.616	9.9
788.797	7.85
788.978	-0.34
789.159	-14.68
789.34	114.34
789.522	118.44
789.703	57
789.884	13.99
790.065	63.15
790.246	198.31
790.427	-20.82
790.607	196.26
790.788	120.49
790.969	-31.06
791.15	97.96
791.331	-51.54
791.512	9.9
791.693	-41.3
791.874	-24.92
792.054	171.69
792.235	91.82
792.416	-22.87
792.597	11.95
792.778	48.81
792.958	85.67
793.139	30.38
793.32	-4.44
793.5	-22.87
793.681	102.06
793.862	116.39
794.042	11.95
794.223	-100.69
794.404	13.99
794.584	-88.4
794.765	20.14
794.945	104.11
795.126	97.96
795.306	167.59
795.487	-8.53
795.667	28.33
795.848	48.81
796.028	97.96
796.209	-16.73
796.389	87.72
796.57	-4.44
796.75	-26.96
796.93	65.19
797.111	11.95
797.291	48.81
797.471	85.67
797.652	16.04
797.832	102.06
798.012	100.01
798.192	18.09
798.373	-92.5
798.553	93.87
798.733	77.48
798.913	-2.39
799.093	30.38
799.274	46.76
799.454	128.68
799.634	95.91
799.814	52.91
799.994	85.67
800.174	57
800.354	-24.92
800.534	-121.17
800.714	110.25
800.894	13.99
801.074	-72.02
801.254	9.9
801.434	132.78
801.614	-96.6
801.794	16.04
801.974	1980.04
802.154	42.67
802.334	79.53
802.514	-57.68
802.693	3.75
802.873	-37.2
803.053	136.87
803.233	38.57
803.413	13.99
803.592	1.71
803.772	-53.59
803.952	-43.35
804.131	-59.73
804.311	54.95
804.491	171.69
804.67	24.23
804.85	-26.96
805.03	87.72
805.209	104.11
805.389	67.24
805.568	-24.92
805.748	-45.4
805.928	-0.34
806.107	-29.01
806.287	71.34
806.466	38.57
806.646	22.19
806.825	30.38
807.004	-26.96
807.184	34.47
807.363	-33.11
807.543	-49.49
807.722	-43.35
807.901	143.02
808.081	106.15
808.26	-127.32
808.439	-26.96
808.619	-16.73
808.798	46.76
808.977	9.9
809.156	-4.44
809.336	52.91
809.515	57
809.694	-80.21
809.873	-43.35
810.052	48.81
810.231	149.16
810.411	79.53
810.59	48.81
810.769	3.75
810.948	85.67
811.127	-104.79
811.306	9.9
811.485	-55.64
811.664	124.58
811.843	42.67
812.022	46.76
812.201	-10.58
812.38	16.04
812.559	30.38
812.737	106.15
812.916	-117.08
813.095	-22.87
813.274	-35.16
813.453	59.05
813.632	-0.34
813.811	79.53
813.989	-55.64
814.168	118.44
814.347	-69.97
814.526	18.09
814.704	50.86
814.883	75.43
815.062	-47.44
815.24	110.25
815.419	11.95
815.598	28.33
815.776	-45.4
815.955	-6.49
816.133	-43.35
816.312	-6.49
816.49	-26.96
816.669	-10.58
816.847	13.99
817.026	61.1
817.204	-37.2
817.383	22.19
817.561	-31.06
817.74	-12.63
817.918	75.43
818.097	-49.49
818.275	-16.73
818.453	106.15
818.632	106.15
818.81	13.99
818.988	-55.64
819.167	5.8
819.345	65.19
819.523	-8.53
819.701	30.38
819.879	-29.01
820.058	40.62
820.236	-12.63
820.414	65.19
820.592	-49.49
820.77	36.52
820.948	-47.44
821.127	-8.53
821.305	-16.73
821.483	32.43
821.661	75.43
821.839	71.34
822.017	-14.68
822.195	-26.96
822.373	85.67
822.551	-37.2
822.729	20.14
822.907	26.28
823.085	40.62
823.262	42.67
823.44	30.38
823.618	-24.92
823.796	-10.58
823.974	-12.63
824.152	-37.2
824.329	34.47
824.507	63.15
824.685	46.76
824.863	-29.01
825.04	18.09
825.218	57
825.396	-2.39
825.574	-0.34
825.751	34.47
825.929	100.01
826.107	-0.34
826.284	-18.77
826.462	28.33
826.639	-61.78
826.817	-41.3
826.994	40.62
827.172	-55.64
827.349	138.92
827.527	26.28
827.704	-18.77
827.882	50.86
828.059	-22.87
828.237	-26.96
828.414	46.76
828.591	-80.21
828.769	9.9
828.946	-31.06
829.124	69.29
829.301	104.11
829.478	-53.59
829.655	63.15
829.833	44.71
830.01	-63.83
830.187	-6.49
830.364	24.23
830.542	-47.44
830.719	114.34
830.896	-22.87
831.073	-18.77
831.25	9.9
831.427	7.85
831.604	18.09
831.782	-6.49
831.959	32.43
832.136	32.43
832.313	24.23
832.49	5.8
832.667	59.05
832.844	-39.25
833.021	124.58
833.198	16.04
833.374	7.85
833.551	38.57
833.728	22.19
833.905	18.09
834.082	-63.83
834.259	3.75
834.436	67.24
834.612	-45.4
834.789	61.1
834.966	1.71
835.143	69.29
835.319	-20.82
835.496	110.25
835.673	28.33
835.85	83.63
836.026	54.95
836.203	110.25
836.38	69.29
836.556	9.9
836.733	-8.53
836.909	159.4
837.086	42.67
837.262	-29.01
837.439	-33.11
837.616	-33.11
837.792	54.95
837.968	24.23
838.145	-39.25
838.321	38.57
838.498	69.29
838.674	46.76
838.851	28.33
839.027	-31.06
839.203	26.28
839.38	106.15
839.556	32.43
839.732	85.67
839.909	16.04
840.085	65.19
840.261	-16.73
840.437	-63.83
840.614	-43.35
840.79	42.67
840.966	5.8
841.142	18.09
841.318	-69.97
841.494	26.28
841.671	171.69
841.847	-51.54
842.023	-8.53
842.199	20.14
842.375	126.63
842.551	-57.68
842.727	-61.78
842.903	128.68
843.079	-37.2
843.255	79.53
843.431	-57.68
843.607	-72.02
843.783	-137.56
843.959	91.82
844.134	-51.54
844.31	65.19
844.486	-74.07
844.662	-29.01
844.838	22.19
845.013	-24.92
845.189	44.71
845.365	13.99
845.541	44.71
845.716	7.85
845.892	36.52
846.068	3.75
846.244	-72.02
846.419	-35.16
846.595	-43.35
846.77	-2.39
846.946	93.87
847.122	20.14
847.297	-22.87
847.473	130.73
847.648	-24.92
847.824	18.09
847.999	-115.03
848.175	-59.73
848.35	71.34
848.526	-10.58
848.701	61.1
848.876	130.73
849.052	87.72
849.227	22.19
849.403	38.57
849.578	97.96
849.753	102.06
849.929	48.81
850.104	-108.88
850.279	20.14
850.454	-35.16
850.63	42.67
850.805	9.9
850.98	59.05
851.155	57
851.33	-4.44
851.505	-137.56
851.681	59.05
851.856	24.23
852.031	16.04
852.206	16.04
852.381	-82.26
852.556	-39.25
852.731	18.09
852.906	116.39
853.081	32.43
853.256	120.49
853.431	-37.2
853.606	-41.3
853.781	-55.64
853.956	-153.94
854.131	63.15
854.305	-4.44
854.48	-78.16
854.655	-41.3
854.83	-10.58
855.005	-18.77
855.18	34.47
855.354	104.11
855.529	18.09
855.704	-51.54
855.879	42.67
856.053	-67.92
856.228	-0.34
856.403	-31.06
856.577	77.48
856.752	-121.17
856.926	-108.88
857.101	20.14
857.276	-63.83
857.45	-12.63
857.625	71.34
857.799	-2.39
857.974	-20.82
858.148	-92.5
858.323	18.09
858.497	3.75
858.672	-55.64
858.846	16.04
859.02	-8.53
859.195	-18.77
859.369	-20.82
859.543	32.43
859.718	-53.59
859.892	13.99
860.066	20.14
860.241	-96.6
860.415	-4.44
860.589	-35.16
860.763	13.99
860.938	-24.92
861.112	24.23
861.286	63.15
861.46	54.95
861.634	-0.34
861.808	57
861.982	-22.87
862.157	-74.07
862.331	-61.78
862.505	-78.16
862.679	-174.42
862.853	28.33
863.027	28.33
863.201	153.26
863.375	-10.58
863.549	1.71
863.722	46.76
863.896	153.26
864.07	-51.54
864.244	7.85
864.418	132.78
864.592	5.8
864.766	-10.58
864.939	-12.63
865.113	5.8
865.287	36.52
865.461	-47.44
865.634	22.19
865.808	-20.82
865.982	13.99
866.156	-20.82
866.329	-37.2
866.503	1.71
866.676	24.23
866.85	59.05
867.024	-20.82
867.197	97.96
867.371	73.39
867.544	-0.34
867.718	-90.45
867.891	149.16
868.065	-112.98
868.238	-18.77
868.412	120.49
868.585	26.28
868.759	-10.58
868.932	-20.82
869.105	-80.21
869.279	48.81
869.452	-49.49
869.625	-29.01
869.799	-49.49
869.972	1.71
870.145	-20.82
870.319	77.48
870.492	-0.34
870.665	1.71
870.838	20.14
871.011	-149.84
871.185	-12.63
871.358	-76.12
871.531	83.63
871.704	-49.49
871.877	-55.64
872.05	40.62
872.223	-63.83
872.396	75.43
872.569	91.82
872.742	-45.4
872.915	63.15
873.088	-41.3
873.261	34.47
873.434	22.19
873.607	-26.96
873.78	20.14
873.953	-69.97
874.126	32.43
874.299	59.05
874.471	-47.44
874.644	-26.96
874.817	61.1
874.99	145.06
875.163	-41.3
875.335	102.06
875.508	-6.49
875.681	138.92
875.853	-67.92
876.026	-26.96
876.199	57
876.371	-45.4
876.544	-4.44
876.717	13.99
876.889	-59.73
877.062	71.34
877.234	-74.07
877.407	-14.68
877.579	61.1
877.752	32.43
877.924	100.01
878.097	20.14
878.269	59.05
878.442	50.86
878.614	46.76
878.786	-14.68
878.959	30.38
879.131	-10.58
879.303	-74.07
879.476	-0.34
879.648	63.15
879.82	13.99
879.993	-35.16
880.165	-76.12
880.337	-117.08
880.509	-39.25
880.681	-115.03
880.854	18.09
881.026	13.99
881.198	114.34
881.37	42.67
881.542	44.71
881.714	11.95
881.886	13.99
882.058	-31.06
882.23	-8.53
882.402	22.19
882.574	-12.63
882.746	46.76
882.918	34.47
883.09	130.73
883.262	-29.01
883.434	59.05
883.606	-119.12
883.778	3.75
883.95	95.91
884.122	-6.49
884.293	59.05
884.465	-39.25
884.637	69.29
884.809	-43.35
884.98	71.34
885.152	69.29
885.324	11.95
885.496	-55.64
885.667	-45.4
885.839	-88.4
886.011	149.16
886.182	71.34
886.354	38.57
886.525	11.95
886.697	-35.16
886.869	-39.25
887.04	-35.16
887.212	46.76
887.383	138.92
887.555	20.14
887.726	13.99
887.897	-49.49
888.069	5.8
888.24	48.81
888.412	28.33
888.583	-55.64
888.754	-82.26
888.926	-141.65
889.097	-41.3
889.268	-104.79
889.44	16.04
889.611	-129.36
889.782	-53.59
889.953	-90.45
890.125	71.34
890.296	-63.83
890.467	-110.93
890.638	79.53
890.809	18.09
890.98	-96.6
891.151	18.09
891.323	122.54
891.494	-39.25
891.665	-14.68
891.836	-4.44
892.007	-14.68
892.178	28.33
892.349	-4.44
892.52	-78.16
892.691	-16.73
892.862	-98.64
893.032	-137.56
893.203	-41.3
893.374	44.71
893.545	48.81
893.716	-51.54
893.887	30.38
894.057	-82.26
894.228	-12.63
894.399	-51.54
894.57	91.82
894.74	-108.88
894.911	-67.92
895.082	-14.68
895.253	-53.59
895.423	-4.44
895.594	-2.39
895.764	-29.01
895.935	-69.97
896.106	54.95
896.276	-22.87
896.447	9.9
896.617	-8.53
896.788	-131.41
896.958	11.95
897.129	-80.21
897.299	13.99
897.47	61.1
897.64	69.29
897.81	22.19
897.981	22.19
898.151	-59.73
898.322	20.14
898.492	32.43
898.662	-102.74
898.832	-55.64
899.003	-59.73
899.173	48.81
899.343	-18.77
899.513	-108.88
