Data from USB4F104151__110__10-45-48-760.txt Node

Date: Wed Feb 26 10:45:48 EST 2025
User: louis
Spectrometer: USB4F10415
Trigger mode: 4
Integration Time (sec): 1.000000E-1
Scans to average: 1
Electric dark correction enabled: true
Nonlinearity correction enabled: false
Boxcar width: 0
XAxis mode: Wavelengths
Number of Pixels in Spectrum: 3648
>>>>>Begin Spectral Data<<<<<
178.204	-383.82
178.424	-383.82
178.644	-383.82
178.864	-480.08
179.084	-332.62
179.304	-17.24
179.524	-27.48
179.744	79.02
179.964	-0.85
180.184	62.63
180.404	25.77
180.624	40.11
180.844	7.34
181.064	-148.31
181.283	17.58
181.503	21.67
181.723	-60.24
181.943	-82.77
182.163	205.99
182.383	7.34
182.602	160.94
182.822	144.55
183.042	107.69
183.262	-88.92
183.482	60.59
183.701	-58.2
183.921	91.31
184.141	-82.77
184.361	42.15
184.58	66.73
184.8	85.16
185.02	36.01
185.239	91.31
185.459	29.87
185.679	148.65
185.898	-107.35
186.118	99.5
186.338	62.63
186.557	68.78
186.777	-35.67
186.997	-17.24
187.216	72.87
187.436	208.04
187.655	85.16
187.875	107.69
188.095	-13.14
188.314	146.6
188.534	122.02
188.753	-72.53
188.973	136.36
189.192	140.46
189.412	-37.72
189.631	31.91
189.851	126.12
190.07	214.18
190.29	-78.68
190.509	27.82
190.729	1.19
190.948	195.75
191.168	232.62
191.387	111.78
191.607	50.35
191.826	76.97
192.045	64.68
192.265	1.19
192.484	62.63
192.704	62.63
192.923	-45.91
193.142	150.7
193.362	81.07
193.581	162.98
193.8	85.16
194.02	117.93
194.239	115.88
194.458	13.48
194.678	33.96
194.897	-9.05
195.116	105.64
195.335	21.67
195.555	81.07
195.774	3.24
195.993	99.5
196.212	66.73
196.432	64.68
196.651	46.25
196.87	70.83
197.089	212.14
197.308	81.07
197.528	70.83
197.747	-4.95
197.966	21.67
198.185	105.64
198.404	25.77
198.623	105.64
198.842	93.35
199.062	66.73
199.281	115.88
199.5	72.87
199.719	64.68
199.938	99.5
200.157	115.88
200.376	124.07
200.595	144.55
200.814	56.49
201.033	-33.62
201.252	201.9
201.471	36.01
201.69	9.39
201.909	27.82
202.128	95.4
202.347	81.07
202.566	83.11
202.785	-35.67
203.004	3.24
203.223	158.89
203.442	48.3
203.661	17.58
203.879	91.31
204.098	128.17
204.317	-27.48
204.536	76.97
204.755	74.92
204.974	130.22
205.193	31.91
205.411	185.51
205.63	128.17
205.849	29.87
206.068	-47.96
206.287	72.87
206.505	210.09
206.724	19.63
206.943	-17.24
207.162	5.29
207.381	58.54
207.599	64.68
207.818	17.58
208.037	54.44
208.255	97.45
208.474	95.4
208.693	85.16
208.911	62.63
209.13	115.88
209.349	177.32
209.567	-37.72
209.786	81.07
210.005	97.45
210.223	56.49
210.442	-138.07
210.661	31.91
210.879	115.88
211.098	-64.34
211.316	50.35
211.535	142.5
211.753	42.15
211.972	66.73
212.191	5.29
212.409	-33.62
212.628	70.83
212.846	3.24
213.065	-0.85
213.283	60.59
213.502	64.68
213.72	42.15
213.938	40.11
214.157	1.19
214.375	119.98
214.594	25.77
214.812	62.63
215.031	44.2
215.249	-43.86
215.467	29.87
215.686	38.06
215.904	50.35
216.122	5.29
216.341	146.6
216.559	113.83
216.778	54.44
216.996	150.7
217.214	56.49
217.432	7.34
217.651	-11.09
217.869	64.68
218.087	33.96
218.306	-70.48
218.524	50.35
218.742	111.78
218.96	66.73
219.179	-39.76
219.397	48.3
219.615	189.61
219.833	144.55
220.051	-27.48
220.27	119.98
220.488	109.74
220.706	46.25
220.924	-19.29
221.142	-29.52
221.36	60.59
221.578	52.39
221.796	19.63
222.015	52.39
222.233	9.39
222.451	249
222.669	-23.38
222.887	91.31
223.105	-17.24
223.323	58.54
223.541	31.91
223.759	56.49
223.977	46.25
224.195	142.5
224.413	89.26
224.631	-13.14
224.849	64.68
225.067	167.08
225.285	-62.29
225.503	-23.38
225.721	-90.96
225.939	-9.05
226.157	5.29
226.375	189.61
226.592	13.48
226.81	-0.85
227.028	148.65
227.246	146.6
227.464	132.26
227.682	74.92
227.9	21.67
228.117	62.63
228.335	91.31
228.553	27.82
228.771	36.01
228.989	52.39
229.206	130.22
229.424	54.44
229.642	-19.29
229.86	-54.1
230.077	167.08
230.295	95.4
230.513	89.26
230.731	46.25
230.948	224.42
231.166	183.46
231.384	48.3
231.601	-66.39
231.819	158.89
232.037	-0.85
232.254	-33.62
232.472	85.16
232.689	-25.43
232.907	124.07
233.125	33.96
233.342	-47.96
233.56	25.77
233.777	-35.67
233.995	15.53
234.213	158.89
234.43	54.44
234.648	52.39
234.865	5.29
235.083	95.4
235.3	29.87
235.518	72.87
235.735	126.12
235.953	83.11
236.17	107.69
236.388	11.43
236.605	105.64
236.822	154.79
237.04	130.22
237.257	72.87
237.475	-31.57
237.692	-19.29
237.909	81.07
238.127	-15.19
238.344	99.5
238.562	-11.09
238.779	-76.63
238.996	-11.09
239.214	-13.14
239.431	56.49
239.648	5.29
239.865	105.64
240.083	76.97
240.3	-2.9
240.517	68.78
240.735	50.35
240.952	167.08
241.169	111.78
241.386	146.6
241.603	79.02
241.821	-86.87
242.038	101.55
242.255	144.55
242.472	-31.57
242.689	128.17
242.907	124.07
243.124	54.44
243.341	23.72
243.558	1.19
243.775	-4.95
243.992	33.96
244.209	68.78
244.426	191.66
244.643	76.97
244.86	40.11
245.078	93.35
245.295	42.15
245.512	7.34
245.729	17.58
245.946	79.02
246.163	11.43
246.38	23.72
246.597	9.39
246.814	93.35
247.031	50.35
247.248	27.82
247.464	66.73
247.681	17.58
247.898	130.22
248.115	54.44
248.332	-41.81
248.549	97.45
248.766	126.12
248.983	124.07
249.2	87.21
249.417	150.7
249.633	7.34
249.85	103.59
250.067	3.24
250.284	62.63
250.501	68.78
250.717	156.84
250.934	-31.57
251.151	91.31
251.368	-2.9
251.585	48.3
251.801	103.59
252.018	-15.19
252.235	93.35
252.451	-82.77
252.668	46.25
252.885	154.79
253.102	101.55
253.318	48.3
253.535	11.43
253.752	-52.05
253.968	76.97
254.185	-62.29
254.401	107.69
254.618	119.98
254.835	-4.95
255.051	66.73
255.268	99.5
255.484	-0.85
255.701	-2.9
255.917	31.91
256.134	-13.14
256.351	60.59
256.567	-39.76
256.784	124.07
257	-19.29
257.217	68.78
257.433	156.84
257.65	103.59
257.866	79.02
258.082	-74.58
258.299	11.43
258.515	44.2
258.732	31.91
258.948	29.87
259.165	48.3
259.381	1.19
259.597	107.69
259.814	3.24
260.03	103.59
260.246	-25.43
260.463	111.78
260.679	87.21
260.895	93.35
261.112	85.16
261.328	146.6
261.544	-66.39
261.761	183.46
261.977	56.49
262.193	-45.91
262.409	95.4
262.626	44.2
262.842	101.55
263.058	79.02
263.274	175.27
263.49	27.82
263.707	60.59
263.923	109.74
264.139	7.34
264.355	40.11
264.571	134.31
264.787	79.02
265.004	193.7
265.22	33.96
265.436	-25.43
265.652	11.43
265.868	146.6
266.084	-2.9
266.3	19.63
266.516	13.48
266.732	60.59
266.948	27.82
267.164	7.34
267.38	113.83
267.596	38.06
267.812	109.74
268.028	126.12
268.244	-35.67
268.46	101.55
268.676	31.91
268.892	33.96
269.108	-64.34
269.324	-39.76
269.54	-90.96
269.756	93.35
269.972	-25.43
270.188	42.15
270.403	-50
270.619	79.02
270.835	117.93
271.051	46.25
271.267	-21.33
271.483	-9.05
271.698	148.65
271.914	31.91
272.13	97.45
272.346	31.91
272.562	91.31
272.777	99.5
272.993	54.44
273.209	56.49
273.425	136.36
273.64	-9.05
273.856	46.25
274.072	-58.2
274.287	15.53
274.503	101.55
274.719	72.87
274.934	60.59
275.15	-93.01
275.366	-45.91
275.581	-25.43
275.797	25.77
276.012	7.34
276.228	44.2
276.444	42.15
276.659	171.18
276.875	42.15
277.09	72.87
277.306	5.29
277.521	126.12
277.737	44.2
277.952	89.26
278.168	68.78
278.383	-4.95
278.599	101.55
278.814	119.98
279.03	68.78
279.245	142.5
279.461	54.44
279.676	33.96
279.892	-68.44
280.107	-19.29
280.322	-47.96
280.538	74.92
280.753	7.34
280.969	27.82
281.184	74.92
281.399	126.12
281.615	-0.85
281.83	17.58
282.045	-82.77
282.26	-11.09
282.476	60.59
282.691	113.83
282.906	19.63
283.122	50.35
283.337	-15.19
283.552	124.07
283.767	-64.34
283.983	160.94
284.198	50.35
284.413	87.21
284.628	-47.96
284.843	68.78
285.058	66.73
285.274	-7
285.489	-62.29
285.704	95.4
285.919	17.58
286.134	89.26
286.349	46.25
286.564	9.39
286.779	126.12
286.995	36.01
287.21	-41.81
287.425	142.5
287.64	11.43
287.855	91.31
288.07	-70.48
288.285	64.68
288.5	85.16
288.715	156.84
288.93	68.78
289.145	-25.43
289.36	97.45
289.575	-56.15
289.79	146.6
290.004	-15.19
290.219	97.45
290.434	-15.19
290.649	-0.85
290.864	-9.05
291.079	-7
291.294	56.49
291.509	95.4
291.724	-39.76
291.938	85.16
292.153	50.35
292.368	-29.52
292.583	101.55
292.798	-4.95
293.012	9.39
293.227	83.11
293.442	-0.85
293.657	171.18
293.871	134.31
294.086	79.02
294.301	185.51
294.516	126.12
294.73	113.83
294.945	52.39
295.16	85.16
295.374	142.5
295.589	101.55
295.804	-47.96
296.018	27.82
296.233	136.36
296.447	91.31
296.662	17.58
296.877	197.8
297.091	68.78
297.306	50.35
297.52	25.77
297.735	74.92
297.949	29.87
298.164	58.54
298.378	70.83
298.593	-41.81
298.807	3.24
299.022	-0.85
299.236	115.88
299.451	81.07
299.665	44.2
299.88	48.3
300.094	117.93
300.309	81.07
300.523	19.63
300.737	23.72
300.952	36.01
301.166	58.54
301.381	-66.39
301.595	-4.95
301.809	-2.9
302.024	58.54
302.238	-25.43
302.452	101.55
302.667	-54.1
302.881	154.79
303.095	142.5
303.309	95.4
303.524	50.35
303.738	-11.09
303.952	-7
304.166	60.59
304.381	-76.63
304.595	158.89
304.809	-35.67
305.023	56.49
305.237	36.01
305.452	31.91
305.666	105.64
305.88	136.36
306.094	128.17
306.308	124.07
306.522	146.6
306.736	81.07
306.95	142.5
307.164	13.48
307.379	19.63
307.593	117.93
307.807	124.07
308.021	74.92
308.235	97.45
308.449	-31.57
308.663	68.78
308.877	195.75
309.091	50.35
309.305	19.63
309.519	-68.44
309.733	105.64
309.947	-45.91
310.161	107.69
310.374	126.12
310.588	150.7
310.802	9.39
311.016	-21.33
311.23	79.02
311.444	9.39
311.658	66.73
311.872	91.31
312.085	124.07
312.299	197.8
312.513	154.79
312.727	97.45
312.941	-21.33
313.154	105.64
313.368	134.31
313.582	83.11
313.796	105.64
314.009	27.82
314.223	91.31
314.437	99.5
314.651	-7
314.864	-41.81
315.078	13.48
315.292	-23.38
315.505	-7
315.719	72.87
315.933	-19.29
316.146	54.44
316.36	-99.16
316.573	60.59
316.787	113.83
317.001	-0.85
317.214	-13.14
317.428	40.11
317.641	27.82
317.855	-4.95
318.068	83.11
318.282	140.46
318.495	236.71
318.709	122.02
318.922	40.11
319.136	210.09
319.349	130.22
319.563	-17.24
319.776	70.83
319.99	-99.16
320.203	97.45
320.417	33.96
320.63	44.2
320.843	179.37
321.057	107.69
321.27	5.29
321.483	97.45
321.697	165.03
321.91	87.21
322.124	44.2
322.337	48.3
322.55	13.48
322.763	66.73
322.977	27.82
323.19	7.34
323.403	117.93
323.617	76.97
323.83	74.92
324.043	-11.09
324.256	99.5
324.469	-60.24
324.683	128.17
324.896	54.44
325.109	21.67
325.322	-29.52
325.535	117.93
325.748	74.92
325.962	-33.62
326.175	83.11
326.388	29.87
326.601	97.45
326.814	5.29
327.027	58.54
327.24	165.03
327.453	-93.01
327.666	87.21
327.879	115.88
328.092	93.35
328.305	173.22
328.518	-2.9
328.731	7.34
328.944	27.82
329.157	117.93
329.37	60.59
329.583	195.75
329.796	130.22
330.009	-39.76
330.222	54.44
330.435	31.91
330.648	48.3
330.861	40.11
331.073	99.5
331.286	126.12
331.499	85.16
331.712	19.63
331.925	93.35
332.138	9.39
332.35	101.55
332.563	-15.19
332.776	105.64
332.989	-13.14
333.202	-74.58
333.414	29.87
333.627	31.91
333.84	60.59
334.053	64.68
334.265	-19.29
334.478	31.91
334.691	42.15
334.903	52.39
335.116	9.39
335.329	58.54
335.541	38.06
335.754	109.74
335.966	-68.44
336.179	62.63
336.392	13.48
336.604	21.67
336.817	154.79
337.029	83.11
337.242	74.92
337.454	93.35
337.667	38.06
337.88	175.27
338.092	64.68
338.305	54.44
338.517	-9.05
338.729	38.06
338.942	99.5
339.154	-140.12
339.367	-52.05
339.579	109.74
339.792	-41.81
340.004	99.5
340.217	-9.05
340.429	91.31
340.641	-74.58
340.854	-27.48
341.066	19.63
341.278	109.74
341.491	130.22
341.703	27.82
341.915	-68.44
342.128	134.31
342.34	64.68
342.552	-70.48
342.764	74.92
342.977	-41.81
343.189	48.3
343.401	93.35
343.613	29.87
343.826	64.68
344.038	-35.67
344.25	54.44
344.462	-78.68
344.674	101.55
344.886	-37.72
345.099	19.63
345.311	148.65
345.523	46.25
345.735	-47.96
345.947	17.58
346.159	99.5
346.371	17.58
346.583	-2.9
346.795	216.23
347.007	-25.43
347.219	144.55
347.431	72.87
347.643	81.07
347.855	17.58
348.067	138.41
348.279	-13.14
348.491	117.93
348.703	103.59
348.915	56.49
349.127	9.39
349.339	11.43
349.551	-37.72
349.763	74.92
349.975	1.19
350.187	103.59
350.399	117.93
350.61	81.07
350.822	56.49
351.034	62.63
351.246	42.15
351.458	146.6
351.669	87.21
351.881	91.31
352.093	152.74
352.305	107.69
352.517	64.68
352.728	144.55
352.94	44.2
353.152	62.63
353.363	9.39
353.575	72.87
353.787	115.88
353.999	21.67
354.21	111.78
354.422	-62.29
354.633	-19.29
354.845	58.54
355.057	52.39
355.268	113.83
355.48	83.11
355.692	-47.96
355.903	-50
356.115	-41.81
356.326	-52.05
356.538	130.22
356.749	42.15
356.961	101.55
357.172	-2.9
357.384	-39.76
357.595	199.85
357.807	-19.29
358.018	13.48
358.23	79.02
358.441	105.64
358.653	107.69
358.864	17.58
359.075	-41.81
359.287	1.19
359.498	68.78
359.709	126.12
359.921	115.88
360.132	93.35
360.344	7.34
360.555	9.39
360.766	85.16
360.977	-13.14
361.189	122.02
361.4	7.34
361.611	103.59
361.823	122.02
362.034	48.3
362.245	-33.62
362.456	132.26
362.667	89.26
362.879	-9.05
363.09	70.83
363.301	119.98
363.512	23.72
363.723	17.58
363.935	-33.62
364.146	156.84
364.357	152.74
364.568	91.31
364.779	11.43
364.99	115.88
365.201	13.48
365.412	119.98
365.623	-41.81
365.834	70.83
366.045	21.67
366.256	218.28
366.467	160.94
366.678	21.67
366.889	85.16
367.1	5.29
367.311	99.5
367.522	79.02
367.733	48.3
367.944	91.31
368.155	15.53
368.366	36.01
368.577	109.74
368.788	146.6
368.999	52.39
369.209	83.11
369.42	246.95
369.631	234.66
369.842	105.64
370.053	3.24
370.264	50.35
370.474	66.73
370.685	115.88
370.896	50.35
371.107	142.5
371.317	-9.05
371.528	72.87
371.739	150.7
371.95	76.97
372.16	33.96
372.371	-4.95
372.582	-2.9
372.792	-23.38
373.003	91.31
373.214	66.73
373.424	91.31
373.635	-7
373.846	115.88
374.056	-4.95
374.267	48.3
374.477	44.2
374.688	-15.19
374.898	81.07
375.109	23.72
375.319	101.55
375.53	134.31
375.74	70.83
375.951	-58.2
376.161	138.41
376.372	85.16
376.582	38.06
376.793	-17.24
377.003	42.15
377.214	-23.38
377.424	17.58
377.635	97.45
377.845	25.77
378.055	132.26
378.266	3.24
378.476	56.49
378.686	72.87
378.897	54.44
379.107	119.98
379.317	167.08
379.528	-68.44
379.738	76.97
379.948	-64.34
380.158	165.03
380.369	29.87
380.579	109.74
380.789	70.83
380.999	38.06
381.21	138.41
381.42	185.51
381.63	70.83
381.84	113.83
382.05	56.49
382.261	167.08
382.471	130.22
382.681	-27.48
382.891	97.45
383.101	74.92
383.311	5.29
383.521	3.24
383.731	64.68
383.941	97.45
384.151	44.2
384.361	23.72
384.571	29.87
384.781	79.02
384.991	230.57
385.201	183.46
385.411	193.7
385.621	23.72
385.831	48.3
386.041	40.11
386.251	74.92
386.461	160.94
386.671	62.63
386.881	36.01
387.091	-29.52
387.301	95.4
387.511	13.48
387.72	68.78
387.93	99.5
388.14	-111.44
388.35	72.87
388.56	111.78
388.769	97.45
388.979	122.02
389.189	23.72
389.399	7.34
389.609	81.07
389.818	101.55
390.028	54.44
390.238	44.2
390.447	-43.86
390.657	7.34
390.867	48.3
391.076	3.24
391.286	36.01
391.496	99.5
391.705	29.87
391.915	132.26
392.125	150.7
392.334	23.72
392.544	87.21
392.753	60.59
392.963	-33.62
393.172	-17.24
393.382	-2.9
393.591	134.31
393.801	-11.09
394.01	167.08
394.22	113.83
394.429	36.01
394.639	11.43
394.848	33.96
395.058	40.11
395.267	117.93
395.477	97.45
395.686	64.68
395.895	140.46
396.105	152.74
396.314	81.07
396.524	58.54
396.733	54.44
396.942	76.97
397.152	36.01
397.361	156.84
397.57	-13.14
397.78	58.54
397.989	23.72
398.198	265.38
398.407	42.15
398.617	31.91
398.826	25.77
399.035	58.54
399.244	150.7
399.453	76.97
399.663	54.44
399.872	25.77
400.081	-45.91
400.29	171.18
400.499	38.06
400.708	105.64
400.917	87.21
401.127	31.91
401.336	19.63
401.545	179.37
401.754	103.59
401.963	46.25
402.172	60.59
402.381	-23.38
402.59	89.26
402.799	-35.67
403.008	160.94
403.217	119.98
403.426	117.93
403.635	-119.64
403.844	89.26
404.053	15.53
404.262	44.2
404.471	191.66
404.68	146.6
404.888	31.91
405.097	-25.43
405.306	33.96
405.515	46.25
405.724	-11.09
405.933	179.37
406.142	122.02
406.35	124.07
406.559	44.2
406.768	60.59
406.977	142.5
407.185	105.64
407.394	183.46
407.603	-29.52
407.812	119.98
408.02	68.78
408.229	113.83
408.438	7.34
408.646	-31.57
408.855	60.59
409.064	148.65
409.272	25.77
409.481	72.87
409.69	-76.63
409.898	3.24
410.107	109.74
410.315	132.26
410.524	15.53
410.733	40.11
410.941	93.35
411.15	117.93
411.358	105.64
411.567	181.42
411.775	15.53
411.984	13.48
412.192	68.78
412.401	-33.62
412.609	156.84
412.818	158.89
413.026	113.83
413.234	-0.85
413.443	56.49
413.651	-52.05
413.86	1.19
414.068	103.59
414.276	224.42
414.485	17.58
414.693	173.22
414.901	228.52
415.11	89.26
415.318	68.78
415.526	85.16
415.734	105.64
415.943	40.11
416.151	91.31
416.359	23.72
416.567	76.97
416.776	167.08
416.984	177.32
417.192	232.62
417.4	9.39
417.608	29.87
417.817	-19.29
418.025	152.74
418.233	142.5
418.441	5.29
418.649	-27.48
418.857	23.72
419.065	134.31
419.273	-4.95
419.481	-21.33
419.689	79.02
419.897	-17.24
420.105	27.82
420.313	119.98
420.521	210.09
420.729	177.32
420.937	15.53
421.145	-0.85
421.353	142.5
421.561	189.61
421.769	-9.05
421.977	44.2
422.185	111.78
422.393	93.35
422.601	103.59
422.809	17.58
423.017	85.16
423.224	31.91
423.432	148.65
423.64	74.92
423.848	72.87
424.056	-2.9
424.263	136.36
424.471	36.01
424.679	208.04
424.887	-21.33
425.094	140.46
425.302	97.45
425.51	13.48
425.718	169.13
425.925	97.45
426.133	-41.81
426.341	195.75
426.548	99.5
426.756	25.77
426.964	142.5
427.171	21.67
427.379	146.6
427.586	23.72
427.794	95.4
428.001	105.64
428.209	156.84
428.417	154.79
428.624	181.42
428.832	122.02
429.039	87.21
429.247	62.63
429.454	132.26
429.662	222.38
429.869	126.12
430.076	101.55
430.284	162.98
430.491	308.39
430.699	66.73
430.906	240.81
431.114	160.94
431.321	150.7
431.528	83.11
431.736	197.8
431.943	195.75
432.15	156.84
432.358	203.94
432.565	294.05
432.772	13.48
432.979	109.74
433.187	152.74
433.394	222.38
433.601	148.65
433.808	222.38
434.016	263.33
434.223	224.42
434.43	183.46
434.637	242.85
434.844	257.19
435.052	199.85
435.259	269.48
435.466	289.96
435.673	208.04
435.88	220.33
436.087	314.53
436.294	382.12
436.501	339.11
436.708	332.97
436.915	345.25
437.122	400.55
437.329	199.85
437.537	365.73
437.743	349.35
437.95	451.75
438.157	447.65
438.364	322.73
438.571	382.12
438.778	472.23
438.985	380.07
439.192	418.98
439.399	435.36
439.606	408.74
439.813	468.13
440.02	552.1
440.227	683.17
440.433	564.39
440.64	504.99
440.847	556.19
441.054	621.73
441.261	683.17
441.467	648.35
441.674	584.87
441.881	699.55
442.088	634.02
442.294	789.66
442.501	836.77
442.708	767.13
442.914	744.61
443.121	820.38
443.328	804
443.534	844.96
443.741	863.39
443.948	773.28
444.154	984.22
444.361	1047.71
444.568	908.44
444.774	926.88
444.981	920.73
445.187	1129.63
445.394	1117.34
445.6	1092.76
445.807	1295.51
446.013	1311.89
446.22	1158.3
446.426	1336.47
446.633	1438.87
446.839	1565.84
447.046	1344.66
447.252	1606.8
447.459	1490.07
447.665	1645.71
447.871	1834.13
448.078	1887.37
448.284	1799.31
448.491	1928.33
448.697	2092.17
448.903	2075.79
449.11	2167.95
449.316	2036.88
449.522	2253.96
449.728	2440.33
449.935	2444.42
450.141	2378.89
450.347	2585.73
450.553	2589.83
450.76	2653.31
450.966	2786.43
451.172	2892.93
451.378	3040.38
451.584	3030.14
451.791	3484.79
451.997	3310.71
452.203	3372.15
452.409	3642.48
452.615	3759.22
452.821	3638.39
453.027	3609.72
453.233	4291.69
453.44	4052.08
453.646	4129.9
453.852	4340.84
454.058	4584.55
454.264	4775.01
454.47	5014.62
454.676	5018.72
454.882	5467.22
455.088	5299.29
455.294	5747.79
455.5	5979.22
455.705	6333.51
455.911	6310.99
456.117	6456.39
456.323	6644.81
456.529	6640.71
456.735	7414.84
456.941	7255.1
457.147	7650.36
457.352	7941.17
457.558	8266.8
457.764	8680.49
457.97	8903.71
458.176	9208.86
458.381	9622.55
458.587	9808.92
458.793	10406.92
458.999	10505.23
459.204	11686.9
459.41	11977.72
459.616	11660.28
459.821	12635.11
460.027	13116.39
460.233	13583.32
460.438	13734.87
460.644	14556.11
460.85	14756.81
461.055	15156.16
461.261	15727.55
461.466	15698.88
461.672	15995.83
461.878	17867.67
462.083	17654.69
462.289	18088.85
462.494	18457.49
462.7	19055.5
462.905	19329.92
463.111	20632.43
463.316	21713.76
463.522	22184.79
463.727	22582.1
463.932	23591.75
464.138	24709.94
464.343	25449.25
464.549	25574.18
464.754	27353.87
464.959	27968.26
465.165	28527.35
465.37	28517.11
465.575	28486.39
465.781	30143.2
465.986	31140.56
466.191	30669.53
466.397	31060.69
466.602	30753.49
466.807	31836.87
467.012	32475.84
467.218	33196.72
467.423	32910
467.628	34468.51
467.833	35916.42
468.038	35019.41
468.244	34640.54
468.449	36055.68
468.654	35369.61
468.859	35357.33
469.064	35893.89
469.269	34628.25
469.474	35060.37
469.679	36115.08
469.885	35107.47
470.09	35623.56
470.295	35861.13
470.5	35099.28
470.705	35316.37
470.91	34063.01
471.115	33972.9
471.32	34513.56
471.525	34480.8
471.73	33012.4
471.935	33041.07
472.139	31892.16
472.344	31787.72
472.549	31724.23
472.754	30702.29
472.959	30372.57
473.164	29186.8
473.369	29072.11
473.574	29686.5
473.778	28982
473.983	28488.44
474.188	28132.09
474.393	26690.32
474.598	26839.83
474.802	26368.79
475.007	25850.66
475.212	25834.27
475.417	24722.23
475.621	24208.19
475.826	23874.37
476.031	23481.16
476.235	23130.95
476.44	23112.52
476.645	22219.61
476.849	21910.36
477.054	21943.13
477.259	21236.58
477.463	21224.29
477.668	20560.75
477.872	20489.07
478.077	20304.76
478.282	19469.19
478.486	19604.35
478.691	18873.23
478.895	19028.87
479.1	18580.37
479.304	18811.79
479.509	18183.06
479.713	18555.79
479.918	17841.05
480.122	17447.84
480.326	17525.66
480.531	17521.57
480.735	17435.55
480.94	17109.93
481.144	17701.79
481.348	16470.96
481.553	16946.09
481.757	16333.75
481.961	16389.04
482.166	16839.59
482.37	16554.93
482.574	16169.91
482.778	16004.02
482.983	16360.37
483.187	15987.64
483.391	15854.52
483.595	15637.44
483.8	15363.01
484.004	15719.35
484.208	15586.24
484.412	15047.62
484.616	14916.55
484.821	14941.13
485.025	14445.52
485.229	14490.57
485.433	14353.36
485.637	14025.68
485.841	13536.22
486.045	14003.16
486.249	13597.66
486.453	13284.32
486.657	13245.41
486.861	13321.18
487.065	12286.96
487.269	12755.94
487.473	12110.83
487.677	12491.76
487.881	12246
488.085	11725.82
488.289	11664.38
488.493	11369.47
488.697	11279.36
488.901	11027.46
489.105	11035.65
489.309	10621.96
489.512	10619.91
489.716	10521.61
489.92	10140.69
490.124	10122.26
490.328	9927.7
490.531	9489.43
490.735	9784.34
490.939	9233.44
491.143	9014.31
491.346	9022.5
491.55	8989.73
491.754	8866.85
491.958	8674.34
492.161	8348.72
492.365	8533.03
492.569	8248.36
492.772	7918.64
492.976	7902.26
493.18	7842.87
493.383	7758.9
493.587	7756.85
493.79	7695.41
493.994	7439.42
494.197	7326.78
494.401	7531.58
494.605	7173.18
494.808	7302.2
495.012	7025.73
495.215	7306.3
495.419	7076.93
495.622	6784.07
495.825	6995.01
496.029	6904.9
496.232	6990.91
496.436	6759.49
496.639	7025.73
496.843	6751.3
497.046	6868.03
497.249	7023.68
497.453	6802.5
497.656	6784.07
497.859	6835.27
498.063	6886.47
498.266	6939.71
498.469	6751.3
498.673	6814.79
498.876	6747.2
499.079	6954.05
499.282	7066.69
499.485	7148.61
499.689	7150.65
499.892	7173.18
500.095	6849.6
500.298	7246.91
500.501	6931.52
500.705	7150.65
500.908	7404.6
501.111	7265.34
501.314	7539.77
501.517	7412.79
501.72	7531.58
501.923	7560.25
502.126	7756.85
502.329	7885.87
502.532	7765.04
502.735	7683.13
502.938	8180.78
503.141	8242.22
503.344	8145.97
503.547	8463.4
503.75	8442.92
503.953	8686.63
504.156	8815.65
504.359	8621.1
504.562	8690.73
504.765	8746.02
504.968	9073.7
505.17	9184.29
505.373	9370.65
505.576	9454.62
505.779	9665.56
505.982	9679.89
506.185	9944.08
506.387	10144.78
506.59	10353.68
506.793	10662.92
506.996	10570.76
507.198	11062.27
507.401	10920.96
507.604	11258.88
507.807	11693.05
508.009	11674.62
508.212	12073.97
508.415	12096.5
508.617	12340.21
508.82	12536.81
509.022	12753.9
509.225	13280.22
509.428	13403.1
509.63	13880.28
509.833	13964.25
510.035	14625.74
510.238	14511.05
510.44	14965.7
510.643	15545.28
510.845	15700.92
511.048	15588.28
511.25	16300.98
511.453	16608.17
511.655	17220.52
511.858	17220.52
512.06	17750.94
512.262	17935.26
512.465	18234.26
512.667	18838.41
512.87	19151.75
513.072	19653.5
513.274	20306.8
513.477	20642.67
513.679	21076.84
513.881	21418.85
514.084	21754.72
514.286	22561.62
514.488	22954.83
514.69	23546.69
514.893	23612.23
515.095	24548.15
515.297	24521.52
515.499	25211.69
515.701	25760.55
515.904	26329.88
516.106	27054.86
516.308	27517.7
516.51	28039.93
516.712	28420.86
516.914	29334.25
517.116	29778.66
517.318	30038.75
517.52	30546.65
517.722	30882.52
517.925	31775.43
518.127	32504.51
518.329	33051.31
518.531	33034.93
518.733	34210.46
518.935	34802.33
519.136	35111.57
519.338	35775.11
519.54	36323.97
519.742	36901.5
519.944	37171.83
520.146	38247.01
520.348	38265.44
520.55	38750.81
520.752	39371.35
520.954	40137.29
521.155	40391.23
521.357	40931.9
521.559	41269.81
521.761	42027.56
521.963	41970.22
522.164	42770.97
522.366	42656.29
522.568	43557.39
522.77	43913.74
522.971	44171.78
523.173	44311.05
523.375	44741.12
523.576	44769.79
523.778	44253.7
523.98	44880.38
524.181	45646.32
524.383	45347.32
524.584	45996.52
524.786	45572.6
524.988	45746.67
525.189	46256.62
525.391	46115.31
525.592	46479.85
525.794	46201.32
525.995	45732.34
526.197	46129.64
526.398	46305.77
526.6	46229.99
526.801	45986.28
527.003	45785.58
527.204	45654.51
527.406	45734.38
527.607	45779.44
527.808	45818.35
528.01	44395.01
528.211	44966.4
528.412	45199.86
528.614	44386.82
528.815	43958.8
529.016	44362.25
529.218	43147.8
529.419	43237.91
529.62	42721.82
529.822	42668.58
530.023	42007.08
530.224	41902.64
530.425	41265.72
530.626	40569.41
530.828	39854.67
531.029	40663.61
531.23	39410.26
531.431	39189.08
531.632	38804.06
531.833	38447.71
532.035	38009.45
532.236	37548.65
532.437	37180.02
532.638	36508.29
532.839	36444.8
533.04	35998.34
533.241	35107.47
533.442	35508.88
533.643	34796.18
533.844	33780.39
534.045	33897.13
534.246	32602.81
534.447	32674.49
534.648	32348.86
534.849	31865.54
535.05	31371.98
535.251	31134.42
535.451	30593.75
535.652	30401.24
535.853	29702.89
536.054	29670.12
536.255	28963.57
536.456	28228.35
536.657	28543.74
536.857	27558.66
537.058	27495.18
537.259	27159.31
537.46	26913.55
537.66	26309.4
537.861	26090.27
538.062	25748.26
538.263	25580.32
538.463	25115.44
538.664	25010.99
538.865	24202.04
539.065	24341.3
539.266	23616.32
539.466	23769.92
539.667	23024.46
539.868	23098.19
540.068	22629.2
540.269	22647.63
540.469	22137.69
540.67	21861.21
540.87	21529.44
541.071	21304.17
541.271	21263.21
541.472	21154.66
541.672	20710.25
541.873	20413.3
542.073	19932.03
542.274	20169.59
542.474	19630.98
542.675	19381.12
542.875	19575.68
543.075	18994.06
543.276	18705.29
543.476	18832.27
543.676	18486.16
543.877	18232.21
544.077	18148.25
544.277	18131.86
544.478	17697.69
544.678	17660.83
544.878	17472.42
545.078	17195.94
545.279	16761.77
545.479	16567.21
545.679	16462.77
545.879	16341.94
546.079	16040.89
546.28	16020.41
546.48	15713.21
546.68	15819.71
546.88	15639.48
547.08	15365.06
547.28	15174.6
547.48	14814.15
547.68	14914.5
547.88	14263.25
548.081	14230.48
548.281	14214.1
548.481	14025.68
548.681	13951.96
548.881	13564.89
549.081	13657.05
549.28	13310.94
549.48	13196.26
549.68	13036.52
549.88	13057
550.08	12682.22
550.28	12442.6
550.48	12344.3
550.68	12016.63
550.88	11906.04
551.08	11719.67
551.279	11645.94
551.479	11170.82
551.679	11369.47
551.879	11121.66
552.079	11080.71
552.278	10732.55
552.478	10703.88
552.678	10533.9
552.878	10396.68
553.077	10083.34
553.277	9839.64
553.477	9989.14
553.676	9612.31
553.876	9700.37
554.076	9354.27
554.275	9255.97
554.475	9057.31
554.674	8916
554.874	8741.93
555.074	8807.46
555.273	8559.66
555.473	8436.78
555.672	8107.05
555.872	8219.69
556.071	8184.88
556.271	7914.55
556.47	7869.49
556.67	7566.39
556.869	7605.3
557.068	7466.04
557.268	7251
557.467	7017.54
557.667	7177.28
557.866	6943.81
558.065	6804.55
558.265	6747.2
558.464	6642.76
558.663	6679.62
558.863	6448.2
559.062	6358.09
559.261	6315.08
559.461	6188.11
559.66	5999.7
559.859	5803.09
560.058	5815.38
560.258	5678.16
560.457	5772.37
560.656	5753.94
560.855	5205.08
561.054	5356.63
561.253	5330.01
561.453	5172.32
561.652	5254.23
561.851	5162.08
562.05	5006.43
562.249	4592.74
562.448	4951.14
562.647	4641.89
562.846	4697.19
563.045	4662.37
563.244	4451.43
563.443	4762.72
563.642	4344.94
563.841	4373.61
564.04	4316.26
564.239	4289.64
564.438	4240.49
564.637	4025.45
564.836	4086.89
565.035	4037.74
565.234	3861.62
565.432	3869.81
565.631	3685.49
565.83	3695.73
566.029	3724.4
566.228	3763.31
566.427	3681.39
566.625	3382.39
566.824	3505.27
567.023	3456.12
567.222	3458.17
567.42	3370.1
567.619	3292.28
567.818	3320.95
568.016	3468.41
568.215	3091.58
568.414	3204.22
568.612	3185.79
568.811	3083.39
569.01	2983.04
569.208	2929.79
569.407	2956.41
569.605	2948.22
569.804	2792.58
570.002	2864.25
570.201	2765.95
570.4	2786.43
570.598	2739.33
570.797	2632.83
570.995	2555.01
571.193	2589.83
571.392	2630.79
571.59	2436.23
571.789	2509.96
571.987	2491.52
572.186	2389.13
572.384	2376.84
572.582	2258.06
572.781	2372.74
572.979	2167.95
573.177	2200.71
573.376	2092.17
573.574	2106.51
573.772	1938.57
573.971	2000.01
574.169	1852.56
574.367	1979.53
574.565	1926.29
574.763	1873.04
574.962	1959.05
575.16	1862.8
575.358	1817.74
575.556	1840.27
575.754	1744.02
575.952	1703.06
576.151	1772.69
576.349	1764.5
576.547	1813.65
576.745	1725.58
576.943	1694.86
577.141	1582.23
577.339	1569.94
577.537	1637.52
577.735	1643.67
577.933	1592.47
578.131	1348.76
578.329	1557.65
578.527	1432.72
578.725	1461.4
578.923	1215.64
579.121	1467.54
579.319	1223.83
579.516	1289.37
579.714	1442.96
579.912	1318.04
580.11	1234.07
580.308	1297.56
580.506	1172.63
580.704	1041.56
580.901	1213.59
581.099	1201.3
581.297	1156.25
581.495	1248.41
581.692	1166.49
581.89	1272.98
582.088	1217.69
582.285	1152.15
582.483	1019.04
582.681	1021.08
582.878	1008.8
583.076	1109.15
583.274	1041.56
583.471	1191.06
583.669	908.44
583.866	961.69
584.064	994.46
584.262	885.92
584.459	830.62
584.657	969.88
584.854	965.79
585.052	951.45
585.249	955.55
585.447	920.73
585.644	695.46
585.841	922.78
586.039	933.02
586.236	937.12
586.434	824.48
586.631	756.9
586.828	769.18
587.026	769.18
587.223	636.06
587.42	724.13
587.618	697.5
587.815	853.15
588.012	662.69
588.21	736.42
588.407	736.42
588.604	699.55
588.801	726.18
588.999	621.73
589.196	773.28
589.393	638.11
589.59	722.08
589.787	642.21
589.984	648.35
590.182	654.5
590.379	650.4
590.576	615.59
590.773	558.24
590.97	658.59
591.167	658.59
591.364	621.73
591.561	617.63
591.758	793.76
591.955	584.87
592.152	650.4
592.349	566.43
592.546	558.24
592.743	607.39
592.94	597.15
593.137	652.45
593.334	744.61
593.531	705.7
593.727	654.5
593.924	652.45
594.121	654.5
594.318	646.3
594.515	697.5
594.712	799.9
594.908	699.55
595.105	588.96
595.302	771.23
595.499	744.61
595.696	734.37
595.892	617.63
596.089	769.18
596.286	617.63
596.482	793.76
596.679	756.9
596.876	724.13
597.072	855.2
597.269	752.8
597.466	883.87
597.662	902.3
597.859	875.68
598.055	793.76
598.252	920.73
598.448	992.41
598.645	1055.9
598.841	1064.09
599.038	1137.82
599.234	1221.78
599.431	1117.34
599.627	1162.39
599.824	1248.41
600.02	1275.03
600.217	1303.7
600.413	1367.19
600.609	1498.26
600.806	1672.34
601.002	1490.07
601.198	1547.41
601.395	1623.19
601.591	1801.36
601.787	1766.54
601.984	1852.56
602.18	1846.41
602.376	1885.33
602.572	2083.98
602.769	2219.14
602.965	2075.79
603.161	2192.52
603.357	2288.78
603.553	2469
603.75	2481.28
603.946	2450.57
604.142	2704.51
604.338	2944.13
604.534	2704.51
604.73	2833.54
604.926	2880.64
605.122	3273.85
605.318	3091.58
605.514	3265.66
605.71	3347.58
605.906	3546.23
606.102	3603.57
606.298	3863.66
606.494	3808.37
606.69	3951.73
606.886	4058.22
607.082	4039.79
607.278	4148.33
607.474	4420.71
607.67	4330.6
607.866	4488.29
608.062	4961.37
608.257	4867.17
608.453	4762.72
608.649	4969.57
608.845	4992.09
609.041	5305.43
609.236	5485.65
609.432	5540.95
609.628	5798.99
609.824	5999.7
610.019	6038.61
610.215	6173.77
610.411	6562.89
610.606	6730.82
610.802	6687.81
610.998	6986.82
611.193	7128.13
611.389	7328.83
611.584	7693.37
611.78	7541.82
611.976	7955.51
612.171	8299.56
612.367	8459.31
612.562	8502.31
612.758	8600.62
612.953	8936.48
613.149	9311.26
613.344	9540.63
613.539	9665.56
613.735	9927.7
613.93	10359.82
614.126	10548.23
614.321	10957.83
614.517	11166.72
614.712	11441.15
614.907	11566.07
615.103	12076.02
615.298	11957.24
615.493	12653.55
615.688	12659.69
615.884	13618.14
616.079	13259.74
616.274	13763.54
616.47	13990.87
616.665	14586.83
616.86	14570.44
617.055	15279.04
617.25	15487.93
617.445	16147.38
617.641	16133.04
617.836	16872.36
618.031	17048.49
618.226	17646.49
618.421	17941.4
618.616	18434.96
618.811	18668.43
619.006	19385.22
619.201	19465.09
619.396	19944.31
619.591	20083.58
619.786	21265.25
619.981	21070.7
620.176	21887.84
620.371	21881.69
620.566	22704.98
620.761	23399.24
620.956	23618.37
621.151	23989.05
621.346	24816.43
621.541	24879.92
621.735	25953.05
621.93	25680.67
622.125	26446.62
622.32	26465.05
622.515	27214.6
622.709	28050.17
622.904	28445.43
623.099	29272.81
623.294	29633.25
623.488	29928.16
623.683	30454.49
623.878	30505.69
624.072	31466.19
624.267	31875.78
624.462	32029.38
624.656	32432.83
624.851	33229.49
625.046	33307.31
625.24	34124.45
625.435	34939.54
625.629	35156.63
625.824	35426.96
626.018	36512.38
626.213	35988.1
626.407	36584.06
626.602	36881.02
626.796	37694.06
626.991	38060.65
627.185	38367.84
627.38	38675.04
627.574	38580.83
627.768	38679.13
627.963	38675.04
628.157	38978.14
628.352	39440.98
628.546	39041.62
628.74	39684.69
628.935	39264.85
629.129	39537.23
629.323	39074.39
629.517	38865.5
629.712	38523.49
629.906	38318.69
630.1	37939.82
630.294	38384.22
630.489	37360.24
630.683	36997.75
630.877	36442.75
631.071	35793.54
631.265	35451.53
631.459	34466.46
631.653	33677.99
631.848	33170.1
632.042	32203.46
632.236	31791.81
632.43	31191.76
632.624	29913.83
632.818	29158.13
633.012	28095.23
633.206	27443.98
633.4	26841.87
633.594	25475.88
633.788	24929.07
633.982	24134.46
634.176	23313.22
634.369	22244.18
634.563	21316.45
634.757	20634.48
634.951	20118.39
635.145	19215.24
635.339	18394
635.533	17845.15
635.726	17193.89
635.92	16292.79
636.114	15774.65
636.308	14746.57
636.501	14498.77
636.695	14015.44
636.889	13304.8
637.083	12786.66
637.276	12209.14
637.47	11340.8
637.664	11160.58
637.857	11037.7
638.051	10484.75
638.244	10179.6
638.438	9595.93
638.632	9237.53
638.825	8895.52
639.019	8496.17
639.212	8105.01
639.406	7988.27
639.599	7543.86
639.793	7400.51
639.986	6980.67
640.18	6671.43
640.373	6462.54
640.567	6198.35
640.76	6020.17
640.954	5737.56
641.147	5379.16
641.34	5330.01
641.534	4994.14
641.727	5071.97
641.92	4852.83
642.114	4664.42
642.307	4322.41
642.5	4224.11
642.694	3914.86
642.887	3941.49
643.08	3789.94
643.273	3744.88
643.467	3374.2
643.66	3335.29
643.853	3081.34
644.046	3138.68
644.239	3005.56
644.432	2741.38
644.626	2655.36
644.819	2624.64
645.012	2626.69
645.205	2557.06
645.398	2419.85
645.591	2303.11
645.784	2055.31
645.977	2061.45
646.17	2012.3
646.363	1830.03
646.556	1770.64
646.749	1764.5
646.942	1760.4
647.135	1739.92
647.328	1629.33
647.521	1514.64
647.714	1563.79
647.907	1479.83
648.099	1475.73
648.292	1399.96
648.485	1291.41
648.678	1225.88
648.871	1156.25
649.064	1209.5
649.256	1068.19
649.449	1103
649.642	799.9
649.835	949.4
650.027	863.39
650.22	961.69
650.413	982.17
650.605	869.53
650.798	875.68
650.991	795.81
651.183	724.13
651.376	795.81
651.568	804
651.761	681.12
651.954	701.6
652.146	717.98
652.339	707.74
652.531	732.32
652.724	574.63
652.916	584.87
653.109	523.43
653.301	683.17
653.494	621.73
653.686	566.43
653.879	591.01
654.071	543.91
654.263	535.71
654.456	388.26
654.648	488.61
654.84	459.94
655.033	400.55
655.225	560.29
655.417	253.09
655.61	523.43
655.802	494.76
655.994	429.22
656.186	304.29
656.379	400.55
656.571	244.9
656.763	298.15
656.955	435.36
657.148	277.67
657.34	388.26
657.532	384.16
657.724	287.91
657.916	302.25
658.108	320.68
658.3	373.92
658.492	314.53
658.684	222.38
658.876	359.59
659.068	181.42
659.26	232.62
659.452	187.56
659.644	271.53
659.836	384.16
660.028	169.13
660.22	232.62
660.412	195.75
660.604	208.04
660.796	261.29
660.988	238.76
661.18	351.4
661.372	271.53
661.563	208.04
661.755	222.38
661.947	146.6
662.139	224.42
662.331	148.65
662.522	214.18
662.714	146.6
662.906	148.65
663.097	169.13
663.289	181.42
663.481	138.41
663.673	197.8
663.864	269.48
664.056	255.14
664.247	66.73
664.439	300.2
664.631	169.13
664.822	179.37
665.014	216.23
665.205	126.12
665.397	142.5
665.588	169.13
665.78	144.55
665.971	230.57
666.163	97.45
666.354	146.6
666.546	72.87
666.737	169.13
666.929	136.36
667.12	142.5
667.311	214.18
667.503	173.22
667.694	138.41
667.885	210.09
668.077	218.28
668.268	48.3
668.459	160.94
668.651	189.61
668.842	171.18
669.033	103.59
669.224	70.83
669.416	304.29
669.607	36.01
669.798	72.87
669.989	318.63
670.18	89.26
670.371	175.27
670.563	128.17
670.754	132.26
670.945	238.76
671.136	150.7
671.327	140.46
671.518	212.14
671.709	277.67
671.9	205.99
672.091	208.04
672.282	165.03
672.473	181.42
672.664	119.98
672.855	126.12
673.046	210.09
673.237	171.18
673.428	95.4
673.619	244.9
673.809	117.93
674	230.57
674.191	183.46
674.382	179.37
674.573	97.45
674.764	107.69
674.954	185.51
675.145	144.55
675.336	128.17
675.527	115.88
675.717	101.55
675.908	89.26
676.099	140.46
676.289	66.73
676.48	38.06
676.671	183.46
676.861	105.64
677.052	160.94
677.243	224.42
677.433	109.74
677.624	201.9
677.814	175.27
678.005	156.84
678.195	292.01
678.386	130.22
678.576	222.38
678.767	117.93
678.957	167.08
679.148	244.9
679.338	431.27
679.529	162.98
679.719	165.03
679.909	285.86
680.1	160.94
680.29	271.53
680.481	138.41
680.671	210.09
680.861	197.8
681.052	171.18
681.242	93.35
681.432	267.43
681.622	277.67
681.813	91.31
682.003	173.22
682.193	230.57
682.383	183.46
682.573	152.74
682.764	187.56
682.954	144.55
683.144	359.59
683.334	189.61
683.524	181.42
683.714	367.78
683.904	314.53
684.094	246.95
684.284	226.47
684.474	310.44
684.664	314.53
684.854	281.77
685.044	201.9
685.234	208.04
685.424	283.81
685.614	197.8
685.804	345.25
685.994	273.57
686.184	179.37
686.374	199.85
686.564	232.62
686.753	224.42
686.943	19.63
687.133	183.46
687.323	210.09
687.513	277.67
687.702	226.47
687.892	279.72
688.082	296.1
688.272	267.43
688.461	335.01
688.651	347.3
688.841	310.44
689.03	165.03
689.22	224.42
689.41	285.86
689.599	240.81
689.789	187.56
689.979	298.15
690.168	220.33
690.358	320.68
690.547	216.23
690.737	263.33
690.926	240.81
691.116	242.85
691.305	234.66
691.495	320.68
691.684	236.71
691.874	138.41
692.063	179.37
692.252	300.2
692.442	300.2
692.631	185.51
692.82	197.8
693.01	160.94
693.199	208.04
693.388	197.8
693.578	212.14
693.767	296.1
693.956	249
694.146	238.76
694.335	222.38
694.524	136.36
694.713	302.25
694.902	259.24
695.092	175.27
695.281	210.09
695.47	142.5
695.659	238.76
695.848	261.29
696.037	128.17
696.226	244.9
696.415	306.34
696.604	224.42
696.793	171.18
696.982	230.57
697.171	361.64
697.36	124.07
697.549	201.9
697.738	160.94
697.927	179.37
698.116	140.46
698.305	271.53
698.494	165.03
698.683	214.18
698.872	316.58
699.061	175.27
699.25	169.13
699.438	208.04
699.627	105.64
699.816	310.44
700.005	97.45
700.193	97.45
700.382	337.06
700.571	195.75
700.76	201.9
700.948	302.25
701.137	308.39
701.326	249
701.514	138.41
701.703	230.57
701.892	216.23
702.08	349.35
702.269	148.65
702.457	203.94
702.646	249
702.834	165.03
703.023	255.14
703.212	222.38
703.4	249
703.589	189.61
703.777	216.23
703.965	230.57
704.154	162.98
704.342	165.03
704.531	257.19
704.719	162.98
704.907	193.7
705.096	115.88
705.284	156.84
705.472	185.51
705.661	251.05
705.849	249
706.037	271.53
706.226	218.28
706.414	201.9
706.602	140.46
706.79	191.66
706.979	210.09
707.167	195.75
707.355	64.68
707.543	201.9
707.731	205.99
707.919	97.45
708.107	60.59
708.296	64.68
708.484	128.17
708.672	240.81
708.86	238.76
709.048	195.75
709.236	119.98
709.424	199.85
709.612	183.46
709.8	70.83
709.988	103.59
710.176	332.97
710.364	292.01
710.551	179.37
710.739	154.79
710.927	179.37
711.115	222.38
711.303	181.42
711.491	326.82
711.679	224.42
711.866	236.71
712.054	175.27
712.242	238.76
712.43	261.29
712.617	230.57
712.805	292.01
712.993	261.29
713.181	132.26
713.368	341.16
713.556	273.57
713.744	162.98
713.931	343.21
714.119	228.52
714.306	205.99
714.494	195.75
714.682	259.24
714.869	136.36
715.057	214.18
715.244	105.64
715.432	214.18
715.619	187.56
715.807	199.85
715.994	259.24
716.182	263.33
716.369	287.91
716.556	300.2
716.744	119.98
716.931	165.03
717.119	234.66
717.306	167.08
717.493	257.19
717.681	154.79
717.868	267.43
718.055	261.29
718.242	179.37
718.43	234.66
718.617	306.34
718.804	193.7
718.991	257.19
719.179	283.81
719.366	271.53
719.553	183.46
719.74	244.9
719.927	234.66
720.114	269.48
720.301	199.85
720.488	191.66
720.676	158.89
720.863	302.25
721.05	292.01
721.237	318.63
721.424	236.71
721.611	244.9
721.798	175.27
721.985	187.56
722.172	230.57
722.358	238.76
722.545	283.81
722.732	339.11
722.919	351.4
723.106	363.69
723.293	228.52
723.48	218.28
723.667	140.46
723.853	287.91
724.04	318.63
724.227	351.4
724.414	199.85
724.6	255.14
724.787	320.68
724.974	408.74
725.161	304.29
725.347	101.55
725.534	228.52
725.72	322.73
725.907	265.38
726.094	292.01
726.28	199.85
726.467	191.66
726.653	195.75
726.84	306.34
727.027	287.91
727.213	265.38
727.4	281.77
727.586	214.18
727.773	318.63
727.959	199.85
728.145	222.38
728.332	287.91
728.518	234.66
728.705	308.39
728.891	236.71
729.077	296.1
729.264	158.89
729.45	201.9
729.636	228.52
729.823	261.29
730.009	349.35
730.195	292.01
730.382	369.83
730.568	210.09
730.754	345.25
730.94	265.38
731.126	244.9
731.313	322.73
731.499	259.24
731.685	367.78
731.871	279.72
732.057	349.35
732.243	326.82
732.429	236.71
732.615	302.25
732.801	257.19
732.987	326.82
733.173	263.33
733.359	226.47
733.545	287.91
733.731	277.67
733.917	373.92
734.103	289.96
734.289	324.77
734.475	150.7
734.661	427.17
734.847	294.05
735.033	222.38
735.219	244.9
735.404	154.79
735.59	226.47
735.776	240.81
735.962	306.34
736.148	416.93
736.333	285.86
736.519	275.62
736.705	298.15
736.89	257.19
737.076	300.2
737.262	113.83
737.447	160.94
737.633	281.77
737.819	330.92
738.004	191.66
738.19	265.38
738.375	314.53
738.561	386.21
738.747	292.01
738.932	199.85
739.118	457.89
739.303	263.33
739.489	318.63
739.674	263.33
739.859	218.28
740.045	281.77
740.23	378.02
740.416	111.78
740.601	292.01
740.786	226.47
740.972	212.14
741.157	249
741.342	152.74
741.528	177.32
741.713	343.21
741.898	242.85
742.084	218.28
742.269	271.53
742.454	324.77
742.639	404.64
742.824	337.06
743.01	449.7
743.195	435.36
743.38	251.05
743.565	261.29
743.75	326.82
743.935	330.92
744.12	404.64
744.305	208.04
744.49	199.85
744.675	249
744.86	224.42
745.045	251.05
745.23	304.29
745.415	236.71
745.6	330.92
745.785	222.38
745.97	310.44
746.155	339.11
746.34	292.01
746.525	287.91
746.71	416.93
746.895	205.99
747.079	228.52
747.264	197.8
747.449	314.53
747.634	316.58
747.819	253.09
748.003	185.51
748.188	232.62
748.373	289.96
748.557	302.25
748.742	259.24
748.927	242.85
749.111	230.57
749.296	230.57
749.481	246.95
749.665	226.47
749.85	177.32
750.034	240.81
750.219	251.05
750.404	179.37
750.588	277.67
750.773	181.42
750.957	156.84
751.141	189.61
751.326	246.95
751.51	117.93
751.695	175.27
751.879	218.28
752.064	330.92
752.248	191.66
752.432	287.91
752.617	275.62
752.801	277.67
752.985	148.65
753.17	257.19
753.354	216.23
753.538	162.98
753.722	210.09
753.907	144.55
754.091	138.41
754.275	259.24
754.459	128.17
754.643	199.85
754.828	232.62
755.012	273.57
755.196	115.88
755.38	140.46
755.564	210.09
755.748	183.46
755.932	199.85
756.116	265.38
756.3	273.57
756.484	177.32
756.668	210.09
756.852	3.24
757.036	165.03
757.22	165.03
757.404	122.02
757.588	105.64
757.772	183.46
757.956	146.6
758.14	226.47
758.323	91.31
758.507	189.61
758.691	31.91
758.875	212.14
759.059	242.85
759.242	132.26
759.426	216.23
759.61	179.37
759.794	87.21
759.977	199.85
760.161	281.77
760.345	236.71
760.528	255.14
760.712	193.7
760.895	214.18
761.079	134.31
761.263	132.26
761.446	124.07
761.63	175.27
761.813	244.9
761.997	79.02
762.18	119.98
762.364	220.33
762.547	9.39
762.731	124.07
762.914	124.07
763.098	72.87
763.281	91.31
763.464	122.02
763.648	140.46
763.831	122.02
764.015	91.31
764.198	189.61
764.381	115.88
764.564	40.11
764.748	177.32
764.931	54.44
765.114	109.74
765.297	162.98
765.481	66.73
765.664	33.96
765.847	117.93
766.03	230.57
766.213	58.54
766.397	199.85
766.58	79.02
766.763	68.78
766.946	93.35
767.129	1.19
767.312	33.96
767.495	101.55
767.678	44.2
767.861	93.35
768.044	124.07
768.227	40.11
768.41	23.72
768.593	93.35
768.776	117.93
768.959	109.74
769.142	199.85
769.324	109.74
769.507	117.93
769.69	97.45
769.873	40.11
770.056	210.09
770.239	99.5
770.421	156.84
770.604	169.13
770.787	173.22
770.97	99.5
771.152	70.83
771.335	152.74
771.518	21.67
771.7	150.7
771.883	224.42
772.066	58.54
772.248	93.35
772.431	173.22
772.613	175.27
772.796	146.6
772.978	224.42
773.161	177.32
773.343	66.73
773.526	99.5
773.708	-76.63
773.891	-23.38
774.073	85.16
774.256	64.68
774.438	189.61
774.621	91.31
774.803	150.7
774.985	105.64
775.168	103.59
775.35	122.02
775.532	177.32
775.715	46.25
775.897	97.45
776.079	54.44
776.261	60.59
776.444	70.83
776.626	29.87
776.808	74.92
776.99	11.43
777.173	150.7
777.355	62.63
777.537	15.53
777.719	66.73
777.901	-0.85
778.083	5.29
778.265	-25.43
778.447	109.74
778.629	44.2
778.811	58.54
778.993	117.93
779.175	109.74
779.357	85.16
779.539	7.34
779.721	33.96
779.903	122.02
780.085	46.25
780.267	58.54
780.449	23.72
780.631	40.11
780.812	203.94
780.994	130.22
781.176	72.87
781.358	25.77
781.54	136.36
781.721	81.07
781.903	83.11
782.085	60.59
782.267	124.07
782.448	-50
782.63	54.44
782.812	54.44
782.993	95.4
783.175	122.02
783.357	31.91
783.538	142.5
783.72	-0.85
783.901	29.87
784.083	101.55
784.264	70.83
784.446	46.25
784.627	-123.73
784.809	122.02
784.99	1.19
785.172	38.06
785.353	105.64
785.535	136.36
785.716	-19.29
785.897	-35.67
786.079	25.77
786.26	64.68
786.441	81.07
786.623	-35.67
786.804	21.67
786.985	42.15
787.167	85.16
787.348	29.87
787.529	27.82
787.71	175.27
787.891	115.88
788.073	-11.09
788.254	-9.05
788.435	185.51
788.616	54.44
788.797	-9.05
788.978	44.2
789.159	11.43
789.34	93.35
789.522	54.44
789.703	-23.38
789.884	66.73
790.065	48.3
790.246	150.7
790.427	7.34
790.607	60.59
790.788	36.01
790.969	-80.72
791.15	124.07
791.331	-29.52
791.512	60.59
791.693	-15.19
791.874	-43.86
792.054	218.28
792.235	109.74
792.416	-7
792.597	-76.63
792.778	50.35
792.958	31.91
793.139	85.16
793.32	-62.29
793.5	-43.86
793.681	124.07
793.862	119.98
794.042	83.11
794.223	-27.48
794.404	83.11
794.584	-62.29
794.765	56.49
794.945	38.06
795.126	58.54
795.306	33.96
795.487	40.11
795.667	-13.14
795.848	101.55
796.028	70.83
796.209	27.82
796.389	33.96
796.57	76.97
796.75	-66.39
796.93	-27.48
797.111	13.48
797.291	21.67
797.471	89.26
797.652	21.67
797.832	9.39
798.012	19.63
798.192	-54.1
798.373	-17.24
798.553	60.59
798.733	62.63
798.913	-80.72
799.093	91.31
799.274	64.68
799.454	74.92
799.634	107.69
799.814	81.07
799.994	70.83
800.174	40.11
800.354	21.67
800.534	-107.35
800.714	54.44
800.894	-129.88
801.074	-17.24
801.254	-21.33
801.434	124.07
801.614	17.58
801.794	-86.87
801.974	1754.26
802.154	-2.9
802.334	99.5
802.514	42.15
802.693	31.91
802.873	-54.1
803.053	128.17
803.233	107.69
803.413	68.78
803.592	-7
803.772	-45.91
803.952	93.35
804.131	-35.67
804.311	56.49
804.491	33.96
804.67	-27.48
804.85	-4.95
805.03	42.15
805.209	50.35
805.389	60.59
805.568	27.82
805.748	-56.15
805.928	-37.72
806.107	68.78
806.287	46.25
806.466	54.44
806.646	-86.87
806.825	-19.29
807.004	9.39
807.184	40.11
807.363	91.31
807.543	38.06
807.722	-27.48
807.901	150.7
808.081	48.3
808.26	-191.31
808.439	52.39
808.619	11.43
808.798	-29.52
808.977	56.49
809.156	56.49
809.336	66.73
809.515	136.36
809.694	-27.48
809.873	11.43
810.052	66.73
810.231	81.07
810.411	11.43
810.59	134.31
810.769	11.43
810.948	132.26
811.127	-82.77
811.306	7.34
811.485	-17.24
811.664	128.17
811.843	-25.43
812.022	-19.29
812.201	-78.68
812.38	11.43
812.559	-84.82
812.737	31.91
812.916	-138.07
813.095	-37.72
813.274	40.11
813.453	-15.19
813.632	113.83
813.811	72.87
813.989	-56.15
814.168	85.16
814.347	-78.68
814.526	19.63
814.704	52.39
814.883	83.11
815.062	-31.57
815.24	-41.81
815.419	-11.09
815.598	46.25
815.776	-127.83
815.955	27.82
816.133	-136.02
816.312	44.2
816.49	-35.67
816.669	-17.24
816.847	-50
817.026	5.29
817.204	-2.9
817.383	-17.24
817.561	5.29
817.74	50.35
817.918	46.25
818.097	40.11
818.275	-76.63
818.453	7.34
818.632	62.63
818.81	15.53
818.988	-0.85
819.167	-7
819.345	15.53
819.523	-17.24
819.701	11.43
819.879	99.5
820.058	17.58
820.236	29.87
820.414	87.21
820.592	68.78
820.77	79.02
820.948	-86.87
821.127	-78.68
821.305	-19.29
821.483	-107.35
821.661	70.83
821.839	33.96
822.017	-33.62
822.195	38.06
822.373	33.96
822.551	38.06
822.729	119.98
822.907	-50
823.085	25.77
823.262	-21.33
823.44	-117.59
823.618	-27.48
823.796	31.91
823.974	-58.2
824.152	-11.09
824.329	38.06
824.507	42.15
824.685	58.54
824.863	-9.05
825.04	27.82
825.218	1.19
825.396	101.55
825.574	48.3
825.751	-13.14
825.929	44.2
826.107	-80.72
826.284	42.15
826.462	17.58
826.639	-35.67
826.817	-56.15
826.994	-23.38
827.172	15.53
827.349	23.72
827.527	5.29
827.704	-17.24
827.882	74.92
828.059	-74.58
828.237	-54.1
828.414	117.93
828.591	-123.73
828.769	36.01
828.946	-15.19
829.124	62.63
829.301	91.31
829.478	-11.09
829.655	99.5
829.833	91.31
830.01	-99.16
830.187	105.64
830.364	3.24
830.542	-54.1
830.719	81.07
830.896	74.92
831.073	60.59
831.25	48.3
831.427	48.3
831.604	-41.81
831.782	-13.14
831.959	56.49
832.136	23.72
832.313	66.73
832.49	7.34
832.667	95.4
832.844	1.19
833.021	119.98
833.198	52.39
833.374	-9.05
833.551	64.68
833.728	-41.81
833.905	89.26
834.082	-160.59
834.259	54.44
834.436	29.87
834.612	-41.81
834.789	105.64
834.966	56.49
835.143	83.11
835.319	-152.4
835.496	25.77
835.673	36.01
835.85	87.21
836.026	23.72
836.203	81.07
836.38	-25.43
836.556	-13.14
836.733	-80.72
836.909	144.55
837.086	-0.85
837.262	-2.9
837.439	33.96
837.616	27.82
837.792	23.72
837.968	25.77
838.145	-52.05
838.321	-54.1
838.498	126.12
838.674	31.91
838.851	-86.87
839.027	-78.68
839.203	83.11
839.38	11.43
839.556	-58.2
839.732	11.43
839.909	-64.34
840.085	105.64
840.261	-27.48
840.437	-70.48
840.614	-113.49
840.79	101.55
840.966	7.34
841.142	44.2
841.318	1.19
841.494	101.55
841.671	81.07
841.847	-80.72
842.023	-68.44
842.199	50.35
842.375	109.74
842.551	-82.77
842.727	-43.86
842.903	109.74
843.079	-68.44
843.255	70.83
843.431	5.29
843.607	124.07
843.783	-185.17
843.959	85.16
844.134	-66.39
844.31	21.67
844.486	-4.95
844.662	-76.63
844.838	9.39
845.013	74.92
845.189	91.31
845.365	27.82
845.541	-23.38
845.716	58.54
845.892	103.59
846.068	-88.92
846.244	-54.1
846.419	87.21
846.595	48.3
846.77	-66.39
846.946	38.06
847.122	-15.19
847.297	-25.43
847.473	134.31
847.648	-84.82
847.824	40.11
847.999	-154.45
848.175	-21.33
848.35	74.92
848.526	130.22
848.701	132.26
848.876	85.16
849.052	11.43
849.227	17.58
849.403	-35.67
849.578	44.2
849.753	23.72
849.929	15.53
850.104	-146.26
850.279	31.91
850.454	27.82
850.63	25.77
850.805	17.58
850.98	-25.43
851.155	-33.62
851.33	-62.29
851.505	-78.68
851.681	42.15
851.856	-70.48
852.031	52.39
852.206	64.68
852.381	-70.48
852.556	-64.34
852.731	46.25
852.906	-31.57
853.081	56.49
853.256	97.45
853.431	-2.9
853.606	-97.11
853.781	-66.39
853.956	-109.4
854.131	29.87
854.305	-45.91
854.48	-2.9
854.655	-21.33
854.83	-27.48
855.005	-50
855.18	36.01
855.354	46.25
855.529	-0.85
855.704	11.43
855.879	50.35
856.053	-107.35
856.228	87.21
856.403	-93.01
856.577	56.49
856.752	-103.25
856.926	-2.9
857.101	-27.48
857.276	-29.52
857.45	58.54
857.625	27.82
857.799	15.53
857.974	-37.72
858.148	-54.1
858.323	85.16
858.497	-25.43
858.672	-60.24
858.846	-54.1
859.02	62.63
859.195	-52.05
859.369	-31.57
859.543	23.72
859.718	-35.67
859.892	44.2
860.066	7.34
860.241	-39.76
860.415	-66.39
860.589	19.63
860.763	-43.86
860.938	-72.53
861.112	42.15
861.286	-80.72
861.46	27.82
861.634	-45.91
861.808	89.26
861.982	3.24
862.157	-72.53
862.331	-29.52
862.505	-11.09
862.679	-23.38
862.853	-4.95
863.027	25.77
863.201	124.07
863.375	-76.63
863.549	19.63
863.722	40.11
863.896	115.88
864.07	-33.62
864.244	-101.2
864.418	56.49
864.592	-11.09
864.766	46.25
864.939	7.34
865.113	-27.48
865.287	107.69
865.461	38.06
865.634	-52.05
865.808	11.43
865.982	15.53
866.156	-27.48
866.329	-58.2
866.503	76.97
866.676	68.78
866.85	95.4
867.024	-29.52
867.197	66.73
867.371	130.22
867.544	31.91
867.718	-93.01
867.891	38.06
868.065	-60.24
868.238	13.48
868.412	91.31
868.585	56.49
868.759	-29.52
868.932	-23.38
869.105	-62.29
869.279	-19.29
869.452	-99.16
869.625	17.58
869.799	-21.33
869.972	-64.34
870.145	-56.15
870.319	107.69
870.492	-9.05
870.665	-9.05
870.838	-129.88
871.011	-160.59
871.185	-25.43
871.358	-39.76
871.531	27.82
871.704	-54.1
871.877	19.63
872.05	-9.05
872.223	-37.72
872.396	17.58
872.569	64.68
872.742	-74.58
872.915	15.53
873.088	-23.38
873.261	60.59
873.434	107.69
873.607	38.06
873.78	101.55
873.953	-88.92
874.126	-25.43
874.299	113.83
874.471	-72.53
874.644	-0.85
874.817	117.93
874.99	148.65
875.163	13.48
875.335	-4.95
875.508	-41.81
875.681	177.32
875.853	-117.59
876.026	5.29
876.199	64.68
876.371	9.39
876.544	58.54
876.717	58.54
876.889	-88.92
877.062	60.59
877.234	-60.24
877.407	-11.09
877.579	48.3
877.752	-56.15
877.924	7.34
878.097	46.25
878.269	5.29
878.442	68.78
878.614	95.4
878.786	-17.24
878.959	70.83
879.131	23.72
879.303	-140.12
879.476	-45.91
879.648	15.53
879.82	7.34
879.993	-90.96
880.165	-25.43
880.337	-68.44
880.509	-33.62
880.681	-127.83
880.854	-41.81
881.026	76.97
881.198	134.31
881.37	-29.52
881.542	-72.53
881.714	13.48
881.886	-50
882.058	13.48
882.23	42.15
882.402	-7
882.574	1.19
882.746	21.67
882.918	99.5
883.09	-23.38
883.262	-52.05
883.434	3.24
883.606	-142.16
883.778	-2.9
883.95	109.74
884.122	-80.72
884.293	85.16
884.465	-19.29
884.637	76.97
884.809	-19.29
884.98	25.77
885.152	93.35
885.324	-41.81
885.496	-7
885.667	19.63
885.839	27.82
886.011	87.21
886.182	33.96
886.354	44.2
886.525	48.3
886.697	19.63
886.869	-45.91
887.04	9.39
887.212	115.88
887.383	89.26
887.555	-4.95
887.726	-25.43
887.897	-37.72
888.069	-52.05
888.24	103.59
888.412	-21.33
888.583	-58.2
888.754	-25.43
888.926	-105.3
889.097	15.53
889.268	-58.2
889.44	48.3
889.611	-72.53
889.782	-47.96
889.953	-68.44
890.125	115.88
890.296	-82.77
890.467	-21.33
890.638	21.67
890.809	-62.29
890.98	-127.83
891.151	1.19
891.323	46.25
891.494	21.67
891.665	17.58
891.836	17.58
892.007	48.3
892.178	27.82
892.349	21.67
892.52	-19.29
892.691	1.19
892.862	-7
893.032	-133.97
893.203	-70.48
893.374	72.87
893.545	33.96
893.716	-78.68
893.887	136.36
894.057	-74.58
894.228	-41.81
894.399	-43.86
894.57	109.74
894.74	-54.1
894.911	56.49
895.082	-29.52
895.253	-29.52
895.423	-2.9
895.594	29.87
895.764	74.92
895.935	-4.95
896.106	52.39
896.276	-72.53
896.447	25.77
896.617	-19.29
896.788	-62.29
896.958	-33.62
897.129	-17.24
897.299	-62.29
897.47	124.07
897.64	126.12
897.81	36.01
897.981	-15.19
898.151	-60.24
898.322	76.97
898.492	36.01
898.662	-95.06
898.832	-50
899.003	-15.19
899.173	36.01
899.343	-4.95
899.513	21.67
