Data from USB4F104151__44__10-43-14-777.txt Node

Date: Wed Feb 26 10:43:14 EST 2025
User: louis
Spectrometer: USB4F10415
Trigger mode: 4
Integration Time (sec): 1.000000E-1
Scans to average: 1
Electric dark correction enabled: true
Nonlinearity correction enabled: false
Boxcar width: 0
XAxis mode: Wavelengths
Number of Pixels in Spectrum: 3648
>>>>>Begin Spectral Data<<<<<
178.204	-442.87
178.424	-442.87
178.644	-442.87
178.864	-459.26
179.084	-381.43
179.304	60.93
179.524	-47.62
179.744	-16.9
179.964	105.98
180.184	-6.66
180.404	85.5
180.624	-16.9
180.844	-29.18
181.064	-104.96
181.283	32.26
181.503	-111.1
181.723	48.64
181.943	-133.63
182.163	185.85
182.383	-29.18
182.602	3.58
182.822	224.76
183.042	54.78
183.262	-57.86
183.482	-127.49
183.701	-74.24
183.921	17.92
184.141	1.54
184.361	46.59
184.58	91.65
184.8	89.6
185.02	-23.04
185.239	67.07
185.459	65.02
185.679	99.84
185.898	-43.52
186.118	32.26
186.338	-43.52
186.557	97.79
186.777	-102.91
186.997	52.74
187.216	50.69
187.436	157.18
187.655	81.41
187.875	-14.85
188.095	-35.33
188.314	148.99
188.534	85.5
188.753	-37.38
188.973	101.89
189.192	108.03
189.412	30.21
189.631	38.4
189.851	26.11
190.07	105.98
190.29	-92.67
190.509	26.11
190.729	-16.9
190.948	112.13
191.168	177.66
191.387	101.89
191.607	134.65
191.826	69.12
192.045	65.02
192.265	-0.51
192.484	105.98
192.704	34.3
192.923	-78.33
193.142	210.43
193.362	122.37
193.581	85.5
193.8	46.59
194.02	83.45
194.239	-4.61
194.458	19.97
194.678	44.54
194.897	34.3
195.116	-2.56
195.335	40.45
195.555	30.21
195.774	-12.8
195.993	169.47
196.212	-12.8
196.432	-23.04
196.651	-72.19
196.87	46.59
197.089	204.28
197.308	-12.8
197.528	38.4
197.747	-55.81
197.966	1.54
198.185	140.8
198.404	-47.62
198.623	108.03
198.842	60.93
199.062	110.08
199.281	124.41
199.5	24.06
199.719	126.46
199.938	1.54
200.157	89.6
200.376	87.55
200.595	118.27
200.814	140.8
201.033	-16.9
201.252	155.13
201.471	24.06
201.69	-18.94
201.909	-2.56
202.128	114.17
202.347	85.5
202.566	-10.75
202.785	-53.76
203.004	-55.81
203.223	218.62
203.442	44.54
203.661	15.87
203.879	5.63
204.098	157.18
204.317	-45.57
204.536	93.69
204.755	138.75
204.974	122.37
205.193	-61.95
205.411	140.8
205.63	124.41
205.849	-14.85
206.068	60.93
206.287	17.92
206.505	151.04
206.724	13.82
206.943	-37.38
207.162	-43.52
207.381	71.17
207.599	-4.61
207.818	-4.61
208.037	54.78
208.255	93.69
208.474	56.83
208.693	50.69
208.911	9.73
209.13	58.88
209.349	7.68
209.567	83.45
209.786	75.26
210.005	58.88
210.223	9.73
210.442	-80.38
210.661	46.59
210.879	103.93
211.098	-8.7
211.316	99.84
211.535	81.41
211.753	69.12
211.972	32.26
212.191	71.17
212.409	-47.62
212.628	13.82
212.846	15.87
213.065	19.97
213.283	116.22
213.502	-6.66
213.72	15.87
213.938	87.55
214.157	46.59
214.375	103.93
214.594	34.3
214.812	124.41
215.031	17.92
215.249	34.3
215.467	24.06
215.686	60.93
215.904	89.6
216.122	9.73
216.341	120.32
216.559	79.36
216.778	138.75
216.996	87.55
217.214	15.87
217.432	-31.23
217.651	-33.28
217.869	48.64
218.087	3.58
218.306	79.36
218.524	-16.9
218.742	-31.23
218.96	91.65
219.179	26.11
219.397	-20.99
219.615	249.34
219.833	67.07
220.051	-49.66
220.27	87.55
220.488	67.07
220.706	-23.04
220.924	17.92
221.142	3.58
221.36	124.41
221.578	73.21
221.796	24.06
222.015	36.35
222.233	17.92
222.451	183.81
222.669	-8.7
222.887	73.21
223.105	-72.19
223.323	42.5
223.541	-14.85
223.759	69.12
223.977	48.64
224.195	214.52
224.413	67.07
224.631	-0.51
224.849	-8.7
225.067	181.76
225.285	-31.23
225.503	32.26
225.721	-78.33
225.939	34.3
226.157	28.16
226.375	228.86
226.592	-33.28
226.81	-27.14
227.028	99.84
227.246	30.21
227.464	95.74
227.682	71.17
227.9	50.69
228.117	19.97
228.335	85.5
228.553	38.4
228.771	11.78
228.989	34.3
229.206	-0.51
229.424	11.78
229.642	24.06
229.86	-59.9
230.077	196.09
230.295	-74.24
230.513	120.32
230.731	75.26
230.948	200.19
231.166	194.05
231.384	-25.09
231.601	-88.57
231.819	206.33
232.037	-55.81
232.254	-25.09
232.472	15.87
232.689	1.54
232.907	40.45
233.125	-51.71
233.342	-10.75
233.56	-45.57
233.777	-72.19
233.995	46.59
234.213	58.88
234.43	108.03
234.648	-2.56
234.865	-20.99
235.083	79.36
235.3	28.16
235.518	85.5
235.735	130.56
235.953	36.35
236.17	97.79
236.388	30.21
236.605	48.64
236.822	3.58
237.04	118.27
237.257	22.02
237.475	-43.52
237.692	-37.38
237.909	32.26
238.127	58.88
238.344	120.32
238.562	95.74
238.779	-20.99
238.996	-78.33
239.214	54.78
239.431	58.88
239.648	11.78
239.865	138.75
240.083	83.45
240.3	-68.09
240.517	-45.57
240.735	-31.23
240.952	128.51
241.169	95.74
241.386	128.51
241.603	-27.14
241.821	-55.81
242.038	60.93
242.255	79.36
242.472	-107.01
242.689	54.78
242.907	56.83
243.124	-14.85
243.341	15.87
243.558	7.68
243.775	-43.52
243.992	-53.76
244.209	42.5
244.426	204.28
244.643	114.17
244.86	-2.56
245.078	103.93
245.295	17.92
245.512	69.12
245.729	7.68
245.946	54.78
246.163	-35.33
246.38	40.45
246.597	1.54
246.814	58.88
247.031	54.78
247.248	24.06
247.464	73.21
247.681	50.69
247.898	120.32
248.115	54.78
248.332	-47.62
248.549	224.76
248.766	151.04
248.983	19.97
249.2	77.31
249.417	42.5
249.633	-23.04
249.85	5.63
250.067	89.6
250.284	-12.8
250.501	30.21
250.717	24.06
250.934	-88.57
251.151	62.98
251.368	126.46
251.585	-10.75
251.801	89.6
252.018	-88.57
252.235	91.65
252.451	-33.28
252.668	46.59
252.885	177.66
253.102	50.69
253.318	-2.56
253.535	13.82
253.752	-39.42
253.968	42.5
254.185	-94.72
254.401	-4.61
254.618	148.99
254.835	-2.56
255.051	48.64
255.268	62.98
255.484	89.6
255.701	-18.94
255.917	40.45
256.134	-88.57
256.351	15.87
256.567	-31.23
256.784	-39.42
257	-10.75
257.217	44.54
257.433	83.45
257.65	-10.75
257.866	105.98
258.082	-92.67
258.299	-14.85
258.515	22.02
258.732	-16.9
258.948	-41.47
259.165	30.21
259.381	-72.19
259.597	30.21
259.814	9.73
260.03	24.06
260.246	-55.81
260.463	204.28
260.679	128.51
260.895	50.69
261.112	93.69
261.328	-18.94
261.544	-20.99
261.761	161.28
261.977	-33.28
262.193	-31.23
262.409	148.99
262.626	1.54
262.842	40.45
263.058	-18.94
263.274	67.07
263.49	48.64
263.707	50.69
263.923	87.55
264.139	-49.66
264.355	71.17
264.571	81.41
264.787	79.36
265.004	79.36
265.22	93.69
265.436	-43.52
265.652	24.06
265.868	54.78
266.084	-10.75
266.3	34.3
266.516	-35.33
266.732	-43.52
266.948	36.35
267.164	-51.71
267.38	58.88
267.596	79.36
267.812	169.47
268.028	52.74
268.244	-66.05
268.46	112.13
268.676	-33.28
268.892	-2.56
269.108	-70.14
269.324	-45.57
269.54	-76.29
269.756	58.88
269.972	-100.86
270.188	19.97
270.403	-43.52
270.619	-35.33
270.835	60.93
271.051	62.98
271.267	48.64
271.483	38.4
271.698	48.64
271.914	124.41
272.13	48.64
272.346	11.78
272.562	71.17
272.777	118.27
272.993	-0.51
273.209	11.78
273.425	81.41
273.64	-51.71
273.856	42.5
274.072	-119.29
274.287	-57.86
274.503	128.51
274.719	118.27
274.934	-55.81
275.15	-23.04
275.366	-27.14
275.581	-64
275.797	52.74
276.012	42.5
276.228	-10.75
276.444	99.84
276.659	148.99
276.875	32.26
277.09	28.16
277.306	22.02
277.521	132.61
277.737	7.68
277.952	87.55
278.168	-33.28
278.383	-20.99
278.599	99.84
278.814	132.61
279.03	36.35
279.245	40.45
279.461	97.79
279.676	95.74
279.892	-88.57
280.107	-55.81
280.322	-68.09
280.538	56.83
280.753	-6.66
280.969	97.79
281.184	38.4
281.399	151.04
281.615	-2.56
281.83	40.45
282.045	-33.28
282.26	-61.95
282.476	38.4
282.691	140.8
282.906	-6.66
283.122	56.83
283.337	-2.56
283.552	48.64
283.767	-53.76
283.983	144.89
284.198	34.3
284.413	124.41
284.628	-51.71
284.843	67.07
285.058	1.54
285.274	-33.28
285.489	-53.76
285.704	50.69
285.919	-39.42
286.134	97.79
286.349	22.02
286.564	5.63
286.779	126.46
286.995	77.31
287.21	-76.29
287.425	69.12
287.64	56.83
287.855	73.21
288.07	-66.05
288.285	120.32
288.5	60.93
288.715	58.88
288.93	-14.85
289.145	-57.86
289.36	138.75
289.575	34.3
289.79	159.23
290.004	-20.99
290.219	99.84
290.434	-74.24
290.649	32.26
290.864	11.78
291.079	19.97
291.294	40.45
291.509	91.65
291.724	5.63
291.938	17.92
292.153	54.78
292.368	17.92
292.583	48.64
292.798	112.13
293.012	44.54
293.227	17.92
293.442	108.03
293.657	79.36
293.871	138.75
294.086	95.74
294.301	151.04
294.516	93.69
294.73	85.5
294.945	52.74
295.16	48.64
295.374	62.98
295.589	79.36
295.804	-6.66
296.018	17.92
296.233	89.6
296.447	65.02
296.662	-82.43
296.877	122.37
297.091	118.27
297.306	34.3
297.52	9.73
297.735	30.21
297.949	79.36
298.164	32.26
298.378	75.26
298.593	-35.33
298.807	-8.7
299.022	73.21
299.236	79.36
299.451	15.87
299.665	-27.14
299.88	50.69
300.094	50.69
300.309	52.74
300.523	-20.99
300.737	-31.23
300.952	26.11
301.166	-14.85
301.381	-18.94
301.595	-31.23
301.809	60.93
302.024	-12.8
302.238	-96.77
302.452	163.33
302.667	71.17
302.881	67.07
303.095	101.89
303.309	13.82
303.524	69.12
303.738	26.11
303.952	13.82
304.166	7.68
304.381	-84.48
304.595	165.37
304.809	22.02
305.023	32.26
305.237	13.82
305.452	9.73
305.666	157.18
305.88	81.41
306.094	60.93
306.308	132.61
306.522	105.98
306.736	-49.66
306.95	54.78
307.164	54.78
307.379	-4.61
307.593	153.09
307.807	93.69
308.021	101.89
308.235	69.12
308.449	-80.38
308.663	34.3
308.877	208.38
309.091	26.11
309.305	54.78
309.519	-129.53
309.733	167.42
309.947	-102.91
310.161	87.55
310.374	83.45
310.588	95.74
310.802	-68.09
311.016	26.11
311.23	110.08
311.444	34.3
311.658	-31.23
311.872	118.27
312.085	105.98
312.299	46.59
312.513	161.28
312.727	-2.56
312.941	-90.62
313.154	11.78
313.368	36.35
313.582	71.17
313.796	15.87
314.009	17.92
314.223	99.84
314.437	77.31
314.651	36.35
314.864	-20.99
315.078	-45.57
315.292	-8.7
315.505	42.5
315.719	30.21
315.933	73.21
316.146	-33.28
316.36	-2.56
316.573	192
316.787	42.5
317.001	81.41
317.214	-94.72
317.428	85.5
317.641	-51.71
317.855	26.11
318.068	40.45
318.282	36.35
318.495	155.13
318.709	58.88
318.922	36.35
319.136	110.08
319.349	132.61
319.563	-29.18
319.776	93.69
319.99	-70.14
320.203	85.5
320.417	73.21
320.63	138.75
320.843	128.51
321.057	13.82
321.27	-0.51
321.483	83.45
321.697	130.56
321.91	85.5
322.124	36.35
322.337	69.12
322.55	-82.43
322.763	-57.86
322.977	26.11
323.19	-6.66
323.403	44.54
323.617	22.02
323.83	99.84
324.043	126.46
324.256	40.45
324.469	7.68
324.683	122.37
324.896	-18.94
325.109	62.98
325.322	-135.68
325.535	44.54
325.748	108.03
325.962	-41.47
326.175	130.56
326.388	71.17
326.601	54.78
326.814	-0.51
327.027	19.97
327.24	136.7
327.453	-66.05
327.666	101.89
327.879	136.7
328.092	24.06
328.305	83.45
328.518	42.5
328.731	-35.33
328.944	-16.9
329.157	42.5
329.37	-0.51
329.583	216.57
329.796	165.37
330.009	-96.77
330.222	38.4
330.435	103.93
330.648	-4.61
330.861	85.5
331.073	7.68
331.286	99.84
331.499	9.73
331.712	-29.18
331.925	-4.61
332.138	48.64
332.35	91.65
332.563	-23.04
332.776	93.69
332.989	-82.43
333.202	15.87
333.414	83.45
333.627	-55.81
333.84	-33.28
334.053	-33.28
334.265	-0.51
334.478	13.82
334.691	132.61
334.903	108.03
335.116	-86.53
335.329	40.45
335.541	105.98
335.754	122.37
335.966	-20.99
336.179	44.54
336.392	17.92
336.604	48.64
336.817	116.22
337.029	60.93
337.242	79.36
337.454	54.78
337.667	-12.8
337.88	151.04
338.092	38.4
338.305	-2.56
338.517	-16.9
338.729	67.07
338.942	198.14
339.154	13.82
339.367	-0.51
339.579	56.83
339.792	-37.38
340.004	124.41
340.217	3.58
340.429	62.98
340.641	-68.09
340.854	40.45
341.066	3.58
341.278	79.36
341.491	101.89
341.703	38.4
341.915	-31.23
342.128	165.37
342.34	99.84
342.552	-41.47
342.764	118.27
342.977	-2.56
343.189	54.78
343.401	58.88
343.613	-41.47
343.826	24.06
344.038	93.69
344.25	75.26
344.462	17.92
344.674	58.88
344.886	-31.23
345.099	9.73
345.311	46.59
345.523	-72.19
345.735	-84.48
345.947	19.97
346.159	118.27
346.371	17.92
346.583	40.45
346.795	202.24
347.007	-27.14
347.219	65.02
347.431	28.16
347.643	67.07
347.855	-18.94
348.067	153.09
348.279	-53.76
348.491	67.07
348.703	124.41
348.915	-12.8
349.127	-10.75
349.339	99.84
349.551	32.26
349.763	79.36
349.975	-14.85
350.187	103.93
350.399	148.99
350.61	71.17
350.822	-72.19
351.034	69.12
351.246	34.3
351.458	112.13
351.669	85.5
351.881	112.13
352.093	52.74
352.305	81.41
352.517	58.88
352.728	105.98
352.94	26.11
353.152	95.74
353.363	-6.66
353.575	-18.94
353.787	216.57
353.999	65.02
354.21	103.93
354.422	-84.48
354.633	38.4
354.845	22.02
355.057	73.21
355.268	-14.85
355.48	54.78
355.692	93.69
355.903	44.54
356.115	-39.42
356.326	-98.81
356.538	91.65
356.749	103.93
356.961	155.13
357.172	22.02
357.384	-45.57
357.595	237.05
357.807	-78.33
358.018	38.4
358.23	60.93
358.441	130.56
358.653	17.92
358.864	75.26
359.075	-12.8
359.287	11.78
359.498	73.21
359.709	32.26
359.921	38.4
360.132	87.55
360.344	22.02
360.555	-14.85
360.766	81.41
360.977	7.68
361.189	89.6
361.4	-64
361.611	87.55
361.823	175.61
362.034	9.73
362.245	-49.66
362.456	32.26
362.667	151.04
362.879	-0.51
363.09	22.02
363.301	71.17
363.512	58.88
363.723	-33.28
363.935	1.54
364.146	138.75
364.357	-12.8
364.568	32.26
364.779	-98.81
364.99	95.74
365.201	-27.14
365.412	136.7
365.623	-74.24
365.834	77.31
366.045	46.59
366.256	91.65
366.467	185.85
366.678	-20.99
366.889	-16.9
367.1	71.17
367.311	91.65
367.522	-2.56
367.733	103.93
367.944	93.69
368.155	42.5
368.366	58.88
368.577	130.56
368.788	38.4
368.999	-61.95
369.209	52.74
369.42	206.33
369.631	228.86
369.842	122.37
370.053	-20.99
370.264	142.85
370.474	-12.8
370.685	-12.8
370.896	9.73
371.107	130.56
371.317	5.63
371.528	9.73
371.739	101.89
371.95	52.74
372.16	26.11
372.371	-16.9
372.582	60.93
372.792	24.06
373.003	-23.04
373.214	134.65
373.424	144.89
373.635	19.97
373.846	95.74
374.056	26.11
374.267	17.92
374.477	116.22
374.688	-49.66
374.898	34.3
375.109	40.45
375.319	30.21
375.53	19.97
375.74	151.04
375.951	87.55
376.161	124.41
376.372	112.13
376.582	24.06
376.793	42.5
377.003	-12.8
377.214	-25.09
377.424	67.07
377.635	58.88
377.845	3.58
378.055	142.85
378.266	-66.05
378.476	44.54
378.686	46.59
378.897	-0.51
379.107	148.99
379.317	99.84
379.528	-10.75
379.738	48.64
379.948	-80.38
380.158	169.47
380.369	-2.56
380.579	7.68
380.789	38.4
380.999	50.69
381.21	36.35
381.42	208.38
381.63	73.21
381.84	26.11
382.05	132.61
382.261	65.02
382.471	95.74
382.681	22.02
382.891	187.9
383.101	108.03
383.311	-84.48
383.521	-33.28
383.731	91.65
383.941	97.79
384.151	69.12
384.361	17.92
384.571	97.79
384.781	42.5
384.991	187.9
385.201	161.28
385.411	83.45
385.621	60.93
385.831	52.74
386.041	73.21
386.251	34.3
386.461	89.6
386.671	-12.8
386.881	-4.61
387.091	22.02
387.301	110.08
387.511	-18.94
387.72	91.65
387.93	40.45
388.14	-68.09
388.35	75.26
388.56	110.08
388.769	118.27
388.979	54.78
389.189	1.54
389.399	5.63
389.609	13.82
389.818	52.74
390.028	54.78
390.238	-27.14
390.447	26.11
390.657	13.82
390.867	3.58
391.076	-6.66
391.286	26.11
391.496	40.45
391.705	-39.42
391.915	75.26
392.125	185.85
392.334	-4.61
392.544	210.43
392.753	-2.56
392.963	-45.57
393.172	77.31
393.382	-88.57
393.591	114.17
393.801	-0.51
394.01	185.85
394.22	116.22
394.429	42.5
394.639	-14.85
394.848	116.22
395.058	87.55
395.267	-53.76
395.477	87.55
395.686	58.88
395.895	288.25
396.105	196.09
396.314	65.02
396.524	65.02
396.733	32.26
396.942	118.27
397.152	108.03
397.361	118.27
397.57	73.21
397.78	71.17
397.989	56.83
398.198	179.71
398.407	-10.75
398.617	3.58
398.826	40.45
399.035	-35.33
399.244	101.89
399.453	34.3
399.663	71.17
399.872	77.31
400.081	-27.14
400.29	52.74
400.499	-98.81
400.708	105.98
400.917	9.73
401.127	85.5
401.336	-2.56
401.545	187.9
401.754	91.65
401.963	81.41
402.172	60.93
402.381	-61.95
402.59	-6.66
402.799	99.84
403.008	67.07
403.217	81.41
403.426	36.35
403.635	-20.99
403.844	42.5
404.053	-10.75
404.262	-51.71
404.471	177.66
404.68	91.65
404.888	112.13
405.097	-0.51
405.306	91.65
405.515	118.27
405.724	9.73
405.933	130.56
406.142	114.17
406.35	159.23
406.559	13.82
406.768	13.82
406.977	155.13
407.185	71.17
407.394	54.78
407.603	-12.8
407.812	79.36
408.02	120.32
408.229	13.82
408.438	101.89
408.646	-18.94
408.855	-12.8
409.064	5.63
409.272	-18.94
409.481	79.36
409.69	62.98
409.898	-27.14
410.107	136.7
410.315	69.12
410.524	-84.48
410.733	7.68
410.941	67.07
411.15	65.02
411.358	81.41
411.567	189.95
411.775	50.69
411.984	105.98
412.192	120.32
412.401	-31.23
412.609	136.7
412.818	153.09
413.026	58.88
413.234	46.59
413.443	-57.86
413.651	-47.62
413.86	19.97
414.068	146.94
414.276	179.71
414.485	42.5
414.693	230.91
414.901	181.76
415.11	103.93
415.318	69.12
415.526	-12.8
415.734	97.79
415.943	101.89
416.151	212.48
416.359	32.26
416.567	89.6
416.776	97.79
416.984	89.6
417.192	196.09
417.4	52.74
417.608	73.21
417.817	-51.71
418.025	175.61
418.233	126.46
418.441	34.3
418.649	-10.75
418.857	7.68
419.065	220.67
419.273	69.12
419.481	19.97
419.689	65.02
419.897	-8.7
420.105	-4.61
420.313	24.06
420.521	116.22
420.729	138.75
420.937	1.54
421.145	-37.38
421.353	65.02
421.561	93.69
421.769	52.74
421.977	40.45
422.185	136.7
422.393	103.93
422.601	103.93
422.809	97.79
423.017	52.74
423.224	67.07
423.432	128.51
423.64	28.16
423.848	146.94
424.056	-10.75
424.263	163.33
424.471	30.21
424.679	157.18
424.887	-18.94
425.094	163.33
425.302	97.79
425.51	26.11
425.718	87.55
425.925	73.21
426.133	56.83
426.341	155.13
426.548	-2.56
426.756	44.54
426.964	157.18
427.171	71.17
427.379	52.74
427.586	73.21
427.794	77.31
428.001	157.18
428.209	130.56
428.417	232.96
428.624	153.09
428.832	101.89
429.039	151.04
429.247	95.74
429.454	136.7
429.662	165.37
429.869	95.74
430.076	204.28
430.284	114.17
430.491	245.24
430.699	116.22
430.906	216.57
431.114	136.7
431.321	132.61
431.528	200.19
431.736	87.55
431.943	142.85
432.15	196.09
432.358	218.62
432.565	284.16
432.772	81.41
432.979	183.81
433.187	120.32
433.394	192
433.601	171.52
433.808	241.15
434.016	210.43
434.223	153.09
434.43	269.82
434.637	230.91
434.844	247.29
435.052	226.81
435.259	255.48
435.466	290.3
435.673	243.2
435.88	261.63
436.087	226.81
436.294	337.4
436.501	380.41
436.708	212.48
436.915	290.3
437.122	439.8
437.329	316.92
437.537	226.81
437.743	333.31
437.95	515.58
438.157	464.38
438.364	394.75
438.571	388.6
438.778	447.99
438.985	558.58
439.192	523.77
439.399	456.19
439.606	552.44
439.813	587.26
440.02	579.06
440.227	722.42
440.433	716.28
440.64	632.31
440.847	548.34
441.054	615.93
441.261	738.8
441.467	798.2
441.674	699.89
441.881	695.8
442.088	699.89
442.294	843.25
442.501	880.11
442.708	890.35
442.914	787.96
443.121	849.4
443.328	976.37
443.534	1050.1
443.741	1037.81
443.948	914.93
444.154	1244.65
444.361	1205.74
444.568	1140.21
444.774	1195.5
444.981	1043.95
445.187	1302
445.394	1258.99
445.6	1381.87
445.807	1523.18
446.013	1410.54
446.22	1345
446.426	1748.45
446.633	1734.12
446.839	1834.47
447.046	1637.86
447.252	1912.29
447.459	1859.04
447.665	1877.48
447.871	2012.64
448.078	2237.92
448.284	2084.32
448.491	2291.17
448.697	2297.31
448.903	2444.76
449.11	2586.07
449.316	2508.25
449.522	2721.24
449.728	2790.87
449.935	2831.83
450.141	2866.64
450.347	3241.42
450.553	2975.19
450.76	3184.08
450.966	3233.23
451.172	3407.31
451.378	3603.91
451.584	3747.27
451.791	3876.29
451.997	4025.79
452.203	4023.75
452.409	4302.27
452.615	4623.8
452.821	4300.22
453.027	4406.72
453.233	5117.36
453.44	4703.67
453.646	5008.82
453.852	5146.03
454.058	5543.34
454.264	5766.57
454.47	5934.5
454.676	6000.04
454.882	6620.57
455.088	6294.94
455.294	6682.01
455.5	7042.45
455.705	7314.83
455.911	7308.69
456.117	7669.13
456.323	8095.11
456.529	7855.5
456.735	8723.83
456.941	8889.72
457.147	9278.83
457.352	9504.11
457.558	9807.21
457.764	10216.8
457.97	10784.09
458.176	11027.8
458.381	11666.77
458.587	11978.06
458.793	12367.17
458.999	12508.48
459.204	14157.1
459.41	14566.69
459.616	14300.45
459.821	15176.98
460.027	15846.67
460.233	16409.86
460.438	16747.78
460.644	17483
460.85	17609.97
461.055	18275.56
461.261	19360.98
461.466	18781.41
461.672	19299.55
461.878	21370.04
462.083	21396.67
462.289	21167.29
462.494	22584.49
462.7	22729.89
462.905	22987.94
463.111	24833.16
463.316	26188.91
463.522	26496.11
463.727	27630.68
463.932	28585.04
464.138	29269.06
464.343	30387.25
464.549	30643.24
464.754	32828.43
464.959	33860.6
465.165	34345.97
465.37	33940.47
465.575	34296.82
465.781	36074.46
465.986	37624.77
466.191	36471.76
466.397	37157.83
466.602	36244.44
466.807	38335.42
467.012	39236.52
467.218	39660.45
467.423	39865.25
467.628	40940.43
467.833	42754.93
468.038	42167.16
468.244	41472.9
468.449	43461.48
468.654	42072.96
468.859	42552.18
469.064	42394.49
469.269	41636.74
469.474	41763.71
469.679	43191.15
469.885	41816.96
470.09	42826.61
470.295	42969.97
470.5	41999.23
470.705	42472.31
470.91	40911.76
471.115	40604.56
471.32	41356.17
471.525	41186.19
471.73	39654.31
471.935	39492.52
472.139	38128.57
472.344	38235.06
472.549	38020.03
472.754	37266.38
472.959	36326.36
473.164	35359.72
473.369	34692.08
473.574	35740.64
473.778	34872.3
473.983	34296.82
474.188	33840.12
474.393	32281.62
474.598	32168.98
474.802	31337.51
475.007	30788.65
475.212	30671.92
475.417	29342.78
475.621	29180.99
475.826	29047.88
476.031	28574.8
476.235	27622.49
476.44	27661.4
476.645	27077.73
476.849	26698.86
477.054	26127.47
477.259	25713.78
477.463	25554.04
477.668	24747.14
477.872	24933.51
478.077	24243.34
478.282	23571.61
478.486	23469.21
478.691	23020.7
478.895	23035.04
479.1	22740.13
479.304	22721.7
479.509	21832.88
479.713	22131.89
479.918	21609.65
480.122	21144.77
480.326	21501.11
480.531	21359.8
480.735	21075.13
480.94	20767.94
481.144	21365.95
481.348	19973.33
481.553	20389.06
481.757	19915.98
481.961	19846.35
482.166	20067.53
482.37	20012.24
482.574	19496.15
482.778	19416.28
482.983	19694.8
483.187	19160.28
483.391	19461.34
483.595	18705.63
483.8	18650.34
484.004	18658.53
484.208	18658.53
484.412	18326.76
484.616	18183.4
484.821	17960.17
485.025	17405.17
485.229	17493.24
485.433	17231.1
485.637	17288.44
485.841	16991.48
486.045	16770.3
486.249	16549.12
486.453	16190.73
486.657	15969.55
486.861	15721.74
487.065	15467.8
487.269	15547.67
487.473	14753.05
487.677	14892.32
487.881	14826.78
488.085	14296.36
488.289	14130.47
488.493	13747.5
488.697	13860.14
488.901	13499.7
489.105	13305.14
489.309	12873.02
489.512	12918.07
489.716	12590.4
489.92	12309.83
490.124	12053.83
490.328	12117.32
490.531	11783.5
490.735	11689.29
490.939	11580.75
491.143	11171.16
491.346	11183.45
491.55	10896.73
491.754	10614.11
491.958	10524
492.161	10390.88
492.365	10351.97
492.569	9891.18
492.772	9909.61
492.976	9893.23
493.18	9639.28
493.383	9502.06
493.587	9444.72
493.79	9559.41
493.994	8967.54
494.197	9092.47
494.401	9135.48
494.605	8942.97
494.808	8910.2
495.012	8664.44
495.215	8686.97
495.419	8646.01
495.622	8600.96
495.825	8654.2
496.029	8408.45
496.232	8699.26
496.436	8328.58
496.639	8459.65
496.843	8297.86
497.046	8377.73
497.249	8496.51
497.453	8596.86
497.656	8420.74
497.859	8326.53
498.063	8336.77
498.266	8613.24
498.469	8187.27
498.673	8463.74
498.876	8476.03
499.079	8400.26
499.282	8396.16
499.485	8867.19
499.689	8533.37
499.892	8721.79
500.095	8686.97
500.298	8904.06
500.501	8721.79
500.705	9016.69
500.908	9028.98
501.111	9284.98
501.314	9358.71
501.517	9405.81
501.72	9446.77
501.923	9311.6
502.126	9477.49
502.329	9684.33
502.532	9756.01
502.735	9794.92
502.938	10116.45
503.141	10073.45
503.344	10351.97
503.547	10454.37
503.75	10282.34
503.953	10433.89
504.156	10921.31
504.359	10642.78
504.562	10773.85
504.765	11435.35
504.968	11191.64
505.17	11603.28
505.373	11615.57
505.576	12012.87
505.779	12207.43
505.982	12223.81
506.185	12535.1
506.387	12576.06
506.59	12893.5
506.793	13241.65
506.996	13161.78
507.198	13661.49
507.401	13579.57
507.604	14206.25
507.807	14288.17
508.009	14576.93
508.212	14810.4
508.415	15248.66
508.617	15400.21
508.82	15613.2
509.022	15738.13
509.225	16612.61
509.428	16635.14
509.63	17102.08
509.833	17591.54
510.035	17958.13
510.238	18101.48
510.44	18369.77
510.643	19117.28
510.845	19559.64
511.048	19766.48
511.25	20020.43
511.453	20489.42
511.655	21527.74
511.858	21697.72
512.06	22013.1
512.262	22568.1
512.465	22609.06
512.667	23565.46
512.87	24011.92
513.072	24515.72
513.274	25410.68
513.477	25844.85
513.679	26152.05
513.881	27032.68
514.084	27249.76
514.286	27982.93
514.488	28251.22
514.69	29402.18
514.893	29770.81
515.095	30446.64
515.297	30995.5
515.499	31499.3
515.701	31777.82
515.904	33133.57
516.106	33219.59
516.308	34024.44
516.51	34929.64
516.712	35208.17
516.914	36023.26
517.116	37243.85
517.318	37430.21
517.52	38226.87
517.722	38673.33
517.925	39490.47
518.127	40459.16
518.329	40944.53
518.531	40803.22
518.733	42771.32
518.935	43023.22
519.136	43109.23
519.338	44268.38
519.54	44389.21
519.742	45722.44
519.944	45841.22
520.146	46914.36
520.348	47401.77
520.55	48206.62
520.752	48034.6
520.954	49310.48
521.155	49298.19
521.357	50244.35
521.559	50436.86
521.761	51751.66
521.963	51641.07
522.164	52148.96
522.366	52536.03
522.568	52849.37
522.77	53338.83
522.971	54055.62
523.173	53410.51
523.375	54166.21
523.576	54094.53
523.778	54405.83
523.98	55001.78
524.181	55327.41
524.383	55360.18
524.584	56279.72
524.786	55894.7
524.988	55186.1
525.189	55847.6
525.391	56197.8
525.592	56070.82
525.794	56306.34
525.995	56228.52
526.197	55689.9
526.398	55820.97
526.6	56111.78
526.801	55786.16
527.003	55483.06
527.204	54913.72
527.406	55466.67
527.607	54938.3
527.808	55075.51
528.01	54188.74
528.211	54213.32
528.412	54495.94
528.614	54139.59
528.815	53185.24
529.016	53406.42
529.218	52615.9
529.419	52394.72
529.62	51872.49
529.822	51419.89
530.023	50785.02
530.224	50303.74
530.425	50182.91
530.626	49130.26
530.828	48446.24
531.029	48970.52
531.23	47940.39
531.431	46828.34
531.632	47219.5
531.833	46525.24
532.035	46205.76
532.236	45601.61
532.437	45194.06
532.638	44135.26
532.839	44106.59
533.04	43567.98
533.241	42376.06
533.442	42271.61
533.643	41640.84
533.844	40938.38
534.045	40868.75
534.246	39789.47
534.447	39138.22
534.648	38886.32
534.849	38276.02
535.05	37968.83
535.251	37458.88
535.451	36658.13
535.652	36361.17
535.853	36223.96
536.054	35797.98
536.255	34984.94
536.456	34059.26
536.657	34540.53
536.857	33852.41
537.058	32869.39
537.259	32840.71
537.46	32412.69
537.66	31704.09
537.861	31605.79
538.062	30925.86
538.263	30702.64
538.463	29877.3
538.664	29746.23
538.865	29180.99
539.065	29383.74
539.266	28683.34
539.466	28460.11
539.667	27796.57
539.868	27952.21
540.068	27522.14
540.269	27329.63
540.469	26702.95
540.67	26188.91
540.87	26111.09
541.071	25519.23
541.271	25654.39
541.472	25304.19
541.672	24855.68
541.873	24763.53
542.073	23993.49
542.274	24392.84
542.474	23682.2
542.675	23401.63
542.875	23276.7
543.075	22963.36
543.276	22367.4
543.476	22742.18
543.676	22131.89
543.877	21978.29
544.077	21816.5
544.277	21494.97
544.478	21066.94
544.678	21288.12
544.878	20776.13
545.078	20778.18
545.279	20106.45
545.479	19872.98
545.679	19860.69
545.879	19590.36
546.079	19528.92
546.28	19334.36
546.48	18832.61
546.68	18654.44
546.88	18443.49
547.08	18306.28
547.28	17870.06
547.48	17665.27
547.68	17609.97
547.88	17288.44
548.081	17329.4
548.281	16993.53
548.481	16999.68
548.681	16628.99
548.881	16303.37
549.081	16098.57
549.28	15793.42
549.48	15926.54
549.68	15465.75
549.88	15531.28
550.08	14699.81
550.28	14871.84
550.48	14853.41
550.68	14589.22
550.88	14406.95
551.08	14124.33
551.279	13831.47
551.479	13579.57
551.679	13798.7
551.879	13253.94
552.079	13260.09
552.278	12619.07
552.478	12807.48
552.678	12635.46
552.878	12598.59
553.077	12113.22
553.277	11840.84
553.477	11969.87
553.676	11601.23
553.876	11322.71
554.076	11136.34
554.275	11044.18
554.475	10823
554.674	10718.56
554.874	10706.27
555.074	10384.74
555.273	10138.98
555.473	10095.97
555.672	9858.41
555.872	9852.27
556.071	9559.41
556.271	9547.12
556.47	9344.37
556.67	8803.71
556.869	8953.21
557.068	8936.82
557.268	8650.11
557.467	8646.01
557.667	8439.17
557.866	8281.47
558.065	7994.76
558.265	7943.56
558.464	7863.69
558.663	7792.01
558.863	7562.64
559.062	7523.73
559.261	7284.11
559.461	7398.8
559.66	7226.77
559.859	7034.26
560.058	6753.69
560.258	6682.01
560.457	6751.64
560.656	6657.43
560.855	6473.12
561.054	6663.58
561.253	6344.1
561.453	6292.9
561.652	6198.69
561.851	6020.52
562.05	5774.76
562.249	5705.13
562.448	5856.68
562.647	5670.31
562.846	5498.28
563.045	5580.2
563.244	5359.02
563.443	5430.7
563.642	5127.6
563.841	5201.33
564.04	5139.89
564.239	5086.64
564.438	4887.99
564.637	4867.51
564.836	4668.86
565.035	4898.23
565.234	4748.73
565.432	4634.04
565.631	4670.9
565.83	4564.41
566.029	4326.85
566.228	4388.29
566.427	4353.47
566.625	4158.91
566.824	4167.1
567.023	4175.3
567.222	4113.86
567.42	4009.41
567.619	4054.47
567.818	3921.35
568.016	4048.32
568.215	3728.84
568.414	3808.71
568.612	3720.65
568.811	3589.58
569.01	3565
569.208	3495.37
569.407	3515.85
569.605	3356.11
569.804	3399.12
570.002	3272.14
570.201	3302.86
570.4	3196.37
570.598	3145.17
570.797	3151.31
570.995	3182.03
571.193	3089.87
571.392	3126.74
571.59	2878.93
571.789	2940.37
571.987	3001.81
572.186	2913.75
572.384	2776.53
572.582	2797.01
572.781	2827.73
572.979	2526.68
573.177	2563.54
573.376	2592.22
573.574	2639.32
573.772	2536.92
573.971	2586.07
574.169	2405.85
574.367	2553.31
574.565	2371.04
574.763	2422.24
574.962	2305.5
575.16	2229.73
575.358	2209.25
575.556	2090.46
575.754	2219.49
575.952	2053.6
576.151	2141.66
576.349	2143.71
576.547	1992.16
576.745	1965.54
576.943	2090.46
577.141	1889.76
577.339	1865.19
577.537	1897.96
577.735	1916.39
577.933	1918.43
578.131	1725.93
578.329	1953.25
578.527	1637.86
578.725	1730.02
578.923	1603.05
579.121	1867.24
579.319	1469.93
579.516	1574.38
579.714	1811.94
579.912	1582.57
580.11	1512.94
580.308	1502.7
580.506	1502.7
580.704	1355.24
580.901	1420.78
581.099	1498.6
581.297	1494.51
581.495	1326.57
581.692	1388.01
581.89	1349.1
582.088	1293.8
582.285	1316.33
582.483	1281.52
582.681	1291.76
582.878	1242.61
583.076	1258.99
583.274	1187.31
583.471	1351.15
583.669	1181.17
583.866	1072.62
584.064	1105.39
584.262	1037.81
584.459	1035.76
584.657	1058.29
584.854	1222.13
585.052	1052.14
585.249	1019.38
585.447	1052.14
585.644	992.75
585.841	1078.77
586.039	1019.38
586.236	1033.71
586.434	1033.71
586.631	931.31
586.828	908.79
587.026	986.61
587.223	863.73
587.42	896.5
587.618	914.93
587.815	933.36
588.012	769.52
588.21	894.45
588.407	957.94
588.604	896.5
588.801	910.83
588.999	798.2
589.196	884.21
589.393	738.8
589.59	812.53
589.787	904.69
589.984	738.8
590.182	867.83
590.379	759.28
590.576	734.71
590.773	777.72
590.97	808.44
591.167	839.16
591.364	818.68
591.561	722.42
591.758	861.68
591.955	775.67
592.152	753.14
592.349	779.76
592.546	728.56
592.743	710.13
592.94	638.45
593.137	642.55
593.334	751.09
593.531	828.92
593.727	744.95
593.924	839.16
594.121	695.8
594.318	736.76
594.515	767.48
594.712	833.01
594.908	902.64
595.105	671.22
595.302	808.44
595.499	806.39
595.696	886.26
595.892	693.75
596.089	900.59
596.286	794.1
596.482	933.36
596.679	906.74
596.876	837.11
597.072	943.6
597.269	898.55
597.466	1015.28
597.662	1005.04
597.859	1033.71
598.055	986.61
598.252	1164.78
598.448	1148.4
598.645	1250.8
598.841	1326.57
599.038	1388.01
599.234	1318.38
599.431	1314.28
599.627	1353.2
599.824	1428.97
600.02	1408.49
600.217	1496.55
600.413	1580.52
600.609	1699.3
600.806	2004.45
601.002	1766.89
601.198	1801.7
601.395	2010.59
601.591	2135.52
601.787	2088.42
601.984	2272.73
602.18	2311.64
602.376	2295.26
602.572	2420.19
602.769	2655.7
602.965	2604.5
603.161	2762.2
603.357	2852.31
603.553	2885.08
603.75	2964.95
603.946	2979.28
604.142	3206.61
604.338	3413.45
604.534	3368.4
604.73	3483.08
604.926	3579.34
605.122	3849.67
605.318	3843.53
605.514	3995.08
605.71	4072.9
605.906	4218.3
606.102	4371.9
606.298	4666.81
606.494	4752.82
606.69	4820.41
606.886	5064.11
607.082	4937.14
607.278	5127.6
607.474	5289.39
607.67	5547.44
607.866	5551.53
608.062	5825.96
608.257	6016.42
608.453	6041
608.649	6346.14
608.845	6440.35
609.041	6598.04
609.236	6851.99
609.432	7134.61
609.628	7329.17
609.824	7486.86
610.019	7499.15
610.215	7808.39
610.411	7976.33
610.606	8228.23
610.802	8365.44
610.998	8568.19
611.193	8963.45
611.389	9006.45
611.584	9336.18
611.78	9301.36
611.976	9729.39
612.171	10374.5
612.367	10358.11
612.562	10415.46
612.758	10757.47
612.953	10972.5
613.149	11543.89
613.344	11773.26
613.539	12033.35
613.735	12211.53
613.93	12651.84
614.126	12729.66
614.321	13456.69
614.517	13413.68
614.712	14021.93
614.907	14241.06
615.103	14738.72
615.298	15076.63
615.493	15402.26
615.688	15584.53
615.884	16250.12
616.079	16289.03
616.274	17083.64
616.47	17439.99
616.665	17749.23
616.86	18244.84
617.055	18697.44
617.25	19156.19
617.445	19707.09
617.641	19891.41
617.836	20655.3
618.031	20808.9
618.226	21738.68
618.421	22299.82
618.616	22529.19
618.811	22838.44
619.006	23743.64
619.201	23964.82
619.396	24915.08
619.591	24919.17
619.786	25965.68
619.981	25732.22
620.176	26954.85
620.371	27264.1
620.566	27890.77
620.761	28236.88
620.956	28951.62
621.151	29262.91
621.346	30503.98
621.541	30430.26
621.735	31415.33
621.93	31546.4
622.125	32400.4
622.32	32572.43
622.515	33500.16
622.709	33872.89
622.904	34730.99
623.099	35310.57
623.294	36002.78
623.488	36152.28
623.683	37438.4
623.878	37159.88
624.072	38353.85
624.267	39115.69
624.462	39359.4
624.656	39981.98
624.851	40895.38
625.046	40856.46
625.24	41589.64
625.435	42122.11
625.629	42937.2
625.824	43420.52
626.018	44041.06
626.213	43645.8
626.407	45304.65
626.602	44362.59
626.796	45560.65
626.991	45888.32
627.185	46551.87
627.38	46615.35
627.574	46676.79
627.768	46684.98
627.963	47047.47
628.157	46934.84
628.352	47799.08
628.546	47377.2
628.74	48091.94
628.935	47948.58
629.129	47571.75
629.323	47242.03
629.517	47076.15
629.712	47293.23
629.906	46869.3
630.1	45574.98
630.294	46097.22
630.489	44899.15
630.683	44841.81
630.877	43725.67
631.071	43340.65
631.265	42890.1
631.459	41622.4
631.653	40835.98
631.848	39971.74
632.042	39431.08
632.236	38491.06
632.43	37241.8
632.624	36420.56
632.818	34917.36
633.012	34073.59
633.206	33414.15
633.4	31767.58
633.594	30469.17
633.788	30065.72
633.982	29125.7
634.176	28288.08
634.369	26723.43
634.563	25990.26
634.757	25040
634.951	24267.92
635.145	23319.71
635.339	22146.22
635.533	21363.9
635.726	20593.86
635.92	19457.24
636.114	18832.61
636.308	18246.89
636.501	17392.89
636.695	16710.91
636.889	15887.63
637.083	15379.73
637.276	14671.14
637.47	13956.4
637.664	13391.16
637.857	12946.75
638.051	12369.22
638.244	11967.82
638.438	11298.13
638.632	11074.9
638.825	10464.61
639.019	10274.15
639.212	9549.17
639.406	9258.35
639.599	8815.99
639.793	8576.38
639.986	8220.03
640.18	7951.75
640.373	7753.1
640.567	7382.42
640.76	7173.52
640.954	6948.25
641.147	6622.62
641.34	6213.03
641.534	6122.91
641.727	5914.02
641.92	5490.09
642.114	5449.13
642.307	5203.38
642.5	5021.11
642.694	4681.14
642.887	4627.9
643.08	4564.41
643.273	4265.41
643.467	4074.95
643.66	3993.03
643.853	3777.99
644.046	3487.18
644.239	3519.95
644.432	3298.77
644.626	3143.12
644.819	3112.4
645.012	2950.61
645.205	3055.06
645.398	2803.16
645.591	2670.04
645.784	2491.87
645.977	2360.8
646.17	2477.53
646.363	2258.4
646.556	2108.9
646.749	2115.04
646.942	2037.22
647.135	2092.51
647.328	1748.45
647.521	1887.72
647.714	1670.63
647.907	1641.96
648.099	1504.75
648.292	1623.53
648.485	1474.03
648.678	1439.21
648.871	1447.4
649.064	1285.61
649.256	1250.8
649.449	1238.51
649.642	1035.76
649.835	1160.69
650.027	1050.1
650.22	990.7
650.413	1005.04
650.605	1064.43
650.798	980.47
650.991	853.49
651.183	820.72
651.376	859.63
651.568	839.16
651.761	824.82
651.954	814.58
652.146	757.24
652.339	785.91
652.531	744.95
652.724	658.93
652.916	644.6
653.109	540.15
653.301	683.51
653.494	667.13
653.686	642.55
653.879	675.32
654.071	523.77
654.263	534.01
654.456	550.39
654.648	611.83
654.84	564.73
655.033	519.67
655.225	505.34
655.417	331.26
655.61	562.68
655.802	542.2
655.994	482.81
656.186	300.54
656.379	517.62
656.571	370.17
656.763	392.7
656.955	329.21
657.148	376.31
657.34	450.04
657.532	351.74
657.724	296.44
657.916	282.11
658.108	357.88
658.3	376.31
658.492	361.98
658.684	247.29
658.876	329.21
659.068	200.19
659.26	181.76
659.452	226.81
659.644	337.4
659.836	349.69
660.028	263.68
660.22	202.24
660.412	294.4
660.604	257.53
660.796	226.81
660.988	261.63
661.18	220.67
661.372	273.92
661.563	245.24
661.755	271.87
661.947	148.99
662.139	208.38
662.331	304.64
662.522	269.82
662.714	124.41
662.906	114.17
663.097	294.4
663.289	183.81
663.481	140.8
663.673	161.28
663.864	126.46
664.056	181.76
664.247	85.5
664.439	251.39
664.631	151.04
664.822	181.76
665.014	148.99
665.205	183.81
665.397	140.8
665.588	155.13
665.78	173.57
665.971	331.26
666.163	202.24
666.354	273.92
666.546	175.61
666.737	120.32
666.929	67.07
667.12	124.41
667.311	151.04
667.503	171.52
667.694	165.37
667.885	222.72
668.077	175.61
668.268	85.5
668.459	185.85
668.651	214.52
668.842	151.04
669.033	105.98
669.224	22.02
669.416	347.64
669.607	93.69
669.798	71.17
669.989	144.89
670.18	93.69
670.371	142.85
670.563	144.89
670.754	232.96
670.945	95.74
671.136	132.61
671.327	97.79
671.518	290.3
671.709	280.06
671.9	222.72
672.091	273.92
672.282	124.41
672.473	167.42
672.664	71.17
672.855	210.43
673.046	216.57
673.237	286.2
673.428	181.76
673.619	204.28
673.809	138.75
674	314.88
674.191	183.81
674.382	60.93
674.573	91.65
674.764	112.13
674.954	179.71
675.145	103.93
675.336	114.17
675.527	161.28
675.717	93.69
675.908	48.64
676.099	120.32
676.289	101.89
676.48	85.5
676.671	142.85
676.861	161.28
677.052	140.8
677.243	118.27
677.433	142.85
677.624	198.14
677.814	165.37
678.005	151.04
678.195	253.44
678.386	91.65
678.576	202.24
678.767	155.13
678.957	138.75
679.148	198.14
679.338	251.39
679.529	210.43
679.719	132.61
679.909	206.33
680.1	228.86
680.29	275.96
680.481	181.76
680.671	206.33
680.861	204.28
681.052	192
681.242	151.04
681.432	288.25
681.622	200.19
681.813	153.09
682.003	161.28
682.193	116.22
682.383	239.1
682.573	185.85
682.764	181.76
682.954	253.44
683.144	265.72
683.334	146.94
683.524	249.34
683.714	284.16
683.904	292.35
684.094	222.72
684.284	167.42
684.474	321.02
684.664	298.49
684.854	251.39
685.044	187.9
685.234	194.05
685.424	202.24
685.614	185.85
685.804	318.97
685.994	241.15
686.184	241.15
686.374	192
686.564	222.72
686.753	208.38
686.943	198.14
687.133	187.9
687.323	187.9
687.513	271.87
687.702	232.96
687.892	212.48
688.082	280.06
688.272	339.45
688.461	249.34
688.651	366.07
688.841	298.49
689.03	259.58
689.22	167.42
689.41	167.42
689.599	232.96
689.789	165.37
689.979	288.25
690.168	185.85
690.358	286.2
690.547	200.19
690.737	308.73
690.926	294.4
691.116	290.3
691.305	269.82
691.495	298.49
691.684	214.52
691.874	181.76
692.063	222.72
692.252	323.07
692.442	208.38
692.631	146.94
692.82	179.71
693.01	224.76
693.199	153.09
693.388	263.68
693.578	157.18
693.767	263.68
693.956	259.58
694.146	204.28
694.335	271.87
694.524	146.94
694.713	263.68
694.902	171.52
695.092	202.24
695.281	257.53
695.47	163.33
695.659	181.76
695.848	167.42
696.037	202.24
696.226	284.16
696.415	200.19
696.604	370.17
696.793	251.39
696.982	155.13
697.171	321.02
697.36	230.91
697.549	251.39
697.738	124.41
697.927	155.13
698.116	126.46
698.305	251.39
698.494	177.66
698.683	204.28
698.872	345.59
699.061	134.65
699.25	198.14
699.438	185.85
699.627	114.17
699.816	206.33
700.005	108.03
700.193	38.4
700.382	329.21
700.571	257.53
700.76	187.9
700.948	257.53
701.137	138.75
701.326	181.76
701.514	173.57
701.703	275.96
701.892	118.27
702.08	402.94
702.269	181.76
702.457	144.89
702.646	220.67
702.834	171.52
703.023	288.25
703.212	187.9
703.4	255.48
703.589	122.37
703.777	142.85
703.965	155.13
704.154	153.09
704.342	181.76
704.531	159.23
704.719	189.95
704.907	304.64
705.096	142.85
705.284	122.37
705.472	206.33
705.661	226.81
705.849	263.68
706.037	263.68
706.226	208.38
706.414	204.28
706.602	136.7
706.79	204.28
706.979	204.28
707.167	192
707.355	69.12
707.543	247.29
707.731	267.77
707.919	210.43
708.107	181.76
708.296	155.13
708.484	89.6
708.672	208.38
708.86	249.34
709.048	148.99
709.236	126.46
709.424	153.09
709.612	247.29
709.8	65.02
709.988	179.71
710.176	181.76
710.364	255.48
710.551	148.99
710.739	126.46
710.927	144.89
711.115	175.61
711.303	177.66
711.491	267.77
711.679	105.98
711.866	288.25
712.054	171.52
712.242	220.67
712.43	298.49
712.617	232.96
712.805	232.96
712.993	138.75
713.181	97.79
713.368	280.06
713.556	118.27
713.744	206.33
713.931	357.88
714.119	187.9
714.306	146.94
714.494	169.47
714.682	198.14
714.869	91.65
715.057	169.47
715.244	140.8
715.432	175.61
715.619	153.09
715.807	122.37
715.994	101.89
716.182	153.09
716.369	269.82
716.556	288.25
716.744	75.26
716.931	173.57
717.119	151.04
717.306	171.52
717.493	241.15
717.681	224.76
717.868	204.28
718.055	235
718.242	124.41
718.43	200.19
718.617	275.96
718.804	163.33
718.991	321.02
719.179	210.43
719.366	187.9
719.553	243.2
719.74	144.89
719.927	263.68
720.114	333.31
720.301	124.41
720.488	9.73
720.676	153.09
720.863	267.77
721.05	402.94
721.237	247.29
721.424	292.35
721.611	206.33
721.798	110.08
721.985	245.24
722.172	144.89
722.358	261.63
722.545	267.77
722.732	241.15
722.919	230.91
723.106	286.2
723.293	228.86
723.48	288.25
723.667	126.46
723.853	228.86
724.04	253.44
724.227	261.63
724.414	179.71
724.6	249.34
724.787	275.96
724.974	351.74
725.161	192
725.347	159.23
725.534	249.34
725.72	310.78
725.907	361.98
726.094	327.16
726.28	157.18
726.467	263.68
726.653	183.81
726.84	400.89
727.027	423.42
727.213	275.96
727.4	214.52
727.586	267.77
727.773	232.96
727.959	255.48
728.145	247.29
728.332	226.81
728.518	198.14
728.705	312.83
728.891	218.62
729.077	169.47
729.264	192
729.45	212.48
729.636	290.3
729.823	247.29
730.009	241.15
730.195	249.34
730.382	292.35
730.568	165.37
730.754	185.85
730.94	226.81
731.126	169.47
731.313	298.49
731.499	206.33
731.685	259.58
731.871	251.39
732.057	187.9
732.243	335.35
732.429	259.58
732.615	331.26
732.801	378.36
732.987	228.86
733.173	280.06
733.359	243.2
733.545	321.02
733.731	153.09
733.917	333.31
734.103	288.25
734.289	347.64
734.475	224.76
734.661	411.13
734.847	255.48
735.033	214.52
735.219	288.25
735.404	261.63
735.59	200.19
735.776	249.34
735.962	304.64
736.148	275.96
736.333	255.48
736.519	304.64
736.705	208.38
736.89	306.68
737.076	312.83
737.262	155.13
737.447	267.77
737.633	200.19
737.819	347.64
738.004	278.01
738.19	253.44
738.375	325.12
738.561	300.54
738.747	278.01
738.932	216.57
739.118	433.66
739.303	310.78
739.489	366.07
739.674	265.72
739.859	232.96
740.045	321.02
740.23	284.16
740.416	167.42
740.601	232.96
740.786	325.12
740.972	165.37
741.157	183.81
741.342	222.72
741.528	153.09
741.713	302.59
741.898	239.1
742.084	333.31
742.269	302.59
742.454	275.96
742.639	329.21
742.824	284.16
743.01	292.35
743.195	298.49
743.38	298.49
743.565	226.81
743.75	282.11
743.935	329.21
744.12	370.17
744.305	212.48
744.49	165.37
744.675	212.48
744.86	239.1
745.045	261.63
745.23	345.59
745.415	316.92
745.6	316.92
745.785	165.37
745.97	251.39
746.155	298.49
746.34	237.05
746.525	183.81
746.71	331.26
746.895	163.33
747.079	192
747.264	212.48
747.449	255.48
747.634	235
747.819	237.05
748.003	214.52
748.188	232.96
748.373	290.3
748.557	241.15
748.742	155.13
748.927	232.96
749.111	73.21
749.296	273.92
749.481	288.25
749.665	269.82
749.85	194.05
750.034	255.48
750.219	347.64
750.404	181.76
750.588	214.52
750.773	118.27
750.957	175.61
751.141	284.16
751.326	269.82
751.51	161.28
751.695	198.14
751.879	187.9
752.064	271.87
752.248	200.19
752.432	382.46
752.617	194.05
752.801	271.87
752.985	245.24
753.17	280.06
753.354	235
753.538	216.57
753.722	198.14
753.907	189.95
754.091	153.09
754.275	212.48
754.459	52.74
754.643	187.9
754.828	208.38
755.012	241.15
755.196	36.35
755.38	222.72
755.564	163.33
755.748	110.08
755.932	144.89
756.116	273.92
756.3	196.09
756.484	79.36
756.668	173.57
756.852	28.16
757.036	108.03
757.22	177.66
757.404	73.21
757.588	132.61
757.772	118.27
757.956	118.27
758.14	294.4
758.323	153.09
758.507	140.8
758.691	91.65
758.875	187.9
759.059	230.91
759.242	65.02
759.426	58.88
759.61	95.74
759.794	48.64
759.977	189.95
760.161	314.88
760.345	179.71
760.528	136.7
760.712	192
760.895	181.76
761.079	159.23
761.263	-6.66
761.446	114.17
761.63	99.84
761.813	296.44
761.997	108.03
762.18	103.93
762.364	183.81
762.547	-14.85
762.731	153.09
762.914	62.98
763.098	161.28
763.281	91.65
763.464	105.98
763.648	83.45
763.831	99.84
764.015	15.87
764.198	226.81
764.381	85.5
764.564	101.89
764.748	136.7
764.931	75.26
765.114	105.98
765.297	112.13
765.481	22.02
765.664	81.41
765.847	52.74
766.03	183.81
766.213	-18.94
766.397	110.08
766.58	30.21
766.763	177.66
766.946	148.99
767.129	75.26
767.312	-74.24
767.495	130.56
767.678	60.93
767.861	169.47
768.044	118.27
768.227	32.26
768.41	105.98
768.593	134.65
768.776	114.17
768.959	15.87
769.142	144.89
769.324	22.02
769.507	73.21
769.69	44.54
769.873	62.98
770.056	255.48
770.239	75.26
770.421	122.37
770.604	142.85
770.787	58.88
770.97	91.65
771.152	-12.8
771.335	112.13
771.518	5.63
771.7	148.99
771.883	200.19
772.066	26.11
772.248	132.61
772.431	134.65
772.613	151.04
772.796	103.93
772.978	101.89
773.161	126.46
773.343	24.06
773.526	13.82
773.708	69.12
773.891	-82.43
774.073	-35.33
774.256	19.97
774.438	187.9
774.621	38.4
774.803	132.61
774.985	79.36
775.168	108.03
775.35	110.08
775.532	108.03
775.715	-0.51
775.897	103.93
776.079	81.41
776.261	93.69
776.444	65.02
776.626	73.21
776.808	1.54
776.99	-6.66
777.173	32.26
777.355	105.98
777.537	105.98
777.719	93.69
777.901	52.74
778.083	1.54
778.265	-43.52
778.447	101.89
778.629	-10.75
778.811	65.02
778.993	95.74
779.175	134.65
779.357	-8.7
779.539	-49.66
779.721	81.41
779.903	128.51
780.085	-31.23
780.267	91.65
780.449	56.83
780.631	40.45
780.812	118.27
780.994	-18.94
781.176	9.73
781.358	75.26
781.54	-2.56
781.721	56.83
781.903	105.98
782.085	30.21
782.267	83.45
782.448	-29.18
782.63	-29.18
782.812	26.11
782.993	93.69
783.175	134.65
783.357	-37.38
783.538	91.65
783.72	-39.42
783.901	81.41
784.083	48.64
784.264	-25.09
784.446	-90.62
784.627	-37.38
784.809	87.55
784.99	85.5
785.172	5.63
785.353	40.45
785.535	28.16
785.716	22.02
785.897	9.73
786.079	9.73
786.26	132.61
786.441	93.69
786.623	-86.53
786.804	-49.66
786.985	42.5
787.167	93.69
787.348	22.02
787.529	13.82
787.71	151.04
787.891	54.78
788.073	-29.18
788.254	-57.86
788.435	142.85
788.616	-2.56
788.797	-57.86
788.978	-8.7
789.159	-18.94
789.34	50.69
789.522	22.02
789.703	-27.14
789.884	32.26
790.065	52.74
790.246	159.23
790.427	-59.9
790.607	120.32
790.788	110.08
790.969	58.88
791.15	69.12
791.331	34.3
791.512	50.69
791.693	-51.71
791.874	-59.9
792.054	105.98
792.235	60.93
792.416	-23.04
792.597	-37.38
792.778	134.65
792.958	44.54
793.139	60.93
793.32	26.11
793.5	-35.33
793.681	95.74
793.862	93.69
794.042	52.74
794.223	-14.85
794.404	-82.43
794.584	-176.64
794.765	-76.29
794.945	40.45
795.126	65.02
795.306	38.4
795.487	24.06
795.667	-41.47
795.848	40.45
796.028	11.78
796.209	48.64
796.389	95.74
796.57	15.87
796.75	-2.56
796.93	-59.9
797.111	-64
797.291	-35.33
797.471	60.93
797.652	-39.42
797.832	-82.43
798.012	42.5
798.192	-51.71
798.373	-111.1
798.553	-10.75
798.733	56.83
798.913	-39.42
799.093	-39.42
799.274	-68.09
799.454	-20.99
799.634	-6.66
799.814	11.78
799.994	81.41
800.174	112.13
800.354	-23.04
800.534	-166.4
800.714	99.84
800.894	-49.66
801.074	-8.7
801.254	-68.09
801.434	67.07
801.614	48.64
801.794	-16.9
801.974	1689.06
802.154	-78.33
802.334	95.74
802.514	-96.77
802.693	-2.56
802.873	-61.95
803.053	91.65
803.233	103.93
803.413	44.54
803.592	5.63
803.772	-37.38
803.952	3.58
804.131	-41.47
804.311	93.69
804.491	120.32
804.67	-53.76
804.85	-0.51
805.03	126.46
805.209	128.51
805.389	24.06
805.568	-0.51
805.748	-39.42
805.928	-14.85
806.107	-20.99
806.287	30.21
806.466	60.93
806.646	-51.71
806.825	3.58
807.004	11.78
807.184	-35.33
807.363	-0.51
807.543	48.64
807.722	-8.7
807.901	40.45
808.081	13.82
808.26	-104.96
808.439	36.35
808.619	-31.23
808.798	15.87
808.977	5.63
809.156	32.26
809.336	-45.57
809.515	58.88
809.694	-109.05
809.873	-33.28
810.052	15.87
810.231	62.98
810.411	77.31
810.59	77.31
810.769	17.92
810.948	17.92
811.127	-137.73
811.306	-12.8
811.485	-4.61
811.664	101.89
811.843	-8.7
812.022	-10.75
812.201	11.78
812.38	-35.33
812.559	-41.47
812.737	17.92
812.916	-129.53
813.095	-84.48
813.274	89.6
813.453	34.3
813.632	73.21
813.811	105.98
813.989	-84.48
814.168	97.79
814.347	-16.9
814.526	7.68
814.704	132.61
814.883	97.79
815.062	-86.53
815.24	62.98
815.419	-49.66
815.598	-2.56
815.776	-43.52
815.955	-12.8
816.133	-190.97
816.312	-41.47
816.49	-18.94
816.669	-0.51
816.847	-6.66
817.026	105.98
817.204	-47.62
817.383	19.97
817.561	-137.73
817.74	9.73
817.918	93.69
818.097	-35.33
818.275	-39.42
818.453	32.26
818.632	26.11
818.81	19.97
818.988	-25.09
819.167	-29.18
819.345	17.92
819.523	-39.42
819.701	-39.42
819.879	-53.76
820.058	28.16
820.236	-20.99
820.414	36.35
820.592	-37.38
820.77	-8.7
820.948	-51.71
821.127	-88.57
821.305	-20.99
821.483	-31.23
821.661	48.64
821.839	3.58
822.017	32.26
822.195	-76.29
822.373	48.64
822.551	40.45
822.729	1.54
822.907	75.26
823.085	46.59
823.262	38.4
823.44	-18.94
823.618	-92.67
823.796	7.68
823.974	-170.49
824.152	-25.09
824.329	-92.67
824.507	-53.76
824.685	-2.56
824.863	-2.56
825.04	56.83
825.218	62.98
825.396	-39.42
825.574	-18.94
825.751	-4.61
825.929	99.84
826.107	5.63
826.284	26.11
826.462	28.16
826.639	-12.8
826.817	-49.66
826.994	-41.47
827.172	5.63
827.349	122.37
827.527	11.78
827.704	-31.23
827.882	13.82
828.059	-14.85
828.237	-90.62
828.414	52.74
828.591	-123.39
828.769	-68.09
828.946	-104.96
829.124	50.69
829.301	46.59
829.478	-31.23
829.655	-18.94
829.833	-35.33
830.01	-125.44
830.187	48.64
830.364	5.63
830.542	32.26
830.719	71.17
830.896	91.65
831.073	-57.86
831.25	38.4
831.427	-6.66
831.604	-59.9
831.782	-35.33
831.959	-16.9
832.136	13.82
832.313	56.83
832.49	-27.14
832.667	-10.75
832.844	36.35
833.021	108.03
833.198	17.92
833.374	17.92
833.551	22.02
833.728	38.4
833.905	62.98
834.082	-98.81
834.259	-14.85
834.436	79.36
834.612	-86.53
834.789	36.35
834.966	73.21
835.143	-55.81
835.319	-100.86
835.496	5.63
835.673	38.4
835.85	1.54
836.026	105.98
836.203	-2.56
836.38	-131.58
836.556	50.69
836.733	-27.14
836.909	30.21
837.086	-2.56
837.262	-147.97
837.439	-76.29
837.616	-66.05
837.792	-8.7
837.968	17.92
838.145	-104.96
838.321	7.68
838.498	28.16
838.674	-25.09
838.851	36.35
839.027	-68.09
839.203	-70.14
839.38	13.82
839.556	-59.9
839.732	15.87
839.909	-74.24
840.085	48.64
840.261	-74.24
840.437	-49.66
840.614	-57.86
840.79	167.42
840.966	34.3
841.142	73.21
841.318	-82.43
841.494	85.5
841.671	30.21
841.847	24.06
842.023	-88.57
842.199	83.45
842.375	52.74
842.551	-160.25
842.727	-121.34
842.903	122.37
843.079	-100.86
843.255	52.74
843.431	-61.95
843.607	-29.18
843.783	-74.24
843.959	38.4
844.134	-12.8
844.31	118.27
844.486	-0.51
844.662	-49.66
844.838	-80.38
845.013	-16.9
845.189	30.21
845.365	40.45
845.541	30.21
845.716	28.16
845.892	42.5
846.068	-27.14
846.244	-61.95
846.419	-2.56
846.595	-98.81
846.77	-33.28
846.946	71.17
847.122	-47.62
847.297	-18.94
847.473	142.85
847.648	-82.43
847.824	-25.09
847.999	-104.96
848.175	-27.14
848.35	13.82
848.526	65.02
848.701	24.06
848.876	54.78
849.052	50.69
849.227	-43.52
849.403	-74.24
849.578	-4.61
849.753	-23.04
849.929	36.35
850.104	-119.29
850.279	-2.56
850.454	-131.58
850.63	13.82
850.805	1.54
850.98	3.58
851.155	-59.9
851.33	19.97
851.505	-92.67
851.681	130.56
851.856	-43.52
852.031	-12.8
852.206	26.11
852.381	-98.81
852.556	-31.23
852.731	67.07
852.906	58.88
853.081	-18.94
853.256	62.98
853.431	87.55
853.606	-57.86
853.781	-88.57
853.956	-96.77
854.131	32.26
854.305	-76.29
854.48	-23.04
854.655	-18.94
854.83	-90.62
855.005	15.87
855.18	1.54
855.354	-37.38
855.529	73.21
855.704	-49.66
855.879	-25.09
856.053	-94.72
856.228	85.5
856.403	-113.15
856.577	73.21
856.752	-92.67
856.926	9.73
857.101	81.41
857.276	-90.62
857.45	32.26
857.625	28.16
857.799	-39.42
857.974	-4.61
858.148	-160.25
858.323	5.63
858.497	-39.42
858.672	-6.66
858.846	-43.52
859.02	50.69
859.195	-72.19
859.369	-41.47
859.543	5.63
859.718	9.73
859.892	-43.52
860.066	69.12
860.241	-49.66
860.415	-35.33
860.589	-8.7
860.763	-84.48
860.938	11.78
861.112	50.69
861.286	-74.24
861.46	5.63
861.634	-68.09
861.808	26.11
861.982	-35.33
862.157	-123.39
862.331	-86.53
862.505	-55.81
862.679	-143.87
862.853	-43.52
863.027	-82.43
863.201	108.03
863.375	-84.48
863.549	34.3
863.722	22.02
863.896	17.92
864.07	-57.86
864.244	22.02
864.418	58.88
864.592	-18.94
864.766	-45.57
864.939	-86.53
865.113	-66.05
865.287	87.55
865.461	-135.68
865.634	67.07
865.808	50.69
865.982	-29.18
866.156	-68.09
866.329	-113.15
866.503	-53.76
866.676	81.41
866.85	7.68
867.024	-57.86
867.197	40.45
867.371	28.16
867.544	36.35
867.718	-80.38
867.891	120.32
868.065	-23.04
868.238	-94.72
868.412	118.27
868.585	-8.7
868.759	-115.2
868.932	-10.75
869.105	-76.29
869.279	-23.04
869.452	-76.29
869.625	9.73
869.799	5.63
869.972	-113.15
870.145	-0.51
870.319	1.54
870.492	-135.68
870.665	5.63
870.838	-76.29
871.011	-147.97
871.185	-33.28
871.358	-16.9
871.531	120.32
871.704	44.54
871.877	-8.7
872.05	-16.9
872.223	-68.09
872.396	85.5
872.569	126.46
872.742	-10.75
872.915	38.4
873.088	-92.67
873.261	-12.8
873.434	48.64
873.607	-31.23
873.78	108.03
873.953	-57.86
874.126	15.87
874.299	40.45
874.471	-64
874.644	-61.95
874.817	13.82
874.99	85.5
875.163	-8.7
875.335	-14.85
875.508	-39.42
875.681	56.83
875.853	-27.14
876.026	-86.53
876.199	24.06
876.371	32.26
876.544	-76.29
876.717	28.16
876.889	-18.94
877.062	9.73
877.234	15.87
877.407	-80.38
877.579	-94.72
877.752	-55.81
877.924	9.73
878.097	3.58
878.269	-6.66
878.442	-10.75
878.614	5.63
878.786	-23.04
878.959	3.58
879.131	15.87
879.303	-158.21
879.476	-41.47
879.648	32.26
879.82	-43.52
879.993	17.92
880.165	-37.38
880.337	-115.2
880.509	42.5
880.681	-88.57
880.854	-41.47
881.026	13.82
881.198	69.12
881.37	-23.04
881.542	-78.33
881.714	-4.61
881.886	17.92
882.058	-4.61
882.23	-20.99
882.402	-61.95
882.574	52.74
882.746	22.02
882.918	81.41
883.09	32.26
883.262	-23.04
883.434	-55.81
883.606	-119.29
883.778	-82.43
883.95	52.74
884.122	-29.18
884.293	132.61
884.465	-25.09
884.637	36.35
884.809	-102.91
884.98	-25.09
885.152	-6.66
885.324	124.41
885.496	-61.95
885.667	-35.33
885.839	3.58
886.011	67.07
886.182	48.64
886.354	5.63
886.525	46.59
886.697	-35.33
886.869	-27.14
887.04	-90.62
887.212	116.22
887.383	85.5
887.555	-0.51
887.726	-59.9
887.897	-115.2
888.069	13.82
888.24	56.83
888.412	-27.14
888.583	-51.71
888.754	-31.23
888.926	-182.78
889.097	-45.57
889.268	-107.01
889.44	-49.66
889.611	-127.49
889.782	-70.14
889.953	-102.91
890.125	99.84
890.296	-86.53
890.467	38.4
890.638	-55.81
890.809	-10.75
890.98	-72.19
891.151	30.21
891.323	24.06
891.494	17.92
891.665	-68.09
891.836	11.78
892.007	-18.94
892.178	17.92
892.349	-72.19
892.52	-86.53
892.691	9.73
892.862	-72.19
893.032	-115.2
893.203	7.68
893.374	-23.04
893.545	15.87
893.716	-53.76
893.887	42.5
894.057	-96.77
894.228	13.82
894.399	42.5
894.57	7.68
894.74	-23.04
894.911	1.54
895.082	-111.1
895.253	-0.51
895.423	-47.62
895.594	48.64
895.764	-6.66
895.935	-86.53
896.106	19.97
896.276	-39.42
896.447	-57.86
896.617	-86.53
896.788	-109.05
896.958	-47.62
897.129	-61.95
897.299	-111.1
897.47	126.46
897.64	30.21
897.81	-57.86
897.981	-49.66
898.151	-23.04
898.322	-25.09
898.492	38.4
898.662	-66.05
898.832	1.54
899.003	-25.09
899.173	-10.75
899.343	-96.77
899.513	-29.18
