Data from USB4F104151__247__11-19-58-036.txt Node

Date: Wed Feb 26 11:19:58 EST 2025
User: louis
Spectrometer: USB4F10415
Trigger mode: 4
Integration Time (sec): 1.000000E-1
Scans to average: 1
Electric dark correction enabled: true
Nonlinearity correction enabled: false
Boxcar width: 0
XAxis mode: Wavelengths
Number of Pixels in Spectrum: 3648
>>>>>Begin Spectral Data<<<<<
178.204	-488.44
178.424	-488.44
178.644	-488.44
178.864	-343.03
179.084	-365.56
179.304	-19.46
179.524	11.26
179.744	44.03
179.964	48.13
180.184	31.74
180.404	58.37
180.624	-48.13
180.844	-15.36
181.064	-70.65
181.283	-13.31
181.503	-48.13
181.723	21.5
181.943	-29.7
182.163	246.78
182.383	-19.46
182.602	9.22
182.822	150.53
183.042	93.18
183.262	-54.27
183.482	17.41
183.701	99.33
183.921	9.22
184.141	-50.18
184.361	80.89
184.58	58.37
184.8	97.28
185.02	31.74
185.239	128
185.459	87.04
185.679	19.46
185.898	-37.89
186.118	64.51
186.338	39.94
186.557	144.38
186.777	-60.42
186.997	-41.98
187.216	25.6
187.436	216.06
187.655	74.75
187.875	7.17
188.095	3.07
188.314	156.67
188.534	33.79
188.753	-19.46
188.973	117.76
189.192	160.77
189.412	52.22
189.631	29.7
189.851	64.51
190.07	140.29
190.29	-54.27
190.509	-35.84
190.729	39.94
190.948	154.62
191.168	224.25
191.387	-1.02
191.607	11.26
191.826	68.61
192.045	27.65
192.265	27.65
192.484	7.17
192.704	-17.41
192.923	-31.74
193.142	171.01
193.362	173.05
193.581	125.95
193.8	44.03
194.02	15.36
194.239	37.89
194.458	140.29
194.678	-19.46
194.897	-3.07
195.116	37.89
195.335	46.08
195.555	23.55
195.774	-33.79
195.993	70.65
196.212	-31.74
196.432	-39.94
196.651	-35.84
196.87	29.7
197.089	238.59
197.308	54.27
197.528	70.65
197.747	-33.79
197.966	29.7
198.185	117.76
198.404	25.6
198.623	25.6
198.842	123.9
199.062	105.47
199.281	31.74
199.5	52.22
199.719	9.22
199.938	7.17
200.157	80.89
200.376	168.96
200.595	130.05
200.814	-19.46
201.033	-54.27
201.252	166.91
201.471	66.56
201.69	5.12
201.909	21.5
202.128	168.96
202.347	70.65
202.566	13.31
202.785	19.46
203.004	-11.26
203.223	285.69
203.442	46.08
203.661	-132.09
203.879	152.57
204.098	162.81
204.317	-31.74
204.536	119.81
204.755	54.27
204.974	89.09
205.193	-5.12
205.411	166.91
205.63	109.57
205.849	72.7
206.068	-25.6
206.287	50.18
206.505	134.14
206.724	-9.22
206.943	-78.85
207.162	23.55
207.381	56.32
207.599	62.46
207.818	58.37
208.037	-58.37
208.255	44.03
208.474	29.7
208.693	37.89
208.911	68.61
209.13	115.71
209.349	44.03
209.567	60.42
209.786	84.99
210.005	160.77
210.223	15.36
210.442	-37.89
210.661	39.94
210.879	123.9
211.098	7.17
211.316	37.89
211.535	130.05
211.753	31.74
211.972	103.42
212.191	-66.56
212.409	-23.55
212.628	78.85
212.846	-44.03
213.065	23.55
213.283	183.29
213.502	58.37
213.72	-60.42
213.938	62.46
214.157	-23.55
214.375	29.7
214.594	-11.26
214.812	66.56
215.031	5.12
215.249	21.5
215.467	33.79
215.686	17.41
215.904	50.18
216.122	29.7
216.341	222.2
216.559	60.42
216.778	115.71
216.996	171.01
217.214	70.65
217.432	-41.98
217.651	-56.32
217.869	68.61
218.087	48.13
218.306	5.12
218.524	82.94
218.742	64.51
218.96	82.94
219.179	-54.27
219.397	19.46
219.615	209.92
219.833	113.66
220.051	-31.74
220.27	21.5
220.488	117.76
220.706	25.6
220.924	-52.22
221.142	11.26
221.36	-27.65
221.578	37.89
221.796	37.89
222.015	60.42
222.233	27.65
222.451	218.11
222.669	-41.98
222.887	101.37
223.105	-33.79
223.323	21.5
223.541	-31.74
223.759	82.94
223.977	13.31
224.195	154.62
224.413	82.94
224.631	103.42
224.849	11.26
225.067	224.25
225.285	-74.75
225.503	-1.02
225.721	-19.46
225.939	142.33
226.157	-33.79
226.375	211.96
226.592	29.7
226.81	58.37
227.028	99.33
227.246	189.44
227.464	80.89
227.682	48.13
227.9	84.99
228.117	82.94
228.335	62.46
228.553	84.99
228.771	-11.26
228.989	-54.27
229.206	48.13
229.424	-54.27
229.642	-66.56
229.86	1.02
230.077	144.38
230.295	52.22
230.513	99.33
230.731	125.95
230.948	97.28
231.166	156.67
231.384	37.89
231.601	-56.32
231.819	226.3
232.037	-23.55
232.254	3.07
232.472	41.98
232.689	-33.79
232.907	136.19
233.125	33.79
233.342	-15.36
233.56	-27.65
233.777	3.07
233.995	103.42
234.213	158.72
234.43	50.18
234.648	7.17
234.865	1.02
235.083	27.65
235.3	37.89
235.518	93.18
235.735	111.61
235.953	189.44
236.17	87.04
236.388	11.26
236.605	-19.46
236.822	140.29
237.04	156.67
237.257	27.65
237.475	19.46
237.692	13.31
237.909	101.37
238.127	-35.84
238.344	121.85
238.562	46.08
238.779	-54.27
238.996	-39.94
239.214	39.94
239.431	-15.36
239.648	44.03
239.865	35.84
240.083	48.13
240.3	50.18
240.517	-1.02
240.735	105.47
240.952	84.99
241.169	93.18
241.386	52.22
241.603	33.79
241.821	-87.04
242.038	109.57
242.255	31.74
242.472	-11.26
242.689	146.43
242.907	78.85
243.124	35.84
243.341	66.56
243.558	-27.65
243.775	-93.18
243.992	-82.94
244.209	62.46
244.426	179.2
244.643	89.09
244.86	39.94
245.078	134.14
245.295	111.61
245.512	-7.17
245.729	3.07
245.946	-15.36
246.163	37.89
246.38	-48.13
246.597	50.18
246.814	62.46
247.031	68.61
247.248	48.13
247.464	136.19
247.681	87.04
247.898	109.57
248.115	136.19
248.332	-7.17
248.549	87.04
248.766	160.77
248.983	29.7
249.2	119.81
249.417	13.31
249.633	23.55
249.85	121.85
250.067	-3.07
250.284	44.03
250.501	13.31
250.717	64.51
250.934	-7.17
251.151	-17.41
251.368	50.18
251.585	35.84
251.801	87.04
252.018	-84.99
252.235	78.85
252.451	-50.18
252.668	-1.02
252.885	125.95
253.102	54.27
253.318	39.94
253.535	-5.12
253.752	-15.36
253.968	41.98
254.185	-62.46
254.401	-11.26
254.618	44.03
254.835	-7.17
255.051	123.9
255.268	136.19
255.484	41.98
255.701	82.94
255.917	48.13
256.134	23.55
256.351	50.18
256.567	-33.79
256.784	58.37
257	-80.89
257.217	50.18
257.433	70.65
257.65	138.24
257.866	91.13
258.082	-19.46
258.299	-39.94
258.515	13.31
258.732	3.07
258.948	-52.22
259.165	27.65
259.381	-25.6
259.597	17.41
259.814	-66.56
260.03	56.32
260.246	-52.22
260.463	29.7
260.679	171.01
260.895	23.55
261.112	60.42
261.328	-7.17
261.544	-66.56
261.761	150.53
261.977	54.27
262.193	-21.5
262.409	46.08
262.626	103.42
262.842	58.37
263.058	27.65
263.274	66.56
263.49	58.37
263.707	128
263.923	37.89
264.139	-78.85
264.355	29.7
264.571	62.46
264.787	-11.26
265.004	164.86
265.22	66.56
265.436	-15.36
265.652	62.46
265.868	80.89
266.084	1.02
266.3	56.32
266.516	-121.85
266.732	50.18
266.948	41.98
267.164	23.55
267.38	80.89
267.596	25.6
267.812	164.86
268.028	25.6
268.244	7.17
268.46	23.55
268.676	-62.46
268.892	9.22
269.108	-95.23
269.324	-62.46
269.54	-68.61
269.756	31.74
269.972	44.03
270.188	-15.36
270.403	31.74
270.619	-35.84
270.835	33.79
271.051	50.18
271.267	-46.08
271.483	-13.31
271.698	140.29
271.914	46.08
272.13	-5.12
272.346	-56.32
272.562	44.03
272.777	125.95
272.993	-37.89
273.209	31.74
273.425	74.75
273.64	-117.76
273.856	136.19
274.072	-48.13
274.287	13.31
274.503	101.37
274.719	64.51
274.934	-29.7
275.15	-119.81
275.366	17.41
275.581	-82.94
275.797	56.32
276.012	101.37
276.228	56.32
276.444	17.41
276.659	142.33
276.875	7.17
277.09	-37.89
277.306	70.65
277.521	29.7
277.737	48.13
277.952	-3.07
278.168	-9.22
278.383	58.37
278.599	48.13
278.814	103.42
279.03	15.36
279.245	136.19
279.461	58.37
279.676	37.89
279.892	-60.42
280.107	-68.61
280.322	-44.03
280.538	82.94
280.753	-74.75
280.969	101.37
281.184	74.75
281.399	226.3
281.615	52.22
281.83	158.72
282.045	9.22
282.26	-39.94
282.476	27.65
282.691	97.28
282.906	39.94
283.122	-21.5
283.337	3.07
283.552	-3.07
283.767	97.28
283.983	125.95
284.198	-41.98
284.413	31.74
284.628	-76.8
284.843	46.08
285.058	78.85
285.274	39.94
285.489	-9.22
285.704	41.98
285.919	-23.55
286.134	107.52
286.349	23.55
286.564	60.42
286.779	150.53
286.995	-9.22
287.21	-29.7
287.425	115.71
287.64	5.12
287.855	99.33
288.07	-66.56
288.285	70.65
288.5	101.37
288.715	64.51
288.93	25.6
289.145	25.6
289.36	136.19
289.575	1.02
289.79	117.76
290.004	33.79
290.219	91.13
290.434	-46.08
290.649	-33.79
290.864	-68.61
291.079	50.18
291.294	62.46
291.509	93.18
291.724	19.46
291.938	66.56
292.153	93.18
292.368	41.98
292.583	17.41
292.798	103.42
293.012	74.75
293.227	25.6
293.442	-76.8
293.657	56.32
293.871	128
294.086	31.74
294.301	171.01
294.516	74.75
294.73	35.84
294.945	46.08
295.16	33.79
295.374	115.71
295.589	48.13
295.804	-62.46
296.018	76.8
296.233	123.9
296.447	41.98
296.662	25.6
296.877	56.32
297.091	62.46
297.306	27.65
297.52	-19.46
297.735	91.13
297.949	44.03
298.164	35.84
298.378	19.46
298.593	-3.07
298.807	-5.12
299.022	101.37
299.236	138.24
299.451	19.46
299.665	13.31
299.88	97.28
300.094	35.84
300.309	130.05
300.523	-1.02
300.737	-93.18
300.952	103.42
301.166	95.23
301.381	39.94
301.595	-17.41
301.809	25.6
302.024	17.41
302.238	13.31
302.452	101.37
302.667	68.61
302.881	80.89
303.095	117.76
303.309	62.46
303.524	-13.31
303.738	37.89
303.952	-41.98
304.166	68.61
304.381	-132.09
304.595	70.65
304.809	-25.6
305.023	93.18
305.237	23.55
305.452	35.84
305.666	99.33
305.88	48.13
306.094	123.9
306.308	76.8
306.522	138.24
306.736	27.65
306.95	50.18
307.164	-3.07
307.379	-35.84
307.593	80.89
307.807	142.33
308.021	119.81
308.235	68.61
308.449	-80.89
308.663	58.37
308.877	261.12
309.091	95.23
309.305	64.51
309.519	-105.47
309.733	84.99
309.947	-39.94
310.161	23.55
310.374	168.96
310.588	111.61
310.802	-7.17
311.016	3.07
311.23	46.08
311.444	-15.36
311.658	56.32
311.872	121.85
312.085	142.33
312.299	171.01
312.513	160.77
312.727	78.85
312.941	9.22
313.154	-7.17
313.368	29.7
313.582	19.46
313.796	95.23
314.009	64.51
314.223	123.9
314.437	68.61
314.651	107.52
314.864	-19.46
315.078	72.7
315.292	-64.51
315.505	-25.6
315.719	101.37
315.933	-72.7
316.146	-9.22
316.36	-1.02
316.573	136.19
316.787	191.49
317.001	70.65
317.214	-84.99
317.428	80.89
317.641	-27.65
317.855	-1.02
318.068	27.65
318.282	25.6
318.495	187.39
318.709	95.23
318.922	-13.31
319.136	82.94
319.349	173.05
319.563	68.61
319.776	173.05
319.99	-11.26
320.203	125.95
320.417	60.42
320.63	109.57
320.843	150.53
321.057	27.65
321.27	37.89
321.483	-11.26
321.697	171.01
321.91	44.03
322.124	58.37
322.337	68.61
322.55	-80.89
322.763	68.61
322.977	29.7
323.19	5.12
323.403	21.5
323.617	89.09
323.83	125.95
324.043	52.22
324.256	44.03
324.469	-89.09
324.683	150.53
324.896	11.26
325.109	58.37
325.322	3.07
325.535	130.05
325.748	72.7
325.962	19.46
326.175	-21.5
326.388	64.51
326.601	162.81
326.814	-9.22
327.027	58.37
327.24	166.91
327.453	-123.9
327.666	50.18
327.879	154.62
328.092	91.13
328.305	33.79
328.518	-41.98
328.731	-56.32
328.944	17.41
329.157	89.09
329.37	78.85
329.583	197.63
329.796	183.29
330.009	-11.26
330.222	50.18
330.435	134.14
330.648	48.13
330.861	-7.17
331.073	56.32
331.286	82.94
331.499	-19.46
331.712	46.08
331.925	7.17
332.138	60.42
332.35	70.65
332.563	-13.31
332.776	99.33
332.989	31.74
333.202	-19.46
333.414	74.75
333.627	72.7
333.84	-23.55
334.053	-27.65
334.265	-50.18
334.478	-3.07
334.691	-23.55
334.903	91.13
335.116	3.07
335.329	-23.55
335.541	101.37
335.754	156.67
335.966	-64.51
336.179	115.71
336.392	-3.07
336.604	23.55
336.817	142.33
337.029	148.48
337.242	39.94
337.454	50.18
337.667	37.89
337.88	136.19
338.092	25.6
338.305	13.31
338.517	-11.26
338.729	60.42
338.942	136.19
339.154	-78.85
339.367	-84.99
339.579	78.85
339.792	-41.98
340.004	111.61
340.217	33.79
340.429	62.46
340.641	-103.42
340.854	-50.18
341.066	-50.18
341.278	80.89
341.491	218.11
341.703	111.61
341.915	-27.65
342.128	44.03
342.34	56.32
342.552	-58.37
342.764	87.04
342.977	-17.41
343.189	72.7
343.401	1.02
343.613	-80.89
343.826	31.74
344.038	-29.7
344.25	35.84
344.462	-23.55
344.674	17.41
344.886	74.75
345.099	84.99
345.311	60.42
345.523	17.41
345.735	-76.8
345.947	3.07
346.159	-25.6
346.371	-7.17
346.583	5.12
346.795	246.78
347.007	82.94
347.219	-5.12
347.431	-9.22
347.643	193.53
347.855	27.65
348.067	179.2
348.279	-29.7
348.491	-13.31
348.703	35.84
348.915	21.5
349.127	66.56
349.339	87.04
349.551	25.6
349.763	140.29
349.975	-35.84
350.187	91.13
350.399	177.15
350.61	82.94
350.822	-78.85
351.034	68.61
351.246	91.13
351.458	60.42
351.669	142.33
351.881	76.8
352.093	132.09
352.305	93.18
352.517	29.7
352.728	156.67
352.94	31.74
353.152	62.46
353.363	-27.65
353.575	50.18
353.787	228.35
353.999	74.75
354.21	140.29
354.422	-74.75
354.633	-27.65
354.845	13.31
355.057	91.13
355.268	37.89
355.48	56.32
355.692	-54.27
355.903	41.98
356.115	46.08
356.326	-93.18
356.538	209.92
356.749	111.61
356.961	162.81
357.172	31.74
357.384	-7.17
357.595	197.63
357.807	68.61
358.018	-103.42
358.23	17.41
358.441	173.05
358.653	27.65
358.864	82.94
359.075	44.03
359.287	107.52
359.498	99.33
359.709	66.56
359.921	62.46
360.132	119.81
360.344	-3.07
360.555	-44.03
360.766	91.13
360.977	-33.79
361.189	109.57
361.4	35.84
361.611	152.57
361.823	179.2
362.034	-11.26
362.245	-17.41
362.456	21.5
362.667	66.56
362.879	1.02
363.09	134.14
363.301	56.32
363.512	52.22
363.723	1.02
363.935	29.7
364.146	56.32
364.357	-46.08
364.568	76.8
364.779	-13.31
364.99	70.65
365.201	-9.22
365.412	130.05
365.623	-27.65
365.834	33.79
366.045	93.18
366.256	76.8
366.467	70.65
366.678	19.46
366.889	111.61
367.1	37.89
367.311	152.57
367.522	-7.17
367.733	56.32
367.944	60.42
368.155	-39.94
368.366	68.61
368.577	101.37
368.788	70.65
368.999	72.7
369.209	-39.94
369.42	189.44
369.631	209.92
369.842	109.57
370.053	-31.74
370.264	119.81
370.474	-60.42
370.685	5.12
370.896	111.61
371.107	168.96
371.317	66.56
371.528	48.13
371.739	154.62
371.95	23.55
372.16	54.27
372.371	-21.5
372.582	9.22
372.792	19.46
373.003	72.7
373.214	52.22
373.424	134.14
373.635	-17.41
373.846	162.81
374.056	-11.26
374.267	41.98
374.477	113.66
374.688	17.41
374.898	76.8
375.109	-25.6
375.319	41.98
375.53	78.85
375.74	9.22
375.951	-37.89
376.161	60.42
376.372	125.95
376.582	60.42
376.793	154.62
377.003	13.31
377.214	23.55
377.424	37.89
377.635	60.42
377.845	11.26
378.055	89.09
378.266	-27.65
378.476	99.33
378.686	109.57
378.897	35.84
379.107	56.32
379.317	134.14
379.528	-11.26
379.738	121.85
379.948	-33.79
380.158	70.65
380.369	23.55
380.579	103.42
380.789	50.18
380.999	121.85
381.21	56.32
381.42	173.05
381.63	41.98
381.84	91.13
382.05	74.75
382.261	101.37
382.471	189.44
382.681	-27.65
382.891	121.85
383.101	46.08
383.311	-58.37
383.521	-5.12
383.731	80.89
383.941	101.37
384.151	107.52
384.361	-78.85
384.571	46.08
384.781	107.52
384.991	173.05
385.201	144.38
385.411	-1.02
385.621	27.65
385.831	68.61
386.041	150.53
386.251	21.5
386.461	130.05
386.671	48.13
386.881	3.07
387.091	-7.17
387.301	144.38
387.511	50.18
387.72	87.04
387.93	97.28
388.14	-17.41
388.35	46.08
388.56	72.7
388.769	74.75
388.979	31.74
389.189	-35.84
389.399	48.13
389.609	84.99
389.818	25.6
390.028	78.85
390.238	74.75
390.447	-31.74
390.657	58.37
390.867	-21.5
391.076	-68.61
391.286	5.12
391.496	1.02
391.705	70.65
391.915	144.38
392.125	93.18
392.334	84.99
392.544	130.05
392.753	97.28
392.963	-93.18
393.172	37.89
393.382	25.6
393.591	115.71
393.801	35.84
394.01	103.42
394.22	80.89
394.429	9.22
394.639	11.26
394.848	107.52
395.058	-13.31
395.267	15.36
395.477	115.71
395.686	37.89
395.895	197.63
396.105	193.53
396.314	99.33
396.524	21.5
396.733	7.17
396.942	107.52
397.152	105.47
397.361	121.85
397.57	68.61
397.78	56.32
397.989	105.47
398.198	70.65
398.407	37.89
398.617	35.84
398.826	33.79
399.035	9.22
399.244	158.72
399.453	74.75
399.663	31.74
399.872	109.57
400.081	-54.27
400.29	97.28
400.499	31.74
400.708	89.09
400.917	-78.85
401.127	-3.07
401.336	11.26
401.545	218.11
401.754	105.47
401.963	113.66
402.172	41.98
402.381	-35.84
402.59	13.31
402.799	25.6
403.008	105.47
403.217	93.18
403.426	54.27
403.635	-9.22
403.844	60.42
404.053	29.7
404.262	44.03
404.471	150.53
404.68	123.9
404.888	-17.41
405.097	60.42
405.306	99.33
405.515	76.8
405.724	109.57
405.933	15.36
406.142	72.7
406.35	119.81
406.559	7.17
406.768	56.32
406.977	125.95
407.185	93.18
407.394	99.33
407.603	-9.22
407.812	1.02
408.02	158.72
408.229	134.14
408.438	17.41
408.646	-87.04
408.855	11.26
409.064	46.08
409.272	17.41
409.481	97.28
409.69	13.31
409.898	-23.55
410.107	113.66
410.315	19.46
410.524	21.5
410.733	136.19
410.941	54.27
411.15	-1.02
411.358	68.61
411.567	111.61
411.775	9.22
411.984	44.03
412.192	119.81
412.401	-9.22
412.609	195.58
412.818	164.86
413.026	105.47
413.234	15.36
413.443	33.79
413.651	-25.6
413.86	58.37
414.068	134.14
414.276	300.03
414.485	33.79
414.693	144.38
414.901	173.05
415.11	132.09
415.318	125.95
415.526	-1.02
415.734	115.71
415.943	60.42
416.151	128
416.359	52.22
416.567	119.81
416.776	123.9
416.984	84.99
417.192	152.57
417.4	13.31
417.608	39.94
417.817	-3.07
418.025	162.81
418.233	195.58
418.441	50.18
418.649	13.31
418.857	105.47
419.065	99.33
419.273	-3.07
419.481	78.85
419.689	-19.46
419.897	27.65
420.105	-33.79
420.313	187.39
420.521	179.2
420.729	111.61
420.937	-13.31
421.145	-7.17
421.353	99.33
421.561	154.62
421.769	54.27
421.977	23.55
422.185	56.32
422.393	33.79
422.601	140.29
422.809	56.32
423.017	23.55
423.224	128
423.432	107.52
423.64	-9.22
423.848	125.95
424.056	-23.55
424.263	72.7
424.471	54.27
424.679	107.52
424.887	-48.13
425.094	109.57
425.302	68.61
425.51	-37.89
425.718	99.33
425.925	87.04
426.133	-3.07
426.341	226.3
426.548	111.61
426.756	46.08
426.964	70.65
427.171	46.08
427.379	89.09
427.586	87.04
427.794	140.29
428.001	197.63
428.209	80.89
428.417	164.86
428.624	142.33
428.832	222.2
429.039	136.19
429.247	115.71
429.454	181.25
429.662	142.33
429.869	117.76
430.076	156.67
430.284	195.58
430.491	187.39
430.699	189.44
430.906	275.45
431.114	158.72
431.321	109.57
431.528	111.61
431.736	99.33
431.943	74.75
432.15	171.01
432.358	140.29
432.565	316.41
432.772	-15.36
432.979	228.35
433.187	89.09
433.394	216.06
433.601	146.43
433.808	314.36
434.016	218.11
434.223	320.51
434.43	277.5
434.637	158.72
434.844	271.36
435.052	275.45
435.259	281.6
435.466	304.12
435.673	281.6
435.88	302.08
436.087	353.27
436.294	375.8
436.501	363.51
436.708	236.54
436.915	248.83
437.122	383.99
437.329	283.64
437.537	412.67
437.743	302.08
437.95	377.85
438.157	324.6
438.364	318.46
438.571	412.67
438.778	369.66
438.985	521.21
439.192	492.54
439.399	379.9
439.606	465.91
439.813	549.88
440.02	674.81
440.227	658.42
440.433	603.13
440.64	576.5
440.847	529.4
441.054	627.7
441.261	803.83
441.467	623.61
441.674	676.85
441.881	691.19
442.088	668.66
442.294	814.07
442.501	799.73
442.708	769.01
442.914	793.59
443.121	883.7
443.328	908.27
443.534	1029.1
443.741	1012.72
443.948	859.12
444.154	988.14
444.361	1238
444.568	1012.72
444.774	1172.46
444.981	1004.53
445.187	1258.48
445.394	1197.04
445.6	1244.14
445.807	1426.41
446.013	1233.9
446.22	1418.22
446.426	1453.03
446.633	1483.75
446.839	1651.69
447.046	1582.06
447.252	1737.7
447.459	1674.21
447.665	1729.51
447.871	1942.5
448.078	1997.79
448.284	1952.74
448.491	2102.24
448.697	2196.45
448.903	2261.98
449.11	2348
449.316	2401.24
449.522	2487.26
449.728	2563.03
449.935	2647
450.141	2628.57
450.347	2962.39
450.553	2773.97
450.76	2900.95
450.966	3027.92
451.172	3185.62
451.378	3361.74
451.584	3271.63
451.791	3593.16
451.997	3625.93
452.203	3795.91
452.409	4010.95
452.615	3986.37
452.821	4039.62
453.027	4080.58
453.233	4656.06
453.44	4400.06
453.646	4690.87
453.852	4910.01
454.058	5139.38
454.264	5237.68
454.47	5569.45
454.676	5540.78
454.882	6122.4
455.088	5833.64
455.294	6112.16
455.5	6595.48
455.705	6693.79
455.911	6890.39
456.117	7039.89
456.323	7310.22
456.529	7459.73
456.735	7951.24
456.941	8360.83
457.147	8479.61
457.352	8823.67
457.558	8819.58
457.764	9468.78
457.97	9843.56
458.176	10107.75
458.381	10867.55
458.587	11023.19
458.793	11379.54
458.999	11404.11
459.204	12987.19
459.41	13286.2
459.616	13253.43
459.821	13828.91
460.027	14570.27
460.233	15129.37
460.438	15201.05
460.644	15966.99
460.85	16091.91
461.055	16724.74
461.261	17711.86
461.466	17421.05
461.672	17679.09
461.878	19624.66
462.083	19686.1
462.289	19921.62
462.494	20622.02
462.7	20767.43
462.905	21426.87
463.111	22747.81
463.316	24015.51
463.522	24412.81
463.727	25434.75
463.932	26131.06
464.138	26849.89
464.343	27896.41
464.549	28279.38
464.754	30278.19
464.959	31394.34
465.165	31568.41
465.37	31427.1
465.575	31552.03
465.781	33286.66
465.986	34712.05
466.191	34089.46
466.397	34101.75
466.602	33653.25
466.807	35637.73
467.012	36059.61
467.218	36696.53
467.423	36698.58
467.628	37788.1
467.833	39541.16
468.038	39025.07
468.244	38193.59
468.449	40690.07
468.654	39553.44
468.859	39635.36
469.064	39580.07
469.269	38726.07
469.474	38982.06
469.679	40098.2
469.885	38724.02
470.09	39336.36
470.295	39606.69
470.5	38762.93
470.705	38678.96
470.91	37886.4
471.115	37640.64
471.32	38283.7
471.525	37790.14
471.73	37093.83
471.935	36743.63
472.139	35582.43
472.344	35537.38
472.549	35252.71
472.754	34589.17
472.959	33534.46
473.164	32596.49
473.369	32092.69
473.574	33116.68
473.778	32152.09
473.983	31857.18
474.188	31418.91
474.393	30093.88
474.598	29764.15
474.802	29250.11
475.007	28965.45
475.212	28136.02
475.417	27368.03
475.621	26716.78
475.826	26999.4
476.031	26110.58
476.235	25711.22
476.44	25526.91
476.645	24914.56
476.849	24695.43
477.054	24210.06
477.259	23771.8
477.463	23638.68
477.668	23003.81
477.872	22993.57
478.077	22401.71
478.282	21815.99
478.486	21418.68
478.691	21455.54
478.895	21043.9
479.1	21072.57
479.304	21052.09
479.509	20314.83
479.713	20675.27
479.918	19776.21
480.122	19790.55
480.326	19700.44
480.531	20073.17
480.735	19344.09
480.94	19020.51
481.144	19833.55
481.348	18789.09
481.553	18764.51
481.757	18133.74
481.961	18600.68
482.166	18903.78
482.37	18483.94
482.574	17730.29
482.778	17689.33
482.983	17943.28
483.187	17953.52
483.391	17648.37
483.595	17441.53
483.8	17257.21
484.004	17281.78
484.208	17152.76
484.412	16923.39
484.616	16827.14
484.821	16659.2
485.025	16091.91
485.229	16102.15
485.433	15977.23
485.637	15667.98
485.841	15285.01
486.045	15223.58
486.249	15237.91
486.453	14977.82
486.657	14572.32
486.861	14760.73
487.065	13970.22
487.269	14015.27
487.473	13568.82
487.677	14041.9
487.881	13865.77
488.085	13232.95
488.289	13099.83
488.493	12600.13
488.697	13060.92
488.901	12417.86
489.105	12094.28
489.309	12026.7
489.512	11828.04
489.716	11543.38
489.92	11191.13
490.124	11053.91
490.328	11060.06
490.531	10865.5
490.735	10695.52
490.939	10488.67
491.143	10296.16
491.346	10124.13
491.55	10068.84
491.754	9761.64
491.958	9706.35
492.161	9401.2
492.365	9171.83
492.569	9044.85
492.772	9085.81
492.976	9083.77
493.18	8760.19
493.383	8792.95
493.587	8561.53
493.79	8766.33
493.994	8444.8
494.197	8371.07
494.401	8063.88
494.605	7805.83
494.808	8102.79
495.012	8070.02
495.215	7902.09
495.419	7922.57
495.622	7619.47
495.825	7816.07
496.029	7725.96
496.232	7515.02
496.436	7558.03
496.639	7689.1
496.843	7691.15
497.046	7555.98
497.249	7560.08
497.453	7525.26
497.656	7441.29
497.859	7584.65
498.063	7687.05
498.266	7539.6
498.469	7611.28
498.673	7609.23
498.876	7555.98
499.079	7668.62
499.282	7621.52
499.485	8006.53
499.689	7793.55
499.892	8006.53
500.095	7893.9
500.298	7957.38
500.501	7781.26
500.705	8178.56
500.908	8092.55
501.111	8184.71
501.314	8375.17
501.517	8643.45
501.72	8246.15
501.923	8364.93
502.126	8516.48
502.329	8690.56
502.532	8635.26
502.735	8684.41
502.938	8948.6
503.141	8913.78
503.344	8954.74
503.547	9194.36
503.75	9251.7
503.953	9409.39
504.156	9483.12
504.359	9671.53
504.562	9677.68
504.765	9798.51
504.968	9984.87
505.17	10214.24
505.373	10386.27
505.576	10605.41
505.779	10675.04
505.982	10949.46
506.185	10963.8
506.387	11148.12
506.59	11553.62
506.793	11547.47
506.996	11684.69
507.198	12321.6
507.401	12174.15
507.604	12684.09
507.807	12725.05
508.009	12966.71
508.212	13116.22
508.415	13402.93
508.617	13609.78
508.82	14273.32
509.022	14189.35
509.225	14687.01
509.428	15006.49
509.63	15246.1
509.833	15199
510.035	16173.83
510.238	15981.32
510.44	16360.2
510.643	16876.29
510.845	17345.27
511.048	17199.87
511.25	17873.65
511.453	18154.22
511.655	18961.12
511.858	19262.17
512.06	19653.33
512.262	19874.51
512.465	20216.52
512.667	20777.67
512.87	21240.51
513.072	21738.16
513.274	22487.72
513.477	22792.87
513.679	23157.41
513.881	23743.13
514.084	24078.99
514.286	24801.93
514.488	25414.27
514.69	26036.85
514.893	26507.88
515.095	27038.31
515.297	27499.1
515.499	27816.54
515.701	28523.08
515.904	29401.66
516.106	29968.95
516.308	30249.52
516.51	31056.42
516.712	31312.42
516.914	32371.22
517.116	33081.86
517.318	33470.98
517.52	33997.31
517.722	34408.95
517.925	35101.16
518.127	35895.77
518.329	36362.71
518.531	36788.69
518.733	37960.12
518.935	38406.58
519.136	38822.32
519.338	39704.99
519.54	39977.37
519.742	40728.98
519.944	41255.31
520.146	42203.52
520.348	42518.9
520.55	42729.84
520.752	43229.55
520.954	44460.38
521.155	44173.66
521.357	45568.33
521.559	45957.44
521.761	46076.22
521.963	46389.56
522.164	46967.09
522.366	47145.26
522.568	47909.16
522.77	48107.81
522.971	48658.71
523.173	48601.37
523.375	49174.8
523.576	49494.28
523.778	49486.09
523.98	49840.39
524.181	50379.01
524.383	50544.89
524.584	50743.55
524.786	50481.41
524.988	50346.24
525.189	50563.32
525.391	51106.04
525.592	51124.47
525.794	51058.93
525.995	51095.8
526.197	50704.63
526.398	50661.63
526.6	50950.39
526.801	50739.45
527.003	50387.2
527.204	50503.93
527.406	50592
527.607	50020.61
527.808	50374.91
528.01	49078.55
528.211	49692.94
528.412	50053.38
528.614	49127.7
528.815	48498.97
529.016	49043.73
529.218	47575.34
529.419	47954.21
529.62	47427.88
529.822	46971.19
530.023	46516.54
530.224	45769.03
530.425	45613.38
530.626	44642.65
530.828	44691.8
531.029	44794.2
531.23	43458.92
531.431	43663.72
531.632	42948.98
531.833	42041.73
532.035	42058.11
532.236	41783.68
532.437	41320.84
532.638	41030.03
532.839	40079.77
533.04	39930.27
533.241	38607.28
533.442	39164.33
533.643	38091.19
533.844	37689.79
534.045	37386.69
534.246	36393.43
534.447	36133.34
534.648	35531.23
534.849	35498.47
535.05	34353.65
535.251	34247.16
535.451	33761.79
535.652	33450.5
535.853	32963.08
536.054	32602.64
536.255	32152.09
536.456	31490.59
536.657	31699.48
536.857	30749.23
537.058	30368.3
537.259	30229.04
537.46	29856.31
537.66	29143.62
537.861	28990.02
538.062	28289.62
538.263	27982.42
538.463	27499.1
538.664	27118.18
538.865	27130.47
539.065	27091.55
539.266	26503.79
539.466	26401.39
539.667	25590.39
539.868	25787
540.068	25205.38
540.269	24875.65
540.469	24597.13
540.67	24500.87
540.87	23986.83
541.071	23763.61
541.271	23370.4
541.472	23012
541.672	22782.63
541.873	22551.21
542.073	22162.09
542.274	22485.67
542.474	21899.95
542.675	21582.52
542.875	21490.36
543.075	21033.66
543.276	20515.53
543.476	20736.71
543.676	20376.27
543.877	20351.69
544.077	19970.77
544.277	19808.98
544.478	19456.73
544.678	19456.73
544.878	19139.29
545.078	18889.44
545.279	18649.83
545.479	18334.44
545.679	18516.71
545.879	18092.78
546.079	18096.88
546.28	17679.09
546.48	17300.22
546.68	17408.76
546.88	17152.76
547.08	16870.14
547.28	16741.12
547.48	16446.21
547.68	16421.64
547.88	15905.55
548.081	16241.42
548.281	15557.39
548.481	15399.7
548.681	15307.54
548.881	15133.47
549.081	14873.37
549.28	14586.66
549.48	14373.67
549.68	14514.98
549.88	14529.31
550.08	13736.75
550.28	13916.97
550.48	13681.46
550.68	13572.91
550.88	13222.71
551.08	12968.76
551.279	12831.55
551.479	12444.48
551.679	12555.07
551.879	12096.33
552.079	12211.01
552.278	11959.11
552.478	12000.07
552.678	11520.85
552.878	11412.31
553.077	11180.89
553.277	10855.26
553.477	10963.8
553.676	10711.9
553.876	10597.21
554.076	10314.59
554.275	10161
554.475	10013.54
554.674	9816.94
554.874	9802.6
555.074	9470.83
555.273	9585.52
555.473	9261.94
555.672	9241.46
555.872	9055.09
556.071	8891.26
556.271	8827.77
556.47	8489.85
556.67	8620.92
556.869	8438.66
557.068	8080.26
557.268	7996.29
557.467	7859.08
557.667	7934.85
557.866	7713.67
558.065	7574.41
558.265	7213.97
558.464	7361.42
558.663	7390.1
558.863	7226.26
559.062	7072.66
559.261	6933.4
559.461	6687.64
559.66	6544.28
559.859	6552.48
560.058	6384.54
560.258	6306.72
560.457	6226.85
560.656	6325.15
560.855	5876.65
561.054	6052.77
561.253	5886.89
561.453	5788.58
561.652	5628.84
561.851	5618.6
562.05	5475.24
562.249	5329.84
562.448	5411.76
562.647	5108.66
562.846	5125.04
563.045	5235.63
563.244	5082.03
563.443	5047.22
563.642	4766.65
563.841	4840.37
564.04	4807.61
564.239	4686.78
564.438	4559.8
564.637	4219.84
564.836	4398.01
565.035	4137.92
565.234	4238.27
565.432	4283.33
565.631	4158.4
565.83	4125.63
566.029	4133.82
566.228	4076.48
566.427	4017.09
566.625	3793.86
566.824	3926.98
567.023	3879.88
567.222	3613.64
567.42	3740.61
567.619	3685.32
567.818	3640.26
568.016	3703.75
568.215	3458
568.414	3417.04
568.612	3400.65
568.811	3412.94
569.01	3369.93
569.208	3165.14
569.407	3275.73
569.605	3185.62
569.804	3085.26
570.002	3015.63
570.201	2915.28
570.4	3144.66
570.598	2915.28
570.797	2821.08
570.995	2841.56
571.193	2737.11
571.392	2726.87
571.59	2692.05
571.789	2718.68
571.987	2804.69
572.186	2644.95
572.384	2567.13
572.582	2614.23
572.781	2642.9
572.979	2386.91
573.177	2395.1
573.376	2378.72
573.574	2317.28
573.772	2227.17
573.971	2223.07
574.169	2085.86
574.367	2284.51
574.565	2124.77
574.763	2257.89
574.962	2032.61
575.16	2024.42
575.358	1954.79
575.556	1958.88
575.754	1985.51
575.952	1848.29
576.151	1999.84
576.349	1893.35
576.547	1788.9
576.745	1833.96
576.943	1840.1
577.141	1655.78
577.339	1682.41
577.537	1643.49
577.735	1743.85
577.933	1784.8
578.131	1577.96
578.329	1711.08
578.527	1539.05
578.725	1567.72
578.923	1418.22
579.121	1547.24
579.319	1465.32
579.516	1395.69
579.714	1637.35
579.912	1446.89
580.11	1393.64
580.308	1487.85
580.506	1399.79
580.704	1233.9
580.901	1242.09
581.099	1412.07
581.297	1233.9
581.495	1307.63
581.692	1291.24
581.89	1426.41
582.088	1213.42
582.285	1272.81
582.483	1082.35
582.681	1143.79
582.878	1084.4
583.076	1117.17
583.274	1199.09
583.471	1106.93
583.669	1043.44
583.866	969.71
584.064	1102.83
584.262	910.32
584.459	916.47
584.657	975.86
584.854	1082.35
585.052	986.1
585.249	949.23
585.447	926.71
585.644	875.51
585.841	1039.34
586.039	988.14
586.236	969.71
586.434	936.95
586.631	736.24
586.828	844.79
587.026	830.45
587.223	758.77
587.42	914.42
587.618	766.96
587.815	873.46
588.012	838.64
588.21	721.91
588.407	824.31
588.604	818.16
588.801	715.77
588.999	769.01
589.196	857.07
589.393	715.77
589.59	775.16
589.787	742.39
589.984	744.44
590.182	748.53
590.379	738.29
590.576	707.57
590.773	711.67
590.97	723.96
591.167	756.72
591.364	674.81
591.561	738.29
591.758	807.92
591.955	795.64
592.152	674.81
592.349	654.33
592.546	693.24
592.743	644.09
592.94	568.31
593.137	650.23
593.334	766.96
593.531	691.19
593.727	674.81
593.924	635.89
594.121	678.9
594.318	746.48
594.515	709.62
594.712	828.4
594.908	740.34
595.105	584.7
595.302	738.29
595.499	728.05
595.696	869.36
595.892	660.47
596.089	877.55
596.286	769.01
596.482	822.26
596.679	779.25
596.876	721.91
597.072	938.99
597.269	766.96
597.466	920.56
597.662	875.51
597.859	797.68
598.055	889.84
598.252	1108.98
598.448	1057.78
598.645	1102.83
598.841	1170.41
599.038	1205.23
599.234	1289.2
599.431	1252.33
599.627	1289.2
599.824	1389.55
600.02	1276.91
600.217	1459.18
600.413	1530.86
600.609	1545.19
600.806	1776.61
601.002	1672.17
601.198	1653.73
601.395	1764.33
601.591	1811.43
601.787	1891.3
601.984	1864.68
602.18	2087.9
602.376	2073.57
602.572	2161.63
602.769	2323.42
602.965	2315.23
603.161	2446.3
603.357	2626.52
603.553	2720.73
603.75	2616.28
603.946	2700.25
604.142	2894.8
604.338	3019.73
604.534	3118.03
604.73	3165.14
604.926	3439.56
605.122	3437.52
605.318	3447.76
605.514	3627.98
605.71	3496.91
605.906	3791.81
606.102	3871.68
606.298	4135.87
606.494	4039.62
606.69	4359.1
606.886	4387.77
607.082	4398.01
607.278	4494.27
607.474	4645.82
607.67	4981.68
607.866	4989.88
608.062	5262.26
608.257	5479.34
608.453	5424.05
608.649	5802.92
608.845	5741.48
609.041	5950.37
609.236	6116.26
609.432	6120.35
609.628	6478.75
609.824	6511.52
610.019	6671.26
610.215	6902.68
610.411	7295.89
610.606	7457.68
610.802	7555.98
610.998	7515.02
611.193	8074.12
611.389	8018.82
611.584	8283.01
611.78	8350.59
611.976	8602.49
612.171	9210.74
612.367	9155.44
612.562	9470.83
612.758	9554.8
612.953	9634.67
613.149	10318.69
613.344	10337.12
613.539	10761.05
613.735	10920.79
613.93	11125.59
614.126	11488.08
614.321	11901.77
614.517	12301.12
614.712	12385.09
614.907	12669.76
615.103	12802.88
615.298	13290.29
615.493	13802.29
615.688	14066.47
615.884	14668.58
616.079	14717.73
616.274	15237.91
616.47	15563.54
616.665	15979.28
616.86	16212.74
617.055	16702.21
617.25	16960.25
617.445	17599.22
617.641	17920.75
617.836	18631.4
618.031	18754.27
618.226	19397.34
618.421	19569.37
618.616	20220.62
618.811	20331.21
619.006	21263.04
619.201	21281.47
619.396	22198.96
619.591	22311.6
619.786	23349.92
619.981	23048.86
620.176	24165.01
620.371	24205.97
620.566	24908.42
620.761	25262.72
620.956	26065.52
621.151	26061.43
621.346	27032.16
621.541	27363.93
621.735	28355.15
621.93	28373.58
622.125	28924.49
622.32	29325.89
622.515	30175.8
622.709	30677.55
622.904	30980.65
623.099	31715.87
623.294	32395.79
623.488	32440.85
623.683	33346.05
623.878	33296.9
624.072	34472.43
624.267	35039.72
624.462	35183.08
624.656	35822.05
624.851	36630.99
625.046	36712.91
625.24	37624.26
625.435	37552.58
625.629	38459.83
625.824	38996.4
626.018	39346.6
626.213	38975.92
626.407	40485.27
626.602	40272.28
626.796	40968.59
626.991	41286.03
627.185	41806.21
627.38	41740.68
627.574	42031.49
627.768	42350.97
627.963	42516.86
628.157	42299.77
628.352	42875.25
628.546	42568.05
628.74	43268.46
628.935	42617.21
629.129	43061.61
629.323	42307.96
629.517	42400.12
629.712	42240.38
629.906	41974.14
630.1	41560.45
630.294	41261.45
630.489	40499.61
630.683	40499.61
630.877	39457.19
631.071	38986.16
631.265	38150.59
631.459	37831.1
631.653	36698.58
631.848	36059.61
632.042	35355.11
632.236	34664.94
632.43	33225.22
632.624	33004.04
632.818	31402.53
633.012	30962.22
633.206	29694.52
633.4	29207.11
633.594	27652.7
633.788	27187.81
633.982	26204.78
634.176	25283.2
634.369	23909.01
634.563	23462.55
634.757	22319.79
634.951	22041.26
635.145	20558.53
635.339	20308.68
635.533	19102.43
635.726	18877.15
635.92	17556.21
636.114	16841.47
636.308	16169.74
636.501	15840.01
636.695	15115.03
636.889	14150.44
637.083	13650.74
637.276	12952.38
637.47	12469.06
637.664	12241.73
637.857	11723.6
638.051	11164.5
638.244	10816.35
638.438	10316.64
638.632	10027.88
638.825	9298.8
639.019	9186.16
639.212	8571.77
639.406	8438.66
639.599	7897.99
639.793	7789.45
639.986	7402.38
640.18	7312.27
640.373	6949.78
640.567	6532
640.76	6288.29
640.954	6110.11
641.147	5995.43
641.34	5575.59
641.534	5528.49
641.727	5284.78
641.92	5129.14
642.114	4885.43
642.307	4740.02
642.5	4576.19
642.694	4330.43
642.887	4191.17
643.08	4080.58
643.273	3967.94
643.467	3572.68
643.66	3554.25
643.853	3408.84
644.046	3240.91
644.239	3298.25
644.432	2964.43
644.626	2782.17
644.819	2745.3
645.012	2640.86
645.205	2661.34
645.398	2610.14
645.591	2395.1
645.784	2128.86
645.977	2141.15
646.17	2178.01
646.363	2104.29
646.556	1860.58
646.749	1954.79
646.942	1817.57
647.135	1774.56
647.328	1713.13
647.521	1694.69
647.714	1663.97
647.907	1502.19
648.099	1381.35
648.292	1403.88
648.485	1418.22
648.678	1215.47
648.871	1260.52
649.064	1201.13
649.256	1053.68
649.449	990.19
649.642	1061.87
649.835	805.88
650.027	984.05
650.22	1065.97
650.413	941.04
650.605	932.85
650.798	871.41
650.991	859.12
651.183	771.06
651.376	895.99
651.568	795.64
651.761	771.06
651.954	709.62
652.146	734.2
652.339	615.41
652.531	644.09
652.724	639.99
652.916	660.47
653.109	424.95
653.301	674.81
653.494	603.13
653.686	568.31
653.879	584.7
654.071	527.35
654.263	451.58
654.456	494.58
654.648	566.26
654.84	488.44
655.033	433.15
655.225	572.41
655.417	314.36
655.61	488.44
655.802	496.63
655.994	523.26
656.186	357.37
656.379	451.58
656.571	310.27
656.763	367.61
656.955	281.6
657.148	334.84
657.34	506.87
657.532	300.03
657.724	269.31
657.916	351.23
658.108	377.85
658.3	365.56
658.492	246.78
658.684	254.97
658.876	320.51
659.068	246.78
659.26	164.86
659.452	148.48
659.644	314.36
659.836	343.03
660.028	259.07
660.22	275.45
660.412	191.49
660.604	232.44
660.796	218.11
660.988	320.51
661.18	162.81
661.372	246.78
661.563	197.63
661.755	179.2
661.947	185.34
662.139	107.52
662.331	201.72
662.522	197.63
662.714	68.61
662.906	115.71
663.097	179.2
663.289	78.85
663.481	95.23
663.673	203.77
663.864	214.01
664.056	177.15
664.247	74.75
664.439	252.92
664.631	171.01
664.822	152.57
665.014	142.33
665.205	58.37
665.397	111.61
665.588	173.05
665.78	144.38
665.971	250.88
666.163	123.9
666.354	138.24
666.546	72.7
666.737	78.85
666.929	132.09
667.12	117.76
667.311	150.53
667.503	160.77
667.694	142.33
667.885	95.23
668.077	156.67
668.268	72.7
668.459	125.95
668.651	154.62
668.842	107.52
669.033	64.51
669.224	80.89
669.416	345.08
669.607	25.6
669.798	93.18
669.989	224.25
670.18	74.75
670.371	177.15
670.563	-3.07
670.754	189.44
670.945	216.06
671.136	160.77
671.327	19.46
671.518	154.62
671.709	218.11
671.9	144.38
672.091	142.33
672.282	87.04
672.473	166.91
672.664	66.56
672.855	105.47
673.046	144.38
673.237	142.33
673.428	89.09
673.619	189.44
673.809	134.14
674	187.39
674.191	140.29
674.382	27.65
674.573	64.51
674.764	119.81
674.954	277.5
675.145	64.51
675.336	68.61
675.527	5.12
675.717	179.2
675.908	76.8
676.099	166.91
676.289	134.14
676.48	41.98
676.671	154.62
676.861	121.85
677.052	171.01
677.243	166.91
677.433	56.32
677.624	154.62
677.814	185.34
678.005	29.7
678.195	246.78
678.386	23.55
678.576	138.24
678.767	29.7
678.957	60.42
679.148	128
679.338	250.88
679.529	142.33
679.719	152.57
679.909	195.58
680.1	181.25
680.29	228.35
680.481	154.62
680.671	197.63
680.861	150.53
681.052	164.86
681.242	66.56
681.432	164.86
681.622	187.39
681.813	95.23
682.003	232.44
682.193	46.08
682.383	140.29
682.573	146.43
682.764	25.6
682.954	236.54
683.144	222.2
683.334	148.48
683.524	130.05
683.714	164.86
683.904	146.43
684.094	134.14
684.284	140.29
684.474	171.01
684.664	185.34
684.854	177.15
685.044	113.66
685.234	185.34
685.424	191.49
685.614	60.42
685.804	291.84
685.994	224.25
686.184	113.66
686.374	179.2
686.564	99.33
686.753	41.98
686.943	115.71
687.133	76.8
687.323	261.12
687.513	187.39
687.702	228.35
687.892	121.85
688.082	185.34
688.272	279.55
688.461	119.81
688.651	383.99
688.841	177.15
689.03	117.76
689.22	187.39
689.41	203.77
689.599	177.15
689.789	140.29
689.979	238.59
690.168	58.37
690.358	228.35
690.547	152.57
690.737	238.59
690.926	189.44
691.116	173.05
691.305	238.59
691.495	320.51
691.684	74.75
691.874	166.91
692.063	117.76
692.252	197.63
692.442	191.49
692.631	142.33
692.82	191.49
693.01	193.53
693.199	216.06
693.388	156.67
693.578	148.48
693.767	220.16
693.956	136.19
694.146	140.29
694.335	177.15
694.524	179.2
694.713	246.78
694.902	162.81
695.092	93.18
695.281	254.97
695.47	123.9
695.659	164.86
695.848	136.19
696.037	74.75
696.226	189.44
696.415	115.71
696.604	261.12
696.793	181.25
696.982	164.86
697.171	230.4
697.36	142.33
697.549	138.24
697.738	-11.26
697.927	214.01
698.116	64.51
698.305	232.44
698.494	91.13
698.683	82.94
698.872	273.4
699.061	179.2
699.25	111.61
699.438	181.25
699.627	74.75
699.816	345.08
700.005	58.37
700.193	103.42
700.382	150.53
700.571	246.78
700.76	185.34
700.948	246.78
701.137	168.96
701.326	209.92
701.514	91.13
701.703	113.66
701.892	226.3
702.08	168.96
702.269	80.89
702.457	164.86
702.646	173.05
702.834	154.62
703.023	181.25
703.212	224.25
703.4	181.25
703.589	201.72
703.777	125.95
703.965	74.75
704.154	52.22
704.342	33.79
704.531	84.99
704.719	164.86
704.907	211.96
705.096	105.47
705.284	128
705.472	103.42
705.661	216.06
705.849	222.2
706.037	250.88
706.226	158.72
706.414	140.29
706.602	60.42
706.79	175.1
706.979	68.61
707.167	150.53
707.355	60.42
707.543	197.63
707.731	207.87
707.919	152.57
708.107	134.14
708.296	44.03
708.484	80.89
708.672	183.29
708.86	171.01
709.048	222.2
709.236	132.09
709.424	162.81
709.612	246.78
709.8	103.42
709.988	119.81
710.176	177.15
710.364	246.78
710.551	119.81
710.739	115.71
710.927	138.24
711.115	177.15
711.303	281.6
711.491	234.49
711.679	58.37
711.866	191.49
712.054	173.05
712.242	130.05
712.43	246.78
712.617	132.09
712.805	218.11
712.993	158.72
713.181	46.08
713.368	310.27
713.556	195.58
713.744	164.86
713.931	312.32
714.119	138.24
714.306	142.33
714.494	78.85
714.682	207.87
714.869	50.18
715.057	166.91
715.244	48.13
715.432	175.1
715.619	87.04
715.807	146.43
715.994	97.28
716.182	197.63
716.369	195.58
716.556	185.34
716.744	44.03
716.931	107.52
717.119	209.92
717.306	236.54
717.493	168.96
717.681	101.37
717.868	134.14
718.055	152.57
718.242	103.42
718.43	228.35
718.617	244.73
718.804	134.14
718.991	234.49
719.179	134.14
719.366	232.44
719.553	252.92
719.74	146.43
719.927	84.99
720.114	134.14
720.301	140.29
720.488	60.42
720.676	80.89
720.863	267.26
721.05	240.64
721.237	138.24
721.424	162.81
721.611	156.67
721.798	84.99
721.985	72.7
722.172	164.86
722.358	150.53
722.545	199.68
722.732	224.25
722.919	246.78
723.106	214.01
723.293	195.58
723.48	195.58
723.667	150.53
723.853	252.92
724.04	265.21
724.227	185.34
724.414	154.62
724.6	230.4
724.787	353.27
724.974	357.37
725.161	171.01
725.347	93.18
725.534	193.53
725.72	254.97
725.907	234.49
726.094	187.39
726.28	201.72
726.467	244.73
726.653	117.76
726.84	293.88
727.027	261.12
727.213	164.86
727.4	254.97
727.586	181.25
727.773	160.77
727.959	226.3
728.145	158.72
728.332	197.63
728.518	183.29
728.705	222.2
728.891	166.91
729.077	252.92
729.264	84.99
729.45	175.1
729.636	254.97
729.823	273.4
730.009	246.78
730.195	173.05
730.382	248.83
730.568	166.91
730.754	216.06
730.94	211.96
731.126	193.53
731.313	195.58
731.499	171.01
731.685	191.49
731.871	281.6
732.057	191.49
732.243	236.54
732.429	238.59
732.615	287.74
732.801	254.97
732.987	203.77
733.173	232.44
733.359	218.11
733.545	187.39
733.731	183.29
733.917	285.69
734.103	273.4
734.289	232.44
734.475	146.43
734.661	369.66
734.847	142.33
735.033	162.81
735.219	248.83
735.404	193.53
735.59	203.77
735.776	154.62
735.962	187.39
736.148	228.35
736.333	263.16
736.519	168.96
736.705	146.43
736.89	156.67
737.076	189.44
737.262	205.82
737.447	175.1
737.633	160.77
737.819	181.25
738.004	179.2
738.19	218.11
738.375	175.1
738.561	248.83
738.747	226.3
738.932	193.53
739.118	322.56
739.303	164.86
739.489	220.16
739.674	171.01
739.859	66.56
740.045	304.12
740.23	271.36
740.416	62.46
740.601	197.63
740.786	179.2
740.972	177.15
741.157	74.75
741.342	164.86
741.528	97.28
741.713	316.41
741.898	76.8
742.084	216.06
742.269	193.53
742.454	246.78
742.639	263.16
742.824	152.57
743.01	205.82
743.195	390.14
743.38	197.63
743.565	197.63
743.75	214.01
743.935	293.88
744.12	242.68
744.305	132.09
744.49	214.01
744.675	156.67
744.86	189.44
745.045	273.4
745.23	168.96
745.415	99.33
745.6	336.89
745.785	119.81
745.97	291.84
746.155	254.97
746.34	322.56
746.525	119.81
746.71	281.6
746.895	107.52
747.079	62.46
747.264	140.29
747.449	263.16
747.634	234.49
747.819	224.25
748.003	115.71
748.188	89.09
748.373	261.12
748.557	189.44
748.742	164.86
748.927	117.76
749.111	107.52
749.296	168.96
749.481	195.58
749.665	115.71
749.85	89.09
750.034	144.38
750.219	195.58
750.404	103.42
750.588	187.39
750.773	128
750.957	136.19
751.141	140.29
751.326	246.78
751.51	119.81
751.695	128
751.879	134.14
752.064	214.01
752.248	76.8
752.432	271.36
752.617	240.64
752.801	179.2
752.985	175.1
753.17	93.18
753.354	148.48
753.538	103.42
753.722	35.84
753.907	80.89
754.091	44.03
754.275	148.48
754.459	121.85
754.643	41.98
754.828	113.66
755.012	148.48
755.196	111.61
755.38	152.57
755.564	117.76
755.748	74.75
755.932	259.07
756.116	201.72
756.3	150.53
756.484	123.9
756.668	191.49
756.852	21.5
757.036	62.46
757.22	183.29
757.404	50.18
757.588	64.51
757.772	134.14
757.956	193.53
758.14	154.62
758.323	-11.26
758.507	97.28
758.691	113.66
758.875	193.53
759.059	181.25
759.242	21.5
759.426	99.33
759.61	101.37
759.794	39.94
759.977	189.44
760.161	340.99
760.345	125.95
760.528	179.2
760.712	62.46
760.895	138.24
761.079	115.71
761.263	-1.02
761.446	-44.03
761.63	74.75
761.813	216.06
761.997	21.5
762.18	91.13
762.364	144.38
762.547	-70.65
762.731	82.94
762.914	91.13
763.098	175.1
763.281	82.94
763.464	27.65
763.648	27.65
763.831	62.46
764.015	66.56
764.198	191.49
764.381	23.55
764.564	142.33
764.748	146.43
764.931	-27.65
765.114	56.32
765.297	168.96
765.481	1.02
765.664	37.89
765.847	60.42
766.03	214.01
766.213	33.79
766.397	87.04
766.58	-33.79
766.763	54.27
766.946	74.75
767.129	21.5
767.312	58.37
767.495	-21.5
767.678	87.04
767.861	62.46
768.044	-3.07
768.227	91.13
768.41	82.94
768.593	33.79
768.776	144.38
768.959	101.37
769.142	111.61
769.324	-3.07
769.507	89.09
769.69	-19.46
769.873	89.09
770.056	218.11
770.239	89.09
770.421	58.37
770.604	109.57
770.787	70.65
770.97	66.56
771.152	60.42
771.335	111.61
771.518	-15.36
771.7	154.62
771.883	166.91
772.066	56.32
772.248	74.75
772.431	168.96
772.613	97.28
772.796	-5.12
772.978	107.52
773.161	140.29
773.343	35.84
773.526	-64.51
773.708	-1.02
773.891	-105.47
774.073	3.07
774.256	31.74
774.438	99.33
774.621	31.74
774.803	46.08
774.985	13.31
775.168	23.55
775.35	48.13
775.532	76.8
775.715	-11.26
775.897	115.71
776.079	119.81
776.261	97.28
776.444	82.94
776.626	-9.22
776.808	70.65
776.99	-29.7
777.173	-1.02
777.355	54.27
777.537	41.98
777.719	39.94
777.901	15.36
778.083	82.94
778.265	23.55
778.447	140.29
778.629	72.7
778.811	-39.94
778.993	152.57
779.175	185.34
779.357	13.31
779.539	-17.41
779.721	33.79
779.903	33.79
780.085	39.94
780.267	25.6
780.449	50.18
780.631	68.61
780.812	177.15
780.994	21.5
781.176	60.42
781.358	48.13
781.54	-50.18
781.721	48.13
781.903	93.18
782.085	23.55
782.267	121.85
782.448	-19.46
782.63	5.12
782.812	95.23
782.993	119.81
783.175	93.18
783.357	54.27
783.538	76.8
783.72	-19.46
783.901	31.74
784.083	111.61
784.264	33.79
784.446	-48.13
784.627	-39.94
784.809	156.67
784.99	-58.37
785.172	113.66
785.353	103.42
785.535	17.41
785.716	-27.65
785.897	41.98
786.079	50.18
786.26	93.18
786.441	82.94
786.623	-37.89
786.804	-17.41
786.985	25.6
787.167	54.27
787.348	-9.22
787.529	-27.65
787.71	173.05
787.891	60.42
788.073	5.12
788.254	-109.57
788.435	128
788.616	-84.99
788.797	-7.17
788.978	-21.5
789.159	11.26
789.34	60.42
789.522	9.22
789.703	-41.98
789.884	37.89
790.065	23.55
790.246	138.24
790.427	-19.46
790.607	66.56
790.788	70.65
790.969	21.5
791.15	82.94
791.331	-27.65
791.512	-25.6
791.693	-60.42
791.874	-64.51
792.054	203.77
792.235	33.79
792.416	-58.37
792.597	-44.03
792.778	46.08
792.958	87.04
793.139	-5.12
793.32	64.51
793.5	1.02
793.681	117.76
793.862	54.27
794.042	-33.79
794.223	-41.98
794.404	-13.31
794.584	-134.14
794.765	-64.51
794.945	50.18
795.126	87.04
795.306	74.75
795.487	50.18
795.667	-76.8
795.848	17.41
796.028	15.36
796.209	1.02
796.389	56.32
796.57	15.36
796.75	-27.65
796.93	-5.12
797.111	-48.13
797.291	-17.41
797.471	54.27
797.652	17.41
797.832	-70.65
798.012	58.37
798.192	-19.46
798.373	-76.8
798.553	-27.65
798.733	123.9
798.913	-23.55
799.093	-17.41
799.274	-39.94
799.454	89.09
799.634	99.33
799.814	72.7
799.994	93.18
800.174	74.75
800.354	-3.07
800.534	-80.89
800.714	93.18
800.894	-52.22
801.074	-70.65
801.254	-33.79
801.434	209.92
801.614	37.89
801.794	-148.48
801.974	1725.41
802.154	-29.7
802.334	58.37
802.514	-134.14
802.693	19.46
802.873	5.12
803.053	95.23
803.233	46.08
803.413	-58.37
803.592	-1.02
803.772	29.7
803.952	-21.5
804.131	-31.74
804.311	41.98
804.491	62.46
804.67	-117.76
804.85	-89.09
805.03	7.17
805.209	130.05
805.389	-101.37
805.568	-64.51
805.748	-15.36
805.928	31.74
806.107	29.7
806.287	72.7
806.466	19.46
806.646	13.31
806.825	-11.26
807.004	-15.36
807.184	29.7
807.363	84.99
807.543	103.42
807.722	-54.27
807.901	109.57
808.081	29.7
808.26	-76.8
808.439	46.08
808.619	-39.94
808.798	21.5
808.977	-1.02
809.156	58.37
809.336	91.13
809.515	60.42
809.694	-52.22
809.873	21.5
810.052	64.51
810.231	152.57
810.411	-19.46
810.59	27.65
810.769	-54.27
810.948	46.08
811.127	-93.18
811.306	-62.46
811.485	-11.26
811.664	132.09
811.843	1.02
812.022	115.71
812.201	-7.17
812.38	-35.84
812.559	-9.22
812.737	62.46
812.916	-72.7
813.095	-89.09
813.274	89.09
813.453	13.31
813.632	82.94
813.811	115.71
813.989	-99.33
814.168	68.61
814.347	-37.89
814.526	-21.5
814.704	27.65
814.883	60.42
815.062	-109.57
815.24	78.85
815.419	62.46
815.598	117.76
815.776	-60.42
815.955	-29.7
816.133	-89.09
816.312	66.56
816.49	-44.03
816.669	-33.79
816.847	13.31
817.026	-54.27
817.204	19.46
817.383	-41.98
817.561	-72.7
817.74	115.71
817.918	-25.6
818.097	-33.79
818.275	-101.37
818.453	64.51
818.632	27.65
818.81	-27.65
818.988	-35.84
819.167	-27.65
819.345	-3.07
819.523	-41.98
819.701	-27.65
819.879	7.17
820.058	-9.22
820.236	76.8
820.414	-31.74
820.592	-5.12
820.77	-78.85
820.948	-107.52
821.127	-37.89
821.305	50.18
821.483	-33.79
821.661	123.9
821.839	74.75
822.017	-11.26
822.195	-35.84
822.373	60.42
822.551	-7.17
822.729	84.99
822.907	-80.89
823.085	48.13
823.262	52.22
823.44	-64.51
823.618	-29.7
823.796	60.42
823.974	-13.31
824.152	-27.65
824.329	-13.31
824.507	74.75
824.685	48.13
824.863	17.41
825.04	-66.56
825.218	107.52
825.396	80.89
825.574	58.37
825.751	-5.12
825.929	46.08
826.107	-99.33
826.284	-7.17
826.462	35.84
826.639	-72.7
826.817	-101.37
826.994	7.17
827.172	-138.24
827.349	82.94
827.527	-1.02
827.704	21.5
827.882	31.74
828.059	-19.46
828.237	7.17
828.414	74.75
828.591	-113.66
828.769	41.98
828.946	-60.42
829.124	37.89
829.301	84.99
829.478	-111.61
829.655	-46.08
829.833	-56.32
830.01	-91.13
830.187	-31.74
830.364	19.46
830.542	44.03
830.719	97.28
830.896	68.61
831.073	-21.5
831.25	-56.32
831.427	44.03
831.604	27.65
831.782	-50.18
831.959	-9.22
832.136	-7.17
832.313	7.17
832.49	-23.55
832.667	35.84
832.844	-78.85
833.021	128
833.198	21.5
833.374	-19.46
833.551	46.08
833.728	-11.26
833.905	46.08
834.082	-82.94
834.259	5.12
834.436	15.36
834.612	-138.24
834.789	74.75
834.966	5.12
835.143	7.17
835.319	-117.76
835.496	68.61
835.673	11.26
835.85	31.74
836.026	-74.75
836.203	60.42
836.38	-128
836.556	-50.18
836.733	-15.36
836.909	173.05
837.086	-29.7
837.262	-121.85
837.439	11.26
837.616	-125.95
837.792	-62.46
837.968	-56.32
838.145	-78.85
838.321	80.89
838.498	15.36
838.674	48.13
838.851	-5.12
839.027	-48.13
839.203	9.22
839.38	13.31
839.556	-25.6
839.732	152.57
839.909	-56.32
840.085	-56.32
840.261	-39.94
840.437	-11.26
840.614	-99.33
840.79	48.13
840.966	31.74
841.142	66.56
841.318	17.41
841.494	46.08
841.671	64.51
841.847	-107.52
842.023	-134.14
842.199	7.17
842.375	140.29
842.551	-60.42
842.727	-66.56
842.903	156.67
843.079	-121.85
843.255	130.05
843.431	-23.55
843.607	23.55
843.783	-89.09
843.959	-37.89
844.134	9.22
844.31	54.27
844.486	-78.85
844.662	-44.03
844.838	-60.42
845.013	-9.22
845.189	39.94
845.365	5.12
845.541	9.22
845.716	39.94
845.892	46.08
846.068	-48.13
846.244	-66.56
846.419	48.13
846.595	-58.37
846.77	-105.47
846.946	19.46
847.122	-37.89
847.297	-48.13
847.473	166.91
847.648	-113.66
847.824	-31.74
847.999	-123.9
848.175	-56.32
848.35	-15.36
848.526	117.76
848.701	13.31
848.876	33.79
849.052	3.07
849.227	-3.07
849.403	13.31
849.578	-17.41
849.753	13.31
849.929	-19.46
850.104	-78.85
850.279	17.41
850.454	-31.74
850.63	13.31
850.805	-17.41
850.98	-27.65
851.155	-31.74
851.33	-11.26
851.505	-152.57
851.681	173.05
851.856	-125.95
852.031	-21.5
852.206	13.31
852.381	-23.55
852.556	-25.6
852.731	-21.5
852.906	48.13
853.081	-29.7
853.256	134.14
853.431	-23.55
853.606	-41.98
853.781	5.12
853.956	-89.09
854.131	9.22
854.305	-76.8
854.48	-56.32
854.655	-54.27
854.83	-46.08
855.005	-80.89
855.18	66.56
855.354	-21.5
855.529	82.94
855.704	-60.42
855.879	58.37
856.053	-109.57
856.228	35.84
856.403	-23.55
856.577	-68.61
856.752	-70.65
856.926	-9.22
857.101	66.56
857.276	-95.23
857.45	-17.41
857.625	56.32
857.799	-46.08
857.974	-7.17
858.148	-95.23
858.323	121.85
858.497	-41.98
858.672	-48.13
858.846	-7.17
859.02	11.26
859.195	-119.81
859.369	23.55
859.543	-21.5
859.718	25.6
859.892	76.8
860.066	25.6
860.241	-13.31
860.415	-3.07
860.589	-5.12
860.763	-3.07
860.938	-19.46
861.112	-7.17
861.286	-9.22
861.46	58.37
861.634	-50.18
861.808	54.27
861.982	-21.5
862.157	-107.52
862.331	-80.89
862.505	-89.09
862.679	-95.23
862.853	-27.65
863.027	-52.22
863.201	113.66
863.375	-56.32
863.549	78.85
863.722	41.98
863.896	87.04
864.07	-17.41
864.244	-52.22
864.418	74.75
864.592	5.12
864.766	5.12
864.939	-29.7
865.113	-17.41
865.287	78.85
865.461	1.02
865.634	-1.02
865.808	-15.36
865.982	-31.74
866.156	-66.56
866.329	-128
866.503	72.7
866.676	70.65
866.85	9.22
867.024	-7.17
867.197	9.22
867.371	11.26
867.544	76.8
867.718	-87.04
867.891	60.42
868.065	-70.65
868.238	-15.36
868.412	60.42
868.585	-52.22
868.759	-95.23
868.932	15.36
869.105	-119.81
869.279	37.89
869.452	-134.14
869.625	7.17
869.799	11.26
869.972	-78.85
870.145	-29.7
870.319	15.36
870.492	-25.6
870.665	-52.22
870.838	-109.57
871.011	-97.28
871.185	-29.7
871.358	-15.36
871.531	31.74
871.704	-19.46
871.877	66.56
872.05	-97.28
872.223	-48.13
872.396	72.7
872.569	50.18
872.742	-117.76
872.915	23.55
873.088	-80.89
873.261	-50.18
873.434	64.51
873.607	-1.02
873.78	48.13
873.953	-5.12
874.126	19.46
874.299	-3.07
874.471	-37.89
874.644	-52.22
874.817	23.55
874.99	101.37
875.163	21.5
875.335	-31.74
875.508	19.46
875.681	107.52
875.853	41.98
876.026	3.07
876.199	5.12
876.371	109.57
876.544	11.26
876.717	21.5
876.889	-37.89
877.062	13.31
877.234	-44.03
877.407	-50.18
877.579	-39.94
877.752	37.89
877.924	41.98
878.097	27.65
878.269	33.79
878.442	-13.31
878.614	87.04
878.786	25.6
878.959	-3.07
879.131	74.75
879.303	-154.62
879.476	19.46
879.648	46.08
879.82	25.6
879.993	13.31
880.165	-93.18
880.337	-95.23
880.509	-3.07
880.681	-84.99
880.854	-54.27
881.026	68.61
881.198	177.15
881.37	-19.46
881.542	62.46
881.714	-50.18
881.886	-35.84
882.058	-95.23
882.23	66.56
882.402	-76.8
882.574	9.22
882.746	5.12
882.918	72.7
883.09	99.33
883.262	19.46
883.434	9.22
883.606	-128
883.778	3.07
883.95	105.47
884.122	-58.37
884.293	97.28
884.465	-7.17
884.637	54.27
884.809	-46.08
884.98	15.36
885.152	7.17
885.324	46.08
885.496	-78.85
885.667	-76.8
885.839	-13.31
886.011	52.22
886.182	93.18
886.354	-17.41
886.525	-7.17
886.697	29.7
886.869	-27.65
887.04	23.55
887.212	113.66
887.383	193.53
887.555	35.84
887.726	15.36
887.897	-50.18
888.069	-56.32
888.24	56.32
888.412	-78.85
888.583	35.84
888.754	13.31
888.926	-224.25
889.097	3.07
889.268	-119.81
889.44	-3.07
889.611	-74.75
889.782	-113.66
889.953	-54.27
890.125	44.03
890.296	-84.99
890.467	-54.27
890.638	-97.28
890.809	19.46
890.98	-35.84
891.151	46.08
891.323	119.81
891.494	-56.32
891.665	17.41
891.836	-54.27
892.007	-23.55
892.178	1.02
892.349	5.12
892.52	-99.33
892.691	7.17
892.862	-99.33
893.032	-101.37
893.203	-27.65
893.374	-35.84
893.545	87.04
893.716	44.03
893.887	33.79
894.057	-50.18
894.228	-64.51
894.399	-48.13
894.57	7.17
894.74	1.02
894.911	46.08
895.082	-48.13
895.253	-23.55
895.423	-37.89
895.594	93.18
895.764	17.41
895.935	-87.04
896.106	15.36
896.276	-15.36
896.447	-3.07
896.617	-103.42
896.788	-84.99
896.958	-101.37
897.129	1.02
897.299	-21.5
897.47	136.19
897.64	97.28
897.81	-89.09
897.981	-27.65
898.151	-87.04
898.322	7.17
898.492	13.31
898.662	-54.27
898.832	-89.09
899.003	-29.7
899.173	54.27
899.343	-31.74
899.513	-95.23
