Data from USB4F104151__172__11-04-57-535.txt Node

Date: Wed Feb 26 11:04:57 EST 2025
User: louis
Spectrometer: USB4F10415
Trigger mode: 4
Integration Time (sec): 1.000000E-1
Scans to average: 1
Electric dark correction enabled: true
Nonlinearity correction enabled: false
Boxcar width: 0
XAxis mode: Wavelengths
Number of Pixels in Spectrum: 3648
>>>>>Begin Spectral Data<<<<<
178.204	-407.55
178.424	-407.55
178.644	-407.55
178.864	-462.84
179.084	-380.92
179.304	-4.1
179.524	-104.45
179.744	12.29
179.964	59.39
180.184	75.77
180.404	-10.24
180.624	-36.86
180.844	-12.29
181.064	-34.82
181.283	28.67
181.503	-28.67
181.723	55.3
181.943	-108.54
182.163	194.56
182.383	90.11
182.602	61.44
182.822	147.45
183.042	120.83
183.262	-28.67
183.482	14.34
183.701	36.86
183.921	49.15
184.141	-43.01
184.361	28.67
184.58	12.29
184.8	79.87
185.02	-28.67
185.239	75.77
185.459	69.63
185.679	61.44
185.898	-40.96
186.118	14.34
186.338	108.54
186.557	126.97
186.777	-67.58
186.997	40.96
187.216	45.06
187.436	202.75
187.655	88.06
187.875	57.34
188.095	-8.19
188.314	67.58
188.534	135.17
188.753	-65.54
188.973	40.96
189.192	169.98
189.412	24.58
189.631	16.38
189.851	53.25
190.07	159.74
190.29	-53.25
190.509	-6.14
190.729	40.96
190.948	157.69
191.168	217.08
191.387	8.19
191.607	131.07
191.826	38.91
192.045	55.3
192.265	8.19
192.484	10.24
192.704	118.78
192.923	-61.44
193.142	161.79
193.362	90.11
193.581	176.13
193.8	73.73
194.02	102.4
194.239	30.72
194.458	126.97
194.678	14.34
194.897	-34.82
195.116	55.3
195.335	47.1
195.555	83.97
195.774	55.3
195.993	153.6
196.212	43.01
196.432	-6.14
196.651	-49.15
196.87	-10.24
197.089	223.23
197.308	69.63
197.528	112.64
197.747	38.91
197.966	53.25
198.185	139.26
198.404	8.19
198.623	133.12
198.842	51.2
199.062	129.02
199.281	114.69
199.5	-22.53
199.719	100.35
199.938	67.58
200.157	69.63
200.376	51.2
200.595	145.41
200.814	77.82
201.033	6.14
201.252	145.41
201.471	96.25
201.69	40.96
201.909	90.11
202.128	110.59
202.347	81.92
202.566	108.54
202.785	8.19
203.004	-43.01
203.223	206.84
203.442	38.91
203.661	-106.49
203.879	61.44
204.098	153.6
204.317	-57.34
204.536	184.32
204.755	137.21
204.974	147.45
205.193	34.82
205.411	139.26
205.63	110.59
205.849	28.67
206.068	106.49
206.287	-43.01
206.505	165.89
206.724	81.92
206.943	8.19
207.162	10.24
207.381	108.54
207.599	53.25
207.818	102.4
208.037	32.77
208.255	98.3
208.474	159.74
208.693	32.77
208.911	-16.38
209.13	133.12
209.349	102.4
209.567	104.45
209.786	65.53
210.005	102.4
210.223	49.15
210.442	-126.97
210.661	32.77
210.879	36.86
211.098	79.87
211.316	-16.38
211.535	45.06
211.753	126.97
211.972	81.92
212.191	2.05
212.409	36.86
212.628	131.07
212.846	65.53
213.065	32.77
213.283	124.93
213.502	24.58
213.72	8.19
213.938	-57.34
214.157	10.24
214.375	147.45
214.594	69.63
214.812	90.11
215.031	-16.38
215.249	67.58
215.467	96.25
215.686	32.77
215.904	75.77
216.122	-0
216.341	139.26
216.559	-4.1
216.778	120.83
216.996	215.04
217.214	26.62
217.432	-2.05
217.651	-28.67
217.869	18.43
218.087	38.91
218.306	47.1
218.524	34.82
218.742	18.43
218.96	40.96
219.179	-22.53
219.397	71.68
219.615	172.03
219.833	165.89
220.051	-38.91
220.27	88.06
220.488	114.69
220.706	6.14
220.924	12.29
221.142	-6.14
221.36	94.21
221.578	57.34
221.796	59.39
222.015	79.87
222.233	112.64
222.451	161.79
222.669	-88.06
222.887	34.82
223.105	-16.38
223.323	18.43
223.541	-10.24
223.759	22.53
223.977	18.43
224.195	137.21
224.413	69.63
224.631	69.63
224.849	86.01
225.067	172.03
225.285	-86.01
225.503	34.82
225.721	-147.45
225.939	40.96
226.157	102.4
226.375	208.89
226.592	2.05
226.81	65.53
227.028	43.01
227.246	49.15
227.464	77.82
227.682	69.63
227.9	118.78
228.117	38.91
228.335	32.77
228.553	40.96
228.771	116.73
228.989	49.15
229.206	151.55
229.424	57.34
229.642	-0
229.86	-22.53
230.077	83.97
230.295	90.11
230.513	75.77
230.731	102.4
230.948	174.08
231.166	149.5
231.384	59.39
231.601	51.2
231.819	102.4
232.037	16.38
232.254	16.38
232.472	8.19
232.689	-0
232.907	53.25
233.125	12.29
233.342	-26.62
233.56	-4.1
233.777	43.01
233.995	71.68
234.213	73.73
234.43	79.87
234.648	61.44
234.865	6.14
235.083	83.97
235.3	51.2
235.518	129.02
235.735	129.02
235.953	28.67
236.17	43.01
236.388	73.73
236.605	77.82
236.822	131.07
237.04	69.63
237.257	69.63
237.475	18.43
237.692	86.01
237.909	104.45
238.127	36.86
238.344	98.3
238.562	69.63
238.779	-30.72
238.996	-26.62
239.214	28.67
239.431	71.68
239.648	79.87
239.865	122.88
240.083	176.13
240.3	10.24
240.517	-30.72
240.735	38.91
240.952	69.63
241.169	94.21
241.386	116.73
241.603	34.82
241.821	-98.3
242.038	106.49
242.255	129.02
242.472	-2.05
242.689	112.64
242.907	100.35
243.124	14.34
243.341	51.2
243.558	26.62
243.775	-20.48
243.992	-65.54
244.209	98.3
244.426	241.66
244.643	43.01
244.86	63.49
245.078	86.01
245.295	63.49
245.512	-24.58
245.729	-40.96
245.946	81.92
246.163	24.58
246.38	51.2
246.597	-4.1
246.814	165.89
247.031	38.91
247.248	38.91
247.464	63.49
247.681	120.83
247.898	71.68
248.115	126.97
248.332	-0
248.549	151.55
248.766	208.89
248.983	104.45
249.2	118.78
249.417	96.25
249.633	63.49
249.85	-8.19
250.067	-0
250.284	83.97
250.501	65.53
250.717	88.06
250.934	-45.06
251.151	49.15
251.368	2.05
251.585	120.83
251.801	18.43
252.018	-49.15
252.235	110.59
252.451	-26.62
252.668	2.05
252.885	47.1
253.102	43.01
253.318	-26.62
253.535	120.83
253.752	129.02
253.968	-24.58
254.185	-34.82
254.401	10.24
254.618	53.25
254.835	26.62
255.051	77.82
255.268	104.45
255.484	61.44
255.701	32.77
255.917	28.67
256.134	-55.3
256.351	79.87
256.567	-28.67
256.784	4.1
257	-26.62
257.217	149.5
257.433	92.16
257.65	-8.19
257.866	77.82
258.082	22.53
258.299	10.24
258.515	57.34
258.732	49.15
258.948	28.67
259.165	51.2
259.381	55.3
259.597	94.21
259.814	65.53
260.03	59.39
260.246	71.68
260.463	139.26
260.679	114.69
260.895	55.3
261.112	81.92
261.328	-53.25
261.544	-38.91
261.761	149.5
261.977	16.38
262.193	-20.48
262.409	61.44
262.626	102.4
262.842	81.92
263.058	36.86
263.274	24.58
263.49	55.3
263.707	79.87
263.923	49.15
264.139	12.29
264.355	45.06
264.571	139.26
264.787	114.69
265.004	110.59
265.22	112.64
265.436	24.58
265.652	36.86
265.868	47.1
266.084	-12.29
266.3	12.29
266.516	-28.67
266.732	153.6
266.948	49.15
267.164	34.82
267.38	143.36
267.596	38.91
267.812	169.98
268.028	81.92
268.244	69.63
268.46	131.07
268.676	20.48
268.892	51.2
269.108	-90.11
269.324	-38.91
269.54	-2.05
269.756	120.83
269.972	-40.96
270.188	-65.54
270.403	-49.15
270.619	18.43
270.835	104.45
271.051	8.19
271.267	18.43
271.483	24.58
271.698	106.49
271.914	34.82
272.13	-43.01
272.346	-55.3
272.562	53.25
272.777	167.93
272.993	4.1
273.209	-28.67
273.425	90.11
273.64	-69.63
273.856	100.35
274.072	-6.14
274.287	18.43
274.503	90.11
274.719	75.77
274.934	-40.96
275.15	20.48
275.366	36.86
275.581	-26.62
275.797	26.62
276.012	-30.72
276.228	92.16
276.444	38.91
276.659	112.64
276.875	49.15
277.09	73.73
277.306	45.06
277.521	124.93
277.737	38.91
277.952	98.3
278.168	86.01
278.383	92.16
278.599	10.24
278.814	92.16
279.03	32.77
279.245	65.53
279.461	18.43
279.676	92.16
279.892	-26.62
280.107	-73.73
280.322	20.48
280.538	47.1
280.753	18.43
280.969	55.3
281.184	114.69
281.399	167.93
281.615	53.25
281.83	110.59
282.045	-20.48
282.26	47.1
282.476	2.05
282.691	92.16
282.906	61.44
283.122	-14.34
283.337	-4.1
283.552	102.4
283.767	77.82
283.983	59.39
284.198	-6.14
284.413	38.91
284.628	-4.1
284.843	79.87
285.058	169.98
285.274	47.1
285.489	-34.82
285.704	129.02
285.919	36.86
286.134	-2.05
286.349	-16.38
286.564	26.62
286.779	122.88
286.995	43.01
287.21	-96.25
287.425	71.68
287.64	45.06
287.855	79.87
288.07	-32.77
288.285	116.73
288.5	116.73
288.715	106.49
288.93	30.72
289.145	49.15
289.36	83.97
289.575	45.06
289.79	176.13
290.004	18.43
290.219	174.08
290.434	-10.24
290.649	-36.86
290.864	28.67
291.079	-2.05
291.294	63.49
291.509	32.77
291.724	30.72
291.938	63.49
292.153	163.84
292.368	32.77
292.583	24.58
292.798	92.16
293.012	67.58
293.227	102.4
293.442	-10.24
293.657	178.17
293.871	178.17
294.086	63.49
294.301	133.12
294.516	157.69
294.73	63.49
294.945	-6.14
295.16	45.06
295.374	47.1
295.589	112.64
295.804	69.63
296.018	59.39
296.233	129.02
296.447	51.2
296.662	65.53
296.877	135.17
297.091	22.53
297.306	24.58
297.52	71.68
297.735	51.2
297.949	26.62
298.164	32.77
298.378	88.06
298.593	-16.38
298.807	100.35
299.022	-12.29
299.236	159.74
299.451	-2.05
299.665	38.91
299.88	6.14
300.094	32.77
300.309	36.86
300.523	110.59
300.737	57.34
300.952	90.11
301.166	69.63
301.381	24.58
301.595	-28.67
301.809	88.06
302.024	18.43
302.238	4.1
302.452	94.21
302.667	-16.38
302.881	186.37
303.095	102.4
303.309	104.45
303.524	45.06
303.738	-71.68
303.952	-28.67
304.166	51.2
304.381	-112.64
304.595	290.81
304.809	8.19
305.023	49.15
305.237	22.53
305.452	-4.1
305.666	24.58
305.88	157.69
306.094	110.59
306.308	24.58
306.522	129.02
306.736	18.43
306.95	145.41
307.164	20.48
307.379	79.87
307.593	172.03
307.807	133.12
308.021	57.34
308.235	65.53
308.449	-102.4
308.663	102.4
308.877	227.32
309.091	79.87
309.305	67.58
309.519	-151.55
309.733	186.37
309.947	-53.25
310.161	198.65
310.374	94.21
310.588	161.79
310.802	-36.86
311.016	92.16
311.23	67.58
311.444	26.62
311.658	79.87
311.872	157.69
312.085	172.03
312.299	118.78
312.513	198.65
312.727	26.62
312.941	-88.06
313.154	30.72
313.368	34.82
313.582	75.77
313.796	14.34
314.009	92.16
314.223	198.65
314.437	67.58
314.651	81.92
314.864	61.44
315.078	90.11
315.292	-118.78
315.505	20.48
315.719	94.21
315.933	98.3
316.146	-90.11
316.36	57.34
316.573	172.03
316.787	186.37
317.001	51.2
317.214	-45.06
317.428	71.68
317.641	-30.72
317.855	-26.62
318.068	94.21
318.282	94.21
318.495	204.8
318.709	63.49
318.922	69.63
319.136	126.97
319.349	143.36
319.563	71.68
319.776	43.01
319.99	-98.3
320.203	77.82
320.417	24.58
320.63	86.01
320.843	200.7
321.057	94.21
321.27	32.77
321.483	55.3
321.697	196.6
321.91	73.73
322.124	79.87
322.337	141.31
322.55	75.77
322.763	28.67
322.977	12.29
323.19	4.1
323.403	133.12
323.617	67.58
323.83	186.37
324.043	73.73
324.256	53.25
324.469	2.05
324.683	157.69
324.896	20.48
325.109	77.82
325.322	-30.72
325.535	124.93
325.748	32.77
325.962	-32.77
326.175	102.4
326.388	100.35
326.601	77.82
326.814	55.3
327.027	-2.05
327.24	186.37
327.453	-151.55
327.666	104.45
327.879	129.02
328.092	139.26
328.305	57.34
328.518	73.73
328.731	90.11
328.944	71.68
329.157	92.16
329.37	38.91
329.583	98.3
329.796	223.23
330.009	-18.43
330.222	118.78
330.435	88.06
330.648	-10.24
330.861	92.16
331.073	126.97
331.286	131.07
331.499	53.25
331.712	40.96
331.925	-16.38
332.138	98.3
332.35	178.17
332.563	67.58
332.776	145.41
332.989	55.3
333.202	28.67
333.414	43.01
333.627	32.77
333.84	63.49
334.053	69.63
334.265	10.24
334.478	40.96
334.691	22.53
334.903	98.3
335.116	4.1
335.329	-4.1
335.541	86.01
335.754	161.79
335.966	106.49
336.179	71.68
336.392	-6.14
336.604	28.67
336.817	145.41
337.029	88.06
337.242	18.43
337.454	141.31
337.667	73.73
337.88	102.4
338.092	59.39
338.305	22.53
338.517	2.05
338.729	77.82
338.942	190.46
339.154	28.67
339.367	-55.3
339.579	51.2
339.792	-4.1
340.004	120.83
340.217	49.15
340.429	116.73
340.641	36.86
340.854	20.48
341.066	6.14
341.278	110.59
341.491	92.16
341.703	51.2
341.915	49.15
342.128	149.5
342.34	161.79
342.552	-20.48
342.764	92.16
342.977	6.14
343.189	81.92
343.401	18.43
343.613	-22.53
343.826	-4.1
344.038	-24.58
344.25	81.92
344.462	34.82
344.674	112.64
344.886	14.34
345.099	45.06
345.311	71.68
345.523	38.91
345.735	-18.43
345.947	43.01
346.159	30.72
346.371	71.68
346.583	-6.14
346.795	215.04
347.007	61.44
347.219	77.82
347.431	24.58
347.643	129.02
347.855	-8.19
348.067	157.69
348.279	-40.96
348.491	55.3
348.703	102.4
348.915	73.73
349.127	-79.87
349.339	26.62
349.551	10.24
349.763	14.34
349.975	49.15
350.187	90.11
350.399	59.39
350.61	79.87
350.822	-40.96
351.034	143.36
351.246	81.92
351.458	139.26
351.669	49.15
351.881	100.35
352.093	147.45
352.305	88.06
352.517	73.73
352.728	81.92
352.94	114.69
353.152	30.72
353.363	-63.49
353.575	49.15
353.787	106.49
353.999	-8.19
354.21	131.07
354.422	-16.38
354.633	40.96
354.845	106.49
355.057	122.88
355.268	53.25
355.48	122.88
355.692	-4.1
355.903	-6.14
356.115	8.19
356.326	-47.1
356.538	147.45
356.749	65.53
356.961	159.74
357.172	86.01
357.384	-24.58
357.595	194.56
357.807	32.77
358.018	-24.58
358.23	83.97
358.441	167.93
358.653	69.63
358.864	59.39
359.075	61.44
359.287	51.2
359.498	88.06
359.709	75.77
359.921	81.92
360.132	73.73
360.344	79.87
360.555	32.77
360.766	40.96
360.977	98.3
361.189	63.49
361.4	30.72
361.611	55.3
361.823	102.4
362.034	36.86
362.245	-75.77
362.456	40.96
362.667	67.58
362.879	-0
363.09	34.82
363.301	90.11
363.512	34.82
363.723	36.86
363.935	-45.06
364.146	110.59
364.357	-53.25
364.568	114.69
364.779	-24.58
364.99	159.74
365.201	38.91
365.412	79.87
365.623	-34.82
365.834	53.25
366.045	94.21
366.256	36.86
366.467	118.78
366.678	43.01
366.889	38.91
367.1	-43.01
367.311	110.59
367.522	-8.19
367.733	98.3
367.944	61.44
368.155	69.63
368.366	102.4
368.577	114.69
368.788	116.73
368.999	-63.49
369.209	69.63
369.42	188.41
369.631	172.03
369.842	131.07
370.053	18.43
370.264	102.4
370.474	-28.67
370.685	57.34
370.896	8.19
371.107	145.41
371.317	69.63
371.528	8.19
371.739	71.68
371.95	110.59
372.16	149.5
372.371	4.1
372.582	32.77
372.792	32.77
373.003	69.63
373.214	67.58
373.424	98.3
373.635	-45.06
373.846	204.8
374.056	61.44
374.267	81.92
374.477	73.73
374.688	40.96
374.898	114.69
375.109	61.44
375.319	53.25
375.53	90.11
375.74	149.5
375.951	-40.96
376.161	174.08
376.372	124.93
376.582	-6.14
376.793	22.53
377.003	4.1
377.214	69.63
377.424	83.97
377.635	55.3
377.845	-20.48
378.055	182.27
378.266	-38.91
378.476	40.96
378.686	75.77
378.897	65.53
379.107	120.83
379.317	40.96
379.528	-47.1
379.738	18.43
379.948	-51.2
380.158	90.11
380.369	53.25
380.579	102.4
380.789	79.87
380.999	163.84
381.21	135.17
381.42	178.17
381.63	63.49
381.84	20.48
382.05	110.59
382.261	155.65
382.471	157.69
382.681	-36.86
382.891	221.18
383.101	114.69
383.311	22.53
383.521	45.06
383.731	141.31
383.941	79.87
384.151	45.06
384.361	38.91
384.571	139.26
384.781	71.68
384.991	180.22
385.201	200.7
385.411	79.87
385.621	120.83
385.831	112.64
386.041	79.87
386.251	30.72
386.461	143.36
386.671	32.77
386.881	-4.1
387.091	67.58
387.301	116.73
387.511	-12.29
387.72	139.26
387.93	139.26
388.14	-43.01
388.35	163.84
388.56	124.93
388.769	98.3
388.979	83.97
389.189	-4.1
389.399	83.97
389.609	47.1
389.818	65.53
390.028	86.01
390.238	77.82
390.447	65.53
390.657	86.01
390.867	-0
391.076	-51.2
391.286	106.49
391.496	-14.34
391.705	69.63
391.915	116.73
392.125	124.93
392.334	-38.91
392.544	126.97
392.753	63.49
392.963	43.01
393.172	86.01
393.382	8.19
393.591	217.08
393.801	2.05
394.01	188.41
394.22	104.45
394.429	-36.86
394.639	47.1
394.848	108.54
395.058	124.93
395.267	4.1
395.477	67.58
395.686	163.84
395.895	229.37
396.105	163.84
396.314	73.73
396.524	40.96
396.733	43.01
396.942	118.78
397.152	122.88
397.361	102.4
397.57	24.58
397.78	79.87
397.989	102.4
398.198	208.89
398.407	51.2
398.617	83.97
398.826	104.45
399.035	34.82
399.244	202.75
399.453	114.69
399.663	61.44
399.872	28.67
400.081	28.67
400.29	131.07
400.499	-22.53
400.708	108.54
400.917	40.96
401.127	63.49
401.336	16.38
401.545	256
401.754	102.4
401.963	73.73
402.172	120.83
402.381	-20.48
402.59	96.25
402.799	55.3
403.008	104.45
403.217	120.83
403.426	139.26
403.635	-45.06
403.844	116.73
404.053	63.49
404.262	26.62
404.471	176.13
404.68	131.07
404.888	149.5
405.097	61.44
405.306	106.49
405.515	90.11
405.724	40.96
405.933	65.53
406.142	79.87
406.35	90.11
406.559	38.91
406.768	126.97
406.977	196.6
407.185	55.3
407.394	61.44
407.603	10.24
407.812	63.49
408.02	180.22
408.229	79.87
408.438	40.96
408.646	32.77
408.855	94.21
409.064	96.25
409.272	90.11
409.481	120.83
409.69	51.2
409.898	12.29
410.107	79.87
410.315	61.44
410.524	10.24
410.733	81.92
410.941	67.58
411.15	198.65
411.358	208.89
411.567	94.21
411.775	94.21
411.984	67.58
412.192	114.69
412.401	59.39
412.609	278.52
412.818	141.31
413.026	110.59
413.234	73.73
413.443	12.29
413.651	26.62
413.86	47.1
414.068	186.37
414.276	178.17
414.485	67.58
414.693	215.04
414.901	137.21
415.11	53.25
415.318	114.69
415.526	61.44
415.734	116.73
415.943	126.97
416.151	163.84
416.359	83.97
416.567	98.3
416.776	143.36
416.984	133.12
417.192	219.13
417.4	40.96
417.608	22.53
417.817	55.3
418.025	135.17
418.233	131.07
418.441	-38.91
418.649	16.38
418.857	110.59
419.065	165.89
419.273	-32.77
419.481	30.72
419.689	49.15
419.897	16.38
420.105	-14.34
420.313	57.34
420.521	180.22
420.729	206.84
420.937	88.06
421.145	26.62
421.353	163.84
421.561	167.93
421.769	75.77
421.977	-36.86
422.185	73.73
422.393	36.86
422.601	90.11
422.809	90.11
423.017	124.93
423.224	67.58
423.432	59.39
423.64	73.73
423.848	202.75
424.056	71.68
424.263	219.13
424.471	49.15
424.679	208.89
424.887	114.69
425.094	81.92
425.302	49.15
425.51	59.39
425.718	69.63
425.925	36.86
426.133	151.55
426.341	159.74
426.548	2.05
426.756	32.77
426.964	34.82
427.171	81.92
427.379	206.84
427.586	90.11
427.794	98.3
428.001	161.79
428.209	116.73
428.417	278.52
428.624	153.6
428.832	79.87
429.039	157.69
429.247	131.07
429.454	174.08
429.662	249.85
429.869	178.17
430.076	139.26
430.284	204.8
430.491	231.42
430.699	147.45
430.906	210.94
431.114	176.13
431.321	178.17
431.528	182.27
431.736	94.21
431.943	188.41
432.15	161.79
432.358	237.56
432.565	339.96
432.772	36.86
432.979	249.85
433.187	145.41
433.394	292.86
433.601	129.02
433.808	247.8
434.016	251.9
434.223	260.09
434.43	286.72
434.637	331.77
434.844	301.05
435.052	241.66
435.259	335.87
435.466	241.66
435.673	325.63
435.88	327.67
436.087	370.68
436.294	368.63
436.501	329.72
436.708	303.1
436.915	372.73
437.122	382.97
437.329	342.01
437.537	368.63
437.743	372.73
437.95	487.42
438.157	446.46
438.364	380.92
438.571	378.87
438.778	432.12
438.985	489.46
439.192	493.56
439.399	403.45
439.606	501.75
439.813	471.03
440.02	616.44
440.227	628.73
440.433	548.86
440.64	589.82
440.847	507.9
441.054	647.16
441.261	737.27
441.467	626.68
441.674	608.25
441.881	710.65
442.088	663.54
442.294	718.84
442.501	946.16
442.708	796.66
442.914	733.17
443.121	872.43
443.328	868.34
443.534	991.22
443.741	985.07
443.948	770.04
444.154	1140.72
444.361	1259.5
444.568	1085.42
444.774	1054.7
444.981	1058.8
445.187	1273.84
445.394	1249.26
445.6	1308.65
445.807	1339.37
446.013	1325.04
446.22	1341.42
446.426	1486.83
446.633	1587.18
446.839	1726.44
447.046	1445.87
447.252	1728.49
447.459	1783.78
447.665	1724.39
447.871	1931.23
448.078	2023.39
448.284	1896.42
448.491	2097.12
448.697	2160.61
448.903	2406.36
449.11	2316.25
449.316	2258.91
449.522	2531.29
449.728	2637.78
449.935	2572.25
450.141	2654.17
450.347	2914.26
450.553	2836.44
450.76	2949.07
450.966	2918.36
451.172	3217.36
451.378	3317.71
451.584	3442.64
451.791	3561.42
451.997	3719.11
452.203	3882.95
452.409	3938.24
452.615	3973.06
452.821	3968.96
453.027	4007.87
453.233	4538.3
453.44	4480.96
453.646	4573.11
453.852	4716.47
454.058	5087.15
454.264	5205.94
454.47	5560.24
454.676	5701.54
454.882	6051.75
455.088	5691.31
455.294	6170.53
455.5	6467.49
455.705	7071.64
455.911	6944.66
456.117	7073.68
456.323	7260.05
456.529	7276.43
456.735	8089.48
456.941	8245.12
457.147	8587.13
457.352	8898.42
457.558	8980.34
457.764	9666.41
457.97	9871.21
458.176	10266.47
458.381	10729.31
458.587	10921.82
458.793	11274.07
458.999	11386.71
459.204	12875.58
459.41	13403.96
459.616	13219.64
459.821	13973.29
460.027	14370.6
460.233	15161.11
460.438	15154.97
460.644	16224.01
460.85	16285.45
461.055	17143.55
461.261	18126.57
461.466	17372.92
461.672	17696.5
461.878	19865.3
462.083	19388.12
462.289	20057.81
462.494	20868.8
462.7	20995.78
462.905	21178.04
463.111	22879.91
463.316	24092.3
463.522	24618.63
463.727	25562.75
463.932	26349.17
464.138	27405.92
464.343	28376.65
464.549	28163.67
464.754	30305.84
464.959	31196.71
465.165	32024.09
465.37	31720.99
465.575	31553.05
465.781	33728
465.986	34629.1
466.191	34280.95
466.397	34461.17
466.602	33693.18
466.807	35534.31
467.012	36810.19
467.218	36627.92
467.423	37244.36
467.628	37989.82
467.833	39787.94
468.038	39138.73
468.244	38385.08
468.449	40080.8
468.654	39282.09
468.859	39435.69
469.064	39933.34
469.269	38313.4
469.474	38745.52
469.679	39949.73
469.885	38841.78
470.09	39241.13
470.295	39558.56
470.5	38434.23
470.705	38616.5
470.91	37739.97
471.115	37348.81
471.32	38116.79
471.525	37699.01
471.73	36910.54
471.935	36257.24
472.139	34956.78
472.344	35536.35
472.549	35085.8
472.754	34227.7
472.959	33551.87
473.164	32511.5
473.369	31929.88
473.574	32980.49
473.778	31798.81
473.983	31755.8
474.188	31000.1
474.393	29582.91
474.598	29369.92
474.802	28923.46
475.007	28585.55
475.212	28134.99
475.417	26713.7
475.621	26715.75
475.826	26556.01
476.031	25796.21
476.235	25138.82
476.44	25353.85
476.645	24848
476.849	24659.59
477.054	24077.97
477.259	23635.61
477.463	23414.43
477.668	22834.85
477.872	23119.52
478.077	22097.58
478.282	21229.24
478.486	21262.01
478.691	21040.83
478.895	21165.76
479.1	20403.91
479.304	20762.31
479.509	20008.65
479.713	20307.66
479.918	19855.06
480.122	19447.51
480.326	19621.59
480.531	19543.77
480.735	19150.56
480.94	19039.97
481.144	19310.3
481.348	18570.98
481.553	18716.39
481.757	18015.98
481.961	18476.77
482.166	18390.76
482.37	18132.72
482.574	17843.95
482.778	17970.93
482.983	17981.17
483.187	17503.99
483.391	17657.59
483.595	17194.75
483.8	16895.74
484.004	17170.17
484.208	16809.73
484.412	16469.76
484.616	16269.06
484.821	16547.59
485.025	15765.26
485.229	16105.23
485.433	15683.34
485.637	15515.41
485.841	15327
486.045	15126.3
486.249	15077.15
486.453	14931.74
486.657	14599.97
486.861	14354.21
487.065	13895.47
487.269	14073.64
487.473	13702.96
487.677	13647.66
487.881	13410.1
488.085	13012.79
488.289	12947.26
488.493	12441.41
488.697	12398.4
488.901	12339.01
489.105	11882.31
489.309	11665.23
489.512	11622.22
489.716	11202.39
489.92	11073.37
490.124	11018.07
490.328	11046.74
490.531	10639.2
490.735	10532.7
490.939	10286.95
491.143	10196.84
491.346	9944.94
491.55	9707.37
491.754	9678.7
491.958	9461.62
492.161	9219.96
492.365	9185.14
492.569	9113.46
492.772	8949.62
492.976	8804.22
493.18	8601.47
493.383	8624
493.587	8552.32
493.79	8437.63
493.994	8185.73
494.197	8087.43
494.401	8267.65
494.605	7989.13
494.808	7989.13
495.012	7970.69
495.215	7753.61
495.419	7958.41
495.622	7587.72
495.825	7585.68
496.029	7587.72
496.232	7747.47
496.436	7591.82
496.639	7763.85
496.843	7491.47
497.046	7620.49
497.249	7724.94
497.453	7647.12
497.656	7425.93
497.859	7516.05
498.063	7554.96
498.266	7643.02
498.469	7333.78
498.673	7505.81
498.876	7444.37
499.079	7636.88
499.282	7688.07
499.485	7933.83
499.689	7679.88
499.892	7929.73
500.095	7804.81
500.298	7954.31
500.501	7884.68
500.705	8044.42
500.908	8273.79
501.111	8128.39
501.314	8265.6
501.517	8466.3
501.72	8327.04
501.923	8400.77
502.126	8583.04
502.329	8691.58
502.532	8693.63
502.735	8607.61
502.938	8892.28
503.141	8830.84
503.344	9152.37
503.547	9240.43
503.75	9228.15
503.953	9367.41
504.156	9570.16
504.359	9723.76
504.562	9772.91
504.765	9863.02
504.968	10213.22
505.17	10082.15
505.373	10458.98
505.576	10698.59
505.779	10768.22
505.982	10903.39
506.185	11065.18
506.387	11222.87
506.59	11595.6
506.793	11882.31
506.996	11749.2
507.198	12437.31
507.401	12304.2
507.604	12316.48
507.807	12805.95
508.009	13129.53
508.212	13381.43
508.415	13537.07
508.617	13895.47
508.82	13989.67
509.022	14141.22
509.225	14765.85
509.428	15267.61
509.63	15372.05
509.833	15245.08
510.035	16078.6
510.238	16129.8
510.44	16520.96
510.643	17254.14
510.845	17321.72
511.048	17311.48
511.25	17866.48
511.453	18472.68
511.655	19066.59
511.858	19308.25
512.06	19955.41
512.262	20192.97
512.465	20272.84
512.667	20915.9
512.87	21462.71
513.072	22066.86
513.274	22587.05
513.477	23156.38
513.679	23453.34
513.881	24049.3
514.084	24413.84
514.286	24888.96
514.488	25648.76
514.69	26218.1
514.893	27055.72
515.095	27391.58
515.297	27686.49
515.499	28180.05
515.701	29079.11
515.904	29697.59
516.106	30176.82
516.308	30494.25
516.51	31671.84
516.712	32161.3
516.914	32454.16
517.116	33306.12
517.318	33793.53
517.52	34192.89
517.722	34782.7
517.925	35810.78
518.127	36818.38
518.329	37057.99
518.531	37033.42
518.733	38507.96
518.935	39052.72
519.136	38972.85
519.338	40000.93
519.54	40539.54
519.742	41248.14
519.944	41831.81
520.146	42222.97
520.348	43113.84
520.55	43634.02
520.752	43963.75
520.954	44426.59
521.155	44782.93
521.357	45389.13
521.559	46228.8
521.761	46966.07
521.963	46884.15
522.164	47551.79
522.366	47754.54
522.568	48301.34
522.77	48315.68
522.971	49491.21
523.173	48715.03
523.375	49671.43
523.576	49435.92
523.778	49575.18
523.98	50480.38
524.181	50754.81
524.383	50906.36
524.584	50799.86
524.786	50705.66
524.988	50791.67
525.189	51082.48
525.391	51340.53
525.592	51182.83
525.794	51010.81
525.995	51363.06
526.197	51088.63
526.398	51326.19
526.6	51150.07
526.801	51023.09
527.003	51135.73
527.204	50547.96
527.406	50855.16
527.607	50205.95
527.808	50636.03
528.01	49253.65
528.211	49106.19
528.412	49566.99
528.614	49693.96
528.815	49153.3
529.016	49173.78
529.218	47918.37
529.419	47947.04
529.62	47705.38
529.822	47007.03
530.023	46683.45
530.224	46138.69
530.425	45567.3
530.626	45266.25
530.828	44672.34
531.029	44850.52
531.23	43406.7
531.431	43269.48
531.632	43203.95
531.833	42857.84
532.035	42153.34
532.236	41842.05
532.437	41072.01
532.638	40777.11
532.839	40181.15
533.04	39976.35
533.241	38471.09
533.442	39476.65
533.643	38065.6
533.844	37701.06
534.045	37221.83
534.246	36486.61
534.447	36314.58
534.648	35585.5
534.849	35558.88
535.05	34526.71
535.251	34299.38
535.451	33854.97
535.652	33596.93
535.853	32957.96
536.054	32615.95
536.255	31993.37
536.456	31579.68
536.657	31677.98
536.857	30799.4
537.058	30187.06
537.259	30256.69
537.46	29546.05
537.66	29152.84
537.861	28792.39
538.062	28302.93
538.263	27960.92
538.463	27866.71
538.664	27338.33
538.865	27170.4
539.065	26861.16
539.266	26224.24
539.466	26394.22
539.667	25734.78
539.868	25736.82
540.068	25079.43
540.269	24696.46
540.469	24823.43
540.67	24344.2
540.87	24096.4
541.071	23862.93
541.271	23627.42
541.472	23152.29
541.672	22828.71
541.873	22666.92
542.073	22183.6
542.274	22345.39
542.474	22066.86
542.675	21411.51
542.875	21487.29
543.075	21126.85
543.276	20702.92
543.476	21219
543.676	20559.56
543.877	20645.57
544.077	20102.86
544.277	19664.6
544.478	19691.22
544.678	19390.17
544.878	19228.38
545.078	18892.51
545.279	18822.88
545.479	18472.68
545.679	18636.52
545.879	18155.24
546.079	17839.86
546.28	17696.5
546.48	17565.43
546.68	17467.13
546.88	17293.05
547.08	16918.27
547.28	16715.52
547.48	16406.28
547.68	16682.75
547.88	16267.02
548.081	16060.17
548.281	15677.2
548.481	15181.59
548.681	15427.35
548.881	15318.81
549.081	15013.66
549.28	14804.77
549.48	14632.74
549.68	14253.86
549.88	14231.33
550.08	13895.47
550.28	13825.84
550.48	13494.07
550.68	13393.72
550.88	13070.14
551.08	13023.03
551.279	12971.83
551.479	12404.55
551.679	12842.81
551.879	12226.37
552.079	12240.71
552.278	11951.95
552.478	11970.38
552.678	11749.2
552.878	11487.06
553.077	11196.25
553.277	10876.76
553.477	11093.85
553.676	10786.65
553.876	10667.87
554.076	10274.66
554.275	10368.87
554.475	9957.22
554.674	9965.42
554.874	9981.8
555.074	9586.54
555.273	9441.14
555.473	9412.46
555.672	9144.18
555.872	9082.74
556.071	8873.85
556.271	8871.8
556.47	8568.7
556.67	8349.57
556.869	8372.1
557.068	8226.69
557.268	8015.75
557.467	8001.41
557.667	8021.89
557.866	7839.62
558.065	7747.47
558.265	7444.37
558.464	7212.95
558.663	7194.51
558.863	7071.64
559.062	6985.62
559.261	6811.54
559.461	6940.57
559.66	6612.89
559.859	6547.36
560.058	6379.42
560.258	6307.74
560.457	6197.15
560.656	6348.7
560.855	5957.54
561.054	6080.42
561.253	5797.8
561.453	5816.23
561.652	5730.22
561.851	5713.83
562.05	5627.82
562.249	5382.06
562.448	5482.41
562.647	5210.03
562.846	5078.96
563.045	5111.73
563.244	5052.34
563.443	5089.2
563.642	4898.74
563.841	4839.35
564.04	4841.4
564.239	4720.57
564.438	4587.45
564.637	4562.87
564.836	4433.85
565.035	4411.32
565.234	4251.58
565.432	4251.58
565.631	4278.21
565.83	4061.12
566.029	4040.64
566.228	3905.48
566.427	4128.7
566.625	3987.4
566.824	4075.46
567.023	3862.47
567.222	3815.37
567.42	3723.21
567.619	3702.73
567.818	3641.29
568.016	3637.19
568.215	3602.38
568.414	3522.51
568.612	3405.77
568.811	3387.34
569.01	3295.18
569.208	3170.26
569.407	3305.42
569.605	3241.93
569.804	3162.06
570.002	3065.81
570.201	2965.46
570.4	3139.54
570.598	2934.74
570.797	2781.14
570.995	2877.4
571.193	2846.68
571.392	2734.04
571.59	2777.05
571.789	2738.13
571.987	2701.27
572.186	2734.04
572.384	2701.27
572.582	2547.67
572.781	2676.7
572.979	2369.5
573.177	2451.42
573.376	2418.65
573.574	2486.23
573.772	2328.54
573.971	2220
574.169	2099.17
574.367	2252.77
574.565	2209.76
574.763	2211.81
574.962	2107.36
575.16	1984.48
575.358	2000.87
575.556	1966.05
575.754	1937.38
575.952	1906.66
576.151	1877.99
576.349	1941.47
576.547	1834.98
576.745	1916.9
576.943	1771.49
577.141	1830.88
577.339	1734.63
577.537	1753.06
577.735	1720.29
577.933	1630.18
578.131	1519.59
578.329	1654.76
578.527	1488.87
578.725	1576.94
578.923	1454.06
579.121	1576.94
579.319	1468.39
579.516	1392.62
579.714	1613.8
579.912	1558.5
580.11	1290.22
580.308	1249.26
580.506	1279.98
580.704	1210.35
580.901	1204.21
581.099	1370.09
581.297	1413.1
581.495	1302.51
581.692	1327.08
581.89	1460.2
582.088	1279.98
582.285	1159.15
582.483	1216.49
582.681	1220.59
582.878	1181.68
583.076	1181.68
583.274	1165.29
583.471	1282.03
583.669	1079.28
583.866	1042.42
584.064	999.41
584.262	950.26
584.459	925.68
584.657	1103.86
584.854	1095.66
585.052	1017.84
585.249	942.07
585.447	1056.75
585.644	882.67
585.841	1009.65
586.039	1003.5
586.236	958.45
586.434	929.78
586.631	890.87
586.828	794.61
587.026	802.8
587.223	802.8
587.42	808.95
587.618	888.82
587.815	819.19
588.012	839.67
588.21	854
588.407	864.24
588.604	860.15
588.801	784.37
588.999	772.08
589.196	854
589.393	729.08
589.59	761.84
589.787	724.98
589.984	788.47
590.182	780.28
590.379	630.77
590.576	786.42
590.773	722.93
590.97	761.84
591.167	751.6
591.364	712.69
591.561	647.16
591.758	765.94
591.955	778.23
592.152	774.13
592.349	716.79
592.546	706.55
592.743	722.93
592.94	598.01
593.137	731.12
593.334	645.11
593.531	700.41
593.727	722.93
593.924	671.73
594.121	782.32
594.318	704.5
594.515	688.12
594.712	759.8
594.908	813.04
595.105	722.93
595.302	808.95
595.499	821.24
595.696	790.52
595.892	739.32
596.089	747.51
596.286	751.6
596.482	905.2
596.679	819.19
596.876	880.63
597.072	1011.7
597.269	884.72
597.466	968.69
597.662	970.74
597.859	876.53
598.055	1056.75
598.252	983.02
598.448	1110
598.645	1095.66
598.841	1159.15
599.038	1236.97
599.234	1349.61
599.431	1271.79
599.627	1380.33
599.824	1415.15
600.02	1406.95
600.217	1460.2
600.413	1535.98
600.609	1626.09
600.806	1810.4
601.002	1710.05
601.198	1826.79
601.395	2009.06
601.591	1957.86
601.787	2103.26
601.984	2088.93
602.18	2140.13
602.376	2136.03
602.572	2437.08
602.769	2396.12
602.965	2373.6
603.161	2738.13
603.357	2580.44
603.553	2750.42
603.75	2703.32
603.946	2891.73
604.142	2891.73
604.338	3223.5
604.534	3114.96
604.73	3340.24
604.926	3258.32
605.122	3567.56
605.318	3667.91
605.514	3794.89
605.71	3864.52
605.906	3940.29
606.102	4128.7
606.298	4175.81
606.494	4460.48
606.69	4595.64
606.886	4564.92
607.082	4583.35
607.278	4771.77
607.474	5058.48
607.67	5113.78
607.866	5126.07
608.062	5486.51
608.257	5504.94
608.453	5633.96
608.649	5883.81
608.845	5945.25
609.041	6002.6
609.236	6358.94
609.432	6539.16
609.628	6684.57
609.824	6903.7
610.019	6934.42
610.215	7114.64
610.411	7532.43
610.606	7616.4
610.802	7823.24
610.998	7993.22
611.193	8341.38
611.389	8241.03
611.584	8744.83
611.78	8601.47
611.976	8869.75
612.171	9484.14
612.367	9533.29
612.562	9846.63
612.758	9914.22
612.953	10243.94
613.149	10542.94
613.344	10807.13
613.539	11011.93
613.735	11321.17
613.93	11767.63
614.126	11779.92
614.321	12390.21
614.517	12670.78
614.712	12943.16
614.907	13283.13
615.103	13717.29
615.298	13809.45
615.493	14245.67
615.688	14384.93
615.884	15101.72
616.079	15087.39
616.274	15724.3
616.47	15873.81
616.665	16563.97
616.86	16824.06
617.055	17184.51
617.25	17741.55
617.445	18382.57
617.641	18284.26
617.836	18908.9
618.031	19173.08
618.226	20018.89
618.421	20207.31
618.616	20928.19
618.811	21356.22
619.006	22027.95
619.201	22189.74
619.396	22668.97
619.591	23189.15
619.786	24004.24
619.981	23772.82
620.176	24966.79
620.371	25097.86
620.566	25814.65
620.761	26052.21
620.956	27047.52
621.151	27156.07
621.346	27776.6
621.541	28120.66
621.735	28966.47
621.93	29290.05
622.125	30111.28
622.32	30178.87
622.515	31125.03
622.709	31663.64
622.904	32175.64
623.099	32914.95
623.294	33537.54
623.488	33820.16
623.683	34504.18
623.878	34727.41
624.072	35562.98
624.267	35462.63
624.462	36761.04
624.656	36677.07
624.851	37311.94
625.046	38114.75
625.24	38620.59
625.435	38809.01
625.629	39515.56
625.824	40060.32
626.018	40453.53
626.213	40426.9
626.407	41143.69
626.602	41244.04
626.796	42349.95
626.991	42276.22
627.185	42816.88
627.38	43036.02
627.574	43206
627.768	43287.92
627.963	43494.76
628.157	43701.61
628.352	44098.91
628.546	43527.53
628.74	44043.62
628.935	43681.13
629.129	43711.85
629.323	42655.09
629.517	43140.46
629.712	42499.45
629.906	42554.74
630.1	41903.49
630.294	41311.63
630.489	41080.21
630.683	40832.4
630.877	39792.03
631.071	38981.04
631.265	38892.97
631.459	37189.06
631.653	36611.54
631.848	35855.84
632.042	35122.66
632.236	34403.83
632.43	33336.84
632.624	32607.76
632.818	31610.4
633.012	30185.01
633.206	29568.57
633.4	28692.04
633.594	27471.45
633.788	26728.04
633.982	25570.94
634.176	24800.9
634.369	23625.37
634.563	22994.59
634.757	21974.7
634.951	21675.7
635.145	20686.53
635.339	19609.3
635.533	18589.41
635.726	18145
635.92	17342.2
636.114	16912.13
636.308	15920.91
636.501	15320.85
636.695	14792.48
636.889	13879.08
637.083	13600.56
637.276	13010.75
637.47	12146.5
637.664	11892.55
637.857	11509.58
638.051	11038.55
638.244	10663.77
638.438	10133.35
638.632	9852.78
638.825	9445.23
639.019	9158.52
639.212	8691.58
639.406	8408.96
639.599	7769.99
639.793	7665.55
639.986	7362.45
640.18	6981.53
640.373	6657.95
640.567	6360.99
640.76	6277.02
640.954	6082.47
641.147	5795.75
641.34	5615.53
641.534	5324.72
641.727	5367.73
641.92	5066.67
642.114	4808.63
642.307	4599.74
642.5	4466.62
642.694	4267.97
642.887	4104.13
643.08	3923.91
643.273	3852.23
643.467	3604.42
643.66	3463.12
643.853	3350.48
644.046	3237.84
644.239	3098.58
644.432	2891.73
644.626	2809.81
644.819	2727.89
645.012	2805.72
645.205	2621.4
645.398	2523.1
645.591	2373.6
645.784	2129.89
645.977	2267.1
646.17	2197.47
646.363	1931.23
646.556	1791.97
646.749	1757.16
646.942	1751.01
647.135	1765.35
647.328	1695.72
647.521	1736.68
647.714	1523.69
647.907	1497.07
648.099	1417.19
648.292	1558.5
648.485	1411.05
648.678	1331.18
648.871	1175.53
649.064	1255.4
649.256	1177.58
649.449	1144.81
649.642	1044.46
649.835	1036.27
650.027	1017.84
650.22	1015.79
650.413	933.87
650.605	978.93
650.798	890.87
650.991	714.74
651.183	788.47
651.376	815.09
651.568	862.19
651.761	784.37
651.954	722.93
652.146	716.79
652.339	833.52
652.531	710.65
652.724	591.86
652.916	589.82
653.109	563.19
653.301	690.17
653.494	630.77
653.686	589.82
653.879	567.29
654.071	604.15
654.263	493.56
654.456	466.94
654.648	440.31
654.84	511.99
655.033	385.02
655.225	536.57
655.417	317.44
655.61	555
655.802	428.03
655.994	448.51
656.186	423.93
656.379	438.27
656.571	403.45
656.763	327.67
656.955	382.97
657.148	397.31
657.34	409.59
657.532	303.1
657.724	294.91
657.916	299
658.108	434.17
658.3	358.39
658.492	331.77
658.684	274.43
658.876	378.87
659.068	186.37
659.26	149.5
659.452	198.65
659.644	233.47
659.836	348.15
660.028	280.57
660.22	172.03
660.412	276.48
660.604	270.33
660.796	231.42
660.988	358.39
661.18	212.99
661.372	305.15
661.563	178.17
661.755	221.18
661.947	145.41
662.139	116.73
662.331	227.32
662.522	239.61
662.714	126.97
662.906	86.01
663.097	114.69
663.289	186.37
663.481	65.53
663.673	198.65
663.864	110.59
664.056	169.98
664.247	182.27
664.439	245.76
664.631	202.75
664.822	196.6
665.014	163.84
665.205	163.84
665.397	157.69
665.588	212.99
665.78	190.46
665.971	219.13
666.163	114.69
666.354	227.32
666.546	110.59
666.737	135.17
666.929	100.35
667.12	79.87
667.311	229.37
667.503	165.89
667.694	100.35
667.885	133.12
668.077	149.5
668.268	90.11
668.459	184.32
668.651	137.21
668.842	155.65
669.033	143.36
669.224	61.44
669.416	149.5
669.607	79.87
669.798	135.17
669.989	274.43
670.18	188.41
670.371	270.33
670.563	45.06
670.754	188.41
670.945	139.26
671.136	208.89
671.327	63.49
671.518	260.09
671.709	231.42
671.9	167.93
672.091	227.32
672.282	147.45
672.473	124.93
672.664	24.58
672.855	131.07
673.046	129.02
673.237	243.71
673.428	169.98
673.619	210.94
673.809	116.73
674	202.75
674.191	169.98
674.382	86.01
674.573	202.75
674.764	73.73
674.954	221.18
675.145	131.07
675.336	112.64
675.527	75.77
675.717	112.64
675.908	174.08
676.099	73.73
676.289	47.1
676.48	-10.24
676.671	116.73
676.861	110.59
677.052	167.93
677.243	143.36
677.433	71.68
677.624	176.13
677.814	229.37
678.005	118.78
678.195	303.1
678.386	67.58
678.576	129.02
678.767	-10.24
678.957	196.6
679.148	167.93
679.338	276.48
679.529	169.98
679.719	118.78
679.909	227.32
680.1	135.17
680.29	116.73
680.481	47.1
680.671	182.27
680.861	307.2
681.052	120.83
681.242	157.69
681.432	172.03
681.622	120.83
681.813	47.1
682.003	151.55
682.193	6.14
682.383	147.45
682.573	155.65
682.764	126.97
682.954	172.03
683.144	274.43
683.334	112.64
683.524	188.41
683.714	133.12
683.904	262.14
684.094	129.02
684.284	145.41
684.474	305.15
684.664	247.8
684.854	210.94
685.044	163.84
685.234	112.64
685.424	137.21
685.614	81.92
685.804	362.49
685.994	239.61
686.184	215.04
686.374	186.37
686.564	126.97
686.753	169.98
686.943	96.25
687.133	155.65
687.323	221.18
687.513	159.74
687.702	206.84
687.892	153.6
688.082	264.19
688.272	186.37
688.461	167.93
688.651	299
688.841	223.23
689.03	198.65
689.22	137.21
689.41	219.13
689.599	137.21
689.789	147.45
689.979	280.57
690.168	118.78
690.358	243.71
690.547	151.55
690.737	145.41
690.926	188.41
691.116	231.42
691.305	264.19
691.495	182.27
691.684	124.93
691.874	118.78
692.063	167.93
692.252	196.6
692.442	215.04
692.631	200.7
692.82	149.5
693.01	204.8
693.199	137.21
693.388	155.65
693.578	217.08
693.767	139.26
693.956	303.1
694.146	176.13
694.335	206.84
694.524	110.59
694.713	264.19
694.902	129.02
695.092	135.17
695.281	194.56
695.47	176.13
695.659	141.31
695.848	206.84
696.037	110.59
696.226	235.52
696.415	202.75
696.604	237.56
696.793	210.94
696.982	53.25
697.171	249.85
697.36	151.55
697.549	149.5
697.738	43.01
697.927	145.41
698.116	102.4
698.305	196.6
698.494	161.79
698.683	145.41
698.872	339.96
699.061	200.7
699.25	133.12
699.438	200.7
699.627	184.32
699.816	311.29
700.005	112.64
700.193	69.63
700.382	204.8
700.571	120.83
700.76	163.84
700.948	172.03
701.137	249.85
701.326	196.6
701.514	143.36
701.703	268.28
701.892	184.32
702.08	208.89
702.269	106.49
702.457	22.53
702.646	131.07
702.834	147.45
703.023	280.57
703.212	237.56
703.4	153.6
703.589	126.97
703.777	106.49
703.965	157.69
704.154	159.74
704.342	157.69
704.531	122.88
704.719	219.13
704.907	223.23
705.096	40.96
705.284	116.73
705.472	161.79
705.661	196.6
705.849	221.18
706.037	204.8
706.226	116.73
706.414	116.73
706.602	174.08
706.79	210.94
706.979	100.35
707.167	210.94
707.355	18.43
707.543	231.42
707.731	221.18
707.919	219.13
708.107	145.41
708.296	139.26
708.484	53.25
708.672	196.6
708.86	258.04
709.048	178.17
709.236	83.97
709.424	235.52
709.612	129.02
709.8	106.49
709.988	231.42
710.176	286.72
710.364	206.84
710.551	192.51
710.739	157.69
710.927	98.3
711.115	133.12
711.303	249.85
711.491	301.05
711.679	210.94
711.866	98.3
712.054	137.21
712.242	204.8
712.43	280.57
712.617	126.97
712.805	251.9
712.993	143.36
713.181	100.35
713.368	227.32
713.556	155.65
713.744	176.13
713.931	276.48
714.119	260.09
714.306	139.26
714.494	143.36
714.682	212.99
714.869	96.25
715.057	190.46
715.244	14.34
715.432	161.79
715.619	73.73
715.807	176.13
715.994	88.06
716.182	118.78
716.369	317.44
716.556	294.91
716.744	55.3
716.931	110.59
717.119	274.43
717.306	163.84
717.493	194.56
717.681	65.53
717.868	172.03
718.055	137.21
718.242	161.79
718.43	241.66
718.617	299
718.804	180.22
718.991	276.48
719.179	266.24
719.366	180.22
719.553	147.45
719.74	159.74
719.927	184.32
720.114	188.41
720.301	131.07
720.488	241.66
720.676	65.53
720.863	333.82
721.05	264.19
721.237	247.8
721.424	266.24
721.611	149.5
721.798	124.93
721.985	200.7
722.172	86.01
722.358	124.93
722.545	296.96
722.732	137.21
722.919	270.33
723.106	237.56
723.293	147.45
723.48	188.41
723.667	139.26
723.853	270.33
724.04	210.94
724.227	311.29
724.414	161.79
724.6	198.65
724.787	305.15
724.974	313.34
725.161	212.99
725.347	153.6
725.534	225.28
725.72	243.71
725.907	288.76
726.094	241.66
726.28	161.79
726.467	131.07
726.653	151.55
726.84	245.76
727.027	270.33
727.213	192.51
727.4	313.34
727.586	299
727.773	200.7
727.959	286.72
728.145	215.04
728.332	153.6
728.518	96.25
728.705	288.76
728.891	225.28
729.077	245.76
729.264	167.93
729.45	139.26
729.636	235.52
729.823	208.89
730.009	270.33
730.195	196.6
730.382	221.18
730.568	194.56
730.754	286.72
730.94	135.17
731.126	233.47
731.313	243.71
731.499	225.28
731.685	292.86
731.871	282.62
732.057	180.22
732.243	264.19
732.429	225.28
732.615	301.05
732.801	346.11
732.987	223.23
733.173	141.31
733.359	192.51
733.545	301.05
733.731	167.93
733.917	296.96
734.103	258.04
734.289	253.95
734.475	192.51
734.661	303.1
734.847	221.18
735.033	270.33
735.219	305.15
735.404	188.41
735.59	147.45
735.776	245.76
735.962	188.41
736.148	204.8
736.333	337.91
736.519	208.89
736.705	223.23
736.89	163.84
737.076	272.38
737.262	143.36
737.447	143.36
737.633	202.75
737.819	251.9
738.004	260.09
738.19	198.65
738.375	284.67
738.561	364.54
738.747	219.13
738.932	163.84
739.118	327.67
739.303	337.91
739.489	268.28
739.674	231.42
739.859	153.6
740.045	258.04
740.23	229.37
740.416	83.97
740.601	247.8
740.786	245.76
740.972	188.41
741.157	167.93
741.342	215.04
741.528	112.64
741.713	335.87
741.898	139.26
742.084	266.24
742.269	188.41
742.454	270.33
742.639	227.32
742.824	194.56
743.01	251.9
743.195	333.82
743.38	143.36
743.565	253.95
743.75	184.32
743.935	217.08
744.12	251.9
744.305	92.16
744.49	264.19
744.675	157.69
744.86	141.31
745.045	237.56
745.23	137.21
745.415	143.36
745.6	366.59
745.785	208.89
745.97	225.28
746.155	270.33
746.34	346.11
746.525	225.28
746.71	327.67
746.895	92.16
747.079	116.73
747.264	90.11
747.449	180.22
747.634	288.76
747.819	264.19
748.003	83.97
748.188	92.16
748.373	350.2
748.557	253.95
748.742	147.45
748.927	219.13
749.111	196.6
749.296	114.69
749.481	249.85
749.665	131.07
749.85	141.31
750.034	200.7
750.219	237.56
750.404	73.73
750.588	131.07
750.773	98.3
750.957	116.73
751.141	67.58
751.326	200.7
751.51	106.49
751.695	204.8
751.879	167.93
752.064	382.97
752.248	163.84
752.432	303.1
752.617	311.29
752.801	212.99
752.985	77.82
753.17	237.56
753.354	122.88
753.538	180.22
753.722	124.93
753.907	157.69
754.091	90.11
754.275	208.89
754.459	-32.77
754.643	71.68
754.828	190.46
755.012	176.13
755.196	34.82
755.38	157.69
755.564	108.54
755.748	149.5
755.932	167.93
756.116	153.6
756.3	145.41
756.484	153.6
756.668	149.5
756.852	34.82
757.036	163.84
757.22	161.79
757.404	116.73
757.588	133.12
757.772	106.49
757.956	122.88
758.14	200.7
758.323	100.35
758.507	100.35
758.691	47.1
758.875	219.13
759.059	122.88
759.242	86.01
759.426	124.93
759.61	108.54
759.794	90.11
759.977	176.13
760.161	335.87
760.345	174.08
760.528	180.22
760.712	98.3
760.895	153.6
761.079	161.79
761.263	86.01
761.446	73.73
761.63	69.63
761.813	231.42
761.997	145.41
762.18	73.73
762.364	126.97
762.547	2.05
762.731	124.93
762.914	51.2
763.098	131.07
763.281	98.3
763.464	57.34
763.648	122.88
763.831	34.82
764.015	98.3
764.198	200.7
764.381	49.15
764.564	139.26
764.748	165.89
764.931	131.07
765.114	63.49
765.297	196.6
765.481	69.63
765.664	57.34
765.847	71.68
766.03	215.04
766.213	40.96
766.397	79.87
766.58	6.14
766.763	184.32
766.946	94.21
767.129	114.69
767.312	69.63
767.495	49.15
767.678	65.53
767.861	69.63
768.044	36.86
768.227	-8.19
768.41	176.13
768.593	133.12
768.776	155.65
768.959	8.19
769.142	184.32
769.324	100.35
769.507	26.62
769.69	10.24
769.873	73.73
770.056	278.52
770.239	102.4
770.421	163.84
770.604	83.97
770.787	55.3
770.97	79.87
771.152	20.48
771.335	116.73
771.518	-12.29
771.7	161.79
771.883	155.65
772.066	59.39
772.248	137.21
772.431	202.75
772.613	129.02
772.796	40.96
772.978	61.44
773.161	149.5
773.343	79.87
773.526	34.82
773.708	-96.25
773.891	-47.1
774.073	116.73
774.256	45.06
774.438	237.56
774.621	100.35
774.803	157.69
774.985	40.96
775.168	157.69
775.35	14.34
775.532	118.78
775.715	10.24
775.897	129.02
776.079	65.53
776.261	133.12
776.444	34.82
776.626	-20.48
776.808	116.73
776.99	53.25
777.173	53.25
777.355	65.53
777.537	133.12
777.719	129.02
777.901	90.11
778.083	8.19
778.265	-22.53
778.447	94.21
778.629	-51.2
778.811	122.88
778.993	225.28
779.175	120.83
779.357	14.34
779.539	-36.86
779.721	51.2
779.903	98.3
780.085	-32.77
780.267	122.88
780.449	43.01
780.631	18.43
780.812	90.11
780.994	32.77
781.176	24.58
781.358	-0
781.54	43.01
781.721	100.35
781.903	90.11
782.085	86.01
782.267	81.92
782.448	-65.54
782.63	-28.67
782.812	81.92
782.993	71.68
783.175	100.35
783.357	22.53
783.538	129.02
783.72	45.06
783.901	16.38
784.083	47.1
784.264	55.3
784.446	-67.58
784.627	6.14
784.809	88.06
784.99	-12.29
785.172	90.11
785.353	32.77
785.535	75.77
785.716	-12.29
785.897	96.25
786.079	28.67
786.26	57.34
786.441	94.21
786.623	-34.82
786.804	-0
786.985	-55.3
787.167	81.92
787.348	73.73
787.529	102.4
787.71	131.07
787.891	102.4
788.073	57.34
788.254	-96.25
788.435	159.74
788.616	79.87
788.797	-45.06
788.978	12.29
789.159	61.44
789.34	22.53
789.522	4.1
789.703	49.15
789.884	8.19
790.065	51.2
790.246	114.69
790.427	47.1
790.607	159.74
790.788	100.35
790.969	4.1
791.15	145.41
791.331	22.53
791.512	24.58
791.693	36.86
791.874	18.43
792.054	217.08
792.235	188.41
792.416	-53.25
792.597	-45.06
792.778	100.35
792.958	71.68
793.139	24.58
793.32	12.29
793.5	8.19
793.681	141.31
793.862	65.53
794.042	67.58
794.223	-106.49
794.404	18.43
794.584	-24.58
794.765	38.91
794.945	-4.1
795.126	112.64
795.306	112.64
795.487	-40.96
795.667	102.4
795.848	67.58
796.028	24.58
796.209	53.25
796.389	88.06
796.57	10.24
796.75	-67.58
796.93	71.68
797.111	-2.05
797.291	-34.82
797.471	73.73
797.652	88.06
797.832	-57.34
798.012	32.77
798.192	-22.53
798.373	-45.06
798.553	22.53
798.733	4.1
798.913	-59.39
799.093	-6.14
799.274	30.72
799.454	73.73
799.634	43.01
799.814	106.49
799.994	71.68
800.174	22.53
800.354	16.38
800.534	-90.11
800.714	63.49
800.894	-57.34
801.074	-26.62
801.254	-12.29
801.434	167.93
801.614	22.53
801.794	-32.77
801.974	1986.53
802.154	-45.06
802.334	40.96
802.514	-36.86
802.693	24.58
802.873	8.19
803.053	92.16
803.233	69.63
803.413	28.67
803.592	-40.96
803.772	18.43
803.952	71.68
804.131	-18.43
804.311	75.77
804.491	104.45
804.67	14.34
804.85	-8.19
805.03	104.45
805.209	71.68
805.389	-22.53
805.568	61.44
805.748	12.29
805.928	-0
806.107	81.92
806.287	83.97
806.466	30.72
806.646	-79.87
806.825	40.96
807.004	-18.43
807.184	49.15
807.363	55.3
807.543	45.06
807.722	10.24
807.901	102.4
808.081	79.87
808.26	-153.6
808.439	67.58
808.619	90.11
808.798	-73.73
808.977	-22.53
809.156	49.15
809.336	51.2
809.515	155.65
809.694	-53.25
809.873	53.25
810.052	32.77
810.231	90.11
810.411	10.24
810.59	43.01
810.769	34.82
810.948	190.46
811.127	-110.59
811.306	-43.01
811.485	-71.68
811.664	131.07
811.843	-73.73
812.022	-20.48
812.201	28.67
812.38	57.34
812.559	2.05
812.737	-0
812.916	-34.82
813.095	-65.54
813.274	36.86
813.453	55.3
813.632	18.43
813.811	151.55
813.989	-71.68
814.168	47.1
814.347	-34.82
814.526	-6.14
814.704	104.45
814.883	178.17
815.062	-114.69
815.24	43.01
815.419	-26.62
815.598	49.15
815.776	-198.65
815.955	-0
816.133	-96.25
816.312	-40.96
816.49	-38.91
816.669	32.77
816.847	45.06
817.026	-32.77
817.204	12.29
817.383	-49.15
817.561	-26.62
817.74	32.77
817.918	6.14
818.097	-73.73
818.275	-12.29
818.453	30.72
818.632	8.19
818.81	-8.19
818.988	-22.53
819.167	-71.68
819.345	-30.72
819.523	-65.54
819.701	16.38
819.879	122.88
820.058	16.38
820.236	67.58
820.414	51.2
820.592	26.62
820.77	4.1
820.948	-30.72
821.127	-12.29
821.305	36.86
821.483	-114.69
821.661	120.83
821.839	126.97
822.017	-8.19
822.195	8.19
822.373	67.58
822.551	79.87
822.729	104.45
822.907	-49.15
823.085	-2.05
823.262	36.86
823.44	-65.54
823.618	-26.62
823.796	-0
823.974	-63.49
824.152	-116.73
824.329	24.58
824.507	10.24
824.685	77.82
824.863	38.91
825.04	10.24
825.218	110.59
825.396	34.82
825.574	16.38
825.751	30.72
825.929	129.02
826.107	-40.96
826.284	16.38
826.462	67.58
826.639	-24.58
826.817	-86.01
826.994	-2.05
827.172	-36.86
827.349	133.12
827.527	30.72
827.704	43.01
827.882	55.3
828.059	-49.15
828.237	36.86
828.414	92.16
828.591	-172.03
828.769	8.19
828.946	-53.25
829.124	112.64
829.301	210.94
829.478	16.38
829.655	47.1
829.833	-18.43
830.01	-8.19
830.187	-2.05
830.364	-22.53
830.542	-20.48
830.719	81.92
830.896	51.2
831.073	118.78
831.25	34.82
831.427	40.96
831.604	-28.67
831.782	-16.38
831.959	8.19
832.136	34.82
832.313	-32.77
832.49	-73.73
832.667	-61.44
832.844	-100.35
833.021	112.64
833.198	8.19
833.374	98.3
833.551	73.73
833.728	-14.34
833.905	71.68
834.082	-114.69
834.259	-12.29
834.436	155.65
834.612	-8.19
834.789	57.34
834.966	-65.54
835.143	57.34
835.319	-88.06
835.496	4.1
835.673	73.73
835.85	71.68
836.026	90.11
836.203	112.64
836.38	-6.14
836.556	-81.92
836.733	-0
836.909	141.31
837.086	-20.48
837.262	-57.34
837.439	-73.73
837.616	-43.01
837.792	-36.86
837.968	-8.19
838.145	-98.3
838.321	-43.01
838.498	71.68
838.674	8.19
838.851	14.34
839.027	8.19
839.203	-22.53
839.38	-10.24
839.556	-79.87
839.732	88.06
839.909	6.14
840.085	-30.72
840.261	-26.62
840.437	34.82
840.614	-81.92
840.79	53.25
840.966	26.62
841.142	-45.06
841.318	38.91
841.494	38.91
841.671	32.77
841.847	-2.05
842.023	-126.97
842.199	-22.53
842.375	92.16
842.551	-47.1
842.727	-16.38
842.903	88.06
843.079	-69.63
843.255	145.41
843.431	57.34
843.607	34.82
843.783	-106.49
843.959	12.29
844.134	-83.97
844.31	45.06
844.486	-45.06
844.662	8.19
844.838	-20.48
845.013	71.68
845.189	26.62
845.365	59.39
845.541	47.1
845.716	73.73
845.892	8.19
846.068	2.05
846.244	-45.06
846.419	79.87
846.595	-14.34
846.77	-83.97
846.946	55.3
847.122	-18.43
847.297	-28.67
847.473	163.84
847.648	-71.68
847.824	40.96
847.999	-90.11
848.175	-0
848.35	-0
848.526	18.43
848.701	71.68
848.876	110.59
849.052	120.83
849.227	-40.96
849.403	6.14
849.578	-43.01
849.753	67.58
849.929	40.96
850.104	-53.25
850.279	-0
850.454	-0
850.63	40.96
850.805	36.86
850.98	-47.1
851.155	38.91
851.33	-12.29
851.505	-28.67
851.681	126.97
851.856	-59.39
852.031	20.48
852.206	16.38
852.381	-73.73
852.556	-45.06
852.731	28.67
852.906	6.14
853.081	94.21
853.256	69.63
853.431	69.63
853.606	-28.67
853.781	-34.82
853.956	-108.54
854.131	36.86
854.305	-43.01
854.48	-32.77
854.655	-43.01
854.83	-8.19
855.005	-24.58
855.18	-32.77
855.354	24.58
855.529	30.72
855.704	-36.86
855.879	28.67
856.053	-79.87
856.228	40.96
856.403	-20.48
856.577	96.25
856.752	-131.07
856.926	16.38
857.101	8.19
857.276	-90.11
857.45	79.87
857.625	32.77
857.799	-32.77
857.974	-2.05
858.148	-86.01
858.323	-36.86
858.497	-57.34
858.672	-38.91
858.846	-102.4
859.02	4.1
859.195	-20.48
859.369	-83.97
859.543	18.43
859.718	4.1
859.892	16.38
860.066	55.3
860.241	20.48
860.415	-8.19
860.589	24.58
860.763	-34.82
860.938	20.48
861.112	57.34
861.286	53.25
861.46	-43.01
861.634	-30.72
861.808	38.91
861.982	-8.19
862.157	-112.64
862.331	-24.58
862.505	-73.73
862.679	-98.3
862.853	-67.58
863.027	14.34
863.201	112.64
863.375	-79.87
863.549	30.72
863.722	16.38
863.896	102.4
864.07	12.29
864.244	-71.68
864.418	14.34
864.592	-20.48
864.766	-38.91
864.939	-14.34
865.113	-6.14
865.287	53.25
865.461	-77.82
865.634	133.12
865.808	-55.3
865.982	-65.54
866.156	-43.01
866.329	-120.83
866.503	14.34
866.676	104.45
866.85	90.11
867.024	-2.05
867.197	122.88
867.371	26.62
867.544	-2.05
867.718	-118.78
867.891	49.15
868.065	-73.73
868.238	4.1
868.412	139.26
868.585	-32.77
868.759	-59.39
868.932	8.19
869.105	-98.3
869.279	6.14
869.452	-53.25
869.625	-18.43
869.799	-30.72
869.972	-55.3
870.145	8.19
870.319	79.87
870.492	-81.92
870.665	63.49
870.838	-77.82
871.011	-71.68
871.185	-83.97
871.358	-49.15
871.531	38.91
871.704	-14.34
871.877	22.53
872.05	-8.19
872.223	-71.68
872.396	77.82
872.569	22.53
872.742	-96.25
872.915	22.53
873.088	-22.53
873.261	-16.38
873.434	8.19
873.607	-49.15
873.78	96.25
873.953	-108.54
874.126	49.15
874.299	22.53
874.471	-36.86
874.644	18.43
874.817	26.62
874.99	237.56
875.163	-77.82
875.335	16.38
875.508	69.63
875.681	98.3
875.853	-61.44
876.026	-6.14
876.199	116.73
876.371	-0
876.544	36.86
876.717	51.2
876.889	-16.38
877.062	43.01
877.234	-79.87
877.407	-4.1
877.579	-6.14
877.752	24.58
877.924	94.21
878.097	40.96
878.269	24.58
878.442	69.63
878.614	67.58
878.786	-0
878.959	2.05
879.131	-40.96
879.303	-79.87
879.476	-40.96
879.648	-6.14
879.82	32.77
879.993	-104.45
880.165	-55.3
880.337	-86.01
880.509	40.96
880.681	-92.16
880.854	-18.43
881.026	38.91
881.198	165.89
881.37	40.96
881.542	-83.97
881.714	22.53
881.886	-8.19
882.058	10.24
882.23	38.91
882.402	-53.25
882.574	2.05
882.746	47.1
882.918	61.44
883.09	51.2
883.262	32.77
883.434	-30.72
883.606	-61.44
883.778	-65.54
883.95	77.82
884.122	-6.14
884.293	49.15
884.465	-8.19
884.637	139.26
884.809	34.82
884.98	18.43
885.152	30.72
885.324	26.62
885.496	-30.72
885.667	30.72
885.839	-2.05
886.011	137.21
886.182	53.25
886.354	36.86
886.525	79.87
886.697	-63.49
886.869	-40.96
887.04	24.58
887.212	90.11
887.383	153.6
887.555	12.29
887.726	32.77
887.897	-79.87
888.069	-8.19
888.24	-2.05
888.412	-30.72
888.583	112.64
888.754	28.67
888.926	-59.39
889.097	-75.77
889.268	-22.53
889.44	90.11
889.611	-92.16
889.782	6.14
889.953	-92.16
890.125	49.15
890.296	-69.63
890.467	-67.58
890.638	-24.58
890.809	-32.77
890.98	-8.19
891.151	57.34
891.323	92.16
891.494	-16.38
891.665	22.53
891.836	-26.62
892.007	-40.96
892.178	47.1
892.349	-16.38
892.52	-75.77
892.691	-34.82
892.862	-51.2
893.032	-129.02
893.203	-34.82
893.374	90.11
893.545	139.26
893.716	-118.78
893.887	43.01
894.057	-6.14
894.228	53.25
894.399	-49.15
894.57	174.08
894.74	-28.67
894.911	-8.19
895.082	-71.68
895.253	16.38
895.423	67.58
895.594	122.88
895.764	2.05
895.935	-51.2
896.106	32.77
896.276	-34.82
896.447	45.06
896.617	-79.87
896.788	-83.97
896.958	6.14
897.129	-55.3
897.299	-47.1
897.47	34.82
897.64	53.25
897.81	51.2
897.981	22.53
898.151	-75.77
898.322	-18.43
898.492	18.43
898.662	-110.59
898.832	-38.91
899.003	-18.43
899.173	24.58
899.343	-63.49
899.513	-53.25
