Data from USB4F104151__61__10-43-49-574.txt Node

Date: Wed Feb 26 10:43:49 EST 2025
User: louis
Spectrometer: USB4F10415
Trigger mode: 4
Integration Time (sec): 1.000000E-1
Scans to average: 1
Electric dark correction enabled: true
Nonlinearity correction enabled: false
Boxcar width: 0
XAxis mode: Wavelengths
Number of Pixels in Spectrum: 3648
>>>>>Begin Spectral Data<<<<<
178.204	-379.04
178.424	-379.04
178.644	-379.04
178.864	-370.85
179.084	-407.72
179.304	-0.17
179.524	69.46
179.744	10.07
179.964	-2.22
180.184	-53.42
180.404	18.26
180.624	-26.79
180.844	61.27
181.064	-131.24
181.283	100.18
181.503	-61.61
181.723	16.21
181.943	-41.13
182.163	216.91
182.383	14.17
182.602	67.41
182.822	180.05
183.042	36.69
183.262	-63.66
183.482	18.26
183.701	94.04
183.921	5.97
184.141	-41.13
184.361	141.14
184.58	24.4
184.8	120.66
185.02	-98.47
185.239	69.46
185.459	32.6
185.679	108.37
185.898	14.17
186.118	145.24
186.338	32.6
186.557	124.76
186.777	44.88
186.997	-45.23
187.216	89.94
187.436	108.37
187.655	89.94
187.875	100.18
188.095	42.84
188.314	100.18
188.534	167.76
188.753	1.88
188.973	112.47
189.192	159.57
189.412	53.08
189.631	55.12
189.851	159.57
190.07	159.57
190.29	-18.6
190.509	22.36
190.729	36.69
190.948	153.43
191.168	251.73
191.387	102.23
191.607	-37.03
191.826	102.23
192.045	77.65
192.265	40.79
192.484	143.19
192.704	81.75
192.923	-82.09
193.142	161.62
193.362	94.04
193.581	243.54
193.8	73.56
194.02	161.62
194.239	-0.17
194.458	55.12
194.678	28.5
194.897	-0.17
195.116	65.36
195.335	57.17
195.555	135
195.774	26.45
195.993	-12.46
196.212	18.26
196.432	10.07
196.651	-0.17
196.87	34.64
197.089	356.18
197.308	5.97
197.528	110.42
197.747	-53.42
197.966	83.8
198.185	106.32
198.404	44.88
198.623	184.15
198.842	48.98
199.062	108.37
199.281	89.94
199.5	44.88
199.719	208.72
199.938	79.7
200.157	53.08
200.376	83.8
200.595	124.76
200.814	118.61
201.033	-2.22
201.252	180.05
201.471	102.23
201.69	89.94
201.909	24.4
202.128	147.28
202.347	55.12
202.566	91.99
202.785	5.97
203.004	124.76
203.223	266.07
203.442	61.27
203.661	-39.08
203.879	100.18
204.098	178
204.317	-32.94
204.536	46.93
204.755	77.65
204.974	116.56
205.193	-41.13
205.411	208.72
205.63	91.99
205.849	128.85
206.068	12.12
206.287	-22.7
206.505	180.05
206.724	16.21
206.943	16.21
207.162	10.07
207.381	135
207.599	81.75
207.818	53.08
208.037	32.6
208.255	24.4
208.474	79.7
208.693	100.18
208.911	73.56
209.13	135
209.349	137.04
209.567	102.23
209.786	137.04
210.005	89.94
210.223	24.4
210.442	5.97
210.661	-8.36
210.879	118.61
211.098	114.52
211.316	38.74
211.535	51.03
211.753	63.32
211.972	147.28
212.191	65.36
212.409	79.7
212.628	-2.22
212.846	-63.66
213.065	44.88
213.283	120.66
213.502	53.08
213.72	57.17
213.938	44.88
214.157	-20.65
214.375	122.71
214.594	77.65
214.812	145.24
215.031	63.32
215.249	46.93
215.467	67.41
215.686	40.79
215.904	8.02
216.122	106.32
216.341	132.95
216.559	83.8
216.778	116.56
216.996	151.38
217.214	18.26
217.432	69.46
217.651	16.21
217.869	130.9
218.087	81.75
218.306	22.36
218.524	8.02
218.742	73.56
218.96	126.8
219.179	61.27
219.397	143.19
219.615	317.26
219.833	118.61
220.051	3.93
220.27	184.15
220.488	192.34
220.706	14.17
220.924	71.51
221.142	-0.17
221.36	36.69
221.578	44.88
221.796	51.03
222.015	44.88
222.233	116.56
222.451	137.04
222.669	38.74
222.887	116.56
223.105	36.69
223.323	61.27
223.541	34.64
223.759	73.56
223.977	94.04
224.195	178
224.413	55.12
224.631	26.45
224.849	147.28
225.067	186.19
225.285	-14.51
225.503	24.4
225.721	-82.09
225.939	42.84
226.157	87.89
226.375	264.02
226.592	-22.7
226.81	79.7
227.028	114.52
227.246	182.1
227.464	81.75
227.682	-8.36
227.9	114.52
228.117	75.6
228.335	71.51
228.553	28.5
228.771	-61.61
228.989	87.89
229.206	221.01
229.424	38.74
229.642	98.13
229.86	40.79
230.077	186.19
230.295	75.6
230.513	98.13
230.731	126.8
230.948	112.47
231.166	126.8
231.384	38.74
231.601	-45.23
231.819	178
232.037	12.12
232.254	34.64
232.472	53.08
232.689	-8.36
232.907	178
233.125	55.12
233.342	-6.31
233.56	-24.75
233.777	36.69
233.995	28.5
234.213	79.7
234.43	34.64
234.648	44.88
234.865	48.98
235.083	108.37
235.3	87.89
235.518	112.47
235.735	141.14
235.953	98.13
236.17	108.37
236.388	-0.17
236.605	-2.22
236.822	159.57
237.04	149.33
237.257	75.6
237.475	46.93
237.692	12.12
237.909	94.04
238.127	30.55
238.344	96.08
238.562	-20.65
238.779	-51.37
238.996	-57.51
239.214	-55.47
239.431	135
239.648	5.97
239.865	46.93
240.083	38.74
240.3	59.22
240.517	-18.6
240.735	79.7
240.952	151.38
241.169	57.17
241.386	102.23
241.603	51.03
241.821	8.02
242.038	135
242.255	155.47
242.472	16.21
242.689	110.42
242.907	128.85
243.124	143.19
243.341	57.17
243.558	89.94
243.775	22.36
243.992	-84.14
244.209	122.71
244.426	130.9
244.643	69.46
244.86	3.93
245.078	98.13
245.295	100.18
245.512	34.64
245.729	28.5
245.946	59.22
246.163	132.95
246.38	-18.6
246.597	67.41
246.814	69.46
247.031	42.84
247.248	30.55
247.464	135
247.681	69.46
247.898	61.27
248.115	169.81
248.332	-10.41
248.549	63.32
248.766	223.06
248.983	79.7
249.2	63.32
249.417	157.52
249.633	65.36
249.85	143.19
250.067	38.74
250.284	106.32
250.501	38.74
250.717	79.7
250.934	-4.27
251.151	-30.89
251.368	96.08
251.585	114.52
251.801	87.89
252.018	61.27
252.235	110.42
252.451	-10.41
252.668	65.36
252.885	169.81
253.102	169.81
253.318	48.98
253.535	-30.89
253.752	28.5
253.968	26.45
254.185	57.17
254.401	116.56
254.618	167.76
254.835	36.69
255.051	169.81
255.268	53.08
255.484	71.51
255.701	87.89
255.917	118.61
256.134	3.93
256.351	118.61
256.567	-30.89
256.784	69.46
257	-20.65
257.217	61.27
257.433	112.47
257.65	36.69
257.866	106.32
258.082	-73.9
258.299	67.41
258.515	83.8
258.732	73.56
258.948	42.84
259.165	55.12
259.381	14.17
259.597	61.27
259.814	73.56
260.03	116.56
260.246	118.61
260.463	85.84
260.679	126.8
260.895	100.18
261.112	75.6
261.328	32.6
261.544	18.26
261.761	184.15
261.977	-43.18
262.193	-12.46
262.409	108.37
262.626	10.07
262.842	32.6
263.058	-18.6
263.274	116.56
263.49	57.17
263.707	106.32
263.923	40.79
264.139	-75.95
264.355	42.84
264.571	110.42
264.787	71.51
265.004	130.9
265.22	20.31
265.436	-75.95
265.652	32.6
265.868	73.56
266.084	61.27
266.3	22.36
266.516	-45.23
266.732	73.56
266.948	8.02
267.164	94.04
267.38	126.8
267.596	186.19
267.812	200.53
268.028	100.18
268.244	81.75
268.46	55.12
268.676	65.36
268.892	96.08
269.108	51.03
269.324	-71.85
269.54	73.56
269.756	57.17
269.972	8.02
270.188	-34.99
270.403	-32.94
270.619	40.79
270.835	85.84
271.051	51.03
271.267	-18.6
271.483	-2.22
271.698	106.32
271.914	85.84
272.13	53.08
272.346	87.89
272.562	8.02
272.777	139.09
272.993	40.79
273.209	22.36
273.425	128.85
273.64	-26.79
273.856	128.85
274.072	55.12
274.287	12.12
274.503	135
274.719	128.85
274.934	46.93
275.15	16.21
275.366	108.37
275.581	-18.6
275.797	102.23
276.012	55.12
276.228	46.93
276.444	69.46
276.659	145.24
276.875	20.31
277.09	-24.75
277.306	14.17
277.521	77.65
277.737	48.98
277.952	73.56
278.168	108.37
278.383	-4.27
278.599	44.88
278.814	106.32
279.03	108.37
279.245	175.95
279.461	42.84
279.676	153.43
279.892	-22.7
280.107	-49.32
280.322	34.64
280.538	81.75
280.753	-0.17
280.969	79.7
281.184	65.36
281.399	139.09
281.615	1.88
281.83	83.8
282.045	-55.47
282.26	-8.36
282.476	153.43
282.691	71.51
282.906	28.5
283.122	61.27
283.337	16.21
283.552	57.17
283.767	5.97
283.983	75.6
284.198	118.61
284.413	79.7
284.628	-0.17
284.843	1.88
285.058	112.47
285.274	30.55
285.489	26.45
285.704	46.93
285.919	-6.31
286.134	14.17
286.349	126.8
286.564	69.46
286.779	85.84
286.995	3.93
287.21	-2.22
287.425	75.6
287.64	77.65
287.855	141.14
288.07	22.36
288.285	149.33
288.5	87.89
288.715	83.8
288.93	30.55
289.145	-22.7
289.36	98.13
289.575	28.5
289.79	192.34
290.004	-22.7
290.219	110.42
290.434	-16.55
290.649	53.08
290.864	-43.18
291.079	85.84
291.294	85.84
291.509	-0.17
291.724	42.84
291.938	73.56
292.153	38.74
292.368	26.45
292.583	46.93
292.798	14.17
293.012	110.42
293.227	42.84
293.442	57.17
293.657	159.57
293.871	124.76
294.086	91.99
294.301	210.77
294.516	85.84
294.73	67.41
294.945	-49.32
295.16	40.79
295.374	22.36
295.589	87.89
295.804	32.6
296.018	85.84
296.233	98.13
296.447	36.69
296.662	32.6
296.877	186.19
297.091	67.41
297.306	32.6
297.52	71.51
297.735	12.12
297.949	61.27
298.164	38.74
298.378	18.26
298.593	40.79
298.807	67.41
299.022	57.17
299.236	91.99
299.451	14.17
299.665	57.17
299.88	65.36
300.094	71.51
300.309	-10.41
300.523	40.79
300.737	81.75
300.952	120.66
301.166	157.52
301.381	26.45
301.595	81.75
301.809	77.65
302.024	79.7
302.238	-16.55
302.452	130.9
302.667	96.08
302.881	114.52
303.095	128.85
303.309	257.87
303.524	-4.27
303.738	3.93
303.952	53.08
304.166	147.28
304.381	-90.28
304.595	214.87
304.809	30.55
305.023	-55.47
305.237	8.02
305.452	-90.28
305.666	71.51
305.88	79.7
306.094	104.28
306.308	85.84
306.522	206.67
306.736	61.27
306.95	132.95
307.164	26.45
307.379	32.6
307.593	169.81
307.807	210.77
308.021	114.52
308.235	163.67
308.449	-82.09
308.663	79.7
308.877	292.69
309.091	139.09
309.305	128.85
309.519	-159.91
309.733	173.91
309.947	-32.94
310.161	51.03
310.374	143.19
310.588	194.39
310.802	-18.6
311.016	108.37
311.23	102.23
311.444	-47.27
311.658	-20.65
311.872	161.62
312.085	208.72
312.299	77.65
312.513	169.81
312.727	67.41
312.941	5.97
313.154	36.69
313.368	24.4
313.582	28.5
313.796	91.99
314.009	36.69
314.223	163.67
314.437	94.04
314.651	83.8
314.864	8.02
315.078	-28.84
315.292	-45.23
315.505	24.4
315.719	69.46
315.933	106.32
316.146	65.36
316.36	-2.22
316.573	114.52
316.787	100.18
317.001	8.02
317.214	16.21
317.428	94.04
317.641	69.46
317.855	18.26
318.068	116.56
318.282	143.19
318.495	151.38
318.709	79.7
318.922	65.36
319.136	190.29
319.349	53.08
319.563	18.26
319.776	91.99
319.99	-16.55
320.203	120.66
320.417	83.8
320.63	67.41
320.843	157.52
321.057	89.94
321.27	46.93
321.483	114.52
321.697	161.62
321.91	57.17
322.124	100.18
322.337	79.7
322.55	61.27
322.763	116.56
322.977	59.22
323.19	36.69
323.403	57.17
323.617	61.27
323.83	165.71
324.043	-4.27
324.256	118.61
324.469	-10.41
324.683	69.46
324.896	96.08
325.109	79.7
325.322	44.88
325.535	120.66
325.748	126.8
325.962	106.32
326.175	-2.22
326.388	130.9
326.601	167.76
326.814	98.13
327.027	85.84
327.24	184.15
327.453	-53.42
327.666	130.9
327.879	135
328.092	75.6
328.305	77.65
328.518	42.84
328.731	73.56
328.944	42.84
329.157	18.26
329.37	-6.31
329.583	184.15
329.796	147.28
330.009	1.88
330.222	130.9
330.435	65.36
330.648	145.24
330.861	104.28
331.073	69.46
331.286	186.19
331.499	85.84
331.712	48.98
331.925	75.6
332.138	116.56
332.35	65.36
332.563	-14.51
332.776	167.76
332.989	16.21
333.202	-2.22
333.414	10.07
333.627	20.31
333.84	83.8
334.053	20.31
334.265	-22.7
334.478	51.03
334.691	14.17
334.903	18.26
335.116	-39.08
335.329	73.56
335.541	102.23
335.754	161.62
335.966	-24.75
336.179	91.99
336.392	14.17
336.604	61.27
336.817	128.85
337.029	81.75
337.242	26.45
337.454	85.84
337.667	32.6
337.88	132.95
338.092	-2.22
338.305	120.66
338.517	-8.36
338.729	118.61
338.942	89.94
339.154	8.02
339.367	18.26
339.579	69.46
339.792	-24.75
340.004	108.37
340.217	44.88
340.429	108.37
340.641	24.4
340.854	-6.31
341.066	44.88
341.278	98.13
341.491	182.1
341.703	24.4
341.915	5.97
342.128	63.32
342.34	79.7
342.552	-22.7
342.764	30.55
342.977	32.6
343.189	89.94
343.401	63.32
343.613	-37.03
343.826	36.69
344.038	10.07
344.25	73.56
344.462	-2.22
344.674	48.98
344.886	36.69
345.099	44.88
345.311	36.69
345.523	38.74
345.735	-61.61
345.947	67.41
346.159	167.76
346.371	44.88
346.583	12.12
346.795	106.32
347.007	24.4
347.219	124.76
347.431	12.12
347.643	96.08
347.855	5.97
348.067	169.81
348.279	-6.31
348.491	71.51
348.703	102.23
348.915	-0.17
349.127	108.37
349.339	36.69
349.551	-20.65
349.763	85.84
349.975	3.93
350.187	102.23
350.399	145.24
350.61	108.37
350.822	79.7
351.034	1.88
351.246	85.84
351.458	71.51
351.669	98.13
351.881	116.56
352.093	122.71
352.305	182.1
352.517	51.03
352.728	212.82
352.94	75.6
353.152	81.75
353.363	10.07
353.575	81.75
353.787	251.73
353.999	128.85
354.21	141.14
354.422	12.12
354.633	-14.51
354.845	57.17
355.057	40.79
355.268	32.6
355.48	190.29
355.692	12.12
355.903	3.93
356.115	36.69
356.326	-49.32
356.538	223.06
356.749	221.01
356.961	206.67
357.172	40.79
357.384	59.22
357.595	278.35
357.807	-18.6
358.018	32.6
358.23	89.94
358.441	200.53
358.653	34.64
358.864	53.08
359.075	-4.27
359.287	1.88
359.498	110.42
359.709	75.6
359.921	71.51
360.132	104.28
360.344	10.07
360.555	-108.71
360.766	83.8
360.977	63.32
361.189	110.42
361.4	77.65
361.611	75.6
361.823	87.89
362.034	63.32
362.245	-39.08
362.456	40.79
362.667	106.32
362.879	12.12
363.09	71.51
363.301	87.89
363.512	108.37
363.723	-28.84
363.935	83.8
364.146	87.89
364.357	85.84
364.568	71.51
364.779	-24.75
364.99	143.19
365.201	-4.27
365.412	141.14
365.623	-51.37
365.834	42.84
366.045	20.31
366.256	122.71
366.467	143.19
366.678	26.45
366.889	42.84
367.1	139.09
367.311	130.9
367.522	42.84
367.733	18.26
367.944	79.7
368.155	20.31
368.366	192.34
368.577	98.13
368.788	155.47
368.999	63.32
369.209	-14.51
369.42	241.49
369.631	270.16
369.842	89.94
370.053	48.98
370.264	114.52
370.474	67.41
370.685	77.65
370.896	53.08
371.107	102.23
371.317	141.14
371.528	46.93
371.739	106.32
371.95	143.19
372.16	77.65
372.371	38.74
372.582	-28.84
372.792	91.99
373.003	77.65
373.214	180.05
373.424	89.94
373.635	-26.79
373.846	155.47
374.056	48.98
374.267	151.38
374.477	147.28
374.688	24.4
374.898	153.43
375.109	51.03
375.319	63.32
375.53	137.04
375.74	171.86
375.951	10.07
376.161	65.36
376.372	139.09
376.582	1.88
376.793	87.89
377.003	67.41
377.214	14.17
377.424	98.13
377.635	-16.55
377.845	34.64
378.055	253.78
378.266	-24.75
378.476	32.6
378.686	28.5
378.897	87.89
379.107	108.37
379.317	55.12
379.528	81.75
379.738	83.8
379.948	-37.03
380.158	71.51
380.369	18.26
380.579	38.74
380.789	38.74
380.999	44.88
381.21	137.04
381.42	184.15
381.63	57.17
381.84	137.04
382.05	69.46
382.261	155.47
382.471	143.19
382.681	20.31
382.891	184.15
383.101	96.08
383.311	-30.89
383.521	57.17
383.731	79.7
383.941	114.52
384.151	75.6
384.361	65.36
384.571	91.99
384.781	139.09
384.991	204.63
385.201	167.76
385.411	69.46
385.621	106.32
385.831	87.89
386.041	59.22
386.251	32.6
386.461	171.86
386.671	55.12
386.881	161.62
387.091	20.31
387.301	137.04
387.511	135
387.72	147.28
387.93	178
388.14	-45.23
388.35	61.27
388.56	178
388.769	153.43
388.979	77.65
389.189	46.93
389.399	87.89
389.609	98.13
389.818	106.32
390.028	79.7
390.238	151.38
390.447	36.69
390.657	73.56
390.867	26.45
391.076	18.26
391.286	59.22
391.496	38.74
391.705	-10.41
391.915	161.62
392.125	124.76
392.334	-2.22
392.544	141.14
392.753	178
392.963	22.36
393.172	79.7
393.382	38.74
393.591	196.43
393.801	122.71
394.01	173.91
394.22	110.42
394.429	77.65
394.639	59.22
394.848	18.26
395.058	53.08
395.267	40.79
395.477	118.61
395.686	159.57
395.895	173.91
396.105	178
396.314	24.4
396.524	83.8
396.733	38.74
396.942	151.38
397.152	126.8
397.361	114.52
397.57	128.85
397.78	63.32
397.989	85.84
398.198	200.53
398.407	32.6
398.617	73.56
398.826	112.47
399.035	59.22
399.244	130.9
399.453	137.04
399.663	79.7
399.872	120.66
400.081	-32.94
400.29	161.62
400.499	-45.23
400.708	196.43
400.917	46.93
401.127	106.32
401.336	-22.7
401.545	147.28
401.754	141.14
401.963	124.76
402.172	116.56
402.381	-6.31
402.59	40.79
402.799	69.46
403.008	120.66
403.217	100.18
403.426	135
403.635	1.88
403.844	87.89
404.053	77.65
404.262	59.22
404.471	235.35
404.68	124.76
404.888	59.22
405.097	42.84
405.306	55.12
405.515	118.61
405.724	20.31
405.933	139.09
406.142	102.23
406.35	188.24
406.559	73.56
406.768	63.32
406.977	159.57
407.185	61.27
407.394	24.4
407.603	-47.27
407.812	30.55
408.02	77.65
408.229	57.17
408.438	44.88
408.646	-22.7
408.855	104.28
409.064	114.52
409.272	83.8
409.481	147.28
409.69	73.56
409.898	-61.61
410.107	106.32
410.315	139.09
410.524	59.22
410.733	139.09
410.941	75.6
411.15	135
411.358	124.76
411.567	180.05
411.775	157.52
411.984	112.47
412.192	153.43
412.401	-12.46
412.609	233.3
412.818	104.28
413.026	65.36
413.234	28.5
413.443	73.56
413.651	1.88
413.86	51.03
414.068	212.82
414.276	190.29
414.485	10.07
414.693	155.47
414.901	282.45
415.11	87.89
415.318	22.36
415.526	34.64
415.734	151.38
415.943	151.38
416.151	83.8
416.359	85.84
416.567	108.37
416.776	143.19
416.984	63.32
417.192	218.96
417.4	28.5
417.608	-4.27
417.817	18.26
418.025	235.35
418.233	167.76
418.441	-39.08
418.649	-14.51
418.857	65.36
419.065	186.19
419.273	32.6
419.481	122.71
419.689	63.32
419.897	126.8
420.105	48.98
420.313	75.6
420.521	159.57
420.729	171.86
420.937	44.88
421.145	79.7
421.353	124.76
421.561	153.43
421.769	67.41
421.977	-14.51
422.185	100.18
422.393	57.17
422.601	112.47
422.809	91.99
423.017	98.13
423.224	155.47
423.432	161.62
423.64	77.65
423.848	163.67
424.056	59.22
424.263	190.29
424.471	94.04
424.679	165.71
424.887	22.36
425.094	169.81
425.302	32.6
425.51	57.17
425.718	130.9
425.925	71.51
426.133	75.6
426.341	247.63
426.548	44.88
426.756	122.71
426.964	135
427.171	22.36
427.379	178
427.586	89.94
427.794	112.47
428.001	87.89
428.209	91.99
428.417	190.29
428.624	89.94
428.832	151.38
429.039	169.81
429.247	208.72
429.454	198.48
429.662	286.54
429.869	206.67
430.076	98.13
430.284	178
430.491	204.63
430.699	194.39
430.906	278.35
431.114	266.07
431.321	255.83
431.528	126.8
431.736	153.43
431.943	188.24
432.15	214.87
432.358	280.4
432.565	325.46
432.772	63.32
432.979	309.07
433.187	210.77
433.394	259.92
433.601	128.85
433.808	251.73
434.016	257.87
434.223	225.11
434.43	292.69
434.637	284.5
434.844	335.7
435.052	282.45
435.259	354.13
435.466	317.26
435.673	362.32
435.88	356.18
436.087	347.98
436.294	460.62
436.501	370.51
436.708	313.17
436.915	368.46
437.122	319.31
437.329	386.9
437.537	327.5
437.743	413.52
437.95	491.34
438.157	442.19
438.364	401.23
438.571	517.97
438.778	577.36
438.985	608.08
439.192	634.7
439.399	569.16
439.606	587.6
439.813	610.12
440.02	718.67
440.227	726.86
440.433	677.71
440.64	620.36
440.847	575.31
441.054	702.28
441.261	812.87
441.467	755.53
441.674	757.58
441.881	806.73
442.088	802.63
442.294	864.07
442.501	950.09
442.708	966.47
442.914	1083.2
443.121	943.94
443.328	1081.16
443.534	1066.82
443.741	1185.6
443.948	1083.2
444.154	1212.23
444.361	1363.78
444.568	1171.27
444.774	1283.91
444.981	1167.17
445.187	1470.27
445.394	1445.7
445.6	1326.91
445.807	1503.04
446.013	1529.66
446.22	1523.52
446.426	1648.44
446.633	1828.67
446.839	1935.16
447.046	1818.43
447.252	1984.31
447.459	1957.69
447.665	2010.93
447.871	2193.2
448.078	2301.75
448.284	2260.79
448.491	2350.9
448.697	2481.97
448.903	2676.52
449.11	2572.08
449.316	2502.45
449.522	2826.03
449.728	3008.3
449.935	3155.75
450.141	3028.78
450.347	3444.51
450.553	3327.78
450.76	3419.94
450.966	3585.82
451.172	3692.32
451.378	3731.23
451.584	3751.71
451.791	4192.02
451.997	4202.26
452.203	4220.69
452.409	4505.36
452.615	4699.92
452.821	4613.9
453.027	4675.34
453.233	5263.11
453.44	5005.06
453.646	5310.21
453.852	5560.06
454.058	5742.33
454.264	5756.67
454.47	6389.49
454.676	6326
454.882	6917.87
455.088	6711.02
455.294	7030.51
455.5	7466.72
455.705	7788.25
455.911	7960.28
456.117	7978.72
456.323	8462.04
456.529	8140.51
456.735	9109.19
456.941	9299.66
457.147	9733.82
457.352	9977.53
457.558	10266.3
457.764	10989.23
457.97	11302.57
458.176	11622.05
458.381	12203.68
458.587	12293.79
458.793	12938.9
458.999	13080.21
459.204	14540.41
459.41	15148.65
459.616	14847.6
459.821	15740.52
460.027	16510.55
460.233	17387.08
460.438	17376.84
460.644	18353.73
460.85	18470.46
461.055	19238.45
461.261	19887.65
461.466	19562.03
461.672	19926.57
461.878	22515.2
462.083	22185.47
462.289	22910.46
462.494	23621.1
462.7	24018.41
462.905	23913.96
463.111	26031.56
463.316	27094.46
463.522	27692.46
463.727	28921.24
463.932	29752.72
464.138	30797.18
464.343	31446.39
464.549	32492.9
464.754	34200.91
464.959	35001.66
465.165	36295.98
465.37	36005.17
465.575	35663.16
465.781	38108.43
465.986	38937.86
466.191	38808.84
466.397	39187.71
466.602	38268.17
466.807	40563.95
467.012	40703.21
467.218	41352.41
467.423	41749.72
467.628	43263.17
467.833	45018.28
468.038	44309.68
468.244	43324.61
468.449	45571.23
468.654	44729.51
468.859	44520.62
469.064	44709.04
469.269	43560.12
469.474	44348.59
469.679	45677.72
469.885	44045.49
470.09	44885.16
470.295	44917.93
470.5	44115.12
470.705	44223.67
470.91	43279.55
471.115	42833.1
471.32	43252.93
471.525	43257.03
471.73	42083.54
471.935	41526.49
472.139	40305.9
472.344	40170.74
472.549	40002.8
472.754	38950.15
472.959	38368.52
473.164	37045.54
473.369	36513.06
473.574	37715.22
473.778	36773.16
473.983	35870
474.188	35349.82
474.393	33703.25
474.598	33811.79
474.802	32892.26
475.007	32712.03
475.212	32179.56
475.417	30899.58
475.621	30993.79
475.826	30752.13
476.031	30029.2
476.235	29273.49
476.44	29162.9
476.645	28525.99
476.849	27829.68
477.054	27786.67
477.259	26865.08
477.463	26901.95
477.668	26054.09
477.872	26101.19
478.077	25286.1
478.282	24468.96
478.486	24794.59
478.691	24362.47
478.895	24137.19
479.1	23963.11
479.304	23934.44
479.509	22918.65
479.713	23393.78
479.918	22787.58
480.122	22291.97
480.326	22298.11
480.531	22466.05
480.735	21988.87
480.94	21982.73
481.144	22388.22
481.348	21593.61
481.553	21483.02
481.757	20897.3
481.961	21241.36
482.166	21304.85
482.37	20741.66
482.574	20409.89
482.778	20721.18
482.983	20559.39
483.187	20420.13
483.391	20157.99
483.595	20143.65
483.8	19820.07
484.004	19658.28
484.208	19529.26
484.412	19250.74
484.616	19066.42
484.821	19170.86
485.025	18339.39
485.229	18112.06
485.433	18331.2
485.637	18062.91
485.841	17845.83
486.045	17333.84
486.249	17532.49
486.453	16924.24
486.657	16957.01
486.861	16404.06
487.065	15928.93
487.269	16309.85
487.473	15453.8
487.677	15642.21
487.881	15828.58
488.085	15091.31
488.289	15066.74
488.493	14351.99
488.697	14628.47
488.901	14247.55
489.105	13942.4
489.309	13676.16
489.512	13399.69
489.716	13321.87
489.92	12875.41
490.124	12609.17
490.328	12717.72
490.531	12199.58
490.735	12248.73
490.939	11923.1
491.143	11716.26
491.346	11458.21
491.55	11382.44
491.754	11245.23
491.958	11054.76
492.161	10798.77
492.365	10614.45
492.569	10491.57
492.772	10440.37
492.976	10286.78
493.18	10086.08
493.383	10032.83
493.587	9946.81
493.79	9762.5
493.994	9473.73
494.197	9557.7
494.401	9496.26
494.605	9242.31
494.808	9246.41
495.012	9295.56
495.215	9207.5
495.419	9328.33
495.622	8982.22
495.825	8793.81
496.029	8726.22
496.232	8994.51
496.436	8834.77
496.639	9021.13
496.843	8795.86
497.046	8914.64
497.249	9023.18
497.453	9029.32
497.656	8748.75
497.859	8834.77
498.063	8830.67
498.266	8949.45
498.469	8847.05
498.673	8730.32
498.876	9045.71
499.079	8941.26
499.282	8937.16
499.485	9213.64
499.689	9078.47
499.892	9285.32
500.095	9117.39
500.298	9408.2
500.501	9160.39
500.705	9447.11
500.908	9600.71
501.111	9662.15
501.314	9701.06
501.517	9895.61
501.72	9895.61
501.923	9940.67
502.126	9969.34
502.329	10178.23
502.532	10262.2
502.735	10221.24
502.938	10497.72
503.141	10608.31
503.344	10892.98
503.547	10888.88
503.75	10964.65
503.953	11183.79
504.156	11404.97
504.359	11396.78
504.562	11515.56
504.765	11959.97
504.968	11720.35
505.17	12232.35
505.373	12095.13
505.576	12615.32
505.779	12740.24
505.982	12861.07
506.185	13155.98
506.387	13147.79
506.59	13577.86
506.793	13835.91
506.996	13956.74
507.198	14515.83
507.401	14571.13
507.604	15017.58
507.807	15308.4
508.009	15435.37
508.212	15730.28
508.415	16205.41
508.617	16686.68
508.82	16780.89
509.022	16842.32
509.225	17516.11
509.428	17595.98
509.63	18150.98
509.833	18198.08
510.035	19244.59
510.238	19215.92
510.44	19525.16
510.643	20090.4
510.845	20729.37
511.048	20729.37
511.25	21335.57
511.453	21847.56
511.655	22629.88
511.858	22889.98
512.06	23627.24
512.262	24085.99
512.465	24169.96
512.667	24720.86
512.87	25427.41
513.072	25742.8
513.274	26766.78
513.477	27270.58
513.679	27594.16
513.881	28159.4
514.084	29095.32
514.286	29199.77
514.488	29967.76
514.69	31184.25
514.893	31530.36
515.095	32001.39
515.297	33082.72
515.499	33150.3
515.701	34063.69
515.904	35011.9
516.106	35620.15
516.308	36220.2
516.51	37045.54
516.712	37205.28
516.914	38094.1
517.116	38933.76
517.318	39945.46
517.52	40252.66
517.722	40729.83
517.925	41848.02
518.127	42859.72
518.329	43214.02
518.531	43652.28
518.733	44577.97
518.935	45298.85
519.136	45773.98
519.338	46625.93
519.54	47522.94
519.742	48014.46
519.944	48645.23
520.146	49468.51
520.348	49923.16
520.55	50435.16
520.752	51178.57
520.954	52145.21
521.155	51903.55
521.357	52790.32
521.559	53515.3
521.761	54723.6
521.963	54699.03
522.164	54793.23
522.366	54791.19
522.568	55862.27
522.77	56058.88
522.971	56933.36
523.173	56851.44
523.375	57213.93
523.576	56867.83
523.778	57365.48
523.98	58225.63
524.181	58334.17
524.383	58477.53
524.584	58794.96
524.786	58756.05
524.988	58506.2
525.189	59376.59
525.391	59122.64
525.592	59286.48
525.794	59073.49
525.995	59040.72
526.197	59139.02
526.398	58975.19
526.6	59073.49
526.801	58768.34
527.003	58770.39
527.204	58477.53
527.406	58708.95
527.607	58160.09
527.808	58074.08
528.01	56880.11
528.211	57041.9
528.412	57377.77
528.614	57043.95
528.815	56286.2
529.016	56468.47
529.218	55514.12
529.419	55231.5
529.62	54854.67
529.822	54592.53
530.023	53457.96
530.224	53224.49
530.425	53195.82
530.626	52216.89
530.828	51412.04
531.029	51940.41
531.23	50564.18
531.431	50299.99
531.632	50293.85
531.833	49650.78
532.035	48571.5
532.236	48090.23
532.437	47727.74
532.638	46566.54
532.839	46216.34
533.04	46138.52
533.241	44864.68
533.442	45601.95
533.643	44442.8
533.844	43734.2
534.045	43388.1
534.246	42276.05
534.447	42396.88
534.648	41495.77
534.849	40987.88
535.05	40240.37
535.251	39884.02
535.451	39206.14
535.652	38536.46
535.853	38094.1
536.054	38053.14
536.255	37801.24
536.456	36191.53
536.657	37068.06
536.857	35978.54
537.058	35087.68
537.259	35372.35
537.46	34790.72
537.66	33965.39
537.861	33385.82
538.062	32970.08
538.263	32843.1
538.463	32245.1
538.664	31898.99
538.865	31247.74
539.065	31513.97
539.266	30659.97
539.466	30438.79
539.667	29570.45
539.868	30160.27
540.068	29353.37
540.269	28861.85
540.469	28599.71
540.67	28255.65
540.87	27774.38
541.071	27786.67
541.271	27516.34
541.472	27000.25
541.672	26523.07
541.873	26445.25
542.073	25718.22
542.274	25757.13
542.474	25527.76
542.675	25294.29
542.875	24927.7
543.075	24534.49
543.276	24284.64
543.476	24559.07
543.676	23868.91
543.877	23608.81
544.077	23502.32
544.277	22916.6
544.478	22992.37
544.678	22783.48
544.878	22259.2
545.078	22337.02
545.279	21650.95
545.479	21485.07
545.679	21325.33
545.879	20940.31
546.079	20858.39
546.28	20411.93
546.48	20356.64
546.68	20295.2
546.88	20074.02
547.08	19938.85
547.28	19158.58
547.48	19134
547.68	19263.02
547.88	18746.94
548.081	18697.78
548.281	18175.55
548.481	17911.36
548.681	17763.91
548.881	17618.5
549.081	17294.93
549.28	17075.79
549.48	16911.96
549.68	16471.64
549.88	16696.92
550.08	16164.45
550.28	16055.9
550.48	15855.2
550.68	15922.79
550.88	15199.85
551.08	15128.17
551.279	15175.28
551.479	14716.53
551.679	14706.29
551.879	14018.18
552.079	14272.12
552.278	13813.38
552.478	13960.83
552.678	13497.99
552.878	13504.14
553.077	13182.6
553.277	12816.02
553.477	12910.22
553.676	12570.26
553.876	12344.98
554.076	12134.04
554.275	12064.41
554.475	11464.36
554.674	11669.16
554.874	11529.89
555.074	11222.7
555.273	11081.39
555.473	11001.52
555.672	10534.58
555.872	10450.61
556.071	10407.61
556.271	10235.58
556.47	9965.25
556.67	9602.75
556.869	9707.2
557.068	9526.98
557.268	9455.3
557.467	9234.12
557.667	9242.31
557.866	9121.48
558.065	8767.18
558.265	8623.83
558.464	8339.16
558.663	8693.46
558.863	8453.84
559.062	8380.12
559.261	7792.35
559.461	8025.82
559.66	7745.25
559.859	7636.7
560.058	7407.33
560.258	7384.8
560.457	7057.13
560.656	7323.37
560.855	6921.96
561.054	6987.5
561.253	6870.76
561.453	6846.19
561.652	6586.1
561.851	6782.7
562.05	6485.75
562.249	6225.65
562.448	6199.03
562.647	6250.23
562.846	5932.79
563.045	6065.91
563.244	5771.01
563.443	6012.67
563.642	5762.81
563.841	5795.58
564.04	5666.56
564.239	5461.76
564.438	5402.37
564.637	5205.77
564.836	5213.96
565.035	5228.29
565.234	5109.51
565.432	5091.08
565.631	5058.31
565.83	4978.44
566.029	4693.77
566.228	4661.01
566.427	4620.05
566.625	4409.11
566.824	4626.19
567.023	4513.55
567.222	4364.05
567.42	4464.4
567.619	4280.08
567.818	4331.28
568.016	4435.73
568.215	4226.84
568.414	4185.88
568.612	4116.25
568.811	3911.45
569.01	3821.34
569.208	3792.67
569.407	3917.59
569.605	3866.39
569.804	3626.78
570.002	3708.7
570.201	3479.33
570.4	3534.62
570.598	3497.76
570.797	3444.51
570.995	3284.77
571.193	3442.46
571.392	3284.77
571.59	3116.84
571.789	3266.34
571.987	3223.33
572.186	3237.67
572.384	3032.87
572.582	3186.47
572.781	2944.81
572.979	2985.77
573.177	2809.64
573.376	2996.01
573.574	2965.29
573.772	2654
573.971	2576.17
574.169	2535.21
574.367	2610.99
574.565	2572.08
574.763	2535.21
574.962	2584.37
575.16	2441.01
575.358	2350.9
575.556	2477.87
575.754	2432.82
575.952	2303.79
576.151	2311.99
576.349	2307.89
576.547	2234.16
576.745	2185.01
576.943	2268.98
577.141	2117.43
577.339	2039.61
577.537	2111.29
577.735	2117.43
577.933	2070.33
578.131	1969.98
578.329	1955.64
578.527	1918.78
578.725	1871.67
578.923	1703.74
579.121	1802.04
579.319	1654.59
579.516	1767.23
579.714	1982.26
579.912	1812.28
580.11	1566.53
580.308	1662.78
580.506	1576.77
580.704	1425.22
580.901	1574.72
581.099	1652.54
581.297	1505.09
581.495	1556.29
581.692	1505.09
581.89	1601.34
582.088	1412.93
582.285	1363.78
582.483	1312.58
582.681	1394.5
582.878	1294.15
583.076	1404.74
583.274	1396.54
583.471	1484.61
583.669	1249.09
583.866	1279.81
584.064	1195.84
584.262	1265.47
584.459	1185.6
584.657	1093.44
584.854	1318.72
585.052	1267.52
585.249	1165.12
585.447	1142.6
585.644	1113.92
585.841	1124.16
586.039	1101.64
586.236	1173.32
586.434	1089.35
586.631	993.09
586.828	1019.72
587.026	978.76
587.223	1046.34
587.42	945.99
587.618	991.05
587.815	1152.84
588.012	989
588.21	937.8
588.407	913.22
588.604	1042.25
588.801	931.66
588.999	845.64
589.196	931.66
589.393	823.11
589.59	902.98
589.787	933.7
589.984	931.66
590.182	945.99
590.379	819.02
590.576	839.5
590.773	907.08
590.97	726.86
591.167	835.4
591.364	927.56
591.561	825.16
591.758	970.57
591.955	862.02
592.152	890.7
592.349	739.15
592.546	796.49
592.743	792.39
592.94	806.73
593.137	816.97
593.334	911.18
593.531	919.37
593.727	864.07
593.924	835.4
594.121	849.74
594.318	870.22
594.515	937.8
594.712	980.81
594.908	945.99
595.105	773.96
595.302	902.98
595.499	870.22
595.696	980.81
595.892	849.74
596.089	1034.05
596.286	872.26
596.482	1087.3
596.679	1009.48
596.876	1023.81
597.072	1126.21
597.269	980.81
597.466	1140.55
597.662	1124.16
597.859	1113.92
598.055	1179.46
598.252	1249.09
598.448	1365.82
598.645	1431.36
598.841	1261.38
599.038	1476.41
599.234	1572.67
599.431	1451.84
599.627	1609.53
599.824	1593.15
600.02	1664.83
600.217	1650.49
600.413	1769.27
600.609	1865.53
600.806	2058.04
601.002	2047.8
601.198	2015.03
601.395	2228.02
601.591	2225.97
601.787	2293.55
601.984	2418.48
602.18	2533.17
602.376	2617.13
602.572	2592.56
602.769	2883.37
602.965	2834.22
603.161	2799.4
603.357	2989.86
603.553	3159.85
603.75	3135.27
603.946	3282.72
604.142	3409.7
604.338	3632.93
604.534	3708.7
604.73	3608.35
604.926	3958.55
605.122	4077.34
605.318	4130.58
605.514	4243.22
605.71	4390.67
605.906	4529.94
606.102	4689.68
606.298	4894.47
606.494	5056.26
606.69	5185.29
606.886	5306.12
607.082	5340.93
607.278	5472
607.474	5672.7
607.67	5965.56
607.866	5818.11
608.062	6295.29
608.257	6622.96
608.453	6340.34
608.649	6678.26
608.845	6608.62
609.041	6917.87
609.236	7405.28
609.432	7548.64
609.628	7706.34
609.824	7773.92
610.019	8081.11
610.215	8400.6
610.411	8484.56
610.606	8785.62
610.802	8832.72
610.998	9035.47
611.193	9547.46
611.389	9770.69
611.584	10030.78
611.78	10094.27
611.976	10536.63
612.171	10921.65
612.367	11146.92
612.562	11224.75
612.758	11490.98
612.953	11691.68
613.149	12271.26
613.344	12441.24
613.539	13043.34
613.735	13110.93
613.93	13606.53
614.126	13817.47
614.321	14323.32
614.517	14560.89
614.712	14976.62
614.907	15351.4
615.103	15943.27
615.298	16146.01
615.493	16541.27
615.688	16817.75
615.884	17532.49
616.079	17563.21
616.274	18400.83
616.47	18683.45
616.665	19250.74
616.86	19682.86
617.055	20135.46
617.25	20864.53
617.445	21212.69
617.641	21155.35
617.836	22222.34
618.031	22377.98
618.226	23356.91
618.421	23891.43
618.616	24593.89
618.811	24804.83
619.006	25544.14
619.201	25593.29
619.396	26801.6
619.591	27026.87
619.786	27747.76
619.981	28267.94
620.176	29310.36
620.371	29461.91
620.566	29863.31
620.761	30662.02
620.956	31593.84
621.151	31839.6
621.346	33084.76
621.541	32548.2
621.735	34022.73
621.93	33883.47
622.125	34999.62
622.32	34956.61
622.515	36371.75
622.709	36783.4
622.904	37602.58
623.099	38036.75
623.294	39363.84
623.488	38974.72
623.683	40056.05
623.878	40305.9
624.072	41958.61
624.267	41833.69
624.462	42853.58
624.656	42843.34
624.851	44078.26
625.046	44377.26
625.24	44911.78
625.435	45446.3
625.629	46236.82
625.824	46404.75
626.018	47535.23
626.213	46779.53
626.407	48555.12
626.602	48264.31
626.796	49792.09
626.991	49906.78
627.185	50068.57
627.38	50181.21
627.574	50578.51
627.768	50908.24
627.963	51029.07
628.157	50863.18
628.352	52347.96
628.546	51266.63
628.74	52096.06
628.935	51364.93
629.129	52063.29
629.323	51289.16
629.517	51391.56
629.712	50992.2
629.906	50578.51
630.1	49878.11
630.294	49759.33
630.489	49132.65
630.683	48585.84
630.877	47109.25
631.071	46951.56
631.265	46400.66
631.459	45452.45
631.653	44393.65
631.848	43629.76
632.042	42374.35
632.236	41929.94
632.43	40109.3
632.624	39634.17
632.818	38532.36
633.012	36941.09
633.206	35841.33
633.4	34852.16
633.594	33570.13
633.788	32798.05
633.982	31882.61
634.176	30647.68
634.369	29164.95
634.563	28317.09
634.757	26983.87
634.951	26523.07
635.145	25413.07
635.339	24301.03
635.533	23227.89
635.726	22705.66
635.92	21413.39
636.114	20717.08
636.308	19725.86
636.501	18921.01
636.695	18617.91
636.889	17559.11
637.083	16754.26
637.276	16115.3
637.47	15320.68
637.664	14833.27
637.857	14110.33
638.051	13530.76
638.244	13125.26
638.438	12465.82
638.632	12185.24
638.825	11595.43
639.019	11214.51
639.212	10712.75
639.406	10444.47
639.599	9795.26
639.793	9522.88
639.986	9135.82
640.18	8832.72
640.373	8535.76
640.567	7997.15
640.76	7868.13
640.954	7646.94
641.147	7126.76
641.34	6868.72
641.534	6778.61
641.727	6518.51
641.92	6149.88
642.114	5992.19
642.307	5699.33
642.5	5549.82
642.694	5330.69
642.887	5062.41
643.08	4990.73
643.273	4835.08
643.467	4611.85
643.66	4362
643.853	4251.41
644.046	4087.57
644.239	3903.26
644.432	3807
644.626	3626.78
644.819	3481.38
645.012	3274.53
645.205	3229.48
645.398	3282.72
645.591	2905.9
645.784	2905.9
645.977	2670.38
646.17	2707.24
646.363	2494.26
646.556	2387.76
646.749	2305.84
646.942	2158.39
647.135	2266.93
647.328	2152.24
647.521	2012.98
647.714	1871.67
647.907	1982.26
648.099	1847.1
648.292	1943.35
648.485	1621.82
648.678	1605.44
648.871	1517.37
649.064	1478.46
649.256	1380.16
649.449	1341.25
649.642	1308.48
649.835	1345.34
650.027	1146.69
650.22	1259.33
650.413	1111.88
650.605	1195.84
650.798	1191.75
650.991	1060.68
651.183	1038.15
651.376	1001.29
651.568	1046.34
651.761	855.88
651.954	989
652.146	792.39
652.339	862.02
652.531	819.02
652.724	689.99
652.916	708.43
653.109	653.13
653.301	800.59
653.494	831.3
653.686	685.9
653.879	784.2
654.071	728.91
654.263	626.51
654.456	640.84
654.648	673.61
654.84	591.69
655.033	499.53
655.225	700.23
655.417	444.24
655.61	632.65
655.802	591.69
655.994	620.36
656.186	444.24
656.379	532.3
656.571	464.72
656.763	390.99
656.955	427.85
657.148	307.02
657.34	466.77
657.532	456.53
657.724	335.7
657.916	376.66
658.108	528.21
658.3	415.57
658.492	464.72
658.684	284.5
658.876	356.18
659.068	300.88
659.26	210.77
659.452	272.21
659.644	339.79
659.836	413.52
660.028	380.75
660.22	294.74
660.412	315.22
660.604	368.46
660.796	286.54
660.988	372.56
661.18	302.93
661.372	368.46
661.563	286.54
661.755	264.02
661.947	231.25
662.139	235.35
662.331	292.69
662.522	231.25
662.714	214.87
662.906	171.86
663.097	335.7
663.289	231.25
663.481	79.7
663.673	208.72
663.864	257.87
664.056	194.39
664.247	118.61
664.439	327.5
664.631	145.24
664.822	173.91
665.014	261.97
665.205	147.28
665.397	198.48
665.588	298.83
665.78	163.67
665.971	247.63
666.163	165.71
666.354	247.63
666.546	223.06
666.737	139.09
666.929	108.37
667.12	145.24
667.311	198.48
667.503	180.05
667.694	208.72
667.885	288.59
668.077	229.2
668.268	24.4
668.459	208.72
668.651	155.47
668.842	159.57
669.033	100.18
669.224	114.52
669.416	288.59
669.607	55.12
669.798	87.89
669.989	286.54
670.18	186.19
670.371	206.67
670.563	69.46
670.754	241.49
670.945	206.67
671.136	175.95
671.327	110.42
671.518	190.29
671.709	272.21
671.9	237.39
672.091	231.25
672.282	116.56
672.473	202.58
672.664	36.69
672.855	124.76
673.046	161.62
673.237	233.3
673.428	108.37
673.619	208.72
673.809	214.87
674	239.44
674.191	270.16
674.382	116.56
674.573	130.9
674.764	231.25
674.954	221.01
675.145	42.84
675.336	112.47
675.527	53.08
675.717	161.62
675.908	110.42
676.099	155.47
676.289	196.43
676.48	48.98
676.671	124.76
676.861	175.95
677.052	311.12
677.243	216.91
677.433	157.52
677.624	227.15
677.814	259.92
678.005	139.09
678.195	261.97
678.386	104.28
678.576	180.05
678.767	102.23
678.957	116.56
679.148	257.87
679.338	276.31
679.529	229.2
679.719	91.99
679.909	270.16
680.1	227.15
680.29	247.63
680.481	83.8
680.671	311.12
680.861	178
681.052	204.63
681.242	151.38
681.432	212.82
681.622	128.85
681.813	145.24
682.003	227.15
682.193	153.43
682.383	259.92
682.573	227.15
682.764	208.72
682.954	167.76
683.144	204.63
683.334	182.1
683.524	221.01
683.714	237.39
683.904	290.64
684.094	135
684.284	180.05
684.474	319.31
684.664	237.39
684.854	274.26
685.044	210.77
685.234	214.87
685.424	243.54
685.614	225.11
685.804	307.02
685.994	296.78
686.184	184.15
686.374	186.19
686.564	184.15
686.753	178
686.943	126.8
687.133	212.82
687.323	229.2
687.513	186.19
687.702	194.39
687.892	112.47
688.082	245.59
688.272	331.6
688.461	167.76
688.651	429.9
688.841	237.39
689.03	194.39
689.22	120.66
689.41	223.06
689.599	249.68
689.789	145.24
689.979	354.13
690.168	204.63
690.358	294.74
690.547	268.11
690.737	253.78
690.926	309.07
691.116	274.26
691.305	237.39
691.495	327.5
691.684	132.95
691.874	241.49
692.063	229.2
692.252	208.72
692.442	288.59
692.631	198.48
692.82	171.86
693.01	218.96
693.199	204.63
693.388	202.58
693.578	167.76
693.767	245.59
693.956	239.44
694.146	313.17
694.335	241.49
694.524	171.86
694.713	268.11
694.902	227.15
695.092	198.48
695.281	214.87
695.47	214.87
695.659	159.57
695.848	141.14
696.037	245.59
696.226	169.81
696.415	169.81
696.604	208.72
696.793	304.98
696.982	173.91
697.171	239.44
697.36	157.52
697.549	159.57
697.738	89.94
697.927	171.86
698.116	110.42
698.305	251.73
698.494	231.25
698.683	149.33
698.872	409.42
699.061	180.05
699.25	180.05
699.438	182.1
699.627	153.43
699.816	352.08
700.005	118.61
700.193	229.2
700.382	204.63
700.571	249.68
700.76	165.71
700.948	208.72
701.137	227.15
701.326	182.1
701.514	167.76
701.703	225.11
701.892	210.77
702.08	372.56
702.269	112.47
702.457	48.98
702.646	280.4
702.834	163.67
703.023	196.43
703.212	307.02
703.4	270.16
703.589	151.38
703.777	167.76
703.965	135
704.154	87.89
704.342	120.66
704.531	198.48
704.719	108.37
704.907	235.35
705.096	81.75
705.284	91.99
705.472	141.14
705.661	180.05
705.849	245.59
706.037	343.89
706.226	241.49
706.414	221.01
706.602	135
706.79	329.55
706.979	110.42
707.167	145.24
707.355	108.37
707.543	182.1
707.731	204.63
707.919	229.2
708.107	186.19
708.296	190.29
708.484	165.71
708.672	149.33
708.86	274.26
709.048	137.04
709.236	143.19
709.424	292.69
709.612	202.58
709.8	110.42
709.988	182.1
710.176	190.29
710.364	253.78
710.551	167.76
710.739	180.05
710.927	139.09
711.115	208.72
711.303	298.83
711.491	169.81
711.679	171.86
711.866	280.4
712.054	126.8
712.242	288.59
712.43	341.84
712.617	188.24
712.805	257.87
712.993	223.06
713.181	102.23
713.368	247.63
713.556	132.95
713.744	241.49
713.931	372.56
714.119	247.63
714.306	239.44
714.494	161.62
714.682	210.77
714.869	106.32
715.057	77.65
715.244	16.21
715.432	235.35
715.619	155.47
715.807	178
715.994	218.96
716.182	171.86
716.369	294.74
716.556	200.53
716.744	171.86
716.931	141.14
717.119	294.74
717.306	196.43
717.493	194.39
717.681	196.43
717.868	192.34
718.055	282.45
718.242	221.01
718.43	282.45
718.617	192.34
718.804	200.53
718.991	274.26
719.179	315.22
719.366	182.1
719.553	214.87
719.74	216.91
719.927	161.62
720.114	132.95
720.301	239.44
720.488	122.71
720.676	81.75
720.863	339.79
721.05	372.56
721.237	288.59
721.424	302.93
721.611	300.88
721.798	139.09
721.985	192.34
722.172	159.57
722.358	159.57
722.545	317.26
722.732	196.43
722.919	268.11
723.106	264.02
723.293	266.07
723.48	245.59
723.667	91.99
723.853	317.26
724.04	249.68
724.227	339.79
724.414	249.68
724.6	259.92
724.787	354.13
724.974	345.94
725.161	264.02
725.347	100.18
725.534	196.43
725.72	212.82
725.907	282.45
726.094	253.78
726.28	186.19
726.467	192.34
726.653	165.71
726.84	358.22
727.027	368.46
727.213	227.15
727.4	282.45
727.586	247.63
727.773	307.02
727.959	186.19
728.145	223.06
728.332	229.2
728.518	180.05
728.705	274.26
728.891	251.73
729.077	259.92
729.264	268.11
729.45	194.39
729.636	302.93
729.823	276.31
730.009	264.02
730.195	186.19
730.382	319.31
730.568	171.86
730.754	284.5
730.94	145.24
731.126	237.39
731.313	290.64
731.499	198.48
731.685	335.7
731.871	235.35
732.057	282.45
732.243	325.46
732.429	321.36
732.615	409.42
732.801	249.68
732.987	249.68
733.173	253.78
733.359	106.32
733.545	253.78
733.731	221.01
733.917	321.36
734.103	276.31
734.289	290.64
734.475	194.39
734.661	401.23
734.847	178
735.033	225.11
735.219	268.11
735.404	249.68
735.59	147.28
735.776	227.15
735.962	280.4
736.148	309.07
736.333	403.28
736.519	190.29
736.705	268.11
736.89	163.67
737.076	255.83
737.262	218.96
737.447	245.59
737.633	192.34
737.819	347.98
738.004	296.78
738.19	241.49
738.375	221.01
738.561	311.12
738.747	292.69
738.932	206.67
739.118	485.2
739.303	362.32
739.489	307.02
739.674	278.35
739.859	143.19
740.045	264.02
740.23	251.73
740.416	153.43
740.601	268.11
740.786	255.83
740.972	272.21
741.157	229.2
741.342	159.57
741.528	200.53
741.713	227.15
741.898	204.63
742.084	300.88
742.269	282.45
742.454	411.47
742.639	298.83
742.824	231.25
743.01	356.18
743.195	360.27
743.38	282.45
743.565	290.64
743.75	188.24
743.935	309.07
744.12	380.75
744.305	128.85
744.49	210.77
744.675	264.02
744.86	264.02
745.045	278.35
745.23	276.31
745.415	204.63
745.6	331.6
745.785	225.11
745.97	255.83
746.155	266.07
746.34	292.69
746.525	286.54
746.71	368.46
746.895	120.66
747.079	212.82
747.264	171.86
747.449	214.87
747.634	309.07
747.819	304.98
748.003	190.29
748.188	91.99
748.373	276.31
748.557	249.68
748.742	182.1
748.927	223.06
749.111	155.47
749.296	147.28
749.481	233.3
749.665	278.35
749.85	167.76
750.034	190.29
750.219	288.59
750.404	155.47
750.588	255.83
750.773	180.05
750.957	266.07
751.141	202.58
751.326	259.92
751.51	98.13
751.695	180.05
751.879	120.66
752.064	288.59
752.248	147.28
752.432	368.46
752.617	270.16
752.801	237.39
752.985	122.71
753.17	282.45
753.354	186.19
753.538	157.52
753.722	135
753.907	143.19
754.091	87.89
754.275	212.82
754.459	122.71
754.643	114.52
754.828	204.63
755.012	188.24
755.196	122.71
755.38	110.42
755.564	102.23
755.748	128.85
755.932	163.67
756.116	206.67
756.3	270.16
756.484	94.04
756.668	264.02
756.852	18.26
757.036	128.85
757.22	137.04
757.404	106.32
757.588	112.47
757.772	264.02
757.956	192.34
758.14	278.35
758.323	81.75
758.507	151.38
758.691	89.94
758.875	196.43
759.059	274.26
759.242	180.05
759.426	94.04
759.61	169.81
759.794	59.22
759.977	143.19
760.161	315.22
760.345	180.05
760.528	261.97
760.712	130.9
760.895	204.63
761.079	167.76
761.263	120.66
761.446	188.24
761.63	147.28
761.813	186.19
761.997	75.6
762.18	114.52
762.364	231.25
762.547	53.08
762.731	100.18
762.914	114.52
763.098	42.84
763.281	87.89
763.464	85.84
763.648	237.39
763.831	77.65
764.015	59.22
764.198	169.81
764.381	182.1
764.564	192.34
764.748	83.8
764.931	145.24
765.114	89.94
765.297	204.63
765.481	89.94
765.664	178
765.847	94.04
766.03	253.78
766.213	106.32
766.397	118.61
766.58	16.21
766.763	89.94
766.946	81.75
767.129	75.6
767.312	28.5
767.495	106.32
767.678	24.4
767.861	106.32
768.044	112.47
768.227	147.28
768.41	38.74
768.593	100.18
768.776	114.52
768.959	69.46
769.142	186.19
769.324	155.47
769.507	145.24
769.69	-2.22
769.873	120.66
770.056	343.89
770.239	141.14
770.421	214.87
770.604	196.43
770.787	83.8
770.97	94.04
771.152	100.18
771.335	180.05
771.518	10.07
771.7	137.04
771.883	227.15
772.066	100.18
772.248	135
772.431	128.85
772.613	42.84
772.796	67.41
772.978	53.08
773.161	194.39
773.343	61.27
773.526	165.71
773.708	-73.9
773.891	96.08
774.073	96.08
774.256	26.45
774.438	182.1
774.621	73.56
774.803	87.89
774.985	36.69
775.168	77.65
775.35	65.36
775.532	157.52
775.715	85.84
775.897	96.08
776.079	75.6
776.261	75.6
776.444	110.42
776.626	100.18
776.808	73.56
776.99	-2.22
777.173	48.98
777.355	51.03
777.537	114.52
777.719	135
777.901	32.6
778.083	135
778.265	36.69
778.447	108.37
778.629	-16.55
778.811	153.43
778.993	173.91
779.175	137.04
779.357	102.23
779.539	-26.79
779.721	104.28
779.903	198.48
780.085	36.69
780.267	69.46
780.449	10.07
780.631	120.66
780.812	161.62
780.994	59.22
781.176	38.74
781.358	135
781.54	124.76
781.721	139.09
781.903	173.91
782.085	63.32
782.267	110.42
782.448	-61.61
782.63	53.08
782.812	71.51
782.993	122.71
783.175	120.66
783.357	98.13
783.538	79.7
783.72	-34.99
783.901	83.8
784.083	128.85
784.264	110.42
784.446	3.93
784.627	-10.41
784.809	122.71
784.99	10.07
785.172	71.51
785.353	38.74
785.535	112.47
785.716	1.88
785.897	16.21
786.079	57.17
786.26	51.03
786.441	104.28
786.623	-53.42
786.804	-30.89
786.985	83.8
787.167	132.95
787.348	137.04
787.529	-16.55
787.71	153.43
787.891	96.08
788.073	79.7
788.254	-55.47
788.435	67.41
788.616	34.64
788.797	-32.94
788.978	-24.75
789.159	10.07
789.34	44.88
789.522	16.21
789.703	30.55
789.884	77.65
790.065	34.64
790.246	171.86
790.427	8.02
790.607	98.13
790.788	112.47
790.969	85.84
791.15	22.36
791.331	-6.31
791.512	32.6
791.693	-39.08
791.874	-24.75
792.054	59.22
792.235	102.23
792.416	8.02
792.597	-26.79
792.778	106.32
792.958	-28.84
793.139	67.41
793.32	63.32
793.5	-82.09
793.681	145.24
793.862	36.69
794.042	26.45
794.223	-49.32
794.404	91.99
794.584	-53.42
794.765	32.6
794.945	-30.89
795.126	96.08
795.306	145.24
795.487	3.93
795.667	51.03
795.848	44.88
796.028	55.12
796.209	63.32
796.389	3.93
796.57	28.5
796.75	46.93
796.93	18.26
797.111	-4.27
797.291	-47.27
797.471	130.9
797.652	26.45
797.832	-16.55
798.012	-2.22
798.192	-26.79
798.373	-47.27
798.553	-8.36
798.733	83.8
798.913	-24.75
799.093	-14.51
799.274	-69.8
799.454	143.19
799.634	67.41
799.814	165.71
799.994	145.24
800.174	38.74
800.354	-0.17
800.534	-133.29
800.714	102.23
800.894	-39.08
801.074	-73.9
801.254	-43.18
801.434	165.71
801.614	32.6
801.794	-104.62
801.974	1761.08
802.154	10.07
802.334	98.13
802.514	-59.56
802.693	55.12
802.873	-75.95
803.053	171.86
803.233	63.32
803.413	-55.47
803.592	-59.56
803.772	-6.31
803.952	-10.41
804.131	-16.55
804.311	104.28
804.491	87.89
804.67	-24.75
804.85	1.88
805.03	157.52
805.209	124.76
805.389	12.12
805.568	40.79
805.748	-30.89
805.928	-4.27
806.107	63.32
806.287	79.7
806.466	132.95
806.646	-32.94
806.825	69.46
807.004	-4.27
807.184	163.67
807.363	91.99
807.543	59.22
807.722	-4.27
807.901	137.04
808.081	91.99
808.26	-108.71
808.439	28.5
808.619	1.88
808.798	-47.27
808.977	32.6
809.156	91.99
809.336	30.55
809.515	40.79
809.694	-32.94
809.873	8.02
810.052	63.32
810.231	167.76
810.411	57.17
810.59	79.7
810.769	38.74
810.948	79.7
811.127	-118.95
811.306	-71.85
811.485	40.79
811.664	137.04
811.843	83.8
812.022	-0.17
812.201	-43.18
812.38	46.93
812.559	-53.42
812.737	28.5
812.916	-96.43
813.095	20.31
813.274	8.02
813.453	-22.7
813.632	20.31
813.811	87.89
813.989	-32.94
814.168	12.12
814.347	-34.99
814.526	94.04
814.704	87.89
814.883	106.32
815.062	-18.6
815.24	18.26
815.419	53.08
815.598	85.84
815.776	-104.62
815.955	42.84
816.133	-125.1
816.312	-41.13
816.49	-41.13
816.669	-26.79
816.847	-45.23
817.026	100.18
817.204	-16.55
817.383	-2.22
817.561	-53.42
817.74	14.17
817.918	-12.46
818.097	-6.31
818.275	12.12
818.453	38.74
818.632	3.93
818.81	-20.65
818.988	-88.23
819.167	-34.99
819.345	18.26
819.523	-100.52
819.701	61.27
819.879	59.22
820.058	48.98
820.236	28.5
820.414	22.36
820.592	-96.43
820.77	3.93
820.948	-43.18
821.127	-24.75
821.305	-0.17
821.483	36.69
821.661	46.93
821.839	32.6
822.017	-39.08
822.195	-6.31
822.373	-10.41
822.551	-12.46
822.729	55.12
822.907	-37.03
823.085	65.36
823.262	67.41
823.44	-104.62
823.618	10.07
823.796	8.02
823.974	-28.84
824.152	-30.89
824.329	5.97
824.507	34.64
824.685	16.21
824.863	30.55
825.04	22.36
825.218	71.51
825.396	-4.27
825.574	16.21
825.751	55.12
825.929	46.93
826.107	-37.03
826.284	10.07
826.462	61.27
826.639	-4.27
826.817	-88.23
826.994	89.94
827.172	-37.03
827.349	186.19
827.527	24.4
827.704	-43.18
827.882	24.4
828.059	55.12
828.237	-71.85
828.414	81.75
828.591	-166.06
828.769	34.64
828.946	-98.47
829.124	112.47
829.301	81.75
829.478	-53.42
829.655	124.76
829.833	-28.84
830.01	-170.15
830.187	3.93
830.364	-18.6
830.542	-45.23
830.719	124.76
830.896	1.88
831.073	59.22
831.25	22.36
831.427	-18.6
831.604	-0.17
831.782	-49.32
831.959	114.52
832.136	-4.27
832.313	100.18
832.49	-24.75
832.667	55.12
832.844	61.27
833.021	96.08
833.198	20.31
833.374	36.69
833.551	65.36
833.728	-37.03
833.905	145.24
834.082	-75.95
834.259	53.08
834.436	112.47
834.612	-49.32
834.789	91.99
834.966	32.6
835.143	32.6
835.319	-45.23
835.496	40.79
835.673	69.46
835.85	65.36
836.026	69.46
836.203	81.75
836.38	-51.37
836.556	-26.79
836.733	-16.55
836.909	227.15
837.086	-63.66
837.262	-73.9
837.439	26.45
837.616	-30.89
837.792	18.26
837.968	73.56
838.145	-104.62
838.321	34.64
838.498	67.41
838.674	51.03
838.851	-14.51
839.027	-53.42
839.203	-49.32
839.38	106.32
839.556	-8.36
839.732	139.09
839.909	-45.23
840.085	46.93
840.261	-51.37
840.437	98.13
840.614	-12.46
840.79	59.22
840.966	81.75
841.142	40.79
841.318	3.93
841.494	24.4
841.671	16.21
841.847	-20.65
842.023	-12.46
842.199	30.55
842.375	98.13
842.551	-39.08
842.727	-14.51
842.903	149.33
843.079	-96.43
843.255	120.66
843.431	-51.37
843.607	24.4
843.783	-157.86
843.959	98.13
844.134	-65.71
844.31	102.23
844.486	-47.27
844.662	20.31
844.838	-2.22
845.013	53.08
845.189	46.93
845.365	3.93
845.541	61.27
845.716	-8.36
845.892	20.31
846.068	-57.51
846.244	-98.47
846.419	42.84
846.595	-16.55
846.77	-88.23
846.946	-26.79
847.122	-6.31
847.297	1.88
847.473	161.62
847.648	-39.08
847.824	-20.65
847.999	-57.51
848.175	38.74
848.35	44.88
848.526	81.75
848.701	124.76
848.876	137.04
849.052	114.52
849.227	-26.79
849.403	-4.27
849.578	26.45
849.753	1.88
849.929	71.51
850.104	-51.37
850.279	34.64
850.454	40.79
850.63	40.79
850.805	-4.27
850.98	36.69
851.155	38.74
851.33	10.07
851.505	20.31
851.681	182.1
851.856	-63.66
852.031	55.12
852.206	12.12
852.381	-32.94
852.556	-2.22
852.731	8.02
852.906	61.27
853.081	108.37
853.256	118.61
853.431	30.55
853.606	-34.99
853.781	16.21
853.956	-184.49
854.131	36.69
854.305	-90.28
854.48	-28.84
854.655	-37.03
854.83	26.45
855.005	-0.17
855.18	79.7
855.354	-16.55
855.529	77.65
855.704	85.84
855.879	10.07
856.053	-88.23
856.228	-26.79
856.403	-82.09
856.577	55.12
856.752	-71.85
856.926	36.69
857.101	32.6
857.276	-30.89
857.45	77.65
857.625	79.7
857.799	14.17
857.974	-47.27
858.148	-18.6
858.323	73.56
858.497	-12.46
858.672	-67.75
858.846	-0.17
859.02	61.27
859.195	-139.43
859.369	-47.27
859.543	89.94
859.718	-34.99
859.892	-20.65
860.066	53.08
860.241	-49.32
860.415	32.6
860.589	-14.51
860.763	-69.8
860.938	-34.99
861.112	34.64
861.286	-34.99
861.46	77.65
861.634	-14.51
861.808	34.64
861.982	-45.23
862.157	-102.57
862.331	-2.22
862.505	-53.42
862.679	-84.14
862.853	5.97
863.027	51.03
863.201	153.43
863.375	-32.94
863.549	36.69
863.722	32.6
863.896	118.61
864.07	38.74
864.244	-24.75
864.418	65.36
864.592	-20.65
864.766	16.21
864.939	-0.17
865.113	-18.6
865.287	30.55
865.461	71.51
865.634	59.22
865.808	-16.55
865.982	-32.94
866.156	-55.47
866.329	3.93
866.503	69.46
866.676	102.23
866.85	73.56
867.024	-2.22
867.197	106.32
867.371	18.26
867.544	5.97
867.718	-75.95
867.891	79.7
868.065	-92.33
868.238	14.17
868.412	46.93
868.585	-14.51
868.759	-2.22
868.932	-65.71
869.105	-26.79
869.279	-47.27
869.452	-98.47
869.625	-34.99
869.799	34.64
869.972	-92.33
870.145	-26.79
870.319	83.8
870.492	-63.66
870.665	-28.84
870.838	-84.14
871.011	-114.86
871.185	-34.99
871.358	8.02
871.531	130.9
871.704	12.12
871.877	44.88
872.05	-4.27
872.223	-26.79
872.396	59.22
872.569	106.32
872.742	-0.17
872.915	65.36
873.088	-45.23
873.261	-8.36
873.434	89.94
873.607	-12.46
873.78	116.56
873.953	-65.71
874.126	42.84
874.299	108.37
874.471	-12.46
874.644	-20.65
874.817	18.26
874.99	167.76
875.163	-55.47
875.335	85.84
875.508	24.4
875.681	77.65
875.853	-71.85
876.026	71.51
876.199	46.93
876.371	-8.36
876.544	24.4
876.717	-53.42
876.889	-53.42
877.062	108.37
877.234	-98.47
877.407	10.07
877.579	65.36
877.752	112.47
877.924	110.42
878.097	10.07
878.269	53.08
878.442	118.61
878.614	51.03
878.786	32.6
878.959	79.7
879.131	55.12
879.303	-75.95
879.476	-51.37
879.648	75.6
879.82	34.64
879.993	-61.61
880.165	12.12
880.337	-104.62
880.509	46.93
880.681	-168.1
880.854	-63.66
881.026	-32.94
881.198	124.76
881.37	-24.75
881.542	30.55
881.714	-8.36
881.886	-28.84
882.058	30.55
882.23	69.46
882.402	1.88
882.574	-32.94
882.746	8.02
882.918	67.41
883.09	89.94
883.262	-32.94
883.434	73.56
883.606	-118.95
883.778	-59.56
883.95	180.05
884.122	-32.94
884.293	63.32
884.465	71.51
884.637	118.61
884.809	-34.99
884.98	44.88
885.152	3.93
885.324	112.47
885.496	-82.09
885.667	-77.99
885.839	-4.27
886.011	36.69
886.182	46.93
886.354	-14.51
886.525	24.4
886.697	-6.31
886.869	-8.36
887.04	-30.89
887.212	77.65
887.383	180.05
887.555	36.69
887.726	-0.17
887.897	-47.27
888.069	24.4
888.24	108.37
888.412	26.45
888.583	8.02
888.754	42.84
888.926	-125.1
889.097	-34.99
889.268	-67.75
889.44	40.79
889.611	-73.9
889.782	-75.95
889.953	-20.65
890.125	57.17
890.296	-102.57
890.467	-24.75
890.638	16.21
890.809	-43.18
890.98	-14.51
891.151	87.89
891.323	98.13
891.494	10.07
891.665	48.98
891.836	67.41
892.007	18.26
892.178	75.6
892.349	87.89
892.52	12.12
892.691	-4.27
892.862	-69.8
893.032	-32.94
893.203	-67.75
893.374	-32.94
893.545	67.41
893.716	-61.61
893.887	83.8
894.057	-10.41
894.228	-65.71
894.399	36.69
894.57	110.42
894.74	24.4
894.911	28.5
895.082	28.5
895.253	-104.62
895.423	-12.46
895.594	96.08
895.764	-12.46
895.935	-28.84
896.106	71.51
896.276	-121
896.447	18.26
896.617	-73.9
896.788	-8.36
896.958	51.03
897.129	-59.56
897.299	-22.7
897.47	102.23
897.64	102.23
897.81	-14.51
897.981	18.26
898.151	-49.32
898.322	-63.66
898.492	-34.99
898.662	-37.03
898.832	-55.47
899.003	-8.36
899.173	120.66
899.343	46.93
899.513	-73.9
