Data from USB4F104151__157__11-04-36-437.txt Node

Date: Wed Feb 26 11:04:36 EST 2025
User: louis
Spectrometer: USB4F10415
Trigger mode: 4
Integration Time (sec): 1.000000E-1
Scans to average: 1
Electric dark correction enabled: true
Nonlinearity correction enabled: false
Boxcar width: 0
XAxis mode: Wavelengths
Number of Pixels in Spectrum: 3648
>>>>>Begin Spectral Data<<<<<
178.204	-324.6
178.424	-324.6
178.644	-324.6
178.864	-353.27
179.084	-308.22
179.304	17.41
179.524	-9.22
179.744	-33.79
179.964	76.8
180.184	-46.08
180.404	37.89
180.624	-25.6
180.844	52.22
181.064	-46.08
181.283	3.07
181.503	-46.08
181.723	19.46
181.943	-154.62
182.163	128
182.383	29.7
182.602	76.8
182.822	101.37
183.042	56.32
183.262	-74.75
183.482	-17.41
183.701	39.94
183.921	52.22
184.141	-27.65
184.361	117.76
184.58	35.84
184.8	70.65
185.02	5.12
185.239	177.15
185.459	93.18
185.679	166.91
185.898	-99.33
186.118	7.17
186.338	31.74
186.557	191.49
186.777	-15.36
186.997	-3.07
187.216	35.84
187.436	242.68
187.655	103.42
187.875	113.66
188.095	17.41
188.314	195.58
188.534	62.46
188.753	-31.74
188.973	46.08
189.192	214.01
189.412	3.07
189.631	11.26
189.851	115.71
190.07	224.25
190.29	56.32
190.509	13.31
190.729	70.65
190.948	171.01
191.168	250.88
191.387	35.84
191.607	64.51
191.826	68.61
192.045	58.37
192.265	74.75
192.484	105.47
192.704	27.65
192.923	-39.94
193.142	189.44
193.362	97.28
193.581	52.22
193.8	111.61
194.02	97.28
194.239	80.89
194.458	119.81
194.678	50.18
194.897	3.07
195.116	168.96
195.335	33.79
195.555	140.29
195.774	-62.46
195.993	72.7
196.212	-39.94
196.432	3.07
196.651	-25.6
196.87	52.22
197.089	291.84
197.308	152.57
197.528	171.01
197.747	13.31
197.966	23.55
198.185	160.77
198.404	-48.13
198.623	113.66
198.842	99.33
199.062	78.85
199.281	91.13
199.5	39.94
199.719	183.29
199.938	111.61
200.157	113.66
200.376	58.37
200.595	123.9
200.814	27.65
201.033	17.41
201.252	138.24
201.471	64.51
201.69	117.76
201.909	56.32
202.128	148.48
202.347	50.18
202.566	60.42
202.785	-70.65
203.004	21.5
203.223	259.07
203.442	107.52
203.661	-60.42
203.879	123.9
204.098	91.13
204.317	-44.03
204.536	93.18
204.755	134.14
204.974	152.57
205.193	-9.22
205.411	236.54
205.63	93.18
205.849	37.89
206.068	91.13
206.287	-5.12
206.505	154.62
206.724	95.23
206.943	-19.46
207.162	9.22
207.381	115.71
207.599	-62.46
207.818	76.8
208.037	-13.31
208.255	27.65
208.474	52.22
208.693	39.94
208.911	11.26
209.13	76.8
209.349	87.04
209.567	158.72
209.786	144.38
210.005	150.53
210.223	48.13
210.442	-91.13
210.661	19.46
210.879	29.7
211.098	29.7
211.316	21.5
211.535	48.13
211.753	23.55
211.972	80.89
212.191	-17.41
212.409	-13.31
212.628	74.75
212.846	84.99
213.065	21.5
213.283	146.43
213.502	13.31
213.72	111.61
213.938	11.26
214.157	44.03
214.375	54.27
214.594	29.7
214.812	89.09
215.031	115.71
215.249	13.31
215.467	64.51
215.686	21.5
215.904	17.41
216.122	103.42
216.341	193.53
216.559	105.47
216.778	19.46
216.996	160.77
217.214	11.26
217.432	13.31
217.651	-35.84
217.869	68.61
218.087	19.46
218.306	25.6
218.524	52.22
218.742	39.94
218.96	52.22
219.179	-17.41
219.397	66.56
219.615	228.35
219.833	70.65
220.051	-52.22
220.27	21.5
220.488	93.18
220.706	56.32
220.924	46.08
221.142	-3.07
221.36	48.13
221.578	97.28
221.796	64.51
222.015	-25.6
222.233	76.8
222.451	140.29
222.669	-58.37
222.887	56.32
223.105	54.27
223.323	19.46
223.541	-52.22
223.759	74.75
223.977	31.74
224.195	142.33
224.413	54.27
224.631	142.33
224.849	66.56
225.067	273.4
225.285	52.22
225.503	1.02
225.721	-41.98
225.939	9.22
226.157	9.22
226.375	211.96
226.592	35.84
226.81	82.94
227.028	152.57
227.246	99.33
227.464	13.31
227.682	130.05
227.9	84.99
228.117	56.32
228.335	70.65
228.553	111.61
228.771	7.17
228.989	54.27
229.206	39.94
229.424	76.8
229.642	64.51
229.86	37.89
230.077	160.77
230.295	64.51
230.513	111.61
230.731	58.37
230.948	226.3
231.166	205.82
231.384	48.13
231.601	19.46
231.819	207.87
232.037	-37.89
232.254	19.46
232.472	46.08
232.689	35.84
232.907	164.86
233.125	-31.74
233.342	-52.22
233.56	9.22
233.777	19.46
233.995	62.46
234.213	125.95
234.43	97.28
234.648	39.94
234.865	-27.65
235.083	54.27
235.3	5.12
235.518	52.22
235.735	189.44
235.953	99.33
236.17	50.18
236.388	76.8
236.605	1.02
236.822	95.23
237.04	91.13
237.257	68.61
237.475	46.08
237.692	-15.36
237.909	216.06
238.127	23.55
238.344	80.89
238.562	132.09
238.779	-50.18
238.996	-33.79
239.214	54.27
239.431	29.7
239.648	-23.55
239.865	111.61
240.083	62.46
240.3	-19.46
240.517	48.13
240.735	95.23
240.952	166.91
241.169	111.61
241.386	37.89
241.603	50.18
241.821	-107.52
242.038	117.76
242.255	144.38
242.472	39.94
242.689	82.94
242.907	87.04
243.124	27.65
243.341	-5.12
243.558	5.12
243.775	-64.51
243.992	-37.89
244.209	156.67
244.426	132.09
244.643	37.89
244.86	46.08
245.078	99.33
245.295	60.42
245.512	68.61
245.729	-9.22
245.946	-35.84
246.163	27.65
246.38	33.79
246.597	-7.17
246.814	62.46
247.031	72.7
247.248	58.37
247.464	76.8
247.681	52.22
247.898	48.13
248.115	111.61
248.332	-1.02
248.549	119.81
248.766	166.91
248.983	121.85
249.2	93.18
249.417	138.24
249.633	48.13
249.85	97.28
250.067	11.26
250.284	105.47
250.501	76.8
250.717	95.23
250.934	23.55
251.151	56.32
251.368	25.6
251.585	56.32
251.801	3.07
252.018	-74.75
252.235	123.9
252.451	-46.08
252.668	41.98
252.885	130.05
253.102	76.8
253.318	44.03
253.535	64.51
253.752	-1.02
253.968	19.46
254.185	-17.41
254.401	72.7
254.618	99.33
254.835	5.12
255.051	97.28
255.268	84.99
255.484	11.26
255.701	66.56
255.917	-3.07
256.134	-17.41
256.351	-19.46
256.567	21.5
256.784	15.36
257	-37.89
257.217	99.33
257.433	99.33
257.65	91.13
257.866	168.96
258.082	-84.99
258.299	17.41
258.515	123.9
258.732	15.36
258.948	-3.07
259.165	23.55
259.381	-25.6
259.597	74.75
259.814	37.89
260.03	56.32
260.246	23.55
260.463	138.24
260.679	134.14
260.895	13.31
261.112	60.42
261.328	58.37
261.544	3.07
261.761	121.85
261.977	-13.31
262.193	-101.37
262.409	44.03
262.626	68.61
262.842	62.46
263.058	64.51
263.274	123.9
263.49	64.51
263.707	39.94
263.923	35.84
264.139	-60.42
264.355	17.41
264.571	95.23
264.787	97.28
265.004	136.19
265.22	25.6
265.436	33.79
265.652	80.89
265.868	17.41
266.084	-48.13
266.3	27.65
266.516	13.31
266.732	35.84
266.948	74.75
267.164	41.98
267.38	70.65
267.596	-3.07
267.812	177.15
268.028	-25.6
268.244	-13.31
268.46	37.89
268.676	31.74
268.892	58.37
269.108	-41.98
269.324	-52.22
269.54	-19.46
269.756	154.62
269.972	-27.65
270.188	19.46
270.403	27.65
270.619	58.37
270.835	35.84
271.051	48.13
271.267	-39.94
271.483	-9.22
271.698	84.99
271.914	76.8
272.13	9.22
272.346	64.51
272.562	-3.07
272.777	183.29
272.993	54.27
273.209	1.02
273.425	107.52
273.64	3.07
273.856	95.23
274.072	31.74
274.287	-13.31
274.503	44.03
274.719	99.33
274.934	60.42
275.15	-109.57
275.366	76.8
275.581	19.46
275.797	80.89
276.012	50.18
276.228	3.07
276.444	35.84
276.659	89.09
276.875	-25.6
277.09	7.17
277.306	-29.7
277.521	109.57
277.737	-21.5
277.952	95.23
278.168	146.43
278.383	62.46
278.599	39.94
278.814	134.14
279.03	-3.07
279.245	162.81
279.461	-1.02
279.676	56.32
279.892	-33.79
280.107	44.03
280.322	21.5
280.538	107.52
280.753	78.85
280.969	56.32
281.184	29.7
281.399	209.92
281.615	-41.98
281.83	91.13
282.045	-17.41
282.26	-76.8
282.476	91.13
282.691	76.8
282.906	89.09
283.122	-1.02
283.337	7.17
283.552	52.22
283.767	19.46
283.983	119.81
284.198	23.55
284.413	156.67
284.628	17.41
284.843	33.79
285.058	132.09
285.274	33.79
285.489	31.74
285.704	117.76
285.919	-39.94
286.134	39.94
286.349	31.74
286.564	80.89
286.779	162.81
286.995	13.31
287.21	-54.27
287.425	58.37
287.64	-27.65
287.855	119.81
288.07	-56.32
288.285	80.89
288.5	74.75
288.715	33.79
288.93	27.65
289.145	46.08
289.36	93.18
289.575	76.8
289.79	13.31
290.004	-21.5
290.219	72.7
290.434	-17.41
290.649	72.7
290.864	-15.36
291.079	-35.84
291.294	62.46
291.509	62.46
291.724	-17.41
291.938	3.07
292.153	84.99
292.368	13.31
292.583	105.47
292.798	136.19
293.012	-1.02
293.227	66.56
293.442	35.84
293.657	132.09
293.871	197.63
294.086	115.71
294.301	111.61
294.516	80.89
294.73	7.17
294.945	3.07
295.16	-29.7
295.374	185.34
295.589	128
295.804	33.79
296.018	7.17
296.233	138.24
296.447	109.57
296.662	17.41
296.877	134.14
297.091	97.28
297.306	68.61
297.52	-3.07
297.735	148.48
297.949	11.26
298.164	5.12
298.378	44.03
298.593	-33.79
298.807	37.89
299.022	-21.5
299.236	115.71
299.451	35.84
299.665	19.46
299.88	15.36
300.094	58.37
300.309	52.22
300.523	33.79
300.737	-31.74
300.952	119.81
301.166	107.52
301.381	-35.84
301.595	9.22
301.809	72.7
302.024	27.65
302.238	-78.85
302.452	78.85
302.667	95.23
302.881	119.81
303.095	39.94
303.309	46.08
303.524	23.55
303.738	37.89
303.952	44.03
304.166	121.85
304.381	-140.29
304.595	158.72
304.809	-35.84
305.023	11.26
305.237	33.79
305.452	39.94
305.666	87.04
305.88	121.85
306.094	93.18
306.308	138.24
306.522	66.56
306.736	125.95
306.95	62.46
307.164	21.5
307.379	37.89
307.593	134.14
307.807	152.57
308.021	123.9
308.235	107.52
308.449	-29.7
308.663	-46.08
308.877	285.69
309.091	82.94
309.305	64.51
309.519	-5.12
309.733	97.28
309.947	-41.98
310.161	107.52
310.374	35.84
310.588	105.47
310.802	-35.84
311.016	27.65
311.23	97.28
311.444	-11.26
311.658	78.85
311.872	166.91
312.085	140.29
312.299	125.95
312.513	168.96
312.727	111.61
312.941	-5.12
313.154	115.71
313.368	7.17
313.582	97.28
313.796	31.74
314.009	-11.26
314.223	150.53
314.437	111.61
314.651	117.76
314.864	41.98
315.078	44.03
315.292	-39.94
315.505	19.46
315.719	37.89
315.933	95.23
316.146	39.94
316.36	7.17
316.573	132.09
316.787	113.66
317.001	89.09
317.214	15.36
317.428	21.5
317.641	-11.26
317.855	78.85
318.068	93.18
318.282	21.5
318.495	205.82
318.709	76.8
318.922	35.84
319.136	115.71
319.349	144.38
319.563	-7.17
319.776	99.33
319.99	29.7
320.203	56.32
320.417	17.41
320.63	164.86
320.843	203.77
321.057	72.7
321.27	44.03
321.483	78.85
321.697	125.95
321.91	-3.07
322.124	-29.7
322.337	62.46
322.55	-11.26
322.763	99.33
322.977	50.18
323.19	-3.07
323.403	52.22
323.617	105.47
323.83	185.34
324.043	-44.03
324.256	31.74
324.469	-41.98
324.683	27.65
324.896	23.55
325.109	-46.08
325.322	-66.56
325.535	189.44
325.748	103.42
325.962	11.26
326.175	72.7
326.388	48.13
326.601	128
326.814	35.84
327.027	-27.65
327.24	175.1
327.453	-95.23
327.666	109.57
327.879	123.9
328.092	82.94
328.305	58.37
328.518	-23.55
328.731	3.07
328.944	-31.74
329.157	95.23
329.37	58.37
329.583	125.95
329.796	158.72
330.009	5.12
330.222	54.27
330.435	168.96
330.648	37.89
330.861	50.18
331.073	56.32
331.286	48.13
331.499	48.13
331.712	-64.51
331.925	72.7
332.138	-25.6
332.35	105.47
332.563	11.26
332.776	128
332.989	27.65
333.202	25.6
333.414	-19.46
333.627	62.46
333.84	-3.07
334.053	62.46
334.265	23.55
334.478	-56.32
334.691	82.94
334.903	-21.5
335.116	-7.17
335.329	15.36
335.541	123.9
335.754	105.47
335.966	-11.26
336.179	82.94
336.392	-1.02
336.604	101.37
336.817	156.67
337.029	39.94
337.242	-23.55
337.454	148.48
337.667	113.66
337.88	205.82
338.092	78.85
338.305	109.57
338.517	-39.94
338.729	142.33
338.942	113.66
339.154	17.41
339.367	-37.89
339.579	109.57
339.792	11.26
340.004	179.2
340.217	-23.55
340.429	17.41
340.641	74.75
340.854	13.31
341.066	62.46
341.278	72.7
341.491	136.19
341.703	15.36
341.915	-54.27
342.128	130.05
342.34	48.13
342.552	39.94
342.764	9.22
342.977	5.12
343.189	19.46
343.401	60.42
343.613	-37.89
343.826	66.56
344.038	68.61
344.25	84.99
344.462	3.07
344.674	84.99
344.886	17.41
345.099	105.47
345.311	134.14
345.523	-5.12
345.735	-70.65
345.947	44.03
346.159	41.98
346.371	70.65
346.583	23.55
346.795	236.54
347.007	44.03
347.219	97.28
347.431	-44.03
347.643	119.81
347.855	78.85
348.067	197.63
348.279	-27.65
348.491	56.32
348.703	158.72
348.915	-50.18
349.127	64.51
349.339	37.89
349.551	48.13
349.763	68.61
349.975	60.42
350.187	97.28
350.399	160.77
350.61	105.47
350.822	9.22
351.034	99.33
351.246	-5.12
351.458	72.7
351.669	89.09
351.881	117.76
352.093	66.56
352.305	115.71
352.517	76.8
352.728	179.2
352.94	171.01
353.152	33.79
353.363	15.36
353.575	35.84
353.787	152.57
353.999	70.65
354.21	134.14
354.422	-11.26
354.633	13.31
354.845	97.28
355.057	66.56
355.268	64.51
355.48	109.57
355.692	-13.31
355.903	33.79
356.115	56.32
356.326	-37.89
356.538	125.95
356.749	105.47
356.961	150.53
357.172	-39.94
357.384	64.51
357.595	97.28
357.807	13.31
358.018	46.08
358.23	70.65
358.441	158.72
358.653	101.37
358.864	62.46
359.075	3.07
359.287	56.32
359.498	123.9
359.709	101.37
359.921	54.27
360.132	60.42
360.344	54.27
360.555	31.74
360.766	60.42
360.977	-25.6
361.189	54.27
361.4	9.22
361.611	175.1
361.823	111.61
362.034	93.18
362.245	-187.39
362.456	93.18
362.667	15.36
362.879	-13.31
363.09	78.85
363.301	91.13
363.512	54.27
363.723	56.32
363.935	41.98
364.146	76.8
364.357	160.77
364.568	27.65
364.779	-37.89
364.99	175.1
365.201	-60.42
365.412	195.58
365.623	-72.7
365.834	50.18
366.045	-9.22
366.256	123.9
366.467	76.8
366.678	-29.7
366.889	70.65
367.1	35.84
367.311	156.67
367.522	21.5
367.733	130.05
367.944	68.61
368.155	13.31
368.366	115.71
368.577	107.52
368.788	132.09
368.999	-56.32
369.209	29.7
369.42	209.92
369.631	195.58
369.842	76.8
370.053	7.17
370.264	84.99
370.474	-41.98
370.685	-1.02
370.896	64.51
371.107	152.57
371.317	74.75
371.528	-9.22
371.739	121.85
371.95	84.99
372.16	50.18
372.371	-11.26
372.582	3.07
372.792	203.77
373.003	19.46
373.214	23.55
373.424	130.05
373.635	37.89
373.846	125.95
374.056	5.12
374.267	74.75
374.477	101.37
374.688	35.84
374.898	93.18
375.109	109.57
375.319	84.99
375.53	80.89
375.74	166.91
375.951	41.98
376.161	144.38
376.372	197.63
376.582	9.22
376.793	74.75
377.003	11.26
377.214	35.84
377.424	62.46
377.635	33.79
377.845	-1.02
378.055	123.9
378.266	-37.89
378.476	11.26
378.686	58.37
378.897	37.89
379.107	125.95
379.317	74.75
379.528	1.02
379.738	148.48
379.948	-72.7
380.158	52.22
380.369	91.13
380.579	128
380.789	41.98
380.999	171.01
381.21	146.43
381.42	246.78
381.63	41.98
381.84	140.29
382.05	3.07
382.261	99.33
382.471	95.23
382.681	-13.31
382.891	175.1
383.101	64.51
383.311	-11.26
383.521	-31.74
383.731	134.14
383.941	95.23
384.151	93.18
384.361	46.08
384.571	52.22
384.781	39.94
384.991	240.64
385.201	164.86
385.411	99.33
385.621	33.79
385.831	64.51
386.041	82.94
386.251	44.03
386.461	181.25
386.671	29.7
386.881	68.61
387.091	64.51
387.301	101.37
387.511	97.28
387.72	37.89
387.93	64.51
388.14	-80.89
388.35	62.46
388.56	117.76
388.769	148.48
388.979	31.74
389.189	60.42
389.399	74.75
389.609	70.65
389.818	105.47
390.028	82.94
390.238	101.37
390.447	-35.84
390.657	33.79
390.867	19.46
391.076	-13.31
391.286	95.23
391.496	76.8
391.705	21.5
391.915	48.13
392.125	142.33
392.334	70.65
392.544	146.43
392.753	-35.84
392.963	66.56
393.172	23.55
393.382	3.07
393.591	162.81
393.801	1.02
394.01	134.14
394.22	70.65
394.429	123.9
394.639	82.94
394.848	123.9
395.058	93.18
395.267	44.03
395.477	33.79
395.686	84.99
395.895	236.54
396.105	265.21
396.314	138.24
396.524	117.76
396.733	134.14
396.942	117.76
397.152	150.53
397.361	136.19
397.57	66.56
397.78	62.46
397.989	-3.07
398.198	195.58
398.407	109.57
398.617	78.85
398.826	37.89
399.035	31.74
399.244	160.77
399.453	142.33
399.663	-7.17
399.872	-11.26
400.081	3.07
400.29	125.95
400.499	27.65
400.708	107.52
400.917	-64.51
401.127	-29.7
401.336	80.89
401.545	181.25
401.754	107.52
401.963	189.44
402.172	66.56
402.381	-21.5
402.59	23.55
402.799	21.5
403.008	171.01
403.217	3.07
403.426	78.85
403.635	13.31
403.844	84.99
404.053	-44.03
404.262	7.17
404.471	166.91
404.68	68.61
404.888	50.18
405.097	50.18
405.306	64.51
405.515	128
405.724	46.08
405.933	72.7
406.142	99.33
406.35	123.9
406.559	-1.02
406.768	76.8
406.977	123.9
407.185	84.99
407.394	33.79
407.603	23.55
407.812	15.36
408.02	78.85
408.229	115.71
408.438	99.33
408.646	25.6
408.855	17.41
409.064	109.57
409.272	-1.02
409.481	146.43
409.69	44.03
409.898	-5.12
410.107	113.66
410.315	107.52
410.524	76.8
410.733	5.12
410.941	109.57
411.15	121.85
411.358	109.57
411.567	166.91
411.775	164.86
411.984	35.84
412.192	62.46
412.401	25.6
412.609	144.38
412.818	121.85
413.026	17.41
413.234	-21.5
413.443	48.13
413.651	27.65
413.86	74.75
414.068	191.49
414.276	211.96
414.485	-11.26
414.693	226.3
414.901	125.95
415.11	84.99
415.318	56.32
415.526	46.08
415.734	144.38
415.943	13.31
416.151	222.2
416.359	33.79
416.567	113.66
416.776	134.14
416.984	123.9
417.192	160.77
417.4	60.42
417.608	27.65
417.817	-15.36
418.025	142.33
418.233	205.82
418.441	7.17
418.649	-7.17
418.857	60.42
419.065	177.15
419.273	37.89
419.481	72.7
419.689	41.98
419.897	-17.41
420.105	-11.26
420.313	152.57
420.521	158.72
420.729	183.29
420.937	66.56
421.145	27.65
421.353	117.76
421.561	121.85
421.769	74.75
421.977	-3.07
422.185	138.24
422.393	60.42
422.601	269.31
422.809	130.05
423.017	82.94
423.224	29.7
423.432	130.05
423.64	41.98
423.848	91.13
424.056	31.74
424.263	152.57
424.471	84.99
424.679	148.48
424.887	-13.31
425.094	121.85
425.302	144.38
425.51	68.61
425.718	183.29
425.925	70.65
426.133	89.09
426.341	158.72
426.548	80.89
426.756	35.84
426.964	74.75
427.171	56.32
427.379	142.33
427.586	138.24
427.794	158.72
428.001	168.96
428.209	99.33
428.417	171.01
428.624	146.43
428.832	173.05
429.039	58.37
429.247	154.62
429.454	111.61
429.662	177.15
429.869	150.53
430.076	232.44
430.284	171.01
430.491	201.72
430.699	158.72
430.906	203.77
431.114	242.68
431.321	91.13
431.528	136.19
431.736	115.71
431.943	246.78
432.15	216.06
432.358	263.16
432.565	281.6
432.772	46.08
432.979	148.48
433.187	156.67
433.394	171.01
433.601	111.61
433.808	285.69
434.016	263.16
434.223	240.64
434.43	261.12
434.637	222.2
434.844	275.45
435.052	300.03
435.259	297.98
435.466	340.99
435.673	277.5
435.88	338.94
436.087	361.47
436.294	392.19
436.501	343.03
436.708	353.27
436.915	355.32
437.122	320.51
437.329	214.01
437.537	316.41
437.743	392.19
437.95	465.91
438.157	381.95
438.364	441.34
438.571	424.95
438.778	326.65
438.985	412.67
439.192	478.2
439.399	443.39
439.606	463.86
439.813	535.54
440.02	627.7
440.227	707.57
440.433	703.48
440.64	605.17
440.847	615.41
441.054	545.78
441.261	736.24
441.467	670.71
441.674	609.27
441.881	801.78
442.088	660.47
442.294	715.77
442.501	875.51
442.708	977.91
442.914	816.12
443.121	934.9
443.328	895.99
443.534	1051.63
443.741	982
443.948	924.66
444.154	1096.69
444.361	1194.99
444.568	1086.45
444.774	1215.47
444.981	1194.99
445.187	1336.3
445.394	1287.15
445.6	1264.62
445.807	1434.6
446.013	1453.03
446.22	1369.07
446.426	1541.1
446.633	1518.57
446.839	1860.58
447.046	1582.06
447.252	1885.16
447.459	1907.68
447.665	1770.47
447.871	1987.55
448.078	2114.53
448.284	2057.18
448.491	2173.92
448.697	2268.13
448.903	2391
449.11	2438.11
449.316	2317.28
449.522	2671.58
449.728	2653.14
449.935	2767.83
450.141	2694.1
450.347	3058.64
450.553	2943.96
450.76	3025.87
450.966	3288.01
451.172	3429.32
451.378	3460.04
451.584	3529.67
451.791	3724.23
451.997	3984.32
452.203	3926.98
452.409	4187.07
452.615	4369.34
452.821	4312
453.027	4182.98
453.233	4840.37
453.44	4723.64
453.646	5014.45
453.852	5209.01
454.058	5299.12
454.264	5428.14
454.47	5860.26
454.676	5888.93
454.882	6505.37
455.088	6144.93
455.294	6513.56
455.5	6730.65
455.705	7310.22
455.911	7244.69
456.117	7478.16
456.323	7852.94
456.529	7826.31
456.735	8508.29
456.941	8788.86
457.147	9079.67
457.352	9360.24
457.558	9440.11
457.764	10101.61
457.97	10535.78
458.176	10740.57
458.381	11264.85
458.587	11582.29
458.793	12069.7
458.999	12278.6
459.204	13503.28
459.41	14215.98
459.616	13945.64
459.821	14613.28
460.027	15455
460.233	16003.85
460.438	15975.18
460.644	17427.19
460.85	17156.86
461.055	17873.65
461.261	19028.7
461.466	18537.19
461.672	18828
461.878	20712.13
462.083	20722.37
462.289	21340.86
462.494	21973.68
462.7	22219.44
462.905	22366.89
463.111	24435.34
463.316	25610.87
463.522	26032.75
463.727	27116.13
463.932	28002.9
464.138	29182.53
464.343	30167.6
464.549	29819.45
464.754	32236.05
464.959	33139.21
465.165	33745.41
465.37	33559.04
465.575	33843.71
465.781	35840.48
465.986	36821.45
466.191	36162.01
466.397	37048.78
466.602	35869.15
466.807	37700.03
467.012	38576.56
467.218	38898.09
467.423	39481.77
467.628	39920.03
467.833	42074.49
468.038	41017.74
468.244	40739.22
468.449	42846.58
468.654	42156.41
468.859	42137.98
469.064	41781.63
469.269	41062.8
469.474	41290.12
469.679	42494.33
469.885	41449.86
470.09	41951.62
470.295	42043.77
470.5	41005.45
470.705	41376.14
470.91	40026.53
471.115	39520.68
471.32	40524.18
471.525	40135.07
471.73	38945.2
471.935	38451.64
472.139	37048.78
472.344	37339.59
472.549	37136.84
472.754	36452.82
472.959	35539.43
473.164	34632.18
473.369	33608.19
473.574	34955.75
473.778	34097.66
473.983	33589.76
474.188	32973.32
474.393	31494.69
474.598	31089.19
474.802	30577.2
475.007	29995.57
475.212	30091.83
475.417	28641.87
475.621	28222.03
475.826	28572.24
476.031	27435.61
476.235	27142.75
476.44	27028.07
476.645	26065.52
476.849	26034.8
477.054	25555.58
477.259	24941.19
477.463	24816.26
477.668	24040.08
477.872	24119.95
478.077	23681.69
478.282	22829.73
478.486	22749.86
478.691	22432.43
478.895	22549.16
479.1	22330.03
479.304	22192.81
479.509	21177.02
479.713	21629.62
479.918	21140.16
480.122	20775.62
480.326	20961.98
480.531	20538.05
480.735	20493
480.94	20169.42
481.144	20413.13
481.348	19974.86
481.553	19933.9
481.757	19186.4
481.961	19733.2
482.166	19784.4
482.37	19528.41
482.574	19178.2
482.778	19079.9
482.983	19282.65
483.187	18813.66
483.391	19022.56
483.595	18240.23
483.8	18320.1
484.004	18229.99
484.208	18281.19
484.412	17812.21
484.616	17742.58
484.821	17849.07
485.025	16999.16
485.229	17251.06
485.433	16931.58
485.637	16663.3
485.841	16589.57
486.045	16194.31
486.249	16184.07
486.453	15491.86
486.657	15594.26
486.861	15541.01
487.065	14900
487.269	15012.63
487.473	14478.12
487.677	14666.53
487.881	14701.34
488.085	13855.53
488.289	13972.27
488.493	13542.19
488.697	13667.12
488.901	13126.46
489.105	12888.89
489.309	12708.67
489.512	12634.94
489.716	12026.7
489.92	11903.82
490.124	11811.66
490.328	11916.11
490.531	11490.13
490.735	11162.45
490.939	10992.47
491.143	10836.83
491.346	10732.38
491.55	10666.85
491.754	10447.71
491.958	10259.3
492.161	10107.75
492.365	9880.43
492.569	9618.29
492.772	9438.06
492.976	9544.56
493.18	9388.91
493.383	9382.77
493.587	9145.2
493.79	9073.53
493.994	8909.69
494.197	8807.29
494.401	8827.77
494.605	8534.91
494.808	8743.8
495.012	8502.14
495.215	8405.89
495.419	8455.04
495.622	8311.68
495.825	8233.86
496.029	8174.47
496.232	8502.14
496.436	8182.66
496.639	8362.88
496.843	8088.45
497.046	8364.93
497.249	8555.39
497.453	8274.82
497.656	8207.23
497.859	8166.28
498.063	8117.12
498.266	8362.88
498.469	8012.68
498.673	8276.87
498.876	8201.09
499.079	8174.47
499.282	8274.82
499.485	8786.81
499.689	8622.97
499.892	8336.26
500.095	8526.72
500.298	8827.77
500.501	8571.77
500.705	9067.38
500.908	8999.8
501.111	8919.93
501.314	9046.9
501.517	9333.62
501.72	9147.25
501.923	9128.82
502.126	9169.78
502.329	9689.96
502.532	9528.17
502.735	9509.74
502.938	9911.14
503.141	9954.15
503.344	10062.69
503.547	10040.17
503.75	10165.09
503.953	10251.11
504.156	10507.1
504.359	10701.66
504.562	10765.15
504.765	11230.04
504.968	11148.12
505.17	11385.68
505.373	11494.22
505.576	11670.35
505.779	11803.47
505.982	11920.2
506.185	12239.69
506.387	12503.87
506.59	12794.68
506.793	12970.81
506.996	13290.29
507.198	13579.06
507.401	13749.04
507.604	13955.88
507.807	14252.84
508.009	14476.07
508.212	14910.24
508.415	15047.45
508.617	15258.39
508.82	15446.8
509.022	15602.45
509.225	16179.98
509.428	16614.15
509.63	17097.47
509.833	17124.09
510.035	17777.39
510.238	18092.78
510.44	18387.69
510.643	19012.32
510.845	19145.44
511.048	19305.18
511.25	19940.05
511.453	20581.06
511.655	21447.35
511.858	21725.88
512.06	21947.06
512.262	22375.08
512.465	22688.42
512.667	23409.31
512.87	23835.28
513.072	24378
513.274	25244.29
513.477	25539.19
513.679	26151.54
513.881	26954.34
514.084	27320.93
514.286	27654.75
514.488	28170.83
514.69	29225.54
514.893	29852.22
515.095	30218.8
515.297	30822.95
515.499	31648.29
515.701	32098.84
515.904	32868.87
516.106	33587.71
516.308	34345.46
516.51	35170.79
516.712	35193.32
516.914	36250.07
517.116	37063.11
517.318	37243.34
517.52	37900.73
517.722	38644.15
517.925	39289.26
518.127	40159.64
518.329	40597.91
518.531	41197.96
518.733	42228.09
518.935	42903.92
519.136	43327.85
519.338	44532.06
519.54	44554.58
519.742	45392.2
519.944	45908.29
520.146	46754.1
520.348	47618.35
520.55	47919.4
520.752	48261.41
520.954	49359.12
521.155	49330.45
521.357	50004.23
521.559	51026.17
521.761	51378.42
521.963	51591.4
522.164	52250.85
522.366	52445.41
522.568	53012.7
522.77	53561.55
522.971	54100.17
523.173	53530.83
523.375	54534.34
523.576	54083.78
523.778	54667.45
523.98	55601.33
524.181	55431.35
524.383	55439.54
524.584	55902.38
524.786	55427.25
524.988	55546.03
525.189	55976.11
525.391	56066.22
525.592	56946.84
525.794	56178.85
525.995	56410.28
526.197	56043.69
526.398	55734.45
526.6	55984.3
526.801	55521.46
527.003	55230.65
527.204	55505.07
527.406	55621.81
527.607	54927.55
527.808	55247.03
528.01	53686.48
528.211	54126.79
528.412	54352.07
528.614	53905.61
528.815	53434.58
529.016	53272.79
529.218	52556
529.419	52080.87
529.62	51812.59
529.822	51149.04
530.023	50462.97
530.224	50249.99
530.425	50243.84
530.626	49348.88
530.828	48079.14
531.029	48939.29
531.23	47784.23
531.431	47159.6
531.632	46719.29
531.833	46704.95
532.035	45674.82
532.236	45275.47
532.437	45220.17
532.638	44210.53
532.839	43835.75
533.04	43200.88
533.241	42447.22
533.442	42611.06
533.643	41466.25
533.844	40989.07
534.045	40632.72
534.246	39872.93
534.447	39469.48
534.648	38715.83
534.849	38588.85
535.05	37429.7
535.251	37077.45
535.451	36792.78
535.652	36239.83
535.853	35764.7
536.054	35283.43
536.255	34730.48
536.456	34447.86
536.657	34177.53
536.857	33155.59
537.058	33311.24
537.259	33081.86
537.46	32555.54
537.66	31914.52
537.861	31605.28
538.062	31121.96
538.263	30738.99
538.463	30278.19
538.664	29731.39
538.865	29434.43
539.065	29131.33
539.266	28658.25
539.466	28629.58
539.667	27953.75
539.868	28027.48
540.068	27306.59
540.269	27177.57
540.469	26729.06
540.67	26696.3
540.87	25895.54
541.071	25928.31
541.271	25551.48
541.472	25240.19
541.672	25096.83
541.873	24541.83
542.073	23978.64
542.274	24138.38
542.474	24222.35
542.675	23495.32
542.875	23378.59
543.075	22864.55
543.276	22514.34
543.476	22792.87
543.676	22244.01
543.877	22231.72
544.077	21967.54
544.277	21648.05
544.478	21428.92
544.678	21248.7
544.878	20761.28
545.078	20671.17
545.279	20452.04
545.479	20021.97
545.679	19911.38
545.879	19667.67
546.079	19563.22
546.28	19055.33
546.48	19102.43
546.68	19096.28
546.88	18821.86
547.08	18391.78
547.28	18475.75
547.48	17599.22
547.68	17957.61
547.88	17318.65
548.081	17345.27
548.281	17177.34
548.481	16818.94
548.681	16909.05
548.881	16579.33
549.081	16001.8
549.28	15909.65
549.48	16098.06
549.68	15676.18
549.88	15694.61
550.08	15008.54
550.28	14965.53
550.48	14824.22
550.68	14891.8
550.88	14453.54
551.08	14101.29
551.279	14050.09
551.479	13763.37
551.679	13458.23
551.879	13314.87
552.079	13198.13
552.278	12725.05
552.478	12884.8
552.678	12604.22
552.878	12438.34
553.077	12165.96
553.277	11991.88
553.477	11985.74
553.676	11860.81
553.876	11502.42
554.076	11307.86
554.275	11387.73
554.475	10978.14
554.674	11002.71
554.874	10666.85
555.074	10488.67
555.273	10449.76
555.473	10226.53
555.672	9980.78
555.872	9642.86
556.071	9675.63
556.271	9554.8
556.47	9476.98
556.67	9157.49
556.869	8924.02
557.068	8842.11
557.268	8608.64
557.467	8749.95
557.667	8594.3
557.866	8397.7
558.065	8156.04
558.265	8295.3
558.464	7758.73
558.663	7924.62
558.863	7832.46
559.062	7730.06
559.261	7435.15
559.461	7517.07
559.66	7175.06
559.859	7000.98
560.058	6955.93
560.258	6767.51
560.457	6910.87
560.656	6914.97
560.855	6439.84
561.054	6585.24
561.253	6343.58
561.453	6495.13
561.652	6333.34
561.851	6189.99
562.05	5804.97
562.249	5882.79
562.448	5972.9
562.647	5770.15
562.846	5585.83
563.045	5831.59
563.244	5407.66
563.443	5684.14
563.642	5262.26
563.841	5321.65
564.04	5155.76
564.239	5084.08
564.438	5219.25
564.637	4897.72
564.836	4893.62
565.035	4826.04
565.234	4729.78
565.432	4686.78
565.631	4711.35
565.83	4461.5
566.029	4539.32
566.228	4420.54
566.427	4484.03
566.625	4312
566.824	4176.83
567.023	4264.89
567.222	4107.2
567.42	4131.78
567.619	4062.15
567.818	4002.75
568.016	4017.09
568.215	3769.29
568.414	3857.35
568.612	3816.39
568.811	3699.66
569.01	3748.81
569.208	3556.3
569.407	3644.36
569.605	3541.96
569.804	3402.7
570.002	3437.52
570.201	3316.69
570.4	3326.93
570.598	3173.33
570.797	3169.23
570.995	3056.59
571.193	3036.11
571.392	3077.07
571.59	2839.51
571.789	3099.6
571.987	3146.7
572.186	2978.77
572.384	2845.65
572.582	2759.64
572.781	2970.58
572.979	2784.21
573.177	2640.86
573.376	2704.34
573.574	2630.62
573.772	2542.55
573.971	2466.78
574.169	2337.76
574.367	2550.75
574.565	2362.33
574.763	2251.74
574.962	2319.32
575.16	2276.32
575.358	2212.83
575.556	2296.8
575.754	2237.41
575.952	2198.49
576.151	2307.04
576.349	2200.54
576.547	2059.23
576.745	2046.94
576.943	2016.23
577.141	2028.51
577.339	2005.99
577.537	1903.59
577.735	2003.94
577.933	1893.35
578.131	1756.13
578.329	1926.11
578.527	1747.94
578.725	1801.19
578.923	1614.82
579.121	1657.83
579.319	1571.82
579.516	1653.73
579.714	1709.03
579.912	1586.15
580.11	1446.89
580.308	1420.27
580.506	1444.84
580.704	1319.92
580.901	1453.03
581.099	1602.54
581.297	1450.99
581.495	1410.03
581.692	1362.92
581.89	1547.24
582.088	1326.06
582.285	1291.24
582.483	1301.48
582.681	1305.58
582.878	1217.52
583.076	1326.06
583.274	1287.15
583.471	1324.01
583.669	1235.95
583.866	1141.74
584.064	1031.15
584.262	1192.94
584.459	1070.06
584.657	1164.27
584.854	1151.98
585.052	1125.36
585.249	1102.83
585.447	1170.41
585.644	1051.63
585.841	1201.13
586.039	1098.74
586.236	1182.7
586.434	1022.96
586.631	918.51
586.828	926.71
587.026	949.23
587.223	898.03
587.42	979.95
587.618	1033.2
587.815	979.95
588.012	967.67
588.21	822.26
588.407	971.76
588.604	941.04
588.801	830.45
588.999	838.64
589.196	922.61
589.393	834.55
589.59	887.79
589.787	926.71
589.984	895.99
590.182	814.07
590.379	783.35
590.576	773.11
590.773	814.07
590.97	812.02
591.167	809.97
591.364	914.42
591.561	666.61
591.758	906.23
591.955	787.44
592.152	746.48
592.349	836.6
592.546	719.86
592.743	703.48
592.94	766.96
593.137	791.54
593.334	891.89
593.531	814.07
593.727	812.02
593.924	805.88
594.121	818.16
594.318	820.21
594.515	848.88
594.712	941.04
594.908	932.85
595.105	783.35
595.302	848.88
595.499	812.02
595.696	883.7
595.892	807.92
596.089	945.14
596.286	904.18
596.482	969.71
596.679	1022.96
596.876	953.33
597.072	1098.74
597.269	1002.48
597.466	1031.15
597.662	1012.72
597.859	1035.25
598.055	1158.13
598.252	1166.32
598.448	1180.65
598.645	1326.06
598.841	1213.42
599.038	1506.28
599.234	1397.74
599.431	1504.23
599.627	1508.33
599.824	1481.71
600.02	1541.1
600.217	1641.45
600.413	1811.43
600.609	1706.98
600.806	2073.57
601.002	1958.88
601.198	1985.51
601.395	2102.24
601.591	2165.73
601.787	2266.08
601.984	2280.41
602.18	2419.68
602.376	2423.77
602.572	2522.07
602.769	2710.49
602.965	2792.41
603.161	2894.8
603.357	2855.89
603.553	3134.42
603.75	3054.55
603.946	3234.77
604.142	3392.46
604.338	3496.91
604.534	3570.63
604.73	3634.12
604.926	3722.18
605.122	3976.13
605.318	4000.71
605.514	4213.7
605.71	4211.65
605.906	4373.44
606.102	4432.83
606.298	4750.26
606.494	4826.04
606.69	5051.31
606.886	5219.25
607.082	5139.38
607.278	5307.31
607.474	5573.55
607.67	5651.37
607.866	5745.58
608.062	6136.74
608.257	6030.24
608.453	6251.42
608.649	6650.78
608.845	6534.04
609.041	6767.51
609.236	7062.42
609.432	7138.2
609.628	7414.67
609.824	7545.74
610.019	7709.58
610.215	7920.52
610.411	8323.97
610.606	8280.96
610.802	8565.63
610.998	8786.81
611.193	9167.73
611.389	9104.25
611.584	9608.05
611.78	9644.91
611.976	10117.99
612.171	10644.32
612.367	10443.62
612.562	10818.39
612.758	10865.5
612.953	11440.98
613.149	11844.43
613.344	11803.47
613.539	12596.03
613.735	12725.05
613.93	12950.33
614.126	13247.29
614.321	13955.88
614.517	14017.32
614.712	14447.4
614.907	14537.51
615.103	15215.38
615.298	15299.35
615.493	16159.5
615.688	16306.95
615.884	16974.59
616.079	16651.01
616.274	17552.12
616.47	18127.6
616.665	18385.64
616.86	18840.29
617.055	19319.51
617.25	19905.23
617.445	20499.14
617.641	20554.44
617.836	21414.59
618.031	21465.78
618.226	22530.73
618.421	23012
618.616	23446.17
618.811	23454.36
619.006	24550.03
619.201	24711.81
619.396	25793.14
619.591	25715.32
619.786	26636.91
619.981	27109.99
620.176	27845.21
620.371	27966.04
620.566	29231.68
620.761	29459.01
620.956	30532.14
621.151	30093.88
621.346	31455.78
621.541	31590.94
621.735	32348.69
621.93	32207.38
622.125	33638.91
622.32	33520.13
622.515	34738.67
622.709	35113.45
622.904	35803.61
623.099	36524.5
623.294	37134.79
623.488	37179.85
623.683	38500.79
623.878	38543.8
624.072	39440.81
624.267	39977.37
624.462	40450.45
624.656	40880.53
624.851	41787.78
625.046	42107.26
625.24	42713.46
625.435	43204.97
625.629	43561.32
625.824	44222.81
626.018	45203.79
626.213	44937.55
626.407	45812.04
626.602	45732.17
626.796	46567.74
626.991	46887.22
627.185	47202.61
627.38	47216.94
627.574	47927.59
627.768	47956.26
627.963	48150.82
628.157	47685.93
628.352	48441.63
628.546	47753.51
628.74	48349.47
628.935	47898.92
629.129	48056.61
629.323	47479.08
629.517	47239.47
629.712	47087.92
629.906	46653.75
630.1	45824.32
630.294	45945.15
630.489	45633.86
630.683	45054.29
630.877	43899.23
631.071	43000.18
631.265	42090.88
631.459	41517.45
631.653	40235.42
631.848	39358.89
632.042	38656.43
632.236	37605.83
632.43	36684.24
632.624	35590.62
632.818	34296.31
633.012	33536.51
633.206	31912.47
633.4	31449.63
633.594	30134.84
633.788	29172.29
633.982	28504.65
634.176	27087.46
634.369	25823.86
634.563	25260.67
634.757	24031.89
634.951	23581.34
635.145	22299.31
635.339	21764.79
635.533	20413.13
635.726	19684.05
635.92	18588.39
636.114	18070.25
636.308	17363.7
636.501	16763.65
636.695	16278.28
636.889	15362.84
637.083	14775.07
637.276	14009.13
637.47	13513.52
637.664	13081.4
637.857	12639.04
638.051	12014.41
638.244	11768.65
638.438	11037.53
638.632	10918.75
638.825	9997.16
639.019	9933.67
639.212	9575.28
639.406	9059.19
639.599	8670.08
639.793	8352.64
639.986	7840.65
640.18	7781.26
640.373	7379.86
640.567	7164.82
640.76	6925.21
640.954	6603.68
641.147	6134.69
641.34	6054.82
641.534	5833.64
641.727	5716.9
641.92	5348.27
642.114	5325.74
642.307	5102.51
642.5	4959.16
642.694	4533.18
642.887	4447.16
643.08	4283.33
643.273	4318.14
643.467	3994.56
643.66	3843.01
643.853	3722.18
644.046	3558.35
644.239	3482.57
644.432	3230.67
644.626	3099.6
644.819	2927.57
645.012	2870.23
645.205	2993.11
645.398	2825.17
645.591	2565.08
645.784	2384.86
645.977	2352.09
646.17	2311.13
646.363	2155.49
646.556	2065.38
646.749	2034.66
646.942	1946.59
647.135	1960.93
647.328	1825.76
647.521	1821.67
647.714	1682.41
647.907	1688.55
648.099	1446.89
648.292	1575.91
648.485	1448.94
648.678	1281
648.871	1381.35
649.064	1240.05
649.256	1235.95
649.449	1149.93
649.642	1125.36
649.835	1104.88
650.027	1029.1
650.22	1039.34
650.413	1039.34
650.605	1031.15
650.798	842.74
650.991	830.45
651.183	832.5
651.376	855.03
651.568	877.55
651.761	791.54
651.954	891.89
652.146	793.59
652.339	793.59
652.531	820.21
652.724	660.47
652.916	580.6
653.109	482.3
653.301	644.09
653.494	646.13
653.686	570.36
653.879	695.29
654.071	519.16
654.263	564.22
654.456	586.74
654.648	654.33
654.84	607.22
655.033	508.92
655.225	560.12
655.417	293.88
655.61	537.59
655.802	457.72
655.994	527.35
656.186	332.79
656.379	429.05
656.571	353.27
656.763	351.23
656.955	326.65
657.148	312.32
657.34	347.13
657.532	345.08
657.724	371.71
657.916	334.84
658.108	445.43
658.3	416.76
658.492	248.83
658.684	244.73
658.876	302.08
659.068	220.16
659.26	209.92
659.452	203.77
659.644	275.45
659.836	412.67
660.028	252.92
660.22	226.3
660.412	257.02
660.604	242.68
660.796	277.5
660.988	326.65
661.18	242.68
661.372	310.27
661.563	207.87
661.755	279.55
661.947	193.53
662.139	205.82
662.331	246.78
662.522	330.75
662.714	199.68
662.906	197.63
663.097	183.29
663.289	132.09
663.481	76.8
663.673	175.1
663.864	162.81
664.056	254.97
664.247	134.14
664.439	224.25
664.631	209.92
664.822	242.68
665.014	220.16
665.205	125.95
665.397	185.34
665.588	230.4
665.78	275.45
665.971	220.16
666.163	218.11
666.354	201.72
666.546	128
666.737	191.49
666.929	146.43
667.12	128
667.311	193.53
667.503	140.29
667.694	177.15
667.885	150.53
668.077	140.29
668.268	37.89
668.459	109.57
668.651	162.81
668.842	261.12
669.033	66.56
669.224	11.26
669.416	418.81
669.607	138.24
669.798	13.31
669.989	199.68
670.18	125.95
670.371	175.1
670.563	11.26
670.754	189.44
670.945	74.75
671.136	168.96
671.327	93.18
671.518	166.91
671.709	340.99
671.9	232.44
672.091	242.68
672.282	189.44
672.473	166.91
672.664	93.18
672.855	146.43
673.046	252.92
673.237	234.49
673.428	201.72
673.619	197.63
673.809	166.91
674	363.51
674.191	156.67
674.382	103.42
674.573	121.85
674.764	101.37
674.954	218.11
675.145	87.04
675.336	142.33
675.527	82.94
675.717	95.23
675.908	78.85
676.099	13.31
676.289	107.52
676.48	19.46
676.671	166.91
676.861	117.76
677.052	177.15
677.243	99.33
677.433	177.15
677.624	160.77
677.814	142.33
678.005	152.57
678.195	189.44
678.386	70.65
678.576	113.66
678.767	31.74
678.957	119.81
679.148	195.58
679.338	254.97
679.529	160.77
679.719	111.61
679.909	244.73
680.1	230.4
680.29	234.49
680.481	9.22
680.671	201.72
680.861	142.33
681.052	216.06
681.242	3.07
681.432	244.73
681.622	117.76
681.813	68.61
682.003	220.16
682.193	117.76
682.383	181.25
682.573	111.61
682.764	197.63
682.954	123.9
683.144	179.2
683.334	156.67
683.524	142.33
683.714	205.82
683.904	216.06
684.094	136.19
684.284	191.49
684.474	252.92
684.664	232.44
684.854	201.72
685.044	232.44
685.234	216.06
685.424	207.87
685.614	72.7
685.804	242.68
685.994	189.44
686.184	302.08
686.374	171.01
686.564	144.38
686.753	156.67
686.943	168.96
687.133	191.49
687.323	107.52
687.513	230.4
687.702	201.72
687.892	115.71
688.082	222.2
688.272	238.59
688.461	263.16
688.651	322.56
688.841	248.83
689.03	191.49
689.22	211.96
689.41	263.16
689.599	222.2
689.789	91.13
689.979	259.07
690.168	224.25
690.358	195.58
690.547	220.16
690.737	214.01
690.926	220.16
691.116	177.15
691.305	201.72
691.495	183.29
691.684	148.48
691.874	205.82
692.063	211.96
692.252	244.73
692.442	257.02
692.631	232.44
692.82	175.1
693.01	181.25
693.199	175.1
693.388	232.44
693.578	125.95
693.767	269.31
693.956	195.58
694.146	48.13
694.335	207.87
694.524	171.01
694.713	236.54
694.902	154.62
695.092	154.62
695.281	230.4
695.47	156.67
695.659	162.81
695.848	160.77
696.037	78.85
696.226	263.16
696.415	271.36
696.604	248.83
696.793	252.92
696.982	123.9
697.171	304.12
697.36	111.61
697.549	46.08
697.738	13.31
697.927	148.48
698.116	158.72
698.305	189.44
698.494	175.1
698.683	142.33
698.872	381.95
699.061	187.39
699.25	175.1
699.438	123.9
699.627	177.15
699.816	336.89
700.005	101.37
700.193	203.77
700.382	171.01
700.571	119.81
700.76	166.91
700.948	252.92
701.137	177.15
701.326	234.49
701.514	70.65
701.703	222.2
701.892	289.79
702.08	371.71
702.269	111.61
702.457	105.47
702.646	150.53
702.834	154.62
703.023	244.73
703.212	220.16
703.4	130.05
703.589	164.86
703.777	95.23
703.965	70.65
704.154	130.05
704.342	121.85
704.531	146.43
704.719	146.43
704.907	285.69
705.096	93.18
705.284	156.67
705.472	105.47
705.661	162.81
705.849	250.88
706.037	216.06
706.226	195.58
706.414	160.77
706.602	201.72
706.79	181.25
706.979	87.04
707.167	238.59
707.355	84.99
707.543	181.25
707.731	177.15
707.919	183.29
708.107	99.33
708.296	113.66
708.484	54.27
708.672	261.12
708.86	130.05
709.048	197.63
709.236	93.18
709.424	201.72
709.612	189.44
709.8	39.94
709.988	123.9
710.176	246.78
710.364	226.3
710.551	68.61
710.739	175.1
710.927	117.76
711.115	123.9
711.303	234.49
711.491	203.77
711.679	105.47
711.866	179.2
712.054	181.25
712.242	207.87
712.43	343.03
712.617	93.18
712.805	166.91
712.993	148.48
713.181	103.42
713.368	248.83
713.556	207.87
713.744	89.09
713.931	330.75
714.119	211.96
714.306	105.47
714.494	91.13
714.682	132.09
714.869	89.09
715.057	164.86
715.244	84.99
715.432	189.44
715.619	76.8
715.807	109.57
715.994	105.47
716.182	113.66
716.369	191.49
716.556	308.22
716.744	66.56
716.931	87.04
717.119	218.11
717.306	158.72
717.493	250.88
717.681	244.73
717.868	154.62
718.055	164.86
718.242	125.95
718.43	115.71
718.617	248.83
718.804	164.86
718.991	232.44
719.179	228.35
719.366	162.81
719.553	183.29
719.74	197.63
719.927	156.67
720.114	220.16
720.301	132.09
720.488	84.99
720.676	152.57
720.863	355.32
721.05	265.21
721.237	199.68
721.424	156.67
721.611	171.01
721.798	115.71
721.985	168.96
722.172	121.85
722.358	125.95
722.545	252.92
722.732	248.83
722.919	347.13
723.106	201.72
723.293	193.53
723.48	300.03
723.667	150.53
723.853	267.26
724.04	197.63
724.227	242.68
724.414	134.14
724.6	244.73
724.787	336.89
724.974	279.55
725.161	179.2
725.347	142.33
725.534	240.64
725.72	267.26
725.907	324.6
726.094	211.96
726.28	179.2
726.467	197.63
726.653	168.96
726.84	295.93
727.027	242.68
727.213	199.68
727.4	232.44
727.586	171.01
727.773	216.06
727.959	187.39
728.145	164.86
728.332	259.07
728.518	183.29
728.705	232.44
728.891	226.3
729.077	214.01
729.264	211.96
729.45	158.72
729.636	189.44
729.823	273.4
730.009	222.2
730.195	232.44
730.382	183.29
730.568	148.48
730.754	218.11
730.94	242.68
731.126	181.25
731.313	285.69
731.499	273.4
731.685	263.16
731.871	259.07
732.057	273.4
732.243	279.55
732.429	173.05
732.615	457.72
732.801	300.03
732.987	181.25
733.173	263.16
733.359	228.35
733.545	240.64
733.731	209.92
733.917	259.07
734.103	375.8
734.289	232.44
734.475	152.57
734.661	369.66
734.847	207.87
735.033	166.91
735.219	289.79
735.404	187.39
735.59	236.54
735.776	300.03
735.962	234.49
736.148	265.21
736.333	332.79
736.519	236.54
736.705	254.97
736.89	263.16
737.076	234.49
737.262	177.15
737.447	214.01
737.633	267.26
737.819	338.94
738.004	228.35
738.19	254.97
738.375	293.88
738.561	375.8
738.747	207.87
738.932	218.11
739.118	340.99
739.303	244.73
739.489	314.36
739.674	248.83
739.859	214.01
740.045	273.4
740.23	224.25
740.416	58.37
740.601	218.11
740.786	195.58
740.972	224.25
741.157	193.53
741.342	82.94
741.528	154.62
741.713	228.35
741.898	218.11
742.084	222.2
742.269	181.25
742.454	316.41
742.639	306.17
742.824	250.88
743.01	308.22
743.195	369.66
743.38	142.33
743.565	179.2
743.75	281.6
743.935	324.6
744.12	314.36
744.305	99.33
744.49	220.16
744.675	207.87
744.86	162.81
745.045	138.24
745.23	179.2
745.415	175.1
745.6	293.88
745.785	216.06
745.97	187.39
746.155	201.72
746.34	283.64
746.525	207.87
746.71	332.79
746.895	183.29
747.079	123.9
747.264	164.86
747.449	189.44
747.634	232.44
747.819	211.96
748.003	125.95
748.188	128
748.373	214.01
748.557	224.25
748.742	142.33
748.927	248.83
749.111	248.83
749.296	209.92
749.481	224.25
749.665	211.96
749.85	91.13
750.034	238.59
750.219	209.92
750.404	191.49
750.588	181.25
750.773	164.86
750.957	185.34
751.141	146.43
751.326	297.98
751.51	130.05
751.695	211.96
751.879	175.1
752.064	218.11
752.248	226.3
752.432	216.06
752.617	234.49
752.801	175.1
752.985	68.61
753.17	232.44
753.354	140.29
753.538	199.68
753.722	125.95
753.907	111.61
754.091	60.42
754.275	234.49
754.459	15.36
754.643	171.01
754.828	205.82
755.012	226.3
755.196	37.89
755.38	144.38
755.564	64.51
755.748	175.1
755.932	232.44
756.116	199.68
756.3	134.14
756.484	78.85
756.668	199.68
756.852	41.98
757.036	156.67
757.22	111.61
757.404	64.51
757.588	109.57
757.772	183.29
757.956	128
758.14	336.89
758.323	107.52
758.507	207.87
758.691	89.09
758.875	177.15
759.059	254.97
759.242	142.33
759.426	197.63
759.61	166.91
759.794	123.9
759.977	138.24
760.161	277.5
760.345	181.25
760.528	211.96
760.712	148.48
760.895	140.29
761.079	117.76
761.263	19.46
761.446	89.09
761.63	109.57
761.813	142.33
761.997	58.37
762.18	68.61
762.364	242.68
762.547	-9.22
762.731	107.52
762.914	150.53
763.098	125.95
763.281	7.17
763.464	70.65
763.648	89.09
763.831	37.89
764.015	5.12
764.198	144.38
764.381	82.94
764.564	111.61
764.748	89.09
764.931	128
765.114	89.09
765.297	138.24
765.481	76.8
765.664	130.05
765.847	82.94
766.03	132.09
766.213	117.76
766.397	154.62
766.58	31.74
766.763	109.57
766.946	95.23
767.129	93.18
767.312	-35.84
767.495	58.37
767.678	21.5
767.861	140.29
768.044	64.51
768.227	97.28
768.41	52.22
768.593	84.99
768.776	138.24
768.959	111.61
769.142	158.72
769.324	93.18
769.507	115.71
769.69	84.99
769.873	82.94
770.056	285.69
770.239	27.65
770.421	232.44
770.604	191.49
770.787	44.03
770.97	82.94
771.152	25.6
771.335	95.23
771.518	-1.02
771.7	123.9
771.883	107.52
772.066	1.02
772.248	119.81
772.431	246.78
772.613	101.37
772.796	33.79
772.978	117.76
773.161	205.82
773.343	-5.12
773.526	19.46
773.708	-121.85
773.891	19.46
774.073	93.18
774.256	44.03
774.438	222.2
774.621	25.6
774.803	117.76
774.985	48.13
775.168	175.1
775.35	76.8
775.532	130.05
775.715	-15.36
775.897	140.29
776.079	-37.89
776.261	68.61
776.444	17.41
776.626	117.76
776.808	-27.65
776.99	-125.95
777.173	76.8
777.355	-11.26
777.537	64.51
777.719	60.42
777.901	-9.22
778.083	-7.17
778.265	-37.89
778.447	125.95
778.629	-27.65
778.811	44.03
778.993	97.28
779.175	183.29
779.357	76.8
779.539	91.13
779.721	35.84
779.903	138.24
780.085	58.37
780.267	140.29
780.449	35.84
780.631	99.33
780.812	211.96
780.994	56.32
781.176	-58.37
781.358	35.84
781.54	62.46
781.721	52.22
781.903	74.75
782.085	50.18
782.267	121.85
782.448	-17.41
782.63	15.36
782.812	66.56
782.993	41.98
783.175	87.04
783.357	29.7
783.538	44.03
783.72	-7.17
783.901	27.65
784.083	68.61
784.264	125.95
784.446	5.12
784.627	-48.13
784.809	35.84
784.99	-29.7
785.172	140.29
785.353	17.41
785.535	105.47
785.716	27.65
785.897	-37.89
786.079	52.22
786.26	-13.31
786.441	41.98
786.623	-9.22
786.804	-66.56
786.985	11.26
787.167	60.42
787.348	-5.12
787.529	54.27
787.71	164.86
787.891	97.28
788.073	33.79
788.254	-29.7
788.435	123.9
788.616	31.74
788.797	-39.94
788.978	31.74
789.159	-48.13
789.34	87.04
789.522	56.32
789.703	-9.22
789.884	62.46
790.065	142.33
790.246	224.25
790.427	-41.98
790.607	156.67
790.788	144.38
790.969	-29.7
791.15	76.8
791.331	13.31
791.512	-33.79
791.693	-48.13
791.874	17.41
792.054	160.77
792.235	74.75
792.416	-5.12
792.597	33.79
792.778	23.55
792.958	48.13
793.139	23.55
793.32	27.65
793.5	25.6
793.681	101.37
793.862	72.7
794.042	44.03
794.223	-46.08
794.404	-25.6
794.584	19.46
794.765	31.74
794.945	-5.12
795.126	93.18
795.306	101.37
795.487	78.85
795.667	-9.22
795.848	25.6
796.028	37.89
796.209	1.02
796.389	-5.12
796.57	58.37
796.75	-13.31
796.93	27.65
797.111	-54.27
797.291	-15.36
797.471	76.8
797.652	74.75
797.832	-46.08
798.012	89.09
798.192	37.89
798.373	-58.37
798.553	-15.36
798.733	25.6
798.913	-99.33
799.093	11.26
799.274	64.51
799.454	72.7
799.634	-41.98
799.814	113.66
799.994	84.99
800.174	37.89
800.354	11.26
800.534	-74.75
800.714	111.61
800.894	-95.23
801.074	5.12
801.254	-52.22
801.434	72.7
801.614	-52.22
801.794	-31.74
801.974	1975.27
802.154	-11.26
802.334	70.65
802.514	-128
802.693	-25.6
802.873	37.89
803.053	97.28
803.233	64.51
803.413	-35.84
803.592	-7.17
803.772	13.31
803.952	11.26
804.131	-97.28
804.311	140.29
804.491	132.09
804.67	-66.56
804.85	-27.65
805.03	37.89
805.209	58.37
805.389	7.17
805.568	-1.02
805.748	50.18
805.928	-5.12
806.107	82.94
806.287	-3.07
806.466	62.46
806.646	19.46
806.825	25.6
807.004	-39.94
807.184	11.26
807.363	31.74
807.543	62.46
807.722	-50.18
807.901	214.01
808.081	31.74
808.26	-224.25
808.439	64.51
808.619	13.31
808.798	27.65
808.977	84.99
809.156	95.23
809.336	35.84
809.515	-19.46
809.694	35.84
809.873	19.46
810.052	113.66
810.231	125.95
810.411	39.94
810.59	91.13
810.769	-15.36
810.948	68.61
811.127	-82.94
811.306	-19.46
811.485	-13.31
811.664	168.96
811.843	27.65
812.022	64.51
812.201	-29.7
812.38	-23.55
812.559	-87.04
812.737	74.75
812.916	-52.22
813.095	-56.32
813.274	9.22
813.453	25.6
813.632	27.65
813.811	7.17
813.989	-111.61
814.168	-15.36
814.347	-78.85
814.526	-15.36
814.704	117.76
814.883	62.46
815.062	-84.99
815.24	64.51
815.419	-21.5
815.598	1.02
815.776	-27.65
815.955	-9.22
816.133	-99.33
816.312	-1.02
816.49	-35.84
816.669	7.17
816.847	-91.13
817.026	109.57
817.204	82.94
817.383	-27.65
817.561	-31.74
817.74	46.08
817.918	-9.22
818.097	-17.41
818.275	-39.94
818.453	62.46
818.632	72.7
818.81	-17.41
818.988	-58.37
819.167	-21.5
819.345	50.18
819.523	-66.56
819.701	25.6
819.879	72.7
820.058	17.41
820.236	35.84
820.414	74.75
820.592	5.12
820.77	11.26
820.948	-50.18
821.127	-9.22
821.305	72.7
821.483	-91.13
821.661	168.96
821.839	-1.02
822.017	-68.61
822.195	-41.98
822.373	58.37
822.551	-27.65
822.729	101.37
822.907	-15.36
823.085	101.37
823.262	-5.12
823.44	41.98
823.618	-39.94
823.796	44.03
823.974	-5.12
824.152	1.02
824.329	50.18
824.507	-7.17
824.685	44.03
824.863	-19.46
825.04	-1.02
825.218	95.23
825.396	70.65
825.574	29.7
825.751	7.17
825.929	37.89
826.107	-60.42
826.284	84.99
826.462	39.94
826.639	35.84
826.817	-60.42
826.994	-11.26
827.172	-15.36
827.349	154.62
827.527	84.99
827.704	-37.89
827.882	138.24
828.059	-35.84
828.237	-21.5
828.414	70.65
828.591	-54.27
828.769	29.7
828.946	-54.27
829.124	70.65
829.301	89.09
829.478	-33.79
829.655	78.85
829.833	-37.89
830.01	-138.24
830.187	58.37
830.364	19.46
830.542	17.41
830.719	107.52
830.896	72.7
831.073	7.17
831.25	50.18
831.427	60.42
831.604	-91.13
831.782	-13.31
831.959	72.7
832.136	-35.84
832.313	-29.7
832.49	-84.99
832.667	-60.42
832.844	-37.89
833.021	119.81
833.198	7.17
833.374	-19.46
833.551	-9.22
833.728	-41.98
833.905	52.22
834.082	-150.53
834.259	15.36
834.436	64.51
834.612	-72.7
834.789	146.43
834.966	-68.61
835.143	1.02
835.319	-37.89
835.496	76.8
835.673	21.5
835.85	134.14
836.026	70.65
836.203	99.33
836.38	-52.22
836.556	-101.37
836.733	-37.89
836.909	50.18
837.086	-29.7
837.262	-56.32
837.439	-37.89
837.616	-29.7
837.792	31.74
837.968	33.79
838.145	-97.28
838.321	-29.7
838.498	46.08
838.674	-50.18
838.851	21.5
839.027	27.65
839.203	27.65
839.38	11.26
839.556	-19.46
839.732	31.74
839.909	15.36
840.085	11.26
840.261	-31.74
840.437	-7.17
840.614	111.61
840.79	95.23
840.966	142.33
841.142	41.98
841.318	-91.13
841.494	-15.36
841.671	31.74
841.847	-58.37
842.023	-119.81
842.199	52.22
842.375	80.89
842.551	-121.85
842.727	-56.32
842.903	119.81
843.079	-111.61
843.255	93.18
843.431	9.22
843.607	89.09
843.783	-113.66
843.959	31.74
844.134	-44.03
844.31	158.72
844.486	-27.65
844.662	-21.5
844.838	-9.22
845.013	-29.7
845.189	95.23
845.365	-7.17
845.541	54.27
845.716	-48.13
845.892	31.74
846.068	-15.36
846.244	-130.05
846.419	84.99
846.595	-95.23
846.77	-17.41
846.946	50.18
847.122	-58.37
847.297	-13.31
847.473	171.01
847.648	-56.32
847.824	17.41
847.999	-60.42
848.175	-68.61
848.35	17.41
848.526	89.09
848.701	25.6
848.876	68.61
849.052	107.52
849.227	50.18
849.403	-11.26
849.578	-37.89
849.753	91.13
849.929	-19.46
850.104	-117.76
850.279	31.74
850.454	-27.65
850.63	7.17
850.805	15.36
850.98	-27.65
851.155	31.74
851.33	-41.98
851.505	-50.18
851.681	105.47
851.856	-31.74
852.031	9.22
852.206	-7.17
852.381	-62.46
852.556	62.46
852.731	11.26
852.906	105.47
853.081	-46.08
853.256	136.19
853.431	41.98
853.606	-89.09
853.781	-46.08
853.956	-148.48
854.131	97.28
854.305	-9.22
854.48	-66.56
854.655	-66.56
854.83	-44.03
855.005	39.94
855.18	31.74
855.354	68.61
855.529	-46.08
855.704	-29.7
855.879	3.07
856.053	-50.18
856.228	29.7
856.403	-103.42
856.577	48.13
856.752	-9.22
856.926	76.8
857.101	52.22
857.276	-9.22
857.45	-25.6
857.625	-3.07
857.799	-7.17
857.974	-70.65
858.148	-132.09
858.323	39.94
858.497	-3.07
858.672	-58.37
858.846	-78.85
859.02	23.55
859.195	-80.89
859.369	-19.46
859.543	-35.84
859.718	27.65
859.892	-7.17
860.066	64.51
860.241	17.41
860.415	-99.33
860.589	-29.7
860.763	39.94
860.938	50.18
861.112	50.18
861.286	-37.89
861.46	37.89
861.634	-9.22
861.808	60.42
861.982	17.41
862.157	-82.94
862.331	-50.18
862.505	-37.89
862.679	-160.77
862.853	5.12
863.027	-21.5
863.201	109.57
863.375	-9.22
863.549	27.65
863.722	-7.17
863.896	142.33
864.07	-41.98
864.244	9.22
864.418	87.04
864.592	11.26
864.766	11.26
864.939	27.65
865.113	-27.65
865.287	95.23
865.461	25.6
865.634	35.84
865.808	-52.22
865.982	29.7
866.156	-95.23
866.329	-62.46
866.503	5.12
866.676	62.46
866.85	-27.65
867.024	-21.5
867.197	60.42
867.371	11.26
867.544	-5.12
867.718	-70.65
867.891	72.7
868.065	-82.94
868.238	9.22
868.412	74.75
868.585	41.98
868.759	-5.12
868.932	41.98
869.105	-11.26
869.279	-54.27
869.452	-99.33
869.625	-60.42
869.799	-9.22
869.972	-130.05
870.145	-27.65
870.319	48.13
870.492	-19.46
870.665	-3.07
870.838	-21.5
871.011	-189.44
871.185	-46.08
871.358	-33.79
871.531	31.74
871.704	-1.02
871.877	-19.46
872.05	-15.36
872.223	-76.8
872.396	35.84
872.569	105.47
872.742	-123.9
872.915	-19.46
873.088	-35.84
873.261	-107.52
873.434	1.02
873.607	-68.61
873.78	89.09
873.953	-134.14
874.126	37.89
874.299	41.98
874.471	-60.42
874.644	27.65
874.817	52.22
874.99	113.66
875.163	-70.65
875.335	-7.17
875.508	-13.31
875.681	91.13
875.853	-101.37
876.026	11.26
876.199	132.09
876.371	-11.26
876.544	-54.27
876.717	19.46
876.889	-46.08
877.062	9.22
877.234	-60.42
877.407	-117.76
877.579	23.55
877.752	-37.89
877.924	11.26
878.097	103.42
878.269	31.74
878.442	-5.12
878.614	46.08
878.786	3.07
878.959	5.12
879.131	9.22
879.303	-50.18
879.476	-41.98
879.648	48.13
879.82	1.02
879.993	-31.74
880.165	21.5
880.337	-89.09
880.509	19.46
880.681	-91.13
880.854	3.07
881.026	-11.26
881.198	166.91
881.37	-70.65
881.542	23.55
881.714	19.46
881.886	-103.42
882.058	-29.7
882.23	41.98
882.402	-54.27
882.574	-39.94
882.746	27.65
882.918	154.62
883.09	11.26
883.262	-29.7
883.434	25.6
883.606	-119.81
883.778	27.65
883.95	109.57
884.122	-101.37
884.293	-17.41
884.465	-25.6
884.637	60.42
884.809	-66.56
884.98	11.26
885.152	35.84
885.324	-7.17
885.496	-56.32
885.667	-113.66
885.839	-3.07
886.011	82.94
886.182	58.37
886.354	95.23
886.525	-50.18
886.697	41.98
886.869	-68.61
887.04	-37.89
887.212	130.05
887.383	78.85
887.555	25.6
887.726	7.17
887.897	-74.75
888.069	-27.65
888.24	156.67
888.412	-80.89
888.583	-111.61
888.754	-50.18
888.926	-23.55
889.097	-58.37
889.268	-152.57
889.44	-50.18
889.611	-136.19
889.782	-97.28
889.953	-101.37
890.125	164.86
890.296	-62.46
890.467	-29.7
890.638	-31.74
890.809	-25.6
890.98	-95.23
891.151	44.03
891.323	78.85
891.494	3.07
891.665	21.5
891.836	-27.65
892.007	-7.17
892.178	101.37
892.349	-33.79
892.52	-27.65
892.691	-7.17
892.862	-27.65
893.032	-78.85
893.203	-21.5
893.374	-25.6
893.545	154.62
893.716	-33.79
893.887	-15.36
894.057	-37.89
894.228	-7.17
894.399	-115.71
894.57	48.13
894.74	-13.31
894.911	-5.12
895.082	-72.7
895.253	-115.71
895.423	68.61
895.594	-7.17
895.764	58.37
895.935	-123.9
896.106	-7.17
896.276	-5.12
896.447	76.8
896.617	-103.42
896.788	-64.51
896.958	-46.08
897.129	-162.81
897.299	-70.65
897.47	76.8
897.64	-39.94
897.81	-19.46
897.981	-41.98
898.151	-54.27
898.322	78.85
898.492	-13.31
898.662	-107.52
898.832	-23.55
899.003	9.22
899.173	31.74
899.343	5.12
899.513	1.02
