Data from USB4F104151__205__11-05-39-629.txt Node

Date: Wed Feb 26 11:05:39 EST 2025
User: louis
Spectrometer: USB4F10415
Trigger mode: 4
Integration Time (sec): 1.000000E-1
Scans to average: 1
Electric dark correction enabled: true
Nonlinearity correction enabled: false
Boxcar width: 0
XAxis mode: Wavelengths
Number of Pixels in Spectrum: 3648
>>>>>Begin Spectral Data<<<<<
178.204	-368.98
178.424	-368.98
178.644	-368.98
178.864	-405.84
179.084	-409.94
179.304	-6.49
179.524	18.09
179.744	-10.58
179.964	26.28
180.184	34.47
180.404	97.96
180.624	-35.16
180.844	-26.96
181.064	-102.74
181.283	61.1
181.503	-82.26
181.723	26.28
181.943	-67.92
182.163	255.65
182.383	-49.49
182.602	112.3
182.822	218.79
183.042	122.54
183.262	9.9
183.482	69.29
183.701	120.49
183.921	77.48
184.141	-18.77
184.361	67.24
184.58	120.49
184.8	63.15
185.02	-2.39
185.239	100.01
185.459	36.52
185.679	149.16
185.898	-78.16
186.118	87.72
186.338	65.19
186.557	69.29
186.777	16.04
186.997	-26.96
187.216	9.9
187.436	265.89
187.655	79.53
187.875	138.92
188.095	59.05
188.314	159.4
188.534	93.87
188.753	-72.02
188.973	186.02
189.192	155.3
189.412	50.86
189.631	-6.49
189.851	118.44
190.07	100.01
190.29	-47.44
190.509	7.85
190.729	116.39
190.948	167.59
191.168	259.75
191.387	95.91
191.607	71.34
191.826	89.77
192.045	83.63
192.265	61.1
192.484	71.34
192.704	-6.49
192.923	-26.96
193.142	247.46
193.362	126.63
193.581	138.92
193.8	95.91
194.02	143.02
194.239	100.01
194.458	161.45
194.678	26.28
194.897	93.87
195.116	134.82
195.335	59.05
195.555	61.1
195.774	11.95
195.993	138.92
196.212	48.81
196.432	40.62
196.651	-10.58
196.87	126.63
197.089	259.75
197.308	26.28
197.528	73.39
197.747	-14.68
197.966	69.29
198.185	186.02
198.404	91.82
198.623	100.01
198.842	110.25
199.062	145.06
199.281	97.96
199.5	9.9
199.719	54.95
199.938	36.52
200.157	77.48
200.376	122.54
200.595	97.96
200.814	77.48
201.033	-45.4
201.252	222.89
201.471	59.05
201.69	196.26
201.909	69.29
202.128	61.1
202.347	106.15
202.566	50.86
202.785	-61.78
203.004	-37.2
203.223	202.41
203.442	5.8
203.661	-10.58
203.879	1.71
204.098	130.73
204.317	-41.3
204.536	100.01
204.755	85.67
204.974	24.23
205.193	-4.44
205.411	128.68
205.63	128.68
205.849	69.29
206.068	67.24
206.287	9.9
206.505	163.5
206.724	73.39
206.943	1.71
207.162	46.76
207.381	140.97
207.599	79.53
207.818	52.91
208.037	65.19
208.255	38.57
208.474	18.09
208.693	132.78
208.911	38.57
209.13	130.73
209.349	93.87
209.567	34.47
209.786	77.48
210.005	73.39
210.223	104.11
210.442	-51.54
210.661	112.3
210.879	102.06
211.098	11.95
211.316	75.43
211.535	50.86
211.753	57
211.972	124.58
212.191	3.75
212.409	87.72
212.628	138.92
212.846	-12.63
213.065	95.91
213.283	151.21
213.502	16.04
213.72	75.43
213.938	122.54
214.157	-26.96
214.375	175.78
214.594	71.34
214.812	100.01
215.031	-14.68
215.249	91.82
215.467	48.81
215.686	-4.44
215.904	57
216.122	20.14
216.341	134.82
216.559	89.77
216.778	143.02
216.996	100.01
217.214	24.23
217.432	-0.34
217.651	-26.96
217.869	48.81
218.087	54.95
218.306	-20.82
218.524	18.09
218.742	48.81
218.96	128.68
219.179	93.87
219.397	1.71
219.615	265.89
219.833	120.49
220.051	1.71
220.27	126.63
220.488	175.78
220.706	87.72
220.924	-10.58
221.142	-16.73
221.36	32.43
221.578	122.54
221.796	32.43
222.015	118.44
222.233	61.1
222.451	181.93
222.669	-20.82
222.887	120.49
223.105	-59.73
223.323	65.19
223.541	26.28
223.759	3.75
223.977	124.58
224.195	231.08
224.413	159.4
224.631	54.95
224.849	122.54
225.067	171.69
225.285	71.34
225.503	73.39
225.721	-90.45
225.939	61.1
226.157	89.77
226.375	239.27
226.592	-8.53
226.81	118.44
227.028	100.01
227.246	143.02
227.464	5.8
227.682	93.87
227.9	210.6
228.117	71.34
228.335	83.63
228.553	87.72
228.771	5.8
228.989	79.53
229.206	79.53
229.424	-43.35
229.642	-33.11
229.86	-12.63
230.077	97.96
230.295	106.15
230.513	73.39
230.731	91.82
230.948	194.22
231.166	147.11
231.384	44.71
231.601	44.71
231.819	233.13
232.037	-22.87
232.254	-20.82
232.472	34.47
232.689	-16.73
232.907	79.53
233.125	9.9
233.342	-12.63
233.56	-69.97
233.777	-49.49
233.995	83.63
234.213	134.82
234.43	57
234.648	46.76
234.865	-2.39
235.083	93.87
235.3	52.91
235.518	159.4
235.735	192.17
235.953	165.54
236.17	40.62
236.388	3.75
236.605	71.34
236.822	73.39
237.04	93.87
237.257	102.06
237.475	-16.73
237.692	114.34
237.909	124.58
238.127	-92.5
238.344	87.72
238.562	30.38
238.779	11.95
238.996	40.62
239.214	65.19
239.431	67.24
239.648	36.52
239.865	75.43
240.083	48.81
240.3	22.19
240.517	22.19
240.735	91.82
240.952	173.74
241.169	132.78
241.386	145.06
241.603	26.28
241.821	1.71
242.038	147.11
242.255	81.58
242.472	-37.2
242.689	65.19
242.907	124.58
243.124	54.95
243.341	83.63
243.558	-6.49
243.775	-2.39
243.992	-31.06
244.209	3.75
244.426	173.74
244.643	87.72
244.86	-0.34
245.078	38.57
245.295	57
245.512	77.48
245.729	1.71
245.946	57
246.163	93.87
246.38	5.8
246.597	42.67
246.814	42.67
247.031	40.62
247.248	-8.53
247.464	28.33
247.681	114.34
247.898	61.1
248.115	50.86
248.332	28.33
248.549	153.26
248.766	138.92
248.983	93.87
249.2	73.39
249.417	112.3
249.633	73.39
249.85	54.95
250.067	20.14
250.284	149.16
250.501	114.34
250.717	52.91
250.934	7.85
251.151	42.67
251.368	79.53
251.585	-0.34
251.801	32.43
252.018	48.81
252.235	165.54
252.451	-41.3
252.668	77.48
252.885	100.01
253.102	110.25
253.318	-6.49
253.535	-26.96
253.752	24.23
253.968	-0.34
254.185	-94.55
254.401	20.14
254.618	59.05
254.835	-22.87
255.051	145.06
255.268	140.97
255.484	50.86
255.701	83.63
255.917	65.19
256.134	-0.34
256.351	40.62
256.567	-47.44
256.784	87.72
257	20.14
257.217	128.68
257.433	71.34
257.65	81.58
257.866	173.74
258.082	-12.63
258.299	28.33
258.515	77.48
258.732	9.9
258.948	-12.63
259.165	24.23
259.381	-10.58
259.597	112.3
259.814	77.48
260.03	-24.92
260.246	83.63
260.463	134.82
260.679	118.44
260.895	16.04
261.112	57
261.328	-0.34
261.544	30.38
261.761	171.69
261.977	13.99
262.193	-29.01
262.409	38.57
262.626	54.95
262.842	16.04
263.058	-53.59
263.274	157.35
263.49	87.72
263.707	122.54
263.923	181.93
264.139	-29.01
264.355	44.71
264.571	116.39
264.787	81.58
265.004	100.01
265.22	13.99
265.436	36.52
265.652	7.85
265.868	7.85
266.084	7.85
266.3	71.34
266.516	48.81
266.732	67.24
266.948	38.57
267.164	28.33
267.38	126.63
267.596	106.15
267.812	167.59
268.028	77.48
268.244	77.48
268.46	100.01
268.676	32.43
268.892	32.43
269.108	-57.68
269.324	-8.53
269.54	-4.44
269.756	69.29
269.972	-10.58
270.188	-12.63
270.403	85.67
270.619	5.8
270.835	108.2
271.051	7.85
271.267	102.06
271.483	-2.39
271.698	89.77
271.914	38.57
272.13	95.91
272.346	106.15
272.562	87.72
272.777	77.48
272.993	18.09
273.209	-20.82
273.425	106.15
273.64	-96.6
273.856	130.73
274.072	-4.44
274.287	50.86
274.503	116.39
274.719	65.19
274.934	-39.25
275.15	-35.16
275.366	67.24
275.581	-2.39
275.797	77.48
276.012	73.39
276.228	28.33
276.444	95.91
276.659	147.11
276.875	40.62
277.09	3.75
277.306	100.01
277.521	44.71
277.737	42.67
277.952	44.71
278.168	34.47
278.383	97.96
278.599	151.21
278.814	26.28
279.03	59.05
279.245	132.78
279.461	114.34
279.676	155.3
279.892	-49.49
280.107	-4.44
280.322	97.96
280.538	145.06
280.753	59.05
280.969	48.81
281.184	65.19
281.399	175.78
281.615	97.96
281.83	30.38
282.045	20.14
282.26	50.86
282.476	-18.77
282.691	140.97
282.906	73.39
283.122	132.78
283.337	18.09
283.552	87.72
283.767	42.67
283.983	138.92
284.198	32.43
284.413	155.3
284.628	-43.35
284.843	1.71
285.058	69.29
285.274	69.29
285.489	-45.4
285.704	91.82
285.919	38.57
286.134	100.01
286.349	77.48
286.564	20.14
286.779	161.45
286.995	36.52
287.21	-26.96
287.425	73.39
287.64	28.33
287.855	130.73
288.07	-100.69
288.285	255.65
288.5	134.82
288.715	83.63
288.93	36.52
289.145	28.33
289.36	54.95
289.575	-2.39
289.79	106.15
290.004	-14.68
290.219	145.06
290.434	26.28
290.649	-41.3
290.864	91.82
291.079	20.14
291.294	67.24
291.509	118.44
291.724	7.85
291.938	22.19
292.153	63.15
292.368	67.24
292.583	116.39
292.798	145.06
293.012	28.33
293.227	110.25
293.442	7.85
293.657	183.98
293.871	104.11
294.086	91.82
294.301	165.54
294.516	91.82
294.73	75.43
294.945	-0.34
295.16	-16.73
295.374	149.16
295.589	95.91
295.804	73.39
296.018	95.91
296.233	165.54
296.447	89.77
296.662	-8.53
296.877	149.16
297.091	124.58
297.306	50.86
297.52	50.86
297.735	67.24
297.949	44.71
298.164	24.23
298.378	54.95
298.593	9.9
298.807	-26.96
299.022	93.87
299.236	198.31
299.451	11.95
299.665	-6.49
299.88	93.87
300.094	38.57
300.309	22.19
300.523	54.95
300.737	13.99
300.952	124.58
301.166	95.91
301.381	-53.59
301.595	9.9
301.809	114.34
302.024	91.82
302.238	5.8
302.452	190.12
302.667	81.58
302.881	128.68
303.095	169.64
303.309	24.23
303.524	40.62
303.738	5.8
303.952	18.09
304.166	61.1
304.381	-33.11
304.595	128.68
304.809	48.81
305.023	65.19
305.237	52.91
305.452	-14.68
305.666	67.24
305.88	126.63
306.094	112.3
306.308	116.39
306.522	132.78
306.736	52.91
306.95	169.64
307.164	102.06
307.379	59.05
307.593	157.35
307.807	200.36
308.021	110.25
308.235	110.25
308.449	11.95
308.663	44.71
308.877	243.37
309.091	136.87
309.305	67.24
309.519	-102.74
309.733	136.87
309.947	-37.2
310.161	59.05
310.374	20.14
310.588	159.4
310.802	-10.58
311.016	34.47
311.23	106.15
311.444	24.23
311.658	34.47
311.872	128.68
312.085	112.3
312.299	104.11
312.513	233.13
312.727	89.77
312.941	-14.68
313.154	65.19
313.368	110.25
313.582	85.67
313.796	30.38
314.009	57
314.223	108.2
314.437	87.72
314.651	65.19
314.864	-20.82
315.078	28.33
315.292	-41.3
315.505	-8.53
315.719	44.71
315.933	75.43
316.146	-20.82
316.36	-2.39
316.573	181.93
316.787	143.02
317.001	93.87
317.214	28.33
317.428	24.23
317.641	-16.73
317.855	54.95
318.068	91.82
318.282	36.52
318.495	163.5
318.709	140.97
318.922	65.19
319.136	155.3
319.349	145.06
319.563	71.34
319.776	93.87
319.99	-59.73
320.203	114.34
320.417	54.95
320.63	79.53
320.843	218.79
321.057	79.53
321.27	-43.35
321.483	67.24
321.697	157.35
321.91	61.1
322.124	30.38
322.337	143.02
322.55	-47.44
322.763	36.52
322.977	16.04
323.19	-47.44
323.403	24.23
323.617	87.72
323.83	122.54
324.043	20.14
324.256	102.06
324.469	-45.4
324.683	114.34
324.896	54.95
325.109	95.91
325.322	-43.35
325.535	77.48
325.748	87.72
325.962	48.81
326.175	46.76
326.388	65.19
326.601	120.49
326.814	-6.49
327.027	-20.82
327.24	147.11
327.453	-10.58
327.666	77.48
327.879	118.44
328.092	71.34
328.305	24.23
328.518	3.75
328.731	11.95
328.944	61.1
329.157	16.04
329.37	-24.92
329.583	192.17
329.796	233.13
330.009	26.28
330.222	130.73
330.435	116.39
330.648	30.38
330.861	91.82
331.073	122.54
331.286	114.34
331.499	61.1
331.712	-10.58
331.925	-2.39
332.138	97.96
332.35	87.72
332.563	-6.49
332.776	186.02
332.989	-57.68
333.202	77.48
333.414	102.06
333.627	54.95
333.84	-4.44
334.053	42.67
334.265	9.9
334.478	20.14
334.691	7.85
334.903	71.34
335.116	28.33
335.329	85.67
335.541	-4.44
335.754	147.11
335.966	44.71
336.179	13.99
336.392	-55.64
336.604	91.82
336.817	163.5
337.029	65.19
337.242	13.99
337.454	93.87
337.667	50.86
337.88	155.3
338.092	-0.34
338.305	95.91
338.517	22.19
338.729	132.78
338.942	132.78
339.154	-41.3
339.367	28.33
339.579	24.23
339.792	-24.92
340.004	140.97
340.217	48.81
340.429	73.39
340.641	-53.59
340.854	-61.78
341.066	38.57
341.278	149.16
341.491	179.88
341.703	44.71
341.915	-55.64
342.128	28.33
342.34	140.97
342.552	20.14
342.764	73.39
342.977	-51.54
343.189	97.96
343.401	71.34
343.613	-0.34
343.826	28.33
344.038	93.87
344.25	163.5
344.462	50.86
344.674	57
344.886	-0.34
345.099	106.15
345.311	143.02
345.523	-8.53
345.735	-24.92
345.947	118.44
346.159	136.87
346.371	93.87
346.583	-14.68
346.795	153.26
347.007	-41.3
347.219	38.57
347.431	-18.77
347.643	112.3
347.855	46.76
348.067	138.92
348.279	5.8
348.491	122.54
348.703	134.82
348.915	79.53
349.127	-14.68
349.339	20.14
349.551	40.62
349.763	116.39
349.975	75.43
350.187	124.58
350.399	226.98
350.61	110.25
350.822	-61.78
351.034	42.67
351.246	81.58
351.458	77.48
351.669	69.29
351.881	46.76
352.093	169.64
352.305	151.21
352.517	118.44
352.728	130.73
352.94	77.48
353.152	93.87
353.363	11.95
353.575	106.15
353.787	190.12
353.999	13.99
354.21	130.73
354.422	46.76
354.633	54.95
354.845	73.39
355.057	40.62
355.268	59.05
355.48	134.82
355.692	-102.74
355.903	38.57
356.115	-14.68
356.326	-24.92
356.538	136.87
356.749	54.95
356.961	222.89
357.172	97.96
357.384	38.57
357.595	231.08
357.807	-35.16
358.018	-12.63
358.23	57
358.441	134.82
358.653	100.01
358.864	5.8
359.075	-18.77
359.287	106.15
359.498	44.71
359.709	65.19
359.921	75.43
360.132	-4.44
360.344	44.71
360.555	54.95
360.766	192.17
360.977	-14.68
361.189	30.38
361.4	42.67
361.611	91.82
361.823	167.59
362.034	138.92
362.245	-76.12
362.456	3.75
362.667	194.22
362.879	1.71
363.09	81.58
363.301	46.76
363.512	30.38
363.723	42.67
363.935	-47.44
364.146	171.69
364.357	54.95
364.568	52.91
364.779	-55.64
364.99	171.69
365.201	-18.77
365.412	120.49
365.623	-80.21
365.834	63.15
366.045	34.47
366.256	120.49
366.467	34.47
366.678	40.62
366.889	30.38
367.1	24.23
367.311	175.78
367.522	3.75
367.733	128.68
367.944	132.78
368.155	-33.11
368.366	159.4
368.577	157.35
368.788	159.4
368.999	-8.53
369.209	112.3
369.42	237.22
369.631	302.76
369.842	112.3
370.053	38.57
370.264	75.43
370.474	-39.25
370.685	93.87
370.896	112.3
371.107	134.82
371.317	32.43
371.528	48.81
371.739	181.93
371.95	128.68
372.16	71.34
372.371	-12.63
372.582	95.91
372.792	77.48
373.003	50.86
373.214	71.34
373.424	132.78
373.635	-0.34
373.846	216.74
374.056	38.57
374.267	22.19
374.477	167.59
374.688	24.23
374.898	93.87
375.109	149.16
375.319	157.35
375.53	120.49
375.74	100.01
375.951	59.05
376.161	79.53
376.372	169.64
376.582	57
376.793	36.52
377.003	67.24
377.214	40.62
377.424	132.78
377.635	77.48
377.845	36.52
378.055	235.18
378.266	-18.77
378.476	95.91
378.686	79.53
378.897	28.33
379.107	132.78
379.317	163.5
379.528	-24.92
379.738	114.34
379.948	-47.44
380.158	151.21
380.369	52.91
380.579	128.68
380.789	30.38
380.999	97.96
381.21	224.94
381.42	222.89
381.63	108.2
381.84	65.19
382.05	79.53
382.261	130.73
382.471	140.97
382.681	-2.39
382.891	255.65
383.101	132.78
383.311	54.95
383.521	46.76
383.731	136.87
383.941	91.82
384.151	153.26
384.361	73.39
384.571	61.1
384.781	85.67
384.991	206.5
385.201	157.35
385.411	114.34
385.621	81.58
385.831	81.58
386.041	59.05
386.251	69.29
386.461	136.87
386.671	16.04
386.881	59.05
387.091	116.39
387.301	69.29
387.511	28.33
387.72	190.12
387.93	130.73
388.14	-2.39
388.35	30.38
388.56	165.54
388.769	138.92
388.979	73.39
389.189	-2.39
389.399	61.1
389.609	106.15
389.818	136.87
390.028	52.91
390.238	67.24
390.447	40.62
390.657	83.63
390.867	52.91
391.076	-51.54
391.286	114.34
391.496	91.82
391.705	50.86
391.915	147.11
392.125	81.58
392.334	26.28
392.544	151.21
392.753	143.02
392.963	57
393.172	57
393.382	61.1
393.591	245.41
393.801	67.24
394.01	134.82
394.22	97.96
394.429	30.38
394.639	63.15
394.848	126.63
395.058	147.11
395.267	85.67
395.477	106.15
395.686	140.97
395.895	190.12
396.105	208.55
396.314	104.11
396.524	93.87
396.733	-6.49
396.942	196.26
397.152	83.63
397.361	102.06
397.57	42.67
397.78	85.67
397.989	100.01
398.198	233.13
398.407	-14.68
398.617	122.54
398.826	30.38
399.035	24.23
399.244	108.2
399.453	75.43
399.663	32.43
399.872	149.16
400.081	-14.68
400.29	183.98
400.499	34.47
400.708	71.34
400.917	30.38
401.127	16.04
401.336	32.43
401.545	198.31
401.754	93.87
401.963	102.06
402.172	-115.03
402.381	-65.88
402.59	67.24
402.799	110.25
403.008	108.2
403.217	38.57
403.426	128.68
403.635	32.43
403.844	-26.96
404.053	57
404.262	28.33
404.471	151.21
404.68	106.15
404.888	73.39
405.097	106.15
405.306	143.02
405.515	73.39
405.724	48.81
405.933	132.78
406.142	114.34
406.35	192.17
406.559	-35.16
406.768	149.16
406.977	161.45
407.185	50.86
407.394	93.87
407.603	-0.34
407.812	102.06
408.02	95.91
408.229	120.49
408.438	75.43
408.646	-55.64
408.855	93.87
409.064	136.87
409.272	93.87
409.481	116.39
409.69	-20.82
409.898	-14.68
410.107	124.58
410.315	50.86
410.524	-41.3
410.733	81.58
410.941	54.95
411.15	134.82
411.358	134.82
411.567	153.26
411.775	40.62
411.984	30.38
412.192	97.96
412.401	34.47
412.609	233.13
412.818	200.36
413.026	89.77
413.234	59.05
413.443	69.29
413.651	24.23
413.86	44.71
414.068	97.96
414.276	183.98
414.485	28.33
414.693	257.7
414.901	216.74
415.11	32.43
415.318	69.29
415.526	20.14
415.734	122.54
415.943	145.06
416.151	179.88
416.359	79.53
416.567	87.72
416.776	106.15
416.984	61.1
417.192	126.63
417.4	3.75
417.608	1.71
417.817	26.28
418.025	87.72
418.233	181.93
418.441	73.39
418.649	13.99
418.857	147.11
419.065	202.41
419.273	106.15
419.481	124.58
419.689	20.14
419.897	79.53
420.105	32.43
420.313	106.15
420.521	114.34
420.729	114.34
420.937	69.29
421.145	-37.2
421.353	143.02
421.561	22.19
421.769	132.78
421.977	-86.36
422.185	134.82
422.393	77.48
422.601	95.91
422.809	151.21
423.017	77.48
423.224	163.5
423.432	183.98
423.64	42.67
423.848	181.93
424.056	59.05
424.263	110.25
424.471	95.91
424.679	208.55
424.887	22.19
425.094	196.26
425.302	153.26
425.51	116.39
425.718	169.64
425.925	65.19
426.133	65.19
426.341	151.21
426.548	145.06
426.756	38.57
426.964	71.34
427.171	93.87
427.379	106.15
427.586	48.81
427.794	126.63
428.001	155.3
428.209	151.21
428.417	118.44
428.624	91.82
428.832	157.35
429.039	85.67
429.247	106.15
429.454	177.83
429.662	190.12
429.869	173.74
430.076	204.46
430.284	77.48
430.491	253.61
430.699	165.54
430.906	259.75
431.114	120.49
431.321	147.11
431.528	138.92
431.736	204.46
431.943	278.18
432.15	216.74
432.358	282.28
432.565	302.76
432.772	54.95
432.979	323.24
433.187	126.63
433.394	288.42
433.601	104.11
433.808	286.37
434.016	302.76
434.223	224.94
434.43	317.09
434.637	356.01
434.844	308.9
435.052	272.04
435.259	274.09
435.466	341.67
435.673	319.14
435.88	376.48
436.087	446.12
436.294	366.25
436.501	394.92
436.708	384.68
436.915	372.39
437.122	429.73
437.329	364.2
437.537	409.25
437.743	407.2
437.95	515.75
438.157	468.64
438.364	454.31
438.571	487.08
438.778	470.69
438.985	607.91
439.192	525.99
439.399	497.32
439.606	454.31
439.813	614.05
440.02	605.86
440.227	689.82
440.433	630.43
440.64	630.43
440.847	622.24
441.054	632.48
441.261	872.09
441.467	714.4
441.674	753.31
441.881	843.42
442.088	808.61
442.294	876.19
442.501	874.14
442.708	1005.21
442.914	880.29
443.121	1007.26
443.328	933.53
443.534	1164.95
443.741	999.07
443.948	874.14
444.154	1080.99
444.361	1314.45
444.568	1146.52
444.774	1330.84
444.981	1119.9
445.187	1347.22
445.394	1287.83
445.6	1431.19
445.807	1638.03
446.013	1498.77
446.22	1472.15
446.426	1689.23
446.633	1742.48
446.839	1883.79
447.046	1666.71
447.252	1908.37
447.459	1810.06
447.665	1861.26
447.871	2164.36
448.078	2223.75
448.284	2121.35
448.491	2416.26
448.697	2537.09
448.903	2545.28
449.11	2713.22
449.316	2637.44
449.522	2690.69
449.728	2987.65
449.935	2928.25
450.141	2997.88
450.347	3237.5
450.553	3217.02
450.76	3229.31
450.966	3583.6
451.172	3520.12
451.378	3473.01
451.584	3782.26
451.791	4083.31
451.997	4023.92
452.203	4187.75
452.409	4353.64
452.615	4523.62
452.821	4570.72
453.027	4529.77
453.233	5191.26
453.44	4990.56
453.646	5228.12
453.852	5459.54
454.058	5721.68
454.264	5668.44
454.47	6174.28
454.676	6184.52
454.882	6921.79
455.088	6547.01
455.294	6972.99
455.5	7368.25
455.705	7798.32
455.911	7859.76
456.117	8013.36
456.323	8279.6
456.529	8308.27
456.735	9076.26
456.941	9244.19
457.147	9578.01
457.352	9903.64
457.558	10122.77
457.764	10626.57
457.97	10954.24
458.176	11322.88
458.381	11984.37
458.587	11992.56
458.793	12801.51
458.999	12791.27
459.204	14517.71
459.41	14714.31
459.616	14562.76
459.821	15369.66
460.027	16082.36
460.233	16967.08
460.438	17042.85
460.644	18144.66
460.85	18359.7
461.055	18875.79
461.261	19748.22
461.466	19068.3
461.672	19451.27
461.878	22297.94
462.083	21988.7
462.289	22271.32
462.494	23211.34
462.7	23391.56
462.905	23526.72
463.111	25513.25
463.316	26742.03
463.522	27161.87
463.727	28148.99
463.932	29375.72
464.138	29850.85
464.343	31261.9
464.549	31796.42
464.754	33924.26
464.959	34626.71
465.165	35077.27
465.37	35038.36
465.575	35144.85
465.781	37239.92
465.986	38480.99
466.191	37981.29
466.397	38274.15
466.602	37364.85
466.807	39238.74
467.012	40160.33
467.218	40277.06
467.423	40713.28
467.628	42021.93
467.833	43998.22
468.038	43226.14
468.244	42497.06
468.449	44338.18
468.654	43236.37
468.859	43484.18
469.064	43580.43
469.269	42232.87
469.474	42980.38
469.679	43979.79
469.885	42865.69
470.09	43379.73
470.295	43846.67
470.5	42454.05
470.705	42902.56
470.91	42058.79
471.115	41296.95
471.32	41755.69
471.525	41382.96
471.73	40232
471.935	40342.6
472.139	38583.39
472.344	38911.06
472.549	38702.17
472.754	37975.14
472.959	36695.16
473.164	35761.29
473.369	34985.11
473.574	36248.71
473.778	35357.84
473.983	35206.29
474.188	33989.8
474.393	32447.68
474.598	32566.46
474.802	31683.78
475.007	31384.78
475.212	31016.15
475.417	29945.06
475.621	29392.11
475.826	29347.05
476.031	28484.86
476.235	27962.62
476.44	27655.43
476.645	27290.89
476.849	26887.44
477.054	26207.51
477.259	25787.68
477.463	25972
477.668	25163.05
477.872	25212.2
478.077	24427.83
478.282	23805.25
478.486	23559.49
478.691	23297.35
478.895	22990.16
479.1	22955.34
479.304	22996.3
479.509	21611.87
479.713	22463.83
479.918	21763.42
480.122	21300.58
480.326	21556.58
480.531	21589.35
480.735	21056.87
480.94	20903.28
481.144	21519.71
481.348	20391.28
481.553	20678
481.757	19830.14
481.961	20225.4
482.166	20057.46
482.37	20360.56
482.574	19422.59
482.778	19471.75
482.983	19905.91
483.187	19352.96
483.391	19115.4
483.595	18822.54
483.8	18582.93
484.004	18820.49
484.208	18714
484.412	18439.57
484.616	18345.36
484.821	18169.24
485.025	17479.07
485.229	17497.5
485.433	17333.67
485.637	16799.15
485.841	16784.81
486.045	16668.08
486.249	16522.67
486.453	16166.32
486.657	16025.01
486.861	15975.86
487.065	15173.06
487.269	15461.82
487.473	14738.89
487.677	14802.38
487.881	14869.96
488.085	14413.26
488.289	14128.6
488.493	13807.06
488.697	13759.96
488.901	13465.05
489.105	13108.71
489.309	13010.4
489.512	13028.84
489.716	12686.83
489.92	12187.12
490.124	11955.7
490.328	12223.98
490.531	11451.9
490.735	11437.56
490.939	11501.05
491.143	11011.59
491.346	10884.61
491.55	10901
491.754	10501.64
491.958	10645
492.161	10499.59
492.365	9893.4
492.569	9881.11
492.772	9877.01
492.976	9602.58
493.18	9489.95
493.383	9489.95
493.587	9467.42
493.79	9393.69
493.994	8998.43
494.197	8977.95
494.401	9029.15
494.605	8756.77
494.808	8695.33
495.012	8668.71
495.215	8807.97
495.419	8670.76
495.622	8300.08
495.825	8502.82
496.029	8324.65
496.232	8349.23
496.436	8187.44
496.639	8455.72
496.843	8181.29
497.046	8349.23
497.249	8529.45
497.453	8300.08
497.656	8304.17
497.859	8298.03
498.063	8269.36
498.266	8539.69
498.469	8381.99
498.673	8425
498.876	8381.99
499.079	8291.88
499.282	8302.12
499.485	8816.16
499.689	8556.07
499.892	8691.24
500.095	8681
500.298	8816.16
500.501	8580.65
500.705	8709.67
500.908	9156.13
501.111	9180.7
501.314	9041.44
501.517	9281.05
501.72	9240.09
501.923	9131.55
502.126	9477.66
502.329	9668.12
502.532	9684.5
502.735	9764.37
502.938	9737.75
503.141	10094.1
503.344	9831.96
503.547	10165.78
503.75	10186.26
503.953	10534.41
504.156	10538.51
504.359	10782.21
504.562	10806.79
504.765	11087.36
504.968	11281.92
505.17	11249.15
505.373	11281.92
505.576	11638.27
505.779	12047.86
505.982	12008.95
506.185	12049.91
506.387	12355.05
506.59	12492.27
506.793	13053.41
506.996	13170.15
507.198	13678.04
507.401	13841.88
507.604	13764.06
507.807	14147.03
508.009	14263.76
508.212	14908.87
508.415	14837.19
508.617	15214.02
508.82	15605.18
509.022	15654.33
509.225	16217.52
509.428	16407.98
509.63	16911.78
509.833	17261.99
510.035	17786.27
510.238	17563.04
510.44	18179.48
510.643	18791.82
510.845	19133.83
511.048	19326.34
511.25	20299.12
511.453	20221.3
511.655	21177.7
511.858	21048.68
512.06	21595.49
512.262	22150.49
512.465	22189.4
512.667	23143.75
512.87	23516.48
513.072	24122.68
513.274	24841.52
513.477	25285.93
513.679	25642.28
513.881	26445.08
514.084	27008.27
514.286	27479.3
514.488	27976.96
514.69	29043.95
514.893	29369.58
515.095	29574.38
515.297	30557.4
515.499	31196.37
515.701	31777.99
515.904	32320.7
516.106	33170.61
516.308	33977.51
516.51	34688.15
516.712	35218.58
516.914	35665.03
517.116	36820.09
517.318	36834.42
517.52	37817.45
517.722	38362.21
517.925	38761.56
518.127	39869.51
518.329	40287.3
518.531	41038.9
518.733	41614.38
518.935	42325.03
519.136	42783.77
519.338	43375.64
519.54	44098.57
519.742	44833.79
519.944	44936.19
520.146	46537.7
520.348	46496.74
520.55	47156.19
520.752	47545.3
520.954	48905.15
521.155	48464.84
521.357	49288.12
521.559	50230.19
521.761	50918.31
521.963	51198.88
522.164	51612.57
522.366	51964.82
522.568	52341.64
522.77	52732.81
522.971	53324.67
523.173	53355.39
523.375	54023.03
523.576	54014.83
523.778	54109.04
523.98	54408.04
524.181	54813.54
524.383	54768.49
524.584	55446.36
524.786	54969.19
524.988	54707.05
525.189	55233.38
525.391	55759.7
525.592	55202.66
525.794	55690.07
525.995	55448.41
526.197	55372.64
526.398	55235.42
526.6	55505.76
526.801	55472.99
527.003	55147.36
527.204	54504.3
527.406	55370.59
527.607	54178.67
527.808	54661.99
528.01	53031.81
528.211	53560.19
528.412	53732.21
528.614	53435.26
528.815	52833.16
529.016	53025.67
529.218	51889.04
529.419	51690.39
529.62	50996.13
529.822	50594.73
530.023	50617.25
530.224	50342.83
530.425	49587.13
530.626	48268.23
530.828	47915.98
531.029	48800.71
531.23	47428.57
531.431	46371.82
531.632	46296.04
531.833	46244.84
532.035	45523.96
532.236	45100.03
532.437	44411.91
532.638	43365.4
532.839	43383.83
533.04	43248.66
533.241	41901.1
533.442	42056.74
533.643	41288.76
533.844	40551.49
534.045	40516.67
534.246	39185.49
534.447	39140.44
534.648	38548.57
534.849	38177.89
535.05	37203.06
535.251	37028.98
535.451	36398.21
535.652	36086.92
535.853	35474.57
536.054	34837.66
536.255	34735.26
536.456	33823.91
536.657	34106.53
536.857	33230
537.058	32826.55
537.259	32619.7
537.46	32003.27
537.66	31421.64
537.861	30903.51
538.062	30713.05
538.263	30608.6
538.463	29830.37
538.664	29644.01
538.865	29058.29
539.065	29017.33
539.266	28476.66
539.466	28267.77
539.667	27503.88
539.868	28017.92
540.068	27186.44
540.269	26776.85
540.469	26572.05
540.67	26107.16
540.87	25732.39
541.071	25240.87
541.271	25445.67
541.472	25019.69
541.672	24702.26
541.873	23956.8
542.073	23780.67
542.274	23944.51
542.474	23485.76
542.675	23125.32
542.875	23205.19
543.075	22873.42
543.276	22295.89
543.476	22486.36
543.676	22152.54
543.877	21742.94
544.077	21644.64
544.277	21372.26
544.478	20893.04
544.678	20929.9
544.878	20714.86
545.078	20532.59
545.279	20356.47
545.479	19756.41
545.679	19527.04
545.879	19451.27
546.079	19178.89
546.28	19010.95
546.48	18574.74
546.68	18441.62
546.88	18267.54
547.08	17946.01
547.28	17632.67
547.48	17522.08
547.68	17507.74
547.88	16930.22
548.081	17061.29
548.281	16930.22
548.481	16514.48
548.681	16541.1
548.881	16049.59
549.081	16002.49
549.28	15893.94
549.48	15386.05
549.68	15269.31
549.88	15369.66
550.08	14722.51
550.28	14773.71
550.48	14407.12
550.68	14437.84
550.88	14032.34
551.08	13979.09
551.279	13843.93
551.479	13532.64
551.679	13301.22
551.879	13088.23
552.079	12977.64
552.278	12672.49
552.478	12875.24
552.678	12520.94
552.878	12201.46
553.077	12226.03
553.277	11570.68
553.477	11814.39
553.676	11558.39
553.876	11312.64
554.076	11128.32
554.275	11148.8
554.475	10597.9
554.674	10788.36
554.874	10432.01
555.074	10196.5
555.273	10079.76
555.473	9954.83
555.672	9629.21
555.872	9518.62
556.071	9532.95
556.271	9414.17
556.47	9162.27
556.67	8932.9
556.869	8830.5
557.068	8635.94
557.268	8613.42
557.467	8496.68
557.667	8414.76
557.866	8295.98
558.065	7949.87
558.265	8099.38
558.464	7663.16
558.663	7753.27
558.863	7614.01
559.062	7433.79
559.261	7388.73
559.461	7390.78
559.66	6952.51
559.859	6772.29
560.058	6721.09
560.258	6608.45
560.457	6540.87
560.656	6798.91
560.855	6428.23
561.054	6489.67
561.253	6121.04
561.453	6155.85
561.652	6090.32
561.851	6209.1
562.05	5807.7
562.249	5666.39
562.448	5766.74
562.647	5576.28
562.846	5512.79
563.045	5570.13
563.244	5264.99
563.443	5486.17
563.642	5221.98
563.841	5357.14
564.04	5187.16
564.239	5052
564.438	4824.67
564.637	4617.83
564.836	4939.36
565.035	4566.63
565.234	4597.35
565.432	4554.34
565.631	4458.09
565.83	4443.75
566.029	4241
566.228	4357.74
566.427	4327.02
566.625	4030.06
566.824	4191.85
567.023	4060.78
567.222	3933.81
567.42	3987.05
567.619	3993.2
567.818	3724.91
568.016	3866.22
568.215	3665.52
568.414	3761.78
568.612	3663.47
568.811	3563.12
569.01	3493.49
569.208	3507.83
569.407	3565.17
569.605	3387
569.804	3241.59
570.002	3337.85
570.201	3223.16
570.4	3264.12
570.598	3159.67
570.797	3051.13
570.995	3057.28
571.193	3040.89
571.392	2956.93
571.59	2801.28
571.789	2844.29
571.987	2836.1
572.186	2887.29
572.384	2647.68
572.582	2766.46
572.781	2688.64
572.979	2541.19
573.177	2614.91
573.376	2465.41
573.574	2655.87
573.772	2420.36
573.971	2406.02
574.169	2363.01
574.367	2436.74
574.565	2240.14
574.763	2297.48
574.962	2342.53
575.16	2352.77
575.358	2227.85
575.556	2156.17
575.754	2143.88
575.952	2088.59
576.151	2037.39
576.349	2059.92
576.547	1820.3
576.745	1982.09
576.943	1988.24
577.141	1900.17
577.339	1777.3
577.537	1816.21
577.735	1838.73
577.933	1795.73
578.131	1623.7
578.329	1828.49
578.527	1674.9
578.725	1746.58
578.923	1592.98
579.121	1554.07
579.319	1496.72
579.516	1566.35
579.714	1713.81
579.912	1597.07
580.11	1347.22
580.308	1472.15
580.506	1517.2
580.704	1234.58
580.901	1341.08
581.099	1478.29
581.297	1406.61
581.495	1515.16
581.692	1357.46
581.89	1488.53
582.088	1302.17
582.285	1285.78
582.483	1250.97
582.681	1287.83
582.878	1242.78
583.076	1220.25
583.274	1173.14
583.471	1304.21
583.669	1197.72
583.866	1023.64
584.064	1078.94
584.262	978.59
584.459	980.64
584.657	1195.67
584.854	1156.76
585.052	1097.37
585.249	1214.1
585.447	947.87
585.644	843.42
585.841	1052.31
586.039	976.54
586.236	1011.36
586.434	949.92
586.631	847.52
586.828	812.7
587.026	853.66
587.223	781.98
587.42	884.38
587.618	966.3
587.815	976.54
588.012	808.61
588.21	794.27
588.407	874.14
588.604	904.86
588.801	749.22
588.999	812.7
589.196	978.59
589.393	716.45
589.59	818.85
589.787	685.73
589.984	820.89
590.182	786.08
590.379	812.7
590.576	880.29
590.773	777.89
590.97	753.31
591.167	781.98
591.364	734.88
591.561	667.3
591.758	724.64
591.955	798.37
592.152	806.56
592.349	745.12
592.546	650.91
592.743	564.9
592.94	669.34
593.137	745.12
593.334	712.35
593.531	808.61
593.727	732.83
593.924	784.03
594.121	741.02
594.318	689.82
594.515	794.27
594.712	984.73
594.908	845.47
595.105	665.25
595.302	800.41
595.499	749.22
595.696	947.87
595.892	781.98
596.089	911
596.286	726.69
596.482	1019.55
596.679	882.33
596.876	839.33
597.072	986.78
597.269	1001.12
597.466	1005.21
597.662	1037.98
597.859	935.58
598.055	1040.03
598.252	1044.12
598.448	1261.21
598.645	1228.44
598.841	1216.15
599.038	1353.37
599.234	1379.99
599.431	1427.09
599.627	1377.94
599.824	1453.72
600.02	1371.8
600.217	1566.35
600.413	1584.79
600.609	1746.58
600.806	2041.48
601.002	1844.88
601.198	1730.19
601.395	1949.32
601.591	2072.2
601.787	2125.45
601.984	2258.57
602.18	2231.94
602.376	2238.09
602.572	2383.49
602.769	2426.5
602.965	2545.28
603.161	2721.41
603.357	2786.94
603.553	2850.43
603.75	2772.61
603.946	3014.27
604.142	3141.24
604.338	3243.64
604.534	3229.31
604.73	3397.24
604.926	3516.02
605.122	3665.52
605.318	3731.06
605.514	3886.7
605.71	3933.81
605.906	4273.77
606.102	4093.55
606.298	4314.73
606.494	4462.18
606.69	4703.84
606.886	4662.88
607.082	4869.73
607.278	5019.23
607.474	5082.72
607.67	5301.85
607.866	5254.75
608.062	5703.25
608.257	5690.96
608.453	5834.32
608.649	6143.56
608.845	6170.19
609.041	6243.92
609.236	6569.54
609.432	6776.39
609.628	6733.38
609.824	7075.39
610.019	7052.86
610.215	7372.35
610.411	7657.01
610.606	8019.5
610.802	8023.6
610.998	8169.01
611.193	8529.45
611.389	8515.11
611.584	8803.88
611.78	8863.27
611.976	9178.65
612.171	9967.12
612.367	9979.41
612.562	9934.36
612.758	10206.73
612.953	10364.43
613.149	10960.39
613.344	11009.54
613.539	11396.6
613.735	11959.8
613.93	12189.17
614.126	12187.12
614.321	12518.89
614.517	13082.08
614.712	13241.82
614.907	13622.75
615.103	13786.58
615.298	14198.23
615.493	14697.93
615.688	14824.9
615.884	15656.38
616.079	15568.32
616.274	16393.65
616.47	16383.41
616.665	16973.22
616.86	17159.59
617.055	17806.75
617.25	18159
617.445	18853.26
617.641	18924.94
617.836	19705.21
618.031	19950.97
618.226	20678
618.421	21149.03
618.616	21892.44
618.811	21904.73
619.006	22539.6
619.201	22705.49
619.396	23768.38
619.591	23653.7
619.786	24610.1
619.981	25019.69
620.176	25609.51
620.371	25896.22
620.566	26357.02
620.761	27118.86
620.956	27979.01
621.151	27737.35
621.346	28957.94
621.541	28804.34
621.735	29951.2
621.93	30051.55
622.125	30483.67
622.32	31012.05
622.515	31884.48
622.709	32500.92
622.904	33043.63
623.099	33590.44
623.294	34049.19
623.488	34604.19
623.683	35503.24
623.878	35386.51
624.072	36811.9
624.267	36951.16
624.462	37698.67
624.656	37842.03
624.851	38761.56
625.046	38845.53
625.24	39728.2
625.435	40191.05
625.629	40723.52
625.824	41112.63
626.018	41794.6
626.213	41403.44
626.407	43025.43
626.602	42476.58
626.796	43521.04
626.991	43828.24
627.185	44030.99
627.38	44246.02
627.574	44233.74
627.768	44413.96
627.963	44577.79
628.157	44471.3
628.352	45392.89
628.546	44594.18
628.74	45356.02
628.935	44938.24
629.129	45132.79
629.323	44037.13
629.517	44516.36
629.712	43979.79
629.906	43965.45
630.1	42818.59
630.294	42910.75
630.489	42136.62
630.683	42142.76
630.877	40197.19
631.071	40418.37
631.265	39574.61
631.459	39099.48
631.653	38282.34
631.848	37035.13
632.042	36213.89
632.236	35472.53
632.43	34413.73
632.624	33645.74
632.818	32736.44
633.012	31233.23
633.206	30649.56
633.4	29791.46
633.594	28421.37
633.788	28073.21
633.982	26729.75
634.176	26021.15
634.369	24470.84
634.563	23952.7
634.757	22857.04
634.951	22494.55
635.145	21011.82
635.339	20256.12
635.533	19504.51
635.726	18965.9
635.92	17784.22
636.114	17313.19
636.308	16459.18
636.501	15975.86
636.695	15326.66
636.889	14630.35
637.083	14065.11
637.276	13667.8
637.47	12774.89
637.664	12299.76
637.857	11984.37
638.051	11388.41
638.244	10925.57
638.438	10440.2
638.632	10264.08
638.825	9637.4
639.019	9250.33
639.212	8891.94
639.406	8547.88
639.599	8216.11
639.793	7986.74
639.986	7663.16
640.18	7425.59
640.373	7005.76
640.567	6741.57
640.76	6477.38
640.954	6325.83
641.147	5967.44
641.34	5629.52
641.534	5703.25
641.727	5402.2
641.92	5236.31
642.114	4947.55
642.307	4800.1
642.5	4691.56
642.694	4410.98
642.887	4290.15
643.08	4257.39
643.273	4040.3
643.467	3655.28
643.66	3524.21
643.853	3395.19
644.046	3319.42
644.239	3159.67
644.432	3145.34
644.626	2952.83
644.819	2825.86
645.012	2782.85
645.205	2686.59
645.398	2676.35
645.591	2436.74
645.784	2240.14
645.977	2223.75
646.17	2166.41
646.363	2117.26
646.556	2012.81
646.749	2031.24
646.942	1881.74
647.135	1912.46
647.328	1734.29
647.521	1592.98
647.714	1687.18
647.907	1562.26
648.099	1492.63
648.292	1601.17
648.485	1443.48
648.678	1363.61
648.871	1298.07
649.064	1298.07
649.256	1175.19
649.449	1205.91
649.642	980.64
649.835	1050.27
650.027	943.77
650.22	1058.46
650.413	962.2
650.605	988.83
650.798	822.94
650.991	870.05
651.183	898.72
651.376	865.95
651.568	765.6
651.761	712.35
651.954	804.51
652.146	626.34
652.339	728.74
652.531	718.5
652.724	595.62
652.916	650.91
653.109	523.94
653.301	671.39
653.494	626.34
653.686	609.95
653.879	597.67
654.071	571.04
654.263	429.73
654.456	454.31
654.648	552.61
654.84	528.03
655.033	538.27
655.225	605.86
655.417	394.92
655.61	585.38
655.802	419.49
655.994	462.5
656.186	347.81
656.379	444.07
656.571	306.85
656.763	392.87
656.955	323.24
657.148	437.92
657.34	366.25
657.532	370.34
657.724	298.66
657.916	267.94
658.108	386.72
658.3	374.44
658.492	409.25
658.684	253.61
658.876	372.39
659.068	165.54
659.26	218.79
659.452	183.98
659.644	206.5
659.836	411.3
660.028	294.57
660.22	188.07
660.412	272.04
660.604	235.18
660.796	245.41
660.988	349.86
661.18	296.61
661.372	349.86
661.563	186.02
661.755	169.64
661.947	161.45
662.139	179.88
662.331	206.5
662.522	167.59
662.714	175.78
662.906	192.17
663.097	255.65
663.289	190.12
663.481	173.74
663.673	214.7
663.864	179.88
664.056	237.22
664.247	151.21
664.439	288.42
664.631	272.04
664.822	171.69
665.014	173.74
665.205	188.07
665.397	179.88
665.588	208.55
665.78	124.58
665.971	235.18
666.163	229.03
666.354	116.39
666.546	151.21
666.737	100.01
666.929	179.88
667.12	212.65
667.311	143.02
667.503	147.11
667.694	278.18
667.885	200.36
668.077	224.94
668.268	102.06
668.459	175.78
668.651	210.6
668.842	183.98
669.033	114.34
669.224	132.78
669.416	343.72
669.607	161.45
669.798	79.53
669.989	231.08
670.18	128.68
670.371	200.36
670.563	89.77
670.754	179.88
670.945	169.64
671.136	294.57
671.327	102.06
671.518	214.7
671.709	288.42
671.9	237.22
672.091	200.36
672.282	138.92
672.473	149.16
672.664	71.34
672.855	165.54
673.046	163.5
673.237	208.55
673.428	122.54
673.619	157.35
673.809	143.02
674	265.89
674.191	280.23
674.382	128.68
674.573	116.39
674.764	167.59
674.954	278.18
675.145	36.52
675.336	132.78
675.527	186.02
675.717	175.78
675.908	132.78
676.099	145.06
676.289	192.17
676.48	79.53
676.671	157.35
676.861	128.68
677.052	198.31
677.243	102.06
677.433	102.06
677.624	177.83
677.814	202.41
678.005	73.39
678.195	296.61
678.386	192.17
678.576	65.19
678.767	145.06
678.957	181.93
679.148	251.56
679.338	286.37
679.529	104.11
679.719	50.86
679.909	235.18
680.1	257.7
680.29	147.11
680.481	169.64
680.671	175.78
680.861	218.79
681.052	188.07
681.242	120.49
681.432	224.94
681.622	224.94
681.813	75.43
682.003	161.45
682.193	71.34
682.383	169.64
682.573	224.94
682.764	171.69
682.954	165.54
683.144	233.13
683.334	126.63
683.524	210.6
683.714	169.64
683.904	212.65
684.094	151.21
684.284	204.46
684.474	263.85
684.664	204.46
684.854	218.79
685.044	161.45
685.234	155.3
685.424	222.89
685.614	91.82
685.804	384.68
685.994	257.7
686.184	181.93
686.374	331.43
686.564	220.84
686.753	83.63
686.943	128.68
687.133	161.45
687.323	194.22
687.513	278.18
687.702	222.89
687.892	200.36
688.082	351.91
688.272	347.81
688.461	224.94
688.651	341.67
688.841	257.7
689.03	224.94
689.22	188.07
689.41	208.55
689.599	165.54
689.789	155.3
689.979	241.32
690.168	159.4
690.358	310.95
690.547	181.93
690.737	194.22
690.926	249.51
691.116	282.28
691.305	249.51
691.495	257.7
691.684	163.5
691.874	245.41
692.063	151.21
692.252	298.66
692.442	274.09
692.631	114.34
692.82	136.87
693.01	235.18
693.199	169.64
693.388	224.94
693.578	218.79
693.767	175.78
693.956	251.56
694.146	188.07
694.335	255.65
694.524	210.6
694.713	290.47
694.902	186.02
695.092	169.64
695.281	288.42
695.47	167.59
695.659	128.68
695.848	145.06
696.037	149.16
696.226	261.8
696.415	183.98
696.604	282.28
696.793	272.04
696.982	214.7
697.171	300.71
697.36	126.63
697.549	272.04
697.738	134.82
697.927	186.02
698.116	138.92
698.305	186.02
698.494	259.75
698.683	157.35
698.872	423.59
699.061	222.89
699.25	284.33
699.438	202.41
699.627	126.63
699.816	329.38
700.005	24.23
700.193	61.1
700.382	224.94
700.571	192.17
700.76	214.7
700.948	278.18
701.137	212.65
701.326	245.41
701.514	89.77
701.703	239.27
701.892	208.55
702.08	364.2
702.269	161.45
702.457	134.82
702.646	216.74
702.834	112.3
703.023	231.08
703.212	265.89
703.4	222.89
703.589	233.13
703.777	159.4
703.965	114.34
704.154	194.22
704.342	134.82
704.531	171.69
704.719	177.83
704.907	231.08
705.096	147.11
705.284	149.16
705.472	153.26
705.661	204.46
705.849	235.18
706.037	267.94
706.226	194.22
706.414	288.42
706.602	161.45
706.79	294.57
706.979	124.58
707.167	198.31
707.355	120.49
707.543	210.6
707.731	190.12
707.919	140.97
708.107	163.5
708.296	122.54
708.484	106.15
708.672	249.51
708.86	231.08
709.048	179.88
709.236	173.74
709.424	278.18
709.612	237.22
709.8	122.54
709.988	183.98
710.176	243.37
710.364	200.36
710.551	229.03
710.739	194.22
710.927	192.17
711.115	224.94
711.303	261.8
711.491	224.94
711.679	233.13
711.866	310.95
712.054	212.65
712.242	261.8
712.43	333.48
712.617	77.48
712.805	282.28
712.993	208.55
713.181	77.48
713.368	163.5
713.556	212.65
713.744	222.89
713.931	409.25
714.119	294.57
714.306	155.3
714.494	147.11
714.682	257.7
714.869	102.06
715.057	171.69
715.244	85.67
715.432	231.08
715.619	222.89
715.807	216.74
715.994	210.6
716.182	169.64
716.369	249.51
716.556	282.28
716.744	89.77
716.931	130.73
717.119	216.74
717.306	208.55
717.493	286.37
717.681	140.97
717.868	179.88
718.055	226.98
718.242	186.02
718.43	194.22
718.617	282.28
718.804	173.74
718.991	253.61
719.179	220.84
719.366	222.89
719.553	302.76
719.74	269.99
719.927	194.22
720.114	229.03
720.301	202.41
720.488	233.13
720.676	91.82
720.863	321.19
721.05	351.91
721.237	218.79
721.424	280.23
721.611	251.56
721.798	114.34
721.985	140.97
722.172	198.31
722.358	167.59
722.545	261.8
722.732	280.23
722.919	255.65
723.106	212.65
723.293	173.74
723.48	308.9
723.667	196.26
723.853	294.57
724.04	171.69
724.227	245.41
724.414	194.22
724.6	253.61
724.787	358.05
724.974	356.01
725.161	188.07
725.347	186.02
725.534	347.81
725.72	218.79
725.907	310.95
726.094	276.13
726.28	263.85
726.467	259.75
726.653	175.78
726.84	337.57
727.027	425.64
727.213	294.57
727.4	272.04
727.586	243.37
727.773	208.55
727.959	249.51
728.145	269.99
728.332	214.7
728.518	302.76
728.705	269.99
728.891	284.33
729.077	263.85
729.264	177.83
729.45	247.46
729.636	329.38
729.823	241.32
730.009	278.18
730.195	267.94
730.382	280.23
730.568	108.2
730.754	235.18
730.94	210.6
731.126	294.57
731.313	290.47
731.499	259.75
731.685	278.18
731.871	177.83
732.057	288.42
732.243	290.47
732.429	317.09
732.615	370.34
732.801	323.24
732.987	280.23
733.173	218.79
733.359	231.08
733.545	331.43
733.731	226.98
733.917	323.24
734.103	300.71
734.289	276.13
734.475	239.27
734.661	392.87
734.847	353.96
735.033	263.85
735.219	247.46
735.404	286.37
735.59	212.65
735.776	210.6
735.962	345.77
736.148	288.42
736.333	366.25
736.519	368.29
736.705	259.75
736.89	294.57
737.076	269.99
737.262	239.27
737.447	267.94
737.633	177.83
737.819	343.72
738.004	286.37
738.19	259.75
738.375	349.86
738.561	345.77
738.747	261.8
738.932	239.27
739.118	480.93
739.303	308.9
739.489	284.33
739.674	282.28
739.859	192.17
740.045	331.43
740.23	345.77
740.416	114.34
740.601	337.57
740.786	300.71
740.972	161.45
741.157	169.64
741.342	196.26
741.528	153.26
741.713	315.05
741.898	216.74
742.084	265.89
742.269	241.32
742.454	374.44
742.639	337.57
742.824	220.84
743.01	396.96
743.195	362.15
743.38	282.28
743.565	263.85
743.75	278.18
743.935	339.62
744.12	372.39
744.305	265.89
744.49	308.9
744.675	212.65
744.86	190.12
745.045	376.48
745.23	290.47
745.415	120.49
745.6	317.09
745.785	222.89
745.97	306.85
746.155	331.43
746.34	349.86
746.525	300.71
746.71	339.62
746.895	147.11
747.079	163.5
747.264	251.56
747.449	267.94
747.634	319.14
747.819	214.7
748.003	175.78
748.188	204.46
748.373	231.08
748.557	278.18
748.742	214.7
748.927	290.47
749.111	245.41
749.296	173.74
749.481	265.89
749.665	220.84
749.85	159.4
750.034	231.08
750.219	222.89
750.404	132.78
750.588	255.65
750.773	224.94
750.957	267.94
751.141	161.45
751.326	231.08
751.51	145.06
751.695	112.3
751.879	155.3
752.064	331.43
752.248	151.21
752.432	321.19
752.617	216.74
752.801	274.09
752.985	175.78
753.17	235.18
753.354	196.26
753.538	194.22
753.722	128.68
753.907	173.74
754.091	110.25
754.275	257.7
754.459	120.49
754.643	132.78
754.828	194.22
755.012	267.94
755.196	97.96
755.38	233.13
755.564	93.87
755.748	186.02
755.932	183.98
756.116	196.26
756.3	239.27
756.484	198.31
756.668	263.85
756.852	108.2
757.036	183.98
757.22	179.88
757.404	61.1
757.588	145.06
757.772	202.41
757.956	163.5
758.14	296.61
758.323	46.76
758.507	218.79
758.691	192.17
758.875	183.98
759.059	208.55
759.242	136.87
759.426	145.06
759.61	175.78
759.794	95.91
759.977	165.54
760.161	296.61
760.345	229.03
760.528	241.32
760.712	97.96
760.895	226.98
761.079	140.97
761.263	18.09
761.446	89.77
761.63	181.93
761.813	167.59
761.997	42.67
762.18	151.21
762.364	151.21
762.547	57
762.731	106.15
762.914	128.68
763.098	186.02
763.281	163.5
763.464	83.63
763.648	67.24
763.831	65.19
764.015	52.91
764.198	233.13
764.381	67.24
764.564	136.87
764.748	110.25
764.931	267.94
765.114	140.97
765.297	183.98
765.481	24.23
765.664	38.57
765.847	95.91
766.03	204.46
766.213	-24.92
766.397	124.58
766.58	85.67
766.763	188.07
766.946	155.3
767.129	128.68
767.312	54.95
767.495	93.87
767.678	147.11
767.861	190.12
768.044	153.26
768.227	124.58
768.41	138.92
768.593	161.45
768.776	169.64
768.959	108.2
769.142	206.5
769.324	106.15
769.507	52.91
769.69	132.78
769.873	106.15
770.056	282.28
770.239	110.25
770.421	173.74
770.604	171.69
770.787	175.78
770.97	128.68
771.152	9.9
771.335	77.48
771.518	1.71
771.7	71.34
771.883	218.79
772.066	108.2
772.248	143.02
772.431	288.42
772.613	136.87
772.796	153.26
772.978	198.31
773.161	218.79
773.343	59.05
773.526	73.39
773.708	-33.11
773.891	34.47
774.073	22.19
774.256	67.24
774.438	216.74
774.621	69.29
774.803	91.82
774.985	93.87
775.168	138.92
775.35	26.28
775.532	165.54
775.715	-4.44
775.897	175.78
776.079	73.39
776.261	81.58
776.444	83.63
776.626	134.82
776.808	48.81
776.99	59.05
777.173	145.06
777.355	122.54
777.537	40.62
777.719	106.15
777.901	69.29
778.083	40.62
778.265	36.52
778.447	159.4
778.629	50.86
778.811	87.72
778.993	102.06
779.175	218.79
779.357	71.34
779.539	34.47
779.721	145.06
779.903	122.54
780.085	50.86
780.267	40.62
780.449	13.99
780.631	157.35
780.812	186.02
780.994	44.71
781.176	110.25
781.358	40.62
781.54	52.91
781.721	79.53
781.903	100.01
782.085	-8.53
782.267	145.06
782.448	16.04
782.63	67.24
782.812	30.38
782.993	77.48
783.175	147.11
783.357	1.71
783.538	153.26
783.72	-18.77
783.901	77.48
784.083	114.34
784.264	44.71
784.446	-16.73
784.627	-31.06
784.809	91.82
784.99	13.99
785.172	120.49
785.353	59.05
785.535	65.19
785.716	44.71
785.897	-72.02
786.079	100.01
786.26	38.57
786.441	77.48
786.623	-41.3
786.804	79.53
786.985	-12.63
787.167	87.72
787.348	46.76
787.529	83.63
787.71	118.44
787.891	128.68
788.073	-16.73
788.254	-14.68
788.435	235.18
788.616	61.1
788.797	7.85
788.978	20.14
789.159	-2.39
789.34	44.71
789.522	32.43
789.703	42.67
789.884	128.68
790.065	67.24
790.246	112.3
790.427	48.81
790.607	175.78
790.788	95.91
790.969	-41.3
791.15	44.71
791.331	-8.53
791.512	22.19
791.693	-88.4
791.874	-8.53
792.054	218.79
792.235	118.44
792.416	-26.96
792.597	-45.4
792.778	89.77
792.958	59.05
793.139	71.34
793.32	5.8
793.5	16.04
793.681	169.64
793.862	120.49
794.042	153.26
794.223	-78.16
794.404	-0.34
794.584	-76.12
794.765	50.86
794.945	-49.49
795.126	11.95
795.306	59.05
795.487	30.38
795.667	13.99
795.848	79.53
796.028	112.3
796.209	83.63
796.389	61.1
796.57	16.04
796.75	-98.64
796.93	13.99
797.111	-35.16
797.291	52.91
797.471	50.86
797.652	-29.01
797.832	30.38
798.012	134.82
798.192	11.95
798.373	-6.49
798.553	-0.34
798.733	3.75
798.913	24.23
799.093	44.71
799.274	71.34
799.454	169.64
799.634	126.63
799.814	134.82
799.994	69.29
800.174	134.82
800.354	11.95
800.534	-2.39
800.714	77.48
800.894	-98.64
801.074	-43.35
801.254	-33.11
801.434	147.11
801.614	38.57
801.794	-51.54
801.974	1797.78
802.154	-4.44
802.334	73.39
802.514	-98.64
802.693	-10.58
802.873	11.95
803.053	126.63
803.233	153.26
803.413	36.52
803.592	9.9
803.772	-49.49
803.952	-18.77
804.131	-55.64
804.311	44.71
804.491	126.63
804.67	-26.96
804.85	11.95
805.03	22.19
805.209	87.72
805.389	-33.11
805.568	-53.59
805.748	-16.73
805.928	13.99
806.107	36.52
806.287	91.82
806.466	63.15
806.646	-4.44
806.825	26.28
807.004	-63.83
807.184	85.67
807.363	102.06
807.543	28.33
807.722	-8.53
807.901	81.58
808.081	65.19
808.26	-86.36
808.439	69.29
808.619	42.67
808.798	-43.35
808.977	44.71
809.156	42.67
809.336	38.57
809.515	157.35
809.694	-10.58
809.873	-14.68
810.052	36.52
810.231	120.49
810.411	75.43
810.59	151.21
810.769	83.63
810.948	50.86
811.127	-78.16
811.306	-33.11
811.485	57
811.664	77.48
811.843	3.75
812.022	20.14
812.201	24.23
812.38	20.14
812.559	16.04
812.737	61.1
812.916	-117.08
813.095	-61.78
813.274	40.62
813.453	110.25
813.632	79.53
813.811	114.34
813.989	-61.78
814.168	77.48
814.347	-26.96
814.526	32.43
814.704	102.06
814.883	138.92
815.062	-41.3
815.24	83.63
815.419	-18.77
815.598	77.48
815.776	11.95
815.955	40.62
816.133	-184.66
816.312	-41.3
816.49	-39.25
816.669	28.33
816.847	67.24
817.026	-37.2
817.204	-29.01
817.383	116.39
817.561	-24.92
817.74	87.72
817.918	36.52
818.097	-43.35
818.275	3.75
818.453	61.1
818.632	13.99
818.81	9.9
818.988	-26.96
819.167	-20.82
819.345	38.57
819.523	-37.2
819.701	9.9
819.879	124.58
820.058	63.15
820.236	34.47
820.414	-16.73
820.592	46.76
820.77	-37.2
820.948	-41.3
821.127	-104.79
821.305	34.47
821.483	-10.58
821.661	93.87
821.839	108.2
822.017	-78.16
822.195	28.33
822.373	81.58
822.551	-20.82
822.729	61.1
822.907	40.62
823.085	24.23
823.262	54.95
823.44	-63.83
823.618	20.14
823.796	-35.16
823.974	-12.63
824.152	-29.01
824.329	20.14
824.507	36.52
824.685	85.67
824.863	7.85
825.04	32.43
825.218	9.9
825.396	46.76
825.574	46.76
825.751	20.14
825.929	67.24
826.107	-84.31
826.284	-63.83
826.462	71.34
826.639	-78.16
826.817	-108.88
826.994	1.71
827.172	-39.25
827.349	122.54
827.527	52.91
827.704	-10.58
827.882	112.3
828.059	28.33
828.237	-41.3
828.414	93.87
828.591	-67.92
828.769	24.23
828.946	11.95
829.124	145.06
829.301	81.58
829.478	-49.49
829.655	59.05
829.833	38.57
830.01	-24.92
830.187	38.57
830.364	-4.44
830.542	65.19
830.719	110.25
830.896	52.91
831.073	28.33
831.25	40.62
831.427	5.8
831.604	44.71
831.782	-57.68
831.959	11.95
832.136	20.14
832.313	42.67
832.49	26.28
832.667	30.38
832.844	-69.97
833.021	24.23
833.198	7.85
833.374	28.33
833.551	26.28
833.728	-35.16
833.905	59.05
834.082	-172.37
834.259	130.73
834.436	30.38
834.612	-26.96
834.789	77.48
834.966	-0.34
835.143	-0.34
835.319	-24.92
835.496	22.19
835.673	69.29
835.85	102.06
836.026	11.95
836.203	93.87
836.38	-16.73
836.556	-76.12
836.733	-51.54
836.909	75.43
837.086	-4.44
837.262	-20.82
837.439	85.67
837.616	-49.49
837.792	-31.06
837.968	-43.35
838.145	-55.64
838.321	54.95
838.498	40.62
838.674	52.91
838.851	11.95
839.027	-86.36
839.203	-47.44
839.38	110.25
839.556	-8.53
839.732	46.76
839.909	-45.4
840.085	59.05
840.261	-74.07
840.437	-43.35
840.614	-20.82
840.79	52.91
840.966	75.43
841.142	50.86
841.318	44.71
841.494	34.47
841.671	143.02
841.847	-47.44
842.023	-112.98
842.199	-4.44
842.375	83.63
842.551	-80.21
842.727	-74.07
842.903	108.2
843.079	-65.88
843.255	63.15
843.431	-2.39
843.607	-2.39
843.783	-164.18
843.959	28.33
844.134	-4.44
844.31	83.63
844.486	-22.87
844.662	-63.83
844.838	-16.73
845.013	48.81
845.189	118.44
845.365	48.81
845.541	-26.96
845.716	9.9
845.892	81.58
846.068	-0.34
846.244	13.99
846.419	11.95
846.595	-31.06
846.77	-72.02
846.946	77.48
847.122	-96.6
847.297	18.09
847.473	110.25
847.648	-29.01
847.824	44.71
847.999	-86.36
848.175	-4.44
848.35	-6.49
848.526	61.1
848.701	102.06
848.876	44.71
849.052	-14.68
849.227	-88.4
849.403	-49.49
849.578	9.9
849.753	1.71
849.929	93.87
850.104	-106.84
850.279	-69.97
850.454	18.09
850.63	87.72
850.805	75.43
850.98	26.28
851.155	9.9
851.33	40.62
851.505	-86.36
851.681	122.54
851.856	-24.92
852.031	77.48
852.206	5.8
852.381	-112.98
852.556	-8.53
852.731	20.14
852.906	79.53
853.081	7.85
853.256	169.64
853.431	91.82
853.606	11.95
853.781	-24.92
853.956	-104.79
854.131	5.8
854.305	-53.59
854.48	28.33
854.655	-61.78
854.83	9.9
855.005	-16.73
855.18	-6.49
855.354	-39.25
855.529	61.1
855.704	-18.77
855.879	65.19
856.053	-55.64
856.228	11.95
856.403	-59.73
856.577	59.05
856.752	-98.64
856.926	38.57
857.101	67.24
857.276	-51.54
857.45	50.86
857.625	28.33
857.799	-41.3
857.974	61.1
858.148	-69.97
858.323	65.19
858.497	54.95
858.672	-108.88
858.846	-16.73
859.02	145.06
859.195	-51.54
859.369	13.99
859.543	28.33
859.718	44.71
859.892	-6.49
860.066	11.95
860.241	11.95
860.415	-51.54
860.589	50.86
860.763	34.47
860.938	28.33
861.112	-8.53
861.286	44.71
861.46	-8.53
861.634	-69.97
861.808	143.02
861.982	-2.39
862.157	-74.07
862.331	-16.73
862.505	-63.83
862.679	-67.92
862.853	7.85
863.027	-2.39
863.201	192.17
863.375	-12.63
863.549	50.86
863.722	18.09
863.896	140.97
864.07	16.04
864.244	-20.82
864.418	38.57
864.592	97.96
864.766	54.95
864.939	-37.2
865.113	5.8
865.287	106.15
865.461	-35.16
865.634	102.06
865.808	28.33
865.982	-90.45
866.156	-37.2
866.329	-92.5
866.503	-33.11
866.676	65.19
866.85	50.86
867.024	-100.69
867.197	61.1
867.371	11.95
867.544	1.71
867.718	-98.64
867.891	91.82
868.065	-76.12
868.238	-31.06
868.412	122.54
868.585	50.86
868.759	-12.63
868.932	-22.87
869.105	-115.03
869.279	44.71
869.452	-78.16
869.625	83.63
869.799	-22.87
869.972	-84.31
870.145	24.23
870.319	87.72
870.492	-47.44
870.665	52.91
870.838	-94.55
871.011	-133.46
871.185	-4.44
871.358	-26.96
871.531	102.06
871.704	-22.87
871.877	-8.53
872.05	7.85
872.223	-78.16
872.396	108.2
872.569	71.34
872.742	-74.07
872.915	50.86
873.088	-76.12
873.261	-102.74
873.434	20.14
873.607	61.1
873.78	100.01
873.953	-78.16
874.126	11.95
874.299	73.39
874.471	-39.25
874.644	-24.92
874.817	87.72
874.99	140.97
875.163	-57.68
875.335	91.82
875.508	-39.25
875.681	67.24
875.853	16.04
876.026	-20.82
876.199	50.86
876.371	26.28
876.544	32.43
876.717	54.95
876.889	24.23
877.062	120.49
877.234	-100.69
877.407	-76.12
877.579	-61.78
877.752	22.19
877.924	83.63
878.097	44.71
878.269	11.95
878.442	83.63
878.614	-16.73
878.786	63.15
878.959	-74.07
879.131	61.1
879.303	-131.41
879.476	-0.34
879.648	97.96
879.82	-26.96
879.993	-59.73
880.165	-31.06
880.337	-33.11
880.509	44.71
880.681	-63.83
880.854	-24.92
881.026	95.91
881.198	235.18
881.37	36.52
881.542	-0.34
881.714	22.19
881.886	-8.53
882.058	63.15
882.23	57
882.402	24.23
882.574	61.1
882.746	11.95
882.918	155.3
883.09	-8.53
883.262	52.91
883.434	-12.63
883.606	-74.07
883.778	3.75
883.95	151.21
884.122	9.9
884.293	46.76
884.465	11.95
884.637	44.71
884.809	-61.78
884.98	46.76
885.152	1.71
885.324	77.48
885.496	-55.64
885.667	-20.82
885.839	-57.68
886.011	149.16
886.182	40.62
886.354	36.52
886.525	79.53
886.697	-16.73
886.869	-63.83
887.04	-24.92
887.212	130.73
887.383	116.39
887.555	81.58
887.726	-10.58
887.897	-4.44
888.069	16.04
888.24	32.43
888.412	5.8
888.583	34.47
888.754	36.52
888.926	-20.82
889.097	1.71
889.268	-47.44
889.44	18.09
889.611	-59.73
889.782	-67.92
889.953	-90.45
890.125	118.44
890.296	-8.53
890.467	-4.44
890.638	9.9
890.809	-31.06
890.98	-31.06
891.151	65.19
891.323	85.67
891.494	1.71
891.665	38.57
891.836	-14.68
892.007	32.43
892.178	1.71
892.349	48.81
892.52	-33.11
892.691	20.14
892.862	-22.87
893.032	-145.75
893.203	-31.06
893.374	40.62
893.545	48.81
893.716	71.34
893.887	140.97
894.057	26.28
894.228	5.8
894.399	-86.36
894.57	42.67
894.74	77.48
894.911	44.71
895.082	-41.3
895.253	-12.63
895.423	61.1
895.594	52.91
895.764	75.43
895.935	-84.31
896.106	118.44
896.276	-49.49
896.447	-16.73
896.617	-37.2
896.788	-6.49
896.958	-10.58
897.129	-104.79
897.299	-39.25
897.47	120.49
897.64	140.97
897.81	-29.01
897.981	30.38
898.151	-57.68
898.322	65.19
898.492	73.39
898.662	-57.68
898.832	-29.01
899.003	-18.77
899.173	1.71
899.343	-61.78
899.513	-59.73
