Data from USB4F104151__290__11-21-10-828.txt Node

Date: Wed Feb 26 11:21:10 EST 2025
User: louis
Spectrometer: USB4F10415
Trigger mode: 4
Integration Time (sec): 1.000000E-1
Scans to average: 1
Electric dark correction enabled: true
Nonlinearity correction enabled: false
Boxcar width: 0
XAxis mode: Wavelengths
Number of Pixels in Spectrum: 3648
>>>>>Begin Spectral Data<<<<<
178.204	-451.07
178.424	-451.07
178.644	-451.07
178.864	-455.16
179.084	-334.33
179.304	40.45
179.524	-4.61
179.744	-88.57
179.964	-4.61
180.184	34.3
180.404	91.65
180.624	13.82
180.844	34.3
181.064	-82.43
181.283	34.3
181.503	-68.09
181.723	-0.51
181.943	-51.71
182.163	134.65
182.383	19.97
182.602	79.36
182.822	126.46
183.042	128.51
183.262	-35.33
183.482	-18.94
183.701	13.82
183.921	71.17
184.141	-100.86
184.361	73.21
184.58	71.17
184.8	9.73
185.02	-25.09
185.239	65.02
185.459	22.02
185.679	91.65
185.898	-147.97
186.118	9.73
186.338	32.26
186.557	146.94
186.777	-104.96
186.997	-20.99
187.216	130.56
187.436	232.96
187.655	77.31
187.875	101.89
188.095	75.26
188.314	40.45
188.534	132.61
188.753	-82.43
188.973	118.27
189.192	128.51
189.412	38.4
189.631	24.06
189.851	91.65
190.07	103.93
190.29	-43.52
190.509	28.16
190.729	17.92
190.948	192
191.168	251.39
191.387	89.6
191.607	28.16
191.826	7.68
192.045	11.78
192.265	-12.8
192.484	48.64
192.704	75.26
192.923	15.87
193.142	144.89
193.362	132.61
193.581	208.38
193.8	89.6
194.02	73.21
194.239	75.26
194.458	54.78
194.678	50.69
194.897	42.5
195.116	50.69
195.335	50.69
195.555	48.64
195.774	34.3
195.993	89.6
196.212	-8.7
196.432	-66.05
196.651	11.78
196.87	24.06
197.089	249.34
197.308	11.78
197.528	13.82
197.747	-33.28
197.966	24.06
198.185	159.23
198.404	-23.04
198.623	62.98
198.842	110.08
199.062	69.12
199.281	105.98
199.5	-12.8
199.719	101.89
199.938	85.5
200.157	73.21
200.376	67.07
200.595	220.67
200.814	30.21
201.033	-8.7
201.252	101.89
201.471	30.21
201.69	142.85
201.909	56.83
202.128	142.85
202.347	69.12
202.566	3.58
202.785	-27.14
203.004	-29.18
203.223	273.92
203.442	46.59
203.661	5.63
203.879	77.31
204.098	161.28
204.317	-59.9
204.536	60.93
204.755	60.93
204.974	120.32
205.193	15.87
205.411	140.8
205.63	171.52
205.849	44.54
206.068	15.87
206.287	-51.71
206.505	126.46
206.724	48.64
206.943	56.83
207.162	38.4
207.381	126.46
207.599	-23.04
207.818	79.36
208.037	-16.9
208.255	15.87
208.474	159.23
208.693	69.12
208.911	58.88
209.13	118.27
209.349	153.09
209.567	52.74
209.786	118.27
210.005	110.08
210.223	48.64
210.442	-139.77
210.661	52.74
210.879	58.88
211.098	-0.51
211.316	36.35
211.535	142.85
211.753	101.89
211.972	77.31
212.191	-41.47
212.409	26.11
212.628	32.26
212.846	-59.9
213.065	40.45
213.283	130.56
213.502	58.88
213.72	56.83
213.938	77.31
214.157	-12.8
214.375	224.76
214.594	-2.56
214.812	5.63
215.031	-0.51
215.249	-47.62
215.467	40.45
215.686	13.82
215.904	103.93
216.122	-14.85
216.341	169.47
216.559	40.45
216.778	34.3
216.996	118.27
217.214	56.83
217.432	7.68
217.651	32.26
217.869	89.6
218.087	44.54
218.306	-51.71
218.524	-4.61
218.742	19.97
218.96	148.99
219.179	9.73
219.397	52.74
219.615	257.53
219.833	128.51
220.051	7.68
220.27	95.74
220.488	69.12
220.706	87.55
220.924	-25.09
221.142	7.68
221.36	22.02
221.578	89.6
221.796	-4.61
222.015	103.93
222.233	3.58
222.451	126.46
222.669	-29.18
222.887	60.93
223.105	75.26
223.323	-100.86
223.541	-25.09
223.759	-4.61
223.977	26.11
224.195	134.65
224.413	5.63
224.631	-4.61
224.849	112.13
225.067	140.8
225.285	7.68
225.503	-33.28
225.721	-96.77
225.939	110.08
226.157	50.69
226.375	239.1
226.592	24.06
226.81	9.73
227.028	101.89
227.246	65.02
227.464	-4.61
227.682	44.54
227.9	89.6
228.117	73.21
228.335	99.84
228.553	24.06
228.771	28.16
228.989	34.3
229.206	108.03
229.424	50.69
229.642	22.02
229.86	-78.33
230.077	194.05
230.295	83.45
230.513	9.73
230.731	99.84
230.948	79.36
231.166	194.05
231.384	58.88
231.601	-27.14
231.819	202.24
232.037	-8.7
232.254	-6.66
232.472	95.74
232.689	-27.14
232.907	108.03
233.125	11.78
233.342	65.02
233.56	17.92
233.777	-25.09
233.995	71.17
234.213	163.33
234.43	105.98
234.648	-31.23
234.865	52.74
235.083	34.3
235.3	99.84
235.518	108.03
235.735	175.61
235.953	42.5
236.17	48.64
236.388	-74.24
236.605	22.02
236.822	95.74
237.04	48.64
237.257	15.87
237.475	-39.42
237.692	40.45
237.909	105.98
238.127	5.63
238.344	93.69
238.562	93.69
238.779	54.78
238.996	-98.81
239.214	28.16
239.431	30.21
239.648	46.59
239.865	30.21
240.083	34.3
240.3	52.74
240.517	-37.38
240.735	46.59
240.952	157.18
241.169	34.3
241.386	142.85
241.603	50.69
241.821	7.68
242.038	138.75
242.255	163.33
242.472	-86.53
242.689	79.36
242.907	73.21
243.124	71.17
243.341	-6.66
243.558	69.12
243.775	-27.14
243.992	9.73
244.209	36.35
244.426	122.37
244.643	159.23
244.86	-27.14
245.078	58.88
245.295	77.31
245.512	56.83
245.729	-43.52
245.946	56.83
246.163	124.41
246.38	-20.99
246.597	95.74
246.814	54.78
247.031	67.07
247.248	48.64
247.464	58.88
247.681	40.45
247.898	65.02
248.115	79.36
248.332	36.35
248.549	228.86
248.766	179.71
248.983	52.74
249.2	30.21
249.417	97.79
249.633	62.98
249.85	52.74
250.067	81.41
250.284	83.45
250.501	114.17
250.717	56.83
250.934	-107.01
251.151	48.64
251.368	-2.56
251.585	60.93
251.801	91.65
252.018	-61.95
252.235	40.45
252.451	-61.95
252.668	28.16
252.885	56.83
253.102	30.21
253.318	17.92
253.535	50.69
253.752	19.97
253.968	13.82
254.185	-39.42
254.401	116.22
254.618	73.21
254.835	-29.18
255.051	157.18
255.268	144.89
255.484	15.87
255.701	11.78
255.917	38.4
256.134	7.68
256.351	83.45
256.567	-57.86
256.784	75.26
257	-66.05
257.217	128.51
257.433	58.88
257.65	69.12
257.866	116.22
258.082	-57.86
258.299	15.87
258.515	46.59
258.732	-6.66
258.948	-66.05
259.165	15.87
259.381	30.21
259.597	165.37
259.814	44.54
260.03	19.97
260.246	69.12
260.463	200.19
260.679	140.8
260.895	-20.99
261.112	124.41
261.328	50.69
261.544	-4.61
261.761	153.09
261.977	-66.05
262.193	-8.7
262.409	134.65
262.626	89.6
262.842	-6.66
263.058	-43.52
263.274	153.09
263.49	58.88
263.707	83.45
263.923	75.26
264.139	-104.96
264.355	132.61
264.571	114.17
264.787	-35.33
265.004	116.22
265.22	79.36
265.436	-39.42
265.652	-33.28
265.868	56.83
266.084	-35.33
266.3	15.87
266.516	-12.8
266.732	116.22
266.948	54.78
267.164	-6.66
267.38	116.22
267.596	26.11
267.812	134.65
268.028	52.74
268.244	9.73
268.46	19.97
268.676	36.35
268.892	95.74
269.108	-14.85
269.324	40.45
269.54	-43.52
269.756	103.93
269.972	-78.33
270.188	52.74
270.403	-12.8
270.619	42.5
270.835	112.13
271.051	24.06
271.267	-53.76
271.483	-18.94
271.698	126.46
271.914	40.45
272.13	79.36
272.346	19.97
272.562	71.17
272.777	118.27
272.993	120.32
273.209	-41.47
273.425	97.79
273.64	-20.99
273.856	134.65
274.072	15.87
274.287	5.63
274.503	110.08
274.719	85.5
274.934	-0.51
275.15	-16.9
275.366	17.92
275.581	-12.8
275.797	-6.66
276.012	65.02
276.228	-20.99
276.444	28.16
276.659	93.69
276.875	1.54
277.09	-18.94
277.306	34.3
277.521	17.92
277.737	13.82
277.952	-16.9
278.168	65.02
278.383	54.78
278.599	85.5
278.814	122.37
279.03	7.68
279.245	110.08
279.461	15.87
279.676	81.41
279.892	-20.99
280.107	24.06
280.322	9.73
280.538	71.17
280.753	-31.23
280.969	126.46
281.184	97.79
281.399	204.28
281.615	32.26
281.83	62.98
282.045	-27.14
282.26	-43.52
282.476	28.16
282.691	40.45
282.906	120.32
283.122	54.78
283.337	5.63
283.552	167.42
283.767	22.02
283.983	54.78
284.198	56.83
284.413	48.64
284.628	-6.66
284.843	75.26
285.058	128.51
285.274	91.65
285.489	1.54
285.704	110.08
285.919	-64
286.134	44.54
286.349	34.3
286.564	52.74
286.779	148.99
286.995	-6.66
287.21	-25.09
287.425	136.7
287.64	60.93
287.855	-4.61
288.07	-39.42
288.285	183.81
288.5	169.47
288.715	13.82
288.93	11.78
289.145	24.06
289.36	26.11
289.575	71.17
289.79	146.94
290.004	22.02
290.219	126.46
290.434	22.02
290.649	-16.9
290.864	-35.33
291.079	24.06
291.294	87.55
291.509	15.87
291.724	-12.8
291.938	17.92
292.153	46.59
292.368	28.16
292.583	91.65
292.798	101.89
293.012	103.93
293.227	126.46
293.442	-68.09
293.657	101.89
293.871	7.68
294.086	85.5
294.301	146.94
294.516	13.82
294.73	103.93
294.945	24.06
295.16	54.78
295.374	34.3
295.589	108.03
295.804	122.37
296.018	91.65
296.233	79.36
296.447	85.5
296.662	-70.14
296.877	42.5
297.091	15.87
297.306	91.65
297.52	26.11
297.735	28.16
297.949	36.35
298.164	73.21
298.378	17.92
298.593	-160.25
298.807	-90.62
299.022	11.78
299.236	165.37
299.451	26.11
299.665	-55.81
299.88	28.16
300.094	77.31
300.309	5.63
300.523	22.02
300.737	-18.94
300.952	108.03
301.166	140.8
301.381	-41.47
301.595	-23.04
301.809	91.65
302.024	-41.47
302.238	9.73
302.452	122.37
302.667	22.02
302.881	142.85
303.095	89.6
303.309	122.37
303.524	32.26
303.738	-47.62
303.952	28.16
304.166	-35.33
304.381	-145.92
304.595	196.09
304.809	-55.81
305.023	32.26
305.237	34.3
305.452	44.54
305.666	48.64
305.88	24.06
306.094	52.74
306.308	69.12
306.522	110.08
306.736	136.7
306.95	110.08
307.164	28.16
307.379	9.73
307.593	243.2
307.807	179.71
308.021	146.94
308.235	87.55
308.449	-107.01
308.663	22.02
308.877	192
309.091	19.97
309.305	58.88
309.519	-10.75
309.733	99.84
309.947	-66.05
310.161	52.74
310.374	62.98
310.588	95.74
310.802	-61.95
311.016	5.63
311.23	42.5
311.444	-2.56
311.658	28.16
311.872	89.6
312.085	151.04
312.299	126.46
312.513	187.9
312.727	15.87
312.941	-16.9
313.154	71.17
313.368	91.65
313.582	-43.52
313.796	122.37
314.009	-12.8
314.223	185.85
314.437	42.5
314.651	44.54
314.864	19.97
315.078	-4.61
315.292	-55.81
315.505	89.6
315.719	69.12
315.933	54.78
316.146	-4.61
316.36	3.58
316.573	89.6
316.787	15.87
317.001	38.4
317.214	17.92
317.428	110.08
317.641	19.97
317.855	-29.18
318.068	-16.9
318.282	60.93
318.495	161.28
318.709	136.7
318.922	56.83
319.136	144.89
319.349	173.57
319.563	1.54
319.776	91.65
319.99	-86.53
320.203	105.98
320.417	7.68
320.63	112.13
320.843	144.89
321.057	50.69
321.27	-8.7
321.483	60.93
321.697	110.08
321.91	-4.61
322.124	32.26
322.337	28.16
322.55	-88.57
322.763	15.87
322.977	36.35
323.19	-57.86
323.403	97.79
323.617	40.45
323.83	114.17
324.043	-10.75
324.256	122.37
324.469	-55.81
324.683	120.32
324.896	-0.51
325.109	50.69
325.322	-35.33
325.535	110.08
325.748	138.75
325.962	34.3
326.175	89.6
326.388	62.98
326.601	79.36
326.814	-2.56
327.027	7.68
327.24	181.76
327.453	-53.76
327.666	108.03
327.879	148.99
328.092	101.89
328.305	71.17
328.518	17.92
328.731	-57.86
328.944	58.88
329.157	112.13
329.37	3.58
329.583	128.51
329.796	124.41
330.009	-104.96
330.222	138.75
330.435	126.46
330.648	134.65
330.861	112.13
331.073	32.26
331.286	128.51
331.499	116.22
331.712	-8.7
331.925	-6.66
332.138	50.69
332.35	36.35
332.563	-29.18
332.776	95.74
332.989	-39.42
333.202	-8.7
333.414	48.64
333.627	9.73
333.84	-2.56
334.053	15.87
334.265	-25.09
334.478	28.16
334.691	22.02
334.903	69.12
335.116	50.69
335.329	-14.85
335.541	77.31
335.754	136.7
335.966	-4.61
336.179	24.06
336.392	32.26
336.604	103.93
336.817	167.42
337.029	42.5
337.242	-18.94
337.454	114.17
337.667	65.02
337.88	110.08
338.092	58.88
338.305	112.13
338.517	28.16
338.729	60.93
338.942	95.74
339.154	17.92
339.367	-8.7
339.579	11.78
339.792	-6.66
340.004	93.69
340.217	56.83
340.429	91.65
340.641	-51.71
340.854	-102.91
341.066	77.31
341.278	126.46
341.491	120.32
341.703	120.32
341.915	-33.28
342.128	142.85
342.34	60.93
342.552	32.26
342.764	126.46
342.977	44.54
343.189	67.07
343.401	48.64
343.613	-0.51
343.826	79.36
344.038	-84.48
344.25	85.5
344.462	-4.61
344.674	69.12
344.886	-8.7
345.099	126.46
345.311	173.57
345.523	-14.85
345.735	-160.25
345.947	120.32
346.159	36.35
346.371	89.6
346.583	46.59
346.795	163.33
347.007	-10.75
347.219	54.78
347.431	103.93
347.643	130.56
347.855	-27.14
348.067	97.79
348.279	-84.48
348.491	-10.75
348.703	126.46
348.915	48.64
349.127	-51.71
349.339	-25.09
349.551	-68.09
349.763	22.02
349.975	42.5
350.187	65.02
350.399	136.7
350.61	89.6
350.822	32.26
351.034	73.21
351.246	38.4
351.458	81.41
351.669	85.5
351.881	67.07
352.093	89.6
352.305	48.64
352.517	71.17
352.728	116.22
352.94	91.65
353.152	60.93
353.363	-33.28
353.575	120.32
353.787	192
353.999	26.11
354.21	185.85
354.422	-31.23
354.633	13.82
354.845	46.59
355.057	105.98
355.268	56.83
355.48	97.79
355.692	-29.18
355.903	69.12
356.115	-20.99
356.326	-82.43
356.538	151.04
356.749	71.17
356.961	161.28
357.172	-20.99
357.384	30.21
357.595	247.29
357.807	-23.04
358.018	-14.85
358.23	34.3
358.441	185.85
358.653	9.73
358.864	99.84
359.075	7.68
359.287	36.35
359.498	120.32
359.709	120.32
359.921	34.3
360.132	99.84
360.344	69.12
360.555	-8.7
360.766	79.36
360.977	67.07
361.189	151.04
361.4	1.54
361.611	122.37
361.823	136.7
362.034	42.5
362.245	-66.05
362.456	77.31
362.667	81.41
362.879	-55.81
363.09	46.59
363.301	24.06
363.512	50.69
363.723	50.69
363.935	56.83
364.146	91.65
364.357	48.64
364.568	157.18
364.779	-31.23
364.99	116.22
365.201	32.26
365.412	75.26
365.623	-88.57
365.834	128.51
366.045	-53.76
366.256	151.04
366.467	54.78
366.678	52.74
366.889	3.58
367.1	-2.56
367.311	-12.8
367.522	-45.57
367.733	36.35
367.944	81.41
368.155	58.88
368.366	77.31
368.577	87.55
368.788	62.98
368.999	22.02
369.209	77.31
369.42	192
369.631	224.76
369.842	60.93
370.053	19.97
370.264	81.41
370.474	30.21
370.685	42.5
370.896	24.06
371.107	198.14
371.317	87.55
371.528	-20.99
371.739	122.37
371.95	132.61
372.16	52.74
372.371	-33.28
372.582	-16.9
372.792	60.93
373.003	118.27
373.214	38.4
373.424	110.08
373.635	62.98
373.846	198.14
374.056	34.3
374.267	81.41
374.477	38.4
374.688	62.98
374.898	19.97
375.109	99.84
375.319	93.69
375.53	93.69
375.74	114.17
375.951	-45.57
376.161	95.74
376.372	77.31
376.582	60.93
376.793	116.22
377.003	22.02
377.214	-4.61
377.424	142.85
377.635	9.73
377.845	-2.56
378.055	175.61
378.266	-8.7
378.476	22.02
378.686	65.02
378.897	85.5
379.107	77.31
379.317	13.82
379.528	77.31
379.738	112.13
379.948	-82.43
380.158	108.03
380.369	62.98
380.579	60.93
380.789	73.21
380.999	83.45
381.21	89.6
381.42	183.81
381.63	3.58
381.84	165.37
382.05	89.6
382.261	110.08
382.471	17.92
382.681	42.5
382.891	181.76
383.101	95.74
383.311	-31.23
383.521	-70.14
383.731	103.93
383.941	56.83
384.151	130.56
384.361	32.26
384.571	97.79
384.781	-0.51
384.991	192
385.201	181.76
385.411	175.61
385.621	46.59
385.831	89.6
386.041	-4.61
386.251	58.88
386.461	118.27
386.671	3.58
386.881	83.45
387.091	67.07
387.301	75.26
387.511	142.85
387.72	140.8
387.93	50.69
388.14	-96.77
388.35	112.13
388.56	116.22
388.769	173.57
388.979	165.37
389.189	-49.66
389.399	38.4
389.609	48.64
389.818	95.74
390.028	81.41
390.238	85.5
390.447	44.54
390.657	161.28
390.867	56.83
391.076	17.92
391.286	75.26
391.496	118.27
391.705	60.93
391.915	148.99
392.125	212.48
392.334	9.73
392.544	105.98
392.753	77.31
392.963	-33.28
393.172	73.21
393.382	-0.51
393.591	237.05
393.801	62.98
394.01	208.38
394.22	116.22
394.429	11.78
394.639	-2.56
394.848	87.55
395.058	83.45
395.267	42.5
395.477	97.79
395.686	93.69
395.895	200.19
396.105	312.83
396.314	56.83
396.524	-6.66
396.733	26.11
396.942	124.41
397.152	110.08
397.361	146.94
397.57	36.35
397.78	65.02
397.989	120.32
398.198	206.33
398.407	52.74
398.617	19.97
398.826	116.22
399.035	75.26
399.244	134.65
399.453	69.12
399.663	103.93
399.872	83.45
400.081	-33.28
400.29	198.14
400.499	30.21
400.708	138.75
400.917	110.08
401.127	73.21
401.336	15.87
401.545	222.72
401.754	65.02
401.963	126.46
402.172	69.12
402.381	-119.29
402.59	36.35
402.799	83.45
403.008	177.66
403.217	69.12
403.426	93.69
403.635	-23.04
403.844	11.78
404.053	65.02
404.262	-29.18
404.471	163.33
404.68	192
404.888	36.35
405.097	-8.7
405.306	13.82
405.515	138.75
405.724	103.93
405.933	183.81
406.142	62.98
406.35	69.12
406.559	58.88
406.768	83.45
406.977	140.8
407.185	103.93
407.394	62.98
407.603	-27.14
407.812	65.02
408.02	114.17
408.229	73.21
408.438	-35.33
408.646	50.69
408.855	-10.75
409.064	77.31
409.272	60.93
409.481	140.8
409.69	-29.18
409.898	-86.53
410.107	48.64
410.315	108.03
410.524	58.88
410.733	56.83
410.941	118.27
411.15	85.5
411.358	177.66
411.567	136.7
411.775	87.55
411.984	-10.75
412.192	175.61
412.401	19.97
412.609	173.57
412.818	128.51
413.026	89.6
413.234	93.69
413.443	48.64
413.651	50.69
413.86	101.89
414.068	124.41
414.276	140.8
414.485	1.54
414.693	173.57
414.901	185.85
415.11	97.79
415.318	62.98
415.526	-0.51
415.734	95.74
415.943	34.3
416.151	206.33
416.359	67.07
416.567	7.68
416.776	103.93
416.984	159.23
417.192	235
417.4	-14.85
417.608	-23.04
417.817	-16.9
418.025	151.04
418.233	165.37
418.441	-6.66
418.649	-45.57
418.857	118.27
419.065	192
419.273	-41.47
419.481	56.83
419.689	126.46
419.897	44.54
420.105	-2.56
420.313	79.36
420.521	214.52
420.729	192
420.937	42.5
421.145	54.78
421.353	103.93
421.561	157.18
421.769	105.98
421.977	7.68
422.185	148.99
422.393	48.64
422.601	148.99
422.809	93.69
423.017	87.55
423.224	67.07
423.432	138.75
423.64	9.73
423.848	173.57
424.056	7.68
424.263	187.9
424.471	110.08
424.679	198.14
424.887	-23.04
425.094	198.14
425.302	161.28
425.51	-4.61
425.718	173.57
425.925	126.46
426.133	71.17
426.341	249.34
426.548	69.12
426.756	65.02
426.964	112.13
427.171	46.59
427.379	116.22
427.586	128.51
427.794	146.94
428.001	200.19
428.209	110.08
428.417	239.1
428.624	77.31
428.832	161.28
429.039	134.65
429.247	148.99
429.454	136.7
429.662	171.52
429.869	173.57
430.076	85.5
430.284	183.81
430.491	179.71
430.699	185.85
430.906	282.11
431.114	169.47
431.321	222.72
431.528	103.93
431.736	202.24
431.943	196.09
432.15	226.81
432.358	265.72
432.565	318.97
432.772	-23.04
432.979	247.29
433.187	134.65
433.394	261.63
433.601	214.52
433.808	212.48
434.016	255.48
434.223	259.58
434.43	179.71
434.637	341.5
434.844	333.31
435.052	230.91
435.259	282.11
435.466	321.02
435.673	282.11
435.88	372.22
436.087	425.47
436.294	431.61
436.501	388.6
436.708	349.69
436.915	415.23
437.122	357.88
437.329	314.88
437.537	347.64
437.743	511.48
437.95	509.43
438.157	452.09
438.364	458.23
438.571	482.81
438.778	527.86
438.985	544.25
439.192	640.5
439.399	470.52
439.606	456.19
439.813	622.07
440.02	691.7
440.227	798.2
440.433	816.63
440.64	570.87
440.847	663.03
441.054	708.09
441.261	865.78
441.467	736.76
441.674	724.47
441.881	822.77
442.088	814.58
442.294	974.32
442.501	1007.09
442.708	1060.34
442.914	916.98
443.121	1076.72
443.328	1019.38
443.534	1156.59
443.741	1097.2
443.948	1086.96
444.154	1244.65
444.361	1353.2
444.568	1250.8
444.774	1342.96
444.981	1220.08
445.187	1476.07
445.394	1490.41
445.6	1428.97
445.807	1619.43
446.013	1578.47
446.22	1502.7
446.426	1730.02
446.633	1836.52
446.839	2053.6
447.046	1842.66
447.252	1949.15
447.459	2067.94
447.665	2160.1
447.871	2258.4
448.078	2295.26
448.284	2211.29
448.491	2434.52
448.697	2690.52
448.903	2653.66
449.11	2876.88
449.316	2659.8
449.522	3042.77
449.728	2969.04
449.935	3182.03
450.141	3120.59
450.347	3458.51
450.553	3333.58
450.76	3515.85
450.966	3640.78
451.172	3829.19
451.378	3997.12
451.584	4044.23
451.791	4328.89
451.997	4404.67
452.203	4578.75
452.409	4640.19
452.615	4836.79
452.821	4847.03
453.027	4908.47
453.233	5506.48
453.44	5262.77
453.646	5637.55
453.852	5733.8
454.058	6036.9
454.264	6290.85
454.47	6600.09
454.676	6557.08
454.882	7271.83
455.088	6970.77
455.294	7259.54
455.5	7880.07
455.705	8166.79
455.911	8295.81
456.117	8433.02
456.323	8883.58
456.529	8826.23
456.735	9583.98
456.941	9844.07
457.147	10343.78
457.352	10540.38
457.558	10714.46
457.764	11382.1
457.97	11636.05
458.176	12340.55
458.381	12698.94
458.587	12930.36
458.793	13595.95
458.999	13755.69
459.204	15519
459.41	15881.49
459.616	15523.09
459.821	16657.67
460.027	17415.41
460.233	18029.8
460.438	18169.07
460.644	19088.6
460.85	19403.99
461.055	19979.47
461.261	20724.93
461.466	20612.29
461.672	21241.02
461.878	23506.07
462.083	23200.93
462.289	24011.92
462.494	25007.23
462.7	24982.66
462.905	25513.08
463.111	27235.42
463.316	28886.09
463.522	29045.83
463.727	30094.39
463.932	31155.24
464.138	32066.58
464.343	33457.15
464.549	34024.44
464.754	35970.01
464.959	37428.16
465.165	37479.36
465.37	37219.27
465.575	37286.86
465.781	39662.5
465.986	41147.28
466.191	40547.22
466.397	40811.41
466.602	40039.33
466.807	42124.16
467.012	42955.63
467.218	43357.03
467.423	43565.93
467.628	44921.68
467.833	46990.13
468.038	46574.39
468.244	45269.84
468.449	47702.82
468.654	46852.92
468.859	46916.4
469.064	47221.55
469.269	45458.25
469.474	46164.8
469.679	47762.22
469.885	45658.95
470.09	46848.82
470.295	46859.06
470.5	45611.85
470.705	46326.59
470.91	44960.59
471.115	44669.78
471.32	45605.7
471.525	45175.63
471.73	43668.33
471.935	43770.72
472.139	42134.4
472.344	42238.84
472.549	41878.4
472.754	40946.58
472.959	40205.21
473.164	38788.02
473.369	38089.66
473.574	39721.89
473.778	38568.88
473.983	37813.18
474.188	37327.81
474.393	35539.94
474.598	35664.86
474.802	34730.99
475.007	34139.13
475.212	33891.32
475.417	32338.96
475.621	32547.86
475.826	31953.94
476.031	30774.31
476.235	30434.35
476.44	30874.66
476.645	29744.19
476.849	29461.57
477.054	29086.79
477.259	28554.32
477.463	28273.74
477.668	27206.75
477.872	27393.12
478.077	26883.17
478.282	26170.48
478.486	25898.1
478.691	25439.36
478.895	25513.08
479.1	25087.11
479.304	25083.01
479.509	24132.75
479.713	24300.69
479.918	23753.88
480.122	23469.21
480.326	23663.77
480.531	23395.48
480.735	23073.95
480.94	22604.97
481.144	23446.68
481.348	22566.06
481.553	22539.43
481.757	21986.48
481.961	21990.58
482.166	22152.37
482.37	21859.51
482.574	21558.46
482.778	21537.98
482.983	21648.57
483.187	21445.82
483.391	21112
483.595	20602.05
483.8	20319.43
484.004	20651.2
484.208	20489.42
484.412	19944.66
484.616	20085.97
484.821	19866.83
485.025	19131.61
485.229	19301.59
485.433	18822.37
485.637	19111.13
485.841	18353.38
486.045	18240.75
486.249	18044.14
486.453	18027.76
486.657	17618.16
486.861	17380.6
487.065	16610.56
487.269	16966.91
487.473	16303.37
487.677	16528.64
487.881	16549.12
488.085	15660.31
488.289	15600.91
488.493	15117.59
488.697	15404.31
488.901	15000.86
489.105	14701.86
489.309	14277.93
489.512	14101.8
489.716	13667.63
489.92	13501.75
490.124	13348.15
490.328	13505.84
490.531	12809.53
490.735	12834.11
490.939	12424.51
491.143	12215.62
491.346	12029.26
491.55	12047.69
491.754	11644.24
491.958	11566.42
492.161	11455.83
492.365	11152.73
492.569	10855.77
492.772	10952.02
492.976	10736.99
493.18	10556.77
493.383	10577.25
493.587	10356.07
493.79	10374.5
493.994	9905.51
494.197	9729.39
494.401	9913.7
494.605	9586.03
494.808	9497.97
495.012	9534.83
495.215	9647.47
495.419	9405.81
495.622	9346.42
495.825	9467.25
496.029	9221.49
496.232	9309.55
496.436	9172.34
496.639	9203.06
496.843	9033.08
497.046	9207.16
497.249	9516.4
497.453	9170.29
497.656	9086.33
497.859	9047.41
498.063	9143.67
498.266	9078.13
498.469	9004.41
498.673	9233.78
498.876	9383.28
499.079	9135.48
499.282	9340.27
499.485	9536.88
499.689	9411.95
499.892	9692.52
500.095	9555.31
500.298	9844.07
500.501	9399.66
500.705	9665.9
500.908	9782.63
501.111	9899.37
501.314	9852.27
501.517	9991.53
501.72	10089.83
501.923	10227.04
502.126	10339.68
502.329	10583.39
502.532	10483.04
502.735	10636.64
502.938	10780
503.141	10866.01
503.344	11015.51
503.547	11111.77
503.75	11326.8
503.953	11306.32
504.156	11472.21
504.359	11560.27
504.562	11767.12
504.765	12309.83
504.968	12385.6
505.17	12459.33
505.373	12582.21
505.576	12700.99
505.779	12868.92
505.982	12838.2
506.185	13569.33
506.387	13471.03
506.59	13810.99
506.793	14105.9
506.996	14103.85
507.198	14669.09
507.401	14630.18
507.604	15213.85
507.807	15592.72
508.009	15742.22
508.212	15883.53
508.415	16628.99
508.617	16387.33
508.82	16831.74
509.022	17030.4
509.225	17687.79
509.428	17865.97
509.63	18117.87
509.833	18740.45
510.035	19317.98
510.238	19246.3
510.44	19733.71
510.643	20413.64
510.845	20913.34
511.048	21023.94
511.25	21322.94
511.453	21806.26
511.655	22609.06
511.858	23078.05
512.06	23733.4
512.262	24159.38
512.465	24251.53
512.667	25011.33
512.87	25633.91
513.072	26125.43
513.274	26713.19
513.477	27208.8
513.679	27915.35
513.881	28523.6
514.084	29367.36
514.286	29246.53
514.488	30129.2
514.69	31472.67
514.893	31468.58
515.095	32195.6
515.297	33131.53
515.499	33338.37
515.701	34212.85
515.904	35300.33
516.106	36000.73
516.308	36441.04
516.51	37647.3
516.712	37796.8
516.914	38319.03
517.116	39250.86
517.318	40004.51
517.52	40448.92
517.722	40842.13
517.925	41751.43
518.127	42750.84
518.329	43279.21
518.531	43500.39
518.733	44688.21
518.935	45110.1
519.136	45552.46
519.338	47199.02
519.54	47371.05
519.742	48380.7
519.944	48618.27
520.146	49982.21
520.348	49943.3
520.55	50672.38
520.752	50965.24
520.954	51976.93
521.155	52265.7
521.357	53328.59
521.559	53707.47
521.761	54272.71
521.963	54395.59
522.164	54893.24
522.366	55515.82
522.568	55767.73
522.77	56427.17
522.971	57254.55
523.173	56769.18
523.375	57258.65
523.576	57436.82
523.778	57758.35
523.98	58512
524.181	58481.28
524.383	58313.35
524.584	59200.12
524.786	58636.93
524.988	59320.95
525.189	59290.23
525.391	59447.92
525.592	59376.25
525.794	59667.06
525.995	58997.37
526.197	59005.56
526.398	59064.95
526.6	59208.31
526.801	58890.88
527.003	59058.81
527.204	58841.73
527.406	58911.36
527.607	58346.12
527.808	58118.79
528.01	56853.15
528.211	57242.26
528.412	58102.41
528.614	57090.71
528.815	56455.84
529.016	57014.94
529.218	55136.95
529.419	55538.35
529.62	54991.54
529.822	53963.46
530.023	54180.55
530.224	53510.86
530.425	52980.44
530.626	52146.92
530.828	51514.09
531.029	52153.06
531.23	51077.88
531.431	49861.38
531.632	50293.5
531.833	49382.16
532.035	49154.83
532.236	48339.74
532.437	47883.05
532.638	47151.92
532.839	46629.69
533.04	46525.24
533.241	44815.19
533.442	45318.99
533.643	44542.81
533.844	43737.96
534.045	43365.23
534.246	42740.6
534.447	42599.29
534.648	41759.62
534.849	41118.6
535.05	40098.72
535.251	39938.97
535.451	39453.61
535.652	39084.97
535.853	38439.86
536.054	37845.95
536.255	37237.7
536.456	36676.56
536.657	36869.07
536.857	35734.49
537.058	35165.16
537.259	35304.42
537.46	34714.61
537.66	33688.57
537.861	33946.62
538.062	33074.18
538.263	33149.96
538.463	32201.75
538.664	32171.03
538.865	31308.83
539.065	31441.95
539.266	30862.38
539.466	30286.9
539.667	29670.46
539.868	29748.28
540.068	29365.31
540.269	29078.6
540.469	28994.63
540.67	28466.25
540.87	28064.85
541.071	27798.62
541.271	27292.77
541.472	27251.81
541.672	26897.51
541.873	26438.76
542.073	25807.99
542.274	26213.49
542.474	25902.2
542.675	25197.7
542.875	25351.29
543.075	24294.54
543.276	23993.49
543.476	24358.03
543.676	23745.69
543.877	23735.45
544.077	23663.77
544.277	23205.02
544.478	22824.1
544.678	22709.41
544.878	22172.85
545.078	22205.61
545.279	21324.99
545.479	21339.32
545.679	21228.73
545.879	21023.94
546.079	20884.67
546.28	20679.88
546.48	20378.83
546.68	20473.03
546.88	19944.66
547.08	19821.78
547.28	19082.46
547.48	18935.01
547.68	18939.1
547.88	18724.07
548.081	18703.59
548.281	18248.94
548.481	17890.54
548.681	17888.5
548.881	17499.38
549.081	17200.38
549.28	17224.95
549.48	17028.35
549.68	16700.67
549.88	16413.96
550.08	16282.89
550.28	16192.78
550.48	16035.08
550.68	15543.57
550.88	15183.13
551.08	15394.07
551.279	15076.63
551.479	14763.29
551.679	14716.19
551.879	14191.91
552.079	14093.61
552.278	13841.71
552.478	13593.9
552.678	13649.2
552.878	13468.98
553.077	12973.37
553.277	12893.5
553.477	12741.95
553.676	12563.78
553.876	12477.76
554.076	12133.7
554.275	11865.42
554.475	11758.92
554.674	11513.17
554.874	11345.23
555.074	11257.17
555.273	11003.22
555.473	10884.44
555.672	10868.06
555.872	10505.57
556.071	10360.16
556.271	10435.94
556.47	9983.34
556.67	9520.49
556.869	9680.24
557.068	9696.62
557.268	9508.21
557.467	9301.36
557.667	9184.63
557.866	9092.47
558.065	8713.6
558.265	8551.81
558.464	8613.24
558.663	8447.36
558.863	8056.2
559.062	8244.61
559.261	8076.68
559.461	8005
559.66	7908.74
559.859	7714.19
560.058	7501.2
560.258	7341.46
560.457	7210.39
560.656	7304.59
560.855	6858.14
561.054	6989.21
561.253	6874.52
561.453	6884.76
561.652	6669.72
561.851	6462.88
562.05	6456.73
562.249	6147.49
562.448	6473.12
562.647	6096.29
562.846	5983.65
563.045	5918.12
563.244	5811.62
563.443	5848.49
563.642	5684.65
563.841	5551.53
564.04	5561.77
564.239	5447.08
564.438	5334.45
564.637	5232.05
564.836	5154.23
565.035	5080.5
565.234	4902.33
565.432	5060.02
565.631	5197.23
565.83	4898.23
566.029	4900.28
566.228	4634.04
566.427	4836.79
566.625	4437.44
566.824	4509.12
567.023	4459.96
567.222	4326.85
567.42	4363.71
567.619	4261.31
567.818	4152.77
568.016	4363.71
568.215	4097.47
568.414	4099.52
568.612	4044.23
568.811	3958.21
569.01	3978.69
569.208	3773.89
569.407	3843.53
569.605	3798.47
569.804	3569.1
570.002	3622.34
570.201	3605.96
570.4	3491.27
570.598	3378.64
570.797	3513.8
570.995	3341.77
571.193	3190.22
571.392	3198.42
571.59	3259.85
571.789	3298.77
571.987	3173.84
572.186	3136.98
572.384	2954.71
572.582	2991.57
572.781	3020.24
572.979	2819.54
573.177	2805.21
573.376	2768.34
573.574	2813.4
573.772	2663.9
573.971	2616.79
574.169	2520.54
574.367	2702.81
574.565	2592.22
574.763	2637.27
574.962	2522.59
575.16	2479.58
575.358	2444.76
575.556	2244.06
575.754	2448.86
575.952	2452.95
576.151	2387.42
576.349	2237.92
576.547	2080.22
576.745	2262.49
576.943	2199.01
577.141	2031.07
577.339	2045.41
577.537	1973.73
577.735	2074.08
577.933	2020.83
578.131	1961.44
578.329	2006.5
578.527	1813.99
578.725	1986.02
578.923	1834.47
579.121	1758.69
579.319	1621.48
579.516	1723.88
579.714	1945.06
579.912	1609.19
580.11	1574.38
580.308	1727.97
580.506	1641.96
580.704	1494.51
580.901	1508.84
581.099	1506.79
581.297	1537.51
581.495	1662.44
581.692	1547.75
581.89	1656.29
582.088	1490.41
582.285	1361.39
582.483	1431.02
582.681	1314.28
582.878	1285.61
583.076	1261.04
583.274	1263.08
583.471	1412.59
583.669	1261.04
583.866	1164.78
584.064	1271.28
584.262	1066.48
584.459	1152.49
584.657	1181.17
584.854	1279.47
585.052	1132.01
585.249	1213.93
585.447	1125.87
585.644	1011.18
585.841	1261.04
586.039	1080.82
586.236	1199.6
586.434	1019.38
586.631	968.18
586.828	951.79
587.026	1005.04
587.223	925.17
587.42	972.27
587.618	996.85
587.815	984.56
588.012	966.13
588.21	857.59
588.407	947.7
588.604	843.25
588.801	904.69
588.999	957.94
589.196	978.42
589.393	921.07
589.59	781.81
589.787	921.07
589.984	982.51
590.182	857.59
590.379	904.69
590.576	814.58
590.773	847.35
590.97	863.73
591.167	923.12
591.364	843.25
591.561	828.92
591.758	982.51
591.955	929.27
592.152	923.12
592.349	771.57
592.546	806.39
592.743	714.23
592.94	841.2
593.137	880.11
593.334	869.87
593.531	835.06
593.727	970.23
593.924	880.11
594.121	820.72
594.318	812.53
594.515	818.68
594.712	904.69
594.908	929.27
595.105	720.37
595.302	833.01
595.499	896.5
595.696	1002.99
595.892	880.11
596.089	1046
596.286	884.21
596.482	1146.35
596.679	1017.33
596.876	841.2
597.072	1082.86
597.269	1043.95
597.466	1064.43
597.662	1146.35
597.859	1138.16
598.055	1168.88
598.252	1181.17
598.448	1179.12
598.645	1347.05
598.841	1371.63
599.038	1398.25
599.234	1512.94
599.431	1502.7
599.627	1596.9
599.824	1631.72
600.02	1703.4
600.217	1693.16
600.413	1773.03
600.609	1977.83
600.806	2178.53
601.002	2067.94
601.198	1977.83
601.395	2188.77
601.591	2289.12
601.787	2354.65
601.984	2403.8
602.18	2528.73
602.376	2586.07
602.572	2858.45
602.769	2844.12
602.965	2778.58
603.161	2989.52
603.357	3161.55
603.553	3247.57
603.75	3251.66
603.946	3448.27
604.142	3503.56
604.338	3790.28
604.534	3667.4
604.73	3960.26
604.926	3923.4
605.122	4150.72
605.318	4130.24
605.514	4474.3
605.71	4445.63
605.906	4752.82
606.102	4787.64
606.298	5166.51
606.494	5146.03
606.69	5395.89
606.886	5322.16
607.082	5465.52
607.278	5860.77
607.474	6010.28
607.67	6008.23
607.866	5952.93
608.062	6532.51
608.257	6516.12
608.453	6647.19
608.649	7013.78
608.845	6993.3
609.041	7159.19
609.236	7474.57
609.432	7746.95
609.628	7873.93
609.824	8269.19
610.019	8277.38
610.215	8516.99
610.411	8928.63
610.606	9067.89
610.802	9203.06
610.998	9381.23
611.193	9747.82
611.389	9756.01
611.584	10274.15
611.78	10437.98
611.976	11009.37
612.171	11148.63
612.367	11382.1
612.562	11656.53
612.758	11859.28
612.953	11920.71
613.149	12672.32
613.344	12862.78
613.539	13229.37
613.735	13653.3
613.93	14001.45
614.126	14204.2
614.321	14519.59
614.517	14886.17
614.712	15437.08
614.907	15641.87
615.103	15893.77
615.298	16542.98
615.493	17358.07
615.688	17566.96
615.884	18283.75
616.079	17960.17
616.274	18908.38
616.47	19494.1
616.665	19975.38
616.86	20292.81
617.055	20600.01
617.25	21013.7
617.445	22219.95
617.641	22287.53
617.836	23094.43
618.031	23211.17
618.226	24089.74
618.421	24556.68
618.616	25519.23
618.811	25484.41
619.006	26492.01
619.201	26748.01
619.396	27530.33
619.591	27569.24
619.786	28836.94
619.981	29133.89
620.176	29996.09
620.371	30161.97
620.566	31140.9
620.761	31587.36
620.956	32117.78
621.151	32887.82
621.346	33438.72
621.541	34046.97
621.735	35007.47
621.93	35238.89
622.125	36289.49
622.32	36338.65
622.515	37286.86
622.709	38208.44
622.904	38990.77
623.099	39269.29
623.294	39971.74
623.488	40614.8
623.683	41505.67
623.878	41767.81
624.072	42630.01
624.267	43799.4
624.462	44137.31
624.656	44460.89
624.851	45155.15
625.046	46236.48
625.24	46199.62
625.435	46719.8
625.629	47782.69
625.824	48362.27
626.018	48964.37
626.213	49005.33
626.407	50123.52
626.602	50504.45
626.796	51411.7
626.991	51608.3
627.185	51438.32
627.38	52206.31
627.574	52599.52
627.768	52828.89
627.963	53392.08
628.157	52890.33
628.352	53947.08
628.546	52759.26
628.74	54280.9
628.935	53537.49
629.129	53686.99
629.323	53328.59
629.517	53179.09
629.712	52923.1
629.906	52638.43
630.1	51905.26
630.294	51735.27
630.489	50942.71
630.683	50717.43
630.877	49183.51
631.071	48784.15
631.265	48546.59
631.459	47186.74
631.653	46412.6
631.848	45790.02
632.042	44469.08
632.236	43623.27
632.43	42494.84
632.624	41730.95
632.818	39760.8
633.012	38910.89
633.206	37487.56
633.4	36938.7
633.594	35374.05
633.788	34382.84
633.982	33238.02
634.176	31788.06
634.369	30839.85
634.563	29387.84
634.757	28306.51
634.951	27626.59
635.145	26442.86
635.339	25672.82
635.533	24536.2
635.726	23813.27
635.92	22234.28
636.114	21689.53
636.308	20679.88
636.501	19954.9
636.695	19197.15
636.889	18365.67
637.083	17526
637.276	16956.67
637.47	16174.35
637.664	15699.22
637.857	14818.59
638.051	14478.63
638.244	13712.69
638.438	13057.34
638.632	12682.56
638.825	12088.65
639.019	11679.05
639.212	11222.36
639.406	10806.62
639.599	10229.09
639.793	10093.93
639.986	9581.93
640.18	9346.42
640.373	8938.87
640.567	8494.46
640.76	8283.52
640.954	7787.91
641.147	7406.99
641.34	7204.24
641.534	7085.46
641.727	6755.74
641.92	6641.05
642.114	6239.65
642.307	5997.99
642.5	5924.26
642.694	5635.5
642.887	5393.84
643.08	5215.66
643.273	5100.98
643.467	4670.9
643.66	4666.81
643.853	4369.85
644.046	4251.07
644.239	3980.74
644.432	3876.29
644.626	3800.52
644.819	3646.92
645.012	3427.79
645.205	3364.3
645.398	3470.8
645.591	3050.96
645.784	2928.08
645.977	2903.51
646.17	2801.11
646.363	2715.09
646.556	2586.07
646.749	2457.05
646.942	2340.32
647.135	2379.23
647.328	2088.42
647.521	2074.08
647.714	2012.64
647.907	2069.98
648.099	1910.24
648.292	1879.52
648.485	1816.04
648.678	1670.63
648.871	1582.57
649.064	1543.66
649.256	1488.36
649.449	1488.36
649.642	1318.38
649.835	1318.38
650.027	1312.24
650.22	1349.1
650.413	1207.79
650.605	1140.21
650.798	1076.72
650.991	1119.73
651.183	1029.62
651.376	1089.01
651.568	1062.38
651.761	1005.04
651.954	953.84
652.146	927.22
652.339	941.55
652.531	937.46
652.724	771.57
652.916	849.4
653.109	540.15
653.301	824.82
653.494	747
653.686	601.59
653.879	769.52
654.071	763.38
654.263	601.59
654.456	593.4
654.648	761.33
654.84	660.98
655.033	564.73
655.225	579.06
655.417	470.52
655.61	628.21
655.802	564.73
655.994	638.45
656.186	441.85
656.379	644.6
656.571	482.81
656.763	450.04
656.955	400.89
657.148	423.42
657.34	456.19
657.532	376.31
657.724	396.79
657.916	439.8
658.108	486.9
658.3	409.08
658.492	411.13
658.684	296.44
658.876	413.18
659.068	253.44
659.26	292.35
659.452	292.35
659.644	304.64
659.836	462.33
660.028	321.02
660.22	306.68
660.412	339.45
660.604	316.92
660.796	290.3
660.988	394.75
661.18	294.4
661.372	384.51
661.563	316.92
661.755	278.01
661.947	247.29
662.139	232.96
662.331	263.68
662.522	241.15
662.714	222.72
662.906	196.09
663.097	142.85
663.289	157.18
663.481	99.84
663.673	228.86
663.864	181.76
664.056	267.77
664.247	130.56
664.439	318.97
664.631	232.96
664.822	314.88
665.014	179.71
665.205	175.61
665.397	151.04
665.588	214.52
665.78	245.24
665.971	200.19
666.163	216.57
666.354	286.2
666.546	58.88
666.737	114.17
666.929	157.18
667.12	126.46
667.311	198.14
667.503	187.9
667.694	194.05
667.885	192
668.077	222.72
668.268	60.93
668.459	120.32
668.651	202.24
668.842	200.19
669.033	99.84
669.224	83.45
669.416	364.03
669.607	95.74
669.798	67.07
669.989	300.54
670.18	214.52
670.371	220.67
670.563	140.8
670.754	241.15
670.945	206.33
671.136	151.04
671.327	140.8
671.518	245.24
671.709	302.59
671.9	177.66
672.091	206.33
672.282	163.33
672.473	153.09
672.664	58.88
672.855	99.84
673.046	185.85
673.237	232.96
673.428	226.81
673.619	273.92
673.809	208.38
674	216.57
674.191	245.24
674.382	151.04
674.573	159.23
674.764	177.66
674.954	173.57
675.145	136.7
675.336	177.66
675.527	167.42
675.717	118.27
675.908	130.56
676.099	140.8
676.289	142.85
676.48	42.5
676.671	257.53
676.861	146.94
677.052	212.48
677.243	140.8
677.433	114.17
677.624	284.16
677.814	151.04
678.005	216.57
678.195	294.4
678.386	9.73
678.576	120.32
678.767	69.12
678.957	202.24
679.148	245.24
679.338	247.29
679.529	210.43
679.719	138.75
679.909	263.68
680.1	364.03
680.29	212.48
680.481	101.89
680.671	278.01
680.861	232.96
681.052	235
681.242	179.71
681.432	280.06
681.622	224.76
681.813	144.89
682.003	302.59
682.193	187.9
682.383	216.57
682.573	146.94
682.764	175.61
682.954	263.68
683.144	361.98
683.334	232.96
683.524	210.43
683.714	284.16
683.904	323.07
684.094	230.91
684.284	329.21
684.474	351.74
684.664	364.03
684.854	261.63
685.044	265.72
685.234	212.48
685.424	194.05
685.614	204.28
685.804	327.16
685.994	271.87
686.184	212.48
686.374	327.16
686.564	210.43
686.753	294.4
686.943	146.94
687.133	230.91
687.323	237.05
687.513	243.2
687.702	292.35
687.892	183.81
688.082	308.73
688.272	265.72
688.461	265.72
688.651	353.79
688.841	237.05
689.03	232.96
689.22	157.18
689.41	204.28
689.599	284.16
689.789	38.4
689.979	329.21
690.168	278.01
690.358	255.48
690.547	257.53
690.737	235
690.926	245.24
691.116	249.34
691.305	228.86
691.495	257.53
691.684	153.09
691.874	298.49
692.063	175.61
692.252	200.19
692.442	380.41
692.631	132.61
692.82	263.68
693.01	249.34
693.199	163.33
693.388	312.83
693.578	339.45
693.767	263.68
693.956	239.1
694.146	204.28
694.335	337.4
694.524	245.24
694.713	239.1
694.902	232.96
695.092	140.8
695.281	318.97
695.47	232.96
695.659	167.42
695.848	206.33
696.037	159.23
696.226	271.87
696.415	196.09
696.604	349.69
696.793	245.24
696.982	206.33
697.171	251.39
697.36	157.18
697.549	198.14
697.738	173.57
697.927	169.47
698.116	253.44
698.305	269.82
698.494	218.62
698.683	224.76
698.872	361.98
699.061	226.81
699.25	255.48
699.438	224.76
699.627	73.21
699.816	275.96
700.005	132.61
700.193	232.96
700.382	251.39
700.571	218.62
700.76	273.92
700.948	257.53
701.137	286.2
701.326	251.39
701.514	153.09
701.703	230.91
701.892	259.58
702.08	366.07
702.269	222.72
702.457	251.39
702.646	177.66
702.834	206.33
703.023	306.68
703.212	296.44
703.4	210.43
703.589	202.24
703.777	189.95
703.965	142.85
704.154	206.33
704.342	116.22
704.531	196.09
704.719	134.65
704.907	321.02
705.096	189.95
705.284	93.69
705.472	255.48
705.661	257.53
705.849	271.87
706.037	269.82
706.226	189.95
706.414	237.05
706.602	110.08
706.79	298.49
706.979	171.52
707.167	232.96
707.355	175.61
707.543	302.59
707.731	210.43
707.919	167.42
708.107	196.09
708.296	196.09
708.484	224.76
708.672	235
708.86	187.9
709.048	216.57
709.236	93.69
709.424	230.91
709.612	237.05
709.8	116.22
709.988	239.1
710.176	286.2
710.364	298.49
710.551	251.39
710.739	194.05
710.927	128.51
711.115	230.91
711.303	206.33
711.491	282.11
711.679	148.99
711.866	261.63
712.054	273.92
712.242	280.06
712.43	261.63
712.617	173.57
712.805	294.4
712.993	214.52
713.181	124.41
713.368	216.57
713.556	235
713.744	206.33
713.931	400.89
714.119	284.16
714.306	151.04
714.494	267.77
714.682	214.52
714.869	151.04
715.057	267.77
715.244	118.27
715.432	312.83
715.619	148.99
715.807	224.76
715.994	103.93
716.182	267.77
716.369	216.57
716.556	306.68
716.744	99.84
716.931	214.52
717.119	310.78
717.306	255.48
717.493	298.49
717.681	216.57
717.868	173.57
718.055	333.31
718.242	206.33
718.43	296.44
718.617	310.78
718.804	165.37
718.991	339.45
719.179	265.72
719.366	251.39
719.553	302.59
719.74	214.52
719.927	220.67
720.114	249.34
720.301	179.71
720.488	189.95
720.676	202.24
720.863	355.83
721.05	341.5
721.237	294.4
721.424	237.05
721.611	302.59
721.798	95.74
721.985	216.57
722.172	259.58
722.358	222.72
722.545	318.97
722.732	179.71
722.919	267.77
723.106	235
723.293	265.72
723.48	286.2
723.667	298.49
723.853	228.86
724.04	245.24
724.227	275.96
724.414	230.91
724.6	296.44
724.787	321.02
724.974	415.23
725.161	204.28
725.347	187.9
725.534	343.55
725.72	257.53
725.907	349.69
726.094	239.1
726.28	187.9
726.467	247.29
726.653	130.56
726.84	280.06
727.027	333.31
727.213	175.61
727.4	325.12
727.586	296.44
727.773	302.59
727.959	308.73
728.145	200.19
728.332	249.34
728.518	183.81
728.705	329.21
728.891	280.06
729.077	271.87
729.264	161.28
729.45	304.64
729.636	380.41
729.823	249.34
730.009	318.97
730.195	314.88
730.382	220.67
730.568	192
730.754	278.01
730.94	251.39
731.126	245.24
731.313	366.07
731.499	318.97
731.685	263.68
731.871	273.92
732.057	304.64
732.243	370.17
732.429	304.64
732.615	378.36
732.801	407.03
732.987	359.93
733.173	239.1
733.359	212.48
733.545	380.41
733.731	265.72
733.917	359.93
734.103	249.34
734.289	292.35
734.475	230.91
734.661	497.14
734.847	251.39
735.033	284.16
735.219	357.88
735.404	312.83
735.59	278.01
735.776	204.28
735.962	286.2
736.148	347.64
736.333	286.2
736.519	255.48
736.705	259.58
736.89	304.64
737.076	294.4
737.262	222.72
737.447	232.96
737.633	261.63
737.819	413.18
738.004	275.96
738.19	339.45
738.375	337.4
738.561	314.88
738.747	333.31
738.932	253.44
739.118	396.79
739.303	316.92
739.489	302.59
739.674	192
739.859	220.67
740.045	296.44
740.23	267.77
740.416	138.75
740.601	210.43
740.786	247.29
740.972	245.24
741.157	259.58
741.342	161.28
741.528	224.76
741.713	325.12
741.898	298.49
742.084	300.54
742.269	273.92
742.454	359.93
742.639	359.93
742.824	302.59
743.01	355.83
743.195	411.13
743.38	282.11
743.565	294.4
743.75	273.92
743.935	331.26
744.12	421.37
744.305	280.06
744.49	151.04
744.675	304.64
744.86	267.77
745.045	216.57
745.23	241.15
745.415	222.72
745.6	388.6
745.785	280.06
745.97	337.4
746.155	327.16
746.34	294.4
746.525	298.49
746.71	400.89
746.895	136.7
747.079	200.19
747.264	300.54
747.449	296.44
747.634	347.64
747.819	302.59
748.003	214.52
748.188	177.66
748.373	273.92
748.557	286.2
748.742	267.77
748.927	271.87
749.111	194.05
749.296	269.82
749.481	249.34
749.665	241.15
749.85	206.33
750.034	224.76
750.219	214.52
750.404	189.95
750.588	239.1
750.773	241.15
750.957	153.09
751.141	192
751.326	318.97
751.51	148.99
751.695	204.28
751.879	122.37
752.064	327.16
752.248	144.89
752.432	304.64
752.617	327.16
752.801	302.59
752.985	222.72
753.17	353.79
753.354	243.2
753.538	218.62
753.722	241.15
753.907	173.57
754.091	67.07
754.275	189.95
754.459	83.45
754.643	122.37
754.828	263.68
755.012	187.9
755.196	124.41
755.38	269.82
755.564	208.38
755.748	165.37
755.932	204.28
756.116	232.96
756.3	169.47
756.484	175.61
756.668	138.75
756.852	159.23
757.036	204.28
757.22	128.51
757.404	140.8
757.588	134.65
757.772	130.56
757.956	175.61
758.14	300.54
758.323	126.46
758.507	175.61
758.691	175.61
758.875	226.81
759.059	222.72
759.242	124.41
759.426	237.05
759.61	196.09
759.794	105.98
759.977	206.33
760.161	327.16
760.345	284.16
760.528	222.72
760.712	171.52
760.895	200.19
761.079	146.94
761.263	120.32
761.446	79.36
761.63	103.93
761.813	208.38
761.997	110.08
762.18	138.75
762.364	114.17
762.547	50.69
762.731	67.07
762.914	105.98
763.098	67.07
763.281	208.38
763.464	110.08
763.648	210.43
763.831	144.89
764.015	87.55
764.198	163.33
764.381	85.5
764.564	183.81
764.748	124.41
764.931	118.27
765.114	108.03
765.297	249.34
765.481	26.11
765.664	73.21
765.847	136.7
766.03	230.91
766.213	24.06
766.397	69.12
766.58	110.08
766.763	142.85
766.946	44.54
767.129	151.04
767.312	112.13
767.495	144.89
767.678	83.45
767.861	120.32
768.044	99.84
768.227	11.78
768.41	130.56
768.593	24.06
768.776	118.27
768.959	153.09
769.142	216.57
769.324	99.84
769.507	5.63
769.69	62.98
769.873	24.06
770.056	310.78
770.239	28.16
770.421	192
770.604	69.12
770.787	110.08
770.97	73.21
771.152	50.69
771.335	108.03
771.518	44.54
771.7	134.65
771.883	189.95
772.066	34.3
772.248	99.84
772.431	130.56
772.613	65.02
772.796	83.45
772.978	130.56
773.161	237.05
773.343	75.26
773.526	161.28
773.708	34.3
773.891	-10.75
774.073	81.41
774.256	69.12
774.438	237.05
774.621	38.4
774.803	110.08
774.985	116.22
775.168	151.04
775.35	-27.14
775.532	144.89
775.715	-45.57
775.897	169.47
776.079	65.02
776.261	167.42
776.444	132.61
776.626	50.69
776.808	56.83
776.99	-39.42
777.173	62.98
777.355	138.75
777.537	75.26
777.719	87.55
777.901	-2.56
778.083	32.26
778.265	56.83
778.447	167.42
778.629	77.31
778.811	48.64
778.993	187.9
779.175	179.71
779.357	157.18
779.539	9.73
779.721	11.78
779.903	108.03
780.085	99.84
780.267	60.93
780.449	120.32
780.631	112.13
780.812	112.13
780.994	50.69
781.176	-23.04
781.358	-10.75
781.54	-59.9
781.721	34.3
781.903	126.46
782.085	7.68
782.267	124.41
782.448	-37.38
782.63	-14.85
782.812	79.36
782.993	83.45
783.175	120.32
783.357	48.64
783.538	183.81
783.72	77.31
783.901	40.45
784.083	112.13
784.264	155.13
784.446	-78.33
784.627	19.97
784.809	42.5
784.99	7.68
785.172	112.13
785.353	50.69
785.535	173.57
785.716	40.45
785.897	-64
786.079	44.54
786.26	77.31
786.441	175.61
786.623	-76.29
786.804	15.87
786.985	54.78
787.167	75.26
787.348	38.4
787.529	40.45
787.71	140.8
787.891	97.79
788.073	3.58
788.254	-107.01
788.435	208.38
788.616	44.54
788.797	-2.56
788.978	15.87
789.159	34.3
789.34	99.84
789.522	58.88
789.703	7.68
789.884	46.59
790.065	36.35
790.246	185.85
790.427	-23.04
790.607	128.51
790.788	81.41
790.969	-27.14
791.15	69.12
791.331	11.78
791.512	-45.57
791.693	-18.94
791.874	-14.85
792.054	122.37
792.235	159.23
792.416	-70.14
792.597	-39.42
792.778	87.55
792.958	105.98
793.139	67.07
793.32	13.82
793.5	-109.05
793.681	46.59
793.862	146.94
794.042	-0.51
794.223	-55.81
794.404	-23.04
794.584	-84.48
794.765	-6.66
794.945	22.02
795.126	46.59
795.306	79.36
795.487	-6.66
795.667	-41.47
795.848	26.11
796.028	48.64
796.209	1.54
796.389	36.35
796.57	67.07
796.75	-27.14
796.93	-14.85
797.111	-10.75
797.291	9.73
797.471	50.69
797.652	-18.94
797.832	26.11
798.012	58.88
798.192	15.87
798.373	-14.85
798.553	13.82
798.733	17.92
798.913	-27.14
799.093	-74.24
799.274	5.63
799.454	91.65
799.634	132.61
799.814	108.03
799.994	-12.8
800.174	48.64
800.354	48.64
800.534	-88.57
800.714	83.45
800.894	-0.51
801.074	-72.19
801.254	-72.19
801.434	130.56
801.614	11.78
801.794	-104.96
801.974	1887.72
802.154	-2.56
802.334	136.7
802.514	-14.85
802.693	46.59
802.873	-14.85
803.053	132.61
803.233	9.73
803.413	-37.38
803.592	-129.53
803.772	-8.7
803.952	24.06
804.131	-12.8
804.311	22.02
804.491	34.3
804.67	-86.53
804.85	-39.42
805.03	22.02
805.209	124.41
805.389	62.98
805.568	15.87
805.748	-66.05
805.928	11.78
806.107	56.83
806.287	85.5
806.466	30.21
806.646	-25.09
806.825	-51.71
807.004	19.97
807.184	28.16
807.363	-2.56
807.543	65.02
807.722	-18.94
807.901	148.99
808.081	19.97
808.26	-102.91
808.439	28.16
808.619	-12.8
808.798	-27.14
808.977	-20.99
809.156	69.12
809.336	11.78
809.515	99.84
809.694	3.58
809.873	-53.76
810.052	97.79
810.231	83.45
810.411	15.87
810.59	101.89
810.769	1.54
810.948	155.13
811.127	-137.73
811.306	7.68
811.485	-14.85
811.664	128.51
811.843	-39.42
812.022	-2.56
812.201	19.97
812.38	17.92
812.559	-20.99
812.737	7.68
812.916	-98.81
813.095	-45.57
813.274	26.11
813.453	32.26
813.632	44.54
813.811	48.64
813.989	-119.29
814.168	110.08
814.347	-25.09
814.526	-29.18
814.704	122.37
814.883	159.23
815.062	3.58
815.24	77.31
815.419	-2.56
815.598	77.31
815.776	-39.42
815.955	-29.18
816.133	-74.24
816.312	7.68
816.49	-31.23
816.669	15.87
816.847	9.73
817.026	17.92
817.204	40.45
817.383	-41.47
817.561	-51.71
817.74	-14.85
817.918	-0.51
818.097	-23.04
818.275	-98.81
818.453	108.03
818.632	110.08
818.81	-33.28
818.988	-12.8
819.167	67.07
819.345	13.82
819.523	-96.77
819.701	-29.18
819.879	-18.94
820.058	-61.95
820.236	-8.7
820.414	83.45
820.592	-12.8
820.77	32.26
820.948	-20.99
821.127	-29.18
821.305	103.93
821.483	-102.91
821.661	62.98
821.839	7.68
822.017	-90.62
822.195	-20.99
822.373	81.41
822.551	1.54
822.729	-18.94
822.907	-23.04
823.085	62.98
823.262	22.02
823.44	-27.14
823.618	9.73
823.796	-0.51
823.974	-25.09
824.152	-41.47
824.329	46.59
824.507	-23.04
824.685	-14.85
824.863	-51.71
825.04	11.78
825.218	101.89
825.396	32.26
825.574	32.26
825.751	-16.9
825.929	128.51
826.107	-74.24
826.284	36.35
826.462	56.83
826.639	-23.04
826.817	-94.72
826.994	-6.66
827.172	-59.9
827.349	116.22
827.527	-74.24
827.704	13.82
827.882	97.79
828.059	-16.9
828.237	-109.05
828.414	26.11
828.591	-53.76
828.769	62.98
828.946	-78.33
829.124	38.4
829.301	93.69
829.478	-23.04
829.655	65.02
829.833	-29.18
830.01	-66.05
830.187	52.74
830.364	-23.04
830.542	7.68
830.719	114.17
830.896	54.78
831.073	-10.75
831.25	-14.85
831.427	114.17
831.604	130.56
831.782	-25.09
831.959	40.45
832.136	-39.42
832.313	-0.51
832.49	-25.09
832.667	73.21
832.844	7.68
833.021	67.07
833.198	19.97
833.374	26.11
833.551	-33.28
833.728	-20.99
833.905	140.8
834.082	-131.58
834.259	56.83
834.436	67.07
834.612	-123.39
834.789	44.54
834.966	-2.56
835.143	36.35
835.319	-74.24
835.496	-8.7
835.673	22.02
835.85	136.7
836.026	11.78
836.203	26.11
836.38	-20.99
836.556	-0.51
836.733	-80.38
836.909	161.28
837.086	-41.47
837.262	-45.57
837.439	-37.38
837.616	-55.81
837.792	69.12
837.968	-10.75
838.145	-72.19
838.321	-0.51
838.498	50.69
838.674	81.41
838.851	32.26
839.027	-55.81
839.203	28.16
839.38	-8.7
839.556	-8.7
839.732	77.31
839.909	-41.47
840.085	17.92
840.261	-49.66
840.437	-41.47
840.614	-68.09
840.79	46.59
840.966	13.82
841.142	42.5
841.318	62.98
841.494	99.84
841.671	157.18
841.847	7.68
842.023	5.63
842.199	11.78
842.375	85.5
842.551	-53.76
842.727	-10.75
842.903	130.56
843.079	-154.11
843.255	73.21
843.431	-10.75
843.607	28.16
843.783	-133.63
843.959	-8.7
844.134	-49.66
844.31	83.45
844.486	-6.66
844.662	13.82
844.838	5.63
845.013	44.54
845.189	65.02
845.365	-53.76
845.541	42.5
845.716	-37.38
845.892	81.41
846.068	-12.8
846.244	-14.85
846.419	67.07
846.595	-72.19
846.77	-66.05
846.946	11.78
847.122	28.16
847.297	-45.57
847.473	114.17
847.648	-74.24
847.824	32.26
847.999	-86.53
848.175	-35.33
848.35	97.79
848.526	44.54
848.701	99.84
848.876	67.07
849.052	122.37
849.227	-0.51
849.403	60.93
849.578	-23.04
849.753	40.45
849.929	-25.09
850.104	-109.05
850.279	26.11
850.454	54.78
850.63	32.26
850.805	7.68
850.98	50.69
851.155	11.78
851.33	46.59
851.505	-68.09
851.681	87.55
851.856	-37.38
852.031	-39.42
852.206	62.98
852.381	-23.04
852.556	-104.96
852.731	56.83
852.906	46.59
853.081	60.93
853.256	83.45
853.431	-0.51
853.606	-41.47
853.781	-49.66
853.956	-80.38
854.131	-43.52
854.305	-49.66
854.48	-27.14
854.655	-33.28
854.83	-82.43
855.005	-70.14
855.18	-57.86
855.354	-41.47
855.529	52.74
855.704	-27.14
855.879	-10.75
856.053	7.68
856.228	28.16
856.403	-72.19
856.577	5.63
856.752	-104.96
856.926	3.58
857.101	-57.86
857.276	-59.9
857.45	-14.85
857.625	28.16
857.799	32.26
857.974	11.78
858.148	-90.62
858.323	36.35
858.497	-18.94
858.672	-72.19
858.846	26.11
859.02	50.69
859.195	-88.57
859.369	44.54
859.543	-31.23
859.718	3.58
859.892	79.36
860.066	65.02
860.241	-18.94
860.415	-31.23
860.589	7.68
860.763	28.16
860.938	54.78
861.112	30.21
861.286	-25.09
861.46	1.54
861.634	-84.48
861.808	42.5
861.982	-51.71
862.157	-115.2
862.331	-29.18
862.505	-121.34
862.679	-133.63
862.853	-37.38
863.027	-35.33
863.201	163.33
863.375	-39.42
863.549	-14.85
863.722	-20.99
863.896	60.93
864.07	-88.57
864.244	-68.09
864.418	-16.9
864.592	-66.05
864.766	-20.99
864.939	-39.42
865.113	-41.47
865.287	52.74
865.461	-113.15
865.634	91.65
865.808	-12.8
865.982	-6.66
866.156	-68.09
866.329	-111.1
866.503	-27.14
866.676	56.83
866.85	56.83
867.024	40.45
867.197	7.68
867.371	48.64
867.544	32.26
867.718	-43.52
867.891	75.26
868.065	-37.38
868.238	44.54
868.412	151.04
868.585	30.21
868.759	7.68
868.932	-90.62
869.105	-59.9
869.279	-49.66
869.452	-47.62
869.625	17.92
869.799	-39.42
869.972	-109.05
870.145	-49.66
870.319	99.84
870.492	-39.42
870.665	-6.66
870.838	-94.72
871.011	-154.11
871.185	22.02
871.358	-49.66
871.531	52.74
871.704	-29.18
871.877	42.5
872.05	-12.8
872.223	-141.82
872.396	32.26
872.569	-29.18
872.742	-107.01
872.915	-59.9
873.088	-18.94
873.261	-80.38
873.434	19.97
873.607	-6.66
873.78	118.27
873.953	-113.15
874.126	40.45
874.299	44.54
874.471	1.54
874.644	-29.18
874.817	28.16
874.99	126.46
875.163	-66.05
875.335	40.45
875.508	-47.62
875.681	1.54
875.853	-8.7
876.026	-37.38
876.199	30.21
876.371	-6.66
876.544	11.78
876.717	-23.04
876.889	-10.75
877.062	42.5
877.234	-53.76
877.407	-55.81
877.579	-0.51
877.752	77.31
877.924	75.26
878.097	-0.51
878.269	19.97
878.442	-94.72
878.614	-23.04
878.786	42.5
878.959	62.98
879.131	83.45
879.303	-139.77
879.476	38.4
879.648	77.31
879.82	71.17
879.993	-0.51
880.165	-78.33
880.337	-4.61
880.509	32.26
880.681	-74.24
880.854	-82.43
881.026	85.5
881.198	189.95
881.37	-41.47
881.542	11.78
881.714	-14.85
881.886	-80.38
882.058	-27.14
882.23	-12.8
882.402	-72.19
882.574	-16.9
882.746	38.4
882.918	85.5
883.09	62.98
883.262	-10.75
883.434	120.32
883.606	-84.48
883.778	-12.8
883.95	101.89
884.122	-84.48
884.293	46.59
884.465	7.68
884.637	42.5
884.809	-61.95
884.98	-2.56
885.152	-6.66
885.324	62.98
885.496	-78.33
885.667	-2.56
885.839	-12.8
886.011	34.3
886.182	-10.75
886.354	71.17
886.525	1.54
886.697	-6.66
886.869	-59.9
887.04	28.16
887.212	122.37
887.383	110.08
887.555	46.59
887.726	-27.14
887.897	-49.66
888.069	-18.94
888.24	30.21
888.412	75.26
888.583	19.97
888.754	-23.04
888.926	-102.91
889.097	3.58
889.268	-141.82
889.44	-20.99
889.611	-133.63
889.782	-61.95
889.953	-29.18
890.125	44.54
890.296	-107.01
890.467	-25.09
890.638	-70.14
890.809	-23.04
890.98	-94.72
891.151	-66.05
891.323	75.26
891.494	1.54
891.665	13.82
891.836	-25.09
892.007	56.83
892.178	11.78
892.349	56.83
892.52	-59.9
892.691	11.78
892.862	-66.05
893.032	-98.81
893.203	-70.14
893.374	32.26
893.545	28.16
893.716	-57.86
893.887	73.21
894.057	-4.61
894.228	-23.04
894.399	-66.05
894.57	91.65
894.74	32.26
894.911	-0.51
895.082	-16.9
895.253	-66.05
895.423	-57.86
895.594	73.21
895.764	46.59
895.935	-98.81
896.106	-10.75
896.276	34.3
896.447	15.87
896.617	-53.76
896.788	-86.53
896.958	44.54
897.129	-8.7
897.299	-104.96
897.47	134.65
897.64	13.82
897.81	13.82
897.981	40.45
898.151	-113.15
898.322	34.3
898.492	52.74
898.662	-51.71
898.832	-25.09
899.003	36.35
899.173	85.5
899.343	-35.33
899.513	-20.99
