Data from USB4F104151__287__11-21-04-829.txt Node

Date: Wed Feb 26 11:21:04 EST 2025
User: louis
Spectrometer: USB4F10415
Trigger mode: 4
Integration Time (sec): 1.000000E-1
Scans to average: 1
Electric dark correction enabled: true
Nonlinearity correction enabled: false
Boxcar width: 0
XAxis mode: Wavelengths
Number of Pixels in Spectrum: 3648
>>>>>Begin Spectral Data<<<<<
178.204	-402.08
178.424	-402.08
178.644	-402.08
178.864	-334.5
179.084	-385.7
179.304	23.89
179.524	-15.02
179.744	-17.07
179.964	-15.02
180.184	44.37
180.404	1.37
180.624	-78.51
180.844	-27.31
181.064	-92.84
181.283	11.61
181.503	64.85
181.723	99.67
181.943	-37.55
182.163	210.26
182.383	48.47
182.602	9.56
182.822	165.2
183.042	93.52
183.262	-27.31
183.482	5.46
183.701	120.15
183.921	25.94
184.141	-51.88
184.361	60.76
184.58	101.72
184.8	87.38
185.02	-51.88
185.239	107.86
185.459	99.67
185.679	122.2
185.898	-70.31
186.118	62.8
186.338	101.72
186.557	107.86
186.777	-29.35
186.997	13.65
187.216	13.65
187.436	197.97
187.655	77.14
187.875	42.32
188.095	36.18
188.314	177.49
188.534	142.68
188.753	-156.33
188.973	150.87
189.192	243.03
189.412	11.61
189.631	34.13
189.851	81.24
190.07	114
190.29	-72.36
190.509	-31.4
190.729	36.18
190.948	118.1
191.168	298.32
191.387	140.63
191.607	36.18
191.826	128.34
192.045	-23.21
192.265	48.47
192.484	173.39
192.704	107.86
192.923	-58.03
193.142	251.22
193.362	124.24
193.581	118.1
193.8	38.23
194.02	126.29
194.239	25.94
194.458	124.24
194.678	3.41
194.897	7.51
195.116	40.28
195.335	103.76
195.555	83.28
195.774	-8.87
195.993	103.76
196.212	85.33
196.432	66.9
196.651	38.23
196.87	-31.4
197.089	191.83
197.308	58.71
197.528	107.86
197.747	-74.41
197.966	171.35
198.185	132.44
198.404	-12.97
198.623	105.81
198.842	68.95
199.062	73.04
199.281	105.81
199.5	9.56
199.719	173.39
199.938	36.18
200.157	38.23
200.376	177.49
200.595	116.05
200.814	52.56
201.033	-47.79
201.252	216.4
201.471	89.43
201.69	56.66
201.909	36.18
202.128	44.37
202.347	75.09
202.566	95.57
202.785	-23.21
203.004	-88.75
203.223	183.63
203.442	7.51
203.661	-64.17
203.879	191.83
204.098	81.24
204.317	17.75
204.536	128.34
204.755	157.01
204.974	66.9
205.193	40.28
205.411	89.43
205.63	140.63
205.849	95.57
206.068	-2.73
206.287	9.56
206.505	126.29
206.724	9.56
206.943	15.7
207.162	-31.4
207.381	40.28
207.599	48.47
207.818	44.37
208.037	42.32
208.255	7.51
208.474	48.47
208.693	44.37
208.911	-53.93
209.13	79.19
209.349	130.39
209.567	116.05
209.786	105.81
210.005	142.68
210.223	75.09
210.442	1.37
210.661	7.51
210.879	17.75
211.098	25.94
211.316	3.41
211.535	77.14
211.753	79.19
211.972	116.05
212.191	81.24
212.409	17.75
212.628	91.48
212.846	-27.31
213.065	17.75
213.283	154.96
213.502	58.71
213.72	71
213.938	42.32
214.157	42.32
214.375	169.3
214.594	52.56
214.812	81.24
215.031	5.46
215.249	91.48
215.467	79.19
215.686	60.76
215.904	75.09
216.122	97.62
216.341	181.59
216.559	91.48
216.778	52.56
216.996	173.39
217.214	60.76
217.432	13.65
217.651	21.85
217.869	83.28
218.087	-25.26
218.306	1.37
218.524	75.09
218.742	17.75
218.96	95.57
219.179	71
219.397	42.32
219.615	245.07
219.833	132.44
220.051	19.8
220.27	103.76
220.488	75.09
220.706	97.62
220.924	48.47
221.142	27.99
221.36	79.19
221.578	120.15
221.796	52.56
222.015	75.09
222.233	71
222.451	152.92
222.669	-68.27
222.887	105.81
223.105	-0.68
223.323	48.47
223.541	58.71
223.759	5.46
223.977	85.33
224.195	191.83
224.413	114
224.631	21.85
224.849	27.99
225.067	306.51
225.285	-51.88
225.503	85.33
225.721	-76.46
225.939	56.66
226.157	40.28
226.375	218.45
226.592	38.23
226.81	42.32
227.028	167.25
227.246	161.11
227.464	99.67
227.682	54.61
227.9	66.9
228.117	11.61
228.335	140.63
228.553	-2.73
228.771	97.62
228.989	71
229.206	81.24
229.424	-8.87
229.642	75.09
229.86	-49.83
230.077	195.92
230.295	109.91
230.513	114
230.731	118.1
230.948	185.68
231.166	220.5
231.384	50.52
231.601	-37.55
231.819	144.72
232.037	-129.7
232.254	-45.74
232.472	-19.11
232.689	87.38
232.907	152.92
233.125	11.61
233.342	-49.83
233.56	-19.11
233.777	-6.83
233.995	7.51
234.213	173.39
234.43	116.05
234.648	30.04
234.865	36.18
235.083	54.61
235.3	58.71
235.518	87.38
235.735	163.15
235.953	52.56
236.17	50.52
236.388	-33.45
236.605	50.52
236.822	83.28
237.04	97.62
237.257	48.47
237.475	38.23
237.692	-6.83
237.909	75.09
238.127	42.32
238.344	-15.02
238.562	75.09
238.779	-39.59
238.996	38.23
239.214	97.62
239.431	93.52
239.648	-31.4
239.865	146.77
240.083	-6.83
240.3	19.8
240.517	58.71
240.735	48.47
240.952	114
241.169	54.61
241.386	71
241.603	38.23
241.821	-23.21
242.038	144.72
242.255	132.44
242.472	42.32
242.689	30.04
242.907	73.04
243.124	15.7
243.341	30.04
243.558	44.37
243.775	-45.74
243.992	-17.07
244.209	42.32
244.426	189.78
244.643	34.13
244.86	128.34
245.078	116.05
245.295	40.28
245.512	13.65
245.729	38.23
245.946	48.47
246.163	27.99
246.38	-25.26
246.597	130.39
246.814	66.9
247.031	89.43
247.248	50.52
247.464	99.67
247.681	73.04
247.898	87.38
248.115	66.9
248.332	-55.98
248.549	116.05
248.766	150.87
248.983	109.91
249.2	128.34
249.417	95.57
249.633	32.08
249.85	109.91
250.067	50.52
250.284	66.9
250.501	38.23
250.717	64.85
250.934	-49.83
251.151	44.37
251.368	32.08
251.585	40.28
251.801	85.33
252.018	-70.31
252.235	146.77
252.451	-19.11
252.668	62.8
252.885	128.34
253.102	62.8
253.318	116.05
253.535	97.62
253.752	38.23
253.968	-55.98
254.185	-12.97
254.401	32.08
254.618	130.39
254.835	-19.11
255.051	116.05
255.268	138.58
255.484	130.39
255.701	17.75
255.917	71
256.134	-2.73
256.351	46.42
256.567	-19.11
256.784	25.94
257	-53.93
257.217	99.67
257.433	38.23
257.65	38.23
257.866	152.92
258.082	-25.26
258.299	13.65
258.515	58.71
258.732	-4.78
258.948	13.65
259.165	66.9
259.381	-4.78
259.597	93.52
259.814	79.19
260.03	25.94
260.246	23.89
260.463	150.87
260.679	99.67
260.895	48.47
261.112	136.53
261.328	81.24
261.544	-31.4
261.761	175.44
261.977	-4.78
262.193	1.37
262.409	152.92
262.626	87.38
262.842	-0.68
263.058	17.75
263.274	132.44
263.49	68.95
263.707	62.8
263.923	152.92
264.139	-123.56
264.355	107.86
264.571	52.56
264.787	38.23
265.004	99.67
265.22	5.46
265.436	21.85
265.652	-35.5
265.868	68.95
266.084	50.52
266.3	87.38
266.516	32.08
266.732	54.61
266.948	25.94
267.164	44.37
267.38	146.77
267.596	97.62
267.812	167.25
268.028	-25.26
268.244	-47.79
268.46	52.56
268.676	-15.02
268.892	144.72
269.108	30.04
269.324	-21.16
269.54	5.46
269.756	109.91
269.972	-53.93
270.188	19.8
270.403	-84.65
270.619	118.1
270.835	50.52
271.051	73.04
271.267	-21.16
271.483	66.9
271.698	107.86
271.914	107.86
272.13	48.47
272.346	30.04
272.562	85.33
272.777	140.63
272.993	30.04
273.209	48.47
273.425	114
273.64	21.85
273.856	179.54
274.072	17.75
274.287	-74.41
274.503	159.06
274.719	116.05
274.934	99.67
275.15	-53.93
275.366	13.65
275.581	-78.51
275.797	50.52
276.012	48.47
276.228	-33.45
276.444	19.8
276.659	208.21
276.875	-43.69
277.09	60.76
277.306	56.66
277.521	75.09
277.737	-10.92
277.952	85.33
278.168	13.65
278.383	128.34
278.599	44.37
278.814	105.81
279.03	64.85
279.245	97.62
279.461	105.81
279.676	95.57
279.892	-58.03
280.107	-64.17
280.322	56.66
280.538	27.99
280.753	-8.87
280.969	42.32
281.184	48.47
281.399	181.59
281.615	25.94
281.83	87.38
282.045	-43.69
282.26	-12.97
282.476	-27.31
282.691	50.52
282.906	68.95
283.122	64.85
283.337	21.85
283.552	152.92
283.767	-29.35
283.983	122.2
284.198	58.71
284.413	30.04
284.628	-43.69
284.843	50.52
285.058	142.68
285.274	73.04
285.489	58.71
285.704	79.19
285.919	1.37
286.134	-47.79
286.349	-0.68
286.564	-17.07
286.779	173.39
286.995	13.65
287.21	-60.07
287.425	87.38
287.64	5.46
287.855	62.8
288.07	-135.85
288.285	40.28
288.5	171.35
288.715	130.39
288.93	34.13
289.145	-29.35
289.36	130.39
289.575	50.52
289.79	175.44
290.004	21.85
290.219	87.38
290.434	-23.21
290.649	-6.83
290.864	71
291.079	34.13
291.294	66.9
291.509	66.9
291.724	19.8
291.938	75.09
292.153	60.76
292.368	19.8
292.583	32.08
292.798	111.96
293.012	87.38
293.227	177.49
293.442	11.61
293.657	71
293.871	167.25
294.086	97.62
294.301	169.3
294.516	142.68
294.73	11.61
294.945	36.18
295.16	34.13
295.374	150.87
295.589	105.81
295.804	95.57
296.018	11.61
296.233	109.91
296.447	17.75
296.662	21.85
296.877	185.68
297.091	68.95
297.306	-10.92
297.52	15.7
297.735	114
297.949	42.32
298.164	38.23
298.378	118.1
298.593	-53.93
298.807	-6.83
299.022	103.76
299.236	138.58
299.451	5.46
299.665	68.95
299.88	27.99
300.094	118.1
300.309	93.52
300.523	114
300.737	25.94
300.952	101.72
301.166	118.1
301.381	75.09
301.595	34.13
301.809	114
302.024	-17.07
302.238	-51.88
302.452	144.72
302.667	25.94
302.881	183.63
303.095	126.29
303.309	163.15
303.524	-45.74
303.738	15.7
303.952	-43.69
304.166	111.96
304.381	-96.94
304.595	79.19
304.809	-2.73
305.023	93.52
305.237	71
305.452	68.95
305.666	105.81
305.88	52.56
306.094	165.2
306.308	85.33
306.522	120.15
306.736	68.95
306.95	109.91
307.164	5.46
307.379	60.76
307.593	197.97
307.807	150.87
308.021	126.29
308.235	91.48
308.449	-109.22
308.663	23.89
308.877	208.21
309.091	34.13
309.305	85.33
309.519	-156.33
309.733	152.92
309.947	5.46
310.161	89.43
310.374	118.1
310.588	93.52
310.802	-86.7
311.016	73.04
311.23	77.14
311.444	-37.55
311.658	54.61
311.872	148.82
312.085	140.63
312.299	181.59
312.513	161.11
312.727	89.43
312.941	25.94
313.154	87.38
313.368	66.9
313.582	114
313.796	66.9
314.009	-31.4
314.223	97.62
314.437	79.19
314.651	50.52
314.864	19.8
315.078	13.65
315.292	-55.98
315.505	77.14
315.719	107.86
315.933	85.33
316.146	-15.02
316.36	-72.36
316.573	140.63
316.787	157.01
317.001	58.71
317.214	-15.02
317.428	-15.02
317.641	5.46
317.855	44.37
318.068	159.06
318.282	81.24
318.495	148.82
318.709	161.11
318.922	46.42
319.136	87.38
319.349	103.76
319.563	56.66
319.776	79.19
319.99	-76.46
320.203	140.63
320.417	93.52
320.63	126.29
320.843	200.02
321.057	66.9
321.27	93.52
321.483	62.8
321.697	116.05
321.91	-4.78
322.124	107.86
322.337	95.57
322.55	-19.11
322.763	97.62
322.977	5.46
323.19	48.47
323.403	11.61
323.617	-23.21
323.83	181.59
324.043	23.89
324.256	107.86
324.469	-4.78
324.683	138.58
324.896	89.43
325.109	-4.78
325.322	-117.42
325.535	77.14
325.748	136.53
325.962	126.29
326.175	126.29
326.388	144.72
326.601	146.77
326.814	5.46
327.027	130.39
327.24	120.15
327.453	-76.46
327.666	9.56
327.879	228.69
328.092	97.62
328.305	111.96
328.518	-17.07
328.731	19.8
328.944	81.24
329.157	103.76
329.37	23.89
329.583	165.2
329.796	66.9
330.009	-23.21
330.222	116.05
330.435	34.13
330.648	27.99
330.861	1.37
331.073	13.65
331.286	105.81
331.499	34.13
331.712	-12.97
331.925	132.44
332.138	40.28
332.35	167.25
332.563	-43.69
332.776	163.15
332.989	-17.07
333.202	-2.73
333.414	13.65
333.627	34.13
333.84	71
334.053	62.8
334.265	-43.69
334.478	38.23
334.691	48.47
334.903	56.66
335.116	50.52
335.329	58.71
335.541	36.18
335.754	200.02
335.966	5.46
336.179	54.61
336.392	21.85
336.604	42.32
336.817	85.33
337.029	17.75
337.242	157.01
337.454	23.89
337.667	38.23
337.88	167.25
338.092	97.62
338.305	91.48
338.517	91.48
338.729	124.24
338.942	77.14
339.154	7.51
339.367	15.7
339.579	73.04
339.792	-60.07
340.004	56.66
340.217	34.13
340.429	101.72
340.641	52.56
340.854	-2.73
341.066	101.72
341.278	189.78
341.491	150.87
341.703	81.24
341.915	7.51
342.128	132.44
342.34	66.9
342.552	-27.31
342.764	64.85
342.977	144.72
343.189	52.56
343.401	75.09
343.613	3.41
343.826	44.37
344.038	-0.68
344.25	52.56
344.462	46.42
344.674	46.42
344.886	48.47
345.099	163.15
345.311	23.89
345.523	-76.46
345.735	-109.22
345.947	25.94
346.159	83.28
346.371	107.86
346.583	58.71
346.795	177.49
347.007	21.85
347.219	142.68
347.431	34.13
347.643	148.82
347.855	36.18
348.067	169.3
348.279	-84.65
348.491	97.62
348.703	138.58
348.915	17.75
349.127	13.65
349.339	-37.55
349.551	7.51
349.763	93.52
349.975	50.52
350.187	218.45
350.399	197.97
350.61	23.89
350.822	30.04
351.034	54.61
351.246	68.95
351.458	136.53
351.669	99.67
351.881	114
352.093	126.29
352.305	93.52
352.517	32.08
352.728	97.62
352.94	46.42
353.152	77.14
353.363	-10.92
353.575	83.28
353.787	118.1
353.999	99.67
354.21	195.92
354.422	83.28
354.633	85.33
354.845	-2.73
355.057	-51.88
355.268	42.32
355.48	128.34
355.692	-68.27
355.903	17.75
356.115	75.09
356.326	-23.21
356.538	173.39
356.749	71
356.961	150.87
357.172	36.18
357.384	-15.02
357.595	116.05
357.807	-51.88
358.018	21.85
358.23	44.37
358.441	150.87
358.653	93.52
358.864	52.56
359.075	17.75
359.287	81.24
359.498	87.38
359.709	60.76
359.921	13.65
360.132	79.19
360.344	30.04
360.555	54.61
360.766	89.43
360.977	79.19
361.189	89.43
361.4	50.52
361.611	109.91
361.823	114
362.034	118.1
362.245	-80.55
362.456	97.62
362.667	85.33
362.879	32.08
363.09	157.01
363.301	99.67
363.512	48.47
363.723	56.66
363.935	-29.35
364.146	206.16
364.357	58.71
364.568	95.57
364.779	-39.59
364.99	177.49
365.201	36.18
365.412	169.3
365.623	-86.7
365.834	54.61
366.045	50.52
366.256	68.95
366.467	152.92
366.678	97.62
366.889	66.9
367.1	30.04
367.311	62.8
367.522	-51.88
367.733	142.68
367.944	46.42
368.155	126.29
368.366	163.15
368.577	148.82
368.788	111.96
368.999	-8.87
369.209	103.76
369.42	208.21
369.631	259.41
369.842	85.33
370.053	13.65
370.264	103.76
370.474	-49.83
370.685	68.95
370.896	-33.45
371.107	163.15
371.317	89.43
371.528	60.76
371.739	126.29
371.95	146.77
372.16	185.68
372.371	-94.89
372.582	48.47
372.792	95.57
373.003	23.89
373.214	103.76
373.424	122.2
373.635	-45.74
373.846	138.58
374.056	62.8
374.267	62.8
374.477	54.61
374.688	62.8
374.898	64.85
375.109	75.09
375.319	132.44
375.53	87.38
375.74	144.72
375.951	68.95
376.161	107.86
376.372	169.3
376.582	58.71
376.793	132.44
377.003	3.41
377.214	-19.11
377.424	81.24
377.635	77.14
377.845	60.76
378.055	146.77
378.266	-58.03
378.476	48.47
378.686	30.04
378.897	27.99
379.107	89.43
379.317	21.85
379.528	140.63
379.738	68.95
379.948	1.37
380.158	159.06
380.369	30.04
380.579	58.71
380.789	40.28
380.999	146.77
381.21	122.2
381.42	118.1
381.63	-31.4
381.84	124.24
382.05	85.33
382.261	204.11
382.471	167.25
382.681	-62.12
382.891	195.92
383.101	32.08
383.311	27.99
383.521	-45.74
383.731	68.95
383.941	157.01
384.151	136.53
384.361	54.61
384.571	91.48
384.781	124.24
384.991	259.41
385.201	159.06
385.411	60.76
385.621	23.89
385.831	77.14
386.041	73.04
386.251	56.66
386.461	183.63
386.671	91.48
386.881	128.34
387.091	77.14
387.301	140.63
387.511	62.8
387.72	27.99
387.93	171.35
388.14	7.51
388.35	122.2
388.56	77.14
388.769	126.29
388.979	40.28
389.189	-45.74
389.399	79.19
389.609	138.58
389.818	75.09
390.028	97.62
390.238	97.62
390.447	66.9
390.657	46.42
390.867	32.08
391.076	50.52
391.286	40.28
391.496	62.8
391.705	66.9
391.915	177.49
392.125	152.92
392.334	83.28
392.544	167.25
392.753	150.87
392.963	97.62
393.172	68.95
393.382	-15.02
393.591	185.68
393.801	25.94
394.01	128.34
394.22	99.67
394.429	126.29
394.639	11.61
394.848	142.68
395.058	46.42
395.267	7.51
395.477	140.63
395.686	25.94
395.895	290.13
396.105	208.21
396.314	101.72
396.524	3.41
396.733	38.23
396.942	185.68
397.152	138.58
397.361	81.24
397.57	83.28
397.78	118.1
397.989	89.43
398.198	257.36
398.407	36.18
398.617	73.04
398.826	21.85
399.035	44.37
399.244	83.28
399.453	114
399.663	40.28
399.872	34.13
400.081	-6.83
400.29	249.17
400.499	71
400.708	99.67
400.917	54.61
401.127	111.96
401.336	17.75
401.545	181.59
401.754	140.63
401.963	107.86
402.172	3.41
402.381	23.89
402.59	21.85
402.799	95.57
403.008	75.09
403.217	27.99
403.426	150.87
403.635	-62.12
403.844	73.04
404.053	7.51
404.262	48.47
404.471	140.63
404.68	107.86
404.888	97.62
405.097	17.75
405.306	52.56
405.515	126.29
405.724	122.2
405.933	101.72
406.142	64.85
406.35	167.25
406.559	36.18
406.768	-23.21
406.977	228.69
407.185	85.33
407.394	167.25
407.603	-21.16
407.812	66.9
408.02	126.29
408.229	-6.83
408.438	105.81
408.646	1.37
408.855	30.04
409.064	68.95
409.272	34.13
409.481	101.72
409.69	15.7
409.898	-47.79
410.107	75.09
410.315	146.77
410.524	54.61
410.733	120.15
410.941	93.52
411.15	66.9
411.358	75.09
411.567	91.48
411.775	169.3
411.984	107.86
412.192	99.67
412.401	1.37
412.609	175.44
412.818	152.92
413.026	38.23
413.234	54.61
413.443	34.13
413.651	25.94
413.86	97.62
414.068	148.82
414.276	204.11
414.485	3.41
414.693	177.49
414.901	228.69
415.11	93.52
415.318	40.28
415.526	95.57
415.734	243.03
415.943	114
416.151	152.92
416.359	68.95
416.567	44.37
416.776	122.2
416.984	191.83
417.192	136.53
417.4	54.61
417.608	-23.21
417.817	-29.35
418.025	109.91
418.233	216.4
418.441	73.04
418.649	68.95
418.857	130.39
419.065	165.2
419.273	-39.59
419.481	54.61
419.689	9.56
419.897	77.14
420.105	-0.68
420.313	114
420.521	126.29
420.729	185.68
420.937	54.61
421.145	-70.31
421.353	173.39
421.561	154.96
421.769	99.67
421.977	-0.68
422.185	99.67
422.393	95.57
422.601	68.95
422.809	95.57
423.017	81.24
423.224	105.81
423.432	83.28
423.64	85.33
423.848	138.58
424.056	134.48
424.263	191.83
424.471	68.95
424.679	175.44
424.887	56.66
425.094	195.92
425.302	79.19
425.51	58.71
425.718	181.59
425.925	60.76
426.133	75.09
426.341	249.17
426.548	107.86
426.756	54.61
426.964	161.11
427.171	5.46
427.379	64.85
427.586	165.2
427.794	101.72
428.001	183.63
428.209	126.29
428.417	288.08
428.624	181.59
428.832	169.3
429.039	101.72
429.247	58.71
429.454	97.62
429.662	214.35
429.869	161.11
430.076	77.14
430.284	212.31
430.491	216.4
430.699	140.63
430.906	261.46
431.114	189.78
431.321	228.69
431.528	140.63
431.736	132.44
431.943	140.63
432.15	218.45
432.358	236.88
432.565	257.36
432.772	79.19
432.979	191.83
433.187	189.78
433.394	251.22
433.601	175.44
433.808	245.07
434.016	298.32
434.223	329.04
434.43	228.69
434.637	367.95
434.844	331.09
435.052	257.36
435.259	372.05
435.466	283.99
435.673	292.18
435.88	460.11
436.087	355.66
436.294	361.81
436.501	425.29
436.708	230.74
436.915	363.86
437.122	490.83
437.329	353.62
437.537	394.58
437.743	453.97
437.95	521.55
438.157	488.78
438.364	433.49
438.571	550.22
438.778	515.41
438.985	656.72
439.192	640.33
439.399	591.18
439.606	578.89
439.813	738.63
440.02	738.63
440.227	867.66
440.433	648.52
440.64	664.91
440.847	656.72
441.054	765.26
441.261	814.41
441.467	757.07
441.674	740.68
441.881	886.09
442.088	904.52
442.294	974.15
442.501	927.05
442.708	1027.4
442.914	972.1
443.121	1097.03
443.328	1135.94
443.534	1287.49
443.741	1072.45
443.948	1103.17
444.154	1183.04
444.361	1363.26
444.568	1230.15
444.774	1310.02
444.981	1258.82
445.187	1541.44
445.394	1432.9
445.6	1494.33
445.807	1615.16
446.013	1568.06
446.22	1668.41
446.426	1822.01
446.633	1858.87
446.839	2059.57
447.046	1834.3
447.252	2049.33
447.459	2026.81
447.665	2100.53
447.871	2250.03
448.078	2420.02
448.284	2268.47
448.491	2471.22
448.697	2575.66
448.903	2815.27
449.11	2678.06
449.316	2708.78
449.522	3003.69
449.728	2925.86
449.935	3073.32
450.141	3314.98
450.347	3458.34
450.553	3378.47
450.76	3480.86
450.966	3745.05
451.172	3878.17
451.378	3923.23
451.584	3996.95
451.791	4220.18
451.997	4209.94
452.203	4486.42
452.409	4783.37
452.615	4881.67
452.821	4748.56
453.027	4822.28
453.233	5405.95
453.44	5383.43
453.646	5620.99
453.852	5854.46
454.058	6063.35
454.264	6196.47
454.47	6487.28
454.676	6724.85
454.882	7269.61
455.088	6833.39
455.294	7288.04
455.5	7789.79
455.705	8305.88
455.911	8246.49
456.117	8541.4
456.323	8836.3
456.529	8686.8
456.735	9440.45
456.941	9839.81
457.147	10233.02
457.352	10366.14
457.558	10708.15
457.764	11537.57
457.97	11900.06
458.176	12006.56
458.381	12844.18
458.587	12864.66
458.793	13528.2
458.999	13407.37
459.204	15441
459.41	15912.03
459.616	15629.41
459.821	16628.82
460.027	17335.37
460.233	17970.24
460.438	18043.97
460.644	19369.01
460.85	19297.33
461.055	20218.91
461.261	20823.06
461.466	20675.61
461.672	20872.21
461.878	23309.3
462.083	23329.78
462.289	23759.85
462.494	24622.05
462.7	24878.04
462.905	25064.41
463.111	27362.23
463.316	28781.47
463.522	29244.31
463.727	29791.12
463.932	31378.29
464.138	32209.77
464.343	33663.83
464.549	33715.03
464.754	35769.14
464.959	36975.39
465.165	37155.61
465.37	37323.55
465.575	37554.97
465.781	39750.39
465.986	40938.21
466.191	40397.55
466.397	40538.86
466.602	39502.59
466.807	41847.51
467.012	42896.07
467.218	43983.54
467.423	43739.83
467.628	44864.17
467.833	47057.54
468.038	46211.73
468.244	45228.71
468.449	47813.24
468.654	46785.16
468.859	46774.92
469.064	46670.48
469.269	45839
469.474	46140.05
469.679	47446.66
469.885	45959.83
470.09	46924.43
470.295	46910.09
470.5	46019.22
470.705	46428.82
470.91	45056.68
471.115	44407.47
471.32	45437.6
471.525	45083.3
471.73	43561.66
471.935	43086.53
472.139	41949.91
472.344	41845.46
472.549	41560.8
472.754	40938.21
472.959	40258.29
473.164	38599.43
473.369	37886.74
473.574	39076.61
473.778	38537.99
473.983	37600.02
474.188	37581.59
474.393	35736.37
474.598	35109.69
474.802	34696
475.007	33885.01
475.212	33659.73
475.417	32383.85
475.621	32326.5
475.826	32226.15
476.031	31433.59
476.235	30649.22
476.44	30651.27
476.645	30100.36
476.849	29422.48
477.054	29107.1
477.259	28148.65
477.463	28289.96
477.668	27329.46
477.872	27571.12
478.077	26784.7
478.282	26037.19
478.486	25850.83
478.691	25482.19
478.895	25418.71
479.1	25031.64
479.304	25181.14
479.509	24316.9
479.713	24751.07
479.918	23890.92
480.122	23372.78
480.326	23608.3
480.531	23397.36
480.735	23202.8
480.94	22944.76
481.144	23602.16
481.348	22369.28
481.553	22789.11
481.757	21939.21
481.961	22121.48
482.166	22189.06
482.37	21990.41
482.574	21236.75
482.778	21294.1
482.983	21728.27
483.187	21230.61
483.391	21124.11
483.595	20923.41
483.8	20728.86
484.004	20626.46
484.208	20689.95
484.412	20220.96
484.616	19967.01
484.821	19942.44
485.025	19192.88
485.229	19473.45
485.433	18803.77
485.637	19084.34
485.841	18502.72
486.045	18312.25
486.249	18242.62
486.453	17992.77
486.657	17587.27
486.861	17431.63
487.065	16690.26
487.269	17050.71
487.473	16417.88
487.677	16342.11
487.881	16430.17
488.085	15977.57
488.289	15547.5
488.493	15117.42
488.697	15311.98
488.901	14607.48
489.105	14353.53
489.309	14427.26
489.512	14113.92
489.716	13950.08
489.92	13620.36
490.124	13300.87
490.328	13610.12
490.531	12856.47
490.735	12623
490.939	12692.63
491.143	12207.26
491.346	12076.19
491.55	11830.43
491.754	11529.38
491.958	11547.81
492.161	11279.53
492.365	11265.19
492.569	10878.13
492.772	10689.71
492.976	10855.6
493.18	10206.39
493.383	10536.12
493.587	10202.3
493.79	10319.03
493.994	9991.36
494.197	9958.59
494.401	9848
494.605	9657.54
494.808	9858.24
495.012	9618.63
495.215	9475.27
495.419	9372.87
495.622	9270.47
495.825	9280.71
496.029	9229.51
496.232	9450.69
496.436	9043.15
496.639	9223.37
496.843	9055.44
497.046	8930.51
497.249	9039.05
497.453	9084.11
497.656	9102.54
497.859	9092.3
498.063	9166.03
498.266	9057.48
498.469	9073.87
498.673	9155.79
498.876	9249.99
499.079	9061.58
499.282	9184.46
499.485	9544.9
499.689	9321.67
499.892	9374.92
500.095	9356.49
500.298	9581.76
500.501	9534.66
500.705	9708.74
500.908	9614.53
501.111	9776.32
501.314	9925.82
501.517	10306.74
501.72	10091.71
501.923	9823.42
502.126	10087.61
502.329	10362.04
502.532	10351.8
502.735	10421.43
502.938	10769.59
503.141	10566.84
503.344	10646.71
503.547	10929.33
503.75	11072.68
503.953	11232.43
504.156	11254.95
504.359	11492.52
504.562	11461.8
504.765	11748.51
504.968	11975.84
505.17	12401.82
505.373	12379.29
505.576	12643.48
505.779	12737.68
505.982	12844.18
506.185	13366.41
506.387	13360.27
506.59	13538.44
506.793	13782.15
506.996	14066.81
507.198	14406.78
507.401	14769.27
507.604	15043.7
507.807	15166.57
508.009	15459.43
508.212	15690.85
508.415	16063.58
508.617	16307.29
508.82	16458.84
509.022	16673.88
509.225	17349.71
509.428	17882.18
509.63	17427.53
509.833	18271.29
510.035	18803.77
510.238	18936.88
510.44	19446.83
510.643	19913.77
510.845	20499.48
511.048	20648.99
511.25	21060.63
511.453	21294.1
511.655	22672.38
511.858	22559.74
512.06	22957.05
512.262	23505.9
512.465	23714.8
512.667	24120.29
512.87	24865.75
513.072	25283.54
513.274	26321.86
513.477	26921.91
513.679	27208.63
513.881	28054.44
514.084	28617.63
514.286	28851.1
514.488	29481.88
514.69	30518.15
514.893	30784.38
515.095	31236.98
515.297	31976.3
515.499	32381.8
515.701	33149.79
515.904	34378.57
516.106	34954.05
516.308	35425.08
516.51	35988.27
516.712	36950.82
516.914	37487.39
517.116	38241.04
517.318	38783.75
517.52	39680.76
517.722	39883.51
517.925	40905.45
518.127	41661.15
518.329	42687.18
518.531	42408.65
518.733	43590.33
518.935	44198.58
519.136	44665.52
519.338	45392.54
519.54	45998.74
519.742	46699.15
519.944	47129.22
520.146	48450.16
520.348	49021.55
520.55	49650.27
520.752	50045.53
520.954	50858.57
521.155	50332.25
521.357	51886.65
521.559	52204.09
521.761	53199.4
521.963	53359.14
522.164	53692.96
522.366	53920.29
522.568	54479.38
522.77	55063.05
522.971	55757.31
523.173	55448.07
523.375	56009.21
523.576	55792.13
523.778	56533.49
523.98	56685.04
524.181	57098.73
524.383	57174.51
524.584	57289.2
524.786	57620.97
524.988	56943.09
525.189	57854.43
525.391	58282.46
525.592	58208.73
525.794	57809.38
525.995	57862.63
526.197	57674.21
526.398	57676.26
526.6	57534.95
526.801	57420.27
527.003	57375.21
527.204	56801.78
527.406	57035.25
527.607	57162.22
527.808	56697.33
528.01	55804.42
528.211	55693.83
528.412	56195.58
528.614	55570.95
528.815	55138.83
529.016	55495.17
529.218	53983.77
529.419	54057.5
529.62	53441.06
529.822	52996.65
530.023	52484.66
530.224	51960.38
530.425	51642.95
530.626	50674.26
530.828	50254.42
531.029	50956.88
531.23	49408.61
531.431	49044.07
531.632	48814.7
531.833	47821.44
532.035	47262.34
532.236	47037.06
532.437	46596.75
532.638	45621.92
532.839	45759.13
533.04	44956.33
533.241	43623.1
533.442	43920.06
533.643	43317.95
533.844	42627.79
534.045	41954.01
534.246	41118.43
534.447	40831.72
534.648	40356.59
534.849	39695.1
535.05	39082.75
535.251	38587.14
535.451	38288.14
535.652	37597.98
535.853	37096.22
536.054	37153.57
536.255	36127.53
536.456	35541.81
536.657	35625.78
536.857	34698.05
537.058	34374.47
537.259	34278.22
537.46	33438.55
537.66	32861.02
537.861	32713.57
538.062	32133.99
538.263	31648.63
538.463	31398.77
538.664	30980.99
538.865	30647.17
539.065	30811.01
539.266	29639.57
539.466	29399.96
539.667	28683.17
539.868	28924.83
540.068	28572.58
540.269	28365.73
540.469	27804.59
540.67	27372.47
540.87	27034.55
541.071	27024.31
541.271	26745.79
541.472	26078.15
541.672	25697.23
541.873	25603.02
542.073	24710.11
542.274	25095.13
542.474	24632.29
542.675	24136.68
542.875	24114.15
543.075	23880.68
543.276	23378.93
543.476	23540.72
543.676	22932.47
543.877	22975.48
544.077	22594.56
544.277	22494.21
544.478	22156.29
544.678	22023.17
544.878	21675.02
545.078	21376.02
545.279	20904.98
545.479	20808.73
545.679	20634.65
545.879	20603.93
546.079	20278.3
546.28	20081.7
546.48	19565.61
546.68	19901.48
546.88	19373.1
547.08	19004.47
547.28	18832.44
547.48	18449.47
547.68	18586.68
547.88	18242.62
548.081	18017.35
548.281	17493.07
548.481	17437.77
548.681	17460.3
548.881	16976.98
549.081	16831.57
549.28	16534.62
549.48	16403.55
549.68	16266.33
549.88	15963.23
550.08	15717.48
550.28	15604.84
550.48	15441
550.68	15408.23
550.88	14734.45
551.08	14670.97
551.279	14644.34
551.479	14230.65
551.679	14429.31
551.879	13677.7
552.079	13800.58
552.278	13401.22
552.478	13356.17
552.678	13057.17
552.878	13001.87
553.077	12715.16
553.277	12420.25
553.477	12276.89
553.676	12172.44
553.876	12094.62
554.076	11758.75
554.275	11474.09
554.475	11338.92
554.674	11408.55
554.874	11019.44
555.074	10706.1
555.273	10691.76
555.473	10534.07
555.672	10396.85
555.872	10040.51
556.071	10007.74
556.271	10095.8
556.47	9774.27
556.67	9526.47
556.869	9555.14
557.068	9405.64
557.268	9080.01
557.467	9037
557.667	8973.52
557.866	8754.38
558.065	8469.72
558.265	8232.15
558.464	8000.73
558.663	8234.2
558.863	8002.78
559.062	7961.82
559.261	7750.88
559.461	7791.84
559.66	7509.22
559.859	7351.53
560.058	7070.95
560.258	7134.44
560.457	7152.87
560.656	7062.76
560.855	6868.2
561.054	6819.05
561.253	6601.97
561.453	6667.5
561.652	6468.85
561.851	6466.8
562.05	6089.98
562.249	5967.1
562.448	6173.94
562.647	5764.35
562.846	5911.8
563.045	5967.1
563.244	5641.47
563.443	5700.86
563.642	5690.62
563.841	5418.24
564.04	5309.7
564.239	5295.36
564.438	5053.7
564.637	5123.34
564.836	5049.61
565.035	5127.43
565.234	5055.75
565.432	4859.15
565.631	4740.37
565.83	4855.05
566.029	4670.73
566.228	4773.13
566.427	4584.72
566.625	4502.8
566.824	4459.79
567.023	4433.17
567.222	4236.56
567.42	4130.07
567.619	4250.9
567.818	4216.09
568.016	4361.49
568.215	4105.49
568.414	3960.09
568.612	3921.18
568.811	3962.14
569.01	3902.75
569.208	3700
569.407	3765.53
569.605	3568.93
569.804	3552.54
570.002	3489.06
570.201	3394.85
570.4	3458.34
570.598	3341.6
570.797	3245.35
570.995	3257.64
571.193	3112.23
571.392	3140.9
571.59	3083.56
571.789	3075.37
571.987	3081.51
572.186	3163.43
572.384	3007.78
572.582	2802.99
572.781	3032.36
572.979	2659.63
573.177	2770.22
573.376	2802.99
573.574	2858.28
573.772	2653.48
573.971	2524.46
574.169	2397.49
574.367	2546.99
574.565	2473.26
574.763	2471.22
574.962	2393.39
575.16	2446.64
575.358	2270.51
575.556	2313.52
575.754	2286.9
575.952	2274.61
576.151	2278.71
576.349	2057.53
576.547	2198.84
576.745	2190.64
576.943	2045.24
577.141	2047.29
577.339	1953.08
577.537	1910.07
577.735	2008.37
577.933	1951.03
578.131	1991.99
578.329	2020.66
578.527	1766.71
578.725	1895.74
578.923	1709.37
579.121	1828.15
579.319	1754.43
579.516	1740.09
579.714	1846.59
579.912	1611.07
580.11	1598.78
580.308	1705.28
580.506	1537.34
580.704	1510.72
580.901	1549.63
581.099	1684.8
581.297	1389.89
581.495	1432.9
581.692	1529.15
581.89	1496.38
582.088	1461.57
582.285	1262.91
582.483	1385.79
582.681	1393.98
582.878	1256.77
583.076	1410.37
583.274	1371.46
583.471	1500.48
583.669	1267.01
583.866	1168.71
584.064	1209.67
584.262	1166.66
584.459	1162.56
584.657	1236.29
584.854	1221.95
585.052	1195.33
585.249	1183.04
585.447	1213.76
585.644	1033.54
585.841	1103.17
586.039	1086.79
586.236	1162.56
586.434	1039.69
586.631	976.2
586.828	992.58
587.026	1056.07
587.223	867.66
587.42	955.72
587.618	984.39
587.815	1041.73
588.012	912.71
588.21	877.9
588.407	935.24
588.604	1058.12
588.801	896.33
588.999	902.47
589.196	1086.79
589.393	875.85
589.59	877.9
589.787	914.76
589.984	922.95
590.182	898.38
590.379	929.1
590.576	836.94
590.773	894.28
590.97	806.22
591.167	902.47
591.364	892.23
591.561	820.55
591.758	861.51
591.955	918.86
592.152	775.5
592.349	867.66
592.546	775.5
592.743	746.83
592.94	812.36
593.137	847.18
593.334	896.33
593.531	820.55
593.727	931.14
593.924	890.18
594.121	806.22
594.318	781.64
594.515	908.62
594.712	1033.54
594.908	974.15
595.105	683.34
595.302	914.76
595.499	925
595.696	970.05
595.892	865.61
596.089	1002.82
596.286	894.28
596.482	1027.4
596.679	1013.06
596.876	970.05
597.072	1049.93
597.269	1027.4
597.466	996.68
597.662	1072.45
597.859	1181
598.055	1215.81
598.252	1121.6
598.448	1357.12
598.645	1322.31
598.841	1428.8
599.038	1514.81
599.234	1541.44
599.431	1463.62
599.627	1500.48
599.824	1637.69
600.02	1645.88
600.217	1744.19
600.413	1725.76
600.609	1791.29
600.806	2053.43
601.002	2071.86
601.198	2043.19
601.395	2172.21
601.591	2223.41
601.787	2211.12
601.984	2391.34
602.18	2506.03
602.376	2577.71
602.572	2800.94
602.769	2893.1
602.965	2856.23
603.161	2917.67
603.357	2979.11
603.553	3200.29
603.75	3204.39
603.946	3300.64
604.142	3560.74
604.338	3540.26
604.534	3722.52
604.73	3786.01
604.926	3943.71
605.122	4123.93
605.318	4111.64
605.514	4388.11
605.71	4517.14
605.906	4705.55
606.102	4758.8
606.298	5178.63
606.494	5086.47
606.69	5317.89
606.886	5379.33
607.082	5582.08
607.278	5584.13
607.474	5786.88
607.67	6010.11
607.866	6087.93
608.062	6513.91
608.257	6536.43
608.453	6661.36
608.649	6939.88
608.845	6978.79
609.041	7318.76
609.236	7439.59
609.432	7699.68
609.628	8006.88
609.824	8035.55
610.019	8223.96
610.215	8348.89
610.411	8680.66
610.606	9041.1
610.802	9215.18
610.998	9313.48
611.193	9837.76
611.389	9852.09
611.584	10120.38
611.78	10165.43
611.976	10505.4
612.171	11066.54
612.367	11392.17
612.562	11603.11
612.758	11789.47
612.953	11836.58
613.149	12659.86
613.344	12860.56
613.539	13270.15
613.735	13292.68
613.93	13966.46
614.126	14150.78
614.321	14763.12
614.517	14865.52
614.712	15238.25
614.907	15694.95
615.103	16067.68
615.298	16446.55
615.493	17052.75
615.688	17149.01
615.884	18080.83
616.079	18123.84
616.274	18740.28
616.47	19031.09
616.665	19782.7
616.86	20214.82
617.055	20534.3
617.25	20968.47
617.445	21820.42
617.641	21961.73
617.836	22836.22
618.031	22950.9
618.226	24185.83
618.421	24290.27
618.616	25363.41
618.811	25334.74
619.006	26450.88
619.201	26557.38
619.396	27499.44
619.591	27603.89
619.786	28529.57
619.981	28789.66
620.176	30049.16
620.371	30245.77
620.566	30948.22
620.761	31353.72
620.956	32324.46
621.151	32715.62
621.346	33602.39
621.541	33520.47
621.735	34818.88
621.93	35298.11
622.125	35982.13
622.32	36240.17
622.515	37399.32
622.709	37501.72
622.904	38517.51
623.099	39293.69
623.294	40125.17
623.488	40545
623.683	41349.85
623.878	41032.42
624.072	42488.52
624.267	43154.11
624.462	43791.03
624.656	44104.37
624.851	44886.7
625.046	45273.76
625.24	46275.22
625.435	46682.76
625.629	47626.88
625.824	47680.13
626.018	48573.04
626.213	48118.39
626.407	49920.6
626.602	49992.28
626.796	50412.12
626.991	51063.37
627.185	51296.84
627.38	51606.08
627.574	52079.16
627.768	52144.7
627.963	52187.7
628.157	52300.34
628.352	52996.65
628.546	52134.46
628.74	53176.87
628.935	52785.71
629.129	53148.2
629.323	52691.51
629.517	52376.12
629.712	52251.19
629.906	51831.36
630.1	50948.68
630.294	51227.21
630.489	50195.03
630.683	50395.73
630.877	48970.35
631.071	48310.9
631.265	47936.12
631.459	46502.54
631.653	45433.5
631.848	45210.28
632.042	43731.64
632.236	42977.99
632.43	41773.78
632.624	40766.18
632.818	39357.18
633.012	38322.96
633.206	37059.36
633.4	36121.39
633.594	34716.48
633.788	34071.37
633.982	32719.71
634.176	31613.81
634.369	30149.51
634.563	29098.91
634.757	27863.98
634.951	27372.47
635.145	26227.65
635.339	25105.37
635.533	24163.3
635.726	23407.6
635.92	22025.22
636.114	21152.79
636.308	20358.17
636.501	19620.91
636.695	18949.17
636.889	18113.6
637.083	17372.24
637.276	16505.95
637.47	15598.7
637.664	15322.22
637.857	14541.94
638.051	14128.25
638.244	13405.32
638.438	12811.41
638.632	12496.02
638.825	11709.6
639.019	11639.97
639.212	11017.39
639.406	10630.32
639.599	10015.93
639.793	9915.58
639.986	9231.56
640.18	9100.49
640.373	8836.3
640.567	8209.62
640.76	7963.87
640.954	7742.69
641.147	7386.34
641.34	6964.46
641.534	6882.54
641.727	6722.8
641.92	6507.76
642.114	6284.53
642.307	5924.09
642.5	5719.29
642.694	5457.15
642.887	5207.3
643.08	5285.12
643.273	4904.2
643.467	4629.77
643.66	4467.99
643.853	4369.68
644.046	4207.89
644.239	4109.59
644.432	3802.4
644.626	3700
644.819	3429.67
645.012	3452.19
645.205	3548.45
645.398	3321.12
645.591	3011.88
645.784	2852.14
645.977	2788.65
646.17	2690.35
646.363	2661.68
646.556	2424.11
646.749	2307.38
646.942	2297.14
647.135	2360.63
647.328	2174.26
647.521	2069.81
647.714	1961.27
647.907	1887.54
648.099	1744.19
648.292	1924.41
648.485	1744.19
648.678	1723.71
648.871	1582.4
649.064	1551.68
649.256	1377.6
649.449	1322.31
649.642	1357.12
649.835	1338.69
650.027	1221.95
650.22	1375.55
650.413	1219.91
650.605	1213.76
650.798	994.63
650.991	1056.07
651.183	1045.83
651.376	1086.79
651.568	1006.92
651.761	937.29
651.954	894.28
652.146	914.76
652.339	894.28
652.531	910.66
652.724	726.35
652.916	767.31
653.109	671.05
653.301	789.83
653.494	808.27
653.686	689.48
653.879	849.22
654.071	732.49
654.263	628.04
654.456	587.08
654.648	677.2
654.84	580.94
655.033	525.65
655.225	691.53
655.417	521.55
655.61	634.19
655.802	695.63
655.994	646.48
656.186	449.87
656.379	515.41
656.571	462.16
656.763	472.4
656.955	509.26
657.148	408.91
657.34	570.7
657.532	417.1
657.724	462.16
657.916	390.48
658.108	394.58
658.3	419.15
658.492	370
658.684	394.58
658.876	398.67
659.068	263.51
659.26	202.07
659.452	314.7
659.644	437.58
659.836	431.44
660.028	402.77
660.22	359.76
660.412	310.61
660.604	361.81
660.796	318.8
660.988	435.53
661.18	302.42
661.372	386.38
661.563	193.87
661.755	335.18
661.947	208.21
662.139	210.26
662.331	206.16
662.522	236.88
662.714	240.98
662.906	236.88
663.097	294.22
663.289	171.35
663.481	154.96
663.673	300.37
663.864	181.59
664.056	234.83
664.247	107.86
664.439	322.9
664.631	245.07
664.822	169.3
665.014	189.78
665.205	126.29
665.397	114
665.588	200.02
665.78	259.41
665.971	275.79
666.163	169.3
666.354	277.84
666.546	120.15
666.737	134.48
666.929	200.02
667.12	195.92
667.311	206.16
667.503	214.35
667.694	269.65
667.885	185.68
668.077	187.73
668.268	120.15
668.459	204.11
668.651	234.83
668.842	191.83
669.033	171.35
669.224	132.44
669.416	306.51
669.607	181.59
669.798	163.15
669.989	294.22
670.18	183.63
670.371	335.18
670.563	126.29
670.754	261.46
670.945	279.89
671.136	322.9
671.327	87.38
671.518	240.98
671.709	333.14
671.9	197.97
672.091	300.37
672.282	255.31
672.473	210.26
672.664	126.29
672.855	222.55
673.046	216.4
673.237	210.26
673.428	124.24
673.619	222.55
673.809	150.87
674	283.99
674.191	228.69
674.382	128.34
674.573	183.63
674.764	197.97
674.954	302.42
675.145	146.77
675.336	163.15
675.527	138.58
675.717	204.11
675.908	146.77
676.099	204.11
676.289	134.48
676.48	95.57
676.671	234.83
676.861	202.07
677.052	251.22
677.243	175.44
677.433	204.11
677.624	271.7
677.814	259.41
678.005	118.1
678.195	367.95
678.386	210.26
678.576	204.11
678.767	136.53
678.957	177.49
679.148	359.76
679.338	320.85
679.529	310.61
679.719	234.83
679.909	345.42
680.1	271.7
680.29	316.75
680.481	212.31
680.671	292.18
680.861	226.64
681.052	245.07
681.242	220.5
681.432	296.27
681.622	288.08
681.813	197.97
682.003	247.12
682.193	99.67
682.383	245.07
682.573	269.65
682.764	288.08
682.954	304.46
683.144	402.77
683.334	329.04
683.524	265.55
683.714	296.27
683.904	296.27
684.094	294.22
684.284	259.41
684.474	390.48
684.664	298.32
684.854	304.46
685.044	296.27
685.234	326.99
685.424	341.33
685.614	257.36
685.804	417.1
685.994	259.41
686.184	312.66
686.374	341.33
686.564	236.88
686.753	310.61
686.943	136.53
687.133	314.7
687.323	261.46
687.513	243.03
687.702	290.13
687.892	222.55
688.082	333.14
688.272	392.53
688.461	288.08
688.651	384.34
688.841	288.08
689.03	206.16
689.22	302.42
689.41	290.13
689.599	374.1
689.789	253.27
689.979	374.1
690.168	146.77
690.358	296.27
690.547	265.55
690.737	232.79
690.926	290.13
691.116	261.46
691.305	406.86
691.495	355.66
691.684	173.39
691.874	197.97
692.063	230.74
692.252	402.77
692.442	355.66
692.631	144.72
692.82	193.87
693.01	322.9
693.199	275.79
693.388	267.6
693.578	273.75
693.767	267.6
693.956	337.23
694.146	240.98
694.335	243.03
694.524	240.98
694.713	365.9
694.902	171.35
695.092	179.54
695.281	337.23
695.47	269.65
695.659	218.45
695.848	228.69
696.037	210.26
696.226	331.09
696.415	255.31
696.604	265.55
696.793	240.98
696.982	171.35
697.171	415.06
697.36	232.79
697.549	224.59
697.738	132.44
697.927	142.68
698.116	152.92
698.305	339.28
698.494	290.13
698.683	224.59
698.872	421.2
699.061	273.75
699.25	283.99
699.438	169.3
699.627	200.02
699.816	353.62
700.005	134.48
700.193	216.4
700.382	255.31
700.571	308.56
700.76	294.22
700.948	267.6
701.137	306.51
701.326	245.07
701.514	146.77
701.703	333.14
701.892	230.74
702.08	318.8
702.269	261.46
702.457	206.16
702.646	279.89
702.834	224.59
703.023	345.42
703.212	333.14
703.4	265.55
703.589	218.45
703.777	261.46
703.965	144.72
704.154	181.59
704.342	71
704.531	181.59
704.719	290.13
704.907	288.08
705.096	175.44
705.284	150.87
705.472	283.99
705.661	339.28
705.849	304.46
706.037	267.6
706.226	228.69
706.414	216.4
706.602	191.83
706.79	288.08
706.979	234.83
707.167	206.16
707.355	150.87
707.543	228.69
707.731	226.64
707.919	204.11
708.107	183.63
708.296	253.27
708.484	234.83
708.672	314.7
708.86	308.56
709.048	179.54
709.236	265.55
709.424	290.13
709.612	275.79
709.8	140.63
709.988	224.59
710.176	296.27
710.364	337.23
710.551	167.25
710.739	240.98
710.927	265.55
711.115	216.4
711.303	265.55
711.491	335.18
711.679	146.77
711.866	240.98
712.054	245.07
712.242	216.4
712.43	300.37
712.617	222.55
712.805	310.61
712.993	259.41
713.181	83.28
713.368	298.32
713.556	228.69
713.744	306.51
713.931	374.1
714.119	259.41
714.306	218.45
714.494	240.98
714.682	308.56
714.869	105.81
715.057	251.22
715.244	122.2
715.432	314.7
715.619	185.68
715.807	234.83
715.994	210.26
716.182	277.84
716.369	339.28
716.556	269.65
716.744	220.5
716.931	105.81
717.119	261.46
717.306	265.55
717.493	320.85
717.681	210.26
717.868	140.63
718.055	245.07
718.242	269.65
718.43	322.9
718.617	353.62
718.804	200.02
718.991	277.84
719.179	318.8
719.366	232.79
719.553	290.13
719.74	263.51
719.927	288.08
720.114	331.09
720.301	273.75
720.488	183.63
720.676	181.59
720.863	302.42
721.05	425.29
721.237	292.18
721.424	269.65
721.611	259.41
721.798	132.44
721.985	251.22
722.172	208.21
722.358	267.6
722.545	310.61
722.732	343.38
722.919	484.69
723.106	306.51
723.293	277.84
723.48	181.59
723.667	245.07
723.853	382.29
724.04	324.94
724.227	382.29
724.414	275.79
724.6	359.76
724.787	361.81
724.974	349.52
725.161	310.61
725.347	138.58
725.534	283.99
725.72	269.65
725.907	318.8
726.094	367.95
726.28	259.41
726.467	324.94
726.653	218.45
726.84	423.25
727.027	386.38
727.213	286.03
727.4	351.57
727.586	339.28
727.773	316.75
727.959	232.79
728.145	324.94
728.332	296.27
728.518	298.32
728.705	404.82
728.891	279.89
729.077	300.37
729.264	234.83
729.45	253.27
729.636	384.34
729.823	322.9
730.009	335.18
730.195	320.85
730.382	339.28
730.568	277.84
730.754	322.9
730.94	255.31
731.126	363.86
731.313	472.4
731.499	253.27
731.685	318.8
731.871	265.55
732.057	386.38
732.243	402.77
732.429	329.04
732.615	445.77
732.801	320.85
732.987	335.18
733.173	339.28
733.359	329.04
733.545	341.33
733.731	324.94
733.917	501.07
734.103	382.29
734.289	312.66
734.475	275.79
734.661	456.01
734.847	294.22
735.033	308.56
735.219	298.32
735.404	294.22
735.59	370
735.776	259.41
735.962	388.43
736.148	363.86
736.333	415.06
736.519	329.04
736.705	398.67
736.89	324.94
737.076	351.57
737.262	286.03
737.447	269.65
737.633	318.8
737.819	427.34
738.004	292.18
738.19	247.12
738.375	402.77
738.561	437.58
738.747	415.06
738.932	206.16
739.118	386.38
739.303	337.23
739.489	394.58
739.674	265.55
739.859	288.08
740.045	431.44
740.23	370
740.416	243.03
740.601	357.71
740.786	345.42
740.972	341.33
741.157	302.42
741.342	286.03
741.528	173.39
741.713	363.86
741.898	292.18
742.084	306.51
742.269	304.46
742.454	374.1
742.639	376.14
742.824	283.99
743.01	406.86
743.195	406.86
743.38	347.47
743.565	271.7
743.75	292.18
743.935	298.32
744.12	447.82
744.305	236.88
744.49	316.75
744.675	314.7
744.86	294.22
745.045	367.95
745.23	290.13
745.415	281.94
745.6	445.77
745.785	234.83
745.97	261.46
746.155	292.18
746.34	322.9
746.525	331.09
746.71	386.38
746.895	197.97
747.079	216.4
747.264	296.27
747.449	361.81
747.634	357.71
747.819	318.8
748.003	288.08
748.188	114
748.373	363.86
748.557	255.31
748.742	259.41
748.927	335.18
749.111	312.66
749.296	288.08
749.481	355.66
749.665	341.33
749.85	138.58
750.034	351.57
750.219	306.51
750.404	236.88
750.588	341.33
750.773	208.21
750.957	271.7
751.141	238.93
751.326	240.98
751.51	146.77
751.695	204.11
751.879	296.27
752.064	400.72
752.248	288.08
752.432	263.51
752.617	443.73
752.801	263.51
752.985	312.66
753.17	374.1
753.354	290.13
753.538	286.03
753.722	197.97
753.907	234.83
754.091	120.15
754.275	263.51
754.459	214.35
754.643	146.77
754.828	253.27
755.012	259.41
755.196	228.69
755.38	189.78
755.564	167.25
755.748	202.07
755.932	279.89
756.116	210.26
756.3	197.97
756.484	212.31
756.668	226.64
756.852	95.57
757.036	173.39
757.22	259.41
757.404	95.57
757.588	152.92
757.772	111.96
757.956	206.16
758.14	283.99
758.323	234.83
758.507	202.07
758.691	183.63
758.875	267.6
759.059	316.75
759.242	105.81
759.426	193.87
759.61	146.77
759.794	136.53
759.977	181.59
760.161	402.77
760.345	335.18
760.528	132.44
760.712	189.78
760.895	144.72
761.079	251.22
761.263	50.52
761.446	116.05
761.63	122.2
761.813	249.17
761.997	56.66
762.18	193.87
762.364	253.27
762.547	66.9
762.731	189.78
762.914	200.02
763.098	122.2
763.281	251.22
763.464	111.96
763.648	154.96
763.831	114
764.015	93.52
764.198	245.07
764.381	87.38
764.564	97.62
764.748	222.55
764.931	128.34
765.114	152.92
765.297	208.21
765.481	144.72
765.664	140.63
765.847	101.72
766.03	224.59
766.213	114
766.397	99.67
766.58	50.52
766.763	230.74
766.946	103.76
767.129	60.76
767.312	77.14
767.495	120.15
767.678	132.44
767.861	204.11
768.044	163.15
768.227	132.44
768.41	181.59
768.593	114
768.776	154.96
768.959	189.78
769.142	165.2
769.324	138.58
769.507	161.11
769.69	91.48
769.873	87.38
770.056	290.13
770.239	134.48
770.421	222.55
770.604	208.21
770.787	171.35
770.97	79.19
771.152	19.8
771.335	163.15
771.518	13.65
771.7	140.63
771.883	288.08
772.066	66.9
772.248	216.4
772.431	195.92
772.613	177.49
772.796	66.9
772.978	87.38
773.161	259.41
773.343	68.95
773.526	52.56
773.708	27.99
773.891	30.04
774.073	118.1
774.256	30.04
774.438	259.41
774.621	79.19
774.803	132.44
774.985	71
775.168	124.24
775.35	52.56
775.532	128.34
775.715	71
775.897	120.15
776.079	21.85
776.261	150.87
776.444	83.28
776.626	152.92
776.808	93.52
776.99	-80.55
777.173	81.24
777.355	68.95
777.537	124.24
777.719	87.38
777.901	30.04
778.083	44.37
778.265	-0.68
778.447	161.11
778.629	-6.83
778.811	148.82
778.993	197.97
779.175	144.72
779.357	118.1
779.539	68.95
779.721	103.76
779.903	120.15
780.085	195.92
780.267	85.33
780.449	99.67
780.631	91.48
780.812	202.07
780.994	36.18
781.176	138.58
781.358	73.04
781.54	73.04
781.721	103.76
781.903	128.34
782.085	64.85
782.267	97.62
782.448	19.8
782.63	21.85
782.812	36.18
782.993	103.76
783.175	154.96
783.357	25.94
783.538	75.09
783.72	-37.55
783.901	40.28
784.083	73.04
784.264	-15.02
784.446	-25.26
784.627	-21.16
784.809	89.43
784.99	109.91
785.172	167.25
785.353	144.72
785.535	109.91
785.716	3.41
785.897	-39.59
786.079	75.09
786.26	25.94
786.441	109.91
786.623	-74.41
786.804	-4.78
786.985	-35.5
787.167	103.76
787.348	-4.78
787.529	-10.92
787.71	71
787.891	97.62
788.073	-25.26
788.254	-43.69
788.435	179.54
788.616	54.61
788.797	13.65
788.978	60.76
789.159	50.52
789.34	116.05
789.522	52.56
789.703	-12.97
789.884	136.53
790.065	38.23
790.246	146.77
790.427	13.65
790.607	173.39
790.788	91.48
790.969	54.61
791.15	73.04
791.331	-62.12
791.512	30.04
791.693	-15.02
791.874	27.99
792.054	144.72
792.235	171.35
792.416	-76.46
792.597	36.18
792.778	107.86
792.958	120.15
793.139	13.65
793.32	75.09
793.5	-70.31
793.681	181.59
793.862	46.42
794.042	75.09
794.223	-8.87
794.404	-25.26
794.584	-51.88
794.765	40.28
794.945	-35.5
795.126	111.96
795.306	195.92
795.487	13.65
795.667	25.94
795.848	36.18
796.028	99.67
796.209	64.85
796.389	132.44
796.57	9.56
796.75	-17.07
796.93	3.41
797.111	-86.7
797.291	21.85
797.471	68.95
797.652	-4.78
797.832	-117.42
798.012	107.86
798.192	-17.07
798.373	-39.59
798.553	-12.97
798.733	60.76
798.913	-10.92
799.093	-15.02
799.274	97.62
799.454	99.67
799.634	105.81
799.814	81.24
799.994	56.66
800.174	52.56
800.354	48.47
800.534	-41.64
800.714	73.04
800.894	-45.74
801.074	-43.69
801.254	-21.16
801.434	109.91
801.614	-23.21
801.794	-64.17
801.974	1840.44
802.154	32.08
802.334	109.91
802.514	-41.64
802.693	-12.97
802.873	-49.83
803.053	210.26
803.233	101.72
803.413	85.33
803.592	-37.55
803.772	62.8
803.952	148.82
804.131	-35.5
804.311	120.15
804.491	159.06
804.67	-25.26
804.85	-51.88
805.03	85.33
805.209	93.52
805.389	-17.07
805.568	-86.7
805.748	17.75
805.928	15.7
806.107	1.37
806.287	7.51
806.466	64.85
806.646	120.15
806.825	34.13
807.004	-29.35
807.184	124.24
807.363	66.9
807.543	42.32
807.722	-19.11
807.901	130.39
808.081	46.42
808.26	-66.22
808.439	50.52
808.619	68.95
808.798	38.23
808.977	-37.55
809.156	13.65
809.336	79.19
809.515	50.52
809.694	-2.73
809.873	5.46
810.052	17.75
810.231	128.34
810.411	27.99
810.59	87.38
810.769	-21.16
810.948	107.86
811.127	-17.07
811.306	-84.65
811.485	-45.74
811.664	152.92
811.843	66.9
812.022	27.99
812.201	19.8
812.38	9.56
812.559	56.66
812.737	34.13
812.916	15.7
813.095	23.89
813.274	34.13
813.453	-10.92
813.632	56.66
813.811	85.33
813.989	-72.36
814.168	52.56
814.347	-8.87
814.526	-17.07
814.704	154.96
814.883	120.15
815.062	-64.17
815.24	134.48
815.419	-90.79
815.598	15.7
815.776	-64.17
815.955	62.8
816.133	-10.92
816.312	27.99
816.49	17.75
816.669	38.23
816.847	-0.68
817.026	93.52
817.204	-70.31
817.383	-43.69
817.561	-66.22
817.74	34.13
817.918	103.76
818.097	-6.83
818.275	-27.31
818.453	30.04
818.632	7.51
818.81	-8.87
818.988	-60.07
819.167	-64.17
819.345	36.18
819.523	-4.78
819.701	-12.97
819.879	-53.93
820.058	34.13
820.236	71
820.414	85.33
820.592	-15.02
820.77	-25.26
820.948	-4.78
821.127	-15.02
821.305	36.18
821.483	15.7
821.661	11.61
821.839	-35.5
822.017	-8.87
822.195	-72.36
822.373	87.38
822.551	71
822.729	27.99
822.907	-6.83
823.085	58.71
823.262	-15.02
823.44	9.56
823.618	9.56
823.796	46.42
823.974	-25.26
824.152	-39.59
824.329	-76.46
824.507	38.23
824.685	54.61
824.863	-25.26
825.04	-2.73
825.218	62.8
825.396	-29.35
825.574	34.13
825.751	23.89
825.929	85.33
826.107	-33.45
826.284	118.1
826.462	71
826.639	-53.93
826.817	-4.78
826.994	23.89
827.172	44.37
827.349	148.82
827.527	109.91
827.704	25.94
827.882	50.52
828.059	40.28
828.237	36.18
828.414	87.38
828.591	-117.42
828.769	21.85
828.946	-21.16
829.124	79.19
829.301	132.44
829.478	-35.5
829.655	50.52
829.833	25.94
830.01	-82.6
830.187	60.76
830.364	-31.4
830.542	-72.36
830.719	154.96
830.896	99.67
831.073	-12.97
831.25	50.52
831.427	85.33
831.604	11.61
831.782	-84.65
831.959	36.18
832.136	1.37
832.313	87.38
832.49	-4.78
832.667	58.71
832.844	-51.88
833.021	68.95
833.198	83.28
833.374	44.37
833.551	34.13
833.728	-10.92
833.905	85.33
834.082	-78.51
834.259	73.04
834.436	142.68
834.612	-29.35
834.789	79.19
834.966	7.51
835.143	3.41
835.319	-123.56
835.496	62.8
835.673	56.66
835.85	75.09
836.026	23.89
836.203	79.19
836.38	7.51
836.556	-47.79
836.733	-19.11
836.909	114
837.086	23.89
837.262	-90.79
837.439	93.52
837.616	-39.59
837.792	9.56
837.968	17.75
838.145	-82.6
838.321	25.94
838.498	23.89
838.674	-2.73
838.851	79.19
839.027	17.75
839.203	-21.16
839.38	71
839.556	-119.46
839.732	30.04
839.909	9.56
840.085	89.43
840.261	30.04
840.437	52.56
840.614	-0.68
840.79	62.8
840.966	109.91
841.142	5.46
841.318	17.75
841.494	13.65
841.671	128.34
841.847	-53.93
842.023	-111.27
842.199	114
842.375	124.24
842.551	-166.57
842.727	-72.36
842.903	144.72
843.079	1.37
843.255	95.57
843.431	23.89
843.607	64.85
843.783	-166.57
843.959	79.19
844.134	-74.41
844.31	120.15
844.486	-60.07
844.662	-15.02
844.838	21.85
845.013	101.72
845.189	120.15
845.365	114
845.541	-15.02
845.716	3.41
845.892	144.72
846.068	-8.87
846.244	-27.31
846.419	66.9
846.595	-84.65
846.77	-64.17
846.946	46.42
847.122	-64.17
847.297	-39.59
847.473	138.58
847.648	-98.99
847.824	62.8
847.999	-17.07
848.175	-76.46
848.35	-37.55
848.526	101.72
848.701	25.94
848.876	107.86
849.052	91.48
849.227	-51.88
849.403	-62.12
849.578	-53.93
849.753	25.94
849.929	50.52
850.104	-70.31
850.279	9.56
850.454	71
850.63	144.72
850.805	36.18
850.98	-4.78
851.155	-43.69
851.33	36.18
851.505	-105.13
851.681	38.23
851.856	-23.21
852.031	13.65
852.206	-19.11
852.381	9.56
852.556	3.41
852.731	-15.02
852.906	1.37
853.081	21.85
853.256	181.59
853.431	25.94
853.606	-78.51
853.781	13.65
853.956	-94.89
854.131	81.24
854.305	-25.26
854.48	-62.12
854.655	-49.83
854.83	-66.22
855.005	50.52
855.18	-19.11
855.354	-41.64
855.529	-2.73
855.704	-31.4
855.879	3.41
856.053	-43.69
856.228	89.43
856.403	-2.73
856.577	79.19
856.752	-76.46
856.926	-10.92
857.101	60.76
857.276	-47.79
857.45	68.95
857.625	136.53
857.799	19.8
857.974	30.04
858.148	-45.74
858.323	-35.5
858.497	-51.88
858.672	25.94
858.846	-31.4
859.02	52.56
859.195	-8.87
859.369	-21.16
859.543	-35.5
859.718	-4.78
859.892	-0.68
860.066	-35.5
860.241	-92.84
860.415	21.85
860.589	-78.51
860.763	-29.35
860.938	-15.02
861.112	3.41
861.286	-12.97
861.46	9.56
861.634	17.75
861.808	52.56
861.982	-8.87
862.157	-94.89
862.331	-66.22
862.505	-55.98
862.679	-125.61
862.853	-39.59
863.027	5.46
863.201	126.29
863.375	-17.07
863.549	-19.11
863.722	40.28
863.896	111.96
864.07	-12.97
864.244	-43.69
864.418	97.62
864.592	54.61
864.766	40.28
864.939	109.91
865.113	-8.87
865.287	107.86
865.461	-144.04
865.634	1.37
865.808	27.99
865.982	-23.21
866.156	54.61
866.329	-53.93
866.503	83.28
866.676	62.8
866.85	73.04
867.024	-47.79
867.197	42.32
867.371	38.23
867.544	-17.07
867.718	-41.64
867.891	126.29
868.065	-33.45
868.238	-51.88
868.412	103.76
868.585	7.51
868.759	13.65
868.932	-135.85
869.105	-80.55
869.279	-12.97
869.452	-64.17
869.625	1.37
869.799	7.51
869.972	-111.27
870.145	-27.31
870.319	91.48
870.492	1.37
870.665	15.7
870.838	-76.46
871.011	-156.33
871.185	-29.35
871.358	-25.26
871.531	30.04
871.704	7.51
871.877	40.28
872.05	-72.36
872.223	-25.26
872.396	126.29
872.569	56.66
872.742	-60.07
872.915	13.65
873.088	-39.59
873.261	-96.94
873.434	46.42
873.607	7.51
873.78	105.81
873.953	-55.98
874.126	87.38
874.299	13.65
874.471	54.61
874.644	5.46
874.817	32.08
874.99	146.77
875.163	-27.31
875.335	50.52
875.508	136.53
875.681	95.57
875.853	17.75
876.026	23.89
876.199	17.75
876.371	116.05
876.544	13.65
876.717	-35.5
876.889	-37.55
877.062	11.61
877.234	-58.03
877.407	-92.84
877.579	32.08
877.752	75.09
877.924	-19.11
878.097	66.9
878.269	34.13
878.442	85.33
878.614	101.72
878.786	-25.26
878.959	-6.83
879.131	87.38
879.303	-60.07
879.476	9.56
879.648	167.25
879.82	-33.45
879.993	-55.98
880.165	38.23
880.337	-84.65
880.509	-37.55
880.681	-80.55
880.854	-39.59
881.026	30.04
881.198	87.38
881.37	-43.69
881.542	36.18
881.714	-23.21
881.886	-53.93
882.058	52.56
882.23	9.56
882.402	15.7
882.574	-23.21
882.746	38.23
882.918	177.49
883.09	54.61
883.262	21.85
883.434	85.33
883.606	-105.13
883.778	19.8
883.95	128.34
884.122	-39.59
884.293	105.81
884.465	23.89
884.637	7.51
884.809	-80.55
884.98	17.75
885.152	21.85
885.324	-10.92
885.496	-15.02
885.667	-90.79
885.839	-113.32
886.011	109.91
886.182	30.04
886.354	19.8
886.525	19.8
886.697	52.56
886.869	50.52
887.04	-41.64
887.212	97.62
887.383	91.48
887.555	-45.74
887.726	1.37
887.897	-31.4
888.069	-35.5
888.24	114
888.412	32.08
888.583	-4.78
888.754	7.51
888.926	-86.7
889.097	-4.78
889.268	-86.7
889.44	32.08
889.611	-88.75
889.782	-90.79
889.953	-60.07
890.125	87.38
890.296	-43.69
890.467	-82.6
890.638	9.56
890.809	21.85
890.98	15.7
891.151	-45.74
891.323	161.11
891.494	48.47
891.665	-27.31
891.836	42.32
892.007	-25.26
892.178	-25.26
892.349	71
892.52	21.85
892.691	52.56
892.862	-6.83
893.032	-109.22
893.203	-96.94
893.374	15.7
893.545	118.1
893.716	-10.92
893.887	83.28
894.057	-35.5
894.228	-37.55
894.399	-10.92
894.57	85.33
894.74	11.61
894.911	81.24
895.082	-80.55
895.253	-45.74
895.423	73.04
895.594	54.61
895.764	77.14
895.935	-131.75
896.106	99.67
896.276	-31.4
896.447	75.09
896.617	-60.07
896.788	-92.84
896.958	-19.11
897.129	-78.51
897.299	-33.45
897.47	99.67
897.64	54.61
897.81	48.47
897.981	-6.83
898.151	-2.73
898.322	-8.87
898.492	-10.92
898.662	-25.26
898.832	1.37
899.003	-39.59
899.173	40.28
899.343	-37.55
899.513	-121.51
