Data from USB4F104151__125__10-46-19-858.txt Node

Date: Wed Feb 26 10:46:19 EST 2025
User: louis
Spectrometer: USB4F10415
Trigger mode: 4
Integration Time (sec): 1.000000E-1
Scans to average: 1
Electric dark correction enabled: true
Nonlinearity correction enabled: false
Boxcar width: 0
XAxis mode: Wavelengths
Number of Pixels in Spectrum: 3648
>>>>>Begin Spectral Data<<<<<
178.204	-406.69
178.424	-406.69
178.644	-406.69
178.864	-414.88
179.084	-378.02
179.304	-15.53
179.524	-23.72
179.744	33.62
179.964	27.48
180.184	29.52
180.404	9.05
180.624	-11.43
180.844	-17.58
181.064	23.38
181.283	0.85
181.503	-93.35
181.723	37.72
181.943	-70.83
182.163	129.88
182.383	23.38
182.602	41.81
182.822	185.17
183.042	72.53
183.262	-11.43
183.482	41.81
183.701	25.43
183.921	-1.19
184.141	-36.01
184.361	111.44
184.58	27.48
184.8	99.16
185.02	90.96
185.239	68.44
185.459	144.21
185.679	78.68
185.898	-74.92
186.118	27.48
186.338	29.52
186.557	31.57
186.777	-81.07
186.997	0.85
187.216	39.76
187.436	195.41
187.655	29.52
187.875	109.4
188.095	15.19
188.314	168.79
188.534	142.16
188.753	23.38
188.973	176.98
189.192	170.83
189.412	21.33
189.631	-38.06
189.851	117.59
190.07	195.41
190.29	-111.78
190.509	2.9
190.729	11.09
190.948	125.78
191.168	320.34
191.387	84.82
191.607	54.1
191.826	74.58
192.045	70.48
192.265	-7.34
192.484	172.88
192.704	23.38
192.923	-23.72
193.142	191.31
193.362	117.59
193.581	121.68
193.8	52.05
194.02	133.97
194.239	115.54
194.458	144.21
194.678	103.25
194.897	74.58
195.116	45.91
195.335	21.33
195.555	84.82
195.774	-21.67
195.993	129.88
196.212	7
196.432	50
196.651	-9.39
196.87	11.09
197.089	213.84
197.308	41.81
197.528	58.2
197.747	82.77
197.966	156.5
198.185	105.3
198.404	17.24
198.623	117.59
198.842	101.2
199.062	203.6
199.281	138.07
199.5	35.67
199.719	97.11
199.938	101.2
200.157	170.83
200.376	160.59
200.595	158.55
200.814	103.25
201.033	7
201.252	189.27
201.471	60.24
201.69	150.36
201.909	123.73
202.128	9.05
202.347	97.11
202.566	-9.39
202.785	-15.53
203.004	31.57
203.223	252.75
203.442	76.63
203.661	21.33
203.879	90.96
204.098	191.31
204.317	-7.34
204.536	105.3
204.755	148.31
204.974	148.31
205.193	9.05
205.411	162.64
205.63	146.26
205.849	74.58
206.068	0.85
206.287	-50.35
206.505	146.26
206.724	19.29
206.943	-58.54
207.162	23.38
207.381	215.89
207.599	9.05
207.818	121.68
208.037	-27.82
208.255	140.12
208.474	50
208.693	60.24
208.911	-44.2
209.13	121.68
209.349	136.02
209.567	113.49
209.786	121.68
210.005	64.34
210.223	95.06
210.442	-25.77
210.661	27.48
210.879	103.25
211.098	107.35
211.316	119.64
211.535	146.26
211.753	90.96
211.972	101.2
212.191	-3.24
212.409	27.48
212.628	111.44
212.846	52.05
213.065	86.87
213.283	68.44
213.502	82.77
213.72	47.96
213.938	90.96
214.157	23.38
214.375	95.06
214.594	23.38
214.812	131.92
215.031	76.63
215.249	-1.19
215.467	39.76
215.686	121.68
215.904	162.64
216.122	84.82
216.341	191.31
216.559	109.4
216.778	129.88
216.996	131.92
217.214	4.95
217.432	19.29
217.651	-42.15
217.869	119.64
218.087	72.53
218.306	4.95
218.524	62.29
218.742	54.1
218.96	158.55
219.179	93.01
219.397	54.1
219.615	301.9
219.833	121.68
220.051	19.29
220.27	158.55
220.488	47.96
220.706	113.49
220.924	17.24
221.142	-54.44
221.36	97.11
221.578	-1.19
221.796	4.95
222.015	7
222.233	68.44
222.451	189.27
222.669	-31.91
222.887	148.31
223.105	7
223.323	-25.77
223.541	4.95
223.759	-11.43
223.977	103.25
224.195	197.46
224.413	107.35
224.631	56.15
224.849	52.05
225.067	176.98
225.285	50
225.503	17.24
225.721	-142.5
225.939	80.72
226.157	7
226.375	119.64
226.592	-19.63
226.81	21.33
227.028	136.02
227.246	154.45
227.464	-58.54
227.682	107.35
227.9	47.96
228.117	13.14
228.335	68.44
228.553	29.52
228.771	31.57
228.989	-5.29
229.206	148.31
229.424	52.05
229.642	66.39
229.86	23.38
230.077	168.79
230.295	119.64
230.513	156.5
230.731	86.87
230.948	138.07
231.166	234.32
231.384	93.01
231.601	-9.39
231.819	230.23
232.037	27.48
232.254	15.19
232.472	-25.77
232.689	-42.15
232.907	183.12
233.125	-5.29
233.342	25.43
233.56	68.44
233.777	47.96
233.995	39.76
234.213	183.12
234.43	109.4
234.648	56.15
234.865	64.34
235.083	58.2
235.3	64.34
235.518	50
235.735	209.75
235.953	93.01
236.17	133.97
236.388	64.34
236.605	50
236.822	127.83
237.04	105.3
237.257	129.88
237.475	-25.77
237.692	62.29
237.909	82.77
238.127	33.62
238.344	72.53
238.562	133.97
238.779	-25.77
238.996	31.57
239.214	50
239.431	121.68
239.648	50
239.865	86.87
240.083	111.44
240.3	60.24
240.517	17.24
240.735	72.53
240.952	195.41
241.169	80.72
241.386	129.88
241.603	-5.29
241.821	-40.11
242.038	109.4
242.255	181.07
242.472	-23.72
242.689	68.44
242.907	80.72
243.124	86.87
243.341	47.96
243.558	-52.39
243.775	31.57
243.992	-3.24
244.209	117.59
244.426	246.61
244.643	23.38
244.86	43.86
245.078	133.97
245.295	84.82
245.512	90.96
245.729	9.05
245.946	62.29
246.163	97.11
246.38	84.82
246.597	17.24
246.814	115.54
247.031	43.86
247.248	50
247.464	105.3
247.681	23.38
247.898	174.93
248.115	45.91
248.332	-9.39
248.549	191.31
248.766	195.41
248.983	88.92
249.2	109.4
249.417	111.44
249.633	47.96
249.85	131.92
250.067	97.11
250.284	19.29
250.501	164.69
250.717	50
250.934	-17.58
251.151	37.72
251.368	31.57
251.585	127.83
251.801	93.01
252.018	-33.96
252.235	133.97
252.451	-9.39
252.668	76.63
252.885	168.79
253.102	103.25
253.318	37.72
253.535	64.34
253.752	-17.58
253.968	7
254.185	-25.77
254.401	66.39
254.618	101.2
254.835	47.96
255.051	154.45
255.268	105.3
255.484	80.72
255.701	62.29
255.917	50
256.134	-44.2
256.351	9.05
256.567	23.38
256.784	-42.15
257	-23.72
257.217	150.36
257.433	119.64
257.65	72.53
257.866	142.16
258.082	58.2
258.299	13.14
258.515	58.2
258.732	86.87
258.948	9.05
259.165	115.54
259.381	29.52
259.597	154.45
259.814	-36.01
260.03	76.63
260.246	111.44
260.463	133.97
260.679	160.59
260.895	2.9
261.112	50
261.328	113.49
261.544	37.72
261.761	164.69
261.977	35.67
262.193	-7.34
262.409	62.29
262.626	43.86
262.842	31.57
263.058	52.05
263.274	121.68
263.49	54.1
263.707	117.59
263.923	156.5
264.139	-103.59
264.355	136.02
264.571	138.07
264.787	74.58
265.004	78.68
265.22	23.38
265.436	0.85
265.652	7
265.868	133.97
266.084	-64.68
266.3	107.35
266.516	15.19
266.732	154.45
266.948	138.07
267.164	-54.44
267.38	123.73
267.596	160.59
267.812	230.23
268.028	60.24
268.244	56.15
268.46	50
268.676	52.05
268.892	162.64
269.108	-31.91
269.324	-13.48
269.54	-3.24
269.756	129.88
269.972	2.9
270.188	29.52
270.403	-13.48
270.619	39.76
270.835	97.11
271.051	60.24
271.267	29.52
271.483	-7.34
271.698	136.02
271.914	179.03
272.13	62.29
272.346	-21.67
272.562	86.87
272.777	164.69
272.993	19.29
273.209	23.38
273.425	101.2
273.64	-31.91
273.856	80.72
274.072	-25.77
274.287	-25.77
274.503	150.36
274.719	144.21
274.934	82.77
275.15	-5.29
275.366	23.38
275.581	-21.67
275.797	-19.63
276.012	70.48
276.228	29.52
276.444	93.01
276.659	62.29
276.875	-50.35
277.09	0.85
277.306	64.34
277.521	70.48
277.737	70.48
277.952	56.15
278.168	-17.58
278.383	39.76
278.599	58.2
278.814	150.36
279.03	45.91
279.245	195.41
279.461	37.72
279.676	105.3
279.892	-31.91
280.107	25.43
280.322	-17.58
280.538	129.88
280.753	-42.15
280.969	7
281.184	11.09
281.399	172.88
281.615	58.2
281.83	45.91
282.045	-7.34
282.26	-21.67
282.476	136.02
282.691	62.29
282.906	78.68
283.122	95.06
283.337	54.1
283.552	103.25
283.767	72.53
283.983	162.64
284.198	107.35
284.413	62.29
284.628	-5.29
284.843	7
285.058	99.16
285.274	-9.39
285.489	66.39
285.704	99.16
285.919	-21.67
286.134	15.19
286.349	54.1
286.564	90.96
286.779	156.5
286.995	47.96
287.21	33.62
287.425	15.19
287.64	-1.19
287.855	78.68
288.07	-38.06
288.285	93.01
288.5	136.02
288.715	127.83
288.93	76.63
289.145	25.43
289.36	127.83
289.575	29.52
289.79	162.64
290.004	-15.53
290.219	117.59
290.434	0.85
290.649	41.81
290.864	4.95
291.079	60.24
291.294	70.48
291.509	64.34
291.724	15.19
291.938	35.67
292.153	21.33
292.368	-31.91
292.583	70.48
292.798	140.12
293.012	78.68
293.227	111.44
293.442	21.33
293.657	166.74
293.871	129.88
294.086	131.92
294.301	179.03
294.516	66.39
294.73	97.11
294.945	-44.2
295.16	27.48
295.374	90.96
295.589	133.97
295.804	-42.15
296.018	105.3
296.233	136.02
296.447	41.81
296.662	31.57
296.877	113.49
297.091	133.97
297.306	88.92
297.52	74.58
297.735	86.87
297.949	140.12
298.164	43.86
298.378	66.39
298.593	-66.73
298.807	90.96
299.022	-9.39
299.236	205.65
299.451	72.53
299.665	-15.53
299.88	64.34
300.094	172.88
300.309	27.48
300.523	121.68
300.737	-33.96
300.952	97.11
301.166	11.09
301.381	-25.77
301.595	-33.96
301.809	39.76
302.024	88.92
302.238	31.57
302.452	111.44
302.667	43.86
302.881	156.5
303.095	148.31
303.309	31.57
303.524	17.24
303.738	43.86
303.952	-46.25
304.166	99.16
304.381	-21.67
304.595	207.7
304.809	-1.19
305.023	33.62
305.237	54.1
305.452	93.01
305.666	133.97
305.88	82.77
306.094	131.92
306.308	88.92
306.522	105.3
306.736	170.83
306.95	93.01
307.164	119.64
307.379	47.96
307.593	211.79
307.807	150.36
308.021	62.29
308.235	162.64
308.449	-46.25
308.663	58.2
308.877	138.07
309.091	35.67
309.305	97.11
309.519	-119.98
309.733	109.4
309.947	-13.48
310.161	43.86
310.374	-1.19
310.588	224.08
310.802	-3.24
311.016	15.19
311.23	115.54
311.444	37.72
311.658	25.43
311.872	93.01
312.085	117.59
312.299	154.45
312.513	144.21
312.727	95.06
312.941	13.14
313.154	60.24
313.368	158.55
313.582	54.1
313.796	56.15
314.009	78.68
314.223	129.88
314.437	133.97
314.651	105.3
314.864	37.72
315.078	7
315.292	-27.82
315.505	37.72
315.719	158.55
315.933	107.35
316.146	17.24
316.36	31.57
316.573	185.17
316.787	164.69
317.001	131.92
317.214	-76.97
317.428	11.09
317.641	-48.3
317.855	109.4
318.068	50
318.282	29.52
318.495	174.93
318.709	78.68
318.922	62.29
319.136	121.68
319.349	64.34
319.563	62.29
319.776	113.49
319.99	-17.58
320.203	107.35
320.417	127.83
320.63	84.82
320.843	146.26
321.057	64.34
321.27	107.35
321.483	97.11
321.697	222.03
321.91	47.96
322.124	27.48
322.337	117.59
322.55	11.09
322.763	76.63
322.977	105.3
323.19	4.95
323.403	37.72
323.617	47.96
323.83	115.54
324.043	170.83
324.256	31.57
324.469	-17.58
324.683	82.77
324.896	7
325.109	84.82
325.322	-52.39
325.535	150.36
325.748	90.96
325.962	29.52
326.175	97.11
326.388	54.1
326.601	125.78
326.814	39.76
327.027	25.43
327.24	187.22
327.453	-83.11
327.666	45.91
327.879	119.64
328.092	140.12
328.305	101.2
328.518	2.9
328.731	-19.63
328.944	0.85
329.157	86.87
329.37	13.14
329.583	113.49
329.796	211.79
330.009	-54.44
330.222	97.11
330.435	123.73
330.648	35.67
330.861	56.15
331.073	45.91
331.286	201.55
331.499	72.53
331.712	-40.11
331.925	115.54
332.138	125.78
332.35	142.16
332.563	72.53
332.776	62.29
332.989	-15.53
333.202	95.06
333.414	70.48
333.627	23.38
333.84	84.82
334.053	88.92
334.265	9.05
334.478	66.39
334.691	27.48
334.903	64.34
335.116	13.14
335.329	56.15
335.541	103.25
335.754	191.31
335.966	-5.29
336.179	29.52
336.392	88.92
336.604	47.96
336.817	109.4
337.029	129.88
337.242	66.39
337.454	97.11
337.667	43.86
337.88	166.74
338.092	43.86
338.305	117.59
338.517	31.57
338.729	70.48
338.942	129.88
339.154	33.62
339.367	52.05
339.579	90.96
339.792	-15.53
340.004	131.92
340.217	64.34
340.429	74.58
340.641	-13.48
340.854	-27.82
341.066	93.01
341.278	189.27
341.491	179.03
341.703	84.82
341.915	-44.2
342.128	117.59
342.34	95.06
342.552	101.2
342.764	17.24
342.977	45.91
343.189	121.68
343.401	80.72
343.613	-132.26
343.826	88.92
344.038	47.96
344.25	29.52
344.462	-40.11
344.674	93.01
344.886	-1.19
345.099	86.87
345.311	101.2
345.523	58.2
345.735	-33.96
345.947	-1.19
346.159	68.44
346.371	121.68
346.583	41.81
346.795	232.27
347.007	35.67
347.219	76.63
347.431	68.44
347.643	174.93
347.855	17.24
348.067	148.31
348.279	-66.73
348.491	101.2
348.703	82.77
348.915	39.76
349.127	64.34
349.339	58.2
349.551	0.85
349.763	90.96
349.975	103.25
350.187	88.92
350.399	140.12
350.61	70.48
350.822	31.57
351.034	66.39
351.246	72.53
351.458	93.01
351.669	97.11
351.881	129.88
352.093	174.93
352.305	191.31
352.517	105.3
352.728	101.2
352.94	107.35
353.152	195.41
353.363	-13.48
353.575	115.54
353.787	50
353.999	142.16
354.21	179.03
354.422	-52.39
354.633	-17.58
354.845	43.86
355.057	35.67
355.268	146.26
355.48	179.03
355.692	33.62
355.903	105.3
356.115	45.91
356.326	-111.78
356.538	183.12
356.749	31.57
356.961	156.5
357.172	101.2
357.384	29.52
357.595	158.55
357.807	99.16
358.018	19.29
358.23	56.15
358.441	115.54
358.653	133.97
358.864	-33.96
359.075	35.67
359.287	76.63
359.498	117.59
359.709	115.54
359.921	115.54
360.132	93.01
360.344	23.38
360.555	23.38
360.766	164.69
360.977	156.5
361.189	78.68
361.4	47.96
361.611	93.01
361.823	187.22
362.034	54.1
362.245	-15.53
362.456	70.48
362.667	125.78
362.879	93.01
363.09	127.83
363.301	109.4
363.512	50
363.723	7
363.935	27.48
364.146	66.39
364.357	19.29
364.568	90.96
364.779	-25.77
364.99	224.08
365.201	35.67
365.412	131.92
365.623	-31.91
365.834	60.24
366.045	84.82
366.256	54.1
366.467	109.4
366.678	11.09
366.889	154.45
367.1	-21.67
367.311	107.35
367.522	9.05
367.733	45.91
367.944	97.11
368.155	19.29
368.366	133.97
368.577	148.31
368.788	160.59
368.999	31.57
369.209	60.24
369.42	199.51
369.631	258.9
369.842	105.3
370.053	11.09
370.264	179.03
370.474	23.38
370.685	115.54
370.896	54.1
371.107	179.03
371.317	127.83
371.528	-3.24
371.739	127.83
371.95	66.39
372.16	115.54
372.371	15.19
372.582	13.14
372.792	70.48
373.003	43.86
373.214	107.35
373.424	150.36
373.635	2.9
373.846	293.71
374.056	47.96
374.267	86.87
374.477	99.16
374.688	-50.35
374.898	21.33
375.109	7
375.319	56.15
375.53	174.93
375.74	86.87
375.951	21.33
376.161	74.58
376.372	209.75
376.582	47.96
376.793	62.29
377.003	-5.29
377.214	0.85
377.424	105.3
377.635	56.15
377.845	7
378.055	78.68
378.266	21.33
378.476	121.68
378.686	52.05
378.897	76.63
379.107	97.11
379.317	101.2
379.528	78.68
379.738	119.64
379.948	2.9
380.158	105.3
380.369	70.48
380.579	84.82
380.789	37.72
380.999	138.07
381.21	136.02
381.42	211.79
381.63	99.16
381.84	76.63
382.05	74.58
382.261	217.94
382.471	129.88
382.681	-17.58
382.891	181.07
383.101	107.35
383.311	0.85
383.521	66.39
383.731	129.88
383.941	133.97
384.151	74.58
384.361	64.34
384.571	107.35
384.781	56.15
384.991	271.19
385.201	224.08
385.411	170.83
385.621	111.44
385.831	80.72
386.041	33.62
386.251	70.48
386.461	125.78
386.671	105.3
386.881	93.01
387.091	50
387.301	150.36
387.511	11.09
387.72	84.82
387.93	140.12
388.14	47.96
388.35	185.17
388.56	105.3
388.769	172.88
388.979	76.63
389.189	43.86
389.399	23.38
389.609	88.92
389.818	152.4
390.028	80.72
390.238	105.3
390.447	56.15
390.657	138.07
390.867	31.57
391.076	-15.53
391.286	80.72
391.496	47.96
391.705	7
391.915	109.4
392.125	152.4
392.334	72.53
392.544	193.36
392.753	64.34
392.963	45.91
393.172	76.63
393.382	33.62
393.591	213.84
393.801	70.48
394.01	215.89
394.22	131.92
394.429	105.3
394.639	101.2
394.848	131.92
395.058	7
395.267	66.39
395.477	119.64
395.686	86.87
395.895	219.99
396.105	191.31
396.314	84.82
396.524	27.48
396.733	50
396.942	203.6
397.152	113.49
397.361	107.35
397.57	50
397.78	88.92
397.989	111.44
398.198	203.6
398.407	109.4
398.617	86.87
398.826	113.49
399.035	21.33
399.244	133.97
399.453	88.92
399.663	138.07
399.872	125.78
400.081	70.48
400.29	123.73
400.499	56.15
400.708	76.63
400.917	19.29
401.127	50
401.336	47.96
401.545	179.03
401.754	150.36
401.963	136.02
402.172	86.87
402.381	-17.58
402.59	64.34
402.799	115.54
403.008	162.64
403.217	58.2
403.426	97.11
403.635	-50.35
403.844	43.86
404.053	31.57
404.262	58.2
404.471	164.69
404.68	99.16
404.888	95.06
405.097	68.44
405.306	121.68
405.515	146.26
405.724	13.14
405.933	64.34
406.142	62.29
406.35	138.07
406.559	43.86
406.768	115.54
406.977	215.89
407.185	105.3
407.394	113.49
407.603	-31.91
407.812	166.74
408.02	150.36
408.229	107.35
408.438	101.2
408.646	-17.58
408.855	99.16
409.064	160.59
409.272	31.57
409.481	136.02
409.69	74.58
409.898	39.76
410.107	154.45
410.315	111.44
410.524	-42.15
410.733	82.77
410.941	101.2
411.15	127.83
411.358	84.82
411.567	152.4
411.775	54.1
411.984	74.58
412.192	170.83
412.401	-21.67
412.609	197.46
412.818	209.75
413.026	105.3
413.234	2.9
413.443	60.24
413.651	-50.35
413.86	50
414.068	224.08
414.276	160.59
414.485	76.63
414.693	174.93
414.901	170.83
415.11	27.48
415.318	39.76
415.526	97.11
415.734	117.59
415.943	127.83
416.151	232.27
416.359	82.77
416.567	90.96
416.776	181.07
416.984	95.06
417.192	246.61
417.4	156.5
417.608	19.29
417.817	4.95
418.025	193.36
418.233	181.07
418.441	-42.15
418.649	47.96
418.857	68.44
419.065	203.6
419.273	111.44
419.481	25.43
419.689	47.96
419.897	70.48
420.105	45.91
420.313	109.4
420.521	162.64
420.729	189.27
420.937	33.62
421.145	-23.72
421.353	140.12
421.561	209.75
421.769	138.07
421.977	2.9
422.185	256.85
422.393	86.87
422.601	176.98
422.809	60.24
423.017	109.4
423.224	154.45
423.432	138.07
423.64	97.11
423.848	152.4
424.056	21.33
424.263	119.64
424.471	80.72
424.679	203.6
424.887	45.91
425.094	191.31
425.302	181.07
425.51	21.33
425.718	76.63
425.925	82.77
426.133	15.19
426.341	250.71
426.548	133.97
426.756	93.01
426.964	76.63
427.171	174.93
427.379	125.78
427.586	88.92
427.794	107.35
428.001	185.17
428.209	170.83
428.417	207.7
428.624	107.35
428.832	217.94
429.039	189.27
429.247	84.82
429.454	109.4
429.662	258.9
429.869	211.79
430.076	113.49
430.284	265.04
430.491	226.13
430.699	166.74
430.906	342.86
431.114	152.4
431.321	283.47
431.528	181.07
431.736	217.94
431.943	172.88
432.15	209.75
432.358	150.36
432.565	365.39
432.772	93.01
432.979	277.33
433.187	90.96
433.394	273.23
433.601	123.73
433.808	324.43
434.016	234.32
434.223	205.65
434.43	250.71
434.637	342.86
434.844	338.77
435.052	285.52
435.259	332.62
435.466	328.53
435.673	269.14
435.88	324.43
436.087	420.69
436.294	443.21
436.501	389.97
436.708	301.9
436.915	314.19
437.122	463.69
437.329	379.73
437.537	357.2
437.743	475.98
437.95	549.71
438.157	338.77
438.364	486.22
438.571	394.06
438.778	473.93
438.985	619.34
439.192	537.42
439.399	549.71
439.606	568.14
439.813	645.96
440.02	686.92
440.227	727.88
440.433	682.83
440.64	588.62
440.847	666.44
441.054	734.03
441.261	867.14
441.467	748.36
441.674	807.75
441.881	875.34
442.088	779.08
442.294	830.28
442.501	789.32
442.708	926.54
442.914	858.95
443.121	1022.79
443.328	1069.89
443.534	1143.62
443.741	998.21
443.948	961.35
444.154	1090.37
444.361	1364.8
444.568	1172.29
444.774	1219.39
444.981	1157.96
445.187	1454.91
445.394	1469.25
445.6	1387.33
445.807	1565.5
446.013	1465.15
446.22	1471.29
446.426	1590.08
446.633	1739.58
446.839	1868.6
447.046	1653.56
447.252	1858.36
447.459	1919.8
447.665	1876.79
447.871	2181.94
448.078	2237.24
448.284	2206.52
448.491	2302.77
448.697	2480.94
448.903	2515.76
449.11	2593.58
449.316	2528.05
449.522	2693.93
449.728	2994.98
449.935	2968.36
450.141	2923.3
450.347	3222.31
450.553	3109.67
450.76	3472.16
450.966	3429.15
451.172	3365.67
451.378	3666.72
451.584	3883.8
451.791	4068.12
451.997	4131.61
452.203	4113.17
452.409	4434.71
452.615	4518.67
452.821	4434.71
453.027	4576.02
453.233	5145.35
453.44	4879.11
453.646	5073.67
453.852	5309.19
454.058	5587.71
454.264	5788.41
454.47	6212.34
454.676	6015.74
454.882	6771.44
455.088	6607.6
455.294	6947.56
455.5	7303.91
455.705	7830.24
455.911	7727.84
456.117	7813.85
456.323	8354.52
456.529	8284.89
456.735	8848.08
456.941	9251.53
457.147	9585.35
457.352	9661.12
457.558	9947.84
457.764	10638
457.97	10867.38
458.176	11137.71
458.381	11936.42
458.587	12061.34
458.793	12866.19
458.999	12587.67
459.204	14156.41
459.41	14512.76
459.616	14316.15
459.821	15551.08
460.027	15946.34
460.233	17031.76
460.438	17013.33
460.644	17986.11
460.85	17676.87
461.055	18721.34
461.261	19866.15
461.466	18647.61
461.672	19556.91
461.878	21817.86
462.083	21535.24
462.289	22100.48
462.494	22759.93
462.7	23187.96
462.905	23507.44
463.111	25350.61
463.316	26567.1
463.522	26767.8
463.727	28064.17
463.932	28715.42
464.138	29770.13
464.343	30863.74
464.549	31029.63
464.754	33395.03
464.959	34140.49
465.165	34502.98
465.37	34357.58
465.575	34656.58
465.781	36675.88
465.986	37835.03
466.191	37372.19
466.397	37931.28
466.602	36917.54
466.807	39106.82
467.012	39289.09
467.218	40009.97
467.423	40313.07
467.628	41388.25
467.833	43495.61
468.038	42766.54
468.244	41842.9
468.449	43913.4
468.654	43212.99
468.859	42664.14
469.064	43151.55
469.269	42635.47
469.474	42682.57
469.679	43954.36
469.885	42377.42
470.09	43147.46
470.295	43276.48
470.5	42361.04
470.705	42186.96
470.91	41408.73
471.115	41070.82
471.32	41711.83
471.525	41060.58
471.73	39858.42
471.935	40196.34
472.139	38166.8
472.344	38271.25
472.549	38689.03
472.754	37581.08
472.959	36520.23
473.164	35668.28
473.369	35119.42
473.574	35901.75
473.778	34974.02
473.983	34554.18
474.188	34228.56
474.393	32244.07
474.598	32248.17
474.802	31504.76
475.007	31160.7
475.212	30894.46
475.417	29833.61
475.621	29450.64
475.826	28985.76
476.031	28391.84
476.235	27910.57
476.44	27916.72
476.645	27273.65
476.849	26655.17
477.054	26446.27
477.259	25854.41
477.463	25930.19
477.668	25231.83
477.872	24914.39
478.077	24390.11
478.282	23630.32
478.486	23548.4
478.691	23245.3
478.895	23132.66
479.1	22659.58
479.304	22618.62
479.509	21932.55
479.713	22094.34
479.918	21785.1
480.122	21283.34
480.326	21533.2
480.531	21328.4
480.735	21191.19
480.94	20603.42
481.144	21615.12
481.348	20257.31
481.553	20677.15
481.757	19952.16
481.961	20341.28
482.166	20017.7
482.37	19870.25
482.574	19565.1
482.778	19343.92
482.983	19739.18
483.187	19319.34
483.391	19302.96
483.595	19044.91
483.8	18838.07
484.004	18532.92
484.208	18645.56
484.412	18342.46
484.616	17879.62
484.821	18102.85
485.025	17562.19
485.229	17728.07
485.433	16931.41
485.637	17326.67
485.841	16872.02
486.045	16695.89
486.249	16593.5
486.453	16183.9
486.657	16333.4
486.861	15708.77
487.065	15188.59
487.269	15274.6
487.473	14783.09
487.677	14877.3
487.881	14561.91
488.085	14137.98
488.289	14217.85
488.493	13775.49
488.697	13972.1
488.901	13560.45
489.105	13036.17
489.309	12862.1
489.512	12538.52
489.716	12710.55
489.92	12190.36
490.124	12065.44
490.328	12102.3
490.531	11631.27
490.735	11518.63
490.939	11135.66
491.143	11070.12
491.346	10961.58
491.55	10992.3
491.754	10699.44
491.958	10427.06
492.161	10300.09
492.365	10171.07
492.569	9824.96
492.772	9812.67
492.976	9689.79
493.18	9581.25
493.383	9530.05
493.587	9315.02
493.79	9558.72
493.994	8946.38
494.197	9089.74
494.401	8913.61
494.605	8919.76
494.808	9022.16
495.012	8913.61
495.215	8764.11
495.419	8794.83
495.622	8403.67
495.825	8491.73
496.029	8553.17
496.232	8430.29
496.436	8319.7
496.639	8563.41
496.843	8397.53
497.046	8344.28
497.249	8663.76
497.453	8461.01
497.656	8375
497.859	8409.81
498.063	8575.7
498.266	8452.82
498.469	8405.72
498.673	8381.14
498.876	8499.92
499.079	8563.41
499.282	8418
499.485	8893.13
499.689	8721.1
499.892	8886.99
500.095	8823.5
500.298	8798.93
500.501	8735.44
500.705	9028.3
500.908	9130.7
501.111	9126.6
501.314	9261.77
501.517	9380.55
501.72	9460.42
501.923	9294.54
502.126	9609.92
502.329	9876.16
502.532	9927.36
502.735	10017.47
502.938	10250.94
503.141	10123.96
503.344	10398.39
503.547	10500.79
503.75	10480.31
503.953	10625.72
504.156	11023.02
504.359	10941.1
504.562	11180.71
504.765	11385.51
504.968	11162.28
505.17	11698.85
505.373	11600.55
505.576	12198.56
505.779	12300.95
505.982	12200.6
506.185	12577.43
506.387	12851.86
506.59	13175.44
506.793	13228.68
506.996	13503.11
507.198	14238.33
507.401	14252.67
507.604	14205.56
507.807	14674.55
508.009	14893.68
508.212	15096.43
508.415	15712.87
508.617	15989.35
508.82	16120.42
509.022	16294.49
509.225	16681.56
509.428	17150.54
509.63	17519.18
509.833	17652.3
510.035	18428.48
510.238	18485.82
510.44	18936.37
510.643	19300.91
510.845	20261.41
511.048	20099.62
511.25	20509.21
511.453	20873.75
511.655	22118.92
511.858	21965.32
512.06	22376.96
512.262	22977.01
512.465	23378.42
512.667	24216.04
512.87	24560.09
513.072	25002.46
513.274	25866.7
513.477	26341.83
513.679	26855.87
513.881	27453.87
514.084	28045.74
514.286	28717.47
514.488	28770.72
514.69	30005.64
514.893	30546.31
515.095	31095.16
515.297	32074.09
515.499	32336.23
515.701	33421.66
515.904	33960.27
516.106	34830.66
516.308	35234.11
516.51	35868.98
516.712	36421.93
516.914	37404.95
517.116	38197.52
517.318	38799.62
517.52	39563.51
517.722	39866.61
517.925	41025.76
518.127	41763.03
518.329	42436.81
518.531	42547.4
518.733	43784.38
518.935	44540.08
519.136	44949.67
519.338	45621.41
519.54	46031
519.742	47374.47
519.944	47550.59
520.146	48779.37
520.348	48885.87
520.55	49598.56
520.752	50270.29
520.954	51021.9
521.155	50774.09
521.357	52076.6
521.559	52973.61
521.761	53499.94
521.963	53063.72
522.164	53788.7
522.366	54702.1
522.568	54962.19
522.77	55261.19
522.971	56776.69
523.173	56145.92
523.375	56879.09
523.576	56367.1
523.778	57004.02
523.98	57331.69
524.181	57634.79
524.383	57614.31
524.584	58435.55
524.786	58159.07
524.988	57917.41
525.189	58654.68
525.391	58707.93
525.592	58595.29
525.794	58826.71
525.995	58841.04
526.197	58197.98
526.398	58453.98
526.6	58433.5
526.801	58097.63
527.003	58370.01
527.204	58087.39
527.406	58208.22
527.607	57675.75
527.808	57757.67
528.01	56610.81
528.211	56502.26
528.412	57341.93
528.614	56279.03
528.815	56328.19
529.016	56528.89
529.218	54980.62
529.419	54966.29
529.62	54452.25
529.822	53831.71
530.023	53176.36
530.224	53276.71
530.425	52531.25
530.626	51277.89
530.828	50974.8
531.029	51468.36
531.23	50485.33
531.431	49997.91
531.632	49791.07
531.833	49080.42
532.035	48287.86
532.236	47949.95
532.437	47526.02
532.638	46764.17
532.839	46368.91
533.04	46071.96
533.241	44857.51
533.442	45082.79
533.643	44032.18
533.844	43178.18
534.045	42877.13
534.246	41918.68
534.447	41881.81
534.648	40839.4
534.849	40562.92
535.05	39751.93
535.251	39465.21
535.451	39055.62
535.652	38953.22
535.853	38236.43
536.054	37650.71
536.255	37185.82
536.456	36501.8
536.657	36503.85
536.857	35504.44
537.058	35268.92
537.259	35047.74
537.46	34486.6
537.66	33610.07
537.861	33653.08
538.062	32973.15
538.263	32743.78
538.463	31748.46
538.664	31758.7
538.865	31377.78
539.065	31222.14
539.266	30751.1
539.466	30562.69
539.667	29720.98
539.868	29772.18
540.068	28869.02
540.269	28844.45
540.469	28639.65
540.67	27982.25
540.87	27795.89
541.071	27369.91
541.271	27255.22
541.472	27048.38
541.672	26468.8
541.873	26147.27
542.073	25498.06
542.274	25694.67
542.474	25614.8
542.675	25024.98
542.875	25164.25
543.075	24596.96
543.276	23806.44
543.476	24189.41
543.676	23714.28
543.877	23288.31
544.077	23353.84
544.277	23034.36
544.478	22934.01
544.678	22479.36
544.878	22295.04
545.078	21862.92
545.279	21772.81
545.479	21365.26
545.679	21281.3
545.879	20806.17
546.079	20668.95
546.28	20556.32
546.48	19989.03
546.68	20169.25
546.88	19903.01
547.08	19745.32
547.28	19444.27
547.48	18960.95
547.68	18850.36
547.88	18360.89
548.081	18481.72
548.281	18035.27
548.481	17633.86
548.681	17932.87
548.881	17640.01
549.081	17267.28
549.28	16972.37
549.48	16761.43
549.68	16372.32
549.88	16814.68
550.08	16206.43
550.28	16142.94
550.48	15704.68
550.68	15745.64
550.88	15045.23
551.08	15061.62
551.279	15000.18
551.479	14549.62
551.679	14768.76
551.879	14264.96
552.079	14066.3
552.278	13736.58
552.478	13892.23
552.678	13449.86
552.878	13310.6
553.077	13193.87
553.277	12518.04
553.477	12712.6
553.676	12458.65
553.876	12300.95
554.076	12116.64
554.275	12032.67
554.475	11670.18
554.674	11664.04
554.874	11428.52
555.074	10941.1
555.273	11131.56
555.473	10930.86
555.672	10736.31
555.872	10332.86
556.071	10312.38
556.271	10312.38
556.47	10029.76
556.67	9779.9
556.869	9581.25
557.068	9337.54
557.268	9390.79
557.467	9233.1
557.667	9302.73
557.866	8915.66
558.065	8719.06
558.265	8661.71
558.464	8282.84
558.663	8407.77
558.863	8119
559.062	8229.59
559.261	7772.89
559.461	7922.4
559.66	7539.43
559.859	7412.45
560.058	7213.8
560.258	7351.01
560.457	7158.5
560.656	7346.92
560.855	6839.02
561.054	6986.47
561.253	6820.59
561.453	6669.04
561.652	6687.47
561.851	6632.18
562.05	6155
562.249	6189.81
562.448	6224.63
562.647	6087.42
562.846	6032.12
563.045	5821.18
563.244	5784.32
563.443	5737.21
563.642	5628.67
563.841	5565.18
564.04	5397.25
564.239	5483.27
564.438	5219.08
564.637	5159.69
564.836	5214.98
565.035	5178.12
565.234	4811.53
565.432	4850.44
565.631	4852.49
565.83	4868.88
566.029	4705.04
566.228	4598.54
566.427	4639.5
566.625	4528.91
566.824	4391.7
567.023	4332.31
567.222	4227.86
567.42	4215.57
567.619	4256.53
567.818	4066.07
568.016	4248.34
568.215	4014.87
568.414	4092.69
568.612	3869.47
568.811	3949.34
569.01	3867.42
569.208	3656.48
569.407	3781.4
569.605	3640.09
569.804	3754.78
570.002	3566.37
570.201	3537.7
570.4	3461.92
570.598	3478.3
570.797	3326.75
570.995	3242.79
571.193	3293.99
571.392	3304.23
571.59	3117.86
571.789	3212.07
571.987	3037.99
572.186	3154.73
572.384	2786.09
572.582	3017.51
572.781	2853.67
572.979	2712.36
573.177	2804.52
573.376	2757.42
573.574	2896.68
573.772	2759.47
573.971	2638.64
574.169	2489.14
574.367	2433.84
574.565	2558.77
574.763	2435.89
574.962	2403.12
575.16	2210.61
575.358	2335.54
575.556	2255.67
575.754	2360.11
575.952	2276.15
576.151	2302.77
576.349	2413.36
576.547	2087.73
576.745	2202.42
576.943	2147.12
577.141	1977.14
577.339	2044.73
577.537	1925.94
577.735	1991.48
577.933	2116.41
578.131	1852.22
578.329	1927.99
578.527	1846.07
578.725	1923.9
578.923	1649.47
579.121	1798.97
579.319	1559.36
579.516	1721.15
579.714	1780.54
579.912	1661.76
580.11	1530.69
580.308	1741.63
580.506	1583.93
580.704	1481.53
580.901	1483.58
581.099	1596.22
581.297	1479.49
581.495	1600.32
581.692	1329.99
581.89	1450.82
582.088	1473.34
582.285	1375.04
582.483	1317.7
582.681	1424.19
582.878	1327.94
583.076	1362.75
583.274	1317.7
583.471	1471.29
583.669	1248.07
583.866	1250.11
584.064	1211.2
584.262	1129.28
584.459	1088.32
584.657	1190.72
584.854	1235.78
585.052	1041.22
585.249	1174.34
585.447	1082.18
585.644	949.06
585.841	1170.24
586.039	1055.56
586.236	1180.48
586.434	977.73
586.631	1071.94
586.828	1008.45
587.026	1047.37
587.223	938.82
587.42	947.01
587.618	926.54
587.815	973.64
588.012	1002.31
588.21	869.19
588.407	994.12
588.604	990.02
588.801	824.14
588.999	828.23
589.196	889.67
589.393	715.59
589.59	871.24
589.787	879.43
589.984	791.37
590.182	912.2
590.379	705.35
590.576	772.94
590.773	865.1
590.97	781.13
591.167	891.72
591.364	779.08
591.561	760.65
591.758	908.1
591.955	832.33
592.152	760.65
592.349	852.81
592.546	707.4
592.743	779.08
592.94	877.38
593.137	871.24
593.334	826.18
593.531	797.51
593.727	822.09
593.924	863.05
594.121	713.55
594.318	736.07
594.515	897.86
594.712	906.06
594.908	897.86
595.105	774.99
595.302	877.38
595.499	820.04
595.696	961.35
595.892	834.38
596.089	973.64
596.286	895.82
596.482	1033.03
596.679	867.14
596.876	975.69
597.072	1024.84
597.269	1002.31
597.466	1000.26
597.662	969.54
597.859	1053.51
598.055	1102.66
598.252	1147.72
598.448	1131.33
598.645	1381.18
598.841	1256.26
599.038	1360.7
599.234	1475.39
599.431	1424.19
599.627	1459.01
599.824	1514.3
600.02	1545.02
600.217	1628.99
600.413	1602.36
600.609	1723.2
600.806	2014.01
601.002	1829.69
601.198	1844.03
601.395	2073.4
601.591	2032.44
601.787	2251.57
601.984	2251.57
602.18	2292.53
602.376	2360.11
602.572	2429.74
602.769	2571.05
602.965	2724.65
603.161	2775.85
603.357	2878.25
603.553	3001.13
603.75	2980.65
603.946	3103.53
604.142	3326.75
604.338	3427.11
604.534	3478.3
604.73	3461.92
604.926	3625.76
605.122	3830.55
605.318	3861.27
605.514	4039.45
605.71	4193.05
605.906	4385.55
606.102	4399.89
606.298	4524.82
606.494	4578.06
606.69	4907.79
606.886	4829.96
607.082	5004.04
607.278	5077.77
607.474	5286.66
607.67	5597.95
607.866	5436.16
608.062	5901.05
608.257	6034.17
608.453	6114.04
608.649	6159.1
608.845	6138.62
609.041	6523.63
609.236	6740.72
609.432	7111.4
609.628	7232.23
609.824	7426.79
610.019	7455.46
610.215	7527.14
610.411	7918.3
610.606	8157.91
610.802	8360.66
610.998	8563.41
611.193	8862.41
611.389	8821.45
611.584	9235.14
611.78	9331.4
611.976	9724.61
612.171	10285.75
612.367	10218.17
612.562	10390.2
612.758	10742.45
612.953	10848.94
613.149	11344.55
613.344	11528.87
613.539	11995.81
613.735	11981.47
613.93	12753.55
614.126	12753.55
614.321	13378.19
614.517	13582.98
614.712	13910.66
614.907	14180.99
615.103	14432.89
615.298	14711.41
615.493	15389.29
615.688	15575.66
615.884	16513.63
616.079	16474.71
616.274	16757.33
616.47	17121.87
616.665	17648.2
616.86	18055.75
617.055	18369.09
617.25	19044.91
617.445	19552.81
617.641	19933.73
617.836	20374.05
618.031	20445.73
618.226	21340.69
618.421	21688.84
618.616	22563.33
618.811	22505.98
619.006	23749.1
619.201	23640.56
619.396	24271.33
619.591	24633.82
619.786	25346.51
619.981	25749.96
620.176	26474.95
620.371	27111.86
620.566	27959.72
620.761	28027.31
620.956	29100.44
621.151	29180.31
621.346	29639.06
621.541	30077.32
621.735	31232.38
621.93	31543.67
622.125	31824.24
622.32	32389.48
622.515	33298.78
622.709	33722.71
622.904	34408.78
623.099	35121.47
623.294	35598.65
623.488	35692.85
623.683	37052.7
623.878	36849.96
624.072	37597.46
624.267	38131.98
624.462	39084.29
624.656	39319.81
624.851	40280.3
625.046	40452.33
625.24	41300.19
625.435	41380.06
625.629	41998.55
625.824	42819.78
626.018	43327.68
626.213	43405.5
626.407	44023.99
626.602	44269.75
626.796	44998.82
626.991	45486.24
627.185	45572.25
627.38	45854.87
627.574	46098.58
627.768	46583.95
627.963	46940.3
628.157	46174.36
628.352	46901.39
628.546	46766.22
628.74	47356.03
628.935	46674.06
629.129	47272.07
629.323	46588.05
629.517	46325.91
629.712	46037.14
629.906	46045.33
630.1	45105.32
630.294	45514.91
630.489	44460.21
630.683	44357.81
630.877	42666.19
631.071	42219.73
631.265	42186.96
631.459	41103.59
631.653	40138.99
631.848	39624.95
632.042	38527.24
632.236	37835.03
632.43	36509.99
632.624	35875.12
632.818	34404.68
633.012	33319.26
633.206	32536.93
633.4	31521.14
633.594	30755.2
633.788	29624.72
633.982	28651.94
634.176	27353.52
634.369	26431.94
634.563	25520.59
634.757	24556
634.951	23927.27
635.145	22751.74
635.339	22174.21
635.533	21107.22
635.726	20404.77
635.92	19169.84
636.114	18803.25
636.308	17691.21
636.501	17185.36
636.695	16550.49
636.889	15817.32
637.083	15280.75
637.276	14498.42
637.47	13810.31
637.664	13335.18
637.857	12896.91
638.051	12337.82
638.244	11887.26
638.438	11328.17
638.632	10941.1
638.825	10169.02
639.019	10144.44
639.212	9714.37
639.406	9329.35
639.599	8878.8
639.793	8473.3
639.986	8198.87
640.18	7891.68
640.373	7658.21
640.567	7299.81
640.76	7066.35
640.954	6781.68
641.147	6343.41
641.34	6161.14
641.534	6118.14
641.727	5923.58
641.92	5700.35
642.114	5284.61
642.307	5227.27
642.5	4948.75
642.694	4756.24
642.887	4512.53
643.08	4432.66
643.273	4274.96
643.467	4029.21
643.66	3891.99
643.853	3891.99
644.046	3707.68
644.239	3541.79
644.432	3285.8
644.626	3140.39
644.819	3105.57
645.012	3076.9
645.205	2868.01
645.398	2765.61
645.591	2667.31
645.784	2587.44
645.977	2403.12
646.17	2335.54
646.363	2179.89
646.556	2153.27
646.749	1989.43
646.942	2116.41
647.135	2061.11
647.328	1710.91
647.521	1772.35
647.714	1678.14
647.907	1700.67
648.099	1645.37
648.292	1700.67
648.485	1489.73
648.678	1497.92
648.871	1387.33
649.064	1280.83
649.256	1266.5
649.449	1162.05
649.642	1096.52
649.835	1233.73
650.027	1133.38
650.22	1231.68
650.413	1016.65
650.605	1057.61
650.798	1026.89
650.991	916.3
651.183	926.54
651.376	987.97
651.568	938.82
651.761	734.03
651.954	826.18
652.146	777.03
652.339	887.62
652.531	865.1
652.724	658.25
652.916	666.44
653.109	551.76
653.301	815.94
653.494	691.02
653.686	645.96
653.879	750.41
654.071	660.3
654.263	545.61
654.456	557.9
654.648	629.58
654.84	549.71
655.033	451.41
655.225	600.91
655.417	334.67
655.61	666.44
655.802	557.9
655.994	590.67
656.186	351.06
656.379	480.08
656.571	457.55
656.763	363.34
656.955	404.3
657.148	383.82
657.34	447.31
657.532	342.86
657.724	351.06
657.916	443.21
658.108	449.36
658.3	406.35
658.492	461.65
658.684	316.24
658.876	422.73
659.068	265.04
659.26	338.77
659.452	250.71
659.644	281.43
659.836	389.97
660.028	420.69
660.22	176.98
660.412	265.04
660.604	318.29
660.796	273.23
660.988	334.67
661.18	215.89
661.372	273.23
661.563	303.95
661.755	314.19
661.947	213.84
662.139	232.27
662.331	306
662.522	283.47
662.714	226.13
662.906	209.75
663.097	242.51
663.289	207.7
663.481	97.11
663.673	185.17
663.864	240.47
664.056	283.47
664.247	146.26
664.439	293.71
664.631	262.99
664.822	281.43
665.014	191.31
665.205	144.21
665.397	207.7
665.588	201.55
665.78	111.44
665.971	297.81
666.163	195.41
666.354	191.31
666.546	129.88
666.737	236.37
666.929	146.26
667.12	248.66
667.311	256.85
667.503	127.83
667.694	179.03
667.885	222.03
668.077	138.07
668.268	82.77
668.459	148.31
668.651	183.12
668.842	205.65
669.033	68.44
669.224	152.4
669.416	326.48
669.607	136.02
669.798	158.55
669.989	244.56
670.18	113.49
670.371	136.02
670.563	11.09
670.754	275.28
670.945	269.14
671.136	191.31
671.327	162.64
671.518	217.94
671.709	287.57
671.9	240.47
672.091	267.09
672.282	170.83
672.473	131.92
672.664	123.73
672.855	127.83
673.046	201.55
673.237	201.55
673.428	166.74
673.619	211.79
673.809	217.94
674	320.34
674.191	84.82
674.382	209.75
674.573	136.02
674.764	215.89
674.954	289.62
675.145	138.07
675.336	127.83
675.527	164.69
675.717	191.31
675.908	162.64
676.099	183.12
676.289	287.57
676.48	181.07
676.671	193.36
676.861	228.18
677.052	193.36
677.243	142.16
677.433	129.88
677.624	256.85
677.814	189.27
678.005	185.17
678.195	256.85
678.386	158.55
678.576	148.31
678.767	50
678.957	109.4
679.148	176.98
679.338	328.53
679.529	295.76
679.719	76.63
679.909	256.85
680.1	238.42
680.29	297.81
680.481	150.36
680.671	287.57
680.861	197.46
681.052	226.13
681.242	131.92
681.432	250.71
681.622	207.7
681.813	156.5
682.003	215.89
682.193	150.36
682.383	224.08
682.573	162.64
682.764	230.23
682.954	219.99
683.144	328.53
683.334	265.04
683.524	222.03
683.714	230.23
683.904	179.03
684.094	176.98
684.284	246.61
684.474	361.3
684.664	342.86
684.854	310.1
685.044	226.13
685.234	289.62
685.424	273.23
685.614	199.51
685.804	361.3
685.994	246.61
686.184	217.94
686.374	133.97
686.564	316.24
686.753	164.69
686.943	199.51
687.133	189.27
687.323	201.55
687.513	308.05
687.702	228.18
687.892	232.27
688.082	160.59
688.272	340.82
688.461	215.89
688.651	392.02
688.841	316.24
689.03	252.75
689.22	275.28
689.41	265.04
689.599	277.33
689.789	158.55
689.979	308.05
690.168	166.74
690.358	318.29
690.547	299.86
690.737	328.53
690.926	219.99
691.116	275.28
691.305	260.95
691.495	295.76
691.684	281.43
691.874	162.64
692.063	213.84
692.252	336.72
692.442	240.47
692.631	158.55
692.82	205.65
693.01	275.28
693.199	183.12
693.388	228.18
693.578	260.95
693.767	224.08
693.956	396.11
694.146	203.6
694.335	297.81
694.524	201.55
694.713	338.77
694.902	187.22
695.092	246.61
695.281	144.21
695.47	158.55
695.659	164.69
695.848	213.84
696.037	189.27
696.226	242.51
696.415	222.03
696.604	336.72
696.793	314.19
696.982	230.23
697.171	308.05
697.36	185.17
697.549	238.42
697.738	115.54
697.927	193.36
698.116	293.71
698.305	205.65
698.494	209.75
698.683	154.45
698.872	357.2
699.061	217.94
699.25	142.16
699.438	140.12
699.627	133.97
699.816	353.1
700.005	82.77
700.193	224.08
700.382	273.23
700.571	285.52
700.76	279.38
700.948	293.71
701.137	285.52
701.326	246.61
701.514	203.6
701.703	217.94
701.892	174.93
702.08	306
702.269	201.55
702.457	185.17
702.646	299.86
702.834	138.07
703.023	349.01
703.212	240.47
703.4	234.32
703.589	273.23
703.777	230.23
703.965	131.92
704.154	97.11
704.342	168.79
704.531	193.36
704.719	189.27
704.907	248.66
705.096	164.69
705.284	156.5
705.472	215.89
705.661	326.48
705.849	295.76
706.037	342.86
706.226	211.79
706.414	342.86
706.602	236.37
706.79	185.17
706.979	168.79
707.167	152.4
707.355	74.58
707.543	238.42
707.731	303.95
707.919	217.94
708.107	183.12
708.296	207.7
708.484	197.46
708.672	238.42
708.86	254.8
709.048	277.33
709.236	78.68
709.424	238.42
709.612	232.27
709.8	144.21
709.988	219.99
710.176	252.75
710.364	328.53
710.551	234.32
710.739	127.83
710.927	195.41
711.115	160.59
711.303	176.98
711.491	240.47
711.679	138.07
711.866	254.8
712.054	101.2
712.242	281.43
712.43	265.04
712.617	269.14
712.805	318.29
712.993	219.99
713.181	127.83
713.368	320.34
713.556	226.13
713.744	203.6
713.931	301.9
714.119	226.13
714.306	127.83
714.494	138.07
714.682	158.55
714.869	105.3
715.057	142.16
715.244	82.77
715.432	254.8
715.619	138.07
715.807	234.32
715.994	174.93
716.182	181.07
716.369	260.95
716.556	219.99
716.744	193.36
716.931	162.64
717.119	211.79
717.306	240.47
717.493	224.08
717.681	224.08
717.868	183.12
718.055	332.62
718.242	168.79
718.43	234.32
718.617	306
718.804	211.79
718.991	320.34
719.179	308.05
719.366	277.33
719.553	252.75
719.74	246.61
719.927	273.23
720.114	240.47
720.301	183.12
720.488	117.59
720.676	164.69
720.863	230.23
721.05	351.06
721.237	215.89
721.424	291.66
721.611	279.38
721.798	172.88
721.985	176.98
722.172	275.28
722.358	193.36
722.545	283.47
722.732	316.24
722.919	265.04
723.106	340.82
723.293	224.08
723.48	269.14
723.667	234.32
723.853	287.57
724.04	236.37
724.227	314.19
724.414	183.12
724.6	164.69
724.787	318.29
724.974	330.58
725.161	232.27
725.347	133.97
725.534	256.85
725.72	262.99
725.907	291.66
726.094	301.9
726.28	174.93
726.467	224.08
726.653	181.07
726.84	414.54
727.027	410.45
727.213	211.79
727.4	330.58
727.586	351.06
727.773	338.77
727.959	258.9
728.145	279.38
728.332	295.76
728.518	185.17
728.705	297.81
728.891	279.38
729.077	224.08
729.264	174.93
729.45	250.71
729.636	238.42
729.823	209.75
730.009	279.38
730.195	262.99
730.382	297.81
730.568	195.41
730.754	248.66
730.94	230.23
731.126	201.55
731.313	303.95
731.499	246.61
731.685	301.9
731.871	338.77
732.057	299.86
732.243	310.1
732.429	258.9
732.615	301.9
732.801	191.31
732.987	154.45
733.173	271.19
733.359	277.33
733.545	244.56
733.731	252.75
733.917	328.53
734.103	265.04
734.289	277.33
734.475	187.22
734.661	318.29
734.847	267.09
735.033	172.88
735.219	316.24
735.404	258.9
735.59	138.07
735.776	258.9
735.962	271.19
736.148	328.53
736.333	312.14
736.519	234.32
736.705	215.89
736.89	269.14
737.076	287.57
737.262	170.83
737.447	201.55
737.633	297.81
737.819	383.82
738.004	260.95
738.19	236.37
738.375	279.38
738.561	277.33
738.747	295.76
738.932	250.71
739.118	414.54
739.303	357.2
739.489	301.9
739.674	215.89
739.859	240.47
740.045	242.51
740.23	287.57
740.416	107.35
740.601	330.58
740.786	340.82
740.972	242.51
741.157	203.6
741.342	193.36
741.528	310.1
741.713	357.2
741.898	269.14
742.084	256.85
742.269	203.6
742.454	293.71
742.639	363.34
742.824	260.95
743.01	346.96
743.195	398.16
743.38	238.42
743.565	301.9
743.75	277.33
743.935	295.76
744.12	281.43
744.305	217.94
744.49	256.85
744.675	213.84
744.86	232.27
745.045	316.24
745.23	234.32
745.415	246.61
745.6	330.58
745.785	258.9
745.97	279.38
746.155	306
746.34	361.3
746.525	170.83
746.71	396.11
746.895	140.12
747.079	181.07
747.264	213.84
747.449	265.04
747.634	367.44
747.819	291.66
748.003	213.84
748.188	107.35
748.373	228.18
748.557	250.71
748.742	166.74
748.927	232.27
749.111	277.33
749.296	197.46
749.481	269.14
749.665	285.52
749.85	156.5
750.034	238.42
750.219	222.03
750.404	154.45
750.588	256.85
750.773	187.22
750.957	191.31
751.141	234.32
751.326	328.53
751.51	105.3
751.695	181.07
751.879	232.27
752.064	289.62
752.248	174.93
752.432	330.58
752.617	285.52
752.801	285.52
752.985	191.31
753.17	213.84
753.354	129.88
753.538	246.61
753.722	183.12
753.907	170.83
754.091	174.93
754.275	293.71
754.459	115.54
754.643	115.54
754.828	246.61
755.012	152.4
755.196	158.55
755.38	181.07
755.564	35.67
755.748	209.75
755.932	199.51
756.116	258.9
756.3	179.03
756.484	179.03
756.668	236.37
756.852	58.2
757.036	154.45
757.22	127.83
757.404	154.45
757.588	183.12
757.772	211.79
757.956	185.17
758.14	324.43
758.323	138.07
758.507	185.17
758.691	199.51
758.875	258.9
759.059	203.6
759.242	211.79
759.426	150.36
759.61	160.59
759.794	115.54
759.977	287.57
760.161	351.06
760.345	265.04
760.528	191.31
760.712	125.78
760.895	125.78
761.079	136.02
761.263	119.64
761.446	95.06
761.63	131.92
761.813	191.31
761.997	37.72
762.18	170.83
762.364	125.78
762.547	138.07
762.731	80.72
762.914	80.72
763.098	111.44
763.281	164.69
763.464	80.72
763.648	76.63
763.831	201.55
764.015	156.5
764.198	228.18
764.381	111.44
764.564	222.03
764.748	170.83
764.931	193.36
765.114	125.78
765.297	256.85
765.481	84.82
765.664	121.68
765.847	76.63
766.03	158.55
766.213	82.77
766.397	97.11
766.58	43.86
766.763	111.44
766.946	84.82
767.129	117.59
767.312	17.24
767.495	117.59
767.678	45.91
767.861	90.96
768.044	64.34
768.227	95.06
768.41	74.58
768.593	45.91
768.776	37.72
768.959	80.72
769.142	244.56
769.324	156.5
769.507	136.02
769.69	99.16
769.873	101.2
770.056	248.66
770.239	62.29
770.421	152.4
770.604	160.59
770.787	82.77
770.97	97.11
771.152	21.33
771.335	113.49
771.518	11.09
771.7	195.41
771.883	219.99
772.066	47.96
772.248	148.31
772.431	174.93
772.613	107.35
772.796	68.44
772.978	183.12
773.161	228.18
773.343	43.86
773.526	29.52
773.708	0.85
773.891	45.91
774.073	45.91
774.256	7
774.438	219.99
774.621	74.58
774.803	103.25
774.985	21.33
775.168	93.01
775.35	45.91
775.532	70.48
775.715	101.2
775.897	113.49
776.079	90.96
776.261	176.98
776.444	76.63
776.626	47.96
776.808	50
776.99	13.14
777.173	56.15
777.355	140.12
777.537	54.1
777.719	70.48
777.901	52.05
778.083	35.67
778.265	17.24
778.447	160.59
778.629	-33.96
778.811	115.54
778.993	140.12
779.175	181.07
779.357	62.29
779.539	-36.01
779.721	64.34
779.903	172.88
780.085	47.96
780.267	103.25
780.449	54.1
780.631	176.98
780.812	142.16
780.994	39.76
781.176	56.15
781.358	-9.39
781.54	11.09
781.721	13.14
781.903	193.36
782.085	-19.63
782.267	123.73
782.448	-7.34
782.63	68.44
782.812	54.1
782.993	125.78
783.175	62.29
783.357	27.48
783.538	47.96
783.72	-38.06
783.901	35.67
784.083	72.53
784.264	95.06
784.446	35.67
784.627	13.14
784.809	158.55
784.99	0.85
785.172	117.59
785.353	-17.58
785.535	125.78
785.716	-1.19
785.897	45.91
786.079	47.96
786.26	105.3
786.441	86.87
786.623	19.29
786.804	21.33
786.985	78.68
787.167	-3.24
787.348	95.06
787.529	15.19
787.71	183.12
787.891	142.16
788.073	-33.96
788.254	-19.63
788.435	195.41
788.616	144.21
788.797	-11.43
788.978	0.85
789.159	101.2
789.34	62.29
789.522	-5.29
789.703	-15.53
789.884	93.01
790.065	133.97
790.246	138.07
790.427	43.86
790.607	121.68
790.788	109.4
790.969	-48.3
791.15	68.44
791.331	84.82
791.512	27.48
791.693	-44.2
791.874	23.38
792.054	103.25
792.235	160.59
792.416	-11.43
792.597	-21.67
792.778	107.35
792.958	50
793.139	138.07
793.32	35.67
793.5	80.72
793.681	160.59
793.862	13.14
794.042	93.01
794.223	-48.3
794.404	-11.43
794.584	-3.24
794.765	80.72
794.945	-23.72
795.126	95.06
795.306	107.35
795.487	129.88
795.667	-11.43
795.848	54.1
796.028	-62.63
796.209	33.62
796.389	76.63
796.57	52.05
796.75	-81.07
796.93	60.24
797.111	43.86
797.291	117.59
797.471	127.83
797.652	45.91
797.832	-64.68
798.012	133.97
798.192	19.29
798.373	-29.87
798.553	35.67
798.733	111.44
798.913	-5.29
799.093	-25.77
799.274	58.2
799.454	115.54
799.634	82.77
799.814	60.24
799.994	195.41
800.174	33.62
800.354	27.48
800.534	-36.01
800.714	4.95
800.894	-9.39
801.074	-115.88
801.254	19.29
801.434	142.16
801.614	-11.43
801.794	-101.55
801.974	1655.61
802.154	25.43
802.334	111.44
802.514	4.95
802.693	90.96
802.873	-5.29
803.053	109.4
803.233	88.92
803.413	56.15
803.592	107.35
803.772	13.14
803.952	101.2
804.131	-42.15
804.311	142.16
804.491	174.93
804.67	-13.48
804.85	-83.11
805.03	78.68
805.209	127.83
805.389	0.85
805.568	41.81
805.748	-7.34
805.928	15.19
806.107	115.54
806.287	105.3
806.466	43.86
806.646	25.43
806.825	56.15
807.004	2.9
807.184	150.36
807.363	80.72
807.543	54.1
807.722	0.85
807.901	109.4
808.081	84.82
808.26	-126.12
808.439	78.68
808.619	76.63
808.798	31.57
808.977	-21.67
809.156	82.77
809.336	74.58
809.515	68.44
809.694	-25.77
809.873	-72.87
810.052	123.73
810.231	58.2
810.411	23.38
810.59	140.12
810.769	-1.19
810.948	105.3
811.127	-54.44
811.306	66.39
811.485	-19.63
811.664	78.68
811.843	29.52
812.022	66.39
812.201	-1.19
812.38	29.52
812.559	-9.39
812.737	64.34
812.916	0.85
813.095	-17.58
813.274	123.73
813.453	9.05
813.632	45.91
813.811	13.14
813.989	-9.39
814.168	47.96
814.347	-83.11
814.526	-1.19
814.704	201.55
814.883	93.01
815.062	68.44
815.24	0.85
815.419	9.05
815.598	60.24
815.776	-62.63
815.955	78.68
816.133	-191.66
816.312	76.63
816.49	-38.06
816.669	-29.87
816.847	19.29
817.026	15.19
817.204	31.57
817.383	-1.19
817.561	-11.43
817.74	99.16
817.918	25.43
818.097	-17.58
818.275	-7.34
818.453	70.48
818.632	50
818.81	-15.53
818.988	-58.54
819.167	-40.11
819.345	21.33
819.523	-15.53
819.701	39.76
819.879	56.15
820.058	-9.39
820.236	90.96
820.414	47.96
820.592	-36.01
820.77	-15.53
820.948	-31.91
821.127	15.19
821.305	56.15
821.483	31.57
821.661	95.06
821.839	37.72
822.017	-27.82
822.195	-13.48
822.373	74.58
822.551	37.72
822.729	109.4
822.907	35.67
823.085	90.96
823.262	54.1
823.44	-11.43
823.618	-17.58
823.796	-13.48
823.974	-56.49
824.152	-3.24
824.329	21.33
824.507	17.24
824.685	72.53
824.863	45.91
825.04	58.2
825.218	-44.2
825.396	15.19
825.574	31.57
825.751	131.92
825.929	111.44
826.107	-74.92
826.284	109.4
826.462	23.38
826.639	15.19
826.817	-76.97
826.994	27.48
827.172	-40.11
827.349	84.82
827.527	72.53
827.704	35.67
827.882	82.77
828.059	4.95
828.237	-27.82
828.414	70.48
828.591	-103.59
828.769	41.81
828.946	-76.97
829.124	113.49
829.301	105.3
829.478	-1.19
829.655	80.72
829.833	37.72
830.01	-122.02
830.187	133.97
830.364	-1.19
830.542	11.09
830.719	93.01
830.896	43.86
831.073	23.38
831.25	95.06
831.427	25.43
831.604	-19.63
831.782	-5.29
831.959	146.26
832.136	-74.92
832.313	84.82
832.49	-87.21
832.667	86.87
832.844	7
833.021	125.78
833.198	-62.63
833.374	52.05
833.551	60.24
833.728	-5.29
833.905	136.02
834.082	-138.41
834.259	17.24
834.436	43.86
834.612	-19.63
834.789	142.16
834.966	33.62
835.143	58.2
835.319	-66.73
835.496	95.06
835.673	37.72
835.85	156.5
836.026	93.01
836.203	62.29
836.38	-33.96
836.556	-60.59
836.733	-27.82
836.909	121.68
837.086	37.72
837.262	-44.2
837.439	68.44
837.616	-70.83
837.792	-21.67
837.968	31.57
838.145	-31.91
838.321	-13.48
838.498	50
838.674	68.44
838.851	31.57
839.027	-3.24
839.203	33.62
839.38	35.67
839.556	62.29
839.732	90.96
839.909	84.82
840.085	101.2
840.261	-33.96
840.437	-3.24
840.614	-7.34
840.79	60.24
840.966	58.2
841.142	70.48
841.318	-101.55
841.494	68.44
841.671	56.15
841.847	-81.07
842.023	-91.31
842.199	-17.58
842.375	109.4
842.551	-23.72
842.727	31.57
842.903	117.59
843.079	-70.83
843.255	68.44
843.431	-15.53
843.607	11.09
843.783	-115.88
843.959	109.4
844.134	-9.39
844.31	156.5
844.486	-31.91
844.662	-7.34
844.838	-31.91
845.013	-5.29
845.189	76.63
845.365	11.09
845.541	9.05
845.716	21.33
845.892	88.92
846.068	-17.58
846.244	4.95
846.419	13.14
846.595	-31.91
846.77	-29.87
846.946	54.1
847.122	-72.87
847.297	2.9
847.473	183.12
847.648	-64.68
847.824	64.34
847.999	-76.97
848.175	50
848.35	56.15
848.526	35.67
848.701	95.06
848.876	105.3
849.052	21.33
849.227	-7.34
849.403	-36.01
849.578	-7.34
849.753	15.19
849.929	142.16
850.104	15.19
850.279	-11.43
850.454	25.43
850.63	80.72
850.805	31.57
850.98	33.62
851.155	-17.58
851.33	35.67
851.505	-91.31
851.681	142.16
851.856	-25.77
852.031	-17.58
852.206	35.67
852.381	-58.54
852.556	37.72
852.731	76.63
852.906	70.48
853.081	17.24
853.256	138.07
853.431	9.05
853.606	-21.67
853.781	-54.44
853.956	-107.69
854.131	45.91
854.305	15.19
854.48	-11.43
854.655	-74.92
854.83	-25.77
855.005	-44.2
855.18	45.91
855.354	39.76
855.529	-7.34
855.704	68.44
855.879	39.76
856.053	-58.54
856.228	4.95
856.403	-64.68
856.577	52.05
856.752	-38.06
856.926	-21.67
857.101	41.81
857.276	-79.02
857.45	31.57
857.625	90.96
857.799	37.72
857.974	86.87
858.148	-29.87
858.323	-23.72
858.497	2.9
858.672	-93.35
858.846	-70.83
859.02	27.48
859.195	-60.59
859.369	-21.67
859.543	56.15
859.718	19.29
859.892	54.1
860.066	-27.82
860.241	7
860.415	23.38
860.589	0.85
860.763	50
860.938	11.09
861.112	27.48
861.286	0.85
861.46	41.81
861.634	2.9
861.808	156.5
861.982	-21.67
862.157	-119.98
862.331	43.86
862.505	-70.83
862.679	-58.54
862.853	27.48
863.027	-62.63
863.201	138.07
863.375	-15.53
863.549	43.86
863.722	27.48
863.896	21.33
864.07	-9.39
864.244	-21.67
864.418	17.24
864.592	-27.82
864.766	56.15
864.939	72.53
865.113	43.86
865.287	80.72
865.461	-5.29
865.634	37.72
865.808	-21.67
865.982	-74.92
866.156	-46.25
866.329	-72.87
866.503	45.91
866.676	60.24
866.85	33.62
867.024	-68.78
867.197	60.24
867.371	2.9
867.544	86.87
867.718	-138.41
867.891	123.73
868.065	-13.48
868.238	-52.39
868.412	117.59
868.585	62.29
868.759	-25.77
868.932	-13.48
869.105	-27.82
869.279	58.2
869.452	-68.78
869.625	138.07
869.799	-46.25
869.972	11.09
870.145	9.05
870.319	78.68
870.492	19.29
870.665	-46.25
870.838	-79.02
871.011	-101.55
871.185	-5.29
871.358	43.86
871.531	17.24
871.704	-5.29
871.877	56.15
872.05	-3.24
872.223	-15.53
872.396	64.34
872.569	-1.19
872.742	-126.12
872.915	2.9
873.088	15.19
873.261	-58.54
873.434	103.25
873.607	39.76
873.78	107.35
873.953	-89.26
874.126	25.43
874.299	52.05
874.471	7
874.644	17.24
874.817	39.76
874.99	125.78
875.163	23.38
875.335	64.34
875.508	-33.96
875.681	86.87
875.853	-1.19
876.026	-70.83
876.199	58.2
876.371	50
876.544	-15.53
876.717	2.9
876.889	54.1
877.062	23.38
877.234	-74.92
877.407	-1.19
877.579	-7.34
877.752	-27.82
877.924	-27.82
878.097	90.96
878.269	9.05
878.442	21.33
878.614	-38.06
878.786	25.43
878.959	45.91
879.131	4.95
879.303	-44.2
879.476	39.76
879.648	105.3
879.82	43.86
879.993	-81.07
880.165	15.19
880.337	-62.63
880.509	9.05
880.681	-74.92
880.854	-19.63
881.026	76.63
881.198	152.4
881.37	31.57
881.542	-23.72
881.714	0.85
881.886	-42.15
882.058	4.95
882.23	25.43
882.402	17.24
882.574	99.16
882.746	109.4
882.918	142.16
883.09	68.44
883.262	-89.26
883.434	105.3
883.606	-119.98
883.778	-15.53
883.95	123.73
884.122	21.33
884.293	103.25
884.465	39.76
884.637	127.83
884.809	-27.82
884.98	64.34
885.152	39.76
885.324	27.48
885.496	-36.01
885.667	27.48
885.839	13.14
886.011	99.16
886.182	43.86
886.354	99.16
886.525	82.77
886.697	31.57
886.869	-60.59
887.04	21.33
887.212	0.85
887.383	86.87
887.555	72.53
887.726	21.33
887.897	-40.11
888.069	35.67
888.24	47.96
888.412	-70.83
888.583	29.52
888.754	-9.39
888.926	-91.31
889.097	15.19
889.268	-119.98
889.44	9.05
889.611	-91.31
889.782	-29.87
889.953	-70.83
890.125	58.2
890.296	23.38
890.467	-58.54
890.638	-72.87
890.809	-89.26
890.98	-99.5
891.151	35.67
891.323	70.48
891.494	31.57
891.665	-7.34
891.836	23.38
892.007	-42.15
892.178	62.29
892.349	35.67
892.52	-31.91
892.691	45.91
892.862	-25.77
893.032	-79.02
893.203	52.05
893.374	-11.43
893.545	93.01
893.716	-19.63
893.887	41.81
894.057	-29.87
894.228	70.48
894.399	33.62
894.57	23.38
894.74	-33.96
894.911	31.57
895.082	23.38
895.253	-54.44
895.423	11.09
895.594	84.82
895.764	2.9
895.935	2.9
896.106	72.53
896.276	-79.02
896.447	68.44
896.617	-79.02
896.788	-50.35
896.958	0.85
897.129	-40.11
897.299	-21.67
897.47	168.79
897.64	19.29
897.81	54.1
897.981	21.33
898.151	-56.49
898.322	15.19
898.492	47.96
898.662	-107.69
898.832	-5.29
899.003	52.05
899.173	35.67
899.343	-72.87
899.513	-60.59
