Data from USB4F104151__222__11-06-07-927.txt Node

Date: Wed Feb 26 11:06:07 EST 2025
User: louis
Spectrometer: USB4F10415
Trigger mode: 4
Integration Time (sec): 1.000000E-1
Scans to average: 1
Electric dark correction enabled: true
Nonlinearity correction enabled: false
Boxcar width: 0
XAxis mode: Wavelengths
Number of Pixels in Spectrum: 3648
>>>>>Begin Spectral Data<<<<<
178.204	-360.78
178.424	-360.78
178.644	-360.78
178.864	-444.75
179.084	-362.83
179.304	-31.06
179.524	7.85
179.744	44.71
179.964	52.91
180.184	48.81
180.404	3.75
180.624	-12.63
180.844	67.24
181.064	-57.68
181.283	-63.83
181.503	-96.6
181.723	36.52
181.943	-153.94
182.163	247.46
182.383	-39.25
182.602	18.09
182.822	194.22
183.042	20.14
183.262	-31.06
183.482	-31.06
183.701	-12.63
183.921	71.34
184.141	-0.34
184.361	110.25
184.58	120.49
184.8	3.75
185.02	-139.6
185.239	42.67
185.459	75.43
185.679	136.87
185.898	-0.34
186.118	89.77
186.338	-14.68
186.557	149.16
186.777	-33.11
186.997	18.09
187.216	32.43
187.436	167.59
187.655	22.19
187.875	112.3
188.095	57
188.314	200.36
188.534	138.92
188.753	-49.49
188.973	124.58
189.192	202.41
189.412	-39.25
189.631	-18.77
189.851	1.71
190.07	132.78
190.29	-72.02
190.509	7.85
190.729	38.57
190.948	171.69
191.168	206.5
191.387	-4.44
191.607	-37.2
191.826	114.34
192.045	28.33
192.265	16.04
192.484	89.77
192.704	97.96
192.923	-45.4
193.142	229.03
193.362	95.91
193.581	114.34
193.8	102.06
194.02	114.34
194.239	83.63
194.458	52.91
194.678	-14.68
194.897	5.8
195.116	100.01
195.335	59.05
195.555	13.99
195.774	20.14
195.993	173.74
196.212	93.87
196.432	-22.87
196.651	-24.92
196.87	20.14
197.089	212.65
197.308	46.76
197.528	97.96
197.747	-29.01
197.966	67.24
198.185	120.49
198.404	-69.97
198.623	151.21
198.842	145.06
199.062	161.45
199.281	122.54
199.5	59.05
199.719	87.72
199.938	71.34
200.157	26.28
200.376	134.82
200.595	130.73
200.814	16.04
201.033	1.71
201.252	122.54
201.471	46.76
201.69	-10.58
201.909	30.38
202.128	169.64
202.347	118.44
202.566	-29.01
202.785	-37.2
203.004	-51.54
203.223	286.37
203.442	106.15
203.661	-43.35
203.879	124.58
204.098	104.11
204.317	1.71
204.536	77.48
204.755	65.19
204.974	108.2
205.193	59.05
205.411	118.44
205.63	136.87
205.849	81.58
206.068	63.15
206.287	-37.2
206.505	83.63
206.724	-20.82
206.943	-35.16
207.162	-10.58
207.381	65.19
207.599	24.23
207.818	42.67
208.037	-82.26
208.255	108.2
208.474	114.34
208.693	108.2
208.911	-8.53
209.13	108.2
209.349	114.34
209.567	79.53
209.786	22.19
210.005	95.91
210.223	46.76
210.442	-4.44
210.661	16.04
210.879	95.91
211.098	46.76
211.316	30.38
211.535	-6.49
211.753	95.91
211.972	59.05
212.191	-39.25
212.409	-2.39
212.628	83.63
212.846	57
213.065	85.67
213.283	128.68
213.502	61.1
213.72	102.06
213.938	61.1
214.157	40.62
214.375	89.77
214.594	75.43
214.812	95.91
215.031	36.52
215.249	57
215.467	89.77
215.686	57
215.904	104.11
216.122	89.77
216.341	138.92
216.559	106.15
216.778	54.95
216.996	177.83
217.214	5.8
217.432	-2.39
217.651	-39.25
217.869	34.47
218.087	38.57
218.306	-4.44
218.524	24.23
218.742	46.76
218.96	97.96
219.179	52.91
219.397	7.85
219.615	181.93
219.833	57
220.051	-26.96
220.27	100.01
220.488	83.63
220.706	75.43
220.924	11.95
221.142	16.04
221.36	73.39
221.578	71.34
221.796	-29.01
222.015	30.38
222.233	73.39
222.451	239.27
222.669	-20.82
222.887	124.58
223.105	28.33
223.323	13.99
223.541	-14.68
223.759	34.47
223.977	52.91
224.195	128.68
224.413	112.3
224.631	71.34
224.849	75.43
225.067	210.6
225.285	-43.35
225.503	63.15
225.721	-94.55
225.939	81.58
226.157	50.86
226.375	253.61
226.592	-2.39
226.81	57
227.028	130.73
227.246	147.11
227.464	9.9
227.682	50.86
227.9	87.72
228.117	-31.06
228.335	44.71
228.553	-4.44
228.771	67.24
228.989	-26.96
229.206	71.34
229.424	-39.25
229.642	13.99
229.86	-43.35
230.077	122.54
230.295	87.72
230.513	97.96
230.731	108.2
230.948	218.79
231.166	159.4
231.384	-37.2
231.601	11.95
231.819	212.65
232.037	-61.78
232.254	-49.49
232.472	36.52
232.689	-20.82
232.907	116.39
233.125	38.57
233.342	50.86
233.56	-12.63
233.777	5.8
233.995	-2.39
234.213	159.4
234.43	118.44
234.648	-18.77
234.865	106.15
235.083	54.95
235.3	81.58
235.518	87.72
235.735	130.73
235.953	42.67
236.17	34.47
236.388	-29.01
236.605	-72.02
236.822	93.87
237.04	149.16
237.257	52.91
237.475	-10.58
237.692	73.39
237.909	65.19
238.127	-22.87
238.344	22.19
238.562	-29.01
238.779	-43.35
238.996	-112.98
239.214	11.95
239.431	61.1
239.648	30.38
239.865	79.53
240.083	24.23
240.3	54.95
240.517	3.75
240.735	85.67
240.952	120.49
241.169	57
241.386	-14.68
241.603	81.58
241.821	-33.11
242.038	77.48
242.255	95.91
242.472	24.23
242.689	63.15
242.907	38.57
243.124	57
243.341	79.53
243.558	30.38
243.775	-12.63
243.992	-74.07
244.209	38.57
244.426	169.64
244.643	59.05
244.86	7.85
245.078	100.01
245.295	34.47
245.512	7.85
245.729	-4.44
245.946	85.67
246.163	7.85
246.38	28.33
246.597	120.49
246.814	44.71
247.031	-6.49
247.248	28.33
247.464	38.57
247.681	46.76
247.898	42.67
248.115	87.72
248.332	11.95
248.549	132.78
248.766	126.63
248.983	114.34
249.2	110.25
249.417	93.87
249.633	5.8
249.85	79.53
250.067	9.9
250.284	-4.44
250.501	71.34
250.717	46.76
250.934	-94.55
251.151	34.47
251.368	32.43
251.585	79.53
251.801	26.28
252.018	-84.31
252.235	116.39
252.451	-29.01
252.668	3.75
252.885	153.26
253.102	71.34
253.318	5.8
253.535	-67.92
253.752	24.23
253.968	-8.53
254.185	-24.92
254.401	46.76
254.618	95.91
254.835	-12.63
255.051	149.16
255.268	77.48
255.484	54.95
255.701	18.09
255.917	-4.44
256.134	-76.12
256.351	-14.68
256.567	-2.39
256.784	13.99
257	-94.55
257.217	91.82
257.433	100.01
257.65	34.47
257.866	130.73
258.082	-65.88
258.299	-24.92
258.515	63.15
258.732	30.38
258.948	44.71
259.165	50.86
259.381	20.14
259.597	40.62
259.814	48.81
260.03	1.71
260.246	16.04
260.463	120.49
260.679	159.4
260.895	32.43
261.112	95.91
261.328	32.43
261.544	-51.54
261.761	114.34
261.977	11.95
262.193	3.75
262.409	59.05
262.626	79.53
262.842	63.15
263.058	-80.21
263.274	67.24
263.49	48.81
263.707	63.15
263.923	36.52
264.139	-47.44
264.355	-20.82
264.571	112.3
264.787	59.05
265.004	93.87
265.22	77.48
265.436	11.95
265.652	-4.44
265.868	20.14
266.084	-24.92
266.3	77.48
266.516	-22.87
266.732	75.43
266.948	91.82
267.164	71.34
267.38	95.91
267.596	40.62
267.812	171.69
268.028	5.8
268.244	-4.44
268.46	-0.34
268.676	11.95
268.892	52.91
269.108	-12.63
269.324	-43.35
269.54	3.75
269.756	114.34
269.972	-72.02
270.188	-16.73
270.403	52.91
270.619	13.99
270.835	108.2
271.051	91.82
271.267	-61.78
271.483	9.9
271.698	206.5
271.914	44.71
272.13	13.99
272.346	20.14
272.562	65.19
272.777	128.68
272.993	34.47
273.209	95.91
273.425	69.29
273.64	-90.45
273.856	54.95
274.072	-2.39
274.287	-29.01
274.503	136.87
274.719	151.21
274.934	-63.83
275.15	-24.92
275.366	104.11
275.581	1.71
275.797	36.52
276.012	-2.39
276.228	61.1
276.444	-18.77
276.659	140.97
276.875	-35.16
277.09	-16.73
277.306	95.91
277.521	192.17
277.737	36.52
277.952	157.35
278.168	18.09
278.383	97.96
278.599	46.76
278.814	159.4
279.03	50.86
279.245	216.74
279.461	3.75
279.676	16.04
279.892	-94.55
280.107	-74.07
280.322	-78.16
280.538	95.91
280.753	61.1
280.969	-35.16
281.184	-49.49
281.399	134.82
281.615	54.95
281.83	77.48
282.045	-33.11
282.26	22.19
282.476	26.28
282.691	120.49
282.906	16.04
283.122	54.95
283.337	-20.82
283.552	16.04
283.767	22.19
283.983	114.34
284.198	36.52
284.413	83.63
284.628	-55.64
284.843	59.05
285.058	114.34
285.274	18.09
285.489	-18.77
285.704	130.73
285.919	28.33
286.134	22.19
286.349	24.23
286.564	-8.53
286.779	136.87
286.995	46.76
287.21	-90.45
287.425	87.72
287.64	-37.2
287.855	112.3
288.07	-72.02
288.285	200.36
288.5	69.29
288.715	95.91
288.93	50.86
289.145	-33.11
289.36	149.16
289.575	24.23
289.79	120.49
290.004	-2.39
290.219	108.2
290.434	-31.06
290.649	22.19
290.864	-41.3
291.079	44.71
291.294	-2.39
291.509	9.9
291.724	-37.2
291.938	-0.34
292.153	85.67
292.368	34.47
292.583	40.62
292.798	40.62
293.012	91.82
293.227	63.15
293.442	-16.73
293.657	77.48
293.871	79.53
294.086	28.33
294.301	249.51
294.516	83.63
294.73	-4.44
294.945	22.19
295.16	85.67
295.374	128.68
295.589	63.15
295.804	11.95
296.018	71.34
296.233	87.72
296.447	36.52
296.662	38.57
296.877	128.68
297.091	52.91
297.306	13.99
297.52	11.95
297.735	81.58
297.949	54.95
298.164	26.28
298.378	26.28
298.593	-10.58
298.807	106.15
299.022	-18.77
299.236	179.88
299.451	63.15
299.665	69.29
299.88	24.23
300.094	67.24
300.309	40.62
300.523	93.87
300.737	16.04
300.952	71.34
301.166	71.34
301.381	-29.01
301.595	-20.82
301.809	91.82
302.024	34.47
302.238	-67.92
302.452	77.48
302.667	20.14
302.881	157.35
303.095	124.58
303.309	26.28
303.524	-90.45
303.738	16.04
303.952	26.28
304.166	5.8
304.381	-90.45
304.595	130.73
304.809	-22.87
305.023	26.28
305.237	-33.11
305.452	1.71
305.666	110.25
305.88	69.29
306.094	149.16
306.308	26.28
306.522	110.25
306.736	-0.34
306.95	32.43
307.164	-35.16
307.379	-37.2
307.593	61.1
307.807	116.39
308.021	59.05
308.235	100.01
308.449	-2.39
308.663	18.09
308.877	206.5
309.091	100.01
309.305	149.16
309.519	-186.71
309.733	145.06
309.947	-57.68
310.161	34.47
310.374	44.71
310.588	63.15
310.802	-61.78
311.016	63.15
311.23	16.04
311.444	-88.4
311.658	24.23
311.872	95.91
312.085	124.58
312.299	108.2
312.513	186.02
312.727	85.67
312.941	-8.53
313.154	87.72
313.368	132.78
313.582	32.43
313.796	106.15
314.009	-22.87
314.223	177.83
314.437	52.91
314.651	110.25
314.864	-53.59
315.078	1.71
315.292	-29.01
315.505	61.1
315.719	87.72
315.933	138.92
316.146	75.43
316.36	-43.35
316.573	159.4
316.787	63.15
317.001	87.72
317.214	-57.68
317.428	44.71
317.641	3.75
317.855	30.38
318.068	26.28
318.282	59.05
318.495	222.89
318.709	112.3
318.922	-16.73
319.136	65.19
319.349	241.32
319.563	-14.68
319.776	108.2
319.99	-125.27
320.203	50.86
320.417	18.09
320.63	81.58
320.843	134.82
321.057	71.34
321.27	118.44
321.483	65.19
321.697	104.11
321.91	42.67
322.124	149.16
322.337	120.49
322.55	-41.3
322.763	61.1
322.977	28.33
323.19	13.99
323.403	42.67
323.617	67.24
323.83	79.53
324.043	-26.96
324.256	134.82
324.469	-72.02
324.683	-4.44
324.896	-18.77
325.109	-8.53
325.322	30.38
325.535	46.76
325.748	177.83
325.962	61.1
326.175	114.34
326.388	13.99
326.601	48.81
326.814	42.67
327.027	61.1
327.24	128.68
327.453	-55.64
327.666	73.39
327.879	83.63
328.092	-4.44
328.305	95.91
328.518	69.29
328.731	42.67
328.944	-10.58
329.157	28.33
329.37	7.85
329.583	171.69
329.796	126.63
330.009	-41.3
330.222	145.06
330.435	65.19
330.648	13.99
330.861	77.48
331.073	22.19
331.286	118.44
331.499	63.15
331.712	36.52
331.925	-49.49
332.138	-0.34
332.35	122.54
332.563	-61.78
332.776	175.78
332.989	48.81
333.202	54.95
333.414	1.71
333.627	-18.77
333.84	-37.2
334.053	40.62
334.265	26.28
334.478	34.47
334.691	-22.87
334.903	77.48
335.116	-55.64
335.329	18.09
335.541	120.49
335.754	175.78
335.966	18.09
336.179	-35.16
336.392	-31.06
336.604	87.72
336.817	171.69
337.029	16.04
337.242	57
337.454	54.95
337.667	38.57
337.88	124.58
338.092	71.34
338.305	20.14
338.517	44.71
338.729	93.87
338.942	122.54
339.154	-33.11
339.367	79.53
339.579	91.82
339.792	24.23
340.004	110.25
340.217	5.8
340.429	42.67
340.641	-45.4
340.854	-84.31
341.066	83.63
341.278	108.2
341.491	175.78
341.703	38.57
341.915	50.86
342.128	110.25
342.34	65.19
342.552	46.76
342.764	69.29
342.977	54.95
343.189	102.06
343.401	44.71
343.613	1.71
343.826	67.24
344.038	-6.49
344.25	63.15
344.462	-74.07
344.674	48.81
344.886	26.28
345.099	93.87
345.311	69.29
345.523	20.14
345.735	-39.25
345.947	93.87
346.159	57
346.371	65.19
346.583	108.2
346.795	126.63
347.007	3.75
347.219	59.05
347.431	26.28
347.643	153.26
347.855	-2.39
348.067	161.45
348.279	-33.11
348.491	97.96
348.703	85.67
348.915	67.24
349.127	3.75
349.339	-4.44
349.551	-20.82
349.763	145.06
349.975	20.14
350.187	97.96
350.399	102.06
350.61	71.34
350.822	42.67
351.034	48.81
351.246	48.81
351.458	-35.16
351.669	50.86
351.881	46.76
352.093	116.39
352.305	112.3
352.517	93.87
352.728	167.59
352.94	9.9
353.152	46.76
353.363	-55.64
353.575	61.1
353.787	136.87
353.999	85.67
354.21	175.78
354.422	42.67
354.633	1.71
354.845	79.53
355.057	28.33
355.268	30.38
355.48	102.06
355.692	-82.26
355.903	11.95
356.115	-49.49
356.326	-84.31
356.538	130.73
356.749	126.63
356.961	188.07
357.172	126.63
357.384	-80.21
357.595	183.98
357.807	28.33
358.018	-18.77
358.23	28.33
358.441	179.88
358.653	46.76
358.864	46.76
359.075	-12.63
359.287	132.78
359.498	126.63
359.709	124.58
359.921	110.25
360.132	75.43
360.344	22.19
360.555	-2.39
360.766	75.43
360.977	-4.44
361.189	134.82
361.4	34.47
361.611	138.92
361.823	102.06
362.034	24.23
362.245	-47.44
362.456	3.75
362.667	24.23
362.879	-33.11
363.09	52.91
363.301	91.82
363.512	95.91
363.723	18.09
363.935	-37.2
364.146	108.2
364.357	-39.25
364.568	40.62
364.779	-49.49
364.99	169.64
365.201	-22.87
365.412	171.69
365.623	-22.87
365.834	130.73
366.045	-74.07
366.256	7.85
366.467	11.95
366.678	85.67
366.889	1.71
367.1	50.86
367.311	106.15
367.522	-8.53
367.733	108.2
367.944	40.62
368.155	-16.73
368.366	18.09
368.577	181.93
368.788	85.67
368.999	-12.63
369.209	124.58
369.42	218.79
369.631	216.74
369.842	147.11
370.053	-43.35
370.264	63.15
370.474	-47.44
370.685	87.72
370.896	7.85
371.107	153.26
371.317	122.54
371.528	71.34
371.739	83.63
371.95	57
372.16	102.06
372.371	-45.4
372.582	-45.4
372.792	46.76
373.003	63.15
373.214	100.01
373.424	30.38
373.635	-41.3
373.846	106.15
374.056	24.23
374.267	97.96
374.477	120.49
374.688	16.04
374.898	116.39
375.109	-18.77
375.319	36.52
375.53	114.34
375.74	3.75
375.951	48.81
376.161	46.76
376.372	79.53
376.582	46.76
376.793	3.75
377.003	-76.12
377.214	3.75
377.424	89.77
377.635	24.23
377.845	-47.44
378.055	153.26
378.266	20.14
378.476	18.09
378.686	34.47
378.897	108.2
379.107	173.74
379.317	57
379.528	34.47
379.738	132.78
379.948	-29.01
380.158	149.16
380.369	46.76
380.579	85.67
380.789	73.39
380.999	26.28
381.21	77.48
381.42	212.65
381.63	32.43
381.84	102.06
382.05	122.54
382.261	140.97
382.471	153.26
382.681	116.39
382.891	247.46
383.101	11.95
383.311	-96.6
383.521	-29.01
383.731	65.19
383.941	67.24
384.151	116.39
384.361	61.1
384.571	69.29
384.781	44.71
384.991	212.65
385.201	186.02
385.411	38.57
385.621	91.82
385.831	44.71
386.041	77.48
386.251	106.15
386.461	83.63
386.671	34.47
386.881	69.29
387.091	-8.53
387.301	169.64
387.511	20.14
387.72	52.91
387.93	102.06
388.14	-104.79
388.35	46.76
388.56	108.2
388.769	61.1
388.979	52.91
389.189	-61.78
389.399	-10.58
389.609	145.06
389.818	104.11
390.028	71.34
390.238	73.39
390.447	-67.92
390.657	73.39
390.867	9.9
391.076	-65.88
391.286	83.63
391.496	67.24
391.705	-20.82
391.915	104.11
392.125	145.06
392.334	9.9
392.544	106.15
392.753	-14.68
392.963	36.52
393.172	5.8
393.382	24.23
393.591	231.08
393.801	63.15
394.01	208.55
394.22	155.3
394.429	69.29
394.639	-33.11
394.848	79.53
395.058	95.91
395.267	-0.34
395.477	106.15
395.686	-2.39
395.895	149.16
396.105	192.17
396.314	100.01
396.524	-10.58
396.733	87.72
396.942	151.21
397.152	57
397.361	165.54
397.57	73.39
397.78	34.47
397.989	114.34
398.198	175.78
398.407	118.44
398.617	28.33
398.826	61.1
399.035	65.19
399.244	71.34
399.453	34.47
399.663	38.57
399.872	63.15
400.081	-20.82
400.29	165.54
400.499	40.62
400.708	95.91
400.917	63.15
401.127	24.23
401.336	-33.11
401.545	151.21
401.754	73.39
401.963	79.53
402.172	26.28
402.381	-22.87
402.59	16.04
402.799	71.34
403.008	75.43
403.217	69.29
403.426	57
403.635	-4.44
403.844	26.28
404.053	22.19
404.262	3.75
404.471	251.56
404.68	143.02
404.888	54.95
405.097	65.19
405.306	34.47
405.515	134.82
405.724	40.62
405.933	85.67
406.142	26.28
406.35	89.77
406.559	81.58
406.768	24.23
406.977	145.06
407.185	112.3
407.394	71.34
407.603	-80.21
407.812	44.71
408.02	192.17
408.229	48.81
408.438	147.11
408.646	-72.02
408.855	-2.39
409.064	16.04
409.272	54.95
409.481	138.92
409.69	-33.11
409.898	11.95
410.107	1.71
410.315	91.82
410.524	-6.49
410.733	57
410.941	-16.73
411.15	149.16
411.358	151.21
411.567	157.35
411.775	89.77
411.984	42.67
412.192	132.78
412.401	87.72
412.609	224.94
412.818	190.12
413.026	63.15
413.234	-47.44
413.443	18.09
413.651	18.09
413.86	67.24
414.068	231.08
414.276	210.6
414.485	97.96
414.693	212.65
414.901	171.69
415.11	42.67
415.318	16.04
415.526	81.58
415.734	108.2
415.943	147.11
416.151	186.02
416.359	11.95
416.567	61.1
416.776	97.96
416.984	140.97
417.192	196.26
417.4	-31.06
417.608	28.33
417.817	1.71
418.025	175.78
418.233	194.22
418.441	-8.53
418.649	54.95
418.857	32.43
419.065	165.54
419.273	65.19
419.481	67.24
419.689	93.87
419.897	34.47
420.105	-33.11
420.313	120.49
420.521	128.68
420.729	171.69
420.937	44.71
421.145	13.99
421.353	81.58
421.561	151.21
421.769	63.15
421.977	34.47
422.185	71.34
422.393	-8.53
422.601	77.48
422.809	97.96
423.017	155.3
423.224	97.96
423.432	128.68
423.64	79.53
423.848	134.82
424.056	42.67
424.263	163.5
424.471	95.91
424.679	124.58
424.887	3.75
425.094	149.16
425.302	61.1
425.51	42.67
425.718	95.91
425.925	138.92
426.133	3.75
426.341	237.22
426.548	38.57
426.756	-14.68
426.964	143.02
427.171	32.43
427.379	97.96
427.586	38.57
427.794	102.06
428.001	218.79
428.209	110.25
428.417	177.83
428.624	120.49
428.832	153.26
429.039	100.01
429.247	97.96
429.454	124.58
429.662	261.8
429.869	106.15
430.076	155.3
430.284	161.45
430.491	235.18
430.699	100.01
430.906	253.61
431.114	188.07
431.321	167.59
431.528	147.11
431.736	149.16
431.943	190.12
432.15	175.78
432.358	175.78
432.565	208.55
432.772	40.62
432.979	155.3
433.187	163.5
433.394	233.13
433.601	95.91
433.808	210.6
434.016	308.9
434.223	163.5
434.43	247.46
434.637	241.32
434.844	294.57
435.052	171.69
435.259	257.7
435.466	220.84
435.673	231.08
435.88	222.89
436.087	323.24
436.294	380.58
436.501	358.05
436.708	276.13
436.915	269.99
437.122	337.57
437.329	274.09
437.537	358.05
437.743	362.15
437.95	368.29
438.157	372.39
438.364	310.95
438.571	403.11
438.778	444.07
438.985	425.64
439.192	476.84
439.399	407.2
439.606	521.89
439.813	528.03
440.02	554.66
440.227	671.39
440.433	642.72
440.64	521.89
440.847	439.97
441.054	607.91
441.261	743.07
441.467	564.9
441.674	564.9
441.881	720.54
442.088	585.38
442.294	698.02
442.501	808.61
442.708	835.23
442.914	693.92
443.121	851.61
443.328	831.13
443.534	943.77
443.741	917.15
443.948	786.08
444.154	1078.94
444.361	1078.94
444.568	972.44
444.774	1029.79
444.981	970.4
445.187	1185.43
445.394	1175.19
445.6	1048.22
445.807	1298.07
446.013	1300.12
446.22	1218.2
446.426	1480.34
446.633	1549.97
446.839	1754.77
447.046	1431.19
447.252	1683.09
447.459	1547.92
447.665	1658.51
447.871	1869.45
448.078	1910.41
448.284	1871.5
448.491	1953.42
448.697	2025.1
448.903	2135.69
449.11	2227.85
449.316	2125.45
449.522	2406.02
449.728	2455.17
449.935	2506.37
450.141	2533
450.347	2778.75
450.553	2715.27
450.76	2817.66
450.966	3038.84
451.172	3034.75
451.378	3171.96
451.584	3208.83
451.791	3413.62
451.997	3423.86
452.203	3614.32
452.409	3845.74
452.615	4013.68
452.821	3825.26
453.027	3888.75
453.233	4521.57
453.44	4234.86
453.646	4468.33
453.852	4701.79
454.058	4851.3
454.264	4927.07
454.47	5221.98
454.676	5289.56
454.882	5883.47
455.088	5484.12
455.294	6057.55
455.5	6221.39
455.705	6653.51
455.911	6598.21
456.117	6643.27
456.323	7067.2
456.529	6970.94
456.735	7663.16
456.941	7685.69
457.147	8181.29
457.352	8308.27
457.558	8449.58
457.764	9213.47
457.97	9504.28
458.176	9743.89
458.381	10153.49
458.587	10569.23
458.793	11032.07
458.999	10751.49
459.204	12346.86
459.41	12561.9
459.616	12676.59
459.821	13440.48
460.027	14058.96
460.233	14507.47
460.438	14511.57
460.644	15537.6
460.85	15631.8
461.055	16235.95
461.261	16977.32
461.466	16889.26
461.672	17065.38
461.878	19193.22
462.083	18795.92
462.289	18931.08
462.494	19991.93
462.7	19981.69
462.905	20465.01
463.111	22357.33
463.316	23113.03
463.522	23586.11
463.727	24151.35
463.932	25169.19
464.138	25744.67
464.343	27034.89
464.549	27086.09
464.754	29285.61
464.959	29877.47
465.165	30250.21
465.37	30475.48
465.575	30475.48
465.781	32019.65
465.986	33596.59
466.191	32556.22
466.397	33017.01
466.602	32509.11
466.807	33883.3
467.012	34690.2
467.218	35501.2
467.423	35404.94
467.628	36365.44
467.833	38050.92
468.038	37481.58
468.244	36787.32
468.449	39009.37
468.654	37837.93
468.859	38198.37
469.064	37909.61
469.269	37557.36
469.474	37393.52
469.679	38554.72
469.885	37457.01
470.09	37944.42
470.295	38034.53
470.5	36979.83
470.705	37493.87
470.91	36344.96
471.115	36097.16
471.32	36580.48
471.525	36613.24
471.73	35347.6
471.935	35310.74
472.139	33778.86
472.344	34356.38
472.549	34176.16
472.754	32734.39
472.959	32292.03
473.164	31319.24
473.369	30792.92
473.574	31894.72
473.778	31175.89
473.983	30756.05
474.188	30229.73
474.393	28398.84
474.598	28423.42
474.802	27923.71
475.007	27555.08
475.212	27462.92
475.417	26039.58
475.621	25892.13
475.826	25836.83
476.031	24808.75
476.235	24507.7
476.44	24542.52
476.645	23817.54
476.849	23807.3
477.054	23184.71
477.259	22682.96
477.463	22879.57
477.668	22005.08
477.872	22123.87
478.077	21362.02
478.282	20829.55
478.486	20471.15
478.691	20362.61
478.895	20295.03
479.1	20184.44
479.304	19932.54
479.509	19543.42
479.713	19621.25
479.918	19013
480.122	18519.44
480.326	18959.75
480.531	18886.03
480.735	18529.68
480.94	18462.1
481.144	18947.47
481.348	17669.53
481.553	18333.07
481.757	17468.83
481.961	17620.38
482.166	17735.07
482.37	17524.13
482.574	17059.24
482.778	17118.63
482.983	17288.61
483.187	16958.89
483.391	16688.56
483.595	16434.61
483.8	16410.03
484.004	16416.18
484.208	16592.3
484.412	16190.9
484.616	16195
484.821	15840.7
485.025	15214.02
485.229	15543.74
485.433	15121.86
485.637	14919.11
485.841	14636.49
486.045	14609.87
486.249	14288.34
486.453	14050.77
486.657	14038.48
486.861	14116.31
487.065	13438.43
487.269	13436.38
487.473	12951.01
487.677	13166.05
487.881	12942.82
488.085	12455.4
488.289	12340.72
488.493	12025.33
488.697	12137.97
488.901	11863.54
489.105	11761.14
489.309	11570.68
489.512	11388.41
489.716	11056.64
489.92	10671.62
490.124	10628.62
490.328	10696.2
490.531	10094.1
490.735	10259.98
490.939	9960.98
491.143	9604.63
491.346	9602.58
491.55	9461.27
491.754	9405.98
491.958	9102.88
492.161	8951.33
492.365	9023.01
492.569	8724.01
492.772	8621.61
492.976	8609.32
493.18	8279.6
493.383	8435.24
493.587	8236.59
493.79	8082.99
493.994	7937.59
494.197	7906.87
494.401	7800.37
494.605	7751.22
494.808	7902.77
495.012	7681.59
495.215	7632.44
495.419	7693.88
495.622	7280.19
495.825	7288.38
496.029	7466.55
496.232	7382.59
496.436	7177.79
496.639	7392.83
496.843	7224.89
497.046	7321.15
497.249	7384.63
497.453	7243.32
497.656	7251.52
497.859	7284.28
498.063	7300.67
498.266	7421.5
498.469	7188.03
498.673	7321.15
498.876	7267.9
499.079	7425.59
499.282	7296.57
499.485	7667.25
499.689	7468.6
499.892	7607.86
500.095	7501.37
500.298	7771.7
500.501	7407.16
500.705	7777.84
500.908	7824.95
501.111	8050.22
501.314	8015.41
501.517	8156.72
501.72	8214.06
501.923	8238.64
502.126	8214.06
502.329	8472.11
502.532	8410.67
502.735	8250.92
502.938	8435.24
503.141	8773.16
503.344	8955.43
503.547	9131.55
503.75	9223.71
503.953	9240.09
504.156	9322.01
504.359	9451.03
504.562	9483.8
504.765	9911.83
504.968	9903.64
505.17	10145.3
505.373	10274.32
505.576	10339.85
505.779	10386.96
505.982	10599.94
506.185	10733.06
506.387	10913.28
506.59	11077.12
506.793	11435.52
506.996	11611.64
507.198	12111.35
507.401	12207.6
507.604	12221.94
507.807	12563.95
508.009	12717.54
508.212	12914.15
508.415	13110.75
508.617	13268.45
508.82	13624.79
509.022	13661.66
509.225	14349.78
509.428	14384.59
509.63	14824.9
509.833	15005.13
510.035	15678.91
510.238	15689.15
510.44	16145.84
510.643	16668.08
510.845	17130.92
511.048	17079.72
511.25	17669.53
511.453	17784.22
511.655	18961.8
511.858	18974.09
512.06	19307.91
512.262	19301.76
512.465	20301.17
512.667	20508.02
512.87	20831.6
513.072	21343.59
513.274	22025.56
513.477	22254.94
513.679	22977.87
513.881	23205.19
514.084	24149.31
514.286	24485.17
514.488	24945.97
514.69	25773.35
514.893	26029.34
515.095	26678.55
515.297	27213.07
515.499	27657.48
515.701	28148.99
515.904	29080.81
516.106	29234.41
516.308	30213.34
516.51	31077.58
516.712	30923.99
516.914	32017.6
517.116	32771.25
517.318	32918.71
517.52	33631.4
517.722	34315.42
517.925	34870.42
518.127	35431.57
518.329	36314.24
518.531	36424.83
518.733	37727.34
518.935	37672.04
519.136	38446.18
519.338	39382.1
519.54	39398.48
519.742	40303.68
519.944	40721.47
520.146	41767.98
520.348	42066.98
520.55	42830.88
520.752	43086.87
520.954	43758.61
521.155	43678.74
521.357	44805.12
521.559	45272.06
521.761	46076.91
521.963	46205.93
522.164	46099.44
522.366	46918.62
522.568	47152.09
522.77	47455.19
522.971	48403.4
523.173	48337.87
523.375	48597.96
523.576	48790.47
523.778	48944.06
523.98	49497.02
524.181	49699.76
524.383	49415.1
524.584	50150.32
524.786	49943.47
524.988	49431.48
525.189	50551.72
525.391	50385.83
525.592	50711.46
525.794	50733.99
525.995	50635.69
526.197	50414.51
526.398	50496.42
526.6	50285.48
526.801	50129.84
527.003	50285.48
527.204	50189.23
527.406	50056.11
527.607	49609.65
527.808	49652.66
528.01	48532.42
528.211	48544.71
528.412	49241.02
528.614	48774.08
528.815	48352.2
529.016	48376.78
529.218	47201.24
529.419	47186.91
529.62	46427.11
529.822	46234.6
530.023	45669.36
530.224	45292.54
530.425	44612.61
530.626	44352.52
530.828	43826.19
531.029	44481.54
531.23	43410.45
531.431	42671.14
531.632	42531.87
531.833	41964.59
532.035	41743.41
532.236	40780.86
532.437	40735.81
532.638	39971.91
532.839	39871.56
533.04	39165.01
533.241	38253.67
533.442	38546.53
533.643	37815.4
533.844	37129.33
534.045	36729.98
534.246	35849.35
534.447	35976.33
534.648	35130.51
534.849	34778.26
535.05	34041
535.251	33823.91
535.451	33602.73
535.652	32896.18
535.853	32562.36
536.054	31634.63
536.255	31857.86
536.456	31065.3
536.657	30960.85
536.857	30385.37
537.058	29947.11
537.259	30026.98
537.46	29695.21
537.66	28628.21
537.861	28525.82
538.062	28349.69
538.263	27856.13
538.463	27122.96
538.664	26801.43
538.865	26502.42
539.065	26520.85
539.266	25793.83
539.466	25871.65
539.667	25406.76
539.868	25187.63
540.068	24542.52
540.269	24528.18
540.469	24245.56
540.67	24083.77
540.87	23743.81
541.071	23160.14
541.271	23412.04
541.472	23178.57
541.672	22539.6
541.873	22173.02
542.073	21880.16
542.274	21955.93
542.474	21513.57
542.675	21323.11
542.875	21106.02
543.075	21042.54
543.276	20471.15
543.476	20438.39
543.676	20397.43
543.877	19991.93
544.077	19862.91
544.277	19748.22
544.478	19228.04
544.678	19213.7
544.878	18988.42
545.078	18924.94
545.279	18431.38
545.479	18236.82
545.679	18070.93
545.879	17941.91
546.079	17593.76
546.28	17378.72
546.48	17194.4
546.68	17137.06
546.88	16852.39
547.08	16788.91
547.28	16663.98
547.48	16119.22
547.68	16080.31
547.88	15887.8
548.081	15615.42
548.281	15275.46
548.481	15134.15
548.681	15289.79
548.881	14736.84
549.081	14874.06
549.28	14366.16
549.48	14265.81
549.68	14312.91
549.88	14239.19
550.08	13528.54
550.28	13755.86
550.48	13524.44
550.68	13301.22
550.88	12908.01
551.08	13020.64
551.279	12887.53
551.479	12385.77
551.679	12535.28
551.879	12250.61
552.079	11929.08
552.278	11931.12
552.478	11773.43
552.678	11560.44
552.878	11535.87
553.077	11032.07
553.277	10937.86
553.477	10886.66
553.676	10712.58
553.876	10599.94
554.076	10120.72
554.275	10204.69
554.475	9782.81
554.674	9952.79
554.874	9707.03
555.074	9291.29
555.273	9555.48
555.473	9264.67
555.672	9217.57
555.872	9000.48
556.071	8883.75
556.271	8828.45
556.47	8375.85
556.67	8181.29
556.869	8367.66
557.068	8316.46
557.268	8054.32
557.467	7896.63
557.667	7700.02
557.866	7659.06
558.065	7501.37
558.265	7421.5
558.464	6997.57
558.663	7167.55
558.863	6884.93
559.062	7050.82
559.261	6762.05
559.461	6852.16
559.66	6612.55
559.859	6563.4
560.058	6325.83
560.258	6219.34
560.457	6239.82
560.656	6239.82
560.855	5883.47
561.054	6047.31
561.253	5738.07
561.453	5680.72
561.652	5672.53
561.851	5711.44
562.05	5353.05
562.249	5244.51
562.448	5326.43
562.647	5199.45
562.846	5148.25
563.045	5101.15
563.244	4949.6
563.443	4968.03
563.642	4922.98
563.841	5107.29
564.04	4636.26
564.239	4585.06
564.438	4638.31
564.637	4408.94
564.836	4421.22
565.035	4421.22
565.234	4372.07
565.432	4271.72
565.631	4159.08
565.83	4150.89
566.029	4249.19
566.228	3810.93
566.427	4138.6
566.625	3884.66
566.824	3739.25
567.023	3880.56
567.222	3714.67
567.42	3696.24
567.619	3759.73
567.818	3663.47
568.016	3747.44
568.215	3487.35
568.414	3462.77
568.612	3489.4
568.811	3333.75
569.01	3294.84
569.208	3307.13
569.407	3217.02
569.605	3198.59
569.804	3083.9
570.002	3065.47
570.201	2999.93
570.4	2985.6
570.598	2838.14
570.797	2895.49
570.995	2647.68
571.193	2795.14
571.392	2832
571.59	2698.88
571.789	2635.39
571.987	2772.61
572.186	2651.78
572.384	2489.99
572.582	2477.7
572.781	2588.29
572.979	2395.78
573.177	2367.11
573.376	2463.37
573.574	2383.49
573.772	2270.86
573.971	2229.9
574.169	2246.28
574.367	2193.03
574.565	2160.27
574.763	2068.11
574.962	2121.35
575.16	2125.45
575.358	1957.52
575.556	1980.04
575.754	1945.23
575.952	1869.45
576.151	1930.89
576.349	1881.74
576.547	1746.58
576.745	1846.93
576.943	1783.44
577.141	1566.35
577.339	1742.48
577.537	1746.58
577.735	1836.69
577.933	1676.95
578.131	1545.88
578.329	1666.71
578.527	1492.63
578.725	1574.55
578.923	1500.82
579.121	1595.03
579.319	1398.42
579.516	1470.1
579.714	1648.27
579.912	1492.63
580.11	1361.56
580.308	1289.88
580.506	1363.61
580.704	1302.17
580.901	1236.63
581.099	1404.57
581.297	1359.51
581.495	1271.45
581.692	1085.08
581.89	1336.98
582.088	1236.63
582.285	1033.88
582.483	1167
582.681	1187.48
582.878	1095.32
583.076	1171.1
583.274	1144.47
583.471	1205.91
583.669	1060.51
583.866	1011.36
584.064	1011.36
584.262	992.92
584.459	986.78
584.657	1009.31
584.854	896.67
585.052	990.88
585.249	949.92
585.447	1080.99
585.644	689.82
585.841	1009.31
586.039	990.88
586.236	1015.45
586.434	890.53
586.631	771.74
586.828	837.28
587.026	896.67
587.223	859.81
587.42	786.08
587.618	808.61
587.815	870.05
588.012	806.56
588.21	800.41
588.407	792.22
588.604	843.42
588.801	777.89
588.999	773.79
589.196	831.13
589.393	720.54
589.59	695.97
589.787	689.82
589.984	734.88
590.182	747.17
590.379	687.78
590.576	712.35
590.773	628.39
590.97	620.19
591.167	747.17
591.364	712.35
591.561	675.49
591.758	822.94
591.955	738.98
592.152	679.58
592.349	618.15
592.546	687.78
592.743	636.58
592.94	790.17
593.137	755.36
593.334	827.04
593.531	784.03
593.727	683.68
593.924	732.83
594.121	622.24
594.318	589.47
594.515	665.25
594.712	794.27
594.908	824.99
595.105	597.67
595.302	849.57
595.499	736.93
595.696	833.18
595.892	691.87
596.089	843.42
596.286	716.45
596.482	870.05
596.679	876.19
596.876	773.79
597.072	1013.4
597.269	890.53
597.466	964.25
597.662	997.02
597.859	941.72
598.055	939.68
598.252	892.57
598.448	994.97
598.645	1087.13
598.841	1033.88
599.038	1291.93
599.234	1289.88
599.431	1345.17
599.627	1222.3
599.824	1275.54
600.02	1328.79
600.217	1400.47
600.413	1490.58
600.609	1607.31
600.806	1844.88
601.002	1640.08
601.198	1662.61
601.395	1832.59
601.591	1832.59
601.787	1953.42
601.984	1975.95
602.18	2115.21
602.376	2070.16
602.572	2209.42
602.769	2371.21
602.965	2311.82
603.161	2446.98
603.357	2500.23
603.553	2604.67
603.75	2510.47
603.946	2594.44
604.142	2754.18
604.338	2883.2
604.534	2913.92
604.73	3067.52
604.926	3106.43
605.122	3214.97
605.318	3354.23
605.514	3413.62
605.71	3614.32
605.906	3794.54
606.102	3761.78
606.298	4032.11
606.494	4077.16
606.69	4445.8
606.886	4359.78
607.082	4378.22
607.278	4480.61
607.474	4527.72
607.67	4863.58
607.866	4922.98
608.062	5273.18
608.257	5246.55
608.453	5295.71
608.649	5457.5
608.845	5686.87
609.041	5865.04
609.236	6108.75
609.432	6102.61
609.628	6239.82
609.824	6485.58
610.019	6659.65
610.215	6841.92
610.411	7067.2
610.606	7224.89
610.802	7220.8
610.998	7370.3
611.193	7695.93
611.389	7847.47
611.584	8183.34
611.78	8080.94
611.976	8441.39
612.171	8943.14
612.367	8928.8
612.562	9182.75
612.758	9242.14
612.953	9442.84
613.149	9948.69
613.344	10065.43
613.539	10501.64
613.735	10769.93
613.93	10862.08
614.126	11101.7
614.321	11613.69
614.517	11834.87
614.712	11986.42
614.907	12346.86
615.103	12809.7
615.298	12987.88
615.493	13338.08
615.688	13702.62
615.884	14230.99
616.079	14222.8
616.274	14829
616.47	15250.88
616.665	15263.17
616.86	15515.07
617.055	16174.52
617.25	16256.43
617.445	17034.66
617.641	17339.81
617.836	18072.98
618.031	18142.61
618.226	18939.27
618.421	19131.78
618.616	19703.17
618.811	19897.72
619.006	20532.59
619.201	20553.07
619.396	21433.7
619.591	21503.33
619.786	22123.87
619.981	22279.51
620.176	23547.2
620.371	23530.82
620.566	24694.07
620.761	24634.67
620.956	24995.12
621.151	25228.59
621.346	26184.99
621.541	26328.34
621.735	27374.86
621.93	27489.54
622.125	28282.11
622.32	28323.07
622.515	29123.82
622.709	29566.18
622.904	30158.05
623.099	30391.51
623.294	31300.81
623.488	31497.42
623.683	32062.66
623.878	32449.72
624.072	32965.81
624.267	33340.59
624.462	34106.53
624.656	34204.83
624.851	35089.56
625.046	35523.72
625.24	35968.13
625.435	36375.68
625.629	36797.56
625.824	37616.75
626.018	37964.9
626.213	37637.23
626.407	38622.3
626.602	38581.34
626.796	39521.36
626.991	39742.54
627.185	40078.41
627.38	40238.15
627.574	40750.14
627.768	40750.14
627.963	40350.79
628.157	40465.47
628.352	41278.52
628.546	40436.8
628.74	41372.72
628.935	40719.42
629.129	41075.77
629.323	40711.23
629.517	40510.53
629.712	40336.45
629.906	40023.11
630.1	39511.12
630.294	39457.87
630.489	38515.81
630.683	38474.85
630.877	37436.53
631.071	37254.26
631.265	36205.7
631.459	35597.45
631.653	34626.71
631.848	33907.88
632.042	33209.52
632.236	32619.7
632.43	31177.93
632.624	31061.2
632.818	29580.52
633.012	29009.14
633.206	27933.95
633.4	27241.74
633.594	26103.07
633.788	25431.33
633.982	24644.91
634.176	23678.27
634.369	22650.19
634.563	21828.96
634.757	20792.69
634.951	20241.78
635.145	19600.77
635.339	18568.59
635.533	17853.85
635.726	17292.71
635.92	16463.28
636.114	15986.1
636.308	15171.01
636.501	14699.98
636.695	14138.83
636.889	13319.65
637.083	13039.08
637.276	12402.16
637.47	11871.73
637.664	11222.53
637.857	10872.32
638.051	10339.85
638.244	10167.82
638.438	9680.41
638.632	9256.48
638.825	8658.47
639.019	8584.74
639.212	8111.66
639.406	7951.92
639.599	7534.14
639.793	7308.86
639.986	7013.95
640.18	6858.31
640.373	6479.43
640.567	6149.71
640.76	5981.78
640.954	5822.03
641.147	5514.84
641.34	5138.01
641.534	5025.37
641.727	4847.2
641.92	4679.27
642.114	4484.71
642.307	4298.35
642.5	4263.53
642.694	3890.8
642.887	3892.85
643.08	3952.24
643.273	3569.27
643.467	3380.86
643.66	3374.71
643.853	3139.19
644.046	3085.95
644.239	3034.75
644.432	2893.44
644.626	2647.68
644.819	2625.15
645.012	2469.51
645.205	2537.09
645.398	2471.56
645.591	2305.67
645.784	2107.02
645.977	2104.97
646.17	2002.57
646.363	2004.62
646.556	1848.97
646.749	1713.81
646.942	1750.67
647.135	1826.45
647.328	1531.54
647.521	1633.94
647.714	1441.43
647.907	1445.52
648.099	1445.52
648.292	1369.75
648.485	1291.93
648.678	1218.2
648.871	1150.62
649.064	1269.4
649.256	956.06
649.449	966.3
649.642	880.29
649.835	1007.26
650.027	913.05
650.22	945.82
650.413	890.53
650.605	1003.16
650.798	788.13
650.991	741.02
651.183	779.93
651.376	779.93
651.568	759.46
651.761	734.88
651.954	687.78
652.146	558.75
652.339	716.45
652.531	738.98
652.724	544.42
652.916	648.86
653.109	468.64
653.301	640.67
653.494	636.58
653.686	609.95
653.879	530.08
654.071	550.56
654.263	413.35
654.456	439.97
654.648	566.95
654.84	511.65
655.033	466.6
655.225	568.99
655.417	302.76
655.61	515.75
655.802	517.79
655.994	550.56
656.186	294.57
656.379	458.4
656.571	337.57
656.763	425.64
656.955	306.85
657.148	276.13
657.34	444.07
657.532	259.75
657.724	347.81
657.916	272.04
658.108	329.38
658.3	313
658.492	315.05
658.684	269.99
658.876	329.38
659.068	192.17
659.26	79.53
659.452	186.02
659.644	190.12
659.836	304.81
660.028	257.7
660.22	294.57
660.412	163.5
660.604	173.74
660.796	235.18
660.988	347.81
661.18	317.09
661.372	296.61
661.563	237.22
661.755	235.18
661.947	177.83
662.139	177.83
662.331	159.4
662.522	175.78
662.714	126.63
662.906	132.78
663.097	192.17
663.289	128.68
663.481	42.67
663.673	198.31
663.864	226.98
664.056	282.28
664.247	188.07
664.439	233.13
664.631	157.35
664.822	212.65
665.014	204.46
665.205	104.11
665.397	116.39
665.588	196.26
665.78	161.45
665.971	241.32
666.163	140.97
666.354	161.45
666.546	61.1
666.737	143.02
666.929	134.82
667.12	165.54
667.311	69.29
667.503	136.87
667.694	198.31
667.885	140.97
668.077	206.5
668.268	11.95
668.459	186.02
668.651	147.11
668.842	196.26
669.033	46.76
669.224	102.06
669.416	325.29
669.607	112.3
669.798	120.49
669.989	243.37
670.18	75.43
670.371	181.93
670.563	65.19
670.754	161.45
670.945	220.84
671.136	222.89
671.327	91.82
671.518	153.26
671.709	253.61
671.9	216.74
672.091	224.94
672.282	143.02
672.473	140.97
672.664	89.77
672.855	179.88
673.046	161.45
673.237	173.74
673.428	206.5
673.619	210.6
673.809	112.3
674	229.03
674.191	198.31
674.382	71.34
674.573	67.24
674.764	116.39
674.954	206.5
675.145	-8.53
675.336	126.63
675.527	138.92
675.717	81.58
675.908	140.97
676.099	138.92
676.289	179.88
676.48	30.38
676.671	104.11
676.861	132.78
677.052	226.98
677.243	83.63
677.433	151.21
677.624	204.46
677.814	249.51
678.005	89.77
678.195	317.09
678.386	69.29
678.576	122.54
678.767	100.01
678.957	155.3
679.148	231.08
679.338	292.52
679.529	167.59
679.719	192.17
679.909	235.18
680.1	188.07
680.29	212.65
680.481	108.2
680.671	235.18
680.861	143.02
681.052	136.87
681.242	181.93
681.432	212.65
681.622	194.22
681.813	59.05
682.003	249.51
682.193	143.02
682.383	181.93
682.573	145.06
682.764	173.74
682.954	210.6
683.144	175.78
683.334	161.45
683.524	151.21
683.714	134.82
683.904	214.7
684.094	163.5
684.284	226.98
684.474	220.84
684.664	237.22
684.854	138.92
685.044	114.34
685.234	190.12
685.424	224.94
685.614	208.55
685.804	278.18
685.994	163.5
686.184	171.69
686.374	214.7
686.564	296.61
686.753	208.55
686.943	157.35
687.133	198.31
687.323	159.4
687.513	294.57
687.702	194.22
687.892	218.79
688.082	251.56
688.272	274.09
688.461	171.69
688.651	353.96
688.841	255.65
689.03	208.55
689.22	214.7
689.41	241.32
689.599	243.37
689.789	145.06
689.979	306.85
690.168	136.87
690.358	198.31
690.547	161.45
690.737	267.94
690.926	161.45
691.116	188.07
691.305	261.8
691.495	298.66
691.684	145.06
691.874	104.11
692.063	169.64
692.252	265.89
692.442	276.13
692.631	67.24
692.82	114.34
693.01	269.99
693.199	179.88
693.388	175.78
693.578	220.84
693.767	341.67
693.956	202.41
694.146	136.87
694.335	208.55
694.524	204.46
694.713	247.46
694.902	181.93
695.092	177.83
695.281	206.5
695.47	220.84
695.659	214.7
695.848	173.74
696.037	267.94
696.226	263.85
696.415	190.12
696.604	331.43
696.793	196.26
696.982	181.93
697.171	278.18
697.36	155.3
697.549	216.74
697.738	83.63
697.927	204.46
698.116	145.06
698.305	200.36
698.494	192.17
698.683	196.26
698.872	341.67
699.061	149.16
699.25	147.11
699.438	226.98
699.627	192.17
699.816	259.75
700.005	102.06
700.193	206.5
700.382	247.46
700.571	167.59
700.76	179.88
700.948	278.18
701.137	269.99
701.326	226.98
701.514	179.88
701.703	206.5
701.892	163.5
702.08	333.48
702.269	147.11
702.457	159.4
702.646	155.3
702.834	120.49
703.023	249.51
703.212	173.74
703.4	130.73
703.589	151.21
703.777	161.45
703.965	196.26
704.154	208.55
704.342	46.76
704.531	179.88
704.719	200.36
704.907	247.46
705.096	67.24
705.284	165.54
705.472	222.89
705.661	138.92
705.849	253.61
706.037	196.26
706.226	235.18
706.414	181.93
706.602	153.26
706.79	249.51
706.979	188.07
707.167	159.4
707.355	93.87
707.543	237.22
707.731	214.7
707.919	224.94
708.107	159.4
708.296	134.82
708.484	155.3
708.672	214.7
708.86	202.41
709.048	241.32
709.236	190.12
709.424	245.41
709.612	224.94
709.8	79.53
709.988	102.06
710.176	329.38
710.364	276.13
710.551	269.99
710.739	220.84
710.927	206.5
711.115	259.75
711.303	229.03
711.491	265.89
711.679	116.39
711.866	284.33
712.054	198.31
712.242	169.64
712.43	288.42
712.617	151.21
712.805	269.99
712.993	263.85
713.181	100.01
713.368	286.37
713.556	200.36
713.744	138.92
713.931	292.52
714.119	280.23
714.306	122.54
714.494	106.15
714.682	231.08
714.869	91.82
715.057	157.35
715.244	16.04
715.432	214.7
715.619	151.21
715.807	175.78
715.994	149.16
716.182	179.88
716.369	249.51
716.556	255.65
716.744	112.3
716.931	138.92
717.119	241.32
717.306	212.65
717.493	216.74
717.681	186.02
717.868	196.26
718.055	167.59
718.242	202.41
718.43	243.37
718.617	253.61
718.804	128.68
718.991	276.13
719.179	274.09
719.366	257.7
719.553	259.75
719.74	208.55
719.927	161.45
720.114	173.74
720.301	163.5
720.488	177.83
720.676	118.44
720.863	276.13
721.05	261.8
721.237	212.65
721.424	265.89
721.611	220.84
721.798	110.25
721.985	126.63
722.172	169.64
722.358	278.18
722.545	313
722.732	224.94
722.919	233.13
723.106	233.13
723.293	231.08
723.48	274.09
723.667	165.54
723.853	259.75
724.04	296.61
724.227	284.33
724.414	237.22
724.6	274.09
724.787	308.9
724.974	298.66
725.161	200.36
725.347	108.2
725.534	161.45
725.72	298.66
725.907	214.7
726.094	175.78
726.28	233.13
726.467	267.94
726.653	173.74
726.84	327.33
727.027	294.57
727.213	229.03
727.4	222.89
727.586	128.68
727.773	302.76
727.959	229.03
728.145	145.06
728.332	282.28
728.518	149.16
728.705	298.66
728.891	261.8
729.077	280.23
729.264	192.17
729.45	296.61
729.636	343.72
729.823	280.23
730.009	315.05
730.195	288.42
730.382	302.76
730.568	120.49
730.754	231.08
730.94	239.27
731.126	251.56
731.313	356.01
731.499	175.78
731.685	319.14
731.871	253.61
732.057	290.47
732.243	308.9
732.429	259.75
732.615	331.43
732.801	269.99
732.987	251.56
733.173	210.6
733.359	229.03
733.545	241.32
733.731	263.85
733.917	417.44
734.103	272.04
734.289	288.42
734.475	235.18
734.661	368.29
734.847	290.47
735.033	274.09
735.219	304.81
735.404	231.08
735.59	204.46
735.776	167.59
735.962	280.23
736.148	280.23
736.333	263.85
736.519	177.83
736.705	194.22
736.89	296.61
737.076	235.18
737.262	265.89
737.447	259.75
737.633	253.61
737.819	366.25
738.004	265.89
738.19	313
738.375	292.52
738.561	300.71
738.747	302.76
738.932	257.7
739.118	429.73
739.303	286.37
739.489	261.8
739.674	231.08
739.859	183.98
740.045	261.8
740.23	343.72
740.416	153.26
740.601	337.57
740.786	243.37
740.972	183.98
741.157	231.08
741.342	222.89
741.528	159.4
741.713	315.05
741.898	214.7
742.084	255.65
742.269	177.83
742.454	347.81
742.639	259.75
742.824	216.74
743.01	329.38
743.195	413.35
743.38	331.43
743.565	249.51
743.75	269.99
743.935	292.52
744.12	345.77
744.305	183.98
744.49	274.09
744.675	198.31
744.86	118.44
745.045	290.47
745.23	214.7
745.415	233.13
745.6	372.39
745.785	188.07
745.97	290.47
746.155	347.81
746.34	247.46
746.525	315.05
746.71	315.05
746.895	122.54
747.079	147.11
747.264	200.36
747.449	269.99
747.634	272.04
747.819	302.76
748.003	175.78
748.188	149.16
748.373	263.85
748.557	130.73
748.742	237.22
748.927	257.7
749.111	284.33
749.296	208.55
749.481	276.13
749.665	235.18
749.85	106.15
750.034	288.42
750.219	179.88
750.404	140.97
750.588	177.83
750.773	102.06
750.957	161.45
751.141	179.88
751.326	214.7
751.51	169.64
751.695	212.65
751.879	210.6
752.064	313
752.248	245.41
752.432	335.53
752.617	294.57
752.801	298.66
752.985	177.83
753.17	251.56
753.354	147.11
753.538	212.65
753.722	138.92
753.907	165.54
754.091	186.02
754.275	251.56
754.459	175.78
754.643	112.3
754.828	181.93
755.012	241.32
755.196	114.34
755.38	177.83
755.564	132.78
755.748	124.58
755.932	218.79
756.116	134.82
756.3	247.46
756.484	177.83
756.668	177.83
756.852	65.19
757.036	85.67
757.22	163.5
757.404	46.76
757.588	208.55
757.772	235.18
757.956	95.91
758.14	349.86
758.323	104.11
758.507	151.21
758.691	140.97
758.875	153.26
759.059	265.89
759.242	87.72
759.426	54.95
759.61	114.34
759.794	114.34
759.977	214.7
760.161	356.01
760.345	251.56
760.528	210.6
760.712	190.12
760.895	165.54
761.079	130.73
761.263	5.8
761.446	73.39
761.63	126.63
761.813	212.65
761.997	30.38
762.18	42.67
762.364	241.32
762.547	16.04
762.731	112.3
762.914	87.72
763.098	106.15
763.281	67.24
763.464	149.16
763.648	83.63
763.831	79.53
764.015	81.58
764.198	196.26
764.381	52.91
764.564	190.12
764.748	134.82
764.931	149.16
765.114	85.67
765.297	83.63
765.481	20.14
765.664	169.64
765.847	67.24
766.03	181.93
766.213	9.9
766.397	114.34
766.58	30.38
766.763	151.21
766.946	73.39
767.129	100.01
767.312	59.05
767.495	73.39
767.678	85.67
767.861	93.87
768.044	147.11
768.227	128.68
768.41	3.75
768.593	79.53
768.776	32.43
768.959	63.15
769.142	239.27
769.324	79.53
769.507	69.29
769.69	26.28
769.873	50.86
770.056	206.5
770.239	-14.68
770.421	151.21
770.604	36.52
770.787	30.38
770.97	26.28
771.152	118.44
771.335	83.63
771.518	-14.68
771.7	112.3
771.883	249.51
772.066	-4.44
772.248	85.67
772.431	214.7
772.613	159.4
772.796	61.1
772.978	132.78
773.161	231.08
773.343	22.19
773.526	16.04
773.708	-4.44
773.891	3.75
774.073	42.67
774.256	24.23
774.438	220.84
774.621	28.33
774.803	120.49
774.985	69.29
775.168	116.39
775.35	116.39
775.532	179.88
775.715	36.52
775.897	149.16
776.079	89.77
776.261	73.39
776.444	40.62
776.626	65.19
776.808	-14.68
776.99	-16.73
777.173	18.09
777.355	44.71
777.537	13.99
777.719	77.48
777.901	-4.44
778.083	77.48
778.265	-18.77
778.447	73.39
778.629	-39.25
778.811	110.25
778.993	110.25
779.175	102.06
779.357	65.19
779.539	-106.84
779.721	87.72
779.903	177.83
780.085	40.62
780.267	5.8
780.449	24.23
780.631	83.63
780.812	120.49
780.994	38.57
781.176	46.76
781.358	-29.01
781.54	52.91
781.721	202.41
781.903	210.6
782.085	67.24
782.267	83.63
782.448	65.19
782.63	28.33
782.812	50.86
782.993	91.82
783.175	89.77
783.357	-8.53
783.538	186.02
783.72	20.14
783.901	61.1
784.083	85.67
784.264	54.95
784.446	-72.02
784.627	-8.53
784.809	104.11
784.99	67.24
785.172	132.78
785.353	95.91
785.535	122.54
785.716	50.86
785.897	-4.44
786.079	46.76
786.26	67.24
786.441	30.38
786.623	-49.49
786.804	24.23
786.985	59.05
787.167	50.86
787.348	-24.92
787.529	-4.44
787.71	104.11
787.891	65.19
788.073	-43.35
788.254	-67.92
788.435	200.36
788.616	20.14
788.797	-16.73
788.978	52.91
789.159	-14.68
789.34	97.96
789.522	153.26
789.703	-20.82
789.884	79.53
790.065	75.43
790.246	122.54
790.427	50.86
790.607	104.11
790.788	89.77
790.969	-22.87
791.15	9.9
791.331	97.96
791.512	71.34
791.693	-31.06
791.874	28.33
792.054	161.45
792.235	179.88
792.416	16.04
792.597	-22.87
792.778	153.26
792.958	32.43
793.139	69.29
793.32	120.49
793.5	-2.39
793.681	83.63
793.862	93.87
794.042	30.38
794.223	-72.02
794.404	-16.73
794.584	-31.06
794.765	-18.77
794.945	-10.58
795.126	73.39
795.306	85.67
795.487	-45.4
795.667	30.38
795.848	50.86
796.028	65.19
796.209	-47.44
796.389	65.19
796.57	30.38
796.75	-69.97
796.93	7.85
797.111	-10.58
797.291	-39.25
797.471	120.49
797.652	28.33
797.832	9.9
798.012	124.58
798.192	-43.35
798.373	-78.16
798.553	-29.01
798.733	52.91
798.913	-12.63
799.093	65.19
799.274	18.09
799.454	63.15
799.634	50.86
799.814	69.29
799.994	87.72
800.174	30.38
800.354	50.86
800.534	-88.4
800.714	63.15
800.894	-69.97
801.074	-20.82
801.254	-29.01
801.434	171.69
801.614	-20.82
801.794	-106.84
801.974	1851.02
802.154	40.62
802.334	69.29
802.514	16.04
802.693	-57.68
802.873	13.99
803.053	132.78
803.233	67.24
803.413	-6.49
803.592	-22.87
803.772	-96.6
803.952	-39.25
804.131	-24.92
804.311	102.06
804.491	130.73
804.67	-92.5
804.85	-0.34
805.03	67.24
805.209	5.8
805.389	16.04
805.568	-57.68
805.748	-24.92
805.928	-16.73
806.107	32.43
806.287	20.14
806.466	81.58
806.646	42.67
806.825	65.19
807.004	63.15
807.184	110.25
807.363	104.11
807.543	50.86
807.722	-55.64
807.901	159.4
808.081	93.87
808.26	-119.12
808.439	46.76
808.619	52.91
808.798	-39.25
808.977	81.58
809.156	100.01
809.336	34.47
809.515	124.58
809.694	-18.77
809.873	-61.78
810.052	102.06
810.231	110.25
810.411	36.52
810.59	169.64
810.769	95.91
810.948	26.28
811.127	-108.88
811.306	-47.44
811.485	57
811.664	124.58
811.843	-76.12
812.022	-53.59
812.201	67.24
812.38	40.62
812.559	-41.3
812.737	30.38
812.916	-129.36
813.095	-43.35
813.274	20.14
813.453	-4.44
813.632	50.86
813.811	50.86
813.989	-51.54
814.168	54.95
814.347	-41.3
814.526	-6.49
814.704	114.34
814.883	114.34
815.062	-33.11
815.24	112.3
815.419	-65.88
815.598	26.28
815.776	-63.83
815.955	44.71
816.133	-104.79
816.312	-16.73
816.49	-18.77
816.669	-24.92
816.847	-14.68
817.026	26.28
817.204	-4.44
817.383	-24.92
817.561	-41.3
817.74	-22.87
817.918	122.54
818.097	7.85
818.275	-24.92
818.453	102.06
818.632	1.71
818.81	11.95
818.988	-26.96
819.167	22.19
819.345	30.38
819.523	-129.36
819.701	11.95
819.879	54.95
820.058	42.67
820.236	52.91
820.414	18.09
820.592	-0.34
820.77	36.52
820.948	3.75
821.127	-20.82
821.305	65.19
821.483	-74.07
821.661	32.43
821.839	-29.01
822.017	-14.68
822.195	-12.63
822.373	95.91
822.551	-41.3
822.729	71.34
822.907	-29.01
823.085	136.87
823.262	-53.59
823.44	-53.59
823.618	-29.01
823.796	22.19
823.974	1.71
824.152	-0.34
824.329	-53.59
824.507	52.91
824.685	38.57
824.863	5.8
825.04	-39.25
825.218	52.91
825.396	75.43
825.574	-0.34
825.751	-67.92
825.929	89.77
826.107	-33.11
826.284	32.43
826.462	-10.58
826.639	-33.11
826.817	-59.73
826.994	20.14
827.172	-22.87
827.349	104.11
827.527	-63.83
827.704	-20.82
827.882	44.71
828.059	-24.92
828.237	16.04
828.414	63.15
828.591	-125.27
828.769	44.71
828.946	-96.6
829.124	26.28
829.301	83.63
829.478	-2.39
829.655	44.71
829.833	-49.49
830.01	-67.92
830.187	32.43
830.364	-82.26
830.542	57
830.719	126.63
830.896	93.87
831.073	5.8
831.25	-33.11
831.427	-2.39
831.604	65.19
831.782	-37.2
831.959	65.19
832.136	-29.01
832.313	46.76
832.49	-20.82
832.667	20.14
832.844	18.09
833.021	112.3
833.198	16.04
833.374	54.95
833.551	13.99
833.728	-14.68
833.905	-8.53
834.082	-22.87
834.259	34.47
834.436	122.54
834.612	-55.64
834.789	54.95
834.966	16.04
835.143	13.99
835.319	-90.45
835.496	30.38
835.673	104.11
835.85	65.19
836.026	-6.49
836.203	128.68
836.38	5.8
836.556	-43.35
836.733	-63.83
836.909	204.46
837.086	50.86
837.262	-149.84
837.439	18.09
837.616	-4.44
837.792	-8.53
837.968	-31.06
838.145	-92.5
838.321	-31.06
838.498	-12.63
838.674	9.9
838.851	-22.87
839.027	26.28
839.203	30.38
839.38	-4.44
839.556	-12.63
839.732	63.15
839.909	-22.87
840.085	38.57
840.261	-18.77
840.437	-29.01
840.614	-14.68
840.79	95.91
840.966	-31.06
841.142	-18.77
841.318	-61.78
841.494	87.72
841.671	7.85
841.847	-39.25
842.023	-59.73
842.199	-6.49
842.375	126.63
842.551	-125.27
842.727	-110.93
842.903	145.06
843.079	-26.96
843.255	124.58
843.431	-59.73
843.607	-2.39
843.783	-102.74
843.959	40.62
844.134	-55.64
844.31	93.87
844.486	-41.3
844.662	-61.78
844.838	-6.49
845.013	32.43
845.189	11.95
845.365	36.52
845.541	52.91
845.716	-26.96
845.892	67.24
846.068	-22.87
846.244	-78.16
846.419	-31.06
846.595	-139.6
846.77	-125.27
846.946	122.54
847.122	-26.96
847.297	-96.6
847.473	143.02
847.648	-39.25
847.824	13.99
847.999	-141.65
848.175	36.52
848.35	1.71
848.526	46.76
848.701	97.96
848.876	67.24
849.052	-20.82
849.227	32.43
849.403	7.85
849.578	-82.26
849.753	28.33
849.929	46.76
850.104	-31.06
850.279	-10.58
850.454	40.62
850.63	42.67
850.805	-12.63
850.98	9.9
851.155	-88.4
851.33	63.15
851.505	-49.49
851.681	40.62
851.856	-53.59
852.031	7.85
852.206	-0.34
852.381	-76.12
852.556	-76.12
852.731	32.43
852.906	132.78
853.081	-12.63
853.256	110.25
853.431	-65.88
853.606	-18.77
853.781	-106.84
853.956	-55.64
854.131	81.58
854.305	-49.49
854.48	-45.4
854.655	-2.39
854.83	-61.78
855.005	20.14
855.18	-39.25
855.354	9.9
855.529	9.9
855.704	-86.36
855.879	67.24
856.053	-86.36
856.228	59.05
856.403	-94.55
856.577	48.81
856.752	-119.12
856.926	-88.4
857.101	-20.82
857.276	-119.12
857.45	-55.64
857.625	48.81
857.799	11.95
857.974	-24.92
858.148	-112.98
858.323	77.48
858.497	-10.58
858.672	-133.46
858.846	-63.83
859.02	54.95
859.195	-127.32
859.369	40.62
859.543	-69.97
859.718	-47.44
859.892	16.04
860.066	32.43
860.241	-51.54
860.415	7.85
860.589	-57.68
860.763	-2.39
860.938	-86.36
861.112	40.62
861.286	-2.39
861.46	81.58
861.634	-59.73
861.808	-4.44
861.982	-55.64
862.157	-82.26
862.331	-49.49
862.505	-67.92
862.679	-117.08
862.853	-16.73
863.027	-53.59
863.201	161.45
863.375	-55.64
863.549	-45.4
863.722	28.33
863.896	116.39
864.07	7.85
864.244	3.75
864.418	11.95
864.592	5.8
864.766	28.33
864.939	-43.35
865.113	-61.78
865.287	93.87
865.461	44.71
865.634	18.09
865.808	34.47
865.982	-43.35
866.156	-39.25
866.329	-67.92
866.503	34.47
866.676	22.19
866.85	30.38
867.024	-41.3
867.197	149.16
867.371	77.48
867.544	11.95
867.718	-74.07
867.891	89.77
868.065	-119.12
868.238	-26.96
868.412	106.15
868.585	34.47
868.759	-4.44
868.932	-39.25
869.105	-90.45
869.279	-29.01
869.452	-67.92
869.625	97.96
869.799	-29.01
869.972	-123.22
870.145	-82.26
870.319	75.43
870.492	-49.49
870.665	-59.73
870.838	-18.77
871.011	-108.88
871.185	32.43
871.358	-90.45
871.531	48.81
871.704	-26.96
871.877	-6.49
872.05	-43.35
872.223	-104.79
872.396	71.34
872.569	28.33
872.742	-155.99
872.915	-20.82
873.088	-53.59
873.261	-141.65
873.434	46.76
873.607	-8.53
873.78	120.49
873.953	-76.12
874.126	-20.82
874.299	102.06
874.471	-45.4
874.644	-35.16
874.817	38.57
874.99	93.87
875.163	-57.68
875.335	16.04
875.508	7.85
875.681	61.1
875.853	-0.34
876.026	11.95
876.199	42.67
876.371	11.95
876.544	24.23
876.717	3.75
876.889	-10.58
877.062	83.63
877.234	-24.92
877.407	-39.25
877.579	-49.49
877.752	16.04
877.924	77.48
878.097	44.71
878.269	-2.39
878.442	61.1
878.614	-8.53
878.786	-26.96
878.959	36.52
879.131	48.81
879.303	-119.12
879.476	13.99
879.648	34.47
879.82	75.43
879.993	67.24
880.165	26.28
880.337	-166.23
880.509	-22.87
880.681	-123.22
880.854	-33.11
881.026	61.1
881.198	67.24
881.37	28.33
881.542	-31.06
881.714	-69.97
881.886	-16.73
882.058	22.19
882.23	-74.07
882.402	-49.49
882.574	-26.96
882.746	52.91
882.918	-2.39
883.09	-14.68
883.262	-6.49
883.434	-82.26
883.606	-74.07
883.778	30.38
883.95	140.97
884.122	-29.01
884.293	-22.87
884.465	11.95
884.637	26.28
884.809	-69.97
884.98	13.99
885.152	30.38
885.324	26.28
885.496	-94.55
885.667	-98.64
885.839	-72.02
886.011	73.39
886.182	-16.73
886.354	75.43
886.525	81.58
886.697	28.33
886.869	-80.21
887.04	-20.82
887.212	81.58
887.383	112.3
887.555	20.14
887.726	75.43
887.897	1.71
888.069	24.23
888.24	11.95
888.412	-37.2
888.583	-63.83
888.754	87.72
888.926	-106.84
889.097	-33.11
889.268	-110.93
889.44	-33.11
889.611	-0.34
889.782	-35.16
889.953	-43.35
890.125	77.48
890.296	-115.03
890.467	-14.68
890.638	-22.87
890.809	40.62
890.98	-67.92
891.151	11.95
891.323	65.19
891.494	-12.63
891.665	-24.92
891.836	-31.06
892.007	42.67
892.178	73.39
892.349	-6.49
892.52	-24.92
892.691	44.71
892.862	5.8
893.032	-94.55
893.203	7.85
893.374	71.34
893.545	34.47
893.716	-24.92
893.887	67.24
894.057	-18.77
894.228	-26.96
894.399	-104.79
894.57	75.43
894.74	-26.96
894.911	52.91
895.082	-0.34
895.253	-53.59
895.423	-72.02
895.594	40.62
895.764	50.86
895.935	3.75
896.106	9.9
896.276	-86.36
896.447	20.14
896.617	-90.45
896.788	-86.36
896.958	-24.92
897.129	-61.78
897.299	-67.92
897.47	108.2
897.64	202.41
897.81	-39.25
897.981	24.23
898.151	-39.25
898.322	102.06
898.492	-22.87
898.662	-33.11
898.832	-61.78
899.003	-45.4
899.173	50.86
899.343	-100.69
899.513	-100.69
