Data from USB4F104151__225__11-06-12-025.txt Node

Date: Wed Feb 26 11:06:12 EST 2025
User: louis
Spectrometer: USB4F10415
Trigger mode: 4
Integration Time (sec): 1.000000E-1
Scans to average: 1
Electric dark correction enabled: true
Nonlinearity correction enabled: false
Boxcar width: 0
XAxis mode: Wavelengths
Number of Pixels in Spectrum: 3648
>>>>>Begin Spectral Data<<<<<
178.204	-356.69
178.424	-356.69
178.644	-356.69
178.864	-399.7
179.084	-379.22
179.304	-12.63
179.524	-8.53
179.744	-16.73
179.964	40.62
180.184	114.34
180.404	-31.06
180.624	-8.53
180.844	-14.68
181.064	-22.87
181.283	-49.49
181.503	-55.64
181.723	65.19
181.943	-155.99
182.163	192.17
182.383	-55.64
182.602	147.11
182.822	204.46
183.042	46.76
183.262	30.38
183.482	-6.49
183.701	-20.82
183.921	20.14
184.141	-47.44
184.361	110.25
184.58	102.06
184.8	61.1
185.02	28.33
185.239	87.72
185.459	28.33
185.679	202.41
185.898	-4.44
186.118	26.28
186.338	34.47
186.557	93.87
186.777	-14.68
186.997	-0.34
187.216	77.48
187.436	276.13
187.655	81.58
187.875	95.91
188.095	104.11
188.314	173.74
188.534	57
188.753	-61.78
188.973	128.68
189.192	132.78
189.412	-37.2
189.631	40.62
189.851	61.1
190.07	155.3
190.29	-59.73
190.509	-41.3
190.729	46.76
190.948	157.35
191.168	220.84
191.387	97.96
191.607	79.53
191.826	65.19
192.045	67.24
192.265	36.52
192.484	22.19
192.704	34.47
192.923	-47.44
193.142	169.64
193.362	143.02
193.581	231.08
193.8	81.58
194.02	147.11
194.239	179.88
194.458	42.67
194.678	28.33
194.897	1.71
195.116	44.71
195.335	1.71
195.555	57
195.774	-12.63
195.993	186.02
196.212	69.29
196.432	-45.4
196.651	32.43
196.87	-39.25
197.089	216.74
197.308	102.06
197.528	122.54
197.747	-47.44
197.966	44.71
198.185	161.45
198.404	-0.34
198.623	81.58
198.842	130.73
199.062	128.68
199.281	95.91
199.5	34.47
199.719	114.34
199.938	34.47
200.157	57
200.376	102.06
200.595	124.58
200.814	106.15
201.033	44.71
201.252	192.17
201.471	104.11
201.69	102.06
201.909	75.43
202.128	79.53
202.347	34.47
202.566	91.82
202.785	-61.78
203.004	24.23
203.223	235.18
203.442	97.96
203.661	-39.25
203.879	116.39
204.098	89.77
204.317	30.38
204.536	50.86
204.755	81.58
204.974	120.49
205.193	34.47
205.411	169.64
205.63	118.44
205.849	61.1
206.068	81.58
206.287	-18.77
206.505	147.11
206.724	36.52
206.943	-53.59
207.162	57
207.381	71.34
207.599	40.62
207.818	95.91
208.037	-96.6
208.255	59.05
208.474	-33.11
208.693	63.15
208.911	9.9
209.13	136.87
209.349	81.58
209.567	26.28
209.786	116.39
210.005	116.39
210.223	93.87
210.442	1.71
210.661	32.43
210.879	63.15
211.098	61.1
211.316	114.34
211.535	95.91
211.753	46.76
211.972	75.43
212.191	7.85
212.409	65.19
212.628	89.77
212.846	36.52
213.065	63.15
213.283	122.54
213.502	71.34
213.72	69.29
213.938	11.95
214.157	122.54
214.375	161.45
214.594	-69.97
214.812	9.9
215.031	57
215.249	-20.82
215.467	57
215.686	28.33
215.904	97.96
216.122	118.44
216.341	126.63
216.559	-22.87
216.778	132.78
216.996	132.78
217.214	-18.77
217.432	-16.73
217.651	-37.2
217.869	34.47
218.087	44.71
218.306	46.76
218.524	30.38
218.742	128.68
218.96	153.26
219.179	32.43
219.397	32.43
219.615	241.32
219.833	102.06
220.051	13.99
220.27	83.63
220.488	118.44
220.706	26.28
220.924	-31.06
221.142	46.76
221.36	38.57
221.578	61.1
221.796	50.86
222.015	52.91
222.233	118.44
222.451	188.07
222.669	-14.68
222.887	34.47
223.105	40.62
223.323	85.67
223.541	-63.83
223.759	54.95
223.977	26.28
224.195	71.34
224.413	71.34
224.631	7.85
224.849	52.91
225.067	151.21
225.285	20.14
225.503	38.57
225.721	-104.79
225.939	81.58
226.157	79.53
226.375	247.46
226.592	-22.87
226.81	5.8
227.028	169.64
227.246	153.26
227.464	104.11
227.682	102.06
227.9	63.15
228.117	18.09
228.335	46.76
228.553	73.39
228.771	-10.58
228.989	65.19
229.206	112.3
229.424	38.57
229.642	-8.53
229.86	30.38
230.077	69.29
230.295	48.81
230.513	118.44
230.731	102.06
230.948	239.27
231.166	153.26
231.384	50.86
231.601	-135.51
231.819	81.58
232.037	5.8
232.254	11.95
232.472	30.38
232.689	61.1
232.907	140.97
233.125	-41.3
233.342	28.33
233.56	-12.63
233.777	-59.73
233.995	30.38
234.213	136.87
234.43	128.68
234.648	18.09
234.865	48.81
235.083	13.99
235.3	87.72
235.518	134.82
235.735	136.87
235.953	116.39
236.17	-12.63
236.388	77.48
236.605	77.48
236.822	102.06
237.04	169.64
237.257	73.39
237.475	-43.35
237.692	85.67
237.909	11.95
238.127	5.8
238.344	104.11
238.562	65.19
238.779	18.09
238.996	-2.39
239.214	24.23
239.431	75.43
239.648	11.95
239.865	79.53
240.083	136.87
240.3	-10.58
240.517	-31.06
240.735	40.62
240.952	233.13
241.169	57
241.386	138.92
241.603	36.52
241.821	-6.49
242.038	136.87
242.255	108.2
242.472	-41.3
242.689	163.5
242.907	77.48
243.124	48.81
243.341	13.99
243.558	67.24
243.775	-65.88
243.992	-92.5
244.209	100.01
244.426	216.74
244.643	75.43
244.86	50.86
245.078	134.82
245.295	52.91
245.512	24.23
245.729	-31.06
245.946	-6.49
246.163	16.04
246.38	-20.82
246.597	124.58
246.814	89.77
247.031	57
247.248	57
247.464	61.1
247.681	87.72
247.898	97.96
248.115	34.47
248.332	-49.49
248.549	183.98
248.766	218.79
248.983	28.33
249.2	59.05
249.417	114.34
249.633	28.33
249.85	102.06
250.067	50.86
250.284	104.11
250.501	112.3
250.717	120.49
250.934	-53.59
251.151	73.39
251.368	67.24
251.585	87.72
251.801	52.91
252.018	-18.77
252.235	136.87
252.451	-2.39
252.668	-4.44
252.885	120.49
253.102	22.19
253.318	50.86
253.535	-12.63
253.752	-26.96
253.968	22.19
254.185	-16.73
254.401	145.06
254.618	153.26
254.835	57
255.051	169.64
255.268	46.76
255.484	32.43
255.701	20.14
255.917	87.72
256.134	-45.4
256.351	28.33
256.567	-0.34
256.784	71.34
257	13.99
257.217	73.39
257.433	77.48
257.65	50.86
257.866	167.59
258.082	38.57
258.299	-24.92
258.515	36.52
258.732	28.33
258.948	24.23
259.165	97.96
259.381	-26.96
259.597	34.47
259.814	46.76
260.03	63.15
260.246	71.34
260.463	151.21
260.679	34.47
260.895	50.86
261.112	42.67
261.328	3.75
261.544	-45.4
261.761	214.7
261.977	42.67
262.193	-49.49
262.409	153.26
262.626	95.91
262.842	63.15
263.058	-59.73
263.274	126.63
263.49	5.8
263.707	42.67
263.923	75.43
264.139	-108.88
264.355	85.67
264.571	147.11
264.787	42.67
265.004	134.82
265.22	38.57
265.436	26.28
265.652	26.28
265.868	50.86
266.084	-53.59
266.3	77.48
266.516	-24.92
266.732	42.67
266.948	71.34
267.164	-37.2
267.38	175.78
267.596	91.82
267.812	179.88
268.028	24.23
268.244	61.1
268.46	128.68
268.676	-16.73
268.892	79.53
269.108	-39.25
269.324	-8.53
269.54	-69.97
269.756	106.15
269.972	-41.3
270.188	-43.35
270.403	-69.97
270.619	38.57
270.835	140.97
271.051	75.43
271.267	-65.88
271.483	65.19
271.698	138.92
271.914	87.72
272.13	40.62
272.346	-18.77
272.562	24.23
272.777	116.39
272.993	-6.49
273.209	54.95
273.425	85.67
273.64	42.67
273.856	79.53
274.072	-20.82
274.287	40.62
274.503	24.23
274.719	75.43
274.934	-16.73
275.15	-2.39
275.366	69.29
275.581	11.95
275.797	46.76
276.012	91.82
276.228	54.95
276.444	16.04
276.659	143.02
276.875	-14.68
277.09	20.14
277.306	-14.68
277.521	75.43
277.737	18.09
277.952	81.58
278.168	54.95
278.383	75.43
278.599	118.44
278.814	71.34
279.03	71.34
279.245	198.31
279.461	85.67
279.676	48.81
279.892	-6.49
280.107	-67.92
280.322	-33.11
280.538	50.86
280.753	32.43
280.969	114.34
281.184	95.91
281.399	153.26
281.615	-18.77
281.83	143.02
282.045	-61.78
282.26	69.29
282.476	57
282.691	143.02
282.906	102.06
283.122	1.71
283.337	13.99
283.552	71.34
283.767	22.19
283.983	147.11
284.198	30.38
284.413	132.78
284.628	-61.78
284.843	34.47
285.058	175.78
285.274	-26.96
285.489	-57.68
285.704	71.34
285.919	11.95
286.134	42.67
286.349	42.67
286.564	-2.39
286.779	87.72
286.995	13.99
287.21	-86.36
287.425	75.43
287.64	71.34
287.855	13.99
288.07	-14.68
288.285	124.58
288.5	145.06
288.715	75.43
288.93	38.57
289.145	75.43
289.36	106.15
289.575	9.9
289.79	85.67
290.004	38.57
290.219	124.58
290.434	40.62
290.649	-6.49
290.864	52.91
291.079	-16.73
291.294	85.67
291.509	102.06
291.724	87.72
291.938	24.23
292.153	73.39
292.368	-10.58
292.583	-8.53
292.798	73.39
293.012	34.47
293.227	100.01
293.442	-67.92
293.657	32.43
293.871	177.83
294.086	44.71
294.301	214.7
294.516	128.68
294.73	50.86
294.945	-57.68
295.16	28.33
295.374	120.49
295.589	77.48
295.804	73.39
296.018	97.96
296.233	181.93
296.447	67.24
296.662	57
296.877	159.4
297.091	128.68
297.306	97.96
297.52	32.43
297.735	140.97
297.949	46.76
298.164	138.92
298.378	38.57
298.593	22.19
298.807	65.19
299.022	63.15
299.236	188.07
299.451	-49.49
299.665	-12.63
299.88	40.62
300.094	63.15
300.309	-47.44
300.523	59.05
300.737	34.47
300.952	120.49
301.166	63.15
301.381	-39.25
301.595	3.75
301.809	26.28
302.024	89.77
302.238	89.77
302.452	181.93
302.667	87.72
302.881	67.24
303.095	110.25
303.309	13.99
303.524	34.47
303.738	67.24
303.952	7.85
304.166	112.3
304.381	-78.16
304.595	243.37
304.809	-33.11
305.023	36.52
305.237	-29.01
305.452	50.86
305.666	44.71
305.88	16.04
306.094	167.59
306.308	59.05
306.522	128.68
306.736	46.76
306.95	83.63
307.164	16.04
307.379	-0.34
307.593	196.26
307.807	87.72
308.021	130.73
308.235	102.06
308.449	-112.98
308.663	102.06
308.877	196.26
309.091	128.68
309.305	63.15
309.519	-106.84
309.733	143.02
309.947	-2.39
310.161	108.2
310.374	110.25
310.588	87.72
310.802	-49.49
311.016	-57.68
311.23	85.67
311.444	-20.82
311.658	1.71
311.872	108.2
312.085	100.01
312.299	118.44
312.513	89.77
312.727	20.14
312.941	-20.82
313.154	34.47
313.368	28.33
313.582	63.15
313.796	69.29
314.009	5.8
314.223	179.88
314.437	16.04
314.651	102.06
314.864	-39.25
315.078	26.28
315.292	-12.63
315.505	5.8
315.719	126.63
315.933	95.91
316.146	-33.11
316.36	38.57
316.573	208.55
316.787	77.48
317.001	73.39
317.214	-59.73
317.428	54.95
317.641	-24.92
317.855	5.8
318.068	61.1
318.282	-4.44
318.495	124.58
318.709	9.9
318.922	9.9
319.136	145.06
319.349	147.11
319.563	24.23
319.776	136.87
319.99	-10.58
320.203	52.91
320.417	9.9
320.63	124.58
320.843	179.88
321.057	34.47
321.27	52.91
321.483	79.53
321.697	147.11
321.91	100.01
322.124	71.34
322.337	22.19
322.55	-45.4
322.763	59.05
322.977	95.91
323.19	-18.77
323.403	71.34
323.617	143.02
323.83	120.49
324.043	46.76
324.256	79.53
324.469	-24.92
324.683	57
324.896	28.33
325.109	1.71
325.322	-41.3
325.535	57
325.748	136.87
325.962	-37.2
326.175	3.75
326.388	132.78
326.601	177.83
326.814	-0.34
327.027	16.04
327.24	161.45
327.453	-63.83
327.666	69.29
327.879	143.02
328.092	179.88
328.305	71.34
328.518	28.33
328.731	-35.16
328.944	32.43
329.157	73.39
329.37	28.33
329.583	171.69
329.796	169.64
330.009	5.8
330.222	89.77
330.435	63.15
330.648	81.58
330.861	50.86
331.073	42.67
331.286	134.82
331.499	30.38
331.712	-47.44
331.925	-24.92
332.138	24.23
332.35	75.43
332.563	50.86
332.776	157.35
332.989	20.14
333.202	26.28
333.414	11.95
333.627	71.34
333.84	52.91
334.053	102.06
334.265	28.33
334.478	91.82
334.691	22.19
334.903	11.95
335.116	71.34
335.329	89.77
335.541	138.92
335.754	136.87
335.966	22.19
336.179	57
336.392	-14.68
336.604	7.85
336.817	85.67
337.029	73.39
337.242	13.99
337.454	155.3
337.667	108.2
337.88	200.36
338.092	42.67
338.305	38.57
338.517	40.62
338.729	46.76
338.942	171.69
339.154	-47.44
339.367	-6.49
339.579	52.91
339.792	-20.82
340.004	151.21
340.217	-26.96
340.429	61.1
340.641	18.09
340.854	16.04
341.066	22.19
341.278	75.43
341.491	222.89
341.703	67.24
341.915	1.71
342.128	112.3
342.34	73.39
342.552	-6.49
342.764	24.23
342.977	73.39
343.189	61.1
343.401	7.85
343.613	-37.2
343.826	116.39
344.038	7.85
344.25	26.28
344.462	22.19
344.674	-24.92
344.886	-20.82
345.099	52.91
345.311	26.28
345.523	22.19
345.735	-4.44
345.947	71.34
346.159	75.43
346.371	54.95
346.583	5.8
346.795	206.5
347.007	69.29
347.219	59.05
347.431	16.04
347.643	106.15
347.855	-45.4
348.067	104.11
348.279	-26.96
348.491	52.91
348.703	120.49
348.915	40.62
349.127	11.95
349.339	40.62
349.551	-14.68
349.763	67.24
349.975	34.47
350.187	50.86
350.399	97.96
350.61	136.87
350.822	73.39
351.034	102.06
351.246	69.29
351.458	95.91
351.669	-8.53
351.881	87.72
352.093	140.97
352.305	100.01
352.517	132.78
352.728	167.59
352.94	54.95
353.152	118.44
353.363	-43.35
353.575	52.91
353.787	175.78
353.999	73.39
354.21	143.02
354.422	-2.39
354.633	11.95
354.845	54.95
355.057	28.33
355.268	30.38
355.48	89.77
355.692	-137.56
355.903	91.82
356.115	-72.02
356.326	75.43
356.538	257.7
356.749	100.01
356.961	153.26
357.172	69.29
357.384	20.14
357.595	173.74
357.807	32.43
358.018	20.14
358.23	13.99
358.441	91.82
358.653	81.58
358.864	32.43
359.075	-2.39
359.287	-39.25
359.498	140.97
359.709	118.44
359.921	-6.49
360.132	52.91
360.344	-0.34
360.555	28.33
360.766	26.28
360.977	-49.49
361.189	28.33
361.4	-37.2
361.611	173.74
361.823	128.68
362.034	38.57
362.245	-20.82
362.456	97.96
362.667	116.39
362.879	16.04
363.09	63.15
363.301	89.77
363.512	57
363.723	-47.44
363.935	-18.77
364.146	116.39
364.357	18.09
364.568	61.1
364.779	-43.35
364.99	124.58
365.201	-16.73
365.412	118.44
365.623	-37.2
365.834	32.43
366.045	38.57
366.256	132.78
366.467	85.67
366.678	20.14
366.889	54.95
367.1	-6.49
367.311	157.35
367.522	-2.39
367.733	112.3
367.944	128.68
368.155	67.24
368.366	97.96
368.577	179.88
368.788	89.77
368.999	65.19
369.209	69.29
369.42	261.8
369.631	198.31
369.842	108.2
370.053	-31.06
370.264	114.34
370.474	-67.92
370.685	46.76
370.896	-10.58
371.107	169.64
371.317	59.05
371.528	-31.06
371.739	143.02
371.95	46.76
372.16	32.43
372.371	-53.59
372.582	95.91
372.792	114.34
373.003	28.33
373.214	114.34
373.424	173.74
373.635	-22.87
373.846	188.07
374.056	59.05
374.267	75.43
374.477	110.25
374.688	16.04
374.898	73.39
375.109	83.63
375.319	13.99
375.53	73.39
375.74	136.87
375.951	13.99
376.161	57
376.372	153.26
376.582	11.95
376.793	112.3
377.003	32.43
377.214	118.44
377.424	83.63
377.635	97.96
377.845	36.52
378.055	145.06
378.266	-18.77
378.476	89.77
378.686	36.52
378.897	48.81
379.107	169.64
379.317	40.62
379.528	-12.63
379.738	34.47
379.948	-78.16
380.158	118.44
380.369	106.15
380.579	63.15
380.789	-4.44
380.999	77.48
381.21	97.96
381.42	190.12
381.63	13.99
381.84	116.39
382.05	22.19
382.261	116.39
382.471	175.78
382.681	24.23
382.891	151.21
383.101	34.47
383.311	9.9
383.521	-24.92
383.731	112.3
383.941	126.63
384.151	81.58
384.361	65.19
384.571	116.39
384.781	65.19
384.991	241.32
385.201	124.58
385.411	140.97
385.621	85.67
385.831	102.06
386.041	69.29
386.251	18.09
386.461	210.6
386.671	63.15
386.881	79.53
387.091	20.14
387.301	100.01
387.511	97.96
387.72	110.25
387.93	167.59
388.14	-110.93
388.35	9.9
388.56	65.19
388.769	161.45
388.979	11.95
389.189	42.67
389.399	128.68
389.609	77.48
389.818	196.26
390.028	69.29
390.238	108.2
390.447	-84.31
390.657	116.39
390.867	50.86
391.076	16.04
391.286	116.39
391.496	22.19
391.705	69.29
391.915	216.74
392.125	147.11
392.334	65.19
392.544	136.87
392.753	30.38
392.963	67.24
393.172	97.96
393.382	54.95
393.591	161.45
393.801	61.1
394.01	116.39
394.22	161.45
394.429	-53.59
394.639	46.76
394.848	83.63
395.058	40.62
395.267	36.52
395.477	48.81
395.686	48.81
395.895	243.37
396.105	243.37
396.314	40.62
396.524	114.34
396.733	67.24
396.942	181.93
397.152	1.71
397.361	124.58
397.57	38.57
397.78	7.85
397.989	95.91
398.198	253.61
398.407	81.58
398.617	89.77
398.826	71.34
399.035	83.63
399.244	85.67
399.453	65.19
399.663	104.11
399.872	89.77
400.081	-45.4
400.29	179.88
400.499	26.28
400.708	130.73
400.917	26.28
401.127	75.43
401.336	59.05
401.545	245.41
401.754	132.78
401.963	63.15
402.172	-4.44
402.381	-35.16
402.59	155.3
402.799	61.1
403.008	138.92
403.217	108.2
403.426	73.39
403.635	1.71
403.844	-8.53
404.053	26.28
404.262	-59.73
404.471	175.78
404.68	30.38
404.888	-31.06
405.097	100.01
405.306	97.96
405.515	151.21
405.724	48.81
405.933	91.82
406.142	143.02
406.35	93.87
406.559	65.19
406.768	-16.73
406.977	126.63
407.185	52.91
407.394	93.87
407.603	-76.12
407.812	132.78
408.02	126.63
408.229	20.14
408.438	77.48
408.646	36.52
408.855	48.81
409.064	65.19
409.272	89.77
409.481	116.39
409.69	9.9
409.898	85.67
410.107	149.16
410.315	122.54
410.524	13.99
410.733	34.47
410.941	85.67
411.15	130.73
411.358	5.8
411.567	192.17
411.775	5.8
411.984	48.81
412.192	-4.44
412.401	36.52
412.609	157.35
412.818	77.48
413.026	61.1
413.234	71.34
413.443	28.33
413.651	32.43
413.86	52.91
414.068	130.73
414.276	218.79
414.485	83.63
414.693	145.06
414.901	196.26
415.11	61.1
415.318	61.1
415.526	75.43
415.734	124.58
415.943	50.86
416.151	138.92
416.359	91.82
416.567	114.34
416.776	46.76
416.984	118.44
417.192	179.88
417.4	9.9
417.608	-24.92
417.817	104.11
418.025	130.73
418.233	145.06
418.441	38.57
418.649	9.9
418.857	132.78
419.065	177.83
419.273	32.43
419.481	46.76
419.689	34.47
419.897	73.39
420.105	26.28
420.313	75.43
420.521	208.55
420.729	138.92
420.937	54.95
421.145	-55.64
421.353	97.96
421.561	124.58
421.769	52.91
421.977	-20.82
422.185	67.24
422.393	85.67
422.601	124.58
422.809	163.5
423.017	134.82
423.224	-2.39
423.432	112.3
423.64	116.39
423.848	132.78
424.056	32.43
424.263	132.78
424.471	63.15
424.679	161.45
424.887	-57.68
425.094	143.02
425.302	52.91
425.51	79.53
425.718	167.59
425.925	75.43
426.133	67.24
426.341	151.21
426.548	126.63
426.756	24.23
426.964	81.58
427.171	32.43
427.379	95.91
427.586	79.53
427.794	151.21
428.001	157.35
428.209	130.73
428.417	138.92
428.624	75.43
428.832	110.25
429.039	102.06
429.247	93.87
429.454	116.39
429.662	269.99
429.869	202.41
430.076	202.41
430.284	108.2
430.491	175.78
430.699	188.07
430.906	208.55
431.114	112.3
431.321	186.02
431.528	175.78
431.736	167.59
431.943	81.58
432.15	212.65
432.358	216.74
432.565	245.41
432.772	7.85
432.979	239.27
433.187	132.78
433.394	255.65
433.601	151.21
433.808	210.6
434.016	151.21
434.223	220.84
434.43	212.65
434.637	247.46
434.844	196.26
435.052	194.22
435.259	245.41
435.466	288.42
435.673	208.55
435.88	259.75
436.087	351.91
436.294	321.19
436.501	337.57
436.708	274.09
436.915	294.57
437.122	335.53
437.329	276.13
437.537	284.33
437.743	358.05
437.95	487.08
438.157	382.63
438.364	372.39
438.571	386.72
438.778	392.87
438.985	409.25
439.192	456.36
439.399	380.58
439.606	452.26
439.813	421.54
440.02	626.34
440.227	618.15
440.433	507.55
440.64	442.02
440.847	439.97
441.054	521.89
441.261	650.91
441.467	568.99
441.674	577.19
441.881	671.39
442.088	669.34
442.294	679.58
442.501	704.16
442.708	755.36
442.914	724.64
443.121	917.15
443.328	847.52
443.534	915.1
443.741	847.52
443.948	741.02
444.154	849.57
444.361	1072.79
444.568	974.49
444.774	1042.07
444.981	951.96
445.187	1128.09
445.394	1103.51
445.6	1146.52
445.807	1250.97
446.013	1189.53
446.22	1189.53
446.426	1345.17
446.633	1443.48
446.839	1660.56
447.046	1318.55
447.252	1504.92
447.459	1590.93
447.665	1648.27
447.871	1709.71
448.078	1756.82
448.284	1722
448.491	1873.55
448.697	1982.09
448.903	2084.49
449.11	2072.2
449.316	2018.96
449.522	2186.89
449.728	2389.64
449.935	2418.31
450.141	2346.63
450.347	2537.09
450.553	2598.53
450.76	2659.97
450.966	2733.7
451.172	2887.29
451.378	2930.3
451.584	3116.67
451.791	3358.33
451.997	3288.7
452.203	3401.33
452.409	3638.9
452.615	3599.99
452.821	3552.88
453.027	3767.92
453.233	4068.97
453.44	4085.36
453.646	4292.2
453.852	4417.13
454.058	4554.34
454.264	4720.23
454.47	5070.43
454.676	5070.43
454.882	5365.34
455.088	5473.88
455.294	5418.58
455.5	5801.55
455.705	6344.27
455.911	6317.64
456.117	6278.73
456.323	6608.45
456.529	6499.91
456.735	6999.62
456.941	7405.11
457.147	7726.64
457.352	7960.11
457.558	8115.76
457.764	8613.42
457.97	8850.98
458.176	9203.23
458.381	9651.74
458.587	9799.19
458.793	10307.09
458.999	10313.23
459.204	11476.48
459.41	11808.25
459.616	11730.42
459.821	12408.3
460.027	13207.01
460.233	13782.49
460.438	13829.59
460.644	14398.93
460.85	14573
461.055	15214.02
461.261	16027.06
461.466	15889.85
461.672	15781.31
461.878	17808.79
462.083	17690.01
462.289	18089.37
462.494	18736.52
462.7	18955.66
462.905	19217.8
463.111	20948.33
463.316	21933.4
463.522	22031.71
463.727	22783.31
463.932	23698.75
464.138	24227.13
464.343	25312.55
464.549	25597.22
464.754	27630.85
464.959	28333.31
465.165	28488.95
465.37	28187.9
465.575	28495.1
465.781	30547.16
465.986	31519.95
466.191	30672.09
466.397	30966.99
466.602	30530.78
466.807	32222.4
467.012	32732.34
467.218	33025.2
467.423	33445.04
467.628	34165.92
467.833	35875.98
468.038	34948.25
468.244	34708.63
468.449	36271.23
468.654	35529.87
468.859	35384.46
469.064	35525.77
469.269	34661.53
469.474	34905.24
469.679	36146.31
469.885	34923.67
470.09	35925.13
470.295	35775.62
470.5	34962.58
470.705	34946.2
470.91	33825.96
471.115	33803.43
471.32	34604.19
471.525	34378.91
471.73	33031.35
471.935	33080.5
472.139	31691.98
472.344	31880.39
472.549	31835.33
472.754	31220.94
472.959	30235.87
473.164	29555.94
473.369	29103.34
473.574	29693.16
473.778	29342.95
473.983	28900.59
474.188	28171.52
474.393	26932.5
474.598	26807.57
474.802	26015.01
475.007	25730.34
475.212	25824.54
475.417	24653.11
475.621	24286.52
475.826	24409.4
476.031	23551.3
476.235	23139.66
476.44	23176.52
476.645	22482.26
476.849	22068.57
477.054	21806.43
477.259	21548.39
477.463	21288.29
477.668	20622.7
477.872	20825.45
478.077	20010.36
478.282	19492.23
478.486	19275.14
478.691	19357.06
478.895	19086.73
479.1	18933.13
479.304	18920.84
479.509	18263.44
479.713	18496.91
479.918	17919.39
480.122	17450.4
480.326	17950.1
480.531	17829.27
480.735	17403.3
480.94	17049
481.144	17804.7
481.348	16866.73
481.553	16895.4
481.757	16276.91
481.961	16649.64
482.166	16805.29
482.37	16338.35
482.574	15998.39
482.778	16129.46
482.983	16354.74
483.187	15883.7
483.391	15838.65
483.595	15556.03
483.8	15283.65
484.004	15394.24
484.208	15283.65
484.412	15209.92
484.616	15007.17
484.821	15246.79
485.025	14347.73
485.229	14673.35
485.433	14249.43
485.637	14224.85
485.841	13897.17
486.045	13731.29
486.249	13729.24
486.453	13448.67
486.657	13237.73
486.861	13069.8
487.065	12641.77
487.269	12604.91
487.473	12260.85
487.677	12412.4
487.881	12357.1
488.085	11912.69
488.289	11673.08
488.493	11298.3
488.697	11419.13
488.901	11161.09
489.105	10952.2
489.309	10638.86
489.512	10712.58
489.716	10487.31
489.92	10239.5
490.124	9942.55
490.328	10046.99
490.531	9731.61
490.735	9641.5
490.939	9485.85
491.143	9135.65
491.346	8990.24
491.55	8943.14
491.754	8777.25
491.958	8853.03
492.161	8433.19
492.365	8420.91
492.569	8154.67
492.772	8046.13
492.976	7976.5
493.18	7949.87
493.383	7894.58
493.587	7640.63
493.79	7861.81
493.994	7599.67
494.197	7419.45
494.401	7513.66
494.605	7247.42
494.808	7337.53
495.012	7403.07
495.215	7120.45
495.419	7126.59
495.622	6833.73
495.825	6950.46
496.029	6846.02
496.232	6927.94
496.436	6807.11
496.639	7050.82
496.843	6905.41
497.046	6848.07
497.249	7110.21
497.453	6923.84
497.656	6823.49
497.859	6925.89
498.063	6985.28
498.266	7036.48
498.469	6839.87
498.673	7046.72
498.876	6991.42
499.079	6962.75
499.282	6880.83
499.485	7196.22
499.689	7050.82
499.892	7226.94
500.095	7040.58
500.298	7196.22
500.501	7026.24
500.705	7441.98
500.908	7333.43
501.111	7550.52
501.314	7413.31
501.517	7765.56
501.72	7743.03
501.923	7675.45
502.126	7779.89
502.329	8199.73
502.532	8060.46
502.735	8113.71
502.938	8322.6
503.141	8369.71
503.344	8412.71
503.547	8697.38
503.75	8541.74
503.953	8758.82
504.156	8877.6
504.359	9039.39
504.562	8867.36
504.765	9258.53
504.968	9260.57
505.17	9723.41
505.373	9631.26
505.576	9866.77
505.779	9756.18
505.982	10171.92
506.185	10245.65
506.387	10288.65
506.59	10645
506.793	10888.71
506.996	10673.67
507.198	11390.46
507.401	11568.63
507.604	11707.9
507.807	11984.37
508.009	11976.18
508.212	12172.78
508.415	12559.85
508.617	12858.85
508.82	12971.49
509.022	13178.34
509.225	13751.77
509.428	13712.86
509.63	13985.24
509.833	14327.25
510.035	15027.65
510.238	14917.06
510.44	15072.71
510.643	15875.51
510.845	16063.93
511.048	16446.9
511.25	16637.36
511.453	17132.97
511.655	17489.31
511.858	18091.41
512.06	18394.51
512.262	18564.5
512.465	18865.55
512.667	19551.62
512.87	19883.39
513.072	20364.66
513.274	20850.03
513.477	21427.56
513.679	21773.66
513.881	22492.5
514.084	22900.05
514.286	23205.19
514.488	23717.18
514.69	24663.35
514.893	24876.34
515.095	25365.8
515.297	25879.84
515.499	26363.16
515.701	26674.45
515.904	27475.21
516.106	28120.32
516.308	28714.23
516.51	29160.69
516.712	29631.72
516.914	30313.69
517.116	31071.44
517.318	31806.66
517.52	31896.77
517.722	32527.55
517.925	33508.52
518.127	33952.93
518.329	34919.57
518.531	34409.63
518.733	36232.32
518.935	36324.48
519.136	36338.82
519.338	36934.78
519.54	38202.47
519.742	38519.9
519.944	38857.82
520.146	39683.15
520.348	40428.61
520.55	40621.12
520.752	41092.15
520.954	42034.22
521.155	41954.35
521.357	42769.44
521.559	43082.78
521.761	43748.37
521.963	44010.51
522.164	44393.48
522.366	44479.49
522.568	45421.56
522.77	45569.01
522.971	46523.36
523.173	46097.39
523.375	46492.65
523.576	46568.42
523.778	46853.09
523.98	47463.38
524.181	47305.69
524.383	47698.9
524.584	48133.07
524.786	47723.47
524.988	47559.64
525.189	47983.57
525.391	48542.66
525.592	48610.24
525.794	48718.79
525.995	48448.46
526.197	48167.88
526.398	48378.82
526.6	48063.44
526.801	48227.27
527.003	48257.99
527.204	48075.73
527.406	48143.31
527.607	48020.43
527.808	47813.59
528.01	46797.79
528.211	46736.35
528.412	46924.77
528.614	46709.73
528.815	46218.22
529.016	46466.02
529.218	45388.79
529.419	45216.76
529.62	44602.37
529.822	44471.3
530.023	44082.19
530.224	43801.61
530.425	43324.44
530.626	42568.74
530.828	42087.46
531.029	42808.35
531.23	42032.17
531.431	41202.74
531.632	40723.52
531.833	40629.31
532.035	39599.18
532.236	39287.89
532.437	39378
532.638	38407.26
532.839	38042.73
533.04	37803.11
533.241	36813.94
533.442	36869.24
533.643	36062.34
533.844	35923.08
534.045	35214.48
534.246	34628.76
534.447	34241.7
534.648	33823.91
534.849	33359.02
535.05	32677.05
535.251	32857.27
535.451	31925.44
535.652	31943.88
535.853	30784.72
536.054	30895.32
536.255	30457.05
536.456	29648.1
536.657	29431.02
536.857	29279.47
537.058	28888.31
537.259	28398.84
537.46	28144.89
537.66	27383.05
537.861	27352.33
538.062	27239.69
538.263	26928.4
538.463	26492.18
538.664	25951.52
538.865	25492.77
539.065	25546.02
539.266	25031.98
539.466	25072.94
539.667	24374.58
539.868	24677.68
540.068	23528.77
540.269	23569.73
540.469	23262.54
540.67	22981.96
540.87	22664.53
541.071	22187.35
541.271	22465.88
541.472	22007.13
541.672	21949.79
541.873	21427.56
542.073	21042.54
542.274	20991.34
542.474	20548.98
542.675	20401.52
542.875	20573.55
543.075	20084.09
543.276	19750.27
543.476	19877.24
543.676	19461.51
543.877	19260.8
544.077	18931.08
544.277	18877.83
544.478	18269.59
544.678	18240.92
544.878	18195.86
545.078	18349.46
545.279	17579.42
545.479	17388.96
545.679	17501.6
545.879	17307.04
546.079	16979.37
546.28	16719.28
546.48	16471.47
546.68	16358.83
546.88	16442.8
547.08	15959.48
547.28	15906.23
547.48	15457.73
547.68	15431.1
547.88	15162.82
548.081	15197.63
548.281	14806.47
548.481	14599.63
548.681	14722.51
548.881	14216.66
549.081	14085.59
549.28	13768.15
549.48	13702.62
549.68	13620.7
549.88	13438.43
550.08	13147.62
550.28	13153.76
550.48	12776.94
550.68	12936.68
550.88	12428.78
551.08	12400.11
551.279	12070.39
551.479	12070.39
551.679	11800.05
551.879	11513.34
552.079	11269.63
552.278	11361.79
552.478	11243.01
552.678	10980.87
552.878	10870.28
553.077	10728.97
553.277	10421.77
553.477	10259.98
553.676	10112.53
553.876	10135.06
554.076	9926.16
554.275	9614.87
554.475	9606.68
554.674	9496.09
554.874	9319.96
555.074	9102.88
555.273	8986.15
555.473	8863.27
555.672	8668.71
555.872	8517.16
556.071	8427.05
556.271	8367.66
556.47	8261.16
556.67	7958.07
556.869	7915.06
557.068	7808.56
557.268	7700.02
557.467	7605.81
557.667	7571
557.866	7341.63
558.065	7167.55
558.265	7048.77
558.464	6821.44
558.663	6843.97
558.863	6598.21
559.062	6678.08
559.261	6321.74
559.461	6610.5
559.66	6356.55
559.859	6041.17
560.058	6157.9
560.258	6012.49
560.457	5797.46
560.656	5969.49
560.855	5682.77
561.054	5598.81
561.253	5613.14
561.453	5486.17
561.652	5400.15
561.851	5484.12
562.05	5162.59
562.249	5219.93
562.448	4992.61
562.647	4925.02
562.846	4927.07
563.045	4877.92
563.244	4789.86
563.443	4726.37
563.642	4533.86
563.841	4671.08
564.04	4462.18
564.239	4546.15
564.438	4324.97
564.637	4179.56
564.836	4095.6
565.035	4071.02
565.234	4126.32
565.432	4120.17
565.631	3989.1
565.83	3872.37
566.029	3931.76
566.228	3884.66
566.427	3909.23
566.625	3640.95
566.824	3667.57
567.023	3554.93
567.222	3571.32
567.42	3581.56
567.619	3513.97
567.818	3430.01
568.016	3583.6
568.215	3276.41
568.414	3495.54
568.612	3270.26
568.811	3184.25
569.01	3088
569.208	3110.52
569.407	3075.71
569.605	2948.73
569.804	3001.98
570.002	2969.21
570.201	2791.04
570.4	2961.02
570.598	2834.05
570.797	2793.09
570.995	2539.14
571.193	2606.72
571.392	2668.16
571.59	2604.67
571.789	2485.89
571.987	2643.59
572.186	2586.24
572.384	2571.91
572.582	2449.03
572.781	2506.37
572.979	2344.58
573.177	2279.05
573.376	2412.17
573.574	2317.96
573.772	2238.09
573.971	2176.65
574.169	2113.16
574.367	2207.37
574.565	2086.54
574.763	2096.78
574.962	1908.37
575.16	1842.83
575.358	1971.85
575.556	1949.32
575.754	1875.6
575.952	1736.34
576.151	1832.59
576.349	1863.31
576.547	1654.42
576.745	1746.58
576.943	1670.8
577.141	1683.09
577.339	1568.4
577.537	1631.89
577.735	1588.88
577.933	1588.88
578.131	1562.26
578.329	1642.13
578.527	1539.73
578.725	1459.86
578.923	1351.32
579.121	1498.77
579.319	1285.78
579.516	1402.52
579.714	1543.83
579.912	1461.91
580.11	1240.73
580.308	1388.18
580.506	1345.17
580.704	1146.52
580.901	1119.9
581.099	1408.66
581.297	1257.11
581.495	1181.34
581.692	1142.43
581.89	1291.93
582.088	1240.73
582.285	1101.47
582.483	1113.75
582.681	1076.89
582.878	1103.51
583.076	1183.38
583.274	1132.19
583.471	1148.57
583.669	1040.03
583.866	917.15
584.064	992.92
584.262	896.67
584.459	986.78
584.657	958.11
584.854	1066.65
585.052	997.02
585.249	917.15
585.447	870.05
585.644	831.13
585.841	982.68
586.039	980.64
586.236	855.71
586.434	755.36
586.631	876.19
586.828	839.33
587.026	822.94
587.223	720.54
587.42	712.35
587.618	843.42
587.815	882.33
588.012	765.6
588.21	745.12
588.407	937.63
588.604	859.81
588.801	663.2
588.999	712.35
589.196	800.41
589.393	677.54
589.59	755.36
589.787	698.02
589.984	777.89
590.182	691.87
590.379	554.66
590.576	616.1
590.773	691.87
590.97	695.97
591.167	671.39
591.364	765.6
591.561	661.15
591.758	810.65
591.955	671.39
592.152	601.76
592.349	679.58
592.546	556.71
592.743	554.66
592.94	573.09
593.137	710.3
593.334	655.01
593.531	712.35
593.727	700.06
593.924	689.82
594.121	593.57
594.318	708.26
594.515	724.64
594.712	779.93
594.908	845.47
595.105	587.43
595.302	700.06
595.499	736.93
595.696	767.65
595.892	671.39
596.089	767.65
596.286	716.45
596.482	800.41
596.679	804.51
596.876	706.21
597.072	908.96
597.269	734.88
597.466	868
597.662	779.93
597.859	849.57
598.055	1009.31
598.252	994.97
598.448	1107.61
598.645	1144.47
598.841	1064.6
599.038	1230.49
599.234	1296.02
599.431	1220.25
599.627	1293.97
599.824	1400.47
600.02	1179.29
600.217	1347.22
600.413	1408.66
600.609	1502.87
600.806	1681.04
601.002	1650.32
601.198	1574.55
601.395	1707.66
601.591	1691.28
601.787	1762.96
601.984	1914.51
602.18	1926.8
602.376	1906.32
602.572	2135.69
602.769	2236.04
602.965	2311.82
603.161	2199.18
603.357	2313.86
603.553	2412.17
603.75	2346.63
603.946	2463.37
604.142	2672.26
604.338	3020.41
604.534	2846.34
604.73	2989.69
604.926	2924.16
605.122	3223.16
605.318	3169.91
605.514	3423.86
605.71	3430.01
605.906	3737.2
606.102	3610.23
606.298	3718.77
606.494	3929.71
606.69	4134.51
606.886	4126.32
607.082	4122.22
607.278	4261.48
607.474	4517.48
607.67	4623.97
607.866	4501.09
608.062	4898.4
608.257	5092.96
608.453	4978.27
608.649	5221.98
608.845	5226.07
609.041	5430.87
609.236	5643.86
609.432	5920.34
609.628	6080.08
609.824	6209.1
610.019	6170.19
610.215	6362.7
610.411	6821.44
610.606	6768.2
610.802	7075.39
610.998	7093.82
611.193	7333.43
611.389	7151.17
611.584	7663.16
611.78	7849.52
611.976	8154.67
612.171	8447.53
612.367	8455.72
612.562	8730.15
612.758	8795.68
612.953	8918.56
613.149	9397.79
613.344	9457.18
613.539	9983.51
613.735	10270.22
613.93	10423.82
614.126	10579.47
614.321	11040.26
614.517	11191.81
614.712	11394.56
614.907	11595.26
615.103	11763.19
615.298	12475.88
615.493	12785.13
615.688	12975.59
615.884	13721.05
616.079	13370.85
616.274	13891.03
616.47	14222.8
616.665	14599.63
616.86	15001.03
617.055	15515.07
617.25	15773.11
617.445	16563.63
617.641	16483.76
617.836	17055.14
618.031	17266.08
618.226	17991.06
618.421	18277.78
618.616	18611.6
618.811	18920.84
619.006	19789.18
619.201	19547.52
619.396	20379
619.591	20485.49
619.786	21441.89
619.981	21407.08
620.176	22330.71
620.371	22568.27
620.566	23072.07
620.761	23303.5
620.956	24028.48
621.151	24192.31
621.346	24911.15
621.541	24913.2
621.735	26047.77
621.93	25885.98
622.125	26805.52
622.32	26780.95
622.515	27663.62
622.709	28228.86
622.904	28357.88
623.099	28884.21
623.294	29588.71
623.488	29611.24
623.683	30414.04
623.878	30584.02
624.072	31409.36
624.267	31941.83
624.462	32410.81
624.656	32568.51
624.851	33692.84
625.046	33690.79
625.24	34229.41
625.435	34253.98
625.629	35325.07
625.824	35257.49
626.018	35968.13
626.213	36000.9
626.407	36625.53
626.602	36609.15
626.796	37528.69
626.991	37848.17
627.185	38024.29
627.38	38188.13
627.574	38399.07
627.768	38648.92
627.963	38644.83
628.157	38804.57
628.352	39314.51
628.546	38708.32
628.74	39384.15
628.935	38841.43
629.129	39355.47
629.323	38411.36
629.517	38644.83
629.712	38114.41
629.906	38024.29
630.1	37659.76
630.294	37190.77
630.489	37291.12
630.683	36664.44
630.877	35845.26
631.071	35343.5
631.265	34972.82
631.459	33973.41
631.653	33225.9
631.848	32634.04
632.042	32003.27
632.236	30934.23
632.43	30227.68
632.624	29551.85
632.818	28560.63
633.012	27716.87
633.206	26592.53
633.4	26098.97
633.594	25099.56
633.788	24630.58
633.982	23455.04
634.176	22623.57
634.369	21767.52
634.563	21296.49
634.757	20061.56
634.951	19234.18
635.145	18840.97
635.339	17933.72
635.533	16940.46
635.726	16522.67
635.92	15926.71
636.114	15285.7
636.308	14710.22
636.501	14112.21
636.695	13524.44
636.889	12748.26
637.083	12279.28
637.276	11859.45
637.47	11200
637.664	10825.22
637.857	10483.21
638.051	10006.03
638.244	9715.22
638.438	9295.39
638.632	8975.91
638.825	8271.4
639.019	8314.41
639.212	7896.63
639.406	7675.45
639.599	7214.65
639.793	7067.2
639.986	6688.32
640.18	6526.54
640.373	6047.31
640.567	6002.26
640.76	5752.4
640.954	5582.42
641.147	5254.75
641.34	5056.09
641.534	4984.41
641.727	4847.2
641.92	4552.29
642.114	4402.79
642.307	4052.59
642.5	4146.8
642.694	3890.8
642.887	3645.04
643.08	3706.48
643.273	3550.84
643.467	3274.36
643.66	3186.3
643.853	2952.83
644.046	2922.11
644.239	2911.87
644.432	2664.07
644.626	2479.75
644.819	2549.38
645.012	2451.08
645.205	2475.65
645.398	2369.16
645.591	2039.44
645.784	2152.07
645.977	1851.02
646.17	1984.14
646.363	1848.97
646.556	1767.06
646.749	1635.99
646.942	1728.14
647.135	1595.03
647.328	1549.97
647.521	1578.64
647.714	1339.03
647.907	1328.79
648.099	1244.82
648.292	1367.7
648.485	1267.35
648.678	1160.86
648.871	1154.71
649.064	1119.9
649.256	966.3
649.449	890.53
649.642	876.19
649.835	941.72
650.027	906.91
650.22	929.44
650.413	888.48
650.605	839.33
650.798	755.36
650.991	761.5
651.183	695.97
651.376	718.5
651.568	734.88
651.761	689.82
651.954	698.02
652.146	575.14
652.339	587.43
652.531	702.11
652.724	548.51
652.916	546.47
653.109	456.36
653.301	614.05
653.494	607.91
653.686	489.12
653.879	575.14
654.071	480.93
654.263	409.25
654.456	417.44
654.648	525.99
654.84	499.36
655.033	421.54
655.225	560.8
655.417	425.64
655.61	482.98
655.802	499.36
655.994	495.27
656.186	298.66
656.379	407.2
656.571	310.95
656.763	343.72
656.955	239.27
657.148	329.38
657.34	446.12
657.532	267.94
657.724	229.03
657.916	329.38
658.108	407.2
658.3	313
658.492	237.22
658.684	257.7
658.876	370.34
659.068	259.75
659.26	179.88
659.452	155.3
659.644	284.33
659.836	269.99
660.028	241.32
660.22	145.06
660.412	237.22
660.604	202.41
660.796	216.74
660.988	327.33
661.18	323.24
661.372	241.32
661.563	249.51
661.755	188.07
661.947	93.87
662.139	161.45
662.331	194.22
662.522	179.88
662.714	186.02
662.906	134.82
663.097	239.27
663.289	220.84
663.481	128.68
663.673	147.11
663.864	163.5
664.056	151.21
664.247	153.26
664.439	306.85
664.631	216.74
664.822	231.08
665.014	126.63
665.205	87.72
665.397	67.24
665.588	89.77
665.78	145.06
665.971	175.78
666.163	71.34
666.354	175.78
666.546	112.3
666.737	165.54
666.929	186.02
667.12	124.58
667.311	188.07
667.503	175.78
667.694	143.02
667.885	163.5
668.077	231.08
668.268	-6.49
668.459	186.02
668.651	169.64
668.842	153.26
669.033	89.77
669.224	132.78
669.416	388.77
669.607	85.67
669.798	79.53
669.989	239.27
670.18	145.06
670.371	169.64
670.563	97.96
670.754	235.18
670.945	229.03
671.136	153.26
671.327	50.86
671.518	231.08
671.709	257.7
671.9	212.65
672.091	188.07
672.282	159.4
672.473	149.16
672.664	73.39
672.855	151.21
673.046	218.79
673.237	251.56
673.428	114.34
673.619	251.56
673.809	106.15
674	204.46
674.191	235.18
674.382	69.29
674.573	214.7
674.764	194.22
674.954	95.91
675.145	85.67
675.336	138.92
675.527	106.15
675.717	102.06
675.908	91.82
676.099	52.91
676.289	138.92
676.48	-6.49
676.671	104.11
676.861	110.25
677.052	188.07
677.243	124.58
677.433	132.78
677.624	214.7
677.814	196.26
678.005	108.2
678.195	237.22
678.386	50.86
678.576	112.3
678.767	97.96
678.957	171.69
679.148	255.65
679.338	286.37
679.529	226.98
679.719	26.28
679.909	306.85
680.1	313
680.29	190.12
680.481	91.82
680.671	159.4
680.861	188.07
681.052	118.44
681.242	159.4
681.432	167.59
681.622	204.46
681.813	46.76
682.003	132.78
682.193	132.78
682.383	163.5
682.573	177.83
682.764	130.73
682.954	190.12
683.144	278.18
683.334	118.44
683.524	132.78
683.714	261.8
683.904	157.35
684.094	192.17
684.284	183.98
684.474	231.08
684.664	300.71
684.854	298.66
685.044	173.74
685.234	263.85
685.424	280.23
685.614	124.58
685.804	296.61
685.994	163.5
686.184	167.59
686.374	161.45
686.564	192.17
686.753	173.74
686.943	120.49
687.133	214.7
687.323	214.7
687.513	231.08
687.702	177.83
687.892	173.74
688.082	272.04
688.272	220.84
688.461	243.37
688.651	372.39
688.841	243.37
689.03	173.74
689.22	188.07
689.41	263.85
689.599	104.11
689.789	186.02
689.979	319.14
690.168	249.51
690.358	325.29
690.547	282.28
690.737	198.31
690.926	245.41
691.116	196.26
691.305	204.46
691.495	208.55
691.684	177.83
691.874	149.16
692.063	161.45
692.252	259.75
692.442	274.09
692.631	179.88
692.82	194.22
693.01	183.98
693.199	143.02
693.388	247.46
693.578	274.09
693.767	296.61
693.956	302.76
694.146	220.84
694.335	226.98
694.524	229.03
694.713	282.28
694.902	147.11
695.092	186.02
695.281	216.74
695.47	186.02
695.659	132.78
695.848	110.25
696.037	145.06
696.226	263.85
696.415	190.12
696.604	284.33
696.793	122.54
696.982	231.08
697.171	294.57
697.36	169.64
697.549	183.98
697.738	71.34
697.927	126.63
698.116	151.21
698.305	218.79
698.494	155.3
698.683	186.02
698.872	337.57
699.061	106.15
699.25	102.06
699.438	186.02
699.627	130.73
699.816	300.71
700.005	128.68
700.193	87.72
700.382	163.5
700.571	196.26
700.76	302.76
700.948	233.13
701.137	112.3
701.326	243.37
701.514	83.63
701.703	202.41
701.892	188.07
702.08	396.96
702.269	163.5
702.457	155.3
702.646	214.7
702.834	212.65
703.023	265.89
703.212	253.61
703.4	226.98
703.589	175.78
703.777	145.06
703.965	122.54
704.154	114.34
704.342	46.76
704.531	183.98
704.719	194.22
704.907	321.19
705.096	143.02
705.284	120.49
705.472	194.22
705.661	194.22
705.849	212.65
706.037	274.09
706.226	200.36
706.414	226.98
706.602	163.5
706.79	190.12
706.979	186.02
707.167	186.02
707.355	100.01
707.543	173.74
707.731	276.13
707.919	157.35
708.107	159.4
708.296	194.22
708.484	145.06
708.672	241.32
708.86	153.26
709.048	253.61
709.236	40.62
709.424	220.84
709.612	231.08
709.8	52.91
709.988	265.89
710.176	251.56
710.364	216.74
710.551	188.07
710.739	216.74
710.927	171.69
711.115	186.02
711.303	249.51
711.491	216.74
711.679	102.06
711.866	306.85
712.054	231.08
712.242	222.89
712.43	294.57
712.617	89.77
712.805	276.13
712.993	188.07
713.181	157.35
713.368	233.13
713.556	214.7
713.744	220.84
713.931	353.96
714.119	282.28
714.306	204.46
714.494	253.61
714.682	91.82
714.869	89.77
715.057	198.31
715.244	46.76
715.432	126.63
715.619	175.78
715.807	128.68
715.994	190.12
716.182	241.32
716.369	306.85
716.556	216.74
716.744	120.49
716.931	208.55
717.119	269.99
717.306	216.74
717.493	194.22
717.681	165.54
717.868	106.15
718.055	267.94
718.242	190.12
718.43	138.92
718.617	245.41
718.804	128.68
718.991	310.95
719.179	241.32
719.366	181.93
719.553	169.64
719.74	132.78
719.927	149.16
720.114	280.23
720.301	100.01
720.488	177.83
720.676	196.26
720.863	308.9
721.05	272.04
721.237	231.08
721.424	239.27
721.611	190.12
721.798	124.58
721.985	87.72
722.172	198.31
722.358	206.5
722.545	237.22
722.732	239.27
722.919	247.46
723.106	315.05
723.293	282.28
723.48	294.57
723.667	173.74
723.853	292.52
724.04	173.74
724.227	274.09
724.414	257.7
724.6	298.66
724.787	296.61
724.974	366.25
725.161	183.98
725.347	165.54
725.534	216.74
725.72	306.85
725.907	280.23
726.094	317.09
726.28	100.01
726.467	128.68
726.653	151.21
726.84	292.52
727.027	329.38
727.213	155.3
727.4	319.14
727.586	216.74
727.773	179.88
727.959	206.5
728.145	149.16
728.332	226.98
728.518	208.55
728.705	288.42
728.891	243.37
729.077	239.27
729.264	145.06
729.45	263.85
729.636	280.23
729.823	132.78
730.009	296.61
730.195	237.22
730.382	327.33
730.568	159.4
730.754	255.65
730.94	218.79
731.126	169.64
731.313	315.05
731.499	237.22
731.685	265.89
731.871	198.31
732.057	212.65
732.243	304.81
732.429	337.57
732.615	315.05
732.801	237.22
732.987	222.89
733.173	233.13
733.359	204.46
733.545	237.22
733.731	210.6
733.917	349.86
734.103	274.09
734.289	208.55
734.475	183.98
734.661	319.14
734.847	208.55
735.033	216.74
735.219	282.28
735.404	140.97
735.59	237.22
735.776	292.52
735.962	302.76
736.148	286.37
736.333	362.15
736.519	296.61
736.705	208.55
736.89	253.61
737.076	237.22
737.262	149.16
737.447	200.36
737.633	233.13
737.819	263.85
738.004	308.9
738.19	186.02
738.375	374.44
738.561	282.28
738.747	255.65
738.932	147.11
739.118	329.38
739.303	247.46
739.489	249.51
739.674	259.75
739.859	198.31
740.045	235.18
740.23	323.24
740.416	97.96
740.601	276.13
740.786	216.74
740.972	265.89
741.157	224.94
741.342	292.52
741.528	132.78
741.713	302.76
741.898	194.22
742.084	224.94
742.269	204.46
742.454	251.56
742.639	263.85
742.824	288.42
743.01	351.91
743.195	255.65
743.38	208.55
743.565	190.12
743.75	241.32
743.935	296.61
744.12	292.52
744.305	188.07
744.49	208.55
744.675	274.09
744.86	278.18
745.045	204.46
745.23	132.78
745.415	241.32
745.6	337.57
745.785	138.92
745.97	362.15
746.155	255.65
746.34	286.37
746.525	208.55
746.71	294.57
746.895	186.02
747.079	165.54
747.264	206.5
747.449	321.19
747.634	321.19
747.819	159.4
748.003	161.45
748.188	120.49
748.373	206.5
748.557	200.36
748.742	241.32
748.927	216.74
749.111	210.6
749.296	173.74
749.481	253.61
749.665	124.58
749.85	134.82
750.034	177.83
750.219	134.82
750.404	155.3
750.588	155.3
750.773	102.06
750.957	282.28
751.141	206.5
751.326	265.89
751.51	63.15
751.695	167.59
751.879	165.54
752.064	263.85
752.248	91.82
752.432	276.13
752.617	247.46
752.801	292.52
752.985	147.11
753.17	212.65
753.354	233.13
753.538	136.87
753.722	120.49
753.907	161.45
754.091	112.3
754.275	229.03
754.459	44.71
754.643	116.39
754.828	190.12
755.012	153.26
755.196	57
755.38	120.49
755.564	75.43
755.748	102.06
755.932	91.82
756.116	169.64
756.3	257.7
756.484	106.15
756.668	106.15
756.852	22.19
757.036	116.39
757.22	159.4
757.404	118.44
757.588	42.67
757.772	179.88
757.956	93.87
758.14	267.94
758.323	75.43
758.507	190.12
758.691	118.44
758.875	237.22
759.059	284.33
759.242	38.57
759.426	122.54
759.61	157.35
759.794	93.87
759.977	218.79
760.161	313
760.345	243.37
760.528	216.74
760.712	181.93
760.895	204.46
761.079	169.64
761.263	13.99
761.446	61.1
761.63	46.76
761.813	198.31
761.997	36.52
762.18	85.67
762.364	167.59
762.547	22.19
762.731	112.3
762.914	73.39
763.098	95.91
763.281	54.95
763.464	100.01
763.648	132.78
763.831	132.78
764.015	71.34
764.198	190.12
764.381	126.63
764.564	163.5
764.748	167.59
764.931	83.63
765.114	167.59
765.297	79.53
765.481	83.63
765.664	151.21
765.847	138.92
766.03	161.45
766.213	54.95
766.397	81.58
766.58	-12.63
766.763	134.82
766.946	83.63
767.129	140.97
767.312	44.71
767.495	81.58
767.678	63.15
767.861	122.54
768.044	106.15
768.227	63.15
768.41	102.06
768.593	112.3
768.776	95.91
768.959	81.58
769.142	194.22
769.324	50.86
769.507	114.34
769.69	36.52
769.873	87.72
770.056	265.89
770.239	136.87
770.421	173.74
770.604	120.49
770.787	44.71
770.97	102.06
771.152	46.76
771.335	134.82
771.518	-10.58
771.7	186.02
771.883	190.12
772.066	-43.35
772.248	110.25
772.431	206.5
772.613	91.82
772.796	108.2
772.978	149.16
773.161	263.85
773.343	50.86
773.526	59.05
773.708	-43.35
773.891	-31.06
774.073	159.4
774.256	95.91
774.438	220.84
774.621	-37.2
774.803	171.69
774.985	5.8
775.168	149.16
775.35	112.3
775.532	122.54
775.715	-31.06
775.897	79.53
776.079	61.1
776.261	161.45
776.444	69.29
776.626	138.92
776.808	75.43
776.99	-63.83
777.173	46.76
777.355	-2.39
777.537	63.15
777.719	71.34
777.901	18.09
778.083	-24.92
778.265	-16.73
778.447	116.39
778.629	89.77
778.811	63.15
778.993	102.06
779.175	145.06
779.357	89.77
779.539	-47.44
779.721	54.95
779.903	116.39
780.085	11.95
780.267	30.38
780.449	97.96
780.631	188.07
780.812	198.31
780.994	18.09
781.176	61.1
781.358	28.33
781.54	87.72
781.721	77.48
781.903	138.92
782.085	7.85
782.267	46.76
782.448	26.28
782.63	61.1
782.812	61.1
782.993	38.57
783.175	61.1
783.357	50.86
783.538	81.58
783.72	24.23
783.901	18.09
784.083	61.1
784.264	138.92
784.446	-35.16
784.627	-8.53
784.809	32.43
784.99	-59.73
785.172	114.34
785.353	77.48
785.535	69.29
785.716	30.38
785.897	-45.4
786.079	-31.06
786.26	20.14
786.441	67.24
786.623	22.19
786.804	-20.82
786.985	-16.73
787.167	36.52
787.348	42.67
787.529	69.29
787.71	200.36
787.891	46.76
788.073	7.85
788.254	-57.68
788.435	147.11
788.616	89.77
788.797	44.71
788.978	16.04
789.159	-24.92
789.34	71.34
789.522	32.43
789.703	-59.73
789.884	32.43
790.065	-10.58
790.246	175.78
790.427	28.33
790.607	91.82
790.788	161.45
790.969	5.8
791.15	91.82
791.331	26.28
791.512	71.34
791.693	24.23
791.874	28.33
792.054	173.74
792.235	108.2
792.416	26.28
792.597	36.52
792.778	83.63
792.958	67.24
793.139	1.71
793.32	16.04
793.5	-37.2
793.681	138.92
793.862	114.34
794.042	7.85
794.223	-8.53
794.404	40.62
794.584	-45.4
794.765	87.72
794.945	48.81
795.126	38.57
795.306	57
795.487	59.05
795.667	-0.34
795.848	1.71
796.028	52.91
796.209	104.11
796.389	118.44
796.57	65.19
796.75	-8.53
796.93	89.77
797.111	5.8
797.291	59.05
797.471	63.15
797.652	-20.82
797.832	-31.06
798.012	112.3
798.192	13.99
798.373	-43.35
798.553	52.91
798.733	95.91
798.913	7.85
799.093	73.39
799.274	83.63
799.454	48.81
799.634	85.67
799.814	-37.2
799.994	28.33
800.174	73.39
800.354	100.01
800.534	-37.2
800.714	89.77
800.894	42.67
801.074	-78.16
801.254	-0.34
801.434	138.92
801.614	-2.39
801.794	-51.54
801.974	1830.54
802.154	-76.12
802.334	106.15
802.514	-82.26
802.693	-10.58
802.873	-2.39
803.053	91.82
803.233	-0.34
803.413	83.63
803.592	-16.73
803.772	24.23
803.952	18.09
804.131	-59.73
804.311	40.62
804.491	118.44
804.67	-14.68
804.85	-47.44
805.03	61.1
805.209	102.06
805.389	42.67
805.568	-47.44
805.748	16.04
805.928	16.04
806.107	67.24
806.287	36.52
806.466	81.58
806.646	-4.44
806.825	-49.49
807.004	13.99
807.184	16.04
807.363	169.64
807.543	-29.01
807.722	-8.53
807.901	32.43
808.081	38.57
808.26	-96.6
808.439	13.99
808.619	-65.88
808.798	7.85
808.977	69.29
809.156	104.11
809.336	11.95
809.515	28.33
809.694	-90.45
809.873	-33.11
810.052	54.95
810.231	122.54
810.411	44.71
810.59	65.19
810.769	42.67
810.948	87.72
811.127	-84.31
811.306	24.23
811.485	79.53
811.664	122.54
811.843	-4.44
812.022	69.29
812.201	32.43
812.38	54.95
812.559	20.14
812.737	-0.34
812.916	-39.25
813.095	54.95
813.274	83.63
813.453	48.81
813.632	18.09
813.811	91.82
813.989	-63.83
814.168	-31.06
814.347	-12.63
814.526	-2.39
814.704	108.2
814.883	110.25
815.062	-33.11
815.24	48.81
815.419	16.04
815.598	13.99
815.776	-41.3
815.955	-10.58
816.133	-43.35
816.312	22.19
816.49	-18.77
816.669	16.04
816.847	40.62
817.026	28.33
817.204	40.62
817.383	-16.73
817.561	-16.73
817.74	40.62
817.918	22.19
818.097	52.91
818.275	-51.54
818.453	79.53
818.632	52.91
818.81	26.28
818.988	24.23
819.167	-39.25
819.345	5.8
819.523	-51.54
819.701	57
819.879	11.95
820.058	-4.44
820.236	-4.44
820.414	48.81
820.592	30.38
820.77	-20.82
820.948	-69.97
821.127	38.57
821.305	34.47
821.483	-67.92
821.661	79.53
821.839	48.81
822.017	-33.11
822.195	24.23
822.373	71.34
822.551	5.8
822.729	30.38
822.907	85.67
823.085	71.34
823.262	9.9
823.44	-10.58
823.618	50.86
823.796	36.52
823.974	-53.59
824.152	-57.68
824.329	-18.77
824.507	46.76
824.685	18.09
824.863	-33.11
825.04	20.14
825.218	67.24
825.396	3.75
825.574	-49.49
825.751	73.39
825.929	108.2
826.107	-20.82
826.284	22.19
826.462	38.57
826.639	-53.59
826.817	-55.64
826.994	13.99
827.172	-45.4
827.349	100.01
827.527	69.29
827.704	30.38
827.882	81.58
828.059	-106.84
828.237	-24.92
828.414	85.67
828.591	-119.12
828.769	-16.73
828.946	-31.06
829.124	24.23
829.301	69.29
829.478	-33.11
829.655	69.29
829.833	48.81
830.01	-41.3
830.187	73.39
830.364	-45.4
830.542	-49.49
830.719	102.06
830.896	85.67
831.073	65.19
831.25	89.77
831.427	-6.49
831.604	20.14
831.782	22.19
831.959	57
832.136	32.43
832.313	132.78
832.49	-55.64
832.667	-35.16
832.844	-49.49
833.021	151.21
833.198	77.48
833.374	-37.2
833.551	11.95
833.728	-65.88
833.905	87.72
834.082	-41.3
834.259	-2.39
834.436	44.71
834.612	-41.3
834.789	114.34
834.966	24.23
835.143	63.15
835.319	-10.58
835.496	91.82
835.673	24.23
835.85	42.67
836.026	32.43
836.203	44.71
836.38	18.09
836.556	-26.96
836.733	-149.84
836.909	163.5
837.086	-2.39
837.262	-63.83
837.439	-22.87
837.616	-102.74
837.792	-49.49
837.968	102.06
838.145	-65.88
838.321	100.01
838.498	30.38
838.674	-14.68
838.851	54.95
839.027	-49.49
839.203	11.95
839.38	52.91
839.556	73.39
839.732	71.34
839.909	24.23
840.085	44.71
840.261	-29.01
840.437	20.14
840.614	-57.68
840.79	89.77
840.966	-6.49
841.142	75.43
841.318	-35.16
841.494	13.99
841.671	54.95
841.847	5.8
842.023	22.19
842.199	54.95
842.375	61.1
842.551	-121.17
842.727	-112.98
842.903	128.68
843.079	-2.39
843.255	67.24
843.431	75.43
843.607	77.48
843.783	-119.12
843.959	40.62
844.134	-84.31
844.31	136.87
844.486	9.9
844.662	-43.35
844.838	32.43
845.013	38.57
845.189	59.05
845.365	36.52
845.541	-53.59
845.716	46.76
845.892	83.63
846.068	-33.11
846.244	-22.87
846.419	22.19
846.595	-55.64
846.77	-72.02
846.946	32.43
847.122	-26.96
847.297	3.75
847.473	104.11
847.648	-108.88
847.824	-0.34
847.999	-55.64
848.175	-24.92
848.35	54.95
848.526	85.67
848.701	77.48
848.876	44.71
849.052	81.58
849.227	26.28
849.403	-18.77
849.578	-65.88
849.753	13.99
849.929	-2.39
850.104	-41.3
850.279	-51.54
850.454	71.34
850.63	124.58
850.805	69.29
850.98	-2.39
851.155	13.99
851.33	65.19
851.505	-88.4
851.681	169.64
851.856	-37.2
852.031	-8.53
852.206	-16.73
852.381	-45.4
852.556	38.57
852.731	-14.68
852.906	124.58
853.081	3.75
853.256	120.49
853.431	-65.88
853.606	-4.44
853.781	-65.88
853.956	-74.07
854.131	-2.39
854.305	-57.68
854.48	-76.12
854.655	-22.87
854.83	-43.35
855.005	-18.77
855.18	100.01
855.354	-8.53
855.529	46.76
855.704	-37.2
855.879	5.8
856.053	-82.26
856.228	57
856.403	-33.11
856.577	69.29
856.752	-59.73
856.926	57
857.101	38.57
857.276	-31.06
857.45	63.15
857.625	40.62
857.799	112.3
857.974	95.91
858.148	-41.3
858.323	-18.77
858.497	3.75
858.672	18.09
858.846	-26.96
859.02	77.48
859.195	-31.06
859.369	32.43
859.543	89.77
859.718	7.85
859.892	73.39
860.066	75.43
860.241	5.8
860.415	7.85
860.589	57
860.763	-69.97
860.938	73.39
861.112	28.33
861.286	-33.11
861.46	-2.39
861.634	24.23
861.808	52.91
861.982	-74.07
862.157	-82.26
862.331	-35.16
862.505	-119.12
862.679	-63.83
862.853	-35.16
863.027	-14.68
863.201	147.11
863.375	-94.55
863.549	48.81
863.722	83.63
863.896	38.57
864.07	-80.21
864.244	-26.96
864.418	16.04
864.592	-57.68
864.766	-6.49
864.939	79.53
865.113	-18.77
865.287	26.28
865.461	-69.97
865.634	13.99
865.808	40.62
865.982	-18.77
866.156	-49.49
866.329	-131.41
866.503	85.67
866.676	48.81
866.85	59.05
867.024	-16.73
867.197	71.34
867.371	20.14
867.544	50.86
867.718	-106.84
867.891	112.3
868.065	-72.02
868.238	-14.68
868.412	44.71
868.585	46.76
868.759	-65.88
868.932	-35.16
869.105	-82.26
869.279	91.82
869.452	-53.59
869.625	63.15
869.799	54.95
869.972	-57.68
870.145	-59.73
870.319	89.77
870.492	-37.2
870.665	-4.44
870.838	-51.54
871.011	-88.4
871.185	-80.21
871.358	-18.77
871.531	11.95
871.704	-49.49
871.877	67.24
872.05	-86.36
872.223	-86.36
872.396	46.76
872.569	-12.63
872.742	-51.54
872.915	59.05
873.088	5.8
873.261	-51.54
873.434	40.62
873.607	-33.11
873.78	46.76
873.953	-43.35
874.126	13.99
874.299	69.29
874.471	-37.2
874.644	-35.16
874.817	93.87
874.99	128.68
875.163	5.8
875.335	54.95
875.508	-37.2
875.681	42.67
875.853	-67.92
876.026	11.95
876.199	81.58
876.371	-10.58
876.544	-37.2
876.717	-22.87
876.889	30.38
877.062	-24.92
877.234	-57.68
877.407	-16.73
877.579	108.2
877.752	42.67
877.924	42.67
878.097	18.09
878.269	16.04
878.442	-10.58
878.614	104.11
878.786	30.38
878.959	42.67
879.131	71.34
879.303	-112.98
879.476	-59.73
879.648	42.67
879.82	16.04
879.993	-45.4
880.165	30.38
880.337	-29.01
880.509	-8.53
880.681	-47.44
880.854	20.14
881.026	71.34
881.198	149.16
881.37	20.14
881.542	-45.4
881.714	-57.68
881.886	5.8
882.058	11.95
882.23	-37.2
882.402	-94.55
882.574	26.28
882.746	50.86
882.918	79.53
883.09	30.38
883.262	-14.68
883.434	-4.44
883.606	-80.21
883.778	-0.34
883.95	87.72
884.122	-90.45
884.293	79.53
884.465	42.67
884.637	7.85
884.809	-49.49
884.98	52.91
885.152	38.57
885.324	22.19
885.496	-10.58
885.667	-20.82
885.839	16.04
886.011	83.63
886.182	-2.39
886.354	50.86
886.525	54.95
886.697	16.04
886.869	22.19
887.04	-22.87
887.212	132.78
887.383	69.29
887.555	13.99
887.726	-37.2
887.897	-22.87
888.069	-6.49
888.24	85.67
888.412	-80.21
888.583	7.85
888.754	-63.83
888.926	-153.94
889.097	32.43
889.268	-108.88
889.44	110.25
889.611	-115.03
889.782	-14.68
889.953	-45.4
890.125	100.01
890.296	-61.78
890.467	18.09
890.638	-0.34
890.809	-12.63
890.98	-94.55
891.151	-29.01
891.323	102.06
891.494	-65.88
891.665	52.91
891.836	71.34
892.007	32.43
892.178	3.75
892.349	26.28
892.52	-26.96
892.691	46.76
892.862	-6.49
893.032	-41.3
893.203	-84.31
893.374	36.52
893.545	108.2
893.716	-18.77
893.887	75.43
894.057	-39.25
894.228	1.71
894.399	-10.58
894.57	13.99
894.74	-37.2
894.911	-24.92
895.082	-29.01
895.253	-82.26
895.423	89.77
895.594	112.3
895.764	-18.77
895.935	-2.39
896.106	13.99
896.276	-76.12
896.447	26.28
896.617	-8.53
896.788	-98.64
896.958	-39.25
897.129	-51.54
897.299	-31.06
897.47	128.68
897.64	65.19
897.81	-78.16
897.981	-33.11
898.151	-37.2
898.322	-16.73
898.492	40.62
898.662	-78.16
898.832	-12.63
899.003	3.75
899.173	130.73
899.343	-16.73
899.513	-61.78
