Data from USB4F104151__72__10-44-06-672.txt Node

Date: Wed Feb 26 10:44:06 EST 2025
User: louis
Spectrometer: USB4F10415
Trigger mode: 4
Integration Time (sec): 1.000000E-1
Scans to average: 1
Electric dark correction enabled: true
Nonlinearity correction enabled: false
Boxcar width: 0
XAxis mode: Wavelengths
Number of Pixels in Spectrum: 3648
>>>>>Begin Spectral Data<<<<<
178.204	-411.13
178.424	-411.13
178.644	-411.13
178.864	-380.41
179.084	-370.17
179.304	59.9
179.524	4.61
179.744	-91.65
179.964	98.81
180.184	-15.87
180.404	41.47
180.624	-60.93
180.844	18.94
181.064	-36.35
181.283	-5.63
181.503	-62.98
181.723	49.66
181.943	-30.21
182.163	197.12
182.383	2.56
182.602	2.56
182.822	139.77
183.042	-11.78
183.262	-19.97
183.482	-81.41
183.701	20.99
183.921	80.38
184.141	-91.65
184.361	31.23
184.58	20.99
184.8	84.48
185.02	23.04
185.239	64
185.459	102.91
185.679	98.81
185.898	-126.46
186.118	51.71
186.338	31.23
186.557	88.57
186.777	-24.06
186.997	35.33
187.216	45.57
187.436	164.35
187.655	104.96
187.875	90.62
188.095	6.66
188.314	190.97
188.534	84.48
188.753	-1.54
188.973	115.2
189.192	113.15
189.412	-30.21
189.631	78.33
189.851	64
190.07	127.49
190.29	-56.83
190.509	-30.21
190.729	68.09
190.948	141.82
191.168	213.5
191.387	31.23
191.607	12.8
191.826	59.9
192.045	59.9
192.265	59.9
192.484	51.71
192.704	150.01
192.923	-56.83
193.142	262.65
193.362	139.77
193.581	39.42
193.8	102.91
194.02	31.23
194.239	31.23
194.458	76.29
194.678	-15.87
194.897	47.62
195.116	43.52
195.335	27.14
195.555	94.72
195.774	-50.69
195.993	88.57
196.212	64
196.432	25.09
196.651	-48.64
196.87	96.77
197.089	209.4
197.308	51.71
197.528	61.95
197.747	-7.68
197.966	76.29
198.185	64
198.404	2.56
198.623	74.24
198.842	131.58
199.062	92.67
199.281	113.15
199.5	4.61
199.719	133.63
199.938	100.86
200.157	74.24
200.376	61.95
200.595	207.36
200.814	37.38
201.033	-52.74
201.252	158.21
201.471	53.76
201.69	59.9
201.909	27.14
202.128	166.4
202.347	92.67
202.566	107.01
202.785	-112.13
203.004	-58.88
203.223	240.12
203.442	-9.73
203.661	-7.68
203.879	88.57
204.098	115.2
204.317	-54.78
204.536	80.38
204.755	121.34
204.974	-40.45
205.193	4.61
205.411	199.16
205.63	96.77
205.849	47.62
206.068	31.23
206.287	25.09
206.505	100.86
206.724	2.56
206.943	-62.98
207.162	-36.35
207.381	100.86
207.599	-5.63
207.818	90.62
208.037	-44.54
208.255	20.99
208.474	6.66
208.693	72.19
208.911	37.38
209.13	49.66
209.349	57.86
209.567	64
209.786	86.53
210.005	43.52
210.223	51.71
210.442	-171.52
210.661	-40.45
210.879	18.94
211.098	80.38
211.316	39.42
211.535	100.86
211.753	109.05
211.972	16.9
212.191	-5.63
212.409	37.38
212.628	115.2
212.846	-62.98
213.065	82.43
213.283	94.72
213.502	64
213.72	-11.78
213.938	-83.45
214.157	0.51
214.375	125.44
214.594	-13.82
214.812	29.18
215.031	88.57
215.249	10.75
215.467	80.38
215.686	27.14
215.904	-22.02
216.122	137.73
216.341	131.58
216.559	8.7
216.778	107.01
216.996	145.92
217.214	25.09
217.432	-48.64
217.651	-65.02
217.869	92.67
218.087	78.33
218.306	-11.78
218.524	64
218.742	-1.54
218.96	96.77
219.179	-13.82
219.397	64
219.615	203.26
219.833	74.24
220.051	55.81
220.27	86.53
220.488	115.2
220.706	70.14
220.924	-26.11
221.142	-22.02
221.36	6.66
221.578	41.47
221.796	66.05
222.015	59.9
222.233	102.91
222.451	174.59
222.669	-73.21
222.887	129.53
223.105	-52.74
223.323	-26.11
223.541	-126.46
223.759	39.42
223.977	51.71
224.195	94.72
224.413	74.24
224.631	18.94
224.849	74.24
225.067	121.34
225.285	23.04
225.503	-36.35
225.721	-79.36
225.939	14.85
226.157	94.72
226.375	248.32
226.592	-26.11
226.81	20.99
227.028	86.53
227.246	182.78
227.464	74.24
227.682	170.49
227.9	43.52
228.117	55.81
228.335	47.62
228.553	156.16
228.771	-40.45
228.989	64
229.206	90.62
229.424	6.66
229.642	35.33
229.86	-15.87
230.077	166.4
230.295	33.28
230.513	82.43
230.731	90.62
230.948	127.49
231.166	244.22
231.384	-3.58
231.601	-7.68
231.819	156.16
232.037	-7.68
232.254	-24.06
232.472	76.29
232.689	61.95
232.907	125.44
233.125	45.57
233.342	12.8
233.56	31.23
233.777	68.09
233.995	-40.45
234.213	84.48
234.43	90.62
234.648	57.86
234.865	6.66
235.083	64
235.3	27.14
235.518	59.9
235.735	141.82
235.953	72.19
236.17	4.61
236.388	33.28
236.605	102.91
236.822	141.82
237.04	57.86
237.257	104.96
237.475	-3.58
237.692	23.04
237.909	64
238.127	8.7
238.344	66.05
238.562	100.86
238.779	-26.11
238.996	-36.35
239.214	14.85
239.431	135.68
239.648	-3.58
239.865	92.67
240.083	45.57
240.3	55.81
240.517	59.9
240.735	64
240.952	141.82
241.169	25.09
241.386	39.42
241.603	18.94
241.821	49.66
242.038	100.86
242.255	49.66
242.472	-91.65
242.689	66.05
242.907	25.09
243.124	76.29
243.341	57.86
243.558	-42.5
243.775	-26.11
243.992	-1.54
244.209	45.57
244.426	170.49
244.643	45.57
244.86	64
245.078	96.77
245.295	31.23
245.512	33.28
245.729	-11.78
245.946	47.62
246.163	70.14
246.38	-60.93
246.597	98.81
246.814	43.52
247.031	4.61
247.248	37.38
247.464	90.62
247.681	39.42
247.898	82.43
248.115	119.29
248.332	-30.21
248.549	115.2
248.766	68.09
248.983	123.39
249.2	86.53
249.417	186.88
249.633	27.14
249.85	100.86
250.067	94.72
250.284	104.96
250.501	2.56
250.717	111.1
250.934	6.66
251.151	-17.92
251.368	-22.02
251.585	-19.97
251.801	53.76
252.018	-40.45
252.235	117.25
252.451	-91.65
252.668	74.24
252.885	59.9
253.102	104.96
253.318	47.62
253.535	-26.11
253.752	53.76
253.968	12.8
254.185	-73.21
254.401	33.28
254.618	27.14
254.835	39.42
255.051	133.63
255.268	90.62
255.484	94.72
255.701	86.53
255.917	74.24
256.134	27.14
256.351	20.99
256.567	-54.78
256.784	-5.63
257	-44.54
257.217	125.44
257.433	53.76
257.65	70.14
257.866	51.71
258.082	-79.36
258.299	-32.26
258.515	51.71
258.732	6.66
258.948	-22.02
259.165	47.62
259.381	-54.78
259.597	43.52
259.814	57.86
260.03	-19.97
260.246	2.56
260.463	141.82
260.679	123.39
260.895	0.51
261.112	39.42
261.328	20.99
261.544	-48.64
261.761	104.96
261.977	109.05
262.193	-85.5
262.409	102.91
262.626	78.33
262.842	4.61
263.058	-11.78
263.274	76.29
263.49	29.18
263.707	160.25
263.923	76.29
264.139	-157.18
264.355	51.71
264.571	100.86
264.787	4.61
265.004	133.63
265.22	57.86
265.436	-52.74
265.652	-65.02
265.868	107.01
266.084	-28.16
266.3	74.24
266.516	2.56
266.732	35.33
266.948	47.62
267.164	-48.64
267.38	111.1
267.596	51.71
267.812	213.5
268.028	51.71
268.244	41.47
268.46	16.9
268.676	72.19
268.892	20.99
269.108	-26.11
269.324	-9.73
269.54	-5.63
269.756	37.38
269.972	-17.92
270.188	96.77
270.403	-15.87
270.619	66.05
270.835	94.72
271.051	-32.26
271.267	-73.21
271.483	4.61
271.698	-26.11
271.914	94.72
272.13	16.9
272.346	6.66
272.562	10.75
272.777	117.25
272.993	25.09
273.209	33.28
273.425	98.81
273.64	-105.98
273.856	90.62
274.072	-22.02
274.287	-42.5
274.503	64
274.719	117.25
274.934	20.99
275.15	-36.35
275.366	74.24
275.581	-65.02
275.797	43.52
276.012	76.29
276.228	6.66
276.444	-38.4
276.659	84.48
276.875	14.85
277.09	25.09
277.306	-36.35
277.521	33.28
277.737	18.94
277.952	125.44
278.168	41.47
278.383	-1.54
278.599	61.95
278.814	59.9
279.03	23.04
279.245	174.59
279.461	29.18
279.676	10.75
279.892	-50.69
280.107	-85.5
280.322	-118.27
280.538	80.38
280.753	-56.83
280.969	64
281.184	31.23
281.399	141.82
281.615	4.61
281.83	92.67
282.045	8.7
282.26	33.28
282.476	51.71
282.691	154.11
282.906	53.76
283.122	33.28
283.337	-56.83
283.552	33.28
283.767	72.19
283.983	41.47
284.198	-32.26
284.413	121.34
284.628	-128.51
284.843	113.15
285.058	125.44
285.274	-42.5
285.489	-36.35
285.704	43.52
285.919	-67.07
286.134	-7.68
286.349	4.61
286.564	-17.92
286.779	170.49
286.995	-48.64
287.21	-1.54
287.425	88.57
287.64	4.61
287.855	47.62
288.07	-32.26
288.285	121.34
288.5	102.91
288.715	10.75
288.93	-44.54
289.145	-24.06
289.36	100.86
289.575	-13.82
289.79	55.81
290.004	27.14
290.219	51.71
290.434	-3.58
290.649	-42.5
290.864	29.18
291.079	64
291.294	121.34
291.509	59.9
291.724	90.62
291.938	27.14
292.153	64
292.368	8.7
292.583	88.57
292.798	137.73
293.012	39.42
293.227	29.18
293.442	90.62
293.657	78.33
293.871	96.77
294.086	129.53
294.301	203.26
294.516	139.77
294.73	92.67
294.945	6.66
295.16	27.14
295.374	104.96
295.589	197.12
295.804	-5.63
296.018	35.33
296.233	104.96
296.447	145.92
296.662	2.56
296.877	80.38
297.091	121.34
297.306	49.66
297.52	64
297.735	18.94
297.949	66.05
298.164	45.57
298.378	27.14
298.593	-40.45
298.807	23.04
299.022	39.42
299.236	131.58
299.451	33.28
299.665	-28.16
299.88	76.29
300.094	131.58
300.309	0.51
300.523	53.76
300.737	16.9
300.952	29.18
301.166	61.95
301.381	-65.02
301.595	-1.54
301.809	53.76
302.024	-69.12
302.238	45.57
302.452	109.05
302.667	35.33
302.881	100.86
303.095	129.53
303.309	53.76
303.524	-46.59
303.738	-40.45
303.952	-71.17
304.166	125.44
304.381	-157.18
304.595	119.29
304.809	6.66
305.023	45.57
305.237	20.99
305.452	35.33
305.666	51.71
305.88	123.39
306.094	45.57
306.308	61.95
306.522	113.15
306.736	41.47
306.95	129.53
307.164	0.51
307.379	72.19
307.593	176.64
307.807	156.16
308.021	90.62
308.235	12.8
308.449	-73.21
308.663	53.76
308.877	174.59
309.091	100.86
309.305	55.81
309.519	-46.59
309.733	98.81
309.947	-52.74
310.161	94.72
310.374	160.25
310.588	109.05
310.802	-15.87
311.016	14.85
311.23	94.72
311.444	25.09
311.658	31.23
311.872	135.68
312.085	76.29
312.299	104.96
312.513	86.53
312.727	84.48
312.941	-9.73
313.154	64
313.368	37.38
313.582	20.99
313.796	94.72
314.009	33.28
314.223	115.2
314.437	61.95
314.651	35.33
314.864	-11.78
315.078	18.94
315.292	-42.5
315.505	-19.97
315.719	12.8
315.933	-5.63
316.146	-17.92
316.36	-13.82
316.573	137.73
316.787	96.77
317.001	66.05
317.214	-11.78
317.428	66.05
317.641	-44.54
317.855	-9.73
318.068	64
318.282	107.01
318.495	111.1
318.709	113.15
318.922	8.7
319.136	141.82
319.349	158.21
319.563	-9.73
319.776	133.63
319.99	-7.68
320.203	199.16
320.417	25.09
320.63	84.48
320.843	197.12
321.057	14.85
321.27	41.47
321.483	76.29
321.697	115.2
321.91	33.28
322.124	14.85
322.337	35.33
322.55	25.09
322.763	10.75
322.977	66.05
323.19	39.42
323.403	-19.97
323.617	47.62
323.83	141.82
324.043	47.62
324.256	86.53
324.469	-36.35
324.683	98.81
324.896	90.62
325.109	72.19
325.322	-112.13
325.535	66.05
325.748	104.96
325.962	-52.74
326.175	27.14
326.388	158.21
326.601	119.29
326.814	-46.59
327.027	45.57
327.24	113.15
327.453	-62.98
327.666	92.67
327.879	127.49
328.092	47.62
328.305	121.34
328.518	4.61
328.731	-34.3
328.944	31.23
329.157	111.1
329.37	45.57
329.583	164.35
329.796	102.91
330.009	-7.68
330.222	61.95
330.435	78.33
330.648	31.23
330.861	16.9
331.073	31.23
331.286	109.05
331.499	55.81
331.712	-1.54
331.925	104.96
332.138	64
332.35	70.14
332.563	-40.45
332.776	109.05
332.989	-93.69
333.202	18.94
333.414	31.23
333.627	-13.82
333.84	-38.4
334.053	35.33
334.265	-36.35
334.478	20.99
334.691	6.66
334.903	39.42
335.116	64
335.329	33.28
335.541	84.48
335.754	150.01
335.966	-17.92
336.179	8.7
336.392	23.04
336.604	-28.16
336.817	100.86
337.029	59.9
337.242	41.47
337.454	102.91
337.667	-15.87
337.88	119.29
338.092	25.09
338.305	84.48
338.517	84.48
338.729	109.05
338.942	190.97
339.154	-3.58
339.367	-56.83
339.579	59.9
339.792	-40.45
340.004	123.39
340.217	80.38
340.429	57.86
340.641	-11.78
340.854	39.42
341.066	59.9
341.278	156.16
341.491	201.21
341.703	68.09
341.915	-67.07
342.128	70.14
342.34	-40.45
342.552	-60.93
342.764	20.99
342.977	43.52
343.189	45.57
343.401	66.05
343.613	-38.4
343.826	2.56
344.038	-73.21
344.25	84.48
344.462	-34.3
344.674	10.75
344.886	-34.3
345.099	68.09
345.311	125.44
345.523	20.99
345.735	-79.36
345.947	-1.54
346.159	92.67
346.371	66.05
346.583	-36.35
346.795	174.59
347.007	39.42
347.219	141.82
347.431	16.9
347.643	123.39
347.855	47.62
348.067	182.78
348.279	-52.74
348.491	49.66
348.703	12.8
348.915	104.96
349.127	-13.82
349.339	35.33
349.551	27.14
349.763	129.53
349.975	-24.06
350.187	158.21
350.399	74.24
350.61	96.77
350.822	41.47
351.034	115.2
351.246	123.39
351.458	80.38
351.669	96.77
351.881	90.62
352.093	178.69
352.305	94.72
352.517	90.62
352.728	127.49
352.94	49.66
353.152	20.99
353.363	-26.11
353.575	45.57
353.787	109.05
353.999	78.33
354.21	64
354.422	-22.02
354.633	49.66
354.845	35.33
355.057	78.33
355.268	125.44
355.48	109.05
355.692	-44.54
355.903	23.04
356.115	33.28
356.326	-175.61
356.538	88.57
356.749	82.43
356.961	201.21
357.172	23.04
357.384	2.56
357.595	184.83
357.807	80.38
358.018	25.09
358.23	72.19
358.441	135.68
358.653	-7.68
358.864	98.81
359.075	-13.82
359.287	51.71
359.498	107.01
359.709	135.68
359.921	74.24
360.132	64
360.344	72.19
360.555	-83.45
360.766	82.43
360.977	-17.92
361.189	102.91
361.4	-22.02
361.611	147.97
361.823	92.67
362.034	64
362.245	-42.5
362.456	37.38
362.667	0.51
362.879	-40.45
363.09	23.04
363.301	49.66
363.512	78.33
363.723	2.56
363.935	-24.06
364.146	139.77
364.357	23.04
364.568	-38.4
364.779	-67.07
364.99	113.15
365.201	-130.56
365.412	141.82
365.623	-38.4
365.834	51.71
366.045	29.18
366.256	94.72
366.467	129.53
366.678	-9.73
366.889	-17.92
367.1	61.95
367.311	102.91
367.522	-9.73
367.733	109.05
367.944	113.15
368.155	-60.93
368.366	143.87
368.577	74.24
368.788	96.77
368.999	0.51
369.209	20.99
369.42	154.11
369.631	188.93
369.842	90.62
370.053	35.33
370.264	70.14
370.474	-19.97
370.685	82.43
370.896	20.99
371.107	119.29
371.317	47.62
371.528	12.8
371.739	150.01
371.95	135.68
372.16	127.49
372.371	-28.16
372.582	-26.11
372.792	84.48
373.003	59.9
373.214	55.81
373.424	88.57
373.635	25.09
373.846	115.2
374.056	66.05
374.267	104.96
374.477	115.2
374.688	-11.78
374.898	66.05
375.109	18.94
375.319	-9.73
375.53	109.05
375.74	86.53
375.951	35.33
376.161	10.75
376.372	27.14
376.582	86.53
376.793	45.57
377.003	27.14
377.214	84.48
377.424	68.09
377.635	16.9
377.845	-28.16
378.055	109.05
378.266	-38.4
378.476	104.96
378.686	88.57
378.897	57.86
379.107	137.73
379.317	86.53
379.528	-36.35
379.738	107.01
379.948	12.8
380.158	113.15
380.369	39.42
380.579	78.33
380.789	4.61
380.999	90.62
381.21	-3.58
381.42	170.49
381.63	23.04
381.84	18.94
382.05	102.91
382.261	207.36
382.471	139.77
382.681	-22.02
382.891	201.21
383.101	23.04
383.311	-56.83
383.521	-7.68
383.731	49.66
383.941	145.92
384.151	39.42
384.361	-5.63
384.571	68.09
384.781	43.52
384.991	193.02
385.201	156.16
385.411	82.43
385.621	39.42
385.831	16.9
386.041	141.82
386.251	43.52
386.461	100.86
386.671	-3.58
386.881	96.77
387.091	-44.54
387.301	96.77
387.511	20.99
387.72	18.94
387.93	113.15
388.14	-5.63
388.35	104.96
388.56	129.53
388.769	150.01
388.979	-15.87
389.189	-62.98
389.399	-1.54
389.609	98.81
389.818	29.18
390.028	72.19
390.238	55.81
390.447	-1.54
390.657	59.9
390.867	47.62
391.076	-15.87
391.286	33.28
391.496	0.51
391.705	-5.63
391.915	111.1
392.125	37.38
392.334	25.09
392.544	133.63
392.753	2.56
392.963	14.85
393.172	45.57
393.382	4.61
393.591	254.46
393.801	-3.58
394.01	205.31
394.22	74.24
394.429	29.18
394.639	-44.54
394.848	111.1
395.058	59.9
395.267	10.75
395.477	33.28
395.686	-1.54
395.895	188.93
396.105	172.54
396.314	59.9
396.524	111.1
396.733	64
396.942	150.01
397.152	70.14
397.361	117.25
397.57	82.43
397.78	-30.21
397.989	14.85
398.198	264.7
398.407	39.42
398.617	55.81
398.826	74.24
399.035	57.86
399.244	123.39
399.453	4.61
399.663	64
399.872	84.48
400.081	-58.88
400.29	133.63
400.499	23.04
400.708	156.16
400.917	-5.63
401.127	16.9
401.336	-1.54
401.545	100.86
401.754	150.01
401.963	174.59
402.172	6.66
402.381	-24.06
402.59	16.9
402.799	-5.63
403.008	143.87
403.217	94.72
403.426	88.57
403.635	-40.45
403.844	4.61
404.053	-15.87
404.262	76.29
404.471	256.51
404.68	137.73
404.888	23.04
405.097	-26.11
405.306	68.09
405.515	57.86
405.724	70.14
405.933	119.29
406.142	74.24
406.35	123.39
406.559	84.48
406.768	90.62
406.977	156.16
407.185	47.62
407.394	115.2
407.603	-28.16
407.812	51.71
408.02	109.05
408.229	78.33
408.438	74.24
408.646	23.04
408.855	82.43
409.064	51.71
409.272	-1.54
409.481	37.38
409.69	33.28
409.898	-50.69
410.107	8.7
410.315	82.43
410.524	23.04
410.733	25.09
410.941	23.04
411.15	92.67
411.358	47.62
411.567	172.54
411.775	14.85
411.984	92.67
412.192	59.9
412.401	43.52
412.609	96.77
412.818	162.3
413.026	100.86
413.234	6.66
413.443	41.47
413.651	4.61
413.86	125.44
414.068	162.3
414.276	160.25
414.485	35.33
414.693	145.92
414.901	137.73
415.11	57.86
415.318	55.81
415.526	-9.73
415.734	170.49
415.943	104.96
416.151	168.45
416.359	14.85
416.567	41.47
416.776	143.87
416.984	152.06
417.192	152.06
417.4	12.8
417.608	59.9
417.817	-32.26
418.025	72.19
418.233	205.31
418.441	-7.68
418.649	-1.54
418.857	78.33
419.065	190.97
419.273	94.72
419.481	43.52
419.689	25.09
419.897	49.66
420.105	18.94
420.313	147.97
420.521	115.2
420.729	135.68
420.937	0.51
421.145	-22.02
421.353	119.29
421.561	111.1
421.769	143.87
421.977	-30.21
422.185	80.38
422.393	-3.58
422.601	96.77
422.809	111.1
423.017	80.38
423.224	66.05
423.432	207.36
423.64	70.14
423.848	111.1
424.056	-7.68
424.263	98.81
424.471	74.24
424.679	133.63
424.887	43.52
425.094	104.96
425.302	164.35
425.51	64
425.718	176.64
425.925	35.33
426.133	39.42
426.341	190.97
426.548	139.77
426.756	35.33
426.964	64
427.171	-38.4
427.379	2.56
427.586	31.23
427.794	125.44
428.001	166.4
428.209	76.29
428.417	176.64
428.624	156.16
428.832	160.25
429.039	125.44
429.247	92.67
429.454	55.81
429.662	188.93
429.869	160.25
430.076	139.77
430.284	125.44
430.491	279.04
430.699	104.96
430.906	313.85
431.114	53.76
431.321	137.73
431.528	84.48
431.736	139.77
431.943	86.53
432.15	123.39
432.358	199.16
432.565	270.84
432.772	47.62
432.979	233.98
433.187	64
433.394	287.23
433.601	156.16
433.808	276.99
434.016	248.32
434.223	231.93
434.43	195.07
434.637	268.8
434.844	336.38
435.052	195.07
435.259	281.08
435.466	313.85
435.673	293.37
435.88	317.95
436.087	297.47
436.294	342.52
436.501	356.86
436.708	287.23
436.915	344.57
437.122	367.1
437.329	256.51
437.537	285.18
437.743	395.77
437.95	504.31
438.157	434.68
438.364	313.85
438.571	371.19
438.778	444.92
438.985	483.83
439.192	565.75
439.399	463.35
439.606	514.55
439.813	485.88
440.02	610.81
440.227	688.63
440.433	584.18
440.64	541.18
440.847	569.85
441.054	530.94
441.261	715.25
441.467	702.97
441.674	641.53
441.881	770.55
442.088	619
442.294	774.64
442.501	893.43
442.708	854.51
442.914	797.17
443.121	854.51
443.328	868.85
443.534	981.49
443.741	954.87
443.948	913.91
444.154	1065.46
444.361	1292.78
444.568	961.01
444.774	1116.65
444.981	969.2
445.187	1290.73
445.394	1202.67
445.6	1231.34
445.807	1423.85
446.013	1382.89
446.22	1339.88
446.426	1546.73
446.633	1675.75
446.839	1786.34
447.046	1460.71
447.252	1722.85
447.459	1663.46
447.665	1708.52
447.871	1837.54
448.078	2075.1
448.284	1935.84
448.491	2183.65
448.697	2183.65
448.903	2277.85
449.11	2361.82
449.316	2400.73
449.522	2542.04
449.728	2587.1
449.935	2707.93
450.141	2722.26
450.347	2953.68
450.553	2877.91
450.76	2929.11
450.966	2994.64
451.172	3176.91
451.378	3398.09
451.584	3426.76
451.791	3606.98
451.997	3799.49
452.203	3817.93
452.409	3869.12
452.615	4145.6
452.821	4170.18
453.027	4164.03
453.233	4739.51
453.44	4549.05
453.646	4690.36
453.852	5026.23
454.058	5130.67
454.264	5317.04
454.47	5601.71
454.676	5747.11
454.882	6070.69
455.088	5966.24
455.294	6203.81
455.5	6623.64
455.705	7006.61
455.911	7082.39
456.117	7315.86
456.323	7526.8
456.529	7616.91
456.735	8339.84
456.941	8563.07
457.147	8661.37
457.352	8876.41
457.558	9300.34
457.764	9793.9
457.97	10074.47
458.176	10400.1
458.381	10885.47
458.587	11077.97
458.793	11598.16
458.999	11700.56
459.204	13107.51
459.41	13523.25
459.616	13338.93
459.821	14072.11
460.027	14815.52
460.233	15391
460.438	15501.59
460.644	16361.73
460.85	16785.66
461.055	17410.29
461.261	18127.08
461.466	17731.83
461.672	17967.34
461.878	20340.94
462.083	20119.76
462.289	20785.35
462.494	21330.11
462.7	21551.29
462.905	21868.72
463.111	23611.54
463.316	24731.78
463.522	25151.62
463.727	26054.77
463.932	27064.42
464.138	27887.7
464.343	28631.12
464.549	29024.33
464.754	31211.56
464.959	32024.6
465.165	32589.84
465.37	32253.97
465.575	32368.66
465.781	34285.56
465.986	35383.27
466.191	35096.55
466.397	35536.87
466.602	34699.25
466.807	36610
467.012	37449.67
467.218	37711.81
467.423	38100.92
467.628	38895.53
467.833	40972.17
468.038	39958.43
468.244	39673.76
468.449	41668.48
468.654	40781.71
468.859	40466.33
469.064	40910.74
469.269	39696.29
469.474	40136.6
469.679	41355.14
469.885	40058.78
470.09	40454.04
470.295	40501.14
470.5	39737.25
470.705	40118.17
470.91	38901.68
471.115	38956.97
471.32	39317.42
471.525	39174.06
471.73	37922.75
471.935	38055.87
472.139	36290.52
472.344	37121.99
472.549	36218.84
472.754	35577.83
472.959	34883.56
473.164	33492.99
473.369	32981
473.574	34211.83
473.778	33374.21
473.983	32782.35
474.188	32520.21
474.393	30498.86
474.598	30607.4
474.802	29958.2
475.007	29737.02
475.212	29765.69
475.417	28182.61
475.621	28160.08
475.826	27545.69
476.031	26843.24
476.235	26527.85
476.44	26519.66
476.645	25696.38
476.849	25493.63
477.054	25284.73
477.259	24606.86
477.463	24553.61
477.668	23779.48
477.872	23851.16
478.077	23552.15
478.282	22415.53
478.486	22368.43
478.691	22169.77
478.895	21854.39
479.1	21606.58
479.304	21616.82
479.509	20908.22
479.713	21305.53
479.918	20721.86
480.122	20476.1
480.326	20199.63
480.531	20433.1
480.735	20058.32
480.94	19738.83
481.144	20091.09
481.348	19407.06
481.553	19474.65
481.757	18909.41
481.961	19015.9
482.166	19058.91
482.37	18911.46
482.574	18569.44
482.778	18573.54
482.983	18766.05
483.187	18505.96
483.391	18292.97
483.595	17823.98
483.8	17432.82
484.004	17699.06
484.208	17875.18
484.412	17563.89
484.616	17238.26
484.821	17467.64
485.025	16636.16
485.229	16695.55
485.433	16398.6
485.637	16380.17
485.841	15962.38
486.045	15976.72
486.249	15612.18
486.453	15497.49
486.657	15169.82
486.861	14954.78
487.065	14285.09
487.269	14448.93
487.473	13828.4
487.677	14119.21
487.881	14039.34
488.085	13695.28
488.289	13601.07
488.493	13119.8
488.697	12978.49
488.901	12814.65
489.105	12347.72
489.309	12253.51
489.512	12179.78
489.716	11966.79
489.92	11655.5
490.124	11399.51
490.328	11383.12
490.531	11049.3
490.735	10905.95
490.939	10731.87
491.143	10457.44
491.346	10342.75
491.55	10375.52
491.754	10002.79
491.958	9957.74
492.161	9689.45
492.365	9595.25
492.569	9236.85
492.772	9421.17
492.976	9124.21
493.18	8886.65
493.383	8909.18
493.587	8663.42
493.79	8747.39
493.994	8593.79
494.197	8268.16
494.401	8536.45
494.605	8198.53
494.808	8380.8
495.012	8143.24
495.215	8266.11
495.419	8171.91
495.622	7936.39
495.825	7823.75
496.029	7686.54
496.232	7862.66
496.436	7549.32
496.639	7883.14
496.843	7469.45
497.046	7766.41
497.249	7737.74
497.453	7539.08
497.656	7522.7
497.859	7741.83
498.063	7739.79
498.266	7897.48
498.469	7606.67
498.673	7676.3
498.876	7430.54
499.079	7661.96
499.282	7534.99
499.485	8145.28
499.689	7915.91
499.892	7850.38
500.095	7690.63
500.298	7889.29
500.501	7885.19
500.705	8286.59
500.908	8233.35
501.111	8104.32
501.314	8292.74
501.517	8294.79
501.72	8358.27
501.923	8397.18
502.126	8450.43
502.329	8606.08
502.532	8630.65
502.735	8642.94
502.938	8759.67
503.141	8685.95
503.344	9021.81
503.547	9064.82
503.75	9240.95
503.953	9357.68
504.156	9429.36
504.359	9441.65
504.562	9628.01
504.765	10002.79
504.968	9812.33
505.17	10228.07
505.373	10146.15
505.576	10406.24
505.779	10623.33
505.982	10551.65
506.185	11209.04
506.387	11172.18
506.59	11266.39
506.793	11551.06
506.996	11667.79
507.198	12124.49
507.401	11909.45
507.604	12484.93
507.807	12534.08
508.009	12779.84
508.212	13058.36
508.415	13084.98
508.617	13388.08
508.82	13533.49
509.022	13660.46
509.225	14311.72
509.428	14745.89
509.63	14487.84
509.833	14729.5
510.035	15560.98
510.238	15751.44
510.44	16091.4
510.643	16341.25
510.845	16638.21
511.048	16863.49
511.25	17268.98
511.453	17598.71
511.655	18518.25
511.858	18401.51
512.06	18833.63
512.262	19253.47
512.465	19613.91
512.667	20334.79
512.87	20480.2
513.072	20965.57
513.274	21717.17
513.477	22036.66
513.679	22046.9
513.881	22861.99
514.084	23320.73
514.286	23888.02
514.488	24385.68
514.69	25247.87
514.893	25395.32
515.095	25534.59
515.297	26843.24
515.499	26691.69
515.701	27267.17
515.904	28381.26
516.106	28954.69
516.308	29208.64
516.51	29827.13
516.712	30154.8
516.914	30971.94
517.116	31612.96
517.318	31721.5
517.52	32825.36
517.722	33054.73
517.925	33701.89
518.127	34832.36
518.329	35440.61
518.531	35424.23
518.733	36433.88
518.935	36650.96
519.136	37064.65
519.338	37988.28
519.54	38514.61
519.742	39098.28
519.944	39583.65
520.146	40142.75
520.348	40687.51
520.55	41209.74
520.752	41205.64
520.954	42682.23
521.155	42188.67
521.357	42927.98
521.559	43935.59
521.761	44717.91
521.963	44019.55
522.164	44973.91
522.366	44969.81
522.568	45795.14
522.77	45639.5
522.971	46456.64
523.173	46477.11
523.375	47099.7
523.576	46591.8
523.778	46954.29
523.98	47402.8
524.181	48060.19
524.383	47660.84
524.584	48463.64
524.786	48271.14
524.988	48221.98
525.189	48557.85
525.391	48666.39
525.592	48783.13
525.794	48799.51
525.995	48832.28
526.197	48656.15
526.398	48635.67
526.6	48525.08
526.801	48299.81
527.003	48119.59
527.204	47943.46
527.406	48236.32
527.607	47744.81
527.808	47501.1
528.01	46899
528.211	46997.3
528.412	47525.67
528.614	46522.17
528.815	46344
529.016	46491.45
529.218	45375.31
529.419	45092.69
529.62	45162.32
529.822	44613.46
530.023	43894.63
530.224	44126.05
530.425	43210.6
530.626	42588.02
530.828	42241.92
531.029	42583.93
531.23	41764.74
531.431	41193.36
531.632	41052.05
531.833	40365.98
532.035	40062.88
532.236	39313.32
532.437	39063.47
532.638	38772.66
532.839	37791.68
533.04	37707.71
533.241	36884.43
533.442	36947.92
533.643	36083.67
533.844	35655.65
534.045	35186.66
534.246	34070.52
534.447	34152.44
534.648	33804.28
534.849	33423.36
535.05	32827.4
535.251	32720.91
535.451	32342.03
535.652	31551.52
535.853	31289.38
536.054	31000.61
536.255	30490.67
536.456	29874.23
536.657	30119.99
536.857	29429.82
537.058	28889.16
537.259	28710.99
537.46	28260.43
537.66	27859.03
537.861	27437.15
538.062	27011.17
538.263	26366.06
538.463	26148.98
538.664	25944.18
538.865	25964.66
539.065	25659.51
539.266	24969.35
539.466	25151.62
539.667	24287.37
539.868	24488.07
540.068	24055.95
540.269	23500.95
540.469	23591.06
540.67	23165.09
540.87	22890.66
541.071	22388.91
541.271	22534.31
541.472	22290.6
541.672	22091.95
541.873	21627.06
542.073	21309.63
542.274	21407.93
542.474	20953.28
542.675	20437.19
542.875	20504.78
543.075	20105.42
543.276	19955.92
543.476	19798.23
543.676	19577.05
543.877	19364.06
544.077	19239.13
544.277	19046.62
544.478	18854.11
544.678	18690.27
544.878	18344.17
545.078	18120.94
545.279	17838.32
545.479	17436.92
545.679	17567.99
545.879	17311.99
546.079	17039.61
546.28	17066.24
546.48	16709.89
546.68	16654.59
546.88	16455.94
547.08	16105.74
547.28	15980.81
547.48	15771.92
547.68	15552.79
547.88	15264.02
548.081	15280.41
548.281	14893.34
548.481	14463.27
548.681	14852.38
548.881	14356.77
549.081	14307.62
549.28	13955.37
549.48	13758.77
549.68	13822.25
549.88	13629.74
550.08	13381.94
550.28	13236.53
550.48	13273.4
550.68	13023.55
550.88	12630.34
551.08	12302.66
551.279	12233.03
551.479	11962.7
551.679	12183.88
551.879	11792.72
552.079	11665.74
552.278	11530.58
552.478	11352.4
552.678	11182.42
552.878	11178.33
553.077	10647.9
553.277	10721.63
553.477	10451.3
553.676	10449.25
553.876	10172.77
554.076	9984.36
554.275	9922.92
554.475	9582.96
554.674	9619.82
554.874	9658.73
555.074	9122.16
555.273	9165.17
555.473	9154.93
555.672	8771.96
555.872	8720.76
556.071	8546.69
556.271	8558.97
556.47	8405.38
556.67	8247.68
556.869	8089.99
557.068	8083.84
557.268	7778.7
557.467	7756.17
557.667	7719.31
557.866	7395.73
558.065	7242.13
558.265	7258.51
558.464	6988.18
558.663	7059.86
558.863	6873.5
559.062	6861.21
559.261	6513.05
559.461	6893.97
559.66	6500.76
559.859	6359.45
560.058	6130.08
560.258	5886.37
560.457	6027.68
560.656	6007.2
560.855	5839.27
561.054	5814.7
561.253	5783.98
561.453	5781.93
561.652	5517.74
561.851	5472.68
562.05	5323.18
562.249	5294.51
562.448	5378.48
562.647	5011.89
562.846	5061.04
563.045	4886.97
563.244	4823.48
563.443	4977.08
563.642	4755.9
563.841	4792.76
564.04	4630.97
564.239	4516.28
564.438	4479.42
564.637	4362.69
564.836	4424.12
565.035	4254.14
565.234	4180.42
565.432	4270.53
565.631	4149.7
565.83	4139.46
566.029	3885.51
566.228	3858.89
566.427	3985.86
566.625	3742.15
566.824	3807.69
567.023	3850.69
567.222	3598.79
567.42	3731.91
567.619	3547.59
567.818	3611.08
568.016	3568.07
568.215	3480.01
568.414	3498.44
568.612	3363.28
568.811	3094.99
569.01	3207.63
569.208	3146.19
569.407	3056.08
569.605	3054.03
569.804	2912.72
570.002	3047.89
570.201	2953.68
570.4	3119.57
570.598	2863.57
570.797	2855.38
570.995	2746.84
571.193	2689.49
571.392	2863.57
571.59	2623.96
571.789	2746.84
571.987	2777.56
572.186	2583
572.384	2560.47
572.582	2382.3
572.781	2521.56
572.979	2224.61
573.177	2390.49
573.376	2376.16
573.574	2382.3
573.772	2181.6
573.971	2099.68
574.169	2116.06
574.367	2314.72
574.565	2177.5
574.763	2150.88
574.962	2071.01
575.16	1991.14
575.358	2007.52
575.556	1903.07
575.754	2013.67
575.952	1958.37
576.151	1880.55
576.349	1917.41
576.547	1833.44
576.745	1827.3
576.943	1821.16
577.141	1681.89
577.339	1604.07
577.537	1739.24
577.735	1667.56
577.933	1692.13
578.131	1622.5
578.329	1751.53
578.527	1550.82
578.725	1724.9
578.923	1427.95
579.121	1518.06
579.319	1348.08
579.516	1468.91
579.714	1688.04
579.912	1382.89
580.11	1282.54
580.308	1323.5
580.506	1386.99
580.704	1219.05
580.901	1200.62
581.099	1376.75
581.297	1286.64
581.495	1233.39
581.692	1223.15
581.89	1300.97
582.088	1255.92
582.285	1151.47
582.483	1141.23
582.681	1118.7
582.878	1102.32
583.076	1120.75
583.274	1057.26
583.471	1305.07
583.669	973.3
583.866	971.25
584.064	991.73
584.262	977.39
584.459	879.09
584.657	1024.5
584.854	1057.26
585.052	963.06
585.249	1096.18
585.447	1034.74
585.644	872.95
585.841	975.35
586.039	1044.98
586.236	956.91
586.434	893.43
586.631	827.89
586.828	858.61
587.026	907.76
587.223	805.36
587.42	782.84
587.618	905.71
587.815	827.89
588.012	692.73
588.21	737.78
588.407	834.04
588.604	872.95
588.801	717.3
588.999	743.92
589.196	848.37
589.393	719.35
589.59	762.36
589.787	719.35
589.984	860.66
590.182	727.54
590.379	621.05
590.576	698.87
590.773	682.49
590.97	645.62
591.167	743.92
591.364	723.44
591.561	676.34
591.758	780.79
591.955	655.86
592.152	705.01
592.349	686.58
592.546	653.81
592.743	659.96
592.94	707.06
593.137	619
593.334	721.4
593.531	754.16
593.727	768.5
593.924	745.97
594.121	651.77
594.318	668.15
594.515	674.29
594.712	819.7
594.908	737.78
595.105	551.42
595.302	741.88
595.499	698.87
595.696	854.51
595.892	797.17
596.089	852.47
596.286	795.12
596.482	928.24
596.679	872.95
596.876	823.8
597.072	993.78
597.269	879.09
597.466	889.33
597.662	913.91
597.859	858.61
598.055	1030.64
598.252	961.01
598.448	1092.08
598.645	1159.66
598.841	1100.27
599.038	1223.15
599.234	1317.36
599.431	1227.25
599.627	1358.32
599.824	1372.65
600.02	1393.13
600.217	1411.56
600.413	1473
600.609	1538.54
600.806	1876.45
601.002	1704.42
601.198	1765.86
601.395	1862.12
601.591	1851.88
601.787	1907.17
601.984	2097.63
602.18	2095.58
602.376	2066.91
602.572	2333.15
602.769	2333.15
602.965	2255.33
603.161	2492.89
603.357	2658.78
603.553	2740.69
603.75	2656.73
603.946	2884.05
604.142	2941.4
604.338	3170.77
604.534	3148.24
604.73	3299.79
604.926	3353.04
605.122	3660.23
605.318	3682.76
605.514	3826.12
605.71	3781.06
605.906	4137.41
606.102	4014.53
606.298	4092.35
606.494	4327.87
606.69	4458.94
606.886	4583.87
607.082	4581.82
607.278	4786.61
607.474	4839.86
607.67	5323.18
607.866	5102
608.062	5472.68
608.257	5484.97
608.453	5495.21
608.649	5927.33
608.845	5880.23
609.041	6021.54
609.236	6402.46
609.432	6517.15
609.628	6836.63
609.824	6754.71
610.019	6992.28
610.215	7143.83
610.411	7551.37
610.606	7498.13
610.802	7817.61
610.998	7795.08
611.193	8237.44
611.389	8268.16
611.584	8558.97
611.78	8540.54
611.976	8997.24
612.171	9429.36
612.367	9677.16
612.562	9662.83
612.758	9898.34
612.953	10019.18
613.149	10510.69
613.344	10643.81
613.539	11280.72
613.735	11530.58
613.93	11854.16
614.126	11884.87
614.321	12267.84
614.517	12773.69
614.712	12921.15
614.907	13361.46
615.103	13635.89
615.298	13633.84
615.493	14299.43
615.688	14582.05
615.884	15130.91
616.079	15030.55
616.274	15790.35
616.47	15819.02
616.665	16781.57
616.86	17137.91
617.055	17393.91
617.25	17772.78
617.445	18315.5
617.641	18540.77
617.836	19251.42
618.031	19302.62
618.226	20150.48
618.421	20594.89
618.616	20988.1
618.811	21215.42
619.006	22026.42
619.201	22349.99
619.396	22866.08
619.591	23054.5
619.786	24039.57
619.981	24211.6
620.176	24924.29
620.371	25284.73
620.566	26026.1
620.761	26587.24
620.956	27295.84
621.151	27125.86
621.346	28428.37
621.541	28151.89
621.735	29427.77
621.93	29059.14
622.125	30093.36
622.32	30285.87
622.515	31039.53
622.709	31547.42
622.904	32446.48
623.099	32587.79
623.294	33779.71
623.488	33943.55
623.683	34574.32
623.878	34811.88
624.072	35631.07
624.267	36247.51
624.462	36681.68
624.656	37009.36
624.851	37728.19
625.046	38418.36
625.24	39178.15
625.435	39165.87
625.629	40034.21
625.824	40529.81
626.018	41025.42
626.213	40374.17
626.407	42026.88
626.602	41889.66
626.796	42721.14
626.991	43161.45
627.185	43394.92
627.38	43333.48
627.574	43968.35
627.768	43708.26
627.963	44502.87
628.157	44400.47
628.352	44703.57
628.546	44023.65
628.74	45320.01
628.935	44418.91
629.129	44459.87
629.323	44140.38
629.517	44369.75
629.712	44218.21
629.906	43794.28
630.1	42942.32
630.294	43009.9
630.489	41912.19
630.683	41889.66
630.877	40644.5
631.071	40050.59
631.265	39892.9
631.459	38909.87
631.653	38236.09
631.848	37605.31
632.042	36421.59
632.236	35704.8
632.43	34533.36
632.624	33955.83
632.818	32964.62
633.012	31682.59
633.206	30851.11
633.4	30115.89
633.594	28620.88
633.788	28373.07
633.982	27416.67
634.176	26351.73
634.369	25045.12
634.563	24346.76
634.757	23070.88
634.951	22603.94
635.145	21731.51
635.339	21039.29
635.533	19777.75
635.726	19507.41
635.92	18245.87
636.114	17533.17
636.308	16877.82
636.501	16122.12
636.695	15726.86
636.889	14846.24
637.083	14438.69
637.276	13740.33
637.47	13130.04
637.664	12736.83
637.857	12439.87
638.051	11731.28
638.244	11211.09
638.438	10873.18
638.632	10561.89
638.825	9943.4
639.019	9544.05
639.212	9075.06
639.406	8886.65
639.599	8550.78
639.793	8137.09
639.986	7725.45
640.18	7598.48
640.373	7213.46
640.567	6797.72
640.76	6615.45
640.954	6465.95
641.147	6152.61
641.34	5919.14
641.534	5550.51
641.727	5458.35
641.92	5216.69
642.114	5046.71
642.307	4696.5
642.5	4803
642.694	4499.9
642.887	4291.01
643.08	4235.71
643.273	4116.93
643.467	3803.59
643.66	3662.28
643.853	3527.11
644.046	3463.63
644.239	3420.62
644.432	3164.62
644.626	2884.05
644.819	3051.99
645.012	2836.95
645.205	2869.72
645.398	2626.01
645.591	2419.16
645.784	2318.81
645.977	2349.53
646.17	2337.24
646.363	2187.74
646.556	2050.53
646.749	2015.71
646.942	1950.18
647.135	1892.84
647.328	1716.71
647.521	1735.14
647.714	1532.39
647.907	1579.5
648.099	1413.61
648.292	1591.78
648.485	1518.06
648.678	1395.18
648.871	1266.16
649.064	1354.22
649.256	1018.35
649.449	1182.19
649.642	1104.37
649.835	1032.69
650.027	1010.16
650.22	1069.55
650.413	963.06
650.605	979.44
650.798	946.67
650.991	819.7
651.183	840.18
651.376	850.42
651.568	889.33
651.761	811.51
651.954	838.13
652.146	764.4
652.339	772.6
652.531	795.12
652.724	639.48
652.916	659.96
653.109	510.46
653.301	709.11
653.494	723.44
653.686	541.18
653.879	584.18
654.071	610.81
654.263	543.22
654.456	537.08
654.648	584.18
654.84	584.18
655.033	432.63
655.225	559.61
655.417	412.15
655.61	543.22
655.802	471.54
655.994	510.46
656.186	369.15
656.379	498.17
656.571	395.77
656.763	338.43
656.955	342.52
657.148	350.71
657.34	420.35
657.532	322.04
657.724	358.91
657.916	373.24
658.108	381.43
658.3	346.62
658.492	358.91
658.684	217.6
658.876	254.46
659.068	172.54
659.26	162.3
659.452	168.45
659.644	281.08
659.836	377.34
660.028	356.86
660.22	154.11
660.412	326.14
660.604	246.27
660.796	260.6
660.988	373.24
661.18	256.51
661.372	315.9
661.563	293.37
661.755	233.98
661.947	123.39
662.139	188.93
662.331	172.54
662.522	199.16
662.714	121.34
662.906	88.57
663.097	276.99
663.289	115.2
663.481	74.24
663.673	205.31
663.864	154.11
664.056	252.41
664.247	84.48
664.439	256.51
664.631	184.83
664.822	207.36
665.014	172.54
665.205	51.71
665.397	123.39
665.588	244.22
665.78	164.35
665.971	133.63
666.163	96.77
666.354	197.12
666.546	127.49
666.737	100.86
666.929	41.47
667.12	98.81
667.311	182.78
667.503	70.14
667.694	70.14
667.885	166.4
668.077	154.11
668.268	-26.11
668.459	133.63
668.651	168.45
668.842	193.02
669.033	123.39
669.224	61.95
669.416	217.6
669.607	129.53
669.798	47.62
669.989	248.32
670.18	96.77
670.371	109.05
670.563	35.33
670.754	246.27
670.945	127.49
671.136	272.89
671.327	37.38
671.518	141.82
671.709	252.41
671.9	107.01
672.091	238.08
672.282	84.48
672.473	96.77
672.664	39.42
672.855	102.91
673.046	86.53
673.237	254.46
673.428	113.15
673.619	182.78
673.809	84.48
674	193.02
674.191	158.21
674.382	190.97
674.573	70.14
674.764	90.62
674.954	174.59
675.145	66.05
675.336	70.14
675.527	74.24
675.717	84.48
675.908	145.92
676.099	104.96
676.289	82.43
676.48	-5.63
676.671	90.62
676.861	109.05
677.052	59.9
677.243	96.77
677.433	107.01
677.624	229.88
677.814	145.92
678.005	94.72
678.195	254.46
678.386	-22.02
678.576	107.01
678.767	109.05
678.957	100.86
679.148	242.17
679.338	276.99
679.529	137.73
679.719	104.96
679.909	227.84
680.1	164.35
680.29	213.5
680.481	-28.16
680.671	199.16
680.861	127.49
681.052	154.11
681.242	203.26
681.432	182.78
681.622	133.63
681.813	-42.5
682.003	70.14
682.193	72.19
682.383	195.07
682.573	190.97
682.764	43.52
682.954	156.16
683.144	203.26
683.334	94.72
683.524	123.39
683.714	37.38
683.904	250.36
684.094	125.44
684.284	233.98
684.474	258.56
684.664	227.84
684.854	88.57
685.044	94.72
685.234	225.79
685.424	170.49
685.614	80.38
685.804	244.22
685.994	72.19
686.184	131.58
686.374	193.02
686.564	90.62
686.753	207.36
686.943	92.67
687.133	109.05
687.323	160.25
687.513	207.36
687.702	139.77
687.892	176.64
688.082	221.69
688.272	207.36
688.461	86.53
688.651	260.6
688.841	176.64
689.03	78.33
689.22	227.84
689.41	201.21
689.599	104.96
689.789	45.57
689.979	309.76
690.168	115.2
690.358	256.51
690.547	109.05
690.737	186.88
690.926	121.34
691.116	158.21
691.305	207.36
691.495	229.88
691.684	121.34
691.874	55.81
692.063	78.33
692.252	156.16
692.442	160.25
692.631	109.05
692.82	129.53
693.01	145.92
693.199	125.44
693.388	139.77
693.578	184.83
693.767	203.26
693.956	182.78
694.146	90.62
694.335	78.33
694.524	6.66
694.713	250.36
694.902	109.05
695.092	174.59
695.281	186.88
695.47	186.88
695.659	129.53
695.848	123.39
696.037	102.91
696.226	180.73
696.415	215.55
696.604	248.32
696.793	170.49
696.982	150.01
697.171	326.14
697.36	162.3
697.549	76.29
697.738	61.95
697.927	156.16
698.116	82.43
698.305	178.69
698.494	190.97
698.683	90.62
698.872	227.84
699.061	121.34
699.25	137.73
699.438	143.87
699.627	102.91
699.816	250.36
700.005	49.66
700.193	115.2
700.382	219.64
700.571	123.39
700.76	92.67
700.948	190.97
701.137	121.34
701.326	127.49
701.514	117.25
701.703	199.16
701.892	147.97
702.08	250.36
702.269	96.77
702.457	172.54
702.646	231.93
702.834	80.38
703.023	221.69
703.212	209.4
703.4	141.82
703.589	119.29
703.777	129.53
703.965	64
704.154	160.25
704.342	0.51
704.531	111.1
704.719	156.16
704.907	223.74
705.096	57.86
705.284	64
705.472	147.97
705.661	117.25
705.849	133.63
706.037	209.4
706.226	129.53
706.414	244.22
706.602	66.05
706.79	154.11
706.979	80.38
707.167	150.01
707.355	-58.88
707.543	117.25
707.731	209.4
707.919	170.49
708.107	156.16
708.296	104.96
708.484	84.48
708.672	240.12
708.86	127.49
709.048	158.21
709.236	41.47
709.424	207.36
709.612	100.86
709.8	18.94
709.988	233.98
710.176	174.59
710.364	211.45
710.551	100.86
710.739	164.35
710.927	166.4
711.115	160.25
711.303	244.22
711.491	127.49
711.679	100.86
711.866	225.79
712.054	88.57
712.242	121.34
712.43	205.31
712.617	174.59
712.805	197.12
712.993	109.05
713.181	43.52
713.368	219.64
713.556	133.63
713.744	115.2
713.931	320
714.119	162.3
714.306	117.25
714.494	207.36
714.682	129.53
714.869	88.57
715.057	133.63
715.244	23.04
715.432	125.44
715.619	123.39
715.807	98.81
715.994	84.48
716.182	205.31
716.369	246.27
716.556	217.6
716.744	23.04
716.931	117.25
717.119	168.45
717.306	137.73
717.493	215.55
717.681	178.69
717.868	102.91
718.055	119.29
718.242	174.59
718.43	178.69
718.617	246.27
718.804	117.25
718.991	174.59
719.179	154.11
719.366	219.64
719.553	258.56
719.74	215.55
719.927	88.57
720.114	168.45
720.301	123.39
720.488	66.05
720.676	102.91
720.863	248.32
721.05	270.84
721.237	203.26
721.424	209.4
721.611	172.54
721.798	92.67
721.985	158.21
722.172	168.45
722.358	174.59
722.545	295.42
722.732	233.98
722.919	180.73
723.106	223.74
723.293	145.92
723.48	190.97
723.667	129.53
723.853	231.93
724.04	154.11
724.227	238.08
724.414	109.05
724.6	225.79
724.787	324.09
724.974	342.52
725.161	190.97
725.347	127.49
725.534	154.11
725.72	152.06
725.907	268.8
726.094	268.8
726.28	115.2
726.467	215.55
726.653	78.33
726.84	293.37
727.027	291.32
727.213	137.73
727.4	121.34
727.586	141.82
727.773	129.53
727.959	246.27
728.145	188.93
728.332	225.79
728.518	172.54
728.705	254.46
728.891	205.31
729.077	207.36
729.264	174.59
729.45	86.53
729.636	240.12
729.823	180.73
730.009	186.88
730.195	186.88
730.382	289.28
730.568	96.77
730.754	227.84
730.94	229.88
731.126	150.01
731.313	334.33
731.499	139.77
731.685	264.7
731.871	250.36
732.057	201.21
732.243	258.56
732.429	145.92
732.615	283.13
732.801	213.5
732.987	150.01
733.173	225.79
733.359	172.54
733.545	268.8
733.731	78.33
733.917	270.84
734.103	233.98
734.289	225.79
734.475	123.39
734.661	401.91
734.847	184.83
735.033	190.97
735.219	379.39
735.404	160.25
735.59	195.07
735.776	170.49
735.962	180.73
736.148	287.23
736.333	283.13
736.519	184.83
736.705	180.73
736.89	211.45
737.076	270.84
737.262	133.63
737.447	225.79
737.633	176.64
737.819	211.45
738.004	229.88
738.19	209.4
738.375	266.75
738.561	231.93
738.747	190.97
738.932	240.12
739.118	371.19
739.303	203.26
739.489	219.64
739.674	174.59
739.859	125.44
740.045	268.8
740.23	203.26
740.416	158.21
740.601	174.59
740.786	141.82
740.972	84.48
741.157	164.35
741.342	109.05
741.528	139.77
741.713	274.94
741.898	209.4
742.084	141.82
742.269	92.67
742.454	137.73
742.639	270.84
742.824	172.54
743.01	266.75
743.195	324.09
743.38	199.16
743.565	180.73
743.75	223.74
743.935	211.45
744.12	254.46
744.305	80.38
744.49	217.6
744.675	92.67
744.86	156.16
745.045	119.29
745.23	221.69
745.415	102.91
745.6	354.81
745.785	205.31
745.97	209.4
746.155	182.78
746.34	152.06
746.525	190.97
746.71	231.93
746.895	98.81
747.079	41.47
747.264	166.4
747.449	223.74
747.634	119.29
747.819	170.49
748.003	227.84
748.188	137.73
748.373	201.21
748.557	176.64
748.742	170.49
748.927	176.64
749.111	197.12
749.296	166.4
749.481	147.97
749.665	190.97
749.85	133.63
750.034	195.07
750.219	150.01
750.404	88.57
750.588	150.01
750.773	238.08
750.957	100.86
751.141	98.81
751.326	291.32
751.51	43.52
751.695	94.72
751.879	160.25
752.064	283.13
752.248	186.88
752.432	264.7
752.617	207.36
752.801	154.11
752.985	121.34
753.17	205.31
753.354	248.32
753.538	121.34
753.722	57.86
753.907	100.86
754.091	8.7
754.275	197.12
754.459	92.67
754.643	137.73
754.828	158.21
755.012	154.11
755.196	98.81
755.38	72.19
755.564	117.25
755.748	57.86
755.932	219.64
756.116	150.01
756.3	258.56
756.484	76.29
756.668	201.21
756.852	109.05
757.036	76.29
757.22	166.4
757.404	23.04
757.588	170.49
757.772	86.53
757.956	156.16
758.14	285.18
758.323	-17.92
758.507	76.29
758.691	88.57
758.875	141.82
759.059	182.78
759.242	-9.73
759.426	141.82
759.61	80.38
759.794	47.62
759.977	127.49
760.161	307.71
760.345	168.45
760.528	188.93
760.712	129.53
760.895	158.21
761.079	90.62
761.263	-7.68
761.446	104.96
761.63	64
761.813	254.46
761.997	29.18
762.18	84.48
762.364	115.2
762.547	-73.21
762.731	49.66
762.914	129.53
763.098	31.23
763.281	96.77
763.464	57.86
763.648	98.81
763.831	117.25
764.015	88.57
764.198	150.01
764.381	-24.06
764.564	125.44
764.748	43.52
764.931	117.25
765.114	59.9
765.297	139.77
765.481	-44.54
765.664	129.53
765.847	51.71
766.03	281.08
766.213	2.56
766.397	53.76
766.58	39.42
766.763	109.05
766.946	66.05
767.129	143.87
767.312	70.14
767.495	88.57
767.678	64
767.861	55.81
768.044	74.24
768.227	53.76
768.41	-7.68
768.593	172.54
768.776	78.33
768.959	64
769.142	178.69
769.324	53.76
769.507	61.95
769.69	47.62
769.873	70.14
770.056	117.25
770.239	109.05
770.421	201.21
770.604	168.45
770.787	-73.21
770.97	109.05
771.152	-44.54
771.335	88.57
771.518	49.66
771.7	184.83
771.883	174.59
772.066	57.86
772.248	127.49
772.431	131.58
772.613	133.63
772.796	94.72
772.978	45.57
773.161	123.39
773.343	70.14
773.526	31.23
773.708	-11.78
773.891	-44.54
774.073	39.42
774.256	-40.45
774.438	199.16
774.621	-9.73
774.803	113.15
774.985	16.9
775.168	186.88
775.35	39.42
775.532	96.77
775.715	-46.59
775.897	168.45
776.079	29.18
776.261	80.38
776.444	121.34
776.626	35.33
776.808	35.33
776.99	-7.68
777.173	51.71
777.355	47.62
777.537	12.8
777.719	23.04
777.901	10.75
778.083	8.7
778.265	18.94
778.447	152.06
778.629	-36.35
778.811	57.86
778.993	35.33
779.175	100.86
779.357	55.81
779.539	-30.21
779.721	92.67
779.903	98.81
780.085	160.25
780.267	64
780.449	35.33
780.631	145.92
780.812	174.59
780.994	72.19
781.176	33.28
781.358	-7.68
781.54	53.76
781.721	27.14
781.903	41.47
782.085	35.33
782.267	80.38
782.448	12.8
782.63	-54.78
782.812	14.85
782.993	98.81
783.175	23.04
783.357	-34.3
783.538	-5.63
783.72	-38.4
783.901	2.56
784.083	109.05
784.264	45.57
784.446	-62.98
784.627	8.7
784.809	133.63
784.99	14.85
785.172	-19.97
785.353	-22.02
785.535	-11.78
785.716	-13.82
785.897	4.61
786.079	47.62
786.26	31.23
786.441	119.29
786.623	-30.21
786.804	-85.5
786.985	-30.21
787.167	35.33
787.348	14.85
787.529	-36.35
787.71	74.24
787.891	31.23
788.073	-7.68
788.254	2.56
788.435	117.25
788.616	23.04
788.797	27.14
788.978	-32.26
789.159	-28.16
789.34	43.52
789.522	0.51
789.703	-54.78
789.884	82.43
790.065	25.09
790.246	123.39
790.427	14.85
790.607	121.34
790.788	82.43
790.969	-50.69
791.15	4.61
791.331	-17.92
791.512	74.24
791.693	-124.41
791.874	-34.3
792.054	229.88
792.235	64
792.416	-58.88
792.597	-3.58
792.778	84.48
792.958	133.63
793.139	16.9
793.32	86.53
793.5	-26.11
793.681	143.87
793.862	14.85
794.042	-24.06
794.223	-22.02
794.404	92.67
794.584	-50.69
794.765	23.04
794.945	-46.59
795.126	41.47
795.306	107.01
795.487	-54.78
795.667	-62.98
795.848	84.48
796.028	-50.69
796.209	-56.83
796.389	39.42
796.57	-19.97
796.75	-22.02
796.93	2.56
797.111	-9.73
797.291	-42.5
797.471	4.61
797.652	47.62
797.832	-65.02
798.012	0.51
798.192	-22.02
798.373	-95.74
798.553	-28.16
798.733	104.96
798.913	-3.58
799.093	-56.83
799.274	12.8
799.454	102.91
799.634	113.15
799.814	25.09
799.994	39.42
800.174	90.62
800.354	-13.82
800.534	-62.98
800.714	29.18
800.894	-36.35
801.074	-95.74
801.254	45.57
801.434	53.76
801.614	-26.11
801.794	-54.78
801.974	1585.64
802.154	16.9
802.334	88.57
802.514	-71.17
802.693	-17.92
802.873	-112.13
803.053	115.2
803.233	82.43
803.413	43.52
803.592	-73.21
803.772	-22.02
803.952	72.19
804.131	-81.41
804.311	35.33
804.491	107.01
804.67	-22.02
804.85	-22.02
805.03	-15.87
805.209	88.57
805.389	-69.12
805.568	-22.02
805.748	-67.07
805.928	-9.73
806.107	68.09
806.287	74.24
806.466	4.61
806.646	-7.68
806.825	-87.55
807.004	23.04
807.184	16.9
807.363	53.76
807.543	39.42
807.722	-103.93
807.901	104.96
808.081	31.23
808.26	-159.23
808.439	20.99
808.619	64
808.798	-17.92
808.977	61.95
809.156	72.19
809.336	25.09
809.515	143.87
809.694	-99.84
809.873	-44.54
810.052	133.63
810.231	127.49
810.411	66.05
810.59	121.34
810.769	-5.63
810.948	35.33
811.127	-24.06
811.306	-50.69
811.485	-3.58
811.664	152.06
811.843	70.14
812.022	47.62
812.201	-26.11
812.38	4.61
812.559	4.61
812.737	66.05
812.916	-144.89
813.095	-79.36
813.274	4.61
813.453	-83.45
813.632	8.7
813.811	39.42
813.989	-105.98
814.168	2.56
814.347	-26.11
814.526	37.38
814.704	94.72
814.883	109.05
815.062	-144.89
815.24	8.7
815.419	-69.12
815.598	-26.11
815.776	-67.07
815.955	90.62
816.133	-30.21
816.312	8.7
816.49	-52.74
816.669	-73.21
816.847	-1.54
817.026	-50.69
817.204	-30.21
817.383	-56.83
817.561	-50.69
817.74	10.75
817.918	-32.26
818.097	-56.83
818.275	-24.06
818.453	49.66
818.632	64
818.81	25.09
818.988	-54.78
819.167	-71.17
819.345	-15.87
819.523	41.47
819.701	-38.4
819.879	8.7
820.058	14.85
820.236	31.23
820.414	-17.92
820.592	-44.54
820.77	-1.54
820.948	-118.27
821.127	-19.97
821.305	49.66
821.483	-9.73
821.661	107.01
821.839	-22.02
822.017	-112.13
822.195	2.56
822.373	111.1
822.551	80.38
822.729	64
822.907	-44.54
823.085	49.66
823.262	47.62
823.44	-60.93
823.618	41.47
823.796	-50.69
823.974	-71.17
824.152	-42.5
824.329	-46.59
824.507	-22.02
824.685	55.81
824.863	-54.78
825.04	-13.82
825.218	92.67
825.396	-46.59
825.574	98.81
825.751	80.38
825.929	84.48
826.107	-17.92
826.284	45.57
826.462	59.9
826.639	-9.73
826.817	-67.07
826.994	-15.87
827.172	-65.02
827.349	135.68
827.527	-5.63
827.704	20.99
827.882	18.94
828.059	37.38
828.237	-71.17
828.414	68.09
828.591	-24.06
828.769	29.18
828.946	-83.45
829.124	10.75
829.301	61.95
829.478	-71.17
829.655	84.48
829.833	-26.11
830.01	-77.31
830.187	14.85
830.364	-26.11
830.542	-28.16
830.719	117.25
830.896	35.33
831.073	51.71
831.25	23.04
831.427	-13.82
831.604	8.7
831.782	-91.65
831.959	12.8
832.136	-83.45
832.313	-3.58
832.49	-32.26
832.667	10.75
832.844	-32.26
833.021	98.81
833.198	59.9
833.374	31.23
833.551	86.53
833.728	-38.4
833.905	43.52
834.082	-73.21
834.259	-28.16
834.436	0.51
834.612	-95.74
834.789	80.38
834.966	-5.63
835.143	0.51
835.319	-40.45
835.496	2.56
835.673	47.62
835.85	25.09
836.026	64
836.203	25.09
836.38	-50.69
836.556	-71.17
836.733	-67.07
836.909	55.81
837.086	-54.78
837.262	-120.32
837.439	-36.35
837.616	-65.02
837.792	-58.88
837.968	53.76
838.145	-19.97
838.321	14.85
838.498	84.48
838.674	16.9
838.851	-28.16
839.027	-26.11
839.203	-48.64
839.38	-34.3
839.556	-69.12
839.732	57.86
839.909	2.56
840.085	64
840.261	-75.26
840.437	16.9
840.614	-67.07
840.79	39.42
840.966	0.51
841.142	20.99
841.318	-24.06
841.494	68.09
841.671	55.81
841.847	-71.17
842.023	-114.17
842.199	29.18
842.375	72.19
842.551	-112.13
842.727	-58.88
842.903	154.11
843.079	-77.31
843.255	92.67
843.431	-13.82
843.607	-28.16
843.783	-97.79
843.959	25.09
844.134	-26.11
844.31	92.67
844.486	8.7
844.662	-46.59
844.838	-9.73
845.013	55.81
845.189	53.76
845.365	-62.98
845.541	-11.78
845.716	-58.88
845.892	64
846.068	-77.31
846.244	4.61
846.419	10.75
846.595	-40.45
846.77	-95.74
846.946	82.43
847.122	-54.78
847.297	23.04
847.473	51.71
847.648	-75.26
847.824	-3.58
847.999	-175.61
848.175	-67.07
848.35	31.23
848.526	80.38
848.701	66.05
848.876	115.2
849.052	84.48
849.227	-24.06
849.403	-13.82
849.578	92.67
849.753	-5.63
849.929	-44.54
850.104	-48.64
850.279	-34.3
850.454	-13.82
850.63	59.9
850.805	-46.59
850.98	2.56
851.155	-40.45
851.33	82.43
851.505	-116.22
851.681	53.76
851.856	25.09
852.031	66.05
852.206	35.33
852.381	-81.41
852.556	-132.61
852.731	64
852.906	49.66
853.081	25.09
853.256	80.38
853.431	-44.54
853.606	-56.83
853.781	-91.65
853.956	-89.6
854.131	-5.63
854.305	-155.13
854.48	-69.12
854.655	-95.74
854.83	-32.26
855.005	-46.59
855.18	0.51
855.354	-28.16
855.529	-46.59
855.704	-34.3
855.879	8.7
856.053	-58.88
856.228	-32.26
856.403	-89.6
856.577	49.66
856.752	-48.64
856.926	-42.5
857.101	-24.06
857.276	-103.93
857.45	41.47
857.625	-3.58
857.799	86.53
857.974	-5.63
858.148	-126.46
858.323	35.33
858.497	-9.73
858.672	-19.97
858.846	0.51
859.02	23.04
859.195	-34.3
859.369	-56.83
859.543	-32.26
859.718	31.23
859.892	31.23
860.066	37.38
860.241	-62.98
860.415	-40.45
860.589	41.47
860.763	-54.78
860.938	-56.83
861.112	20.99
861.286	-54.78
861.46	35.33
861.634	-5.63
861.808	16.9
861.982	12.8
862.157	-97.79
862.331	-15.87
862.505	-42.5
862.679	-40.45
862.853	-48.64
863.027	23.04
863.201	129.53
863.375	-28.16
863.549	41.47
863.722	-38.4
863.896	135.68
864.07	-79.36
864.244	6.66
864.418	0.51
864.592	16.9
864.766	-77.31
864.939	59.9
865.113	-73.21
865.287	23.04
865.461	-24.06
865.634	59.9
865.808	57.86
865.982	-60.93
866.156	-67.07
866.329	-120.32
866.503	-22.02
866.676	-28.16
866.85	-3.58
867.024	-24.06
867.197	55.81
867.371	53.76
867.544	-36.35
867.718	-114.17
867.891	90.62
868.065	-91.65
868.238	4.61
868.412	74.24
868.585	-9.73
868.759	-50.69
868.932	-54.78
869.105	-153.09
869.279	-22.02
869.452	-52.74
869.625	125.44
869.799	-30.21
869.972	-30.21
870.145	-19.97
870.319	78.33
870.492	-26.11
870.665	-22.02
870.838	-89.6
871.011	-161.28
871.185	29.18
871.358	-81.41
871.531	29.18
871.704	8.7
871.877	47.62
872.05	-50.69
872.223	-30.21
872.396	92.67
872.569	-19.97
872.742	-56.83
872.915	111.1
873.088	-15.87
873.261	-34.3
873.434	-5.63
873.607	-58.88
873.78	59.9
873.953	-58.88
874.126	-40.45
874.299	18.94
874.471	-95.74
874.644	-67.07
874.817	80.38
874.99	90.62
875.163	-62.98
875.335	47.62
875.508	27.14
875.681	33.28
875.853	-122.37
876.026	10.75
876.199	66.05
876.371	-40.45
876.544	66.05
876.717	8.7
876.889	-62.98
877.062	14.85
877.234	-108.03
877.407	-22.02
877.579	-30.21
877.752	90.62
877.924	88.57
878.097	-30.21
878.269	4.61
878.442	70.14
878.614	45.57
878.786	-11.78
878.959	6.66
879.131	-38.4
879.303	-116.22
879.476	-52.74
879.648	-19.97
879.82	-13.82
879.993	-22.02
880.165	-89.6
880.337	-124.41
880.509	23.04
880.681	-95.74
880.854	-71.17
881.026	39.42
881.198	143.87
881.37	70.14
881.542	-15.87
881.714	-40.45
881.886	-32.26
882.058	-17.92
882.23	2.56
882.402	-24.06
882.574	-15.87
882.746	100.86
882.918	51.71
883.09	29.18
883.262	33.28
883.434	-32.26
883.606	-77.31
883.778	-24.06
883.95	111.1
884.122	-67.07
884.293	33.28
884.465	90.62
884.637	53.76
884.809	-5.63
884.98	-58.88
885.152	31.23
885.324	6.66
885.496	-40.45
885.667	-67.07
885.839	47.62
886.011	125.44
886.182	8.7
886.354	-3.58
886.525	6.66
886.697	-17.92
886.869	-71.17
887.04	-24.06
887.212	64
887.383	125.44
887.555	14.85
887.726	-122.37
887.897	-69.12
888.069	-26.11
888.24	14.85
888.412	55.81
888.583	-24.06
888.754	-67.07
888.926	-163.33
889.097	-42.5
889.268	-54.78
889.44	-3.58
889.611	-124.41
889.782	-36.35
889.953	-56.83
890.125	141.82
890.296	-83.45
890.467	43.52
890.638	-116.22
890.809	-110.08
890.98	-38.4
891.151	51.71
891.323	102.91
891.494	39.42
891.665	61.95
891.836	-9.73
892.007	-46.59
892.178	94.72
892.349	51.71
892.52	-89.6
892.691	-13.82
892.862	-11.78
893.032	-153.09
893.203	-15.87
893.374	37.38
893.545	84.48
893.716	-11.78
893.887	72.19
894.057	-34.3
894.228	16.9
894.399	-13.82
894.57	27.14
894.74	-50.69
894.911	18.94
895.082	-19.97
895.253	-58.88
895.423	2.56
895.594	2.56
895.764	16.9
895.935	-56.83
896.106	0.51
896.276	2.56
896.447	-50.69
896.617	-30.21
896.788	-91.65
896.958	6.66
897.129	-28.16
897.299	12.8
897.47	47.62
897.64	51.71
897.81	-60.93
897.981	-44.54
898.151	-87.55
898.322	-17.92
898.492	10.75
898.662	-32.26
898.832	-95.74
899.003	-52.74
899.173	31.23
899.343	-89.6
899.513	-13.82
