Data from USB4F104151__196__11-05-27-032.txt Node

Date: Wed Feb 26 11:05:27 EST 2025
User: louis
Spectrometer: USB4F10415
Trigger mode: 4
Integration Time (sec): 1.000000E-1
Scans to average: 1
Electric dark correction enabled: true
Nonlinearity correction enabled: false
Boxcar width: 0
XAxis mode: Wavelengths
Number of Pixels in Spectrum: 3648
>>>>>Begin Spectral Data<<<<<
178.204	-370
178.424	-370
178.644	-370
178.864	-349.52
179.084	-343.38
179.304	4.78
179.524	-15.7
179.744	33.45
179.964	17.07
180.184	-15.7
180.404	88.75
180.624	6.83
180.844	-19.8
181.064	-116.05
181.283	17.07
181.503	-11.61
181.723	10.92
181.943	-71
182.163	252.58
182.383	2.73
182.602	82.6
182.822	160.42
183.042	53.93
183.262	15.02
183.482	-5.46
183.701	-9.56
183.921	51.88
184.141	-15.7
184.361	178.86
184.58	109.22
184.8	62.12
185.02	-1.37
185.239	86.7
185.459	66.22
185.679	96.94
185.898	-77.14
186.118	2.73
186.338	82.6
186.557	115.37
186.777	-103.76
186.997	-13.65
187.216	86.7
187.436	240.3
187.655	-17.75
187.875	53.93
188.095	68.27
188.314	137.9
188.534	125.61
188.753	-13.65
188.973	166.57
189.192	197.29
189.412	19.11
189.631	49.83
189.851	31.4
190.07	127.66
190.29	17.07
190.509	-5.46
190.729	39.59
190.948	187.05
191.168	213.67
191.387	111.27
191.607	141.99
191.826	92.84
192.045	78.51
192.265	-46.42
192.484	148.14
192.704	23.21
192.923	-71
193.142	197.29
193.362	49.83
193.581	133.8
193.8	76.46
194.02	68.27
194.239	133.8
194.458	55.98
194.678	2.73
194.897	19.11
195.116	92.84
195.335	98.99
195.555	76.46
195.774	2.73
195.993	166.57
196.212	109.22
196.432	35.5
196.651	-1.37
196.87	88.75
197.089	195.24
197.308	17.07
197.528	74.41
197.747	-44.37
197.966	49.83
198.185	156.33
198.404	-34.13
198.623	105.13
198.842	131.75
199.062	74.41
199.281	111.27
199.5	82.6
199.719	221.86
199.938	64.17
200.157	78.51
200.376	139.94
200.595	172.71
200.814	64.17
201.033	25.26
201.252	174.76
201.471	19.11
201.69	88.75
201.909	-40.28
202.128	211.62
202.347	90.79
202.566	51.88
202.785	6.83
203.004	-40.28
203.223	266.92
203.442	23.21
203.661	-73.04
203.879	154.28
204.098	191.14
204.317	-50.52
204.536	115.37
204.755	92.84
204.974	88.75
205.193	31.4
205.411	197.29
205.63	101.03
205.849	25.26
206.068	78.51
206.287	-36.18
206.505	144.04
206.724	76.46
206.943	31.4
207.162	35.5
207.381	68.27
207.599	58.03
207.818	43.69
208.037	-7.51
208.255	31.4
208.474	23.21
208.693	125.61
208.911	21.16
209.13	109.22
209.349	31.4
209.567	49.83
209.786	49.83
210.005	148.14
210.223	2.73
210.442	-66.9
210.661	121.51
210.879	6.83
211.098	64.17
211.316	55.98
211.535	43.69
211.753	31.4
211.972	23.21
212.191	-21.85
212.409	88.75
212.628	74.41
212.846	21.16
213.065	98.99
213.283	129.7
213.502	78.51
213.72	55.98
213.938	10.92
214.157	-23.89
214.375	74.41
214.594	-58.71
214.812	0.68
215.031	64.17
215.249	39.59
215.467	58.03
215.686	17.07
215.904	111.27
216.122	64.17
216.341	197.29
216.559	45.74
216.778	23.21
216.996	101.03
217.214	49.83
217.432	64.17
217.651	-17.75
217.869	35.5
218.087	35.5
218.306	-48.47
218.524	23.21
218.742	6.83
218.96	68.27
219.179	51.88
219.397	35.5
219.615	201.38
219.833	49.83
220.051	-21.85
220.27	117.42
220.488	66.22
220.706	105.13
220.924	25.26
221.142	49.83
221.36	127.66
221.578	74.41
221.796	41.64
222.015	23.21
222.233	74.41
222.451	156.33
222.669	-56.66
222.887	72.36
223.105	-23.89
223.323	41.64
223.541	4.78
223.759	68.27
223.977	78.51
224.195	246.44
224.413	152.23
224.631	6.83
224.849	35.5
225.067	283.3
225.285	66.22
225.503	10.92
225.721	-56.66
225.939	117.42
226.157	58.03
226.375	164.52
226.592	37.55
226.81	80.55
227.028	164.52
227.246	117.42
227.464	84.65
227.682	174.76
227.9	23.21
228.117	84.65
228.335	41.64
228.553	88.75
228.771	58.03
228.989	51.88
229.206	23.21
229.424	19.11
229.642	23.21
229.86	-62.8
230.077	119.46
230.295	27.31
230.513	156.33
230.731	53.93
230.948	158.38
231.166	154.28
231.384	-38.23
231.601	27.31
231.819	139.94
232.037	4.78
232.254	-54.61
232.472	2.73
232.689	25.26
232.907	47.79
233.125	6.83
233.342	84.65
233.56	55.98
233.777	35.5
233.995	47.79
234.213	55.98
234.43	129.7
234.648	58.03
234.865	90.79
235.083	58.03
235.3	101.03
235.518	123.56
235.735	107.18
235.953	113.32
236.17	35.5
236.388	-13.65
236.605	47.79
236.822	94.89
237.04	84.65
237.257	29.35
237.475	-3.41
237.692	72.36
237.909	111.27
238.127	12.97
238.344	-3.41
238.562	-7.51
238.779	-34.13
238.996	-68.95
239.214	-3.41
239.431	84.65
239.648	68.27
239.865	78.51
240.083	84.65
240.3	33.45
240.517	8.87
240.735	62.12
240.952	146.09
241.169	66.22
241.386	41.64
241.603	74.41
241.821	8.87
242.038	78.51
242.255	53.93
242.472	-19.8
242.689	127.66
242.907	60.07
243.124	107.18
243.341	39.59
243.558	47.79
243.775	-19.8
243.992	4.78
244.209	98.99
244.426	107.18
244.643	72.36
244.86	45.74
245.078	148.14
245.295	90.79
245.512	96.94
245.729	21.16
245.946	60.07
246.163	8.87
246.38	-9.56
246.597	133.8
246.814	33.45
247.031	15.02
247.248	35.5
247.464	60.07
247.681	107.18
247.898	23.21
248.115	51.88
248.332	-46.42
248.549	117.42
248.766	178.86
248.983	164.52
249.2	92.84
249.417	123.56
249.633	62.12
249.85	53.93
250.067	15.02
250.284	31.4
250.501	113.32
250.717	105.13
250.934	-11.61
251.151	23.21
251.368	27.31
251.585	107.18
251.801	-25.94
252.018	-58.71
252.235	123.56
252.451	-40.28
252.668	72.36
252.885	164.52
253.102	90.79
253.318	101.03
253.535	58.03
253.752	19.11
253.968	74.41
254.185	23.21
254.401	80.55
254.618	123.56
254.835	6.83
255.051	146.09
255.268	86.7
255.484	60.07
255.701	39.59
255.917	90.79
256.134	47.79
256.351	109.22
256.567	-40.28
256.784	68.27
257	-23.89
257.217	90.79
257.433	70.31
257.65	53.93
257.866	160.42
258.082	-42.32
258.299	27.31
258.515	33.45
258.732	0.68
258.948	-50.52
259.165	49.83
259.381	-75.09
259.597	96.94
259.814	-32.08
260.03	90.79
260.246	84.65
260.463	178.86
260.679	123.56
260.895	4.78
261.112	47.79
261.328	115.37
261.544	-21.85
261.761	166.57
261.977	-66.9
262.193	-111.96
262.409	105.13
262.626	43.69
262.842	141.99
263.058	-62.8
263.274	98.99
263.49	45.74
263.707	109.22
263.923	178.86
264.139	-56.66
264.355	58.03
264.571	45.74
264.787	51.88
265.004	187.05
265.22	62.12
265.436	-44.37
265.652	-7.51
265.868	29.35
266.084	15.02
266.3	70.31
266.516	17.07
266.732	21.16
266.948	25.26
267.164	39.59
267.38	150.18
267.596	55.98
267.812	66.22
268.028	131.75
268.244	21.16
268.46	49.83
268.676	-1.37
268.892	162.47
269.108	-19.8
269.324	4.78
269.54	23.21
269.756	105.13
269.972	-21.85
270.188	76.46
270.403	-15.7
270.619	41.64
270.835	101.03
271.051	49.83
271.267	101.03
271.483	-7.51
271.698	31.4
271.914	60.07
272.13	31.4
272.346	2.73
272.562	-1.37
272.777	207.53
272.993	41.64
273.209	-9.56
273.425	84.65
273.64	19.11
273.856	70.31
274.072	-19.8
274.287	10.92
274.503	137.9
274.719	137.9
274.934	-9.56
275.15	-13.65
275.366	68.27
275.581	43.69
275.797	6.83
276.012	98.99
276.228	76.46
276.444	58.03
276.659	148.14
276.875	23.21
277.09	45.74
277.306	23.21
277.521	107.18
277.737	0.68
277.952	123.56
278.168	37.55
278.383	76.46
278.599	10.92
278.814	109.22
279.03	-7.51
279.245	182.95
279.461	-5.46
279.676	103.08
279.892	-46.42
280.107	88.75
280.322	62.12
280.538	150.18
280.753	-58.71
280.969	-13.65
281.184	66.22
281.399	191.14
281.615	31.4
281.83	98.99
282.045	-13.65
282.26	-77.14
282.476	0.68
282.691	121.51
282.906	86.7
283.122	158.38
283.337	25.26
283.552	21.16
283.767	21.16
283.983	121.51
284.198	64.17
284.413	23.21
284.628	-7.51
284.843	152.23
285.058	105.13
285.274	2.73
285.489	70.31
285.704	76.46
285.919	68.27
286.134	21.16
286.349	37.55
286.564	90.79
286.779	127.66
286.995	0.68
287.21	-25.94
287.425	72.36
287.64	27.31
287.855	43.69
288.07	-34.13
288.285	119.46
288.5	162.47
288.715	84.65
288.93	33.45
289.145	88.75
289.36	51.88
289.575	29.35
289.79	125.61
290.004	27.31
290.219	92.84
290.434	-32.08
290.649	35.5
290.864	23.21
291.079	31.4
291.294	66.22
291.509	135.85
291.724	51.88
291.938	10.92
292.153	92.84
292.368	51.88
292.583	53.93
292.798	68.27
293.012	10.92
293.227	68.27
293.442	39.59
293.657	47.79
293.871	176.81
294.086	80.55
294.301	182.95
294.516	94.89
294.73	17.07
294.945	62.12
295.16	27.31
295.374	94.89
295.589	35.5
295.804	17.07
296.018	80.55
296.233	191.14
296.447	86.7
296.662	4.78
296.877	92.84
297.091	94.89
297.306	58.03
297.52	51.88
297.735	76.46
297.949	41.64
298.164	139.94
298.378	49.83
298.593	21.16
298.807	-50.52
299.022	41.64
299.236	96.94
299.451	-17.75
299.665	-9.56
299.88	37.55
300.094	88.75
300.309	-42.32
300.523	80.55
300.737	82.6
300.952	29.35
301.166	101.03
301.381	-25.94
301.595	-25.94
301.809	15.02
302.024	-50.52
302.238	-23.89
302.452	180.9
302.667	55.98
302.881	109.22
303.095	107.18
303.309	-3.41
303.524	60.07
303.738	12.97
303.952	21.16
304.166	98.99
304.381	-79.19
304.595	139.94
304.809	-13.65
305.023	10.92
305.237	19.11
305.452	10.92
305.666	60.07
305.88	121.51
306.094	150.18
306.308	107.18
306.522	111.27
306.736	37.55
306.95	74.41
307.164	62.12
307.379	47.79
307.593	189.1
307.807	141.99
308.021	170.66
308.235	164.52
308.449	-71
308.663	-13.65
308.877	258.73
309.091	-36.18
309.305	154.28
309.519	-77.14
309.733	191.14
309.947	-32.08
310.161	121.51
310.374	78.51
310.588	176.81
310.802	-56.66
311.016	23.21
311.23	62.12
311.444	-34.13
311.658	53.93
311.872	105.13
312.085	174.76
312.299	84.65
312.513	197.29
312.727	8.87
312.941	33.45
313.154	115.37
313.368	72.36
313.582	45.74
313.796	37.55
314.009	25.26
314.223	197.29
314.437	139.94
314.651	62.12
314.864	-5.46
315.078	78.51
315.292	-50.52
315.505	41.64
315.719	45.74
315.933	74.41
316.146	19.11
316.36	23.21
316.573	119.46
316.787	197.29
317.001	123.56
317.214	-50.52
317.428	47.79
317.641	0.68
317.855	-11.61
318.068	68.27
318.282	39.59
318.495	195.24
318.709	94.89
318.922	49.83
319.136	164.52
319.349	45.74
319.563	27.31
319.776	47.79
319.99	-17.75
320.203	33.45
320.417	74.41
320.63	66.22
320.843	150.18
321.057	72.36
321.27	70.31
321.483	131.75
321.697	164.52
321.91	60.07
322.124	62.12
322.337	82.6
322.55	-3.41
322.763	84.65
322.977	43.69
323.19	-68.95
323.403	39.59
323.617	78.51
323.83	113.32
324.043	74.41
324.256	41.64
324.469	-50.52
324.683	144.04
324.896	68.27
325.109	51.88
325.322	-62.8
325.535	41.64
325.748	117.42
325.962	6.83
326.175	78.51
326.388	66.22
326.601	141.99
326.814	72.36
327.027	10.92
327.24	94.89
327.453	-42.32
327.666	82.6
327.879	49.83
328.092	146.09
328.305	135.85
328.518	0.68
328.731	39.59
328.944	2.73
329.157	96.94
329.37	25.26
329.583	193.19
329.796	178.86
330.009	-50.52
330.222	162.47
330.435	168.62
330.648	88.75
330.861	33.45
331.073	180.9
331.286	119.46
331.499	27.31
331.712	-64.85
331.925	51.88
332.138	88.75
332.35	150.18
332.563	8.87
332.776	185
332.989	-19.8
333.202	0.68
333.414	113.32
333.627	31.4
333.84	-48.47
334.053	-30.04
334.265	72.36
334.478	41.64
334.691	125.61
334.903	17.07
335.116	-19.8
335.329	51.88
335.541	60.07
335.754	242.34
335.966	39.59
336.179	21.16
336.392	80.55
336.604	62.12
336.817	176.81
337.029	105.13
337.242	4.78
337.454	45.74
337.667	-9.56
337.88	144.04
338.092	45.74
338.305	62.12
338.517	72.36
338.729	84.65
338.942	92.84
339.154	-44.37
339.367	47.79
339.579	-15.7
339.792	-25.94
340.004	58.03
340.217	64.17
340.429	76.46
340.641	15.02
340.854	8.87
341.066	82.6
341.278	187.05
341.491	144.04
341.703	58.03
341.915	-25.94
342.128	150.18
342.34	-23.89
342.552	-11.61
342.764	53.93
342.977	10.92
343.189	129.7
343.401	84.65
343.613	-21.85
343.826	74.41
344.038	-91.48
344.25	60.07
344.462	-11.61
344.674	101.03
344.886	10.92
345.099	41.64
345.311	101.03
345.523	-34.13
345.735	-46.42
345.947	-17.75
346.159	125.61
346.371	113.32
346.583	51.88
346.795	170.66
347.007	45.74
347.219	80.55
347.431	-40.28
347.643	168.62
347.855	-1.37
348.067	111.27
348.279	27.31
348.491	25.26
348.703	160.42
348.915	31.4
349.127	6.83
349.339	66.22
349.551	19.11
349.763	90.79
349.975	37.55
350.187	119.46
350.399	170.66
350.61	98.99
350.822	-48.47
351.034	49.83
351.246	58.03
351.458	117.42
351.669	86.7
351.881	62.12
352.093	86.7
352.305	74.41
352.517	51.88
352.728	240.3
352.94	51.88
353.152	152.23
353.363	10.92
353.575	58.03
353.787	185
353.999	88.75
354.21	135.85
354.422	17.07
354.633	76.46
354.845	68.27
355.057	6.83
355.268	49.83
355.48	84.65
355.692	-25.94
355.903	58.03
356.115	43.69
356.326	-44.37
356.538	160.42
356.749	64.17
356.961	213.67
357.172	92.84
357.384	15.02
357.595	182.95
357.807	33.45
358.018	-42.32
358.23	39.59
358.441	82.6
358.653	105.13
358.864	-42.32
359.075	10.92
359.287	62.12
359.498	174.76
359.709	111.27
359.921	80.55
360.132	78.51
360.344	21.16
360.555	60.07
360.766	60.07
360.977	4.78
361.189	121.51
361.4	109.22
361.611	70.31
361.823	133.8
362.034	78.51
362.245	-58.71
362.456	49.83
362.667	-3.41
362.879	21.16
363.09	74.41
363.301	49.83
363.512	33.45
363.723	39.59
363.935	62.12
364.146	90.79
364.357	29.35
364.568	39.59
364.779	-21.85
364.99	111.27
365.201	-40.28
365.412	162.47
365.623	-109.91
365.834	82.6
366.045	55.98
366.256	101.03
366.467	135.85
366.678	113.32
366.889	31.4
367.1	41.64
367.311	160.42
367.522	25.26
367.733	111.27
367.944	123.56
368.155	29.35
368.366	219.82
368.577	154.28
368.788	92.84
368.999	-21.85
369.209	4.78
369.42	268.97
369.631	182.95
369.842	51.88
370.053	47.79
370.264	154.28
370.474	-40.28
370.685	60.07
370.896	31.4
371.107	213.67
371.317	139.94
371.528	27.31
371.739	131.75
371.95	98.99
372.16	127.66
372.371	21.16
372.582	129.7
372.792	113.32
373.003	0.68
373.214	41.64
373.424	82.6
373.635	90.79
373.846	144.04
374.056	62.12
374.267	47.79
374.477	96.94
374.688	0.68
374.898	88.75
375.109	135.85
375.319	-1.37
375.53	98.99
375.74	74.41
375.951	49.83
376.161	-3.41
376.372	139.94
376.582	4.78
376.793	70.31
377.003	-58.71
377.214	51.88
377.424	76.46
377.635	68.27
377.845	-42.32
378.055	170.66
378.266	-99.67
378.476	123.56
378.686	121.51
378.897	109.22
379.107	103.08
379.317	64.17
379.528	17.07
379.738	92.84
379.948	-38.23
380.158	131.75
380.369	49.83
380.579	35.5
380.789	37.55
380.999	113.32
381.21	115.37
381.42	178.86
381.63	-3.41
381.84	103.08
382.05	103.08
382.261	105.13
382.471	133.8
382.681	-30.04
382.891	154.28
383.101	-5.46
383.311	-5.46
383.521	-9.56
383.731	64.17
383.941	170.66
384.151	78.51
384.361	35.5
384.571	148.14
384.781	92.84
384.991	191.14
385.201	121.51
385.411	107.18
385.621	96.94
385.831	10.92
386.041	113.32
386.251	43.69
386.461	189.1
386.671	53.93
386.881	49.83
387.091	25.26
387.301	119.46
387.511	115.37
387.72	129.7
387.93	166.57
388.14	-19.8
388.35	101.03
388.56	74.41
388.769	127.66
388.979	92.84
389.189	-11.61
389.399	111.27
389.609	127.66
389.818	96.94
390.028	98.99
390.238	60.07
390.447	35.5
390.657	109.22
390.867	51.88
391.076	-52.56
391.286	74.41
391.496	158.38
391.705	96.94
391.915	125.61
392.125	98.99
392.334	115.37
392.544	176.81
392.753	107.18
392.963	27.31
393.172	113.32
393.382	41.64
393.591	119.46
393.801	-25.94
394.01	162.47
394.22	90.79
394.429	66.22
394.639	60.07
394.848	31.4
395.058	68.27
395.267	62.12
395.477	88.75
395.686	88.75
395.895	185
396.105	170.66
396.314	82.6
396.524	76.46
396.733	-7.51
396.942	123.56
397.152	113.32
397.361	182.95
397.57	88.75
397.78	76.46
397.989	80.55
398.198	158.38
398.407	39.59
398.617	-36.18
398.826	133.8
399.035	39.59
399.244	154.28
399.453	25.26
399.663	76.46
399.872	170.66
400.081	-17.75
400.29	96.94
400.499	76.46
400.708	78.51
400.917	39.59
401.127	37.55
401.336	33.45
401.545	209.58
401.754	152.23
401.963	123.56
402.172	35.5
402.381	-64.85
402.59	55.98
402.799	90.79
403.008	174.76
403.217	64.17
403.426	127.66
403.635	-66.9
403.844	35.5
404.053	-9.56
404.262	70.31
404.471	144.04
404.68	84.65
404.888	103.08
405.097	15.02
405.306	47.79
405.515	76.46
405.724	-19.8
405.933	160.42
406.142	51.88
406.35	39.59
406.559	64.17
406.768	45.74
406.977	164.52
407.185	82.6
407.394	129.7
407.603	-13.65
407.812	189.1
408.02	160.42
408.229	47.79
408.438	101.03
408.646	6.83
408.855	72.36
409.064	129.7
409.272	88.75
409.481	113.32
409.69	-9.56
409.898	-21.85
410.107	103.08
410.315	103.08
410.524	64.17
410.733	137.9
410.941	23.21
411.15	135.85
411.358	51.88
411.567	111.27
411.775	170.66
411.984	150.18
412.192	45.74
412.401	21.16
412.609	207.53
412.818	113.32
413.026	146.09
413.234	70.31
413.443	51.88
413.651	-11.61
413.86	78.51
414.068	152.23
414.276	152.23
414.485	25.26
414.693	211.62
414.901	203.43
415.11	162.47
415.318	12.97
415.526	70.31
415.734	111.27
415.943	51.88
416.151	193.19
416.359	53.93
416.567	141.99
416.776	70.31
416.984	141.99
417.192	236.2
417.4	-5.46
417.608	43.69
417.817	-30.04
418.025	111.27
418.233	223.91
418.441	-40.28
418.649	-75.09
418.857	101.03
419.065	158.38
419.273	33.45
419.481	58.03
419.689	88.75
419.897	62.12
420.105	-56.66
420.313	35.5
420.521	219.82
420.729	139.94
420.937	49.83
421.145	-38.23
421.353	144.04
421.561	189.1
421.769	111.27
421.977	12.97
422.185	88.75
422.393	55.98
422.601	141.99
422.809	115.37
423.017	98.99
423.224	70.31
423.432	178.86
423.64	70.31
423.848	176.81
424.056	53.93
424.263	148.14
424.471	94.89
424.679	152.23
424.887	6.83
425.094	172.71
425.302	121.51
425.51	72.36
425.718	70.31
425.925	141.99
426.133	84.65
426.341	148.14
426.548	86.7
426.756	88.75
426.964	121.51
427.171	33.45
427.379	230.06
427.586	92.84
427.794	90.79
428.001	168.62
428.209	92.84
428.417	129.7
428.624	94.89
428.832	105.13
429.039	105.13
429.247	121.51
429.454	168.62
429.662	217.77
429.869	123.56
430.076	170.66
430.284	252.58
430.491	170.66
430.699	211.62
430.906	275.11
431.114	203.43
431.321	203.43
431.528	125.61
431.736	195.24
431.943	86.7
432.15	207.53
432.358	178.86
432.565	309.93
432.772	37.55
432.979	195.24
433.187	189.1
433.394	215.72
433.601	168.62
433.808	238.25
434.016	330.41
434.223	268.97
434.43	252.58
434.637	316.07
434.844	275.11
435.052	273.06
435.259	330.41
435.466	330.41
435.673	309.93
435.88	301.73
436.087	346.79
436.294	430.76
436.501	410.28
436.708	441
436.915	377.51
437.122	334.5
437.329	357.03
437.537	451.24
437.743	488.1
437.95	539.3
438.157	383.65
438.364	455.33
438.571	490.15
438.778	465.57
438.985	496.29
439.192	570.02
439.399	481.96
439.606	549.54
439.813	467.62
440.02	666.27
440.227	651.94
440.433	742.05
440.64	559.78
440.847	598.69
441.054	684.7
441.261	760.48
441.467	760.48
441.674	688.8
441.881	748.19
442.088	670.37
442.294	805.53
442.501	922.27
442.708	922.27
442.914	846.49
443.121	1065.63
443.328	981.66
443.534	1067.67
443.741	1094.3
443.948	895.64
444.154	1120.92
444.361	1219.22
444.568	1057.43
444.774	1165.98
444.981	1067.67
445.187	1370.77
445.394	1301.14
445.6	1309.33
445.807	1395.35
446.013	1540.76
446.22	1378.97
446.426	1614.48
446.633	1602.19
446.839	1911.44
447.046	1587.86
447.252	1856.14
447.459	1841.81
447.665	1899.15
447.871	2019.98
448.078	2253.45
448.284	2247.3
448.491	2259.59
448.697	2325.13
448.903	2417.29
449.11	2452.1
449.316	2570.88
449.522	2726.53
449.728	2704
449.935	2833.02
450.141	2841.22
450.347	3138.17
450.553	3105.4
450.76	3246.71
450.966	3279.48
451.172	3461.75
451.378	3648.11
451.584	3664.5
451.791	3844.72
451.997	3943.02
452.203	4043.37
452.409	4270.7
452.615	4530.79
452.821	4266.6
453.027	4524.65
453.233	4821.6
453.44	4663.91
453.646	4981.34
453.852	5247.58
454.058	5352.02
454.264	5468.76
454.47	6052.43
454.676	5952.08
454.882	6529.61
455.088	6144.59
455.294	6601.29
455.5	7066.17
455.705	7375.42
455.911	7273.02
456.117	7453.24
456.323	7737.91
456.529	7799.35
456.735	8655.4
456.941	8915.49
457.147	9136.67
457.352	9669.14
457.558	9687.57
457.764	10529.29
457.97	10535.43
458.176	10877.44
458.381	11479.55
458.587	11614.71
458.793	12233.2
458.999	12423.66
459.204	13887.96
459.41	14170.58
459.616	14066.13
459.821	14803.4
460.027	15356.35
460.233	16259.51
460.438	16130.48
460.644	17318.31
460.85	17271.2
461.055	17983.9
461.261	18880.91
461.466	18497.94
461.672	18745.74
461.878	21293.41
462.083	20797.81
462.289	21311.85
462.494	22169.94
462.7	22466.9
462.905	22784.33
463.111	24492.34
463.316	25430.31
463.522	26165.53
463.727	26816.79
463.932	27945.22
464.138	28686.58
464.343	30023.9
464.549	30165.21
464.754	32460.99
464.959	32778.42
465.165	33677.48
465.37	33665.19
465.575	33259.7
465.781	35981.45
465.986	37089.4
466.191	36216.96
466.397	36753.53
466.602	35762.31
466.807	37656.68
467.012	38957.14
467.218	39112.79
467.423	39233.62
467.628	39981.13
467.833	42311.72
468.038	41726
468.244	40665.15
468.449	42461.22
468.654	42000.43
468.859	41922.6
469.064	42190.89
469.269	40853.56
469.474	41138.23
469.679	42240.04
469.885	40978.49
470.09	41934.89
470.295	41873.45
470.5	41367.6
470.705	41459.76
470.91	40415.3
471.115	39710.8
471.32	40431.68
471.525	39983.18
471.73	38983.77
471.935	38867.03
472.139	37232.75
472.344	37283.95
472.549	36964.47
472.754	36393.09
472.959	35618.96
473.164	34658.46
473.369	33734.82
473.574	34834.58
473.778	34168.99
473.983	34035.88
474.188	33048.75
474.393	31195.34
474.598	31254.73
474.802	30410.97
475.007	30343.39
475.212	29681.89
475.417	28733.68
475.621	28799.22
475.826	28100.86
476.031	27578.63
476.235	26927.38
476.44	26841.36
476.645	26018.08
476.849	25981.21
477.054	25350.44
477.259	24590.64
477.463	24840.5
477.668	24078.65
477.872	24215.87
478.077	23634.24
478.282	22675.79
478.486	22571.35
478.691	22364.5
478.895	22006.11
479.1	21858.65
479.304	21975.39
479.509	21039.47
479.713	21471.59
479.918	21008.75
480.122	20343.16
480.326	20748.65
480.531	20963.69
480.735	20494.71
480.94	19898.75
481.144	20693.36
481.348	19585.41
481.553	19640.7
481.757	19300.74
481.961	19294.6
482.166	19423.62
482.37	19390.85
482.574	18852.24
482.778	18504.08
482.983	19001.74
483.187	18776.46
483.391	18596.24
483.595	18266.52
483.8	17916.31
484.004	18188.69
484.208	18028.95
484.412	17777.05
484.616	17674.65
484.821	17279.4
485.025	16593.33
485.229	17183.14
485.433	16685.48
485.637	16314.8
485.841	16087.48
486.045	16101.81
486.249	15962.55
486.453	15264.19
486.657	15456.7
486.861	15172.04
487.065	14559.69
487.269	14856.65
487.473	14041.56
487.677	14072.28
487.881	14158.29
488.085	13926.87
488.289	13525.47
488.493	13222.37
488.697	13185.51
488.901	12806.63
489.105	12790.25
489.309	12603.88
489.512	12347.89
489.716	12016.12
489.92	11794.93
490.124	11663.86
490.328	11448.83
490.531	11086.34
490.735	10824.2
490.939	10770.95
491.143	10603.02
491.346	10465.8
491.55	10471.95
491.754	10193.42
491.958	9933.33
492.161	9902.61
492.365	9640.47
492.569	9304.6
492.772	9273.89
492.976	9179.68
493.18	9069.09
493.383	8942.11
493.587	8972.83
493.79	8991.27
493.994	8614.44
494.197	8409.64
494.401	8366.63
494.605	8501.8
494.808	8530.47
495.012	8356.4
495.215	8200.75
495.419	8161.84
495.622	7998
495.825	8073.78
496.029	7895.6
496.232	8073.78
496.436	7922.23
496.639	8038.96
496.843	7830.07
497.046	7871.03
497.249	7942.71
497.453	7993.9
497.656	7717.43
497.859	7963.19
498.063	7883.31
498.266	8043.06
498.469	7717.43
498.673	8094.26
498.876	8256.04
499.079	7944.75
499.282	7957.04
499.485	8380.97
499.689	8264.24
499.892	8340.01
500.095	8077.87
500.298	8139.31
500.501	8258.09
500.705	8542.76
500.908	8516.14
501.111	8577.58
501.314	8520.23
501.517	8854.05
501.72	8870.44
501.923	8643.11
502.126	8989.22
502.329	9230.88
502.532	9155.1
502.735	9118.24
502.938	9357.85
503.141	9472.54
503.344	9521.69
503.547	9667.1
503.75	9642.52
503.953	9839.12
504.156	10005.01
504.359	10115.6
504.562	10222.09
504.765	10308.11
504.968	10488.33
505.17	10709.51
505.373	10805.77
505.576	11110.91
505.779	11276.8
505.982	11309.57
506.185	11649.53
506.387	11792.89
506.59	11987.44
506.793	12392.94
506.996	12347.89
507.198	12751.34
507.401	12833.25
507.604	13068.77
507.807	13724.12
508.009	13541.85
508.212	13855.19
508.415	14059.99
508.617	14424.53
508.82	14526.92
509.022	14856.65
509.225	15468.99
509.428	15546.81
509.63	15948.22
509.833	16007.61
510.035	16755.12
510.238	16804.27
510.44	17002.92
510.643	17871.26
510.845	18086.29
511.048	18147.73
511.25	18725.26
511.453	19138.95
511.655	20105.59
511.858	20078.97
512.06	20832.62
512.262	20920.68
512.465	21277.03
512.667	22045.02
512.87	22477.14
513.072	22856.01
513.274	23404.87
513.477	23978.3
513.679	24713.52
513.881	24815.92
514.084	25608.48
514.286	25815.33
514.488	26624.28
514.69	27638.02
514.893	27754.76
515.095	28375.29
515.297	28936.43
515.499	29497.58
515.701	30048.48
515.904	30712.02
516.106	31283.41
516.308	32258.24
516.51	32884.92
516.712	33458.35
516.914	33890.47
517.116	34885.78
517.318	35416.21
517.52	35774.6
517.722	36266.11
517.925	37343.34
518.127	37781.61
518.329	38666.33
518.531	38645.85
518.733	39696.46
518.935	40798.27
519.136	40669.25
519.338	41789.48
519.54	41961.51
519.742	42903.58
519.944	43147.29
520.146	44298.25
520.348	44929.02
520.55	45486.07
520.752	46004.2
520.954	46749.67
521.155	46403.56
521.357	47398.87
521.559	48228.3
521.761	49328.06
521.963	48459.72
522.164	49577.91
522.366	49661.88
522.568	50048.94
522.77	50360.23
522.971	51380.12
523.173	50982.82
523.375	51707.8
523.576	51490.71
523.778	51556.25
523.98	52522.89
524.181	52645.77
524.383	52567.94
524.584	53176.19
524.786	52791.17
524.988	52998.02
525.189	53559.16
525.391	53294.97
525.592	53071.74
525.794	53473.15
525.995	53401.47
526.197	53301.12
526.398	53116.8
526.6	53485.43
526.801	53211.01
527.003	52791.17
527.204	52445.07
527.406	53124.99
527.607	52602.76
527.808	52416.39
528.01	51376.03
528.211	51756.95
528.412	51904.4
528.614	51396.51
528.815	51019.68
529.016	50630.57
529.218	49803.19
529.419	50182.06
529.62	49237.95
529.822	48963.52
530.023	48463.82
530.224	47976.4
530.425	47296.47
530.626	46720.99
530.828	46141.42
531.029	46677.99
531.23	45744.11
531.431	44976.12
531.632	44879.87
531.833	43991.05
532.035	43851.79
532.236	43313.17
532.437	42981.4
532.638	42397.73
532.839	41922.6
533.04	41488.43
533.241	40237.12
533.442	40882.23
533.643	39778.38
533.844	39067.73
534.045	38615.13
534.246	37542
534.447	37857.38
534.648	36786.3
534.849	36757.63
535.05	35969.16
535.251	35840.14
535.451	35272.85
535.652	34560.16
535.853	34240.67
536.054	33964.2
536.255	33470.64
536.456	32422.08
536.657	32833.72
536.857	32116.93
537.058	31322.32
537.259	31064.27
537.46	30525.66
537.66	30187.74
537.861	29772
538.062	29290.73
538.263	29210.86
538.463	28860.66
538.664	28283.13
538.865	28049.66
539.065	27830.53
539.266	26710.29
539.466	27218.19
539.667	26415.38
539.868	26947.86
540.068	26153.24
540.269	25571.62
540.469	25489.7
540.67	25209.13
540.87	25033
541.071	24682.8
541.271	24471.86
541.472	23988.54
541.672	23714.11
541.873	23378.25
542.073	22745.42
542.274	23081.29
542.474	22735.18
542.675	22511.96
542.875	22552.91
543.075	22040.92
543.276	21422.44
543.476	21602.66
543.676	20967.79
543.877	21127.53
544.077	20740.46
544.277	20633.97
544.478	20212.09
544.678	19902.84
544.878	19822.97
545.078	19652.99
545.279	19212.68
545.479	19122.57
545.679	19022.22
545.879	18366.87
546.079	18571.66
546.28	18137.49
546.48	17836.44
546.68	17940.89
546.88	17498.53
547.08	17719.71
547.28	17299.87
547.48	16630.19
547.68	16851.37
547.88	16337.33
548.081	16570.8
548.281	15888.82
548.481	15909.3
548.681	16042.42
548.881	15514.05
549.081	15567.29
549.28	15108.55
549.48	14832.07
549.68	14952.9
549.88	14756.3
550.08	13988.31
550.28	14088.66
550.48	13869.53
550.68	13613.53
550.88	13498.84
551.08	13253.09
551.279	13228.51
551.479	12859.88
551.679	12605.93
551.879	12438
552.079	12493.29
552.278	12104.18
552.478	12227.06
552.678	11807.22
552.878	11997.68
553.077	11403.77
553.277	11268.61
553.477	11338.24
553.676	11074.05
553.876	10797.57
554.076	10568.2
554.275	10338.83
554.475	10236.43
554.674	10099.22
554.874	10056.21
555.074	9808.4
555.273	9685.53
555.473	9677.33
555.672	9456.15
555.872	9087.52
556.071	9157.15
556.271	8907.3
556.47	8618.54
556.67	8516.14
556.869	8477.23
557.068	8376.87
557.268	8110.64
557.467	8098.35
557.667	8358.44
557.866	7838.26
558.065	7662.13
558.265	7510.58
558.464	7393.85
558.663	7391.8
558.863	7340.6
559.062	7187.01
559.261	7055.94
559.461	6851.14
559.66	6720.07
559.859	6656.58
560.058	6376.01
560.258	6349.39
560.457	6216.27
560.656	6206.03
560.855	6091.34
561.054	6150.73
561.253	5861.97
561.453	5872.21
561.652	5882.45
561.851	5814.87
562.05	5689.94
562.249	5540.44
562.448	5675.6
562.647	5194.33
562.846	5225.05
563.045	5194.33
563.244	5032.54
563.443	5186.14
563.642	4840.03
563.841	4987.49
564.04	4788.83
564.239	4772.45
564.438	4629.09
564.637	4620.9
564.836	4655.72
565.035	4455.01
565.234	4436.58
565.432	4440.68
565.631	4276.84
565.83	4262.51
566.029	4207.21
566.228	4139.63
566.427	4043.37
566.625	3803.76
566.824	3955.31
567.023	3854.96
567.222	3805.81
567.42	3740.27
567.619	3648.11
567.818	3646.07
568.016	3719.79
568.215	3627.64
568.414	3605.11
568.612	3510.9
568.811	3463.8
569.01	3465.85
569.208	3295.86
569.407	3254.9
569.605	3252.86
569.804	3091.07
570.002	3105.4
570.201	3101.31
570.4	3033.72
570.598	2996.86
570.797	2943.61
570.995	2781.82
571.193	2792.06
571.392	2851.46
571.59	2792.06
571.789	2712.19
571.987	2794.11
572.186	2765.44
572.384	2634.37
572.582	2607.75
572.781	2605.7
572.979	2382.47
573.177	2472.58
573.376	2419.33
573.574	2437.77
573.772	2323.08
573.971	2294.41
574.169	2265.74
574.367	2155.15
574.565	2151.05
574.763	2179.72
574.962	2144.91
575.16	2048.65
575.358	2034.32
575.556	2038.41
575.754	1927.82
575.952	1972.88
576.151	1938.06
576.349	1974.92
576.547	1905.29
576.745	1835.66
576.943	1833.61
577.141	1794.7
577.339	1669.78
577.537	1680.02
577.735	1850
577.933	1624.72
578.131	1622.67
578.329	1632.91
578.527	1604.24
578.725	1645.2
578.923	1516.18
579.121	1526.42
579.319	1301.14
579.516	1430.16
579.714	1583.76
579.912	1432.21
580.11	1278.62
580.308	1399.45
580.506	1280.66
580.704	1276.57
580.901	1342.1
581.099	1452.69
581.297	1352.34
581.495	1315.48
581.692	1317.53
581.89	1401.49
582.088	1221.27
582.285	1278.62
582.483	1172.12
582.681	1219.22
582.878	1122.97
583.076	1161.88
583.274	1202.84
583.471	1256.09
583.669	1170.07
583.866	1135.26
584.064	996
584.262	1030.81
584.459	883.36
584.657	1106.59
584.854	989.85
585.052	969.37
585.249	1104.54
585.447	946.84
585.644	803.49
585.841	1041.05
586.039	991.9
586.236	1116.83
586.434	881.31
586.631	772.77
586.828	848.54
587.026	877.21
587.223	789.15
587.42	826.01
587.618	938.65
587.815	735.9
588.012	789.15
588.21	709.28
588.407	838.3
588.604	821.92
588.801	729.76
588.999	762.53
589.196	844.45
589.393	760.48
589.59	780.96
589.787	838.3
589.984	742.05
590.182	776.86
590.379	676.51
590.576	776.86
590.773	699.04
590.97	721.57
591.167	805.53
591.364	737.95
591.561	639.65
591.758	834.21
591.955	664.22
592.152	656.03
592.349	668.32
592.546	647.84
592.743	656.03
592.94	760.48
593.137	731.81
593.334	729.76
593.531	672.42
593.727	688.8
593.924	774.81
594.121	731.81
594.318	578.21
594.515	686.75
594.712	805.53
594.908	842.4
595.105	537.25
595.302	742.05
595.499	770.72
595.696	811.68
595.892	756.38
596.089	903.84
596.286	805.53
596.482	950.94
596.679	928.41
596.876	813.73
597.072	1020.57
597.269	914.08
597.466	944.8
597.662	869.02
597.859	926.36
598.055	1055.39
598.252	1065.63
598.448	1108.63
598.645	1231.51
598.841	1184.41
599.038	1305.24
599.234	1309.33
599.431	1335.96
599.627	1288.86
599.824	1338.01
600.02	1372.82
600.217	1526.42
600.413	1467.03
600.609	1522.32
600.806	1817.23
601.002	1755.79
601.198	1698.45
601.395	1886.86
601.591	1929.87
601.787	1950.35
601.984	1987.21
602.18	2255.5
602.376	2189.96
602.572	2216.58
602.769	2378.37
602.965	2321.03
603.161	2556.55
603.357	2624.13
603.553	2869.89
603.75	2523.78
603.946	2843.26
604.142	2890.37
604.338	3177.08
604.534	3215.99
604.73	3314.3
604.926	3326.58
605.122	3543.67
605.318	3574.39
605.514	3670.64
605.71	3613.3
605.906	4022.89
606.102	3967.6
606.298	4123.24
606.494	4215.4
606.69	4545.13
606.886	4543.08
607.082	4653.67
607.278	4696.68
607.474	4880.99
607.67	5149.28
607.866	4891.23
608.062	5331.55
608.257	5388.89
608.453	5499.48
608.649	5775.95
608.845	5823.06
609.041	5896.78
609.236	6249.04
609.432	6292.04
609.628	6601.29
609.824	6840.9
610.019	6769.22
610.215	7027.26
610.411	7279.16
610.606	7545.4
610.802	7670.33
610.998	7662.13
611.193	8184.37
611.389	8112.69
611.584	8460.84
611.78	8700.45
611.976	8829.48
612.171	9347.61
612.367	9386.52
612.562	9503.26
612.758	9726.49
612.953	9875.99
613.149	10344.97
613.344	10387.98
613.539	10824.2
613.735	11305.47
613.93	11301.37
614.126	11665.91
614.321	12122.61
614.517	12552.68
614.712	12767.72
614.907	13216.22
615.103	13554.14
615.298	13795.8
615.493	14062.04
615.688	14502.35
615.884	15163.84
616.079	14782.92
616.274	15694.27
616.47	15643.07
616.665	16525.74
616.86	16724.4
617.055	17070.5
617.25	17654.17
617.445	18039.19
617.641	18147.73
617.836	18782.6
618.031	19204.49
618.226	19911.03
618.421	20113.78
618.616	20609.39
618.811	20844.91
619.006	21905.76
619.201	21582.18
619.396	22372.69
619.591	22522.19
619.786	23505.22
619.981	23765.31
620.176	24871.22
620.371	24754.48
620.566	25397.54
620.761	26056.99
620.956	26681.62
621.151	26841.36
621.346	27844.87
621.541	28027.13
621.735	28918
621.93	28705.01
622.125	29323.5
622.32	30171.36
622.515	30609.62
622.709	30961.87
622.904	31887.56
623.099	32391.36
623.294	32860.34
623.488	33394.86
623.683	33790.12
623.878	34168.99
624.072	34668.7
624.267	35270.8
624.462	35895.43
624.656	36456.57
624.851	37236.85
625.046	37372.02
625.24	38258.79
625.435	38418.53
625.629	39182.42
625.824	39641.17
626.018	40036.42
626.213	39731.28
626.407	40878.14
626.602	40710.21
626.796	41660.46
626.991	42283.05
627.185	42360.87
627.38	42440.74
627.574	42950.68
627.768	42737.69
627.963	43075.61
628.157	42995.74
628.352	43411.48
628.546	42989.59
628.74	43526.16
628.935	43059.23
629.129	43237.4
629.323	42549.28
629.517	42620.96
629.712	42283.05
629.906	42178.6
630.1	41183.29
630.294	41566.26
630.489	40642.62
630.683	40656.96
630.877	39460.94
631.071	39135.32
631.265	38778.97
631.459	37748.84
631.653	36405.38
631.848	36196.48
632.042	35508.36
632.236	34351.26
632.43	32972.98
632.624	32501.95
632.818	31045.84
633.012	30353.63
633.206	29667.56
633.4	28698.87
633.594	27343.11
633.788	26792.21
633.982	25776.42
634.176	24774.96
634.369	23941.44
634.563	23042.38
634.757	21797.21
634.951	21483.87
635.145	20506.99
635.339	19640.7
635.533	18569.62
635.726	18094.49
635.92	17295.78
636.114	16603.57
636.308	15851.96
636.501	15210.95
636.695	14737.87
636.889	13965.78
637.083	13597.15
637.276	12835.3
637.47	12206.58
637.664	12093.94
637.857	11459.07
638.051	11170.3
638.244	10342.92
638.438	10052.11
638.632	9722.39
638.825	9265.69
639.019	9138.72
639.212	8553
639.406	8268.33
639.599	7733.81
639.793	7731.76
639.986	7238.2
640.18	7193.15
640.373	6855.23
640.567	6572.61
640.76	6419.02
640.954	5976.66
641.147	5743.19
641.34	5458.52
641.534	5356.12
641.727	5223
641.92	5083.74
642.114	4833.89
642.307	4625
642.5	4592.23
642.694	4131.44
642.887	4188.78
643.08	4086.38
643.273	3967.6
643.467	3672.69
643.66	3439.22
643.853	3310.2
644.046	3226.23
644.239	3193.47
644.432	2822.78
644.626	2714.24
644.819	2617.99
645.012	2646.66
645.205	2468.48
645.398	2544.26
645.591	2462.34
645.784	2228.87
645.977	2079.37
646.17	2087.56
646.363	2013.84
646.556	1903.25
646.749	1688.21
646.942	1821.33
647.135	1845.9
647.328	1733.26
647.521	1692.3
647.714	1583.76
647.907	1567.38
648.099	1436.31
648.292	1493.65
648.485	1376.92
648.678	1329.81
648.871	1106.59
649.064	1188.5
649.256	1170.07
649.449	1088.15
649.642	971.42
649.835	1098.39
650.027	930.46
650.22	1000.09
650.413	965.28
650.605	967.32
650.798	791.2
650.991	858.78
651.183	840.35
651.376	791.2
651.568	817.82
651.761	744.1
651.954	774.81
652.146	740
652.339	731.81
652.531	799.39
652.724	627.36
652.916	567.97
653.109	467.62
653.301	772.77
653.494	641.7
653.686	545.44
653.879	684.7
654.071	637.6
654.263	397.99
654.456	498.34
654.648	561.83
654.84	533.15
655.033	420.52
655.225	625.31
655.417	371.36
655.61	502.43
655.802	481.96
655.994	502.43
656.186	340.65
656.379	416.42
656.571	385.7
656.763	373.41
656.955	338.6
657.148	273.06
657.34	486.05
657.532	297.64
657.724	402.08
657.916	389.8
658.108	314.02
658.3	363.17
658.492	385.7
658.684	240.3
658.876	361.13
659.068	230.06
659.26	174.76
659.452	195.24
659.644	205.48
659.836	418.47
660.028	301.73
660.22	213.67
660.412	205.48
660.604	217.77
660.796	320.17
660.988	301.73
661.18	176.81
661.372	223.91
661.563	207.53
661.755	281.25
661.947	115.37
662.139	217.77
662.331	311.97
662.522	201.38
662.714	66.22
662.906	211.62
663.097	168.62
663.289	133.8
663.481	105.13
663.673	244.39
663.864	127.66
664.056	246.44
664.247	80.55
664.439	191.14
664.631	164.52
664.822	234.15
665.014	201.38
665.205	219.82
665.397	144.04
665.588	135.85
665.78	139.94
665.971	176.81
666.163	131.75
666.354	236.2
666.546	109.22
666.737	156.33
666.929	88.75
667.12	105.13
667.311	109.22
667.503	135.85
667.694	213.67
667.885	131.75
668.077	230.06
668.268	6.83
668.459	162.47
668.651	96.94
668.842	133.8
669.033	115.37
669.224	-9.56
669.416	385.7
669.607	141.99
669.798	86.7
669.989	219.82
670.18	23.21
670.371	162.47
670.563	21.16
670.754	201.38
670.945	148.14
671.136	219.82
671.327	37.55
671.518	199.34
671.709	209.58
671.9	273.06
672.091	193.19
672.282	72.36
672.473	146.09
672.664	39.59
672.855	94.89
673.046	133.8
673.237	256.68
673.428	164.52
673.619	174.76
673.809	115.37
674	193.19
674.191	111.27
674.382	105.13
674.573	146.09
674.764	162.47
674.954	205.48
675.145	19.11
675.336	125.61
675.527	101.03
675.717	113.32
675.908	123.56
676.099	101.03
676.289	115.37
676.48	39.59
676.671	121.51
676.861	107.18
677.052	139.94
677.243	98.99
677.433	98.99
677.624	168.62
677.814	187.05
678.005	152.23
678.195	305.83
678.386	66.22
678.576	113.32
678.767	76.46
678.957	168.62
679.148	170.66
679.338	174.76
679.529	203.43
679.719	148.14
679.909	207.53
680.1	207.53
680.29	121.51
680.481	105.13
680.671	158.38
680.861	191.14
681.052	170.66
681.242	86.7
681.432	195.24
681.622	201.38
681.813	109.22
682.003	211.62
682.193	94.89
682.383	137.9
682.573	160.42
682.764	215.72
682.954	111.27
683.144	193.19
683.334	84.65
683.524	141.99
683.714	189.1
683.904	268.97
684.094	92.84
684.284	101.03
684.474	271.01
684.664	207.53
684.854	205.48
685.044	131.75
685.234	139.94
685.424	141.99
685.614	105.13
685.804	334.5
685.994	240.3
686.184	103.08
686.374	299.69
686.564	152.23
686.753	199.34
686.943	166.57
687.133	154.28
687.323	193.19
687.513	193.19
687.702	178.86
687.892	94.89
688.082	221.86
688.272	262.82
688.461	185
688.651	320.17
688.841	246.44
689.03	123.56
689.22	205.48
689.41	211.62
689.599	264.87
689.789	121.51
689.979	268.97
690.168	154.28
690.358	176.81
690.547	197.29
690.737	150.18
690.926	166.57
691.116	305.83
691.305	150.18
691.495	240.3
691.684	137.9
691.874	152.23
692.063	172.71
692.252	156.33
692.442	262.82
692.631	174.76
692.82	189.1
693.01	113.32
693.199	213.67
693.388	201.38
693.578	51.88
693.767	230.06
693.956	277.16
694.146	88.75
694.335	168.62
694.524	144.04
694.713	311.97
694.902	144.04
695.092	223.91
695.281	137.9
695.47	189.1
695.659	166.57
695.848	166.57
696.037	60.07
696.226	211.62
696.415	176.81
696.604	246.44
696.793	273.06
696.982	131.75
697.171	238.25
697.36	197.29
697.549	185
697.738	154.28
697.927	170.66
698.116	185
698.305	141.99
698.494	168.62
698.683	156.33
698.872	295.59
699.061	152.23
699.25	156.33
699.438	137.9
699.627	76.46
699.816	330.41
700.005	199.34
700.193	113.32
700.382	195.24
700.571	180.9
700.76	246.44
700.948	180.9
701.137	172.71
701.326	148.14
701.514	195.24
701.703	262.82
701.892	248.49
702.08	334.5
702.269	150.18
702.457	121.51
702.646	205.48
702.834	180.9
703.023	260.77
703.212	178.86
703.4	199.34
703.589	121.51
703.777	187.05
703.965	156.33
704.154	158.38
704.342	166.57
704.531	123.56
704.719	230.06
704.907	240.3
705.096	139.94
705.284	55.98
705.472	209.58
705.661	146.09
705.849	205.48
706.037	230.06
706.226	185
706.414	236.2
706.602	127.66
706.79	209.58
706.979	131.75
707.167	152.23
707.355	74.41
707.543	125.61
707.731	246.44
707.919	121.51
708.107	137.9
708.296	117.42
708.484	84.65
708.672	195.24
708.86	158.38
709.048	193.19
709.236	207.53
709.424	176.81
709.612	205.48
709.8	86.7
709.988	182.95
710.176	279.21
710.364	264.87
710.551	90.79
710.739	154.28
710.927	131.75
711.115	191.14
711.303	252.58
711.491	234.15
711.679	234.15
711.866	254.63
712.054	123.56
712.242	268.97
712.43	236.2
712.617	156.33
712.805	254.63
712.993	160.42
713.181	127.66
713.368	174.76
713.556	180.9
713.744	125.61
713.931	350.89
714.119	213.67
714.306	74.41
714.494	109.22
714.682	123.56
714.869	47.79
715.057	154.28
715.244	101.03
715.432	170.66
715.619	113.32
715.807	131.75
715.994	119.46
716.182	158.38
716.369	342.69
716.556	334.5
716.744	129.7
716.931	187.05
717.119	221.86
717.306	72.36
717.493	262.82
717.681	256.68
717.868	105.13
718.055	221.86
718.242	230.06
718.43	228.01
718.617	262.82
718.804	164.52
718.991	299.69
719.179	189.1
719.366	160.42
719.553	217.77
719.74	146.09
719.927	203.43
720.114	207.53
720.301	82.6
720.488	131.75
720.676	197.29
720.863	287.4
721.05	373.41
721.237	287.4
721.424	221.86
721.611	297.64
721.798	160.42
721.985	33.45
722.172	141.99
722.358	174.76
722.545	334.5
722.732	219.82
722.919	332.45
723.106	275.11
723.293	123.56
723.48	205.48
723.667	223.91
723.853	266.92
724.04	232.1
724.227	299.69
724.414	185
724.6	215.72
724.787	277.16
724.974	383.65
725.161	187.05
725.347	156.33
725.534	219.82
725.72	223.91
725.907	215.72
726.094	301.73
726.28	174.76
726.467	195.24
726.653	158.38
726.84	266.92
727.027	336.55
727.213	199.34
727.4	236.2
727.586	201.38
727.773	182.95
727.959	211.62
728.145	230.06
728.332	248.49
728.518	174.76
728.705	316.07
728.891	311.97
729.077	187.05
729.264	193.19
729.45	254.63
729.636	238.25
729.823	115.37
730.009	246.44
730.195	254.63
730.382	221.86
730.568	123.56
730.754	285.35
730.94	217.77
731.126	230.06
731.313	320.17
731.499	193.19
731.685	211.62
731.871	275.11
732.057	311.97
732.243	275.11
732.429	285.35
732.615	326.31
732.801	223.91
732.987	201.38
733.173	185
733.359	193.19
733.545	256.68
733.731	141.99
733.917	328.36
734.103	195.24
734.289	195.24
734.475	170.66
734.661	332.45
734.847	279.21
735.033	236.2
735.219	246.44
735.404	250.53
735.59	193.19
735.776	228.01
735.962	174.76
736.148	232.1
736.333	316.07
736.519	170.66
736.705	207.53
736.89	221.86
737.076	185
737.262	197.29
737.447	217.77
737.633	137.9
737.819	268.97
738.004	268.97
738.19	240.3
738.375	260.77
738.561	293.54
738.747	205.48
738.932	158.38
739.118	314.02
739.303	287.4
739.489	271.01
739.674	197.29
739.859	146.09
740.045	207.53
740.23	162.47
740.416	21.16
740.601	230.06
740.786	215.72
740.972	137.9
741.157	154.28
741.342	90.79
741.528	174.76
741.713	273.06
741.898	182.95
742.084	172.71
742.269	244.39
742.454	236.2
742.639	275.11
742.824	234.15
743.01	248.49
743.195	361.13
743.38	236.2
743.565	236.2
743.75	201.38
743.935	320.17
744.12	295.59
744.305	141.99
744.49	209.58
744.675	275.11
744.86	135.85
745.045	228.01
745.23	238.25
745.415	154.28
745.6	305.83
745.785	225.96
745.97	277.16
746.155	193.19
746.34	242.34
746.525	281.25
746.71	342.69
746.895	105.13
747.079	164.52
747.264	119.46
747.449	264.87
747.634	260.77
747.819	277.16
748.003	162.47
748.188	148.14
748.373	205.48
748.557	201.38
748.742	150.18
748.927	162.47
749.111	191.14
749.296	139.94
749.481	287.4
749.665	207.53
749.85	135.85
750.034	260.77
750.219	180.9
750.404	207.53
750.588	203.43
750.773	156.33
750.957	180.9
751.141	131.75
751.326	211.62
751.51	58.03
751.695	191.14
751.879	152.23
752.064	322.21
752.248	197.29
752.432	363.17
752.617	217.77
752.801	236.2
752.985	127.66
753.17	250.53
753.354	225.96
753.538	178.86
753.722	121.51
753.907	37.55
754.091	141.99
754.275	150.18
754.459	129.7
754.643	68.27
754.828	180.9
755.012	164.52
755.196	117.42
755.38	150.18
755.564	98.99
755.748	141.99
755.932	195.24
756.116	193.19
756.3	234.15
756.484	105.13
756.668	234.15
756.852	-11.61
757.036	148.14
757.22	158.38
757.404	62.12
757.588	82.6
757.772	129.7
757.956	107.18
758.14	266.92
758.323	72.36
758.507	203.43
758.691	139.94
758.875	187.05
759.059	215.72
759.242	70.31
759.426	201.38
759.61	178.86
759.794	-5.46
759.977	219.82
760.161	404.13
760.345	244.39
760.528	207.53
760.712	101.03
760.895	195.24
761.079	103.08
761.263	27.31
761.446	125.61
761.63	144.04
761.813	170.66
761.997	35.5
762.18	98.99
762.364	113.32
762.547	0.68
762.731	51.88
762.914	117.42
763.098	23.21
763.281	66.22
763.464	96.94
763.648	182.95
763.831	129.7
764.015	0.68
764.198	80.55
764.381	94.89
764.564	84.65
764.748	80.55
764.931	111.27
765.114	53.93
765.297	195.24
765.481	60.07
765.664	107.18
765.847	39.59
766.03	205.48
766.213	64.17
766.397	125.61
766.58	-3.41
766.763	94.89
766.946	127.66
767.129	76.46
767.312	74.41
767.495	96.94
767.678	2.73
767.861	115.37
768.044	146.09
768.227	55.98
768.41	58.03
768.593	84.65
768.776	76.46
768.959	41.64
769.142	228.01
769.324	74.41
769.507	84.65
769.69	8.87
769.873	68.27
770.056	295.59
770.239	49.83
770.421	164.52
770.604	98.99
770.787	125.61
770.97	88.75
771.152	78.51
771.335	154.28
771.518	58.03
771.7	98.99
771.883	170.66
772.066	-3.41
772.248	109.22
772.431	182.95
772.613	168.62
772.796	10.92
772.978	127.66
773.161	230.06
773.343	4.78
773.526	-3.41
773.708	-11.61
773.891	-62.8
774.073	49.83
774.256	2.73
774.438	234.15
774.621	105.13
774.803	135.85
774.985	6.83
775.168	141.99
775.35	60.07
775.532	160.42
775.715	45.74
775.897	101.03
776.079	129.7
776.261	203.43
776.444	68.27
776.626	105.13
776.808	70.31
776.99	-75.09
777.173	164.52
777.355	117.42
777.537	53.93
777.719	135.85
777.901	105.13
778.083	12.97
778.265	-9.56
778.447	123.56
778.629	10.92
778.811	92.84
778.993	62.12
779.175	146.09
779.357	55.98
779.539	21.16
779.721	47.79
779.903	103.08
780.085	-5.46
780.267	53.93
780.449	27.31
780.631	84.65
780.812	168.62
780.994	-11.61
781.176	6.83
781.358	90.79
781.54	78.51
781.721	35.5
781.903	64.17
782.085	55.98
782.267	119.46
782.448	51.88
782.63	15.02
782.812	115.37
782.993	60.07
783.175	-9.56
783.357	-30.04
783.538	129.7
783.72	-11.61
783.901	25.26
784.083	217.77
784.264	62.12
784.446	-52.56
784.627	-27.99
784.809	160.42
784.99	-27.99
785.172	94.89
785.353	29.35
785.535	109.22
785.716	-15.7
785.897	62.12
786.079	21.16
786.26	55.98
786.441	8.87
786.623	-48.47
786.804	27.31
786.985	84.65
787.167	-1.37
787.348	31.4
787.529	25.26
787.71	146.09
787.891	121.51
788.073	-60.76
788.254	17.07
788.435	156.33
788.616	-21.85
788.797	-9.56
788.978	53.93
789.159	29.35
789.34	86.7
789.522	-1.37
789.703	4.78
789.884	8.87
790.065	21.16
790.246	187.05
790.427	72.36
790.607	174.76
790.788	119.46
790.969	25.26
791.15	-11.61
791.331	51.88
791.512	-15.7
791.693	62.12
791.874	-5.46
792.054	166.57
792.235	137.9
792.416	10.92
792.597	39.59
792.778	133.8
792.958	58.03
793.139	72.36
793.32	58.03
793.5	-27.99
793.681	174.76
793.862	29.35
794.042	-5.46
794.223	-75.09
794.404	17.07
794.584	-81.24
794.765	-3.41
794.945	43.69
795.126	94.89
795.306	158.38
795.487	51.88
795.667	23.21
795.848	58.03
796.028	90.79
796.209	-11.61
796.389	119.46
796.57	-7.51
796.75	2.73
796.93	45.74
797.111	-25.94
797.291	62.12
797.471	96.94
797.652	45.74
797.832	-25.94
798.012	125.61
798.192	-30.04
798.373	-44.37
798.553	10.92
798.733	17.07
798.913	0.68
799.093	29.35
799.274	62.12
799.454	92.84
799.634	27.31
799.814	131.75
799.994	84.65
800.174	70.31
800.354	8.87
800.534	-42.32
800.714	119.46
800.894	-50.52
801.074	-32.08
801.254	-23.89
801.434	10.92
801.614	6.83
801.794	-19.8
801.974	2046.6
802.154	-97.62
802.334	117.42
802.514	-19.8
802.693	68.27
802.873	53.93
803.053	74.41
803.233	68.27
803.413	-15.7
803.592	49.83
803.772	-91.48
803.952	12.97
804.131	-44.37
804.311	88.75
804.491	135.85
804.67	-34.13
804.85	-73.04
805.03	21.16
805.209	82.6
805.389	47.79
805.568	8.87
805.748	6.83
805.928	10.92
806.107	4.78
806.287	88.75
806.466	74.41
806.646	12.97
806.825	21.16
807.004	-30.04
807.184	80.55
807.363	72.36
807.543	45.74
807.722	-66.9
807.901	135.85
808.081	62.12
808.26	-142.68
808.439	31.4
808.619	35.5
808.798	-9.56
808.977	53.93
809.156	121.51
809.336	4.78
809.515	96.94
809.694	-19.8
809.873	-44.37
810.052	84.65
810.231	101.03
810.411	6.83
810.59	98.99
810.769	-9.56
810.948	17.07
811.127	-38.23
811.306	-13.65
811.485	29.35
811.664	109.22
811.843	55.98
812.022	27.31
812.201	-30.04
812.38	6.83
812.559	43.69
812.737	31.4
812.916	-5.46
813.095	-30.04
813.274	43.69
813.453	74.41
813.632	45.74
813.811	43.69
813.989	-66.9
814.168	-1.37
814.347	15.02
814.526	-11.61
814.704	164.52
814.883	88.75
815.062	-79.19
815.24	68.27
815.419	-27.99
815.598	92.84
815.776	-97.62
815.955	17.07
816.133	-144.72
816.312	49.83
816.49	-81.24
816.669	-3.41
816.847	17.07
817.026	109.22
817.204	-30.04
817.383	10.92
817.561	-32.08
817.74	37.55
817.918	0.68
818.097	37.55
818.275	-87.38
818.453	39.59
818.632	98.99
818.81	0.68
818.988	21.16
819.167	-11.61
819.345	19.11
819.523	-54.61
819.701	76.46
819.879	53.93
820.058	55.98
820.236	76.46
820.414	92.84
820.592	-11.61
820.77	45.74
820.948	-32.08
821.127	33.45
821.305	76.46
821.483	-64.85
821.661	78.51
821.839	41.64
822.017	-77.14
822.195	53.93
822.373	82.6
822.551	47.79
822.729	76.46
822.907	-42.32
823.085	64.17
823.262	64.17
823.44	-5.46
823.618	-13.65
823.796	90.79
823.974	-60.76
824.152	-23.89
824.329	-34.13
824.507	98.99
824.685	66.22
824.863	-23.89
825.04	-36.18
825.218	4.78
825.396	-27.99
825.574	60.07
825.751	37.55
825.929	45.74
826.107	-91.48
826.284	51.88
826.462	49.83
826.639	-101.72
826.817	-120.15
826.994	115.37
827.172	-87.38
827.349	127.66
827.527	21.16
827.704	35.5
827.882	86.7
828.059	21.16
828.237	-66.9
828.414	92.84
828.591	-107.86
828.769	-13.65
828.946	10.92
829.124	64.17
829.301	105.13
829.478	8.87
829.655	66.22
829.833	4.78
830.01	-130.39
830.187	111.27
830.364	47.79
830.542	21.16
830.719	31.4
830.896	41.64
831.073	10.92
831.25	72.36
831.427	88.75
831.604	-27.99
831.782	-79.19
831.959	82.6
832.136	-11.61
832.313	82.6
832.49	-1.37
832.667	74.41
832.844	-60.76
833.021	137.9
833.198	8.87
833.374	-7.51
833.551	31.4
833.728	2.73
833.905	78.51
834.082	-91.48
834.259	23.21
834.436	129.7
834.612	-50.52
834.789	76.46
834.966	19.11
835.143	98.99
835.319	-62.8
835.496	80.55
835.673	4.78
835.85	123.56
836.026	-56.66
836.203	82.6
836.38	47.79
836.556	-58.71
836.733	-64.85
836.909	125.61
837.086	-13.65
837.262	-56.66
837.439	-48.47
837.616	-19.8
837.792	-11.61
837.968	78.51
838.145	-103.76
838.321	43.69
838.498	70.31
838.674	43.69
838.851	4.78
839.027	-13.65
839.203	-15.7
839.38	35.5
839.556	-13.65
839.732	78.51
839.909	-23.89
840.085	78.51
840.261	0.68
840.437	39.59
840.614	10.92
840.79	98.99
840.966	-5.46
841.142	-52.56
841.318	45.74
841.494	31.4
841.671	64.17
841.847	-93.52
842.023	-60.76
842.199	62.12
842.375	90.79
842.551	-71
842.727	-68.95
842.903	156.33
843.079	-99.67
843.255	96.94
843.431	-3.41
843.607	15.02
843.783	-73.04
843.959	-13.65
844.134	21.16
844.31	141.99
844.486	-13.65
844.662	-32.08
844.838	-30.04
845.013	39.59
845.189	60.07
845.365	70.31
845.541	10.92
845.716	41.64
845.892	115.37
846.068	35.5
846.244	8.87
846.419	25.26
846.595	-103.76
846.77	6.83
846.946	29.35
847.122	12.97
847.297	-1.37
847.473	144.04
847.648	-136.53
847.824	10.92
847.999	-118.1
848.175	88.75
848.35	29.35
848.526	109.22
848.701	94.89
848.876	103.08
849.052	101.03
849.227	-3.41
849.403	29.35
849.578	0.68
849.753	55.98
849.929	33.45
850.104	-5.46
850.279	17.07
850.454	19.11
850.63	101.03
850.805	107.18
850.98	0.68
851.155	39.59
851.33	12.97
851.505	-77.14
851.681	129.7
851.856	-30.04
852.031	49.83
852.206	86.7
852.381	-85.33
852.556	-23.89
852.731	101.03
852.906	35.5
853.081	23.21
853.256	133.8
853.431	-21.85
853.606	-50.52
853.781	-48.47
853.956	-144.72
854.131	12.97
854.305	-42.32
854.48	-40.28
854.655	-30.04
854.83	-64.85
855.005	-56.66
855.18	-7.51
855.354	-11.61
855.529	60.07
855.704	6.83
855.879	-13.65
856.053	-30.04
856.228	70.31
856.403	-64.85
856.577	19.11
856.752	-34.13
856.926	33.45
857.101	25.26
857.276	-3.41
857.45	98.99
857.625	51.88
857.799	-21.85
857.974	-5.46
858.148	-101.72
858.323	15.02
858.497	2.73
858.672	29.35
858.846	-27.99
859.02	41.64
859.195	-46.42
859.369	-23.89
859.543	0.68
859.718	55.98
859.892	-19.8
860.066	39.59
860.241	43.69
860.415	-66.9
860.589	23.21
860.763	-40.28
860.938	-7.51
861.112	25.26
861.286	51.88
861.46	58.03
861.634	2.73
861.808	74.41
861.982	-40.28
862.157	-91.48
862.331	-9.56
862.505	-122.2
862.679	-64.85
862.853	-42.32
863.027	-25.94
863.201	80.55
863.375	-58.71
863.549	29.35
863.722	-27.99
863.896	88.75
864.07	-56.66
864.244	10.92
864.418	109.22
864.592	-36.18
864.766	33.45
864.939	-23.89
865.113	23.21
865.287	141.99
865.461	-95.57
865.634	55.98
865.808	-3.41
865.982	-71
866.156	2.73
866.329	-89.43
866.503	68.27
866.676	27.31
866.85	4.78
867.024	41.64
867.197	84.65
867.371	-62.8
867.544	55.98
867.718	-13.65
867.891	125.61
868.065	-95.57
868.238	45.74
868.412	125.61
868.585	19.11
868.759	-93.52
868.932	17.07
869.105	12.97
869.279	23.21
869.452	-54.61
869.625	12.97
869.799	27.31
869.972	-46.42
870.145	19.11
870.319	141.99
870.492	-11.61
870.665	4.78
870.838	53.93
871.011	-118.1
871.185	27.31
871.358	-40.28
871.531	70.31
871.704	-111.96
871.877	10.92
872.05	-46.42
872.223	-27.99
872.396	68.27
872.569	25.26
872.742	-111.96
872.915	78.51
873.088	-66.9
873.261	-81.24
873.434	107.18
873.607	-32.08
873.78	125.61
873.953	-32.08
874.126	12.97
874.299	117.42
874.471	-25.94
874.644	-36.18
874.817	43.69
874.99	103.08
875.163	-13.65
875.335	66.22
875.508	-5.46
875.681	72.36
875.853	-17.75
876.026	2.73
876.199	88.75
876.371	-56.66
876.544	60.07
876.717	23.21
876.889	-3.41
877.062	-17.75
877.234	-30.04
877.407	-42.32
877.579	-23.89
877.752	31.4
877.924	35.5
878.097	78.51
878.269	53.93
878.442	37.55
878.614	49.83
878.786	27.31
878.959	-9.56
879.131	-5.46
879.303	-95.57
879.476	33.45
879.648	141.99
879.82	80.55
879.993	-36.18
880.165	-36.18
880.337	-107.86
880.509	60.07
880.681	-68.95
880.854	-36.18
881.026	10.92
881.198	195.24
881.37	23.21
881.542	41.64
881.714	-42.32
881.886	12.97
882.058	43.69
882.23	-1.37
882.402	-48.47
882.574	-1.37
882.746	135.85
882.918	53.93
883.09	45.74
883.262	-11.61
883.434	0.68
883.606	-97.62
883.778	-32.08
883.95	53.93
884.122	-46.42
884.293	66.22
884.465	25.26
884.637	187.05
884.809	-27.99
884.98	-13.65
885.152	15.02
885.324	35.5
885.496	-46.42
885.667	-34.13
885.839	-32.08
886.011	4.78
886.182	53.93
886.354	117.42
886.525	62.12
886.697	-36.18
886.869	-27.99
887.04	25.26
887.212	113.32
887.383	133.8
887.555	-23.89
887.726	-46.42
887.897	-21.85
888.069	49.83
888.24	43.69
888.412	-5.46
888.583	-62.8
888.754	-58.71
888.926	-97.62
889.097	-1.37
889.268	-103.76
889.44	-25.94
889.611	-83.28
889.782	-75.09
889.953	-56.66
890.125	101.03
890.296	-75.09
890.467	2.73
890.638	23.21
890.809	-50.52
890.98	-64.85
891.151	27.31
891.323	111.27
891.494	29.35
891.665	25.26
891.836	-9.56
892.007	51.88
892.178	68.27
892.349	-5.46
892.52	12.97
892.691	-52.56
892.862	-66.9
893.032	-89.43
893.203	-27.99
893.374	-30.04
893.545	10.92
893.716	62.12
893.887	58.03
894.057	35.5
894.228	-21.85
894.399	-68.95
894.57	129.7
894.74	4.78
894.911	-9.56
895.082	58.03
895.253	-75.09
895.423	15.02
895.594	107.18
895.764	68.27
895.935	-87.38
896.106	58.03
896.276	-54.61
896.447	23.21
896.617	-85.33
896.788	-83.28
896.958	8.87
897.129	-50.52
897.299	-95.57
897.47	168.62
897.64	76.46
897.81	37.55
897.981	-87.38
898.151	35.5
898.322	43.69
898.492	-9.56
898.662	-25.94
898.832	-23.89
899.003	-27.99
899.173	10.92
899.343	-56.66
899.513	-11.61
