Data from USB4F104151__85__10-44-26-969.txt Node

Date: Wed Feb 26 10:44:26 EST 2025
User: louis
Spectrometer: USB4F10415
Trigger mode: 4
Integration Time (sec): 1.000000E-1
Scans to average: 1
Electric dark correction enabled: true
Nonlinearity correction enabled: false
Boxcar width: 0
XAxis mode: Wavelengths
Number of Pixels in Spectrum: 3648
>>>>>Begin Spectral Data<<<<<
178.204	-319.48
178.424	-319.48
178.644	-319.48
178.864	-315.39
179.084	-364.54
179.304	-28.67
179.524	-34.82
179.744	-10.24
179.964	-40.96
180.184	69.63
180.404	55.3
180.624	-65.53
180.844	16.38
181.064	-24.58
181.283	28.67
181.503	-36.86
181.723	71.68
181.943	-51.2
182.163	141.31
182.383	-94.21
182.602	4.1
182.822	53.25
183.042	122.88
183.262	-65.53
183.482	-26.62
183.701	59.39
183.921	32.77
184.141	-77.82
184.361	34.82
184.58	51.2
184.8	-28.67
185.02	83.97
185.239	67.58
185.459	178.17
185.679	145.41
185.898	-96.25
186.118	94.21
186.338	75.77
186.557	24.58
186.777	-24.58
186.997	63.49
187.216	49.15
187.436	169.98
187.655	86.01
187.875	24.58
188.095	81.92
188.314	90.11
188.534	165.89
188.753	-6.14
188.973	131.07
189.192	233.47
189.412	24.58
189.631	12.29
189.851	71.68
190.07	141.31
190.29	-14.34
190.509	-63.49
190.729	83.97
190.948	139.26
191.168	217.08
191.387	124.93
191.607	51.2
191.826	40.96
192.045	-18.43
192.265	24.58
192.484	61.44
192.704	139.26
192.923	-38.91
193.142	120.83
193.362	79.87
193.581	77.82
193.8	47.1
194.02	55.3
194.239	-20.48
194.458	79.87
194.678	20.48
194.897	-49.15
195.116	34.82
195.335	65.54
195.555	43.01
195.774	-51.2
195.993	92.16
196.212	2.05
196.432	-20.48
196.651	61.44
196.87	28.67
197.089	219.13
197.308	59.39
197.528	131.07
197.747	-47.1
197.966	67.58
198.185	92.16
198.404	-10.24
198.623	141.31
198.842	86.01
199.062	49.15
199.281	32.77
199.5	32.77
199.719	104.45
199.938	165.89
200.157	38.91
200.376	116.73
200.595	71.68
200.814	40.96
201.033	65.54
201.252	188.41
201.471	104.45
201.69	34.82
201.909	73.73
202.128	83.97
202.347	77.82
202.566	47.1
202.785	-165.89
203.004	30.72
203.223	245.76
203.442	45.06
203.661	-8.19
203.879	92.16
204.098	174.08
204.317	-12.29
204.536	133.12
204.755	131.07
204.974	30.72
205.193	-61.44
205.411	155.65
205.63	102.4
205.849	49.15
206.068	-2.05
206.287	-57.34
206.505	196.61
206.724	83.97
206.943	-6.14
207.162	-4.1
207.381	90.11
207.599	98.3
207.818	32.77
208.037	-77.82
208.255	22.53
208.474	30.72
208.693	59.39
208.911	24.58
209.13	120.83
209.349	20.48
209.567	75.77
209.786	71.68
210.005	135.17
210.223	18.43
210.442	-77.82
210.661	57.34
210.879	67.58
211.098	0
211.316	18.43
211.535	131.07
211.753	12.29
211.972	34.82
212.191	-30.72
212.409	38.91
212.628	161.79
212.846	-32.77
213.065	40.96
213.283	159.74
213.502	86.01
213.72	55.3
213.938	90.11
214.157	32.77
214.375	124.93
214.594	24.58
214.812	96.25
215.031	-49.15
215.249	83.97
215.467	108.54
215.686	81.92
215.904	45.06
216.122	100.35
216.341	139.26
216.559	94.21
216.778	88.06
216.996	110.59
217.214	0
217.432	-28.67
217.651	-34.82
217.869	94.21
218.087	43.01
218.306	28.67
218.524	59.39
218.742	108.54
218.96	40.96
219.179	12.29
219.397	2.05
219.615	204.8
219.833	83.97
220.051	-40.96
220.27	155.65
220.488	147.45
220.706	45.06
220.924	-20.48
221.142	6.14
221.36	47.1
221.578	43.01
221.796	2.05
222.015	73.73
222.233	135.17
222.451	143.36
222.669	-18.43
222.887	24.58
223.105	61.44
223.323	106.49
223.541	0
223.759	57.34
223.977	59.39
224.195	139.26
224.413	71.68
224.631	-8.19
224.849	38.91
225.067	286.72
225.285	38.91
225.503	-12.29
225.721	-69.63
225.939	59.39
226.157	86.01
226.375	215.04
226.592	-4.1
226.81	-2.05
227.028	137.21
227.246	178.17
227.464	83.97
227.682	126.97
227.9	129.02
228.117	57.34
228.335	86.01
228.553	-38.91
228.771	16.38
228.989	36.86
229.206	98.3
229.424	61.44
229.642	65.54
229.86	-69.63
230.077	159.74
230.295	81.92
230.513	83.97
230.731	45.06
230.948	172.03
231.166	143.36
231.384	14.34
231.601	4.1
231.819	190.46
232.037	28.67
232.254	-18.43
232.472	4.1
232.689	43.01
232.907	0
233.125	-32.77
233.342	-59.39
233.56	-14.34
233.777	-10.24
233.995	90.11
234.213	55.3
234.43	159.74
234.648	61.44
234.865	12.29
235.083	40.96
235.3	18.43
235.518	65.54
235.735	65.54
235.953	116.73
236.17	67.58
236.388	24.58
236.605	51.2
236.822	106.49
237.04	167.93
237.257	51.2
237.475	-53.25
237.692	51.2
237.909	69.63
238.127	-6.14
238.344	100.35
238.562	55.3
238.779	-92.16
238.996	-24.58
239.214	43.01
239.431	92.16
239.648	36.86
239.865	67.58
240.083	51.2
240.3	-28.67
240.517	-6.14
240.735	63.49
240.952	67.58
241.169	14.34
241.386	-6.14
241.603	14.34
241.821	61.44
242.038	30.72
242.255	131.07
242.472	-6.14
242.689	61.44
242.907	90.11
243.124	49.15
243.341	63.49
243.558	18.43
243.775	-71.68
243.992	-36.86
244.209	106.49
244.426	200.7
244.643	81.92
244.86	26.62
245.078	-18.43
245.295	-2.05
245.512	49.15
245.729	32.77
245.946	43.01
246.163	63.49
246.38	32.77
246.597	-26.62
246.814	49.15
247.031	71.68
247.248	118.78
247.464	178.17
247.681	102.4
247.898	71.68
248.115	88.06
248.332	30.72
248.549	98.3
248.766	186.37
248.983	151.55
249.2	28.67
249.417	147.45
249.633	67.58
249.85	118.78
250.067	40.96
250.284	65.54
250.501	38.91
250.717	34.82
250.934	-28.67
251.151	-12.29
251.368	0
251.585	102.4
251.801	88.06
252.018	40.96
252.235	110.59
252.451	-20.48
252.668	-53.25
252.885	133.12
253.102	75.77
253.318	102.4
253.535	-53.25
253.752	-26.62
253.968	-40.96
254.185	-16.38
254.401	110.59
254.618	77.82
254.835	-26.62
255.051	129.02
255.268	53.25
255.484	22.53
255.701	38.91
255.917	96.25
256.134	-6.14
256.351	-30.72
256.567	-45.06
256.784	67.58
257	-63.49
257.217	120.83
257.433	147.45
257.65	12.29
257.866	167.93
258.082	-18.43
258.299	-86.01
258.515	83.97
258.732	30.72
258.948	-63.49
259.165	118.78
259.381	-10.24
259.597	96.25
259.814	-8.19
260.03	83.97
260.246	77.82
260.463	61.44
260.679	88.06
260.895	45.06
261.112	110.59
261.328	77.82
261.544	-22.53
261.761	204.8
261.977	0
262.193	-94.21
262.409	153.6
262.626	30.72
262.842	38.91
263.058	-30.72
263.274	69.63
263.49	61.44
263.707	86.01
263.923	112.64
264.139	-73.73
264.355	100.35
264.571	90.11
264.787	100.35
265.004	153.6
265.22	26.62
265.436	-51.2
265.652	59.39
265.868	90.11
266.084	-59.39
266.3	4.1
266.516	-8.19
266.732	12.29
266.948	40.96
267.164	18.43
267.38	104.45
267.596	112.64
267.812	120.83
268.028	75.77
268.244	2.05
268.46	24.58
268.676	18.43
268.892	47.1
269.108	-36.86
269.324	-47.1
269.54	-38.91
269.756	106.49
269.972	-57.34
270.188	-10.24
270.403	-81.92
270.619	-51.2
270.835	106.49
271.051	0
271.267	-6.14
271.483	12.29
271.698	53.25
271.914	61.44
272.13	4.1
272.346	34.82
272.562	40.96
272.777	124.93
272.993	24.58
273.209	26.62
273.425	61.44
273.64	8.19
273.856	65.54
274.072	-40.96
274.287	-24.58
274.503	108.54
274.719	108.54
274.934	57.34
275.15	-90.11
275.366	47.1
275.581	-73.73
275.797	-32.77
276.012	-24.58
276.228	-28.67
276.444	67.58
276.659	94.21
276.875	-32.77
277.09	-38.91
277.306	59.39
277.521	96.25
277.737	77.82
277.952	53.25
278.168	16.38
278.383	-8.19
278.599	49.15
278.814	120.83
279.03	36.86
279.245	108.54
279.461	94.21
279.676	182.27
279.892	-61.44
280.107	-2.05
280.322	36.86
280.538	110.59
280.753	-24.58
280.969	32.77
281.184	-8.19
281.399	110.59
281.615	12.29
281.83	71.68
282.045	-36.86
282.26	40.96
282.476	0
282.691	139.26
282.906	24.58
283.122	14.34
283.337	-12.29
283.552	129.02
283.767	-8.19
283.983	16.38
284.198	-14.34
284.413	40.96
284.628	-6.14
284.843	-22.53
285.058	-4.1
285.274	-55.3
285.489	-38.91
285.704	75.77
285.919	4.1
286.134	47.1
286.349	114.69
286.564	-6.14
286.779	102.4
286.995	45.06
287.21	-120.83
287.425	149.5
287.64	-34.82
287.855	104.45
288.07	-100.35
288.285	49.15
288.5	108.54
288.715	94.21
288.93	-30.72
289.145	-2.05
289.36	184.32
289.575	-90.11
289.79	139.26
290.004	-57.34
290.219	126.97
290.434	-28.67
290.649	-8.19
290.864	6.14
291.079	0
291.294	40.96
291.509	104.45
291.724	4.1
291.938	-16.38
292.153	104.45
292.368	116.73
292.583	122.88
292.798	69.63
293.012	79.87
293.227	141.31
293.442	57.34
293.657	71.68
293.871	96.25
294.086	47.1
294.301	167.93
294.516	36.86
294.73	122.88
294.945	47.1
295.16	26.62
295.374	165.89
295.589	79.87
295.804	20.48
296.018	71.68
296.233	161.79
296.447	43.01
296.662	22.53
296.877	165.89
297.091	112.64
297.306	57.34
297.52	-67.58
297.735	20.48
297.949	86.01
298.164	26.62
298.378	110.59
298.593	4.1
298.807	4.1
299.022	65.54
299.236	129.02
299.451	36.86
299.665	16.38
299.88	-26.62
300.094	67.58
300.309	47.1
300.523	38.91
300.737	0
300.952	-49.15
301.166	24.58
301.381	-18.43
301.595	4.1
301.809	45.06
302.024	32.77
302.238	-20.48
302.452	65.54
302.667	-2.05
302.881	225.28
303.095	67.58
303.309	45.06
303.524	-8.19
303.738	28.67
303.952	2.05
304.166	88.06
304.381	-114.69
304.595	147.45
304.809	34.82
305.023	34.82
305.237	38.91
305.452	40.96
305.666	26.62
305.88	73.73
306.094	83.97
306.308	94.21
306.522	38.91
306.736	49.15
306.95	79.87
307.164	-40.96
307.379	55.3
307.593	174.08
307.807	196.61
308.021	131.07
308.235	180.22
308.449	-47.1
308.663	-61.44
308.877	182.27
309.091	34.82
309.305	71.68
309.519	-96.25
309.733	106.49
309.947	-40.96
310.161	102.4
310.374	120.83
310.588	172.03
310.802	-38.91
311.016	40.96
311.23	69.63
311.444	-86.01
311.658	102.4
311.872	124.93
312.085	196.61
312.299	108.54
312.513	104.45
312.727	47.1
312.941	-24.58
313.154	122.88
313.368	55.3
313.582	30.72
313.796	94.21
314.009	32.77
314.223	174.08
314.437	153.6
314.651	151.55
314.864	30.72
315.078	-69.63
315.292	-59.39
315.505	4.1
315.719	83.97
315.933	61.44
316.146	-59.39
316.36	-61.44
316.573	110.59
316.787	108.54
317.001	120.83
317.214	-8.19
317.428	4.1
317.641	-73.73
317.855	71.68
318.068	88.06
318.282	55.3
318.495	110.59
318.709	63.49
318.922	59.39
319.136	124.93
319.349	159.74
319.563	49.15
319.776	59.39
319.99	28.67
320.203	90.11
320.417	51.2
320.63	81.92
320.843	159.74
321.057	83.97
321.27	32.77
321.483	98.3
321.697	120.83
321.91	38.91
322.124	116.73
322.337	122.88
322.55	-32.77
322.763	45.06
322.977	45.06
323.19	16.38
323.403	59.39
323.617	-45.06
323.83	157.69
324.043	-61.44
324.256	30.72
324.469	-53.25
324.683	81.92
324.896	12.29
325.109	38.91
325.322	-131.07
325.535	94.21
325.748	102.4
325.962	-18.43
326.175	2.05
326.388	55.3
326.601	165.89
326.814	63.49
327.027	-32.77
327.24	147.45
327.453	-106.49
327.666	167.93
327.879	143.36
328.092	122.88
328.305	59.39
328.518	-20.48
328.731	4.1
328.944	28.67
329.157	45.06
329.37	77.82
329.583	129.02
329.796	98.3
330.009	2.05
330.222	73.73
330.435	51.2
330.648	139.26
330.861	102.4
331.073	28.67
331.286	63.49
331.499	14.34
331.712	-20.48
331.925	-40.96
332.138	10.24
332.35	137.21
332.563	73.73
332.776	151.55
332.989	14.34
333.202	-63.49
333.414	14.34
333.627	30.72
333.84	110.59
334.053	16.38
334.265	20.48
334.478	57.34
334.691	4.1
334.903	22.53
335.116	-81.92
335.329	83.97
335.541	69.63
335.754	77.82
335.966	51.2
336.179	-34.82
336.392	2.05
336.604	-2.05
336.817	129.02
337.029	-4.1
337.242	43.01
337.454	98.3
337.667	69.63
337.88	161.79
338.092	94.21
338.305	110.59
338.517	-14.34
338.729	57.34
338.942	104.45
339.154	-86.01
339.367	6.14
339.579	40.96
339.792	-61.44
340.004	34.82
340.217	83.97
340.429	32.77
340.641	98.3
340.854	-22.53
341.066	8.19
341.278	135.17
341.491	182.27
341.703	67.58
341.915	18.43
342.128	16.38
342.34	38.91
342.552	-79.87
342.764	38.91
342.977	-10.24
343.189	106.49
343.401	55.3
343.613	-38.91
343.826	116.73
344.038	-122.88
344.25	83.97
344.462	-12.29
344.674	65.54
344.886	65.54
345.099	16.38
345.311	88.06
345.523	36.86
345.735	-38.91
345.947	10.24
346.159	79.87
346.371	88.06
346.583	86.01
346.795	182.27
347.007	-79.87
347.219	65.54
347.431	43.01
347.643	200.7
347.855	-49.15
348.067	225.28
348.279	22.53
348.491	-8.19
348.703	118.78
348.915	38.91
349.127	38.91
349.339	-2.05
349.551	6.14
349.763	112.64
349.975	83.97
350.187	143.36
350.399	122.88
350.61	174.08
350.822	161.79
351.034	49.15
351.246	92.16
351.458	79.87
351.669	98.3
351.881	155.65
352.093	118.78
352.305	110.59
352.517	73.73
352.728	90.11
352.94	102.4
353.152	116.73
353.363	43.01
353.575	22.53
353.787	186.37
353.999	79.87
354.21	94.21
354.422	-67.58
354.633	65.54
354.845	-30.72
355.057	22.53
355.268	20.48
355.48	147.45
355.692	-20.48
355.903	20.48
356.115	12.29
356.326	-61.44
356.538	180.22
356.749	96.25
356.961	98.3
357.172	65.54
357.384	-57.34
357.595	198.65
357.807	24.58
358.018	20.48
358.23	24.58
358.441	124.93
358.653	53.25
358.864	71.68
359.075	16.38
359.287	90.11
359.498	122.88
359.709	110.59
359.921	32.77
360.132	36.86
360.344	20.48
360.555	24.58
360.766	77.82
360.977	10.24
361.189	112.64
361.4	30.72
361.611	106.49
361.823	120.83
362.034	67.58
362.245	104.45
362.456	-32.77
362.667	61.44
362.879	0
363.09	61.44
363.301	61.44
363.512	26.62
363.723	-36.86
363.935	53.25
364.146	59.39
364.357	-2.05
364.568	14.34
364.779	-30.72
364.99	118.78
365.201	28.67
365.412	86.01
365.623	-32.77
365.834	81.92
366.045	8.19
366.256	120.83
366.467	108.54
366.678	28.67
366.889	-43.01
367.1	12.29
367.311	88.06
367.522	47.1
367.733	30.72
367.944	98.3
368.155	20.48
368.366	79.87
368.577	112.64
368.788	69.63
368.999	-32.77
369.209	-12.29
369.42	149.5
369.631	256
369.842	92.16
370.053	83.97
370.264	104.45
370.474	-6.14
370.685	88.06
370.896	-106.49
371.107	114.69
371.317	83.97
371.528	49.15
371.739	81.92
371.95	102.4
372.16	116.73
372.371	20.48
372.582	-45.06
372.792	30.72
373.003	24.58
373.214	55.3
373.424	71.68
373.635	-43.01
373.846	102.4
374.056	81.92
374.267	90.11
374.477	110.59
374.688	-36.86
374.898	172.03
375.109	45.06
375.319	61.44
375.53	90.11
375.74	106.49
375.951	36.86
376.161	67.58
376.372	131.07
376.582	-34.82
376.793	69.63
377.003	59.39
377.214	0
377.424	122.88
377.635	131.07
377.845	22.53
378.055	122.88
378.266	-65.53
378.476	36.86
378.686	67.58
378.897	47.1
379.107	36.86
379.317	86.01
379.528	63.49
379.738	96.25
379.948	8.19
380.158	32.77
380.369	28.67
380.579	137.21
380.789	28.67
380.999	129.02
381.21	53.25
381.42	245.76
381.63	90.11
381.84	81.92
382.05	104.45
382.261	51.2
382.471	141.31
382.681	-30.72
382.891	176.13
383.101	-8.19
383.311	-55.3
383.521	53.25
383.731	67.58
383.941	133.12
384.151	22.53
384.361	-16.38
384.571	98.3
384.781	63.49
384.991	182.27
385.201	178.17
385.411	188.41
385.621	129.02
385.831	81.92
386.041	51.2
386.251	10.24
386.461	81.92
386.671	-8.19
386.881	55.3
387.091	26.62
387.301	73.73
387.511	36.86
387.72	81.92
387.93	69.63
388.14	-14.34
388.35	131.07
388.56	208.89
388.769	63.49
388.979	-2.05
389.189	2.05
389.399	90.11
389.609	79.87
389.818	108.54
390.028	40.96
390.238	98.3
390.447	12.29
390.657	65.54
390.867	-38.91
391.076	-79.87
391.286	126.97
391.496	32.77
391.705	47.1
391.915	186.37
392.125	24.58
392.334	38.91
392.544	176.13
392.753	-14.34
392.963	-67.58
393.172	69.63
393.382	-18.43
393.591	217.08
393.801	-30.72
394.01	86.01
394.22	139.26
394.429	26.62
394.639	10.24
394.848	-10.24
395.058	63.49
395.267	69.63
395.477	124.93
395.686	86.01
395.895	233.47
396.105	180.22
396.314	30.72
396.524	-45.06
396.733	71.68
396.942	133.12
397.152	100.35
397.361	131.07
397.57	116.73
397.78	53.25
397.989	151.55
398.198	227.32
398.407	126.97
398.617	14.34
398.826	51.2
399.035	77.82
399.244	143.36
399.453	12.29
399.663	67.58
399.872	108.54
400.081	-63.49
400.29	71.68
400.499	49.15
400.708	69.63
400.917	-8.19
401.127	-22.53
401.336	65.54
401.545	188.41
401.754	120.83
401.963	116.73
402.172	20.48
402.381	-57.34
402.59	-47.1
402.799	40.96
403.008	102.4
403.217	51.2
403.426	59.39
403.635	-40.96
403.844	-6.14
404.053	90.11
404.262	28.67
404.471	147.45
404.68	92.16
404.888	100.35
405.097	36.86
405.306	131.07
405.515	131.07
405.724	-40.96
405.933	129.02
406.142	49.15
406.35	139.26
406.559	28.67
406.768	30.72
406.977	180.22
407.185	69.63
407.394	36.86
407.603	-67.58
407.812	92.16
408.02	110.59
408.229	51.2
408.438	104.45
408.646	-81.92
408.855	-12.29
409.064	24.58
409.272	-32.77
409.481	10.24
409.69	14.34
409.898	14.34
410.107	24.58
410.315	190.46
410.524	26.62
410.733	102.4
410.941	49.15
411.15	57.34
411.358	88.06
411.567	210.94
411.775	10.24
411.984	110.59
412.192	155.65
412.401	118.78
412.609	122.88
412.818	94.21
413.026	-4.1
413.234	-32.77
413.443	14.34
413.651	38.91
413.86	43.01
414.068	169.98
414.276	163.84
414.485	16.38
414.693	145.41
414.901	135.17
415.11	96.25
415.318	20.48
415.526	110.59
415.734	120.83
415.943	122.88
416.151	165.89
416.359	81.92
416.567	-6.14
416.776	96.25
416.984	131.07
417.192	176.13
417.4	26.62
417.608	71.68
417.817	-34.82
418.025	137.21
418.233	180.22
418.441	26.62
418.649	14.34
418.857	131.07
419.065	208.89
419.273	47.1
419.481	129.02
419.689	67.58
419.897	4.1
420.105	-47.1
420.313	122.88
420.521	165.89
420.729	147.45
420.937	14.34
421.145	-14.34
421.353	116.73
421.561	221.18
421.769	106.49
421.977	-6.14
422.185	110.59
422.393	8.19
422.601	159.74
422.809	47.1
423.017	12.29
423.224	77.82
423.432	106.49
423.64	32.77
423.848	129.02
424.056	51.2
424.263	131.07
424.471	75.77
424.679	149.5
424.887	-2.05
425.094	178.17
425.302	124.93
425.51	34.82
425.718	124.93
425.925	36.86
426.133	26.62
426.341	190.46
426.548	24.58
426.756	32.77
426.964	165.89
427.171	32.77
427.379	90.11
427.586	114.69
427.794	178.17
428.001	135.17
428.209	180.22
428.417	212.99
428.624	174.08
428.832	75.77
429.039	26.62
429.247	100.35
429.454	172.03
429.662	212.99
429.869	178.17
430.076	100.35
430.284	120.83
430.491	169.98
430.699	194.56
430.906	229.37
431.114	239.61
431.321	198.65
431.528	104.45
431.736	198.65
431.943	94.21
432.15	135.17
432.358	243.71
432.565	278.52
432.772	65.54
432.979	215.04
433.187	81.92
433.394	182.27
433.601	57.34
433.808	163.84
434.016	247.8
434.223	260.09
434.43	237.56
434.637	317.44
434.844	270.33
435.052	264.19
435.259	309.24
435.466	382.97
435.673	161.79
435.88	307.2
436.087	382.97
436.294	479.22
436.501	292.86
436.708	331.77
436.915	256
437.122	366.59
437.329	348.15
437.537	360.44
437.743	278.52
437.95	421.88
438.157	350.2
438.364	346.11
438.571	376.83
438.778	395.26
438.985	493.56
439.192	473.08
439.399	380.92
439.606	481.27
439.813	518.14
440.02	579.58
440.227	692.21
440.433	524.28
440.64	563.19
440.847	421.88
441.054	575.48
441.261	724.98
441.467	561.14
441.674	585.72
441.881	747.51
442.088	579.58
442.294	686.07
442.501	804.85
442.708	778.23
442.914	712.69
443.121	770.04
443.328	821.24
443.534	974.83
443.741	892.91
443.948	823.28
444.154	929.78
444.361	1099.76
444.568	1003.5
444.774	1056.75
444.981	1023.98
445.187	1116.14
445.394	1114.1
445.6	1146.86
445.807	1347.56
446.013	1189.87
446.22	1114.1
446.426	1357.8
446.633	1437.67
446.839	1601.51
447.046	1316.84
447.252	1542.12
447.459	1581.03
447.665	1568.74
447.871	1779.68
448.078	1849.32
448.284	1789.92
448.491	1957.86
448.697	2002.91
448.903	2093.02
449.11	2179.04
449.316	2090.98
449.522	2451.42
449.728	2398.17
449.935	2357.21
450.141	2506.71
450.347	2594.78
450.553	2619.35
450.76	2830.29
450.966	2893.78
451.172	2949.08
451.378	3121.1
451.584	3082.19
451.791	3389.39
451.997	3381.2
452.203	3438.54
452.409	3760.07
452.615	3874.76
452.821	3727.3
453.027	3805.13
453.233	4337.6
453.44	4132.8
453.646	4349.89
453.852	4526.01
454.058	4693.94
454.264	4876.21
454.47	5248.94
454.676	5095.35
454.882	5636.01
455.088	5535.66
455.294	5576.62
455.5	6047.65
455.705	6416.29
455.911	6420.38
456.117	6490.01
456.323	6784.92
456.529	6858.65
456.735	7430.03
456.941	7470.99
457.147	7899.02
457.352	8222.59
457.558	8298.37
457.764	8877.94
457.97	8910.71
458.176	9414.51
458.381	9875.31
458.587	9971.56
458.793	10588
458.999	10569.57
459.204	12044.1
459.41	12457.79
459.616	12093.26
459.821	12875.58
460.027	13442.87
460.233	13936.43
460.438	14008.11
460.644	15009.56
460.85	15130.39
461.055	15650.58
461.261	16682.75
461.466	16267.02
461.672	16215.82
461.878	18198.25
462.083	18106.09
462.289	18534.12
462.494	19062.49
462.7	19320.54
462.905	19711.7
463.111	21264.06
463.316	22470.31
463.522	22726.31
463.727	23211.68
463.932	24325.77
464.138	25060.99
464.343	25958
464.549	26095.22
464.754	28167.76
464.959	28847.69
465.165	29220.42
465.37	29066.82
465.575	28931.65
465.781	31217.19
465.986	32069.14
466.191	31512.1
466.397	32149.01
466.602	31036.97
466.807	33060.36
467.012	33537.54
467.218	34063.86
467.423	34366.96
467.628	35358.18
467.833	36808.14
468.038	36330.97
468.244	35565.03
468.449	37101
468.654	36683.22
468.859	36378.07
469.064	36873.68
469.269	35782.11
469.474	35943.9
469.679	36730.32
469.885	36263.38
470.09	36529.62
470.295	37172.68
470.5	35583.46
470.705	36191.7
470.91	35239.4
471.115	34815.47
471.32	35395.04
471.525	35030.51
471.73	34362.87
471.935	34176.5
472.139	32585.23
472.344	32835.08
472.549	32820.75
472.754	31766.04
472.959	31145.51
473.164	30522.93
473.369	30066.23
473.574	30547.5
473.778	30039.61
473.983	29533.76
474.188	29367.87
474.393	27571.8
474.598	27369.05
474.802	27338.33
475.007	26633.83
475.212	26328.69
475.417	25405.05
475.621	25007.75
475.826	25087.62
476.031	24055.44
476.235	23692.95
476.44	23946.9
476.645	23088.8
476.849	22738.6
477.054	22744.74
477.259	22005.42
477.463	22120.11
477.668	21421.75
477.872	21542.58
478.077	20950.72
478.282	19990.22
478.486	19693.27
478.691	19672.79
478.895	19564.25
479.1	19570.39
479.304	19590.87
479.509	18570.98
479.713	19068.64
479.918	18634.47
480.122	18314.98
480.326	18122.48
480.531	18108.14
480.735	17886.96
480.94	17719.03
481.144	18218.73
481.348	17405.69
481.553	17383.16
481.757	16922.37
481.961	16877.31
482.166	17239.8
482.37	17239.8
482.574	16389.89
482.778	16670.47
482.983	16977.66
483.187	16430.85
483.391	16477.96
483.595	16068.36
483.8	15841.04
484.004	15691.54
484.208	15769.36
484.412	15742.74
484.616	15730.45
484.821	15482.64
485.025	14927.64
485.229	15052.57
485.433	14726.94
485.637	14620.45
485.841	14255.91
486.045	14288.68
486.249	14147.37
486.453	13614.9
486.657	13823.79
486.861	13586.22
487.065	12992.31
487.269	13004.6
487.473	12433.22
487.677	12646.21
487.881	12697.41
488.085	11947.85
488.289	11900.75
488.493	11810.64
488.697	11890.51
488.901	11581.26
489.105	11288.4
489.309	10940.25
489.512	11138.9
489.716	10659.68
489.92	10352.48
490.124	10327.91
490.328	10221.41
490.531	9938.79
490.735	9942.89
490.939	9752.43
491.143	9516.91
491.346	9172.85
491.55	9189.24
491.754	9054.07
491.958	8996.73
492.161	8802.17
492.365	8568.7
492.569	8402.82
492.772	8236.93
492.976	8228.74
493.18	8099.72
493.383	8048.52
493.587	7813
493.79	7894.92
493.994	7503.76
494.197	7659.4
494.401	7741.32
494.605	7407.5
494.808	7622.54
495.012	7309.2
495.215	7260.05
495.419	7503.76
495.622	7290.77
495.825	7317.39
496.029	7057.3
496.232	7053.2
496.436	7024.53
496.639	7159.7
496.843	6889.37
497.046	7088.02
497.249	7292.82
497.453	7032.72
497.656	7024.53
497.859	6905.75
498.063	7034.77
498.266	7098.26
498.469	6940.57
498.673	6950.81
498.876	7143.32
499.079	7206.8
499.282	7077.78
499.485	7507.85
499.689	7298.96
499.892	7292.82
500.095	7128.98
500.298	7356.3
500.501	7329.68
500.705	7296.91
500.908	7391.12
501.111	7616.4
501.314	7643.02
501.517	7661.45
501.72	7767.95
501.923	7651.21
502.126	7901.06
502.329	8066.95
502.532	8034.18
502.735	8208.26
502.938	8347.52
503.141	8398.72
503.344	8353.66
503.547	8613.76
503.75	8505.21
503.953	8675.2
504.156	8824.7
504.359	8904.57
504.562	8980.34
504.765	9240.43
504.968	9209.72
505.17	9387.89
505.373	9500.53
505.576	9977.7
505.779	9955.18
505.982	9987.94
506.185	10309.47
506.387	10325.86
506.59	10592.09
506.793	10768.22
506.996	10667.87
507.198	11050.84
507.401	11116.37
507.604	11706.19
507.807	11755.34
508.009	12103.5
508.212	12228.42
508.415	12523.33
508.617	12584.77
508.82	12943.16
509.022	13072.18
509.225	13418.29
509.428	13971.24
509.63	13918
509.833	14096.17
510.035	14972.7
510.238	14724.9
510.44	15009.56
510.643	15367.96
510.845	16051.98
511.048	16207.62
511.25	16414.47
511.453	16596.74
511.655	17565.43
511.858	17534.71
512.06	18061.04
512.262	18513.64
512.465	18616.04
512.667	18980.57
512.87	19627.73
513.072	19918.54
513.274	20395.72
513.477	20940.48
513.679	21262.01
513.881	21642.93
514.084	22507.18
514.286	22967.97
514.488	23488.15
514.69	24012.43
514.893	24569.48
515.095	24772.23
515.297	25484.92
515.499	26048.11
515.701	26496.62
515.904	27299.42
516.106	27891.29
516.308	27795.03
516.51	28792.39
516.712	29083.2
516.914	29847.1
517.116	30307.89
517.318	30514.73
517.52	31329.83
517.722	31663.64
517.925	32527.89
518.127	33748.48
518.329	34014.71
518.531	33486.34
518.733	34655.73
518.935	35091.94
519.136	36029.91
519.338	36507.09
519.54	37359.05
519.742	37813.69
519.944	38157.75
520.146	38811.06
520.348	39536.04
520.55	39789.98
520.752	40213.91
520.954	40793.49
521.155	40822.16
521.357	41940.35
521.559	42020.22
521.761	43457.9
521.963	42927.47
522.164	43668.84
522.366	43775.33
522.568	44397.91
522.77	44328.28
522.971	45344.08
523.173	44997.97
523.375	45808.96
523.576	45184.33
523.778	45540.68
523.98	46132.54
524.181	46368.06
524.383	46511.42
524.584	47033.65
524.786	47134
524.988	47074.61
525.189	47322.41
525.391	47355.18
525.592	47605.03
525.794	47836.45
525.995	47410.48
526.197	47390
526.398	47109.43
526.6	46648.63
526.801	47236.4
527.003	47246.64
527.204	47082.8
527.406	47301.93
527.607	46716.22
527.808	46597.43
528.01	45522.25
528.211	45790.53
528.412	46204.22
528.614	45614.41
528.815	45397.32
529.016	45469
529.218	44690.77
529.419	44500.31
529.62	44209.5
529.822	43511.14
530.023	42931.57
530.224	42804.59
530.425	42534.26
530.626	41670.02
530.828	41213.32
531.029	41534.85
531.23	40478.1
531.431	40517.01
531.632	39949.73
531.833	39605.67
532.035	39533.99
532.236	38628.79
532.437	38329.78
532.638	37297.61
532.839	37287.37
533.04	37101
533.241	36269.53
533.442	36181.46
533.643	35548.64
533.844	35177.96
534.045	34604.53
534.246	33943.03
534.447	33940.99
534.648	33400.32
534.849	32933.39
535.05	32564.75
535.251	32069.14
535.451	31335.97
535.652	31000.1
535.853	30869.03
536.054	30557.74
536.255	30017.08
536.456	29521.47
536.657	29599.29
536.857	28804.68
537.058	28190.29
537.259	28292.69
537.46	27932.25
537.66	27164.26
537.861	27068
538.062	26799.72
538.263	26312.3
538.463	25810.55
538.664	25656.95
538.865	25499.26
539.065	25159.3
539.266	24917.64
539.466	24661.64
539.667	23695
539.868	24004.24
540.068	23395.99
540.269	23127.71
540.469	22892.19
540.67	22810.28
540.87	22666.92
541.071	21966.51
541.271	22228.65
541.472	22015.66
541.672	21274.3
541.873	21186.24
542.073	20729.54
542.274	21096.13
542.474	20700.87
542.675	20215.5
542.875	19887.82
543.075	19943.12
543.276	19502.81
543.476	19615.44
543.676	18865.89
543.877	19015.39
544.077	18869.98
544.277	18521.83
544.478	18419.43
544.678	18497.25
544.878	17807.09
545.078	17757.94
545.279	17592.05
545.479	17112.83
545.679	17133.31
545.879	16957.18
546.079	16965.37
546.28	16531.2
546.48	16336.65
546.68	16168.71
546.88	16258.82
547.08	16109.32
547.28	15589.14
547.48	15523.6
547.68	15263.51
547.88	15019.8
548.081	14954.27
548.281	14583.59
548.481	14499.62
548.681	14747.42
548.881	14192.42
549.081	13999.91
549.28	13434.67
549.48	13805.36
549.68	13336.37
549.88	13446.96
550.08	12994.36
550.28	12990.27
550.48	12836.67
550.68	12650.3
550.88	12269.38
551.08	12261.19
551.279	12291.91
551.479	11761.48
551.679	11800.4
551.879	11478.86
552.079	11360.08
552.278	11329.36
552.478	11067.22
552.678	10993.5
552.878	10706.78
553.077	10538.85
553.277	10377.06
553.477	10360.67
553.676	10217.32
553.876	10080.1
554.076	9774.95
554.275	9478
554.475	9299.83
554.674	9512.81
554.874	9262.96
555.074	9090.93
555.273	8980.34
555.473	8839.03
555.672	8630.14
555.872	8572.8
556.071	8505.21
556.271	8443.78
556.47	8222.59
556.67	7876.49
556.869	7735.18
557.068	7769.99
557.268	7569.29
557.467	7577.48
557.667	7509.9
557.866	7309.2
558.065	7245.71
558.265	7008.15
558.464	7004.05
558.663	6860.7
558.863	6555.55
559.062	6819.74
559.261	6469.53
559.461	6381.47
559.66	6135.71
559.859	6283.17
560.058	5988.26
560.258	5894.05
560.457	5787.56
560.656	5658.54
560.855	5783.46
561.054	5760.94
561.253	5541.8
561.453	5576.62
561.652	5341.1
561.851	5339.05
562.05	4974.52
562.249	5128.11
562.448	5095.35
562.647	4966.32
562.846	4870.07
563.045	4849.59
563.244	4777.91
563.443	4693.94
563.642	4521.92
563.841	4573.11
564.04	4532.15
564.239	4468.67
564.438	4345.79
564.637	4257.73
564.836	4272.06
565.035	3989.44
565.234	4097.99
565.432	4046.79
565.631	4081.6
565.83	3981.25
566.029	3766.21
566.228	3782.6
566.427	3952.58
566.625	3579.85
566.824	3618.76
567.023	3598.28
567.222	3590.09
567.42	3502.03
567.619	3444.68
567.818	3407.82
568.016	3577.8
568.215	3309.52
568.414	3379.15
568.612	3229.65
568.811	3135.44
569.01	3178.45
569.208	3198.93
569.407	3041.23
569.605	2996.18
569.804	2965.46
570.002	2885.59
570.201	2766.81
570.4	2867.16
570.598	2643.93
570.797	2645.98
570.995	2623.45
571.193	2637.78
571.392	2586.58
571.59	2457.56
571.789	2527.19
571.987	2523.1
572.186	2738.13
572.384	2576.34
572.582	2381.79
572.781	2299.87
572.979	2267.1
573.177	2281.44
573.376	2213.85
573.574	2301.92
573.772	2209.76
573.971	1961.95
574.169	2127.84
574.367	2058.21
574.565	2101.22
574.763	1933.28
574.962	1918.95
575.16	2027.49
575.358	1800.16
575.556	1822.69
575.754	1871.84
575.952	1726.44
576.151	1877.99
576.349	1849.32
576.547	1566.7
576.745	1724.39
576.943	1787.88
577.141	1540.07
577.339	1529.83
577.537	1710.05
577.735	1697.77
577.933	1505.26
578.131	1568.74
578.329	1585.13
578.527	1478.63
578.725	1603.56
578.923	1427.43
579.121	1400.81
579.319	1411.05
579.516	1310.7
579.714	1603.56
579.912	1384.43
580.11	1134.57
580.308	1333.23
580.506	1282.03
580.704	1214.45
580.901	1345.52
581.099	1384.43
581.297	1177.58
581.495	1310.7
581.692	1196.01
581.89	1296.36
582.088	1163.25
582.285	1218.54
582.483	1083.38
582.681	1093.62
582.878	1042.42
583.076	1083.38
583.274	1087.47
583.471	1161.2
583.669	995.31
583.866	946.16
584.064	948.21
584.262	991.22
584.459	946.16
584.657	931.83
584.854	915.44
585.052	940.02
585.249	993.26
585.447	876.53
585.644	753.65
585.841	991.22
586.039	958.45
586.236	1021.94
586.434	782.32
586.631	843.76
586.828	729.08
587.026	786.42
587.223	667.64
587.42	739.32
587.618	831.48
587.815	847.86
588.012	761.84
588.21	776.18
588.407	843.76
588.604	733.17
588.801	600.05
588.999	724.98
589.196	784.37
589.393	557.05
589.59	724.98
589.787	700.41
589.984	684.02
590.182	661.49
590.379	565.24
590.576	647.16
590.773	702.45
590.97	724.98
591.167	661.49
591.364	589.82
591.561	645.11
591.758	847.86
591.955	704.5
592.152	581.62
592.349	669.69
592.546	638.97
592.743	520.18
592.94	645.11
593.137	712.69
593.334	714.74
593.531	823.28
593.727	686.07
593.924	681.97
594.121	614.39
594.318	604.15
594.515	702.45
594.712	819.19
594.908	774.13
595.105	516.09
595.302	696.31
595.499	724.98
595.696	767.99
595.892	692.21
596.089	854
596.286	747.51
596.482	843.76
596.679	788.47
596.876	802.8
597.072	921.59
597.269	811
597.466	921.59
597.662	767.99
597.859	845.81
598.055	954.35
598.252	964.59
598.448	942.07
598.645	1036.27
598.841	1044.46
599.038	1218.54
599.234	1335.28
599.431	1189.87
599.627	1271.79
599.824	1380.33
600.02	1273.84
600.217	1366
600.413	1392.62
600.609	1382.38
600.806	1791.97
601.002	1466.35
601.198	1495.02
601.395	1839.08
601.591	1828.84
601.787	1785.83
601.984	1908.71
602.18	2004.96
602.376	1972.19
602.572	2066.4
602.769	2220
602.965	2250.72
603.161	2299.87
603.357	2451.42
603.553	2570.2
603.75	2607.06
603.946	2660.31
604.142	2805.72
604.338	2947.03
604.534	2906.07
604.73	2975.7
604.926	3166.16
605.122	3375.05
605.318	3291.09
605.514	3588.04
605.71	3612.62
605.906	3672.01
606.102	3749.83
606.298	3874.76
606.494	3999.68
606.69	4194.24
606.886	4192.19
607.082	4218.82
607.278	4327.36
607.474	4546.49
607.67	4634.55
607.866	4700.09
608.062	5115.83
608.257	5134.26
608.453	5207.98
608.649	5478.32
608.845	5457.84
609.041	5674.92
609.236	5871.53
609.432	5951.4
609.628	6285.22
609.824	6485.92
610.019	6440.86
610.215	6614.94
610.411	6899.61
610.606	7018.39
610.802	7202.71
610.998	7276.43
611.193	7559.05
611.389	7638.92
611.584	7894.92
611.78	8146.82
611.976	8241.03
612.171	8576.89
612.367	8755.07
612.562	9148.28
612.758	9262.96
612.953	9326.45
613.149	9680.75
613.344	9969.51
613.539	10397.54
613.735	10547.04
613.93	10843.99
614.126	10940.25
614.321	11390.8
614.517	11798.35
614.712	11953.99
614.907	12115.78
615.103	12582.72
615.298	12851
615.493	13274.93
615.688	13311.8
615.884	14055.21
616.079	13958.95
616.274	14464.8
616.47	14751.52
616.665	15251.22
616.86	15707.92
617.055	15894.29
617.25	16445.19
617.445	16924.41
617.641	17018.62
617.836	17620.72
618.031	17864.43
618.226	18659.04
618.421	18726.63
618.616	19637.97
618.811	19812.05
619.006	20412.1
619.201	20444.87
619.396	21018.3
619.591	21251.77
619.786	22222.51
619.981	22388.39
620.176	23133.85
620.371	23389.85
620.566	23824.02
620.761	24231.57
620.956	25052.8
621.151	25360
621.346	26052.21
621.541	25892.47
621.735	26998.37
621.93	27264.61
622.125	28046.93
622.32	27840.09
622.515	28984.9
622.709	29298.24
622.904	29969.97
623.099	30311.99
623.294	31024.68
623.488	31346.21
623.683	31968.79
623.878	32001.56
624.072	33154.57
624.267	33517.06
624.462	33930.75
624.656	34022.9
624.851	34819.56
625.046	35114.47
625.24	36019.67
625.435	36445.65
625.629	36935.12
625.824	37119.43
626.018	37377.48
626.213	37313.99
626.407	38579.64
626.602	38555.06
626.796	39443.88
626.991	39464.36
627.185	39912.86
627.38	40103.32
627.574	40418.71
627.768	40406.42
627.963	40709.52
628.157	40955.28
628.352	41356.68
628.546	40998.29
628.74	41543.05
628.935	41381.26
629.129	41643.4
629.323	40719.76
629.517	40617.36
629.712	40687
629.906	40379.8
630.1	39597.48
630.294	39701.92
630.489	38864.3
630.683	38679.99
630.877	37959.1
631.071	37217.74
631.265	36888.01
631.459	36097.5
631.653	35157.48
631.848	34584.05
632.042	34014.71
632.236	33353.22
632.43	31929.88
632.624	31737.37
632.818	30504.49
633.012	29634.11
633.206	28534.35
633.4	27913.81
633.594	26859.11
633.788	25876.09
633.982	25011.84
634.176	24376.97
634.369	23242.4
634.563	22515.37
634.757	21632.69
634.951	20891.33
635.145	20139.72
635.339	19486.42
635.533	18390.76
635.726	17706.74
635.92	16955.13
636.114	16340.74
636.308	15533.84
636.501	15159.06
636.695	14782.24
636.889	13778.73
637.083	13336.37
637.276	12879.68
637.47	12343.11
637.664	11824.97
637.857	11229.01
638.051	10821.47
638.244	10387.3
638.438	9912.17
638.632	9881.45
638.825	8951.67
639.019	9031.54
639.212	8466.3
639.406	8195.97
639.599	7823.24
639.793	7518.09
639.986	7131.03
640.18	6793.11
640.373	6619.03
640.567	6481.82
640.76	6209.44
640.954	5830.57
641.147	5750.7
641.34	5523.37
641.534	5226.42
641.727	5212.08
641.92	4880.31
642.114	4884.41
642.307	4691.9
642.5	4566.97
642.694	4136.9
642.887	3901.38
643.08	4052.93
643.273	3786.69
643.467	3545.03
643.66	3516.36
643.853	3395.53
644.046	3205.07
644.239	3209.17
644.432	2838.48
644.626	2785.24
644.819	2744.28
645.012	2650.07
645.205	2600.92
645.398	2543.58
645.591	2381.79
645.784	2236.38
645.977	1964
646.17	2146.27
646.363	2000.87
646.556	1777.64
646.749	1773.54
646.942	1824.74
647.135	1753.06
647.328	1728.49
647.521	1535.98
647.714	1554.41
647.907	1560.55
648.099	1423.34
648.292	1384.43
648.485	1417.19
648.678	1374.19
648.871	1224.69
649.064	1189.87
649.256	1130.48
649.449	999.41
649.642	913.39
649.835	1023.98
650.027	958.45
650.22	1071.09
650.413	972.79
650.605	954.35
650.798	892.91
650.991	823.28
651.183	813.04
651.376	866.29
651.568	841.72
651.761	690.17
651.954	780.28
652.146	737.27
652.339	702.45
652.531	667.64
652.724	612.34
652.916	583.67
653.109	477.18
653.301	534.52
653.494	593.91
653.686	583.67
653.879	641.01
654.071	559.1
654.263	442.36
654.456	374.78
654.648	616.44
654.84	526.33
655.033	460.79
655.225	503.8
655.417	407.55
655.61	538.62
655.802	475.13
655.994	561.14
656.186	301.05
656.379	415.74
656.571	268.28
656.763	378.87
656.955	290.81
657.148	317.44
657.34	370.68
657.532	264.19
657.724	276.48
657.916	350.2
658.108	325.63
658.3	313.34
658.492	339.96
658.684	223.23
658.876	276.48
659.068	266.24
659.26	243.71
659.452	229.37
659.644	247.8
659.836	407.55
660.028	210.94
660.22	227.32
660.412	243.71
660.604	278.52
660.796	243.71
660.988	307.2
661.18	303.1
661.372	198.65
661.563	172.03
661.755	290.81
661.947	69.63
662.139	235.52
662.331	190.46
662.522	217.08
662.714	114.69
662.906	155.65
663.097	161.79
663.289	206.84
663.481	114.69
663.673	227.32
663.864	163.84
664.056	206.84
664.247	110.59
664.439	223.23
664.631	198.65
664.822	192.51
665.014	133.12
665.205	137.21
665.397	172.03
665.588	178.17
665.78	143.36
665.971	278.52
666.163	129.02
666.354	239.61
666.546	135.17
666.737	172.03
666.929	120.83
667.12	98.3
667.311	194.56
667.503	188.41
667.694	182.27
667.885	247.8
668.077	251.9
668.268	-4.1
668.459	219.13
668.651	182.27
668.842	176.13
669.033	32.77
669.224	118.78
669.416	247.8
669.607	67.58
669.798	32.77
669.989	258.04
670.18	51.2
670.371	186.37
670.563	98.3
670.754	221.18
670.945	163.84
671.136	204.8
671.327	147.45
671.518	161.79
671.709	325.63
671.9	186.37
672.091	182.27
672.282	151.55
672.473	190.46
672.664	75.77
672.855	202.75
673.046	161.79
673.237	145.41
673.428	210.94
673.619	155.65
673.809	155.65
674	217.08
674.191	172.03
674.382	196.61
674.573	151.55
674.764	100.35
674.954	280.57
675.145	116.73
675.336	83.97
675.527	38.91
675.717	100.35
675.908	106.49
676.099	81.92
676.289	176.13
676.48	61.44
676.671	53.25
676.861	188.41
677.052	206.84
677.243	155.65
677.433	137.21
677.624	182.27
677.814	139.26
678.005	83.97
678.195	284.67
678.386	157.69
678.576	131.07
678.767	63.49
678.957	106.49
679.148	188.41
679.338	256
679.529	243.71
679.719	200.7
679.909	208.89
680.1	235.52
680.29	229.37
680.481	71.68
680.671	266.24
680.861	251.9
681.052	219.13
681.242	122.88
681.432	276.48
681.622	225.28
681.813	71.68
682.003	219.13
682.193	153.6
682.383	172.03
682.573	194.56
682.764	210.94
682.954	182.27
683.144	247.8
683.334	153.6
683.524	167.93
683.714	210.94
683.904	198.65
684.094	210.94
684.284	198.65
684.474	317.44
684.664	192.51
684.854	223.23
685.044	217.08
685.234	202.75
685.424	225.28
685.614	194.56
685.804	294.91
685.994	278.52
686.184	139.26
686.374	262.14
686.564	147.45
686.753	192.51
686.943	149.5
687.133	182.27
687.323	176.13
687.513	233.47
687.702	196.61
687.892	210.94
688.082	241.66
688.272	280.57
688.461	204.8
688.651	342.01
688.841	176.13
689.03	133.12
689.22	165.89
689.41	274.43
689.599	221.18
689.789	163.84
689.979	278.52
690.168	145.41
690.358	251.9
690.547	225.28
690.737	204.8
690.926	161.79
691.116	272.38
691.305	239.61
691.495	311.29
691.684	96.25
691.874	131.07
692.063	145.41
692.252	299
692.442	311.29
692.631	212.99
692.82	176.13
693.01	116.73
693.199	147.45
693.388	243.71
693.578	208.89
693.767	237.56
693.956	241.66
694.146	180.22
694.335	264.19
694.524	153.6
694.713	225.28
694.902	176.13
695.092	100.35
695.281	153.6
695.47	219.13
695.659	210.94
695.848	188.41
696.037	167.93
696.226	227.32
696.415	305.15
696.604	284.67
696.793	270.33
696.982	116.73
697.171	305.15
697.36	159.74
697.549	165.89
697.738	34.82
697.927	178.17
698.116	114.69
698.305	219.13
698.494	196.61
698.683	102.4
698.872	284.67
699.061	204.8
699.25	204.8
699.438	155.65
699.627	176.13
699.816	313.34
700.005	114.69
700.193	131.07
700.382	272.38
700.571	198.65
700.76	133.12
700.948	204.8
701.137	247.8
701.326	178.17
701.514	190.46
701.703	145.41
701.892	141.31
702.08	352.25
702.269	131.07
702.457	108.54
702.646	198.65
702.834	153.6
703.023	147.45
703.212	282.62
703.4	215.04
703.589	131.07
703.777	169.98
703.965	184.32
704.154	102.4
704.342	96.25
704.531	98.3
704.719	206.84
704.907	331.77
705.096	77.82
705.284	174.08
705.472	120.83
705.661	126.97
705.849	186.37
706.037	292.86
706.226	116.73
706.414	249.85
706.602	149.5
706.79	274.43
706.979	186.37
707.167	165.89
707.355	100.35
707.543	249.85
707.731	184.32
707.919	200.7
708.107	165.89
708.296	151.55
708.484	192.51
708.672	151.55
708.86	186.37
709.048	188.41
709.236	102.4
709.424	286.72
709.612	243.71
709.8	131.07
709.988	188.41
710.176	247.8
710.364	284.67
710.551	110.59
710.739	174.08
710.927	122.88
711.115	176.13
711.303	237.56
711.491	294.91
711.679	186.37
711.866	231.42
712.054	196.61
712.242	196.61
712.43	249.85
712.617	108.54
712.805	188.41
712.993	104.45
713.181	131.07
713.368	288.76
713.556	182.27
713.744	122.88
713.931	421.88
714.119	235.52
714.306	143.36
714.494	186.37
714.682	223.23
714.869	71.68
715.057	96.25
715.244	151.55
715.432	200.7
715.619	143.36
715.807	147.45
715.994	135.17
716.182	215.04
716.369	280.57
716.556	223.23
716.744	129.02
716.931	102.4
717.119	219.13
717.306	217.08
717.493	249.85
717.681	112.64
717.868	157.69
718.055	194.56
718.242	200.7
718.43	137.21
718.617	235.52
718.804	200.7
718.991	253.95
719.179	186.37
719.366	274.43
719.553	174.08
719.74	174.08
719.927	143.36
720.114	237.56
720.301	159.74
720.488	88.06
720.676	184.32
720.863	342.01
721.05	292.86
721.237	219.13
721.424	251.9
721.611	245.76
721.798	133.12
721.985	131.07
722.172	167.93
722.358	256
722.545	264.19
722.732	231.42
722.919	319.48
723.106	225.28
723.293	258.04
723.48	188.41
723.667	190.46
723.853	253.95
724.04	192.51
724.227	323.58
724.414	194.56
724.6	126.97
724.787	438.27
724.974	294.91
725.161	227.32
725.347	116.73
725.534	229.37
725.72	233.47
725.907	251.9
726.094	284.67
726.28	200.7
726.467	169.98
726.653	198.65
726.84	368.63
727.027	309.24
727.213	204.8
727.4	305.15
727.586	292.86
727.773	198.65
727.959	198.65
728.145	215.04
728.332	256
728.518	163.84
728.705	225.28
728.891	204.8
729.077	192.51
729.264	231.42
729.45	190.46
729.636	260.09
729.823	249.85
730.009	344.06
730.195	221.18
730.382	272.38
730.568	169.98
730.754	301.05
730.94	208.89
731.126	243.71
731.313	280.57
731.499	290.81
731.685	366.59
731.871	208.89
732.057	245.76
732.243	264.19
732.429	219.13
732.615	342.01
732.801	264.19
732.987	114.69
733.173	258.04
733.359	124.93
733.545	210.94
733.731	270.33
733.917	317.44
734.103	256
734.289	223.23
734.475	231.42
734.661	382.97
734.847	299
735.033	253.95
735.219	393.21
735.404	258.04
735.59	221.18
735.776	157.69
735.962	299
736.148	337.91
736.333	317.44
736.519	282.62
736.705	292.86
736.89	292.86
737.076	249.85
737.262	126.97
737.447	223.23
737.633	231.42
737.819	296.96
738.004	239.61
738.19	194.56
738.375	344.06
738.561	339.96
738.747	202.75
738.932	88.06
739.118	282.62
739.303	313.34
739.489	354.3
739.674	167.93
739.859	235.52
740.045	215.04
740.23	272.38
740.416	98.3
740.601	262.14
740.786	196.61
740.972	192.51
741.157	206.84
741.342	104.45
741.528	131.07
741.713	319.48
741.898	237.56
742.084	225.28
742.269	229.37
742.454	204.8
742.639	272.38
742.824	200.7
743.01	315.39
743.195	395.26
743.38	225.28
743.565	225.28
743.75	163.84
743.935	272.38
744.12	370.68
744.305	151.55
744.49	192.51
744.675	235.52
744.86	155.65
745.045	208.89
745.23	274.43
745.415	223.23
745.6	368.63
745.785	258.04
745.97	151.55
746.155	206.84
746.34	272.38
746.525	196.61
746.71	264.19
746.895	114.69
747.079	176.13
747.264	137.21
747.449	251.9
747.634	296.96
747.819	161.79
748.003	192.51
748.188	124.93
748.373	315.39
748.557	196.61
748.742	249.85
748.927	184.32
749.111	200.7
749.296	241.66
749.481	319.48
749.665	208.89
749.85	212.99
750.034	227.32
750.219	235.52
750.404	194.56
750.588	233.47
750.773	104.45
750.957	110.59
751.141	200.7
751.326	229.37
751.51	81.92
751.695	206.84
751.879	176.13
752.064	323.58
752.248	174.08
752.432	270.33
752.617	210.94
752.801	251.9
752.985	198.65
753.17	194.56
753.354	139.26
753.538	104.45
753.722	143.36
753.907	116.73
754.091	75.77
754.275	217.08
754.459	57.34
754.643	108.54
754.828	225.28
755.012	196.61
755.196	122.88
755.38	163.84
755.564	147.45
755.748	210.94
755.932	137.21
756.116	114.69
756.3	178.17
756.484	153.6
756.668	126.97
756.852	112.64
757.036	75.77
757.22	208.89
757.404	155.65
757.588	18.43
757.772	256
757.956	86.01
758.14	346.11
758.323	108.54
758.507	141.31
758.691	114.69
758.875	178.17
759.059	200.7
759.242	180.22
759.426	153.6
759.61	202.75
759.794	98.3
759.977	186.37
760.161	358.39
760.345	198.65
760.528	296.96
760.712	129.02
760.895	122.88
761.079	45.06
761.263	0
761.446	92.16
761.63	122.88
761.813	245.76
761.997	12.29
762.18	137.21
762.364	129.02
762.547	-20.48
762.731	4.1
762.914	126.97
763.098	129.02
763.281	126.97
763.464	24.58
763.648	94.21
763.831	139.26
764.015	83.97
764.198	206.84
764.381	88.06
764.564	98.3
764.748	167.93
764.931	79.87
765.114	73.73
765.297	120.83
765.481	16.38
765.664	178.17
765.847	14.34
766.03	161.79
766.213	59.39
766.397	131.07
766.58	32.77
766.763	90.11
766.946	63.49
767.129	43.01
767.312	40.96
767.495	122.88
767.678	55.3
767.861	129.02
768.044	133.12
768.227	32.77
768.41	88.06
768.593	88.06
768.776	114.69
768.959	47.1
769.142	159.74
769.324	96.25
769.507	61.44
769.69	129.02
769.873	112.64
770.056	249.85
770.239	90.11
770.421	194.56
770.604	116.73
770.787	116.73
770.97	86.01
771.152	6.14
771.335	126.97
771.518	-10.24
771.7	243.71
771.883	188.41
772.066	12.29
772.248	139.26
772.431	221.18
772.613	141.31
772.796	53.25
772.978	120.83
773.161	98.3
773.343	59.39
773.526	28.67
773.708	-2.05
773.891	24.58
774.073	122.88
774.256	69.63
774.438	202.75
774.621	24.58
774.803	59.39
774.985	-8.19
775.168	114.69
775.35	24.58
775.532	135.17
775.715	61.44
775.897	79.87
776.079	-6.14
776.261	92.16
776.444	55.3
776.626	8.19
776.808	36.86
776.99	-45.06
777.173	104.45
777.355	30.72
777.537	83.97
777.719	98.3
777.901	83.97
778.083	-12.29
778.265	-32.77
778.447	73.73
778.629	53.25
778.811	116.73
778.993	112.64
779.175	120.83
779.357	77.82
779.539	-45.06
779.721	83.97
779.903	28.67
780.085	-36.86
780.267	88.06
780.449	165.89
780.631	45.06
780.812	133.12
780.994	81.92
781.176	24.58
781.358	8.19
781.54	22.53
781.721	28.67
781.903	192.51
782.085	26.62
782.267	165.89
782.448	-53.25
782.63	-8.19
782.812	163.84
782.993	43.01
783.175	131.07
783.357	73.73
783.538	53.25
783.72	-4.1
783.901	-12.29
784.083	131.07
784.264	61.44
784.446	-90.11
784.627	12.29
784.809	86.01
784.99	30.72
785.172	77.82
785.353	0
785.535	57.34
785.716	47.1
785.897	-8.19
786.079	-30.72
786.26	55.3
786.441	63.49
786.623	65.54
786.804	2.05
786.985	40.96
787.167	118.78
787.348	67.58
787.529	22.53
787.71	161.79
787.891	43.01
788.073	26.62
788.254	-20.48
788.435	196.61
788.616	26.62
788.797	34.82
788.978	-2.05
789.159	0
789.34	51.2
789.522	30.72
789.703	24.58
789.884	20.48
790.065	-28.67
790.246	161.79
790.427	63.49
790.607	96.25
790.788	61.44
790.969	-43.01
791.15	30.72
791.331	26.62
791.512	90.11
791.693	-10.24
791.874	-4.1
792.054	219.13
792.235	118.78
792.416	14.34
792.597	4.1
792.778	112.64
792.958	94.21
793.139	14.34
793.32	8.19
793.5	-43.01
793.681	133.12
793.862	65.54
794.042	53.25
794.223	-20.48
794.404	-2.05
794.584	-77.82
794.765	43.01
794.945	-18.43
795.126	26.62
795.306	92.16
795.487	-59.39
795.667	4.1
795.848	26.62
796.028	12.29
796.209	6.14
796.389	124.93
796.57	24.58
796.75	-55.3
796.93	34.82
797.111	43.01
797.291	2.05
797.471	77.82
797.652	-32.77
797.832	-67.58
798.012	151.55
798.192	22.53
798.373	-102.4
798.553	45.06
798.733	57.34
798.913	22.53
799.093	-36.86
799.274	0
799.454	112.64
799.634	77.82
799.814	108.54
799.994	53.25
800.174	102.4
800.354	-4.1
800.534	-88.06
800.714	81.92
800.894	-139.26
801.074	-90.11
801.254	8.19
801.434	120.83
801.614	-40.96
801.794	-47.1
801.974	1449.96
802.154	-104.45
802.334	20.48
802.514	-40.96
802.693	4.1
802.873	-12.29
803.053	124.93
803.233	86.01
803.413	81.92
803.592	-8.19
803.772	-67.58
803.952	12.29
804.131	-92.16
804.311	102.4
804.491	53.25
804.67	-30.72
804.85	-71.68
805.03	-22.53
805.209	137.21
805.389	-47.1
805.568	24.58
805.748	-28.67
805.928	-30.72
806.107	2.05
806.287	-32.77
806.466	86.01
806.646	-51.2
806.825	10.24
807.004	-38.91
807.184	22.53
807.363	81.92
807.543	32.77
807.722	20.48
807.901	131.07
808.081	16.38
808.26	-118.78
808.439	12.29
808.619	-12.29
808.798	32.77
808.977	-24.58
809.156	65.54
809.336	4.1
809.515	147.45
809.694	-24.58
809.873	-65.53
810.052	26.62
810.231	88.06
810.411	36.86
810.59	-26.62
810.769	-20.48
810.948	65.54
811.127	-114.69
811.306	-45.06
811.485	4.1
811.664	110.59
811.843	-8.19
812.022	67.58
812.201	8.19
812.38	-67.58
812.559	22.53
812.737	-22.53
812.916	-69.63
813.095	-43.01
813.274	14.34
813.453	-8.19
813.632	75.77
813.811	34.82
813.989	-71.68
814.168	55.3
814.347	-71.68
814.526	22.53
814.704	141.31
814.883	86.01
815.062	-73.73
815.24	-57.34
815.419	-126.97
815.598	79.87
815.776	-34.82
815.955	20.48
816.133	-141.31
816.312	43.01
816.49	-79.87
816.669	24.58
816.847	-59.39
817.026	59.39
817.204	-38.91
817.383	-38.91
817.561	-32.77
817.74	38.91
817.918	34.82
818.097	-16.38
818.275	-49.15
818.453	112.64
818.632	139.26
818.81	-90.11
818.988	-6.14
819.167	-55.3
819.345	67.58
819.523	-40.96
819.701	26.62
819.879	57.34
820.058	94.21
820.236	75.77
820.414	2.05
820.592	-22.53
820.77	28.67
820.948	-40.96
821.127	-65.53
821.305	131.07
821.483	-67.58
821.661	38.91
821.839	2.05
822.017	-40.96
822.195	49.15
822.373	14.34
822.551	32.77
822.729	49.15
822.907	63.49
823.085	4.1
823.262	-8.19
823.44	-45.06
823.618	-40.96
823.796	47.1
823.974	-14.34
824.152	-16.38
824.329	24.58
824.507	141.31
824.685	-10.24
824.863	-40.96
825.04	-45.06
825.218	63.49
825.396	14.34
825.574	47.1
825.751	-18.43
825.929	8.19
826.107	-51.2
826.284	81.92
826.462	63.49
826.639	-6.14
826.817	-137.21
826.994	8.19
827.172	-61.44
827.349	129.02
827.527	104.45
827.704	49.15
827.882	79.87
828.059	8.19
828.237	-32.77
828.414	32.77
828.591	-135.17
828.769	32.77
828.946	-110.59
829.124	53.25
829.301	112.64
829.478	12.29
829.655	59.39
829.833	49.15
830.01	-112.64
830.187	6.14
830.364	10.24
830.542	26.62
830.719	81.92
830.896	45.06
831.073	43.01
831.25	40.96
831.427	20.48
831.604	-45.06
831.782	26.62
831.959	6.14
832.136	-2.05
832.313	63.49
832.49	10.24
832.667	57.34
832.844	-88.06
833.021	73.73
833.198	26.62
833.374	32.77
833.551	-2.05
833.728	-34.82
833.905	-12.29
834.082	-149.5
834.259	55.3
834.436	112.64
834.612	-73.73
834.789	10.24
834.966	8.19
835.143	51.2
835.319	-38.91
835.496	12.29
835.673	20.48
835.85	88.06
836.026	26.62
836.203	77.82
836.38	-43.01
836.556	-61.44
836.733	-79.87
836.909	192.51
837.086	-40.96
837.262	-28.67
837.439	-20.48
837.616	22.53
837.792	-38.91
837.968	63.49
838.145	-94.21
838.321	16.38
838.498	49.15
838.674	112.64
838.851	77.82
839.027	-16.38
839.203	-57.34
839.38	-32.77
839.556	20.48
839.732	104.45
839.909	-8.19
840.085	90.11
840.261	-67.58
840.437	10.24
840.614	8.19
840.79	98.3
840.966	26.62
841.142	36.86
841.318	8.19
841.494	100.35
841.671	57.34
841.847	-49.15
842.023	-28.67
842.199	55.3
842.375	59.39
842.551	-137.21
842.727	-83.97
842.903	118.78
843.079	-141.31
843.255	139.26
843.431	20.48
843.607	-40.96
843.783	-102.4
843.959	6.14
844.134	-16.38
844.31	67.58
844.486	-65.53
844.662	16.38
844.838	36.86
845.013	81.92
845.189	69.63
845.365	38.91
845.541	14.34
845.716	-49.15
845.892	57.34
846.068	-12.29
846.244	-57.34
846.419	133.12
846.595	28.67
846.77	-36.86
846.946	20.48
847.122	-106.49
847.297	-53.25
847.473	114.69
847.648	-65.53
847.824	73.73
847.999	-81.92
848.175	71.68
848.35	36.86
848.526	45.06
848.701	96.25
848.876	40.96
849.052	-18.43
849.227	-49.15
849.403	-45.06
849.578	-51.2
849.753	-53.25
849.929	12.29
850.104	-100.35
850.279	28.67
850.454	67.58
850.63	14.34
850.805	49.15
850.98	-4.1
851.155	-12.29
851.33	-22.53
851.505	-67.58
851.681	141.31
851.856	-38.91
852.031	-49.15
852.206	-12.29
852.381	-79.87
852.556	-16.38
852.731	98.3
852.906	18.43
853.081	43.01
853.256	129.02
853.431	6.14
853.606	-26.62
853.781	55.3
853.956	-77.82
854.131	-20.48
854.305	-47.1
854.48	-61.44
854.655	-49.15
854.83	-40.96
855.005	-34.82
855.18	79.87
855.354	-32.77
855.529	55.3
855.704	-40.96
855.879	57.34
856.053	-151.55
856.228	6.14
856.403	-114.69
856.577	32.77
856.752	-53.25
856.926	0
857.101	10.24
857.276	-57.34
857.45	-12.29
857.625	30.72
857.799	12.29
857.974	-24.58
858.148	-77.82
858.323	20.48
858.497	-2.05
858.672	-24.58
858.846	-10.24
859.02	40.96
859.195	-151.55
859.369	-32.77
859.543	-45.06
859.718	12.29
859.892	26.62
860.066	26.62
860.241	-75.77
860.415	-16.38
860.589	22.53
860.763	6.14
860.938	-53.25
861.112	-26.62
861.286	-16.38
861.46	2.05
861.634	-45.06
861.808	12.29
861.982	-100.35
862.157	-73.73
862.331	-112.64
862.505	-90.11
862.679	-67.58
862.853	8.19
863.027	51.2
863.201	157.69
863.375	-67.58
863.549	-14.34
863.722	-22.53
863.896	112.64
864.07	-83.97
864.244	-45.06
864.418	81.92
864.592	-18.43
864.766	-45.06
864.939	26.62
865.113	-45.06
865.287	32.77
865.461	-94.21
865.634	12.29
865.808	-55.3
865.982	-14.34
866.156	-149.5
866.329	-135.17
866.503	6.14
866.676	55.3
866.85	-45.06
867.024	-100.35
867.197	90.11
867.371	98.3
867.544	45.06
867.718	-96.25
867.891	71.68
868.065	-32.77
868.238	14.34
868.412	126.97
868.585	16.38
868.759	-45.06
868.932	-71.68
869.105	-73.73
869.279	-71.68
869.452	-114.69
869.625	43.01
869.799	73.73
869.972	-51.2
870.145	-43.01
870.319	71.68
870.492	-92.16
870.665	-38.91
870.838	-43.01
871.011	-92.16
871.185	-67.58
871.358	-45.06
871.531	-20.48
871.704	-32.77
871.877	67.58
872.05	-22.53
872.223	-100.35
872.396	75.77
872.569	51.2
872.742	-49.15
872.915	4.1
873.088	-143.36
873.261	-67.58
873.434	73.73
873.607	47.1
873.78	32.77
873.953	4.1
874.126	-45.06
874.299	-12.29
874.471	6.14
874.644	-18.43
874.817	12.29
874.99	120.83
875.163	-14.34
875.335	-2.05
875.508	-6.14
875.681	24.58
875.853	-14.34
876.026	-40.96
876.199	34.82
876.371	38.91
876.544	24.58
876.717	-73.73
876.889	-28.67
877.062	63.49
877.234	-18.43
877.407	-34.82
877.579	63.49
877.752	34.82
877.924	34.82
878.097	22.53
878.269	63.49
878.442	65.54
878.614	16.38
878.786	51.2
878.959	12.29
879.131	57.34
879.303	-159.74
879.476	-51.2
879.648	47.1
879.82	-6.14
879.993	-24.58
880.165	-18.43
880.337	-32.77
880.509	12.29
880.681	-104.45
880.854	-30.72
881.026	49.15
881.198	206.84
881.37	-6.14
881.542	-16.38
881.714	57.34
881.886	-51.2
882.058	-43.01
882.23	20.48
882.402	59.39
882.574	20.48
882.746	34.82
882.918	61.44
883.09	36.86
883.262	-20.48
883.434	-12.29
883.606	-77.82
883.778	-8.19
883.95	77.82
884.122	-16.38
884.293	88.06
884.465	40.96
884.637	32.77
884.809	-63.49
884.98	-22.53
885.152	59.39
885.324	30.72
885.496	-51.2
885.667	-51.2
885.839	18.43
886.011	40.96
886.182	63.49
886.354	129.02
886.525	-24.58
886.697	12.29
886.869	-67.58
887.04	-98.3
887.212	59.39
887.383	159.74
887.555	-24.58
887.726	-59.39
887.897	10.24
888.069	-2.05
888.24	79.87
888.412	-32.77
888.583	-10.24
888.754	-36.86
888.926	-96.25
889.097	-20.48
889.268	-71.68
889.44	20.48
889.611	-151.55
889.782	-163.84
889.953	-86.01
890.125	118.78
890.296	-90.11
890.467	-73.73
890.638	-57.34
890.809	34.82
890.98	-51.2
891.151	-40.96
891.323	77.82
891.494	16.38
891.665	-8.19
891.836	-30.72
892.007	47.1
892.178	8.19
892.349	-24.58
892.52	-83.97
892.691	8.19
892.862	-69.63
893.032	-137.21
893.203	4.1
893.374	32.77
893.545	81.92
893.716	-104.45
893.887	0
894.057	-75.77
894.228	67.58
894.399	-143.36
894.57	122.88
894.74	-6.14
894.911	-40.96
895.082	-59.39
895.253	-14.34
895.423	-45.06
895.594	73.73
895.764	24.58
895.935	-118.78
896.106	26.62
896.276	22.53
896.447	22.53
896.617	-69.63
896.788	-86.01
896.958	-16.38
897.129	-22.53
897.299	-45.06
897.47	57.34
897.64	73.73
897.81	-38.91
897.981	8.19
898.151	38.91
898.322	16.38
898.492	36.86
898.662	-77.82
898.832	-8.19
899.003	69.63
899.173	47.1
899.343	-106.49
899.513	-51.2
