Data from USB4F104151__297__11-21-25-727.txt Node

Date: Wed Feb 26 11:21:25 EST 2025
User: louis
Spectrometer: USB4F10415
Trigger mode: 4
Integration Time (sec): 1.000000E-1
Scans to average: 1
Electric dark correction enabled: true
Nonlinearity correction enabled: false
Boxcar width: 0
XAxis mode: Wavelengths
Number of Pixels in Spectrum: 3648
>>>>>Begin Spectral Data<<<<<
178.204	-437.58
178.424	-437.58
178.644	-437.58
178.864	-394.58
179.084	-335.18
179.304	43.69
179.524	-79.19
179.744	64.17
179.964	92.84
180.184	47.79
180.404	-21.85
180.624	-85.33
180.844	33.45
181.064	-44.37
181.283	-36.18
181.503	-66.9
181.723	51.88
181.943	-62.8
182.163	172.71
182.383	-52.56
182.602	125.61
182.822	148.14
183.042	12.97
183.262	-36.18
183.482	64.17
183.701	47.79
183.921	15.02
184.141	-38.23
184.361	4.78
184.58	39.59
184.8	103.08
185.02	17.07
185.239	113.32
185.459	39.59
185.679	168.62
185.898	-103.76
186.118	-1.37
186.338	-1.37
186.557	133.8
186.777	-46.42
186.997	-48.47
187.216	-64.85
187.436	201.38
187.655	58.03
187.875	74.41
188.095	29.35
188.314	146.09
188.534	96.94
188.753	-44.37
188.973	144.04
189.192	193.19
189.412	-71
189.631	37.55
189.851	74.41
190.07	146.09
190.29	-44.37
190.509	-54.61
190.729	41.64
190.948	195.24
191.168	244.39
191.387	148.14
191.607	129.7
191.826	62.12
192.045	-42.32
192.265	-81.24
192.484	88.75
192.704	2.73
192.923	-5.46
193.142	232.1
193.362	58.03
193.581	187.05
193.8	-1.37
194.02	96.94
194.239	68.27
194.458	66.22
194.678	-42.32
194.897	-46.42
195.116	62.12
195.335	98.99
195.555	111.27
195.774	-9.56
195.993	105.13
196.212	-9.56
196.432	15.02
196.651	-13.65
196.87	-21.85
197.089	185
197.308	76.46
197.528	76.46
197.747	-44.37
197.966	90.79
198.185	68.27
198.404	12.97
198.623	96.94
198.842	92.84
199.062	129.7
199.281	111.27
199.5	6.83
199.719	105.13
199.938	35.5
200.157	74.41
200.376	101.03
200.595	178.86
200.814	-25.94
201.033	31.4
201.252	195.24
201.471	49.83
201.69	60.07
201.909	4.78
202.128	158.38
202.347	92.84
202.566	60.07
202.785	-95.57
203.004	2.73
203.223	240.3
203.442	31.4
203.661	6.83
203.879	103.08
204.098	150.18
204.317	-36.18
204.536	80.55
204.755	146.09
204.974	166.57
205.193	-62.8
205.411	154.28
205.63	17.07
205.849	29.35
206.068	-42.32
206.287	-68.95
206.505	137.9
206.724	-5.46
206.943	-44.37
207.162	0.68
207.381	49.83
207.599	31.4
207.818	119.46
208.037	-50.52
208.255	23.21
208.474	29.35
208.693	84.65
208.911	31.4
209.13	90.79
209.349	86.7
209.567	129.7
209.786	15.02
210.005	84.65
210.223	53.93
210.442	-62.8
210.661	-3.41
210.879	45.74
211.098	68.27
211.316	117.42
211.535	109.23
211.753	41.64
211.972	117.42
212.191	-1.37
212.409	47.79
212.628	154.28
212.846	-1.37
213.065	10.92
213.283	78.51
213.502	53.93
213.72	21.16
213.938	6.83
214.157	29.35
214.375	96.94
214.594	-1.37
214.812	129.7
215.031	-15.7
215.249	66.22
215.467	-13.65
215.686	37.55
215.904	15.02
216.122	25.26
216.341	185
216.559	2.73
216.778	156.33
216.996	137.9
217.214	47.79
217.432	-66.9
217.651	-17.75
217.869	19.11
218.087	72.36
218.306	66.22
218.524	12.97
218.742	64.17
218.96	144.04
219.179	-25.94
219.397	51.88
219.615	225.96
219.833	172.71
220.051	-13.65
220.27	158.38
220.488	64.17
220.706	41.64
220.924	39.59
221.142	-13.65
221.36	51.88
221.578	64.17
221.796	29.35
222.015	62.12
222.233	-17.75
222.451	154.28
222.669	-58.71
222.887	121.51
223.105	41.64
223.323	25.26
223.541	33.45
223.759	72.36
223.977	62.12
224.195	154.28
224.413	82.6
224.631	47.79
224.849	-13.65
225.067	174.76
225.285	2.73
225.503	45.74
225.721	-46.42
225.939	-66.9
226.157	92.84
226.375	217.77
226.592	0.68
226.81	39.59
227.028	154.28
227.246	127.66
227.464	105.13
227.682	53.93
227.9	74.41
228.117	45.74
228.335	74.41
228.553	-21.85
228.771	-21.85
228.989	33.45
229.206	80.55
229.424	-23.89
229.642	51.88
229.86	-3.41
230.077	137.9
230.295	4.78
230.513	84.65
230.731	96.94
230.948	88.75
231.166	195.24
231.384	-5.46
231.601	-40.28
231.819	113.32
232.037	-1.37
232.254	-56.66
232.472	10.92
232.689	-34.13
232.907	117.42
233.125	-44.37
233.342	31.4
233.56	60.07
233.777	-19.8
233.995	-54.61
234.213	121.51
234.43	41.64
234.648	101.03
234.865	68.27
235.083	60.07
235.3	17.07
235.518	88.75
235.735	180.9
235.953	123.56
236.17	113.32
236.388	31.4
236.605	-5.46
236.822	66.22
237.04	217.77
237.257	-5.46
237.475	-111.96
237.692	4.78
237.909	55.98
238.127	-13.65
238.344	84.65
238.562	58.03
238.779	-13.65
238.996	-34.13
239.214	23.21
239.431	117.42
239.648	-36.18
239.865	121.51
240.083	76.46
240.3	41.64
240.517	-7.51
240.735	53.93
240.952	115.37
241.169	39.59
241.386	19.11
241.603	47.79
241.821	-17.75
242.038	92.84
242.255	92.84
242.472	-25.94
242.689	115.37
242.907	125.61
243.124	74.41
243.341	25.26
243.558	-1.37
243.775	-48.47
243.992	-54.61
244.209	55.98
244.426	168.62
244.643	43.69
244.86	10.92
245.078	72.36
245.295	45.74
245.512	78.51
245.729	25.26
245.946	86.7
246.163	39.59
246.38	17.07
246.597	33.45
246.814	29.35
247.031	64.17
247.248	107.18
247.464	88.75
247.681	23.21
247.898	60.07
248.115	68.27
248.332	8.87
248.549	125.61
248.766	111.27
248.983	76.46
249.2	101.03
249.417	146.09
249.633	31.4
249.85	64.17
250.067	10.92
250.284	41.64
250.501	82.6
250.717	109.23
250.934	-17.75
251.151	39.59
251.368	-21.85
251.585	45.74
251.801	80.55
252.018	-23.89
252.235	98.99
252.451	-23.89
252.668	-38.23
252.885	152.23
253.102	101.03
253.318	31.4
253.535	55.98
253.752	-19.8
253.968	-32.08
254.185	-27.99
254.401	64.17
254.618	80.55
254.835	-7.51
255.051	123.56
255.268	58.03
255.484	80.55
255.701	31.4
255.917	17.07
256.134	21.16
256.351	33.45
256.567	6.83
256.784	39.59
257	-40.28
257.217	53.93
257.433	62.12
257.65	107.18
257.866	68.27
258.082	-23.89
258.299	-23.89
258.515	49.83
258.732	6.83
258.948	23.21
259.165	109.23
259.381	-44.37
259.597	84.65
259.814	23.21
260.03	-62.8
260.246	49.83
260.463	105.13
260.679	129.7
260.895	21.16
261.112	12.97
261.328	92.84
261.544	-87.38
261.761	160.42
261.977	60.07
262.193	-7.51
262.409	105.13
262.626	72.36
262.842	66.22
263.058	-19.8
263.274	55.98
263.49	174.76
263.707	53.93
263.923	90.79
264.139	-32.08
264.355	84.65
264.571	72.36
264.787	146.09
265.004	174.76
265.22	62.12
265.436	-11.61
265.652	23.21
265.868	4.78
266.084	19.11
266.3	6.83
266.516	-48.47
266.732	107.18
266.948	55.98
267.164	15.02
267.38	182.95
267.596	209.58
267.812	146.09
268.028	47.79
268.244	-60.76
268.46	82.6
268.676	66.22
268.892	115.37
269.108	-87.38
269.324	10.92
269.54	-15.7
269.756	103.08
269.972	-13.65
270.188	10.92
270.403	-75.09
270.619	-9.56
270.835	94.89
271.051	86.7
271.267	-17.75
271.483	-71
271.698	101.03
271.914	154.28
272.13	-19.8
272.346	84.65
272.562	-17.75
272.777	115.37
272.993	-5.46
273.209	35.5
273.425	88.75
273.64	-60.76
273.856	121.51
274.072	-103.76
274.287	-11.61
274.503	31.4
274.719	92.84
274.934	33.45
275.15	-40.28
275.366	25.26
275.581	-27.99
275.797	49.83
276.012	19.11
276.228	-15.7
276.444	111.27
276.659	127.66
276.875	-9.56
277.09	70.31
277.306	-21.85
277.521	43.69
277.737	15.02
277.952	96.94
278.168	31.4
278.383	39.59
278.599	78.51
278.814	78.51
279.03	23.21
279.245	84.65
279.461	8.87
279.676	109.23
279.892	-97.62
280.107	21.16
280.322	33.45
280.538	160.42
280.753	-25.94
280.969	45.74
281.184	39.59
281.399	211.62
281.615	129.7
281.83	-9.56
282.045	-38.23
282.26	-9.56
282.476	70.31
282.691	98.99
282.906	6.83
283.122	105.13
283.337	-46.42
283.552	84.65
283.767	-7.51
283.983	70.31
284.198	23.21
284.413	41.64
284.628	-42.32
284.843	51.88
285.058	78.51
285.274	64.17
285.489	-36.18
285.704	111.27
285.919	-7.51
286.134	-36.18
286.349	45.74
286.564	19.11
286.779	96.94
286.995	-9.56
287.21	-95.57
287.425	10.92
287.64	17.07
287.855	31.4
288.07	15.02
288.285	62.12
288.5	135.85
288.715	66.22
288.93	15.02
289.145	35.5
289.36	96.94
289.575	15.02
289.79	129.7
290.004	49.83
290.219	160.42
290.434	-62.8
290.649	8.87
290.864	-5.46
291.079	23.21
291.294	0.68
291.509	111.27
291.724	-54.61
291.938	-38.23
292.153	80.55
292.368	-13.65
292.583	86.7
292.798	80.55
293.012	103.08
293.227	111.27
293.442	-97.62
293.657	119.46
293.871	78.51
294.086	72.36
294.301	150.18
294.516	129.7
294.73	58.03
294.945	-36.18
295.16	10.92
295.374	152.23
295.589	74.41
295.804	-48.47
296.018	-3.41
296.233	166.57
296.447	37.55
296.662	51.88
296.877	152.23
297.091	152.23
297.306	49.83
297.52	2.73
297.735	41.64
297.949	41.64
298.164	90.79
298.378	12.97
298.593	-93.52
298.807	43.69
299.022	8.87
299.236	189.1
299.451	27.31
299.665	37.55
299.88	41.64
300.094	58.03
300.309	45.74
300.523	37.55
300.737	6.83
300.952	78.51
301.166	55.98
301.381	-5.46
301.595	23.21
301.809	45.74
302.024	4.78
302.238	66.22
302.452	139.94
302.667	70.31
302.881	92.84
303.095	107.18
303.309	-15.7
303.524	43.69
303.738	12.97
303.952	4.78
304.166	12.97
304.381	-103.76
304.595	154.28
304.809	-46.42
305.023	-19.8
305.237	-40.28
305.452	23.21
305.666	111.27
305.88	129.7
306.094	23.21
306.308	64.17
306.522	74.41
306.736	37.55
306.95	98.99
307.164	17.07
307.379	21.16
307.593	133.8
307.807	105.13
308.021	111.27
308.235	103.08
308.449	-17.75
308.663	129.7
308.877	201.38
309.091	23.21
309.305	141.99
309.519	-52.56
309.733	180.9
309.947	-48.47
310.161	-19.8
310.374	49.83
310.588	107.18
310.802	-40.28
311.016	-77.14
311.23	-36.18
311.444	-44.37
311.658	78.51
311.872	96.94
312.085	72.36
312.299	105.13
312.513	90.79
312.727	31.4
312.941	-54.61
313.154	43.69
313.368	23.21
313.582	23.21
313.796	98.99
314.009	-17.75
314.223	139.94
314.437	86.7
314.651	98.99
314.864	-25.94
315.078	33.45
315.292	-1.37
315.505	45.74
315.719	53.93
315.933	60.07
316.146	-9.56
316.36	-79.19
316.573	103.08
316.787	158.38
317.001	41.64
317.214	-56.66
317.428	4.78
317.641	-7.51
317.855	-13.65
318.068	105.13
318.282	49.83
318.495	115.37
318.709	37.55
318.922	39.59
319.136	180.9
319.349	92.84
319.563	19.11
319.776	127.66
319.99	-152.91
320.203	133.8
320.417	51.88
320.63	39.59
320.843	234.15
321.057	80.55
321.27	-19.8
321.483	113.32
321.697	152.23
321.91	23.21
322.124	107.18
322.337	72.36
322.55	-95.57
322.763	17.07
322.977	2.73
323.19	-21.85
323.403	92.84
323.617	80.55
323.83	66.22
324.043	33.45
324.256	31.4
324.469	-19.8
324.683	152.23
324.896	-11.61
325.109	15.02
325.322	-132.44
325.535	127.66
325.748	109.23
325.962	82.6
326.175	25.26
326.388	66.22
326.601	96.94
326.814	35.5
327.027	25.26
327.24	141.99
327.453	-40.28
327.666	45.74
327.879	117.42
328.092	27.31
328.305	39.59
328.518	12.97
328.731	10.92
328.944	4.78
329.157	47.79
329.37	-97.62
329.583	166.57
329.796	154.28
330.009	-17.75
330.222	78.51
330.435	119.46
330.648	-9.56
330.861	76.46
331.073	45.74
331.286	92.84
331.499	12.97
331.712	-73.04
331.925	10.92
332.138	21.16
332.35	49.83
332.563	17.07
332.776	66.22
332.989	-79.19
333.202	-42.32
333.414	29.35
333.627	43.69
333.84	53.93
334.053	25.26
334.265	-7.51
334.478	25.26
334.691	29.35
334.903	66.22
335.116	-54.61
335.329	-9.56
335.541	135.85
335.754	150.18
335.966	8.87
336.179	58.03
336.392	27.31
336.604	45.74
336.817	164.52
337.029	41.64
337.242	51.88
337.454	101.03
337.667	80.55
337.88	98.99
338.092	43.69
338.305	58.03
338.517	33.45
338.729	150.18
338.942	103.08
339.154	-32.08
339.367	2.73
339.579	139.94
339.792	51.88
340.004	158.38
340.217	-64.85
340.429	80.55
340.641	-50.52
340.854	4.78
341.066	72.36
341.278	146.09
341.491	144.04
341.703	88.75
341.915	-30.04
342.128	150.18
342.34	51.88
342.552	41.64
342.764	84.65
342.977	51.88
343.189	60.07
343.401	72.36
343.613	-15.7
343.826	68.27
344.038	-19.8
344.25	39.59
344.462	25.26
344.674	53.93
344.886	41.64
345.099	139.94
345.311	19.11
345.523	51.88
345.735	-77.14
345.947	109.23
346.159	113.32
346.371	80.55
346.583	41.64
346.795	240.3
347.007	-3.41
347.219	66.22
347.431	-1.37
347.643	43.69
347.855	35.5
348.067	139.94
348.279	-27.99
348.491	23.21
348.703	127.66
348.915	25.26
349.127	6.83
349.339	41.64
349.551	64.17
349.763	98.99
349.975	47.79
350.187	111.27
350.399	187.05
350.61	29.35
350.822	21.16
351.034	43.69
351.246	64.17
351.458	70.31
351.669	78.51
351.881	105.13
352.093	129.7
352.305	146.09
352.517	90.79
352.728	107.18
352.94	12.97
353.152	101.03
353.363	-46.42
353.575	121.51
353.787	164.52
353.999	127.66
354.21	86.7
354.422	10.92
354.633	-25.94
354.845	66.22
355.057	70.31
355.268	23.21
355.48	152.23
355.692	64.17
355.903	60.07
356.115	-62.8
356.326	-128.34
356.538	129.7
356.749	72.36
356.961	113.32
357.172	68.27
357.384	4.78
357.595	195.24
357.807	-52.56
358.018	23.21
358.23	41.64
358.441	150.18
358.653	76.46
358.864	31.4
359.075	66.22
359.287	43.69
359.498	-1.37
359.709	92.84
359.921	25.26
360.132	62.12
360.344	19.11
360.555	6.83
360.766	37.55
360.977	45.74
361.189	80.55
361.4	17.07
361.611	119.46
361.823	135.85
362.034	119.46
362.245	-87.38
362.456	-21.85
362.667	115.37
362.879	-91.48
363.09	15.02
363.301	107.18
363.512	2.73
363.723	-32.08
363.935	-1.37
364.146	74.41
364.357	19.11
364.568	139.94
364.779	-21.85
364.99	123.56
365.201	-62.8
365.412	21.16
365.623	-34.13
365.834	39.59
366.045	49.83
366.256	78.51
366.467	49.83
366.678	31.4
366.889	72.36
367.1	53.93
367.311	72.36
367.522	-3.41
367.733	35.5
367.944	90.79
368.155	55.98
368.366	109.23
368.577	146.09
368.788	139.94
368.999	-38.23
369.209	88.75
369.42	150.18
369.631	180.9
369.842	129.7
370.053	64.17
370.264	39.59
370.474	-13.65
370.685	74.41
370.896	31.4
371.107	103.08
371.317	-52.56
371.528	23.21
371.739	135.85
371.95	78.51
372.16	64.17
372.371	6.83
372.582	58.03
372.792	103.08
373.003	29.35
373.214	88.75
373.424	146.09
373.635	-27.99
373.846	113.32
374.056	25.26
374.267	6.83
374.477	47.79
374.688	0.68
374.898	23.21
375.109	96.94
375.319	68.27
375.53	139.94
375.74	115.37
375.951	10.92
376.161	17.07
376.372	129.7
376.582	27.31
376.793	39.59
377.003	-9.56
377.214	0.68
377.424	141.99
377.635	88.75
377.845	86.7
378.055	76.46
378.266	-17.75
378.476	-5.46
378.686	60.07
378.897	10.92
379.107	94.89
379.317	23.21
379.528	-46.42
379.738	158.38
379.948	8.87
380.158	96.94
380.369	90.79
380.579	137.9
380.789	2.73
380.999	105.13
381.21	51.88
381.42	215.72
381.63	-3.41
381.84	45.74
382.05	101.03
382.261	53.93
382.471	129.7
382.681	-30.04
382.891	154.28
383.101	43.69
383.311	-50.52
383.521	-34.13
383.731	6.83
383.941	39.59
384.151	76.46
384.361	86.7
384.571	17.07
384.781	62.12
384.991	185
385.201	217.77
385.411	45.74
385.621	98.99
385.831	15.02
386.041	-19.8
386.251	141.99
386.461	98.99
386.671	-7.51
386.881	70.31
387.091	-17.75
387.301	39.59
387.511	78.51
387.72	19.11
387.93	76.46
388.14	-19.8
388.35	90.79
388.56	129.7
388.769	33.45
388.979	0.68
389.189	-32.08
389.399	76.46
389.609	101.03
389.818	170.66
390.028	150.18
390.238	47.79
390.447	55.98
390.657	78.51
390.867	-58.71
391.076	-89.43
391.286	4.78
391.496	-17.75
391.705	80.55
391.915	47.79
392.125	109.23
392.334	-30.04
392.544	174.76
392.753	66.22
392.963	-34.13
393.172	41.64
393.382	-5.46
393.591	234.15
393.801	70.31
394.01	152.23
394.22	92.84
394.429	-17.75
394.639	43.69
394.848	55.98
395.058	92.84
395.267	82.6
395.477	109.23
395.686	66.22
395.895	174.76
396.105	211.62
396.314	29.35
396.524	-19.8
396.733	-75.09
396.942	64.17
397.152	84.65
397.361	133.8
397.57	109.23
397.78	17.07
397.989	60.07
398.198	135.85
398.407	51.88
398.617	53.93
398.826	68.27
399.035	98.99
399.244	137.9
399.453	43.69
399.663	78.51
399.872	152.23
400.081	-50.52
400.29	189.1
400.499	-54.61
400.708	158.38
400.917	51.88
401.127	125.61
401.336	-34.13
401.545	137.9
401.754	129.7
401.963	98.99
402.172	4.78
402.381	-46.42
402.59	117.42
402.799	58.03
403.008	223.91
403.217	105.13
403.426	98.99
403.635	-17.75
403.844	51.88
404.053	41.64
404.262	19.11
404.471	141.99
404.68	72.36
404.888	25.26
405.097	39.59
405.306	47.79
405.515	0.68
405.724	-3.41
405.933	137.9
406.142	76.46
406.35	96.94
406.559	-11.61
406.768	66.22
406.977	178.86
407.185	101.03
407.394	115.37
407.603	-60.76
407.812	60.07
408.02	135.85
408.229	80.55
408.438	41.64
408.646	-68.95
408.855	82.6
409.064	84.65
409.272	74.41
409.481	137.9
409.69	10.92
409.898	-9.56
410.107	-1.37
410.315	92.84
410.524	-19.8
410.733	45.74
410.941	-44.37
411.15	103.08
411.358	94.89
411.567	154.28
411.775	10.92
411.984	21.16
412.192	109.23
412.401	15.02
412.609	129.7
412.818	49.83
413.026	64.17
413.234	45.74
413.443	37.55
413.651	-34.13
413.86	62.12
414.068	96.94
414.276	180.9
414.485	-27.99
414.693	146.09
414.901	238.25
415.11	25.26
415.318	25.26
415.526	96.94
415.734	119.46
415.943	109.23
416.151	180.9
416.359	62.12
416.567	146.09
416.776	156.33
416.984	117.42
417.192	150.18
417.4	8.87
417.608	6.83
417.817	47.79
418.025	103.08
418.233	185
418.441	-9.56
418.649	23.21
418.857	162.47
419.065	133.8
419.273	-66.9
419.481	68.27
419.689	49.83
419.897	12.97
420.105	-1.37
420.313	144.04
420.521	121.51
420.729	90.79
420.937	82.6
421.145	6.83
421.353	158.38
421.561	139.94
421.769	19.11
421.977	21.16
422.185	33.45
422.393	51.88
422.601	76.46
422.809	64.17
423.017	29.35
423.224	131.75
423.432	88.75
423.64	-58.71
423.848	197.29
424.056	-40.28
424.263	146.09
424.471	55.98
424.679	96.94
424.887	-89.43
425.094	131.75
425.302	58.03
425.51	41.64
425.718	127.66
425.925	58.03
426.133	-62.8
426.341	217.77
426.548	45.74
426.756	-1.37
426.964	58.03
427.171	35.5
427.379	78.51
427.586	58.03
427.794	133.8
428.001	60.07
428.209	55.98
428.417	117.42
428.624	119.46
428.832	47.79
429.039	152.23
429.247	125.61
429.454	115.37
429.662	199.34
429.869	144.04
430.076	156.33
430.284	152.23
430.491	125.61
430.699	193.19
430.906	238.25
431.114	131.75
431.321	182.95
431.528	115.37
431.736	80.55
431.943	146.09
432.15	168.62
432.358	98.99
432.565	299.69
432.772	76.46
432.979	185
433.187	195.24
433.394	215.72
433.601	107.18
433.808	234.15
434.016	254.63
434.223	164.52
434.43	232.1
434.637	170.66
434.844	254.63
435.052	164.52
435.259	361.13
435.466	285.35
435.673	221.86
435.88	283.3
436.087	248.49
436.294	326.31
436.501	258.73
436.708	176.81
436.915	223.91
437.122	340.65
437.329	221.86
437.537	309.93
437.743	295.59
437.95	385.7
438.157	320.17
438.364	404.13
438.571	371.37
438.778	424.61
438.985	385.7
439.192	408.23
439.399	375.46
439.606	441
439.813	506.53
440.02	617.12
440.227	586.4
440.433	502.44
440.64	535.2
440.847	400.04
441.054	608.93
441.261	707.23
441.467	621.22
441.674	543.39
441.881	651.94
442.088	598.69
442.294	688.8
442.501	711.33
442.708	799.39
442.914	768.67
443.121	729.76
443.328	776.86
443.534	883.36
443.741	717.47
443.948	692.9
444.154	938.65
444.361	1053.34
444.568	920.22
444.774	938.65
444.981	975.52
445.187	1127.07
445.394	1086.11
445.6	1077.91
445.807	1200.79
446.013	1237.66
446.22	1106.59
446.426	1303.19
446.633	1368.73
446.839	1540.76
447.046	1286.81
447.252	1415.83
447.459	1522.32
447.665	1366.68
447.871	1692.3
448.078	1733.26
448.284	1772.18
448.491	1938.06
448.697	1991.31
448.903	2056.84
449.11	1997.45
449.316	1954.44
449.522	2167.43
449.728	2329.22
449.935	2245.26
450.141	2396.81
450.347	2595.46
450.553	2458.25
450.76	2652.8
450.966	2648.71
451.172	2857.6
451.378	2898.56
451.584	3013.24
451.791	3283.58
451.997	3222.14
452.203	3201.66
452.409	3519.09
452.615	3543.67
452.821	3504.76
453.027	3471.99
453.233	3983.98
453.44	3914.35
453.646	3965.55
453.852	4282.99
454.058	4489.83
454.264	4414.06
454.47	4811.36
454.676	4938.34
454.882	5296.73
455.088	5032.54
455.294	5386.84
455.5	5747.28
455.705	6021.71
455.911	5997.14
456.117	6036.05
456.323	6427.21
456.529	6425.16
456.735	7105.09
456.941	7133.76
457.147	7479.86
457.352	7602.74
457.558	7748.15
457.764	8215.09
457.97	8505.9
458.176	8878.63
458.381	9323.04
458.587	9288.22
458.793	9859.6
458.999	9900.56
459.204	11078.15
459.41	11547.13
459.616	11276.8
459.821	11954.68
460.027	12773.86
460.233	13236.7
460.438	13158.88
460.644	13869.53
460.85	14033.36
461.055	14543.31
461.261	15268.29
461.466	14739.91
461.672	15358.4
461.878	17148.32
462.083	16699.82
462.289	17322.4
462.494	17736.09
462.7	18178.45
462.905	18157.97
463.111	19696
463.316	20660.59
463.522	21207.4
463.727	22036.83
463.932	22401.36
464.138	23267.66
464.343	24164.67
464.549	24490.29
464.754	26186.01
464.959	26810.64
465.165	27427.08
465.37	27330.83
465.575	27140.36
465.781	29147.37
465.986	29958.37
466.191	29614.31
466.397	29956.32
466.602	29305.07
466.807	30646.49
467.012	31559.88
467.218	31510.73
467.423	31647.94
467.628	33061.04
467.833	34300.06
468.038	33894.57
468.244	33212.59
468.449	34963.61
468.654	34115.75
468.859	34371.74
469.064	34269.34
469.269	33409.2
469.474	33607.85
469.679	34826.39
469.885	33904.81
470.09	34148.51
470.295	34238.62
470.5	33589.42
470.705	33726.63
470.91	32968.88
471.115	32563.39
471.32	33145.01
471.525	33235.12
471.73	32200.9
471.935	31934.66
472.139	30777.56
472.344	30535.9
472.549	30773.46
472.754	30148.83
472.959	29227.24
473.164	28266.75
473.369	27758.85
473.574	28846.32
473.778	28141.82
473.983	27834.63
474.188	27187.47
474.393	25766.18
474.598	25901.34
474.802	25223.47
475.007	24944.94
475.212	24750.38
475.417	23566.66
475.621	23478.6
475.826	23167.31
476.031	22518.1
476.235	21858.65
476.44	22174.04
476.645	21608.8
476.849	21868.89
477.054	21182.82
477.259	20484.47
477.463	20459.89
477.668	19691.9
477.872	19908.99
478.077	19272.07
478.282	18925.96
478.486	18790.8
478.691	18536.85
478.895	18344.34
479.1	18196.88
479.304	18198.93
479.509	17394.08
479.713	17688.99
479.918	17211.81
480.122	16906.66
480.326	17043.88
480.531	17019.3
480.735	16789.93
480.94	16642.48
481.144	16982.44
481.348	16120.24
481.553	16017.85
481.757	15679.93
481.961	16019.89
482.166	16193.97
482.37	15749.56
482.574	15546.81
482.778	15428.03
482.983	15399.36
483.187	15323.58
483.391	15243.71
483.595	14866.89
483.8	14809.54
484.004	14787.02
484.208	14729.67
484.412	14422.48
484.616	14199.25
484.821	14225.87
485.025	13924.82
485.229	13906.39
485.433	13527.52
485.637	13662.68
485.841	13335.01
486.045	13095.39
486.249	13101.54
486.453	12579.31
486.657	12460.52
486.861	12317.17
487.065	12116.47
487.269	12079.6
487.473	11592.19
487.677	11932.15
487.881	11846.13
488.085	11252.22
488.289	11364.86
488.493	11018.75
488.697	11117.06
488.901	10746.37
489.105	10279.44
489.309	10336.78
489.512	10181.14
489.716	9785.88
489.92	9683.48
490.124	9605.66
490.328	9503.26
490.531	9177.63
490.735	9042.46
490.939	8884.77
491.143	8663.59
491.346	8555.05
491.55	8514.09
491.754	8325.68
491.958	8272.43
492.161	8112.69
492.365	7871.03
492.569	7748.15
492.772	7715.38
492.976	7789.11
493.18	7590.45
493.383	7610.93
493.587	7522.87
493.79	7334.46
493.994	7082.56
494.197	7051.84
494.401	7035.46
494.605	6824.51
494.808	6689.35
495.012	6957.63
495.215	6632.01
495.419	6920.77
495.622	6545.99
495.825	6752.84
496.029	6404.68
496.232	6617.67
496.436	6494.79
496.639	6672.96
496.843	6451.78
497.046	6378.06
497.249	6670.92
497.453	6425.16
497.656	6427.21
497.859	6584.9
498.063	6584.9
498.266	6507.08
498.469	6437.45
498.673	6632.01
498.876	6496.84
499.079	6558.28
499.282	6496.84
499.485	6822.47
499.689	6746.69
499.892	6701.64
500.095	6730.31
500.298	6726.21
500.501	6726.21
500.705	7017.02
500.908	6894.15
501.111	6799.94
501.314	7062.08
501.517	7084.61
501.72	7025.22
501.923	7121.47
502.126	7262.78
502.329	7305.79
502.532	7365.18
502.735	7623.22
502.938	7666.23
503.141	7723.57
503.344	7844.4
503.547	7723.57
503.75	7821.88
503.953	8096.3
504.156	8094.26
504.359	8333.87
504.562	8387.11
504.765	8598.06
504.968	8509.99
505.17	8880.68
505.373	8884.77
505.576	9089.57
505.779	9163.29
505.982	9171.49
506.185	9574.94
506.387	9603.61
506.59	9746.97
506.793	10099.22
506.996	10068.5
507.198	10412.56
507.401	10521.1
507.604	10693.13
507.807	10840.58
508.009	11045.38
508.212	11409.92
508.415	11649.53
508.617	12106.23
508.82	12249.58
509.022	12016.12
509.225	12384.75
509.428	12681.71
509.63	13117.92
509.833	13019.62
510.035	13945.3
510.238	13791.7
510.44	14109.14
510.643	14694.86
510.845	14987.72
511.048	14897.61
511.25	15557.05
511.453	15700.41
511.655	16603.57
511.858	16673.2
512.06	16955.82
512.262	17166.76
512.465	17394.08
512.667	17959.32
512.87	18250.13
513.072	18760.08
513.274	19562.88
513.477	19480.96
513.679	20517.23
513.881	20699.5
514.084	21135.72
514.286	21326.18
514.488	21872.99
514.69	22819.15
514.893	22901.07
515.095	23312.71
515.297	23910.72
515.499	24322.36
515.701	24957.23
515.904	25501.99
516.106	26317.08
516.308	26751.25
516.51	27177.23
516.712	27275.53
516.914	28203.26
517.116	28915.95
517.318	28928.24
517.52	29903.07
517.722	30200.03
517.925	30746.84
518.127	31178.96
518.329	32188.61
518.531	31729.86
518.733	33134.77
518.935	33470.64
519.136	34091.17
519.338	34492.57
519.54	35278.99
519.742	35526.8
519.944	36202.63
520.146	36802.68
520.348	37103.73
520.55	37574.77
520.752	38326.37
520.954	39053.4
521.155	39000.15
521.357	39678.03
521.559	40013.9
521.761	40980.54
521.963	41257.01
522.164	41787.44
522.366	41680.94
522.568	42111.02
522.77	42221.61
522.971	43163.67
523.173	43020.31
523.375	43624.46
523.576	43464.72
523.778	43733.01
523.98	44685.31
524.181	44433.41
524.383	44441.6
524.584	44926.97
524.786	44838.91
524.988	44685.31
525.189	45043.71
525.391	45381.62
525.592	45426.68
525.794	45533.17
525.995	45209.59
526.197	45465.59
526.398	45113.34
526.6	45201.4
526.801	45668.34
527.003	44926.97
527.204	44746.75
527.406	45309.94
527.607	44896.25
527.808	44933.12
528.01	43712.53
528.211	44306.44
528.412	44052.49
528.614	43880.46
528.815	43540.5
529.016	43730.96
529.218	42831.9
529.419	42922.01
529.62	42227.75
529.822	42137.64
530.023	41560.11
530.224	41502.77
530.425	40759.36
530.626	39970.89
530.828	39891.02
531.029	40151.11
531.23	39284.82
531.431	38770.78
531.632	38637.66
531.833	37941.35
532.035	37292.15
532.236	37349.49
532.437	36771.96
532.638	36327.55
532.839	35952.77
533.04	35971.21
533.241	34998.42
533.442	35201.17
533.643	34463.9
533.844	33679.53
534.045	33417.39
534.246	32604.35
534.447	32643.26
534.648	32037.06
534.849	31791.3
535.05	31056.08
535.251	30765.27
535.451	30290.14
535.652	30114.02
535.853	29520.1
536.054	29325.55
536.255	28797.17
536.456	28262.65
536.657	28395.77
536.857	27822.34
537.058	27173.13
537.259	26908.94
537.46	26745.11
537.66	26077.47
537.861	26095.9
538.062	25467.17
538.263	25235.75
538.463	25098.54
538.664	24594.74
538.865	24369.46
539.065	24238.39
539.266	23677.25
539.466	23693.63
539.667	23105.87
539.868	23069
540.068	22804.81
540.269	22356.31
540.469	22260.05
540.67	21686.62
540.87	21500.26
541.071	21301.61
541.271	21102.95
541.472	21135.72
541.672	20550
541.873	20343.16
542.073	19919.23
542.274	20339.06
542.474	19745.15
542.675	19290.5
542.875	19222.92
543.075	19222.92
543.276	18829.71
543.476	18837.9
543.676	18524.56
543.877	18133.4
544.077	18178.45
544.277	17899.93
544.478	17551.77
544.678	17490.34
544.878	17340.83
545.078	17076.65
545.279	16724.4
545.479	16361.91
545.679	16351.67
545.879	16527.79
546.079	16054.71
546.28	15724.99
546.48	15659.45
546.68	15626.68
546.88	15454.65
547.08	15210.95
547.28	15249.86
547.48	14703.05
547.68	14752.2
547.88	14389.71
548.081	14600.65
548.281	13980.12
548.481	14019.03
548.681	14014.93
548.881	13582.81
549.081	13416.93
549.28	13187.55
549.48	13285.86
549.68	12962.28
549.88	12884.45
550.08	12521.96
550.28	12544.49
550.48	12306.93
550.68	12231.15
550.88	11799.03
551.08	11704.82
551.279	11733.5
551.479	11196.93
551.679	11328
551.879	11137.54
552.079	10854.92
552.278	10852.87
552.478	10711.56
552.678	10404.36
552.878	10383.88
553.077	10181.14
553.277	9990.67
553.477	9863.7
553.676	9763.35
553.876	9734.68
554.076	9400.86
554.275	9298.46
554.475	9011.75
554.674	8852
554.874	8903.2
555.074	8583.72
555.273	8485.42
555.473	8616.49
555.672	8194.61
555.872	8073.78
556.071	8020.53
556.271	7973.42
556.47	7723.57
556.67	7596.6
556.869	7479.86
557.068	7158.33
557.268	7238.2
557.467	7131.71
557.667	7152.19
557.866	6785.6
558.065	6859.33
558.265	6701.64
558.464	6523.46
558.663	6582.85
558.863	6292.04
559.062	6392.39
559.261	6191.69
559.461	6117.97
559.66	5907.02
559.859	5882.45
560.058	5745.23
560.258	5628.5
560.457	5593.69
560.656	5614.16
560.855	5087.84
561.054	5435.99
561.253	5313.11
561.453	5057.12
561.652	5100.12
561.851	5093.98
562.05	4913.76
562.249	4682.34
562.448	4915.81
562.647	4805.22
562.846	4772.45
563.045	4598.37
563.244	4471.4
563.443	4573.8
563.642	4379.24
563.841	4450.92
564.04	4233.83
564.239	4225.64
564.438	4172.4
564.637	3873.39
564.836	3904.11
565.035	3947.12
565.234	3961.45
565.432	3736.18
565.631	3684.98
565.83	3760.75
566.029	3693.17
566.228	3572.34
566.427	3523.19
566.625	3377.78
566.824	3480.18
567.023	3498.61
567.222	3469.94
567.42	3353.21
567.619	3095.16
567.818	3363.45
568.016	3240.57
568.215	3193.47
568.414	3005.05
568.612	3091.07
568.811	2908.8
569.01	2910.85
569.208	2964.09
569.407	2851.46
569.605	2873.98
569.804	2779.78
570.002	2914.94
570.201	2620.03
570.4	2804.35
570.598	2609.79
570.797	2597.51
570.995	2585.22
571.193	2613.89
571.392	2495.11
571.59	2405
571.789	2427.53
571.987	2364.04
572.186	2480.77
572.384	2380.42
572.582	2196.11
572.781	2357.89
572.979	2118.28
573.177	2224.78
573.376	2153.1
573.574	2134.67
573.772	2050.7
573.971	1999.5
574.169	1802.9
574.367	1942.16
574.565	1929.87
574.763	1817.23
574.962	1772.18
575.16	1878.67
575.358	1677.97
575.556	1739.41
575.754	1864.33
575.952	1624.72
576.151	1737.36
576.349	1798.8
576.547	1637.01
576.745	1712.78
576.943	1620.63
577.141	1534.61
577.339	1520.28
577.537	1559.19
577.735	1536.66
577.933	1528.47
578.131	1323.67
578.329	1536.66
578.527	1372.82
578.725	1424.02
578.923	1319.57
579.121	1368.73
579.319	1116.83
579.516	1286.81
579.714	1409.69
579.912	1280.66
580.11	1176.22
580.308	1118.87
580.506	1165.98
580.704	1051.29
580.901	1079.96
581.099	1319.57
581.297	1114.78
581.495	1225.37
581.692	1143.45
581.89	1194.65
582.088	987.8
582.285	991.9
582.483	981.66
582.681	944.8
582.878	971.42
583.076	981.66
583.274	1061.53
583.471	1145.5
583.669	1004.19
583.866	850.59
584.064	858.78
584.262	803.49
584.459	785.05
584.657	946.84
584.854	885.41
585.052	979.61
585.249	850.59
585.447	735.9
585.644	737.95
585.841	932.51
586.039	912.03
586.236	826.01
586.434	754.34
586.631	731.81
586.828	725.66
587.026	709.28
587.223	709.28
587.42	647.84
587.618	735.9
587.815	752.29
588.012	694.94
588.21	637.6
588.407	760.48
588.604	658.08
588.801	703.14
588.999	623.27
589.196	725.66
589.393	598.69
589.59	615.07
589.787	670.37
589.984	682.66
590.182	692.9
590.379	541.35
590.576	627.36
590.773	615.07
590.97	625.31
591.167	586.4
591.364	586.4
591.561	666.27
591.758	690.85
591.955	641.7
592.152	551.59
592.349	617.12
592.546	492.2
592.743	508.58
592.94	508.58
593.137	610.98
593.334	637.6
593.531	639.65
593.727	606.88
593.924	545.44
594.121	533.15
594.318	623.27
594.515	701.09
594.712	664.22
594.908	678.56
595.105	520.87
595.302	576.16
595.499	682.66
595.696	778.91
595.892	580.26
596.089	721.57
596.286	684.7
596.482	758.43
596.679	785.05
596.876	727.71
597.072	740
597.269	793.25
597.466	737.95
597.662	715.42
597.859	762.53
598.055	828.06
598.252	899.74
598.448	950.94
598.645	985.76
598.841	967.32
599.038	1088.15
599.234	1104.54
599.431	1069.72
599.627	1034.91
599.824	1172.12
600.02	1118.87
600.217	1088.15
600.413	1204.89
600.609	1161.88
600.806	1548.95
601.002	1446.55
601.198	1419.92
601.395	1616.53
601.591	1520.28
601.787	1637.01
601.984	1645.2
602.18	1720.98
602.376	1700.5
602.572	1866.38
602.769	2120.33
602.965	1979.02
603.161	2112.14
603.357	2056.84
603.553	2345.61
603.75	2144.91
603.946	2149
604.142	2388.61
604.338	2595.46
604.534	2491.01
604.73	2603.65
604.926	2624.13
605.122	2923.13
605.318	2908.8
605.514	2974.33
605.71	3035.77
605.906	3162.75
606.102	3218.04
606.298	3375.74
606.494	3476.09
606.69	3715.7
606.886	3662.45
607.082	3832.43
607.278	3869.3
607.474	4082.28
607.67	3990.13
607.866	4004.46
608.062	4381.29
608.257	4467.3
608.453	4541.03
608.649	4831.84
608.845	4831.84
609.041	4772.45
609.236	5055.07
609.432	5175.9
609.628	5464.66
609.824	5448.28
610.019	5536.34
610.215	5778
610.411	5907.02
610.606	6064.72
610.802	6070.86
610.998	6267.47
611.193	6537.8
611.389	6697.54
611.584	6756.93
611.78	6945.34
611.976	7234.11
612.171	7557.69
612.367	7475.77
612.562	7746.1
612.758	7932.47
612.953	8057.39
613.149	8223.28
613.344	8651.3
613.539	8905.25
613.735	9189.92
613.93	9409.05
614.126	9558.55
614.321	9804.31
614.517	10256.91
614.712	10177.04
614.907	10543.63
615.103	10797.57
615.298	10899.97
615.493	11190.78
615.688	11407.87
615.884	11825.65
616.079	11993.59
616.274	12358.13
616.47	12587.5
616.665	12880.36
616.86	13357.53
617.055	13873.62
617.25	13967.83
617.445	14447.05
617.641	14658
617.836	14975.43
618.031	15104.45
618.226	15841.72
618.421	16007.61
618.616	16648.62
618.811	16492.97
619.006	17375.65
619.201	17494.43
619.396	18315.67
619.591	17770.91
619.786	19032.46
619.981	19149.19
620.176	19718.53
620.371	19822.97
620.566	20468.08
620.761	20752.75
620.956	21477.73
621.151	21559.65
621.346	22296.92
621.541	22309.21
621.735	23253.32
621.93	22831.44
622.125	23527.75
622.32	23787.84
622.515	24109.37
622.709	24899.89
622.904	25272.62
623.099	25723.17
623.294	26437.91
623.488	26728.72
623.683	26880.27
623.878	27281.67
624.072	28211.45
624.267	28301.56
624.462	28864.75
624.656	29044.98
624.851	29806.82
625.046	30054.62
625.24	30439.64
625.435	30460.12
625.629	31355.08
625.824	31523.02
626.018	32194.75
626.213	32067.78
626.407	32936.12
626.602	33075.38
626.796	33345.71
626.991	33847.46
627.185	34281.63
627.38	34572.44
627.574	34513.05
627.768	34775.19
627.963	34582.68
628.157	34742.42
628.352	35412.11
628.546	34834.58
628.74	35379.34
628.935	35049.62
629.129	35209.36
629.323	34904.21
629.517	34998.42
629.712	34967.7
629.906	34539.68
630.1	34015.4
630.294	33919.14
630.489	33331.37
630.683	33185.97
630.877	32350.4
631.071	32233.66
631.265	31779.01
631.459	31060.18
631.653	30216.41
631.848	29815.01
632.042	28852.47
632.236	28520.7
632.43	27330.83
632.624	27097.36
632.818	26128.67
633.012	25348.39
633.206	24762.67
633.4	23988.54
633.594	22946.12
633.788	22638.93
633.982	21741.92
634.176	20865.39
634.369	20134.26
634.563	19362.18
634.757	18399.63
634.951	17975.7
635.145	17469.86
635.339	16877.99
635.533	15843.77
635.726	15434.18
635.92	14453.2
636.114	14115.28
636.308	13406.69
636.501	12732.9
636.695	12325.36
636.889	11643.39
637.083	11477.5
637.276	10912.26
637.47	10480.14
637.664	9955.86
637.857	9714.2
638.051	9259.55
638.244	9099.81
638.438	8550.95
638.632	8436.27
638.825	7846.45
639.019	7645.75
639.212	7270.97
639.406	7096.89
639.599	6711.88
639.793	6535.75
639.986	6218.32
640.18	6015.57
640.373	5653.08
640.567	5536.34
640.76	5311.07
640.954	5136.99
641.147	4952.67
641.34	4780.64
641.534	4614.76
641.727	4412.01
641.92	4336.23
642.114	4137.58
642.307	3902.06
642.5	3955.31
642.694	3498.61
642.887	3439.22
643.08	3377.78
643.273	3308.15
643.467	3105.4
643.66	2888.32
643.853	2767.49
644.046	2749.06
644.239	2699.91
644.432	2552.45
644.626	2263.69
644.819	2368.13
645.012	2194.06
645.205	2306.7
645.398	2232.97
645.591	2005.64
645.784	1862.29
645.977	1819.28
646.17	1893.01
646.363	1782.42
646.556	1591.95
646.749	1440.4
646.942	1591.95
647.135	1526.42
647.328	1491.6
647.521	1356.44
647.714	1155.74
647.907	1335.96
648.099	1135.26
648.292	1157.79
648.485	1151.64
648.678	1053.34
648.871	1129.11
649.064	1018.52
649.256	916.12
649.449	928.41
649.642	793.25
649.835	893.6
650.027	838.3
650.22	936.6
650.413	799.39
650.605	840.35
650.798	772.77
650.991	682.66
651.183	588.45
651.376	709.28
651.568	699.04
651.761	547.49
651.954	670.37
652.146	602.79
652.339	606.88
652.531	625.31
652.724	514.72
652.916	430.76
653.109	402.08
653.301	604.83
653.494	524.96
653.686	549.54
653.879	576.16
654.071	512.67
654.263	461.48
654.456	455.33
654.648	441
654.84	432.8
655.033	363.17
655.225	500.39
655.417	279.21
655.61	514.72
655.802	391.84
655.994	475.81
656.186	297.64
656.379	445.09
656.571	258.73
656.763	238.25
656.955	277.16
657.148	301.73
657.34	338.6
657.532	299.69
657.724	256.68
657.916	285.35
658.108	393.89
658.3	324.26
658.492	320.17
658.684	238.25
658.876	283.3
659.068	248.49
659.26	176.81
659.452	277.16
659.644	281.25
659.836	260.77
660.028	254.63
660.22	221.86
660.412	211.62
660.604	221.86
660.796	166.57
660.988	240.3
661.18	238.25
661.372	207.53
661.563	236.2
661.755	174.76
661.947	84.65
662.139	230.06
662.331	197.29
662.522	174.76
662.714	78.51
662.906	178.86
663.097	252.58
663.289	209.58
663.481	156.33
663.673	107.18
663.864	103.08
664.056	189.1
664.247	113.32
664.439	242.34
664.631	242.34
664.822	174.76
665.014	133.8
665.205	180.9
665.397	135.85
665.588	195.24
665.78	166.57
665.971	309.93
666.163	172.71
666.354	180.9
666.546	160.42
666.737	174.76
666.929	195.24
667.12	185
667.311	180.9
667.503	180.9
667.694	201.38
667.885	228.01
668.077	137.9
668.268	53.93
668.459	137.9
668.651	215.72
668.842	166.57
669.033	123.56
669.224	47.79
669.416	326.31
669.607	127.66
669.798	84.65
669.989	291.49
670.18	211.62
670.371	174.76
670.563	123.56
670.754	264.87
670.945	168.62
671.136	273.06
671.327	129.7
671.518	242.34
671.709	176.81
671.9	203.43
672.091	334.5
672.282	98.99
672.473	213.67
672.664	103.08
672.855	221.86
673.046	264.87
673.237	195.24
673.428	273.06
673.619	273.06
673.809	117.42
674	262.82
674.191	250.53
674.382	129.7
674.573	156.33
674.764	189.1
674.954	293.54
675.145	80.55
675.336	215.72
675.527	166.57
675.717	146.09
675.908	137.9
676.099	129.7
676.289	191.14
676.48	129.7
676.671	324.26
676.861	154.28
677.052	191.14
677.243	262.82
677.433	211.62
677.624	271.01
677.814	297.64
678.005	176.81
678.195	373.41
678.386	150.18
678.576	201.38
678.767	154.28
678.957	246.44
679.148	316.07
679.338	328.36
679.529	264.87
679.719	219.82
679.909	371.37
680.1	357.03
680.29	275.11
680.481	203.43
680.671	289.45
680.861	256.68
681.052	344.74
681.242	195.24
681.432	297.64
681.622	324.26
681.813	199.34
682.003	352.93
682.193	191.14
682.383	246.44
682.573	266.92
682.764	242.34
682.954	264.87
683.144	373.41
683.334	271.01
683.524	266.92
683.714	359.08
683.904	348.84
684.094	289.45
684.284	363.17
684.474	428.71
684.664	293.54
684.854	369.32
685.044	170.66
685.234	332.45
685.424	348.84
685.614	264.87
685.804	342.69
685.994	252.58
686.184	252.58
686.374	336.55
686.564	367.27
686.753	320.17
686.943	332.45
687.133	232.1
687.323	332.45
687.513	324.26
687.702	342.69
687.892	340.65
688.082	332.45
688.272	350.89
688.461	338.6
688.651	420.52
688.841	340.65
689.03	230.06
689.22	250.53
689.41	334.5
689.599	428.71
689.789	324.26
689.979	344.74
690.168	348.84
690.358	377.51
690.547	322.21
690.737	348.84
690.926	314.02
691.116	387.75
691.305	373.41
691.495	391.84
691.684	283.3
691.874	344.74
692.063	268.97
692.252	402.08
692.442	357.03
692.631	293.54
692.82	291.49
693.01	352.93
693.199	252.58
693.388	316.07
693.578	260.77
693.767	205.48
693.956	342.69
694.146	275.11
694.335	357.03
694.524	211.62
694.713	354.98
694.902	264.87
695.092	254.63
695.281	209.58
695.47	289.45
695.659	174.76
695.848	197.29
696.037	213.67
696.226	279.21
696.415	236.2
696.604	318.12
696.793	348.84
696.982	215.72
697.171	332.45
697.36	195.24
697.549	279.21
697.738	185
697.927	293.54
698.116	127.66
698.305	324.26
698.494	221.86
698.683	307.88
698.872	359.08
699.061	273.06
699.25	246.44
699.438	260.77
699.627	277.16
699.816	385.7
700.005	135.85
700.193	238.25
700.382	324.26
700.571	350.89
700.76	209.58
700.948	314.02
701.137	236.2
701.326	395.94
701.514	176.81
701.703	254.63
701.892	250.53
702.08	434.85
702.269	154.28
702.457	279.21
702.646	250.53
702.834	232.1
703.023	242.34
703.212	295.59
703.4	123.56
703.589	215.72
703.777	283.3
703.965	287.4
704.154	174.76
704.342	150.18
704.531	211.62
704.719	293.54
704.907	277.16
705.096	94.89
705.284	187.05
705.472	211.62
705.661	291.49
705.849	365.22
706.037	287.4
706.226	268.97
706.414	285.35
706.602	195.24
706.79	334.5
706.979	199.34
707.167	275.11
707.355	121.51
707.543	256.68
707.731	303.78
707.919	287.4
708.107	256.68
708.296	238.25
708.484	244.39
708.672	352.93
708.86	273.06
709.048	271.01
709.236	168.62
709.424	320.17
709.612	246.44
709.8	221.86
709.988	234.15
710.176	344.74
710.364	350.89
710.551	268.97
710.739	230.06
710.927	164.52
711.115	295.59
711.303	340.65
711.491	324.26
711.679	162.47
711.866	357.03
712.054	213.67
712.242	209.58
712.43	314.02
712.617	256.68
712.805	332.45
712.993	232.1
713.181	103.08
713.368	307.88
713.556	250.53
713.744	203.43
713.931	473.76
714.119	318.12
714.306	252.58
714.494	250.53
714.682	297.64
714.869	264.87
715.057	203.43
715.244	156.33
715.432	236.2
715.619	260.77
715.807	289.45
715.994	254.63
716.182	299.69
716.369	303.78
716.556	346.79
716.744	96.94
716.931	228.01
717.119	268.97
717.306	256.68
717.493	320.17
717.681	203.43
717.868	174.76
718.055	289.45
718.242	228.01
718.43	271.01
718.617	357.03
718.804	287.4
718.991	391.84
719.179	330.41
719.366	326.31
719.553	318.12
719.74	283.3
719.927	191.14
720.114	305.83
720.301	213.67
720.488	242.34
720.676	133.8
720.863	320.17
721.05	404.13
721.237	359.08
721.424	340.65
721.611	422.56
721.798	316.07
721.985	256.68
722.172	297.64
722.358	291.49
722.545	283.3
722.732	336.55
722.919	367.27
723.106	336.55
723.293	346.79
723.48	268.97
723.667	277.16
723.853	389.8
724.04	309.93
724.227	361.13
724.414	332.45
724.6	340.65
724.787	416.42
724.974	416.42
725.161	387.75
725.347	291.49
725.534	299.69
725.72	244.39
725.907	330.41
726.094	365.22
726.28	223.91
726.467	365.22
726.653	359.08
726.84	344.74
727.027	453.28
727.213	297.64
727.4	369.32
727.586	316.07
727.773	352.93
727.959	252.58
728.145	289.45
728.332	295.59
728.518	297.64
728.705	369.32
728.891	379.56
729.077	324.26
729.264	182.95
729.45	342.69
729.636	340.65
729.823	299.69
730.009	393.89
730.195	383.65
730.382	289.45
730.568	260.77
730.754	295.59
730.94	252.58
731.126	346.79
731.313	354.98
731.499	373.41
731.685	338.6
731.871	387.75
732.057	369.32
732.243	369.32
732.429	381.6
732.615	389.8
732.801	344.74
732.987	375.46
733.173	375.46
733.359	344.74
733.545	318.12
733.731	326.31
733.917	432.8
734.103	322.21
734.289	365.22
734.475	248.49
734.661	565.92
734.847	283.3
735.033	314.02
735.219	400.04
735.404	354.98
735.59	293.54
735.776	322.21
735.962	297.64
736.148	303.78
736.333	430.76
736.519	434.85
736.705	277.16
736.89	303.78
737.076	342.69
737.262	262.82
737.447	316.07
737.633	225.96
737.819	420.52
738.004	240.3
738.19	354.98
738.375	395.94
738.561	467.62
738.747	316.07
738.932	281.25
739.118	551.59
739.303	352.93
739.489	383.65
739.674	262.82
739.859	195.24
740.045	277.16
740.23	354.98
740.416	254.63
740.601	338.6
740.786	295.59
740.972	320.17
741.157	277.16
741.342	326.31
741.528	223.91
741.713	383.65
741.898	318.12
742.084	256.68
742.269	318.12
742.454	385.7
742.639	461.48
742.824	322.21
743.01	477.86
743.195	332.45
743.38	250.53
743.565	361.13
743.75	338.6
743.935	244.39
744.12	385.7
744.305	311.97
744.49	326.31
744.675	293.54
744.86	271.01
745.045	334.5
745.23	295.59
745.415	307.88
745.6	385.7
745.785	320.17
745.97	373.41
746.155	342.69
746.34	369.32
746.525	303.78
746.71	338.6
746.895	238.25
747.079	246.44
747.264	285.35
747.449	291.49
747.634	400.04
747.819	354.98
748.003	291.49
748.188	199.34
748.373	379.56
748.557	369.32
748.742	228.01
748.927	260.77
749.111	287.4
749.296	334.5
749.481	348.84
749.665	377.51
749.85	211.62
750.034	320.17
750.219	299.69
750.404	238.25
750.588	309.93
750.773	246.44
750.957	238.25
751.141	266.92
751.326	387.75
751.51	148.14
751.695	215.72
751.879	297.64
752.064	432.8
752.248	189.1
752.432	314.02
752.617	283.3
752.801	307.88
752.985	160.42
753.17	363.17
753.354	215.72
753.538	322.21
753.722	209.58
753.907	215.72
754.091	205.48
754.275	279.21
754.459	148.14
754.643	156.33
754.828	187.05
755.012	305.83
755.196	101.03
755.38	225.96
755.564	154.28
755.748	230.06
755.932	348.84
756.116	254.63
756.3	217.77
756.484	119.46
756.668	178.86
756.852	127.66
757.036	219.82
757.22	240.3
757.404	135.85
757.588	154.28
757.772	244.39
757.956	191.14
758.14	289.45
758.323	182.95
758.507	228.01
758.691	129.7
758.875	264.87
759.059	248.49
759.242	162.47
759.426	207.53
759.61	256.68
759.794	125.61
759.977	193.19
760.161	338.6
760.345	254.63
760.528	236.2
760.712	158.38
760.895	172.71
761.079	170.66
761.263	119.46
761.446	70.31
761.63	82.6
761.813	238.25
761.997	-5.46
762.18	107.18
762.364	189.1
762.547	78.51
762.731	176.81
762.914	215.72
763.098	125.61
763.281	185
763.464	127.66
763.648	201.38
763.831	197.29
764.015	162.47
764.198	174.76
764.381	170.66
764.564	178.86
764.748	137.9
764.931	254.63
765.114	27.31
765.297	307.88
765.481	123.56
765.664	29.35
765.847	111.27
766.03	168.62
766.213	115.37
766.397	170.66
766.58	27.31
766.763	162.47
766.946	113.32
767.129	55.98
767.312	68.27
767.495	158.38
767.678	10.92
767.861	141.99
768.044	10.92
768.227	103.08
768.41	121.51
768.593	139.94
768.776	133.8
768.959	103.08
769.142	211.62
769.324	58.03
769.507	98.99
769.69	107.18
769.873	86.7
770.056	277.16
770.239	68.27
770.421	180.9
770.604	117.42
770.787	49.83
770.97	76.46
771.152	98.99
771.335	96.94
771.518	0.68
771.7	150.18
771.883	125.61
772.066	47.79
772.248	137.9
772.431	209.58
772.613	174.76
772.796	187.05
772.978	92.84
773.161	193.19
773.343	19.11
773.526	0.68
773.708	23.21
773.891	31.4
774.073	53.93
774.256	113.32
774.438	225.96
774.621	4.78
774.803	43.69
774.985	33.45
775.168	47.79
775.35	109.23
775.532	113.32
775.715	35.5
775.897	78.51
776.079	109.23
776.261	43.69
776.444	80.55
776.626	94.89
776.808	17.07
776.99	-50.52
777.173	8.87
777.355	105.13
777.537	98.99
777.719	70.31
777.901	113.32
778.083	10.92
778.265	-46.42
778.447	141.99
778.629	31.4
778.811	66.22
778.993	180.9
779.175	119.46
779.357	66.22
779.539	27.31
779.721	-3.41
779.903	107.18
780.085	47.79
780.267	74.41
780.449	182.95
780.631	119.46
780.812	195.24
780.994	92.84
781.176	78.51
781.358	84.65
781.54	70.31
781.721	119.46
781.903	80.55
782.085	37.55
782.267	135.85
782.448	6.83
782.63	-34.13
782.812	107.18
782.993	23.21
783.175	115.37
783.357	74.41
783.538	68.27
783.72	2.73
783.901	88.75
784.083	158.38
784.264	23.21
784.446	-44.37
784.627	-36.18
784.809	58.03
784.99	47.79
785.172	125.61
785.353	72.36
785.535	41.64
785.716	-56.66
785.897	-87.38
786.079	-44.37
786.26	62.12
786.441	78.51
786.623	-40.28
786.804	41.64
786.985	8.87
787.167	101.03
787.348	17.07
787.529	33.45
787.71	164.52
787.891	84.65
788.073	-48.47
788.254	-73.04
788.435	107.18
788.616	25.26
788.797	4.78
788.978	86.7
789.159	60.07
789.34	135.85
789.522	0.68
789.703	25.26
789.884	96.94
790.065	88.75
790.246	133.8
790.427	29.35
790.607	180.9
790.788	60.07
790.969	4.78
791.15	72.36
791.331	-48.47
791.512	12.97
791.693	-124.24
791.874	43.69
792.054	180.9
792.235	107.18
792.416	-46.42
792.597	-9.56
792.778	78.51
792.958	21.16
793.139	43.69
793.32	23.21
793.5	27.31
793.681	82.6
793.862	60.07
794.042	25.26
794.223	-103.76
794.404	23.21
794.584	-23.89
794.765	37.55
794.945	-30.04
795.126	94.89
795.306	105.13
795.487	-1.37
795.667	-3.41
795.848	74.41
796.028	88.75
796.209	31.4
796.389	117.42
796.57	53.93
796.75	6.83
796.93	86.7
797.111	-34.13
797.291	-23.89
797.471	90.79
797.652	-9.56
797.832	-68.95
798.012	101.03
798.192	4.78
798.373	-68.95
798.553	-5.46
798.733	80.55
798.913	-38.23
799.093	-21.85
799.274	-1.37
799.454	66.22
799.634	35.5
799.814	94.89
799.994	101.03
800.174	47.79
800.354	10.92
800.534	-111.96
800.714	74.41
800.894	-120.15
801.074	-9.56
801.254	-34.13
801.434	78.51
801.614	8.87
801.794	-107.86
801.974	1856.14
802.154	43.69
802.334	72.36
802.514	-44.37
802.693	47.79
802.873	33.45
803.053	107.18
803.233	53.93
803.413	39.59
803.592	-52.56
803.772	-71
803.952	15.02
804.131	-21.85
804.311	33.45
804.491	98.99
804.67	-81.24
804.85	-54.61
805.03	-15.7
805.209	25.26
805.389	-17.75
805.568	-9.56
805.748	-5.46
805.928	-11.61
806.107	35.5
806.287	-3.41
806.466	15.02
806.646	-120.15
806.825	82.6
807.004	55.98
807.184	64.17
807.363	141.99
807.543	27.31
807.722	-36.18
807.901	17.07
808.081	39.59
808.26	-165.2
808.439	35.5
808.619	31.4
808.798	-44.37
808.977	31.4
809.156	111.27
809.336	60.07
809.515	-3.41
809.694	-60.76
809.873	-23.89
810.052	49.83
810.231	70.31
810.411	66.22
810.59	121.51
810.769	-54.61
810.948	43.69
811.127	-109.91
811.306	-36.18
811.485	-71
811.664	101.03
811.843	35.5
812.022	27.31
812.201	43.69
812.38	-7.51
812.559	-38.23
812.737	49.83
812.916	-9.56
813.095	-50.52
813.274	58.03
813.453	2.73
813.632	-40.28
813.811	43.69
813.989	-91.48
814.168	4.78
814.347	-15.7
814.526	-44.37
814.704	115.37
814.883	152.23
815.062	-25.94
815.24	60.07
815.419	-132.44
815.598	60.07
815.776	-165.2
815.955	-54.61
816.133	-116.05
816.312	37.55
816.49	-1.37
816.669	47.79
816.847	-19.8
817.026	17.07
817.204	62.12
817.383	-19.8
817.561	-21.85
817.74	-9.56
817.918	148.14
818.097	17.07
818.275	19.11
818.453	31.4
818.632	86.7
818.81	-58.71
818.988	-21.85
819.167	21.16
819.345	25.26
819.523	-77.14
819.701	62.12
819.879	-36.18
820.058	0.68
820.236	-66.9
820.414	-11.61
820.592	43.69
820.77	-5.46
820.948	-9.56
821.127	53.93
821.305	53.93
821.483	-36.18
821.661	31.4
821.839	19.11
822.017	58.03
822.195	-25.94
822.373	74.41
822.551	-21.85
822.729	-9.56
822.907	-48.47
823.085	55.98
823.262	39.59
823.44	-32.08
823.618	60.07
823.796	15.02
823.974	33.45
824.152	-56.66
824.329	-9.56
824.507	29.35
824.685	78.51
824.863	-27.99
825.04	53.93
825.218	25.26
825.396	19.11
825.574	-5.46
825.751	55.98
825.929	105.13
826.107	-7.51
826.284	82.6
826.462	-19.8
826.639	-11.61
826.817	-126.29
826.994	-40.28
827.172	-44.37
827.349	152.23
827.527	47.79
827.704	31.4
827.882	68.27
828.059	27.31
828.237	29.35
828.414	21.16
828.591	-169.3
828.769	21.16
828.946	21.16
829.124	111.27
829.301	6.83
829.478	-1.37
829.655	53.93
829.833	-17.75
830.01	-163.15
830.187	-9.56
830.364	-40.28
830.542	37.55
830.719	88.75
830.896	148.14
831.073	39.59
831.25	72.36
831.427	35.5
831.604	62.12
831.782	-85.33
831.959	53.93
832.136	-87.38
832.313	37.55
832.49	-25.94
832.667	-32.08
832.844	-23.89
833.021	103.08
833.198	49.83
833.374	37.55
833.551	0.68
833.728	43.69
833.905	-46.42
834.082	-161.11
834.259	4.78
834.436	27.31
834.612	-60.76
834.789	176.81
834.966	-1.37
835.143	-52.56
835.319	-21.85
835.496	2.73
835.673	62.12
835.85	96.94
836.026	144.04
836.203	82.6
836.38	-7.51
836.556	6.83
836.733	-40.28
836.909	129.7
837.086	-77.14
837.262	-79.19
837.439	-25.94
837.616	31.4
837.792	39.59
837.968	43.69
838.145	-128.34
838.321	4.78
838.498	25.26
838.674	37.55
838.851	121.51
839.027	-56.66
839.203	15.02
839.38	51.88
839.556	-58.71
839.732	0.68
839.909	-44.37
840.085	29.35
840.261	-60.76
840.437	-9.56
840.614	-34.13
840.79	70.31
840.966	6.83
841.142	39.59
841.318	21.16
841.494	17.07
841.671	49.83
841.847	-95.57
842.023	-58.71
842.199	51.88
842.375	105.13
842.551	-154.96
842.727	-42.32
842.903	115.37
843.079	-19.8
843.255	125.61
843.431	6.83
843.607	74.41
843.783	-128.34
843.959	70.31
844.134	-60.76
844.31	70.31
844.486	-73.04
844.662	-95.57
844.838	25.26
845.013	72.36
845.189	41.64
845.365	-50.52
845.541	-17.75
845.716	37.55
845.892	-11.61
846.068	19.11
846.244	-42.32
846.419	17.07
846.595	-75.09
846.77	-73.04
846.946	49.83
847.122	-79.19
847.297	-75.09
847.473	170.66
847.648	-124.24
847.824	47.79
847.999	-126.29
848.175	-25.94
848.35	51.88
848.526	62.12
848.701	72.36
848.876	10.92
849.052	70.31
849.227	-7.51
849.403	-44.37
849.578	-46.42
849.753	80.55
849.929	17.07
850.104	-42.32
850.279	-120.15
850.454	45.74
850.63	82.6
850.805	-3.41
850.98	-38.23
851.155	-50.52
851.33	12.97
851.505	-40.28
851.681	164.52
851.856	-75.09
852.031	55.98
852.206	-34.13
852.381	-89.43
852.556	-34.13
852.731	10.92
852.906	76.46
853.081	55.98
853.256	119.46
853.431	-27.99
853.606	-36.18
853.781	-21.85
853.956	-64.85
854.131	51.88
854.305	-71
854.48	-27.99
854.655	-85.33
854.83	-7.51
855.005	19.11
855.18	19.11
855.354	-38.23
855.529	17.07
855.704	-73.04
855.879	45.74
856.053	-7.51
856.228	-7.51
856.403	-44.37
856.577	-3.41
856.752	-52.56
856.926	-48.47
857.101	-1.37
857.276	-95.57
857.45	-71
857.625	23.21
857.799	-58.71
857.974	55.98
858.148	-66.9
858.323	6.83
858.497	-77.14
858.672	-71
858.846	-21.85
859.02	117.42
859.195	-21.85
859.369	66.22
859.543	78.51
859.718	-34.13
859.892	19.11
860.066	76.46
860.241	-54.61
860.415	-25.94
860.589	25.26
860.763	-40.28
860.938	-17.75
861.112	-9.56
861.286	-60.76
861.46	-9.56
861.634	8.87
861.808	98.99
861.982	-68.95
862.157	-62.8
862.331	15.02
862.505	-165.2
862.679	-58.71
862.853	-105.81
863.027	-15.7
863.201	133.8
863.375	-54.61
863.549	27.31
863.722	43.69
863.896	88.75
864.07	-30.04
864.244	19.11
864.418	37.55
864.592	17.07
864.766	86.7
864.939	-50.52
865.113	-17.75
865.287	76.46
865.461	-73.04
865.634	19.11
865.808	-103.76
865.982	-85.33
866.156	-101.72
866.329	-93.52
866.503	150.18
866.676	17.07
866.85	101.03
867.024	-7.51
867.197	25.26
867.371	55.98
867.544	2.73
867.718	-77.14
867.891	141.99
868.065	-34.13
868.238	-50.52
868.412	76.46
868.585	-21.85
868.759	-19.8
868.932	-101.72
869.105	-58.71
869.279	6.83
869.452	-77.14
869.625	60.07
869.799	-75.09
869.972	-89.43
870.145	-36.18
870.319	45.74
870.492	45.74
870.665	4.78
870.838	-101.72
871.011	-171.35
871.185	-32.08
871.358	-48.47
871.531	62.12
871.704	-38.23
871.877	-1.37
872.05	-36.18
872.223	-111.96
872.396	45.74
872.569	53.93
872.742	-68.95
872.915	49.83
873.088	-25.94
873.261	-68.95
873.434	115.37
873.607	-23.89
873.78	84.65
873.953	-66.9
874.126	39.59
874.299	58.03
874.471	-54.61
874.644	-64.85
874.817	84.65
874.99	76.46
875.163	2.73
875.335	23.21
875.508	6.83
875.681	207.53
875.853	6.83
876.026	-27.99
876.199	82.6
876.371	29.35
876.544	33.45
876.717	47.79
876.889	37.55
877.062	45.74
877.234	41.64
877.407	12.97
877.579	19.11
877.752	103.08
877.924	-30.04
878.097	25.26
878.269	-7.51
878.442	12.97
878.614	15.02
878.786	29.35
878.959	29.35
879.131	47.79
879.303	-122.2
879.476	-79.19
879.648	47.79
879.82	76.46
879.993	-81.24
880.165	-89.43
880.337	-97.62
880.509	2.73
880.681	-95.57
880.854	-89.43
881.026	86.7
881.198	127.66
881.37	-50.52
881.542	-5.46
881.714	58.03
881.886	-7.51
882.058	-34.13
882.23	-34.13
882.402	-5.46
882.574	-13.65
882.746	43.69
882.918	55.98
883.09	2.73
883.262	-25.94
883.434	-50.52
883.606	-87.38
883.778	8.87
883.95	76.46
884.122	15.02
884.293	148.14
884.465	49.83
884.637	74.41
884.809	0.68
884.98	-64.85
885.152	10.92
885.324	109.23
885.496	-42.32
885.667	6.83
885.839	-77.14
886.011	62.12
886.182	68.27
886.354	45.74
886.525	39.59
886.697	-3.41
886.869	-99.67
887.04	45.74
887.212	37.55
887.383	133.8
887.555	74.41
887.726	-7.51
887.897	-68.95
888.069	-66.9
888.24	64.17
888.412	-11.61
888.583	-116.05
888.754	-77.14
888.926	-52.56
889.097	-34.13
889.268	-79.19
889.44	10.92
889.611	-60.76
889.782	-109.91
889.953	-71
890.125	115.37
890.296	-52.56
890.467	6.83
890.638	-21.85
890.809	0.68
890.98	-52.56
891.151	4.78
891.323	125.61
891.494	-34.13
891.665	-19.8
891.836	51.88
892.007	2.73
892.178	-15.7
892.349	10.92
892.52	-81.24
892.691	76.46
892.862	-36.18
893.032	-122.2
893.203	-36.18
893.374	23.21
893.545	62.12
893.716	-19.8
893.887	-7.51
894.057	31.4
894.228	-27.99
894.399	-1.37
894.57	170.66
894.74	-48.47
894.911	37.55
895.082	-77.14
895.253	-38.23
895.423	-21.85
895.594	60.07
895.764	35.5
895.935	-79.19
896.106	-40.28
896.276	-11.61
896.447	55.98
896.617	-91.48
896.788	-79.19
896.958	-40.28
897.129	15.02
897.299	0.68
897.47	41.64
897.64	74.41
897.81	-62.8
897.981	55.98
898.151	-62.8
898.322	47.79
898.492	62.12
898.662	-34.13
898.832	-56.66
899.003	-5.46
899.173	94.89
899.343	-52.56
899.513	-81.24
