Data from USB4F104151__137__11-03-58-341.txt Node

Date: Wed Feb 26 11:03:58 EST 2025
User: louis
Spectrometer: USB4F10415
Trigger mode: 4
Integration Time (sec): 1.000000E-1
Scans to average: 1
Electric dark correction enabled: true
Nonlinearity correction enabled: false
Boxcar width: 0
XAxis mode: Wavelengths
Number of Pixels in Spectrum: 3648
>>>>>Begin Spectral Data<<<<<
178.204	-314.88
178.424	-314.88
178.644	-314.88
178.864	-396.79
179.084	-351.74
179.304	78.33
179.524	61.95
179.744	10.75
179.964	8.7
180.184	-9.73
180.404	33.28
180.624	4.61
180.844	-28.16
181.064	-67.07
181.283	-30.21
181.503	-114.17
181.723	51.71
181.943	-114.17
182.163	137.73
182.383	49.66
182.602	37.38
182.822	117.25
183.042	78.33
183.262	10.75
183.482	31.23
183.701	-7.68
183.921	64
184.141	-77.31
184.361	139.77
184.58	102.91
184.8	-1.54
185.02	-3.58
185.239	139.77
185.459	53.76
185.679	125.44
185.898	-185.85
186.118	43.52
186.338	35.33
186.557	68.09
186.777	-7.68
186.997	-13.82
187.216	-26.11
187.436	213.5
187.655	53.76
187.875	109.05
188.095	72.19
188.314	205.31
188.534	133.63
188.753	-58.88
188.973	104.96
189.192	133.63
189.412	-13.82
189.631	49.66
189.851	80.38
190.07	178.69
190.29	-40.45
190.509	-7.68
190.729	49.66
190.948	150.01
191.168	143.87
191.387	0.51
191.607	4.61
191.826	72.19
192.045	-22.02
192.265	-3.58
192.484	70.14
192.704	86.53
192.923	-38.4
193.142	174.59
193.362	141.82
193.581	174.59
193.8	141.82
194.02	45.57
194.239	45.57
194.458	109.05
194.678	-15.87
194.897	-13.82
195.116	86.53
195.335	-3.58
195.555	96.77
195.774	-24.06
195.993	14.85
196.212	68.09
196.432	-11.78
196.651	39.42
196.87	4.61
197.089	182.78
197.308	90.62
197.528	90.62
197.747	-81.41
197.966	74.24
198.185	127.49
198.404	-1.54
198.623	133.63
198.842	76.29
199.062	57.86
199.281	188.93
199.5	29.18
199.719	72.19
199.938	-3.58
200.157	31.23
200.376	100.86
200.595	84.48
200.814	135.68
201.033	14.85
201.252	133.63
201.471	121.34
201.69	45.57
201.909	61.95
202.128	76.29
202.347	125.44
202.566	47.62
202.785	-40.45
203.004	31.23
203.223	268.8
203.442	-3.58
203.661	-69.12
203.879	12.8
204.098	190.97
204.317	-42.5
204.536	137.73
204.755	92.67
204.974	49.66
205.193	25.09
205.411	102.91
205.63	78.33
205.849	51.71
206.068	-15.87
206.287	14.85
206.505	64
206.724	45.57
206.943	-3.58
207.162	-11.78
207.381	25.09
207.599	53.76
207.818	25.09
208.037	-30.21
208.255	33.28
208.474	49.66
208.693	55.81
208.911	16.9
209.13	59.9
209.349	162.3
209.567	98.81
209.786	76.29
210.005	94.72
210.223	33.28
210.442	-48.64
210.661	33.28
210.879	31.23
211.098	49.66
211.316	35.33
211.535	131.58
211.753	29.18
211.972	111.1
212.191	-42.5
212.409	82.43
212.628	90.62
212.846	-24.06
213.065	31.23
213.283	160.25
213.502	20.99
213.72	49.66
213.938	33.28
214.157	10.75
214.375	111.1
214.594	35.33
214.812	59.9
215.031	-32.26
215.249	27.14
215.467	88.57
215.686	66.05
215.904	127.49
216.122	16.9
216.341	129.53
216.559	43.52
216.778	80.38
216.996	76.29
217.214	10.75
217.432	8.7
217.651	-62.98
217.869	45.57
218.087	45.57
218.306	-5.63
218.524	39.42
218.742	12.8
218.96	86.53
219.179	-56.83
219.397	59.9
219.615	170.49
219.833	96.77
220.051	-19.97
220.27	55.81
220.488	72.19
220.706	6.66
220.924	41.47
221.142	8.7
221.36	139.77
221.578	82.43
221.796	2.56
222.015	2.56
222.233	141.82
222.451	207.36
222.669	-34.3
222.887	4.61
223.105	41.47
223.323	55.81
223.541	47.62
223.759	84.48
223.977	-24.06
224.195	92.67
224.413	100.86
224.631	47.62
224.849	113.15
225.067	207.36
225.285	-40.45
225.503	6.66
225.721	-114.17
225.939	31.23
226.157	117.25
226.375	209.4
226.592	-22.02
226.81	104.96
227.028	125.44
227.246	121.34
227.464	98.81
227.682	35.33
227.9	61.95
228.117	64
228.335	86.53
228.553	76.29
228.771	37.38
228.989	23.04
229.206	78.33
229.424	4.61
229.642	82.43
229.86	14.85
230.077	154.11
230.295	51.71
230.513	100.86
230.731	70.14
230.948	166.4
231.166	90.62
231.384	-48.64
231.601	-52.74
231.819	158.21
232.037	-11.78
232.254	0.51
232.472	6.66
232.689	-54.78
232.907	178.69
233.125	-22.02
233.342	-36.35
233.56	10.75
233.777	-13.82
233.995	55.81
234.213	119.29
234.43	70.14
234.648	8.7
234.865	-75.26
235.083	86.53
235.3	84.48
235.518	123.39
235.735	127.49
235.953	92.67
236.17	47.62
236.388	29.18
236.605	121.34
236.822	125.44
237.04	164.35
237.257	70.14
237.475	-28.16
237.692	49.66
237.909	170.49
238.127	78.33
238.344	-22.02
238.562	76.29
238.779	-32.26
238.996	-89.6
239.214	31.23
239.431	27.14
239.648	-60.93
239.865	74.24
240.083	51.71
240.3	-54.78
240.517	25.09
240.735	57.86
240.952	182.78
241.169	66.05
241.386	0.51
241.603	4.61
241.821	-11.78
242.038	57.86
242.255	107.01
242.472	-9.73
242.689	27.14
242.907	86.53
243.124	8.7
243.341	23.04
243.558	-46.59
243.775	23.04
243.992	-26.11
244.209	88.57
244.426	141.82
244.643	29.18
244.86	8.7
245.078	104.96
245.295	37.38
245.512	72.19
245.729	-44.54
245.946	72.19
246.163	8.7
246.38	27.14
246.597	90.62
246.814	76.29
247.031	-3.58
247.248	47.62
247.464	123.39
247.681	45.57
247.898	88.57
248.115	64
248.332	80.38
248.549	90.62
248.766	86.53
248.983	82.43
249.2	76.29
249.417	74.24
249.633	-11.78
249.85	78.33
250.067	45.57
250.284	20.99
250.501	49.66
250.717	98.81
250.934	-42.5
251.151	53.76
251.368	35.33
251.585	104.96
251.801	70.14
252.018	0.51
252.235	111.1
252.451	-44.54
252.668	16.9
252.885	217.6
253.102	39.42
253.318	43.52
253.535	39.42
253.752	107.01
253.968	16.9
254.185	-77.31
254.401	16.9
254.618	53.76
254.835	-3.58
255.051	188.93
255.268	68.09
255.484	10.75
255.701	98.81
255.917	20.99
256.134	-5.63
256.351	25.09
256.567	25.09
256.784	43.52
257	-93.69
257.217	135.68
257.433	41.47
257.65	39.42
257.866	139.77
258.082	-103.93
258.299	-79.36
258.515	111.1
258.732	-1.54
258.948	-26.11
259.165	27.14
259.381	-60.93
259.597	59.9
259.814	49.66
260.03	37.38
260.246	78.33
260.463	137.73
260.679	45.57
260.895	31.23
261.112	119.29
261.328	51.71
261.544	20.99
261.761	137.73
261.977	-5.63
262.193	-110.08
262.409	102.91
262.626	123.39
262.842	39.42
263.058	-28.16
263.274	135.68
263.49	135.68
263.707	18.94
263.923	113.15
264.139	-24.06
264.355	31.23
264.571	133.63
264.787	2.56
265.004	111.1
265.22	51.71
265.436	35.33
265.652	41.47
265.868	31.23
266.084	-60.93
266.3	16.9
266.516	-1.54
266.732	4.61
266.948	98.81
267.164	-36.35
267.38	68.09
267.596	61.95
267.812	205.31
268.028	51.71
268.244	-32.26
268.46	113.15
268.676	18.94
268.892	-1.54
269.108	-40.45
269.324	37.38
269.54	-19.97
269.756	119.29
269.972	-15.87
270.188	-32.26
270.403	-83.45
270.619	14.85
270.835	70.14
271.051	20.99
271.267	8.7
271.483	39.42
271.698	107.01
271.914	12.8
272.13	-65.02
272.346	6.66
272.562	102.91
272.777	98.81
272.993	49.66
273.209	8.7
273.425	66.05
273.64	-9.73
273.856	82.43
274.072	-48.64
274.287	-15.87
274.503	57.86
274.719	45.57
274.934	-52.74
275.15	-155.13
275.366	43.52
275.581	-65.02
275.797	-54.78
276.012	-1.54
276.228	29.18
276.444	39.42
276.659	107.01
276.875	-52.74
277.09	23.04
277.306	10.75
277.521	94.72
277.737	90.62
277.952	74.24
278.168	41.47
278.383	41.47
278.599	12.8
278.814	-1.54
279.03	25.09
279.245	236.03
279.461	29.18
279.676	45.57
279.892	-65.02
280.107	23.04
280.322	51.71
280.538	131.58
280.753	33.28
280.969	12.8
281.184	39.42
281.399	152.06
281.615	43.52
281.83	74.24
282.045	-7.68
282.26	-34.3
282.476	39.42
282.691	115.2
282.906	16.9
283.122	88.57
283.337	82.43
283.552	16.9
283.767	-15.87
283.983	186.88
284.198	82.43
284.413	86.53
284.628	33.28
284.843	47.62
285.058	39.42
285.274	-3.58
285.489	-38.4
285.704	125.44
285.919	14.85
286.134	45.57
286.349	31.23
286.564	-22.02
286.779	145.92
286.995	18.94
287.21	-34.3
287.425	121.34
287.64	47.62
287.855	55.81
288.07	-73.21
288.285	195.07
288.5	133.63
288.715	117.25
288.93	72.19
289.145	-34.3
289.36	57.86
289.575	53.76
289.79	139.77
290.004	29.18
290.219	199.16
290.434	-42.5
290.649	-42.5
290.864	23.04
291.079	-7.68
291.294	55.81
291.509	92.67
291.724	45.57
291.938	-42.5
292.153	86.53
292.368	29.18
292.583	57.86
292.798	49.66
293.012	49.66
293.227	-34.3
293.442	-38.4
293.657	39.42
293.871	158.21
294.086	61.95
294.301	170.49
294.516	104.96
294.73	68.09
294.945	-9.73
295.16	4.61
295.374	92.67
295.589	90.62
295.804	-9.73
296.018	-28.16
296.233	76.29
296.447	119.29
296.662	16.9
296.877	115.2
297.091	29.18
297.306	12.8
297.52	64
297.735	121.34
297.949	2.56
298.164	94.72
298.378	133.63
298.593	-28.16
298.807	35.33
299.022	43.52
299.236	154.11
299.451	-13.82
299.665	18.94
299.88	-38.4
300.094	104.96
300.309	35.33
300.523	55.81
300.737	33.28
300.952	53.76
301.166	70.14
301.381	-95.74
301.595	23.04
301.809	25.09
302.024	-7.68
302.238	-32.26
302.452	100.86
302.667	8.7
302.881	160.25
303.095	84.48
303.309	16.9
303.524	-58.88
303.738	-28.16
303.952	-44.54
304.166	143.87
304.381	-130.56
304.595	170.49
304.809	14.85
305.023	55.81
305.237	-13.82
305.452	-1.54
305.666	160.25
305.88	35.33
306.094	160.25
306.308	55.81
306.522	72.19
306.736	94.72
306.95	131.58
307.164	-36.35
307.379	18.94
307.593	55.81
307.807	117.25
308.021	59.9
308.235	55.81
308.449	-52.74
308.663	45.57
308.877	86.53
309.091	-32.26
309.305	123.39
309.519	-60.93
309.733	111.1
309.947	-108.03
310.161	4.61
310.374	113.15
310.588	117.25
310.802	0.51
311.016	-19.97
311.23	78.33
311.444	8.7
311.658	57.86
311.872	119.29
312.085	53.76
312.299	90.62
312.513	66.05
312.727	94.72
312.941	-28.16
313.154	74.24
313.368	18.94
313.582	66.05
313.796	107.01
314.009	27.14
314.223	123.39
314.437	64
314.651	53.76
314.864	4.61
315.078	12.8
315.292	-54.78
315.505	-9.73
315.719	8.7
315.933	23.04
316.146	-36.35
316.36	-32.26
316.573	152.06
316.787	23.04
317.001	35.33
317.214	-101.89
317.428	78.33
317.641	-48.64
317.855	-52.74
318.068	61.95
318.282	2.56
318.495	104.96
318.709	76.29
318.922	8.7
319.136	141.82
319.349	20.99
319.563	-19.97
319.776	70.14
319.99	-128.51
320.203	104.96
320.417	-15.87
320.63	109.05
320.843	150.01
321.057	78.33
321.27	51.71
321.483	74.24
321.697	156.16
321.91	76.29
322.124	68.09
322.337	35.33
322.55	-9.73
322.763	98.81
322.977	25.09
323.19	0.51
323.403	12.8
323.617	70.14
323.83	66.05
324.043	29.18
324.256	27.14
324.469	45.57
324.683	199.16
324.896	-30.21
325.109	37.38
325.322	-3.58
325.535	98.81
325.748	82.43
325.962	49.66
326.175	49.66
326.388	-13.82
326.601	113.15
326.814	27.14
327.027	100.86
327.24	117.25
327.453	-69.12
327.666	41.47
327.879	100.86
328.092	92.67
328.305	176.64
328.518	0.51
328.731	-15.87
328.944	-3.58
329.157	72.19
329.37	-50.69
329.583	70.14
329.796	80.38
330.009	-9.73
330.222	49.66
330.435	61.95
330.648	104.96
330.861	12.8
331.073	14.85
331.286	90.62
331.499	29.18
331.712	-26.11
331.925	-3.58
332.138	53.76
332.35	84.48
332.563	-38.4
332.776	156.16
332.989	-15.87
333.202	31.23
333.414	41.47
333.627	35.33
333.84	84.48
334.053	45.57
334.265	53.76
334.478	-13.82
334.691	-40.45
334.903	-30.21
335.116	39.42
335.329	2.56
335.541	39.42
335.754	88.57
335.966	-67.07
336.179	88.57
336.392	45.57
336.604	8.7
336.817	68.09
337.029	2.56
337.242	125.44
337.454	72.19
337.667	125.44
337.88	170.49
338.092	96.77
338.305	86.53
338.517	-26.11
338.729	107.01
338.942	162.3
339.154	31.23
339.367	-73.21
339.579	55.81
339.792	14.85
340.004	51.71
340.217	35.33
340.429	29.18
340.641	-24.06
340.854	-11.78
341.066	-42.5
341.278	100.86
341.491	209.4
341.703	20.99
341.915	37.38
342.128	119.29
342.34	61.95
342.552	-3.58
342.764	31.23
342.977	80.38
343.189	29.18
343.401	33.28
343.613	-56.83
343.826	29.18
344.038	-15.87
344.25	53.76
344.462	2.56
344.674	137.73
344.886	4.61
345.099	117.25
345.311	92.67
345.523	82.43
345.735	-62.98
345.947	100.86
346.159	133.63
346.371	78.33
346.583	-13.82
346.795	164.35
347.007	-11.78
347.219	37.38
347.431	49.66
347.643	139.77
347.855	14.85
348.067	186.88
348.279	-52.74
348.491	104.96
348.703	76.29
348.915	-11.78
349.127	-48.64
349.339	119.29
349.551	41.47
349.763	100.86
349.975	-17.92
350.187	94.72
350.399	137.73
350.61	100.86
350.822	-40.45
351.034	27.14
351.246	4.61
351.458	20.99
351.669	29.18
351.881	88.57
352.093	139.77
352.305	102.91
352.517	86.53
352.728	195.07
352.94	170.49
353.152	100.86
353.363	8.7
353.575	147.97
353.787	100.86
353.999	96.77
354.21	225.79
354.422	29.18
354.633	25.09
354.845	55.81
355.057	41.47
355.268	64
355.48	68.09
355.692	-32.26
355.903	64
356.115	-22.02
356.326	-69.12
356.538	80.38
356.749	152.06
356.961	8.7
357.172	6.66
357.384	-7.68
357.595	186.88
357.807	31.23
358.018	14.85
358.23	25.09
358.441	72.19
358.653	57.86
358.864	27.14
359.075	-46.59
359.287	33.28
359.498	25.09
359.709	115.2
359.921	68.09
360.132	20.99
360.344	76.29
360.555	4.61
360.766	-62.98
360.977	45.57
361.189	168.45
361.4	-40.45
361.611	133.63
361.823	109.05
362.034	39.42
362.245	-3.58
362.456	4.61
362.667	35.33
362.879	-46.59
363.09	18.94
363.301	70.14
363.512	43.52
363.723	35.33
363.935	-62.98
364.146	53.76
364.357	72.19
364.568	6.66
364.779	-79.36
364.99	90.62
365.201	80.38
365.412	160.25
365.623	-146.94
365.834	84.48
366.045	80.38
366.256	72.19
366.467	152.06
366.678	8.7
366.889	74.24
367.1	-5.63
367.311	100.86
367.522	2.56
367.733	76.29
367.944	86.53
368.155	-44.54
368.366	43.52
368.577	102.91
368.788	76.29
368.999	4.61
369.209	-3.58
369.42	156.16
369.631	225.79
369.842	47.62
370.053	27.14
370.264	49.66
370.474	43.52
370.685	33.28
370.896	102.91
371.107	133.63
371.317	47.62
371.528	-11.78
371.739	143.87
371.95	45.57
372.16	51.71
372.371	-114.17
372.582	16.9
372.792	43.52
373.003	-11.78
373.214	72.19
373.424	156.16
373.635	-24.06
373.846	145.92
374.056	14.85
374.267	74.24
374.477	115.2
374.688	6.66
374.898	-24.06
375.109	47.62
375.319	8.7
375.53	168.45
375.74	66.05
375.951	-7.68
376.161	35.33
376.372	68.09
376.582	-40.45
376.793	113.15
377.003	-7.68
377.214	-24.06
377.424	20.99
377.635	29.18
377.845	4.61
378.055	199.16
378.266	-42.5
378.476	41.47
378.686	107.01
378.897	16.9
379.107	152.06
379.317	74.24
379.528	16.9
379.738	100.86
379.948	-28.16
380.158	100.86
380.369	-13.82
380.579	25.09
380.789	84.48
380.999	92.67
381.21	55.81
381.42	166.4
381.63	-1.54
381.84	82.43
382.05	143.87
382.261	104.96
382.471	121.34
382.681	51.71
382.891	174.59
383.101	104.96
383.311	27.14
383.521	-5.63
383.731	147.97
383.941	109.05
384.151	70.14
384.361	33.28
384.571	98.81
384.781	51.71
384.991	119.29
385.201	240.12
385.411	133.63
385.621	37.38
385.831	41.47
386.041	96.77
386.251	31.23
386.461	166.4
386.671	141.82
386.881	14.85
387.091	55.81
387.301	47.62
387.511	84.48
387.72	49.66
387.93	92.67
388.14	-22.02
388.35	-28.16
388.56	104.96
388.769	170.49
388.979	20.99
389.189	23.04
389.399	0.51
389.609	115.2
389.818	64
390.028	20.99
390.238	182.78
390.447	-13.82
390.657	113.15
390.867	31.23
391.076	0.51
391.286	82.43
391.496	47.62
391.705	80.38
391.915	119.29
392.125	74.24
392.334	43.52
392.544	150.01
392.753	10.75
392.963	-3.58
393.172	16.9
393.382	25.09
393.591	236.03
393.801	-34.3
394.01	98.81
394.22	41.47
394.429	94.72
394.639	72.19
394.848	84.48
395.058	147.97
395.267	-60.93
395.477	8.7
395.686	82.43
395.895	168.45
396.105	162.3
396.314	88.57
396.524	90.62
396.733	29.18
396.942	150.01
397.152	84.48
397.361	141.82
397.57	27.14
397.78	-13.82
397.989	27.14
398.198	188.93
398.407	-34.3
398.617	20.99
398.826	6.66
399.035	-26.11
399.244	115.2
399.453	76.29
399.663	70.14
399.872	125.44
400.081	-81.41
400.29	139.77
400.499	-99.84
400.708	119.29
400.917	35.33
401.127	12.8
401.336	-42.5
401.545	176.64
401.754	143.87
401.963	84.48
402.172	72.19
402.381	78.33
402.59	4.61
402.799	29.18
403.008	125.44
403.217	6.66
403.426	47.62
403.635	-9.73
403.844	25.09
404.053	162.3
404.262	-24.06
404.471	180.73
404.68	33.28
404.888	45.57
405.097	51.71
405.306	29.18
405.515	90.62
405.724	-7.68
405.933	68.09
406.142	137.73
406.35	152.06
406.559	14.85
406.768	72.19
406.977	178.69
407.185	45.57
407.394	45.57
407.603	-36.35
407.812	94.72
408.02	113.15
408.229	-24.06
408.438	41.47
408.646	25.09
408.855	43.52
409.064	100.86
409.272	39.42
409.481	98.81
409.69	-24.06
409.898	-11.78
410.107	72.19
410.315	141.82
410.524	-5.63
410.733	115.2
410.941	-30.21
411.15	111.1
411.358	59.9
411.567	156.16
411.775	-17.92
411.984	14.85
412.192	121.34
412.401	-30.21
412.609	131.58
412.818	129.53
413.026	61.95
413.234	18.94
413.443	55.81
413.651	2.56
413.86	53.76
414.068	164.35
414.276	182.78
414.485	25.09
414.693	170.49
414.901	213.5
415.11	98.81
415.318	-9.73
415.526	94.72
415.734	68.09
415.943	123.39
416.151	123.39
416.359	59.9
416.567	57.86
416.776	121.34
416.984	127.49
417.192	121.34
417.4	12.8
417.608	135.68
417.817	-9.73
418.025	94.72
418.233	250.36
418.441	-19.97
418.649	-30.21
418.857	49.66
419.065	137.73
419.273	-24.06
419.481	111.1
419.689	-11.78
419.897	59.9
420.105	-40.45
420.313	166.4
420.521	127.49
420.729	125.44
420.937	-3.58
421.145	-11.78
421.353	102.91
421.561	209.4
421.769	150.01
421.977	2.56
422.185	33.28
422.393	84.48
422.601	141.82
422.809	39.42
423.017	64
423.224	70.14
423.432	150.01
423.64	88.57
423.848	207.36
424.056	-38.4
424.263	55.81
424.471	41.47
424.679	158.21
424.887	-56.83
425.094	176.64
425.302	98.81
425.51	100.86
425.718	176.64
425.925	102.91
426.133	-22.02
426.341	305.66
426.548	23.04
426.756	37.38
426.964	109.05
427.171	6.66
427.379	41.47
427.586	35.33
427.794	158.21
428.001	123.39
428.209	143.87
428.417	152.06
428.624	168.45
428.832	113.15
429.039	86.53
429.247	102.91
429.454	133.63
429.662	217.6
429.869	139.77
430.076	121.34
430.284	172.54
430.491	86.53
430.699	168.45
430.906	176.64
431.114	121.34
431.321	160.25
431.528	127.49
431.736	123.39
431.943	174.59
432.15	211.45
432.358	176.64
432.565	262.65
432.772	102.91
432.979	172.54
433.187	166.4
433.394	207.36
433.601	172.54
433.808	193.02
434.016	270.84
434.223	213.5
434.43	193.02
434.637	246.27
434.844	227.84
435.052	276.99
435.259	360.95
435.466	225.79
435.673	315.9
435.88	268.8
436.087	360.95
436.294	360.95
436.501	326.14
436.708	262.65
436.915	463.35
437.122	399.87
437.329	238.08
437.537	248.32
437.743	301.56
437.95	381.43
438.157	391.67
438.364	358.91
438.571	401.91
438.778	371.19
438.985	444.92
439.192	453.11
439.399	459.26
439.606	477.69
439.813	465.4
440.02	530.94
440.227	588.28
440.433	494.07
440.64	440.83
440.847	496.12
441.054	559.61
441.261	692.73
441.467	610.81
441.674	563.7
441.881	709.11
442.088	645.62
442.294	700.92
442.501	758.26
442.708	797.17
442.914	772.6
443.121	739.83
443.328	862.71
443.534	971.25
443.741	838.13
443.948	844.28
444.154	1044.98
444.361	1081.84
444.568	1016.3
444.774	1047.02
444.981	907.76
445.187	1114.61
445.394	1069.55
445.6	1141.23
445.807	1362.41
446.013	1157.61
446.22	1178.09
446.426	1339.88
446.633	1516.01
446.839	1659.37
447.046	1374.7
447.252	1554.92
447.459	1548.78
447.665	1694.18
447.871	1741.29
448.078	1880.55
448.284	1692.13
448.491	2060.77
448.697	2073.06
448.903	2083.3
449.11	2091.49
449.316	2068.96
449.522	2265.57
449.728	2339.29
449.935	2472.41
450.141	2445.79
450.347	2628.06
450.553	2572.76
450.76	2669.02
450.966	2720.21
451.172	2937.3
451.378	3084.75
451.584	2996.69
451.791	3299.79
451.997	3344.84
452.203	3385.8
452.409	3672.52
452.615	3891.65
452.821	3709.38
453.027	3639.75
453.233	4217.28
453.44	4098.5
453.646	4368.83
453.852	4491.71
454.058	4661.69
454.264	4809.14
454.47	5171.63
454.676	5097.91
454.882	5624.23
455.088	5300.66
455.294	5695.91
455.5	5896.61
455.705	6408.61
455.911	6322.59
456.117	6418.85
456.323	6738.33
456.529	6793.62
456.735	7303.57
456.941	7618.96
457.147	7934.34
457.352	8020.36
457.558	8331.65
457.764	8933.75
457.97	9042.29
458.176	9257.33
458.381	9904.49
458.587	10391.91
458.793	10455.39
458.999	10670.43
459.204	11786.57
459.41	12040.52
459.616	12081.48
459.821	12794.17
460.027	13392.18
460.233	14076.2
460.438	14242.09
460.644	14989.6
460.85	14866.72
461.055	15507.73
461.261	16279.82
461.466	15993.1
461.672	16398.6
461.878	18260.2
462.083	18030.83
462.289	18430.18
462.494	19304.67
462.7	19292.38
462.905	19554.52
463.111	21323.96
463.316	22173.87
463.522	22780.07
463.727	23158.94
463.932	24273.04
464.138	24889.48
464.343	26052.72
464.549	25964.66
464.754	27848.79
464.959	28653.64
465.165	29169.73
465.37	28702.79
465.575	29108.29
465.781	30885.93
465.986	31799.32
466.191	30959.66
466.397	31852.57
466.602	30804.01
466.807	32567.31
467.012	32849.93
467.218	33255.43
467.423	33685.5
467.628	34469.87
467.833	36286.42
468.038	35756
468.244	34885.61
468.449	36839.37
468.654	35997.66
468.859	35887.07
469.064	36272.09
469.269	34887.66
469.474	35325.92
469.679	36251.61
469.885	35096.55
470.09	35555.3
470.295	35637.22
470.5	35315.69
470.705	35065.83
470.91	34260.98
471.115	33857.53
471.32	34009.08
471.525	34273.27
471.73	33294.34
471.935	33052.68
472.139	32002.07
472.344	31799.32
472.549	31791.13
472.754	31019.05
472.959	30060.6
473.164	29421.63
473.369	28780.62
473.574	29315.14
473.778	28856.39
473.983	28371.02
474.188	28080.21
474.393	26470.51
474.598	26404.97
474.802	25794.68
475.007	25512.06
475.212	25176.19
475.417	24000.66
475.621	23963.79
475.826	23840.92
476.031	23269.53
476.235	22638.76
476.44	22472.87
476.645	22266.03
476.849	21739.7
477.054	21518.52
477.259	21088.45
477.463	20951.23
477.668	20236.49
477.872	20631.75
478.077	19644.63
478.282	19163.36
478.486	19142.88
478.691	18823.39
478.895	18682.08
479.1	18620.64
479.304	18180.33
479.509	17871.09
479.713	18071.79
479.918	17836.27
480.122	17375.48
480.326	17412.34
480.531	17613.04
480.735	17268.98
480.94	17000.7
481.144	17443.06
481.348	16501
481.553	16730.37
481.757	16210.18
481.961	16572.68
482.166	16345.35
482.37	16218.38
482.574	15702.29
482.778	15595.79
482.983	15747.34
483.187	15823.12
483.391	15595.79
483.595	15329.56
483.8	15061.27
484.004	15231.26
484.208	15145.24
484.412	14965.02
484.616	14815.52
484.821	14520.61
485.025	13924.65
485.229	14434.6
485.433	13748.53
485.637	13824.3
485.841	13756.72
486.045	13562.16
486.249	13248.82
486.453	13019.45
486.657	12953.91
486.861	13050.17
487.065	12265.8
487.269	12423.49
487.473	12048.71
487.677	12001.61
487.881	12273.99
488.085	11690.32
488.289	11549.01
488.493	11241.81
488.697	11143.51
488.901	10930.52
489.105	10586.46
489.309	10328.42
489.512	10674.53
489.716	10338.66
489.92	9777.51
490.124	9836.91
490.328	9740.65
490.531	9396.59
490.735	9216.37
490.939	9222.52
491.143	8939.9
491.346	8765.82
491.55	9060.73
491.754	8565.12
491.958	8524.16
492.161	8411.52
492.365	8321.41
492.569	7926.15
492.772	7897.48
492.976	7862.66
493.18	7729.55
493.383	7721.35
493.587	7664.01
493.79	7559.56
493.994	7213.46
494.197	7362.96
494.401	7408.01
494.605	7256.47
494.808	7131.54
495.012	7070.1
495.215	7082.39
495.419	6979.99
495.622	6924.69
495.825	6998.42
496.029	6859.16
496.232	6904.21
496.436	6775.19
496.639	6914.45
496.843	6662.55
497.046	6670.75
497.249	6979.99
497.453	6879.64
497.656	6844.82
497.859	6853.02
498.063	6873.5
498.266	6848.92
498.469	6730.14
498.673	6959.51
498.876	7084.44
499.079	6889.88
499.282	6930.84
499.485	7240.08
499.689	7221.65
499.892	7340.43
500.095	7088.53
500.298	7250.32
500.501	7098.77
500.705	7526.8
500.908	7399.82
501.111	7491.98
501.314	7528.85
501.517	7721.35
501.72	7844.23
501.923	7764.36
502.126	7934.34
502.329	8216.96
502.532	8182.15
502.735	8188.29
502.938	8374.66
503.141	8470.91
503.344	8534.4
503.547	8632.7
503.75	8659.32
503.953	8784.25
504.156	9075.06
504.359	9070.97
504.562	9290.1
504.765	9288.05
504.968	9593.2
505.17	9582.96
505.373	9644.4
505.576	10002.79
505.779	9965.93
505.982	10264.93
506.185	10355.04
506.387	10625.37
506.59	10840.41
506.793	11123.03
506.996	11235.67
507.198	11696.46
507.401	11702.61
507.604	11911.5
507.807	12058.95
508.009	12265.8
508.212	12529.98
508.415	12890.43
508.617	13111.61
508.82	13166.9
509.022	13474.1
509.225	13795.63
509.428	14260.52
509.63	14485.79
509.833	14698.78
510.035	15253.78
510.238	15438.1
510.44	15612.18
510.643	16212.23
510.845	16744.7
511.048	16908.54
511.25	17365.24
511.453	17357.05
511.655	18350.31
511.858	18477.29
512.06	19097.82
512.262	19392.73
512.465	19499.22
512.667	20508.87
512.87	20283.59
513.072	20990.14
513.274	21981.36
513.477	22304.94
513.679	22528.17
513.881	23218.33
514.084	23779.48
514.286	23892.12
514.488	24426.64
514.69	25331.84
514.893	25677.94
515.095	25872.5
515.297	26796.14
515.499	27230.3
515.701	27719.77
515.904	28543.05
516.106	29192.26
516.308	29519.93
516.51	30296.11
516.712	30697.52
516.914	31875.1
517.116	32184.34
517.318	32856.07
517.52	33294.34
517.722	33835
517.925	34756.59
518.127	35039.21
518.329	35897.31
518.531	36218.84
518.733	37287.88
518.935	37670.85
519.136	37842.88
519.338	38729.65
519.54	39290.79
519.742	40314.78
519.944	40357.78
520.146	41627.52
520.348	41615.24
520.55	42172.28
520.752	42612.6
520.954	43573.1
521.155	43614.05
521.357	44570.46
521.559	44840.79
521.761	45662.02
521.963	45762.37
522.164	45909.83
522.366	46245.69
522.568	47085.36
522.77	47142.7
522.971	48109.35
523.173	47808.29
523.375	48322.33
523.576	48240.42
523.778	48492.32
523.98	48863
524.181	49254.16
524.383	49305.36
524.584	49848.07
524.786	49608.46
524.988	49299.22
525.189	49518.35
525.391	49991.43
525.592	50409.21
525.794	50046.72
525.995	49735.43
526.197	49571.6
526.398	49915.65
526.6	50071.3
526.801	49604.36
527.003	49762.06
527.204	49346.32
527.406	49612.55
527.607	49004.31
527.808	49035.03
528.01	48035.62
528.211	48097.06
528.412	48539.42
528.614	47959.84
528.815	47884.07
529.016	47679.27
529.218	46663.48
529.419	46722.87
529.62	46186.3
529.822	45713.22
530.023	45164.37
530.224	44758.87
530.425	44738.39
530.626	43616.1
530.828	43630.44
531.029	43939.68
531.23	42794.87
531.431	42035.07
531.632	42020.73
531.833	41539.46
532.035	40800.15
532.236	40382.36
532.437	40083.36
532.638	39059.37
532.839	38924.21
533.04	38606.77
533.241	37566.4
533.442	37738.43
533.643	37195.72
533.844	36224.98
534.045	36300.76
534.246	35385.32
534.447	34992.11
534.648	34476.02
534.849	33998.84
535.05	33249.28
535.251	33378.31
535.451	32544.78
535.652	32450.58
535.853	32086.04
536.054	32032.79
536.255	31033.38
536.456	30226.48
536.657	30545.97
536.857	30013.49
537.058	29153.35
537.259	29558.84
537.46	28827.72
537.66	28170.32
537.861	28000.34
538.062	27551.84
538.263	27498.59
538.463	27072.61
538.664	26531.95
538.865	25897.08
539.065	25956.47
539.266	25471.1
539.466	25354.37
539.667	24672.39
539.868	24613
540.068	24584.33
540.269	23974.03
540.469	23715.99
540.67	23425.18
540.87	23070.88
541.071	23036.06
541.271	22751.4
541.472	22257.84
541.672	22210.73
541.873	21942.45
542.073	21319.87
542.274	21287.1
542.474	21137.6
542.675	20900.03
542.875	20795.59
543.075	20383.94
543.276	20261.07
543.476	20107.47
543.676	19398.87
543.877	19570.9
544.077	19392.73
544.277	19278.04
544.478	18872.54
544.678	18448.61
544.878	18518.25
545.078	18362.6
545.279	18067.69
545.479	17791.22
545.679	17645.81
545.879	17441.01
546.079	17160.44
546.28	16861.44
546.48	16646.4
546.68	16767.23
546.88	16414.98
547.08	16281.86
547.28	16204.04
547.48	15767.82
547.68	15548.69
547.88	15171.86
548.081	15288.6
548.281	14899.48
548.481	14780.7
548.681	14758.17
548.881	14367.01
549.081	14324.01
549.28	14022.95
549.48	13844.78
549.68	13760.81
549.88	13615.41
550.08	13418.8
550.28	13275.45
550.48	12941.63
550.68	12851.52
550.88	12570.94
551.08	12618.05
551.279	12347.72
551.479	12149.06
551.679	11985.23
551.879	11483.47
552.079	11524.43
552.278	11379.03
552.478	11391.31
552.678	11317.59
552.878	11104.6
553.077	10791.26
553.277	10432.86
553.477	10533.22
553.676	10541.41
553.876	10041.7
554.076	9834.86
554.275	9783.66
554.475	9314.67
554.674	9511.28
554.874	9333.11
555.074	9199.99
555.273	8941.94
555.473	8993.14
555.672	8665.47
555.872	8739.19
556.071	8653.18
556.271	8515.97
556.47	8223.11
556.67	8063.36
556.869	7866.76
557.068	7760.27
557.268	7569.8
557.467	7510.41
557.667	7428.49
557.866	7322
558.065	7006.61
558.265	7043.48
558.464	6850.97
558.663	6955.41
558.863	6523.29
559.062	6764.95
559.261	6461.85
559.461	6443.42
559.66	6334.88
559.859	6140.32
560.058	6066.6
560.258	5908.9
560.457	5964.2
560.656	5841.32
560.855	5589.42
561.054	5747.11
561.253	5599.66
561.453	5558.7
561.652	5452.2
561.851	5335.47
562.05	5089.71
562.249	5071.28
562.448	5069.23
562.647	5126.58
562.846	5007.8
563.045	4809.14
563.244	4782.52
563.443	4780.47
563.642	4585.91
563.841	4522.43
564.04	4495.8
564.239	4422.08
564.438	4395.45
564.637	4198.85
564.836	4268.48
565.035	4118.98
565.234	3996.1
565.432	4002.24
565.631	4014.53
565.83	3944.9
566.029	3813.83
566.228	3793.35
566.427	3789.25
566.625	3705.29
566.824	3555.79
567.023	3742.15
567.222	3465.68
567.42	3527.11
567.619	3447.24
567.818	3520.97
568.016	3555.79
568.215	3301.84
568.414	3314.13
568.612	3160.53
568.811	3113.42
569.01	3156.43
569.208	3088.85
569.407	3066.32
569.605	3080.66
569.804	2959.83
570.002	2832.85
570.201	2724.31
570.4	2945.49
570.598	2732.5
570.797	2693.59
570.995	2656.73
571.193	2638.3
571.392	2576.86
571.59	2468.31
571.789	2595.29
571.987	2552.28
572.186	2413.02
572.384	2386.4
572.582	2306.52
572.781	2408.92
572.979	2265.57
573.177	2228.7
573.376	2204.13
573.574	2300.38
573.772	2218.46
573.971	2144.74
574.169	1982.95
574.367	2050.53
574.565	2032.1
574.763	1921.51
574.962	1853.92
575.16	1956.32
575.358	1847.78
575.556	1757.67
575.754	1802.72
575.952	1729
576.151	1769.96
576.349	1761.77
576.547	1659.37
576.745	1690.09
576.943	1675.75
577.141	1624.55
577.339	1509.86
577.537	1645.03
577.735	1690.09
577.933	1536.49
578.131	1520.1
578.329	1645.03
578.527	1524.2
578.725	1542.63
578.923	1278.44
579.121	1352.17
579.319	1251.82
579.516	1266.16
579.714	1518.06
579.912	1329.64
580.11	1192.43
580.308	1214.96
580.506	1174
580.704	1135.09
580.901	1202.67
581.099	1307.12
581.297	1171.95
581.495	1110.51
581.692	1163.76
581.89	1339.88
582.088	1202.67
582.285	1147.37
582.483	1100.27
582.681	1051.12
582.878	1073.65
583.076	1069.55
583.274	1079.79
583.471	1098.22
583.669	1112.56
583.866	965.11
584.064	930.29
584.262	930.29
584.459	831.99
584.657	958.96
584.854	954.87
585.052	1004.02
585.249	913.91
585.447	909.81
585.644	694.77
585.841	881.14
586.039	922.1
586.236	948.72
586.434	834.04
586.631	705.01
586.828	768.5
587.026	791.03
587.223	709.11
587.42	709.11
587.618	817.65
587.815	868.85
588.012	668.15
588.21	686.58
588.407	709.11
588.604	838.13
588.801	604.66
588.999	643.57
589.196	756.21
589.393	631.29
589.59	694.77
589.787	616.95
589.984	684.53
590.182	586.23
590.379	655.86
590.576	666.1
590.773	604.66
590.97	637.43
591.167	709.11
591.364	764.4
591.561	707.06
591.758	711.16
591.955	717.3
592.152	690.68
592.349	594.42
592.546	614.9
592.743	584.18
592.94	682.49
593.137	684.53
593.334	711.16
593.531	723.44
593.727	616.95
593.924	680.44
594.121	612.85
594.318	590.33
594.515	655.86
594.712	805.36
594.908	805.36
595.105	502.26
595.302	752.12
595.499	731.64
595.696	813.56
595.892	735.73
596.089	811.51
596.286	653.81
596.482	809.46
596.679	877.04
596.876	723.44
597.072	854.51
597.269	782.84
597.466	887.28
597.662	848.37
597.859	813.56
598.055	883.19
598.252	1042.93
598.448	942.58
598.645	1051.12
598.841	1145.33
599.038	1200.62
599.234	1212.91
599.431	1171.95
599.627	1241.58
599.824	1294.83
600.02	1221.1
600.217	1337.84
600.413	1444.33
600.609	1487.34
600.806	1815.01
601.002	1575.4
601.198	1565.16
601.395	1745.38
601.591	1702.37
601.787	1726.95
601.984	1952.23
602.18	1941.99
602.376	1958.37
602.572	2165.21
602.769	2181.6
602.965	2247.13
603.161	2271.71
603.357	2279.9
603.553	2546.14
603.75	2470.36
603.946	2613.72
604.142	2712.02
604.338	2963.92
604.534	2863.57
604.73	2908.63
604.926	2982.35
605.122	3154.38
605.318	3318.22
605.514	3408.33
605.71	3363.28
605.906	3527.11
606.102	3719.62
606.298	3770.82
606.494	3961.28
606.69	4090.31
606.886	4157.89
607.082	4194.75
607.278	4256.19
607.474	4424.12
607.67	4520.38
607.866	4518.33
608.062	4811.19
608.257	4909.49
608.453	4788.66
608.649	5233.07
608.845	5188.02
609.041	5441.96
609.236	5587.37
609.432	5775.78
609.628	6013.35
609.824	6046.12
610.019	6052.26
610.215	6295.97
610.411	6635.93
610.606	6783.38
610.802	6959.51
610.998	7098.77
611.193	7254.42
611.389	7557.52
611.584	7774.6
611.78	7645.58
611.976	8046.98
612.171	8472.96
612.367	8272.26
612.562	8700.28
612.758	8731
612.953	8831.35
613.149	9310.58
613.344	9173.36
613.539	9695.6
613.735	10047.85
613.93	10463.58
614.126	10590.56
614.321	10946.9
614.517	11247.96
614.712	11438.42
614.907	11573.58
615.103	12247.37
615.298	12081.48
615.493	12640.58
615.688	12632.38
615.884	13316.4
616.079	13222.2
616.274	13877.55
616.47	14129.45
616.665	14545.19
616.86	14905.63
617.055	15292.69
617.25	15585.55
617.445	15974.67
617.641	16216.33
617.836	17051.9
618.031	17125.63
618.226	17719.54
618.421	18014.45
618.616	18489.57
618.811	18688.23
619.006	19513.56
619.201	19376.34
619.396	20091.09
619.591	20043.98
619.786	21053.63
619.981	21348.54
620.176	21979.31
620.371	22075.57
620.566	22747.3
620.761	22896.8
620.956	23845.01
621.151	23611.54
621.346	24463.5
621.541	24676.49
621.735	25499.77
621.93	25499.77
622.125	26359.92
622.32	26597.48
622.515	27224.16
622.709	27742.3
622.904	28227.67
623.099	28465.23
623.294	29061.19
623.488	29311.04
623.683	30113.84
623.878	30464.05
624.072	31244.32
624.267	31264.8
624.462	31662.11
624.656	32282.64
624.851	33083.4
625.046	33163.27
625.24	33994.75
625.435	33964.03
625.629	34580.46
625.824	35180.52
626.018	35330.02
626.213	35336.16
626.407	36179.93
626.602	36327.38
626.796	36693.97
626.991	36986.83
627.185	37414.85
627.38	37353.41
627.574	37779.39
627.768	37658.56
627.963	37795.78
628.157	37593.03
628.352	38279.1
628.546	37441.48
628.74	38029.24
628.935	37103.56
629.129	37998.52
629.323	37031.88
629.517	36956.11
629.712	36820.94
629.906	36136.92
630.1	35776.48
630.294	36046.81
630.489	34942.95
630.683	34555.89
630.877	34199.54
631.071	33208.33
631.265	32864.27
631.459	31731.74
631.653	31215.65
631.848	30650.41
632.042	29255.75
632.236	28868.68
632.43	27877.46
632.624	27222.11
632.818	26230.9
633.012	25182.34
633.206	24346.76
633.4	23838.87
633.594	22837.41
633.788	22059.18
633.982	21231.8
634.176	20777.15
634.369	19689.68
634.563	18968.8
634.757	18133.23
634.951	17590.52
635.145	16914.69
635.339	16179.47
635.533	15642.9
635.726	15044.89
635.92	14293.29
636.114	13680.94
636.308	13287.73
636.501	12495.17
636.695	12173.64
636.889	11583.82
637.083	11116.89
637.276	10496.35
637.47	10080.61
637.664	9757.04
637.857	9439.6
638.051	9181.56
638.244	8706.43
638.438	8133
638.632	8026.5
638.825	7559.56
639.019	7506.32
639.212	6951.32
639.406	6822.3
639.599	6408.61
639.793	6263.2
639.986	5984.68
640.18	5900.71
640.373	5497.26
640.567	5284.27
640.76	5134.77
640.954	4780.47
641.147	4614.59
641.34	4657.59
641.534	4469.18
641.727	4377.02
641.92	4035.01
642.114	4080.07
642.307	3805.64
642.5	3566.03
642.694	3318.22
642.887	3441.1
643.08	3373.52
643.273	3248.59
643.467	2941.4
643.66	2728.41
643.853	2761.17
644.046	2689.49
644.239	2578.9
644.432	2386.4
644.626	2212.32
644.819	2208.22
645.012	2148.83
645.205	2021.86
645.398	2056.67
645.591	1991.14
645.784	1737.19
645.977	1798.63
646.17	1712.61
646.363	1685.99
646.556	1589.74
646.749	1503.72
646.942	1507.82
647.135	1464.81
647.328	1391.08
647.521	1255.92
647.714	1245.68
647.907	1194.48
648.099	1118.7
648.292	1227.25
648.485	1137.13
648.678	1057.26
648.871	991.73
649.064	948.72
649.256	954.87
649.449	877.04
649.642	758.26
649.835	848.37
650.027	721.4
650.22	799.22
650.413	737.78
650.605	743.92
650.798	637.43
650.991	717.3
651.183	709.11
651.376	584.18
651.568	684.53
651.761	537.08
651.954	526.84
652.146	633.33
652.339	559.61
652.531	526.84
652.724	526.84
652.916	428.54
653.109	299.52
653.301	571.9
653.494	553.46
653.686	408.06
653.879	524.79
654.071	457.21
654.263	326.14
654.456	389.63
654.648	440.83
654.84	422.39
655.033	326.14
655.225	383.48
655.417	344.57
655.61	393.72
655.802	446.97
655.994	524.79
656.186	279.04
656.379	444.92
656.571	268.8
656.763	301.56
656.955	231.93
657.148	274.94
657.34	313.85
657.532	242.17
657.724	274.94
657.916	217.6
658.108	326.14
658.3	350.71
658.492	307.71
658.684	213.5
658.876	303.61
659.068	57.86
659.26	176.64
659.452	154.11
659.644	182.78
659.836	385.53
660.028	186.88
660.22	135.68
660.412	219.64
660.604	225.79
660.796	186.88
660.988	281.08
661.18	221.69
661.372	305.66
661.563	203.26
661.755	121.34
661.947	88.57
662.139	137.73
662.331	119.29
662.522	217.6
662.714	139.77
662.906	178.69
663.097	145.92
663.289	170.49
663.481	6.66
663.673	184.83
663.864	170.49
664.056	225.79
664.247	55.81
664.439	233.98
664.631	176.64
664.822	156.16
665.014	193.02
665.205	133.63
665.397	125.44
665.588	193.02
665.78	129.53
665.971	164.35
666.163	154.11
666.354	86.53
666.546	178.69
666.737	111.1
666.929	137.73
667.12	37.38
667.311	156.16
667.503	100.86
667.694	115.2
667.885	135.68
668.077	102.91
668.268	45.57
668.459	45.57
668.651	176.64
668.842	154.11
669.033	70.14
669.224	64
669.416	190.97
669.607	96.77
669.798	82.43
669.989	182.78
670.18	76.29
670.371	197.12
670.563	-3.58
670.754	141.82
670.945	125.44
671.136	193.02
671.327	92.67
671.518	61.95
671.709	236.03
671.9	295.42
672.091	258.56
672.282	127.49
672.473	178.69
672.664	70.14
672.855	35.33
673.046	248.32
673.237	219.64
673.428	104.96
673.619	135.68
673.809	145.92
674	172.54
674.191	156.16
674.382	176.64
674.573	100.86
674.764	70.14
674.954	188.93
675.145	74.24
675.336	90.62
675.527	78.33
675.717	74.24
675.908	25.09
676.099	45.57
676.289	78.33
676.48	10.75
676.671	100.86
676.861	121.34
677.052	131.58
677.243	-11.78
677.433	70.14
677.624	139.77
677.814	125.44
678.005	147.97
678.195	283.13
678.386	88.57
678.576	131.58
678.767	6.66
678.957	197.12
679.148	201.21
679.338	242.17
679.529	145.92
679.719	125.44
679.909	143.87
680.1	227.84
680.29	219.64
680.481	43.52
680.671	188.93
680.861	113.15
681.052	164.35
681.242	68.09
681.432	223.74
681.622	143.87
681.813	6.66
682.003	111.1
682.193	61.95
682.383	111.1
682.573	78.33
682.764	145.92
682.954	104.96
683.144	229.88
683.334	195.07
683.524	190.97
683.714	231.93
683.904	139.77
684.094	131.58
684.284	264.7
684.474	264.7
684.664	205.31
684.854	152.06
685.044	166.4
685.234	137.73
685.424	195.07
685.614	41.47
685.804	328.19
685.994	299.52
686.184	113.15
686.374	217.6
686.564	115.2
686.753	109.05
686.943	125.44
687.133	131.58
687.323	164.35
687.513	180.73
687.702	180.73
687.892	160.25
688.082	227.84
688.272	162.3
688.461	190.97
688.651	258.56
688.841	287.23
689.03	174.59
689.22	137.73
689.41	207.36
689.599	276.99
689.789	72.19
689.979	315.9
690.168	162.3
690.358	160.25
690.547	186.88
690.737	199.16
690.926	242.17
691.116	252.41
691.305	147.97
691.495	127.49
691.684	51.71
691.874	92.67
692.063	129.53
692.252	279.04
692.442	219.64
692.631	141.82
692.82	107.01
693.01	193.02
693.199	203.26
693.388	211.45
693.578	125.44
693.767	215.55
693.956	213.5
694.146	139.77
694.335	209.4
694.524	131.58
694.713	197.12
694.902	176.64
695.092	125.44
695.281	176.64
695.47	156.16
695.659	82.43
695.848	172.54
696.037	109.05
696.226	205.31
696.415	178.69
696.604	223.74
696.793	217.6
696.982	123.39
697.171	279.04
697.36	135.68
697.549	160.25
697.738	-7.68
697.927	152.06
698.116	135.68
698.305	168.45
698.494	178.69
698.683	147.97
698.872	295.42
699.061	92.67
699.25	184.83
699.438	174.59
699.627	39.42
699.816	315.9
700.005	59.9
700.193	143.87
700.382	203.26
700.571	160.25
700.76	242.17
700.948	258.56
701.137	231.93
701.326	176.64
701.514	133.63
701.703	225.79
701.892	156.16
702.08	289.28
702.269	119.29
702.457	61.95
702.646	143.87
702.834	188.93
703.023	129.53
703.212	238.08
703.4	156.16
703.589	213.5
703.777	86.53
703.965	72.19
704.154	133.63
704.342	37.38
704.531	127.49
704.719	240.12
704.907	156.16
705.096	98.81
705.284	12.8
705.472	193.02
705.661	143.87
705.849	242.17
706.037	281.08
706.226	193.02
706.414	168.45
706.602	143.87
706.79	190.97
706.979	211.45
707.167	246.27
707.355	68.09
707.543	227.84
707.731	217.6
707.919	156.16
708.107	147.97
708.296	150.01
708.484	31.23
708.672	225.79
708.86	121.34
709.048	119.29
709.236	8.7
709.424	225.79
709.612	231.93
709.8	117.25
709.988	109.05
710.176	209.4
710.364	209.4
710.551	190.97
710.739	190.97
710.927	123.39
711.115	170.49
711.303	268.8
711.491	238.08
711.679	68.09
711.866	256.51
712.054	160.25
712.242	217.6
712.43	145.92
712.617	174.59
712.805	201.21
712.993	176.64
713.181	68.09
713.368	242.17
713.556	152.06
713.744	88.57
713.931	406.01
714.119	168.45
714.306	119.29
714.494	172.54
714.682	47.62
714.869	84.48
715.057	242.17
715.244	100.86
715.432	233.98
715.619	74.24
715.807	182.78
715.994	125.44
716.182	184.83
716.369	219.64
716.556	256.51
716.744	107.01
716.931	152.06
717.119	225.79
717.306	180.73
717.493	201.21
717.681	133.63
717.868	66.05
718.055	283.13
718.242	215.55
718.43	266.75
718.617	170.49
718.804	160.25
718.991	313.85
719.179	193.02
719.366	274.94
719.553	233.98
719.74	178.69
719.927	182.78
720.114	201.21
720.301	139.77
720.488	111.1
720.676	49.66
720.863	291.32
721.05	352.76
721.237	211.45
721.424	197.12
721.611	207.36
721.798	72.19
721.985	61.95
722.172	205.31
722.358	217.6
722.545	180.73
722.732	113.15
722.919	219.64
723.106	190.97
723.293	182.78
723.48	201.21
723.667	205.31
723.853	223.74
724.04	205.31
724.227	231.93
724.414	186.88
724.6	217.6
724.787	332.28
724.974	371.19
725.161	162.3
725.347	147.97
725.534	209.4
725.72	272.89
725.907	227.84
726.094	166.4
726.28	197.12
726.467	248.32
726.653	49.66
726.84	291.32
727.027	303.61
727.213	186.88
727.4	201.21
727.586	233.98
727.773	219.64
727.959	272.89
728.145	143.87
728.332	199.16
728.518	180.73
728.705	182.78
728.891	209.4
729.077	199.16
729.264	137.73
729.45	188.93
729.636	352.76
729.823	170.49
730.009	236.03
730.195	182.78
730.382	197.12
730.568	74.24
730.754	107.01
730.94	143.87
731.126	293.37
731.313	244.22
731.499	166.4
731.685	213.5
731.871	242.17
732.057	317.95
732.243	211.45
732.429	195.07
732.615	375.29
732.801	289.28
732.987	178.69
733.173	121.34
733.359	154.11
733.545	184.83
733.731	190.97
733.917	338.43
734.103	213.5
734.289	217.6
734.475	88.57
734.661	338.43
734.847	225.79
735.033	217.6
735.219	285.18
735.404	162.3
735.59	209.4
735.776	258.56
735.962	231.93
736.148	197.12
736.333	291.32
736.519	86.53
736.705	242.17
736.89	203.26
737.076	170.49
737.262	221.69
737.447	150.01
737.633	127.49
737.819	289.28
738.004	211.45
738.19	209.4
738.375	174.59
738.561	340.47
738.747	172.54
738.932	92.67
739.118	346.62
739.303	227.84
739.489	223.74
739.674	190.97
739.859	186.88
740.045	340.47
740.23	137.73
740.416	82.43
740.601	231.93
740.786	195.07
740.972	168.45
741.157	125.44
741.342	195.07
741.528	102.91
741.713	256.51
741.898	119.29
742.084	207.36
742.269	358.91
742.454	285.18
742.639	313.85
742.824	213.5
743.01	317.95
743.195	332.28
743.38	190.97
743.565	227.84
743.75	197.12
743.935	260.6
744.12	315.9
744.305	176.64
744.49	178.69
744.675	207.36
744.86	180.73
745.045	295.42
745.23	182.78
745.415	229.88
745.6	246.27
745.785	156.16
745.97	285.18
746.155	184.83
746.34	279.04
746.525	217.6
746.71	283.13
746.895	86.53
747.079	186.88
747.264	164.35
747.449	307.71
747.634	293.37
747.819	289.28
748.003	150.01
748.188	121.34
748.373	242.17
748.557	213.5
748.742	209.4
748.927	209.4
749.111	92.67
749.296	160.25
749.481	264.7
749.665	182.78
749.85	133.63
750.034	162.3
750.219	156.16
750.404	193.02
750.588	229.88
750.773	133.63
750.957	199.16
751.141	154.11
751.326	225.79
751.51	109.05
751.695	88.57
751.879	152.06
752.064	246.27
752.248	186.88
752.432	254.46
752.617	150.01
752.801	205.31
752.985	172.54
753.17	229.88
753.354	168.45
753.538	170.49
753.722	172.54
753.907	123.39
754.091	102.91
754.275	217.6
754.459	72.19
754.643	98.81
754.828	162.3
755.012	176.64
755.196	76.29
755.38	213.5
755.564	66.05
755.748	125.44
755.932	174.59
756.116	199.16
756.3	221.69
756.484	55.81
756.668	147.97
756.852	-22.02
757.036	125.44
757.22	111.1
757.404	64
757.588	78.33
757.772	150.01
757.956	74.24
758.14	342.52
758.323	57.86
758.507	193.02
758.691	59.9
758.875	152.06
759.059	260.6
759.242	125.44
759.426	74.24
759.61	152.06
759.794	94.72
759.977	190.97
760.161	397.82
760.345	174.59
760.528	221.69
760.712	139.77
760.895	184.83
761.079	131.58
761.263	115.2
761.446	98.81
761.63	98.81
761.813	186.88
761.997	0.51
762.18	127.49
762.364	164.35
762.547	6.66
762.731	135.68
762.914	25.09
763.098	154.11
763.281	104.96
763.464	78.33
763.648	82.43
763.831	92.67
764.015	102.91
764.198	84.48
764.381	64
764.564	127.49
764.748	119.29
764.931	119.29
765.114	184.83
765.297	137.73
765.481	41.47
765.664	152.06
765.847	82.43
766.03	209.4
766.213	27.14
766.397	72.19
766.58	49.66
766.763	168.45
766.946	104.96
767.129	72.19
767.312	-17.92
767.495	121.34
767.678	41.47
767.861	41.47
768.044	94.72
768.227	100.86
768.41	82.43
768.593	164.35
768.776	72.19
768.959	80.38
769.142	145.92
769.324	20.99
769.507	72.19
769.69	-44.54
769.873	55.81
770.056	233.98
770.239	8.7
770.421	107.01
770.604	82.43
770.787	45.57
770.97	49.66
771.152	4.61
771.335	84.48
771.518	45.57
771.7	174.59
771.883	145.92
772.066	-36.35
772.248	12.8
772.431	268.8
772.613	74.24
772.796	111.1
772.978	125.44
773.161	201.21
773.343	35.33
773.526	66.05
773.708	-42.5
773.891	-3.58
774.073	98.81
774.256	47.62
774.438	199.16
774.621	76.29
774.803	39.42
774.985	27.14
775.168	170.49
775.35	80.38
775.532	66.05
775.715	45.57
775.897	131.58
776.079	45.57
776.261	45.57
776.444	6.66
776.626	31.23
776.808	154.11
776.99	0.51
777.173	109.05
777.355	72.19
777.537	100.86
777.719	98.81
777.901	27.14
778.083	61.95
778.265	-7.68
778.447	137.73
778.629	4.61
778.811	158.21
778.993	102.91
779.175	150.01
779.357	47.62
779.539	8.7
779.721	35.33
779.903	51.71
780.085	80.38
780.267	70.14
780.449	102.91
780.631	80.38
780.812	100.86
780.994	37.38
781.176	-60.93
781.358	45.57
781.54	45.57
781.721	78.33
781.903	119.29
782.085	4.61
782.267	57.86
782.448	8.7
782.63	20.99
782.812	113.15
782.993	55.81
783.175	29.18
783.357	8.7
783.538	35.33
783.72	72.19
783.901	59.9
784.083	90.62
784.264	-15.87
784.446	-48.64
784.627	57.86
784.809	10.75
784.99	45.57
785.172	78.33
785.353	35.33
785.535	12.8
785.716	0.51
785.897	-34.3
786.079	49.66
786.26	59.9
786.441	78.33
786.623	-34.3
786.804	-3.58
786.985	8.7
787.167	78.33
787.348	16.9
787.529	-1.54
787.71	197.12
787.891	115.2
788.073	4.61
788.254	-79.36
788.435	109.05
788.616	45.57
788.797	-36.35
788.978	74.24
789.159	27.14
789.34	102.91
789.522	-85.5
789.703	16.9
789.884	-11.78
790.065	-5.63
790.246	193.02
790.427	-26.11
790.607	147.97
790.788	156.16
790.969	-75.26
791.15	55.81
791.331	39.42
791.512	74.24
791.693	51.71
791.874	-32.26
792.054	152.06
792.235	92.67
792.416	-19.97
792.597	-44.54
792.778	115.2
792.958	78.33
793.139	20.99
793.32	66.05
793.5	-48.64
793.681	90.62
793.862	0.51
794.042	55.81
794.223	-30.21
794.404	-19.97
794.584	-38.4
794.765	12.8
794.945	92.67
795.126	94.72
795.306	20.99
795.487	-5.63
795.667	-73.21
795.848	29.18
796.028	8.7
796.209	59.9
796.389	102.91
796.57	-3.58
796.75	0.51
796.93	51.71
797.111	-38.4
797.291	-15.87
797.471	107.01
797.652	-9.73
797.832	18.94
798.012	119.29
798.192	29.18
798.373	-116.22
798.553	-50.69
798.733	55.81
798.913	-48.64
799.093	8.7
799.274	-22.02
799.454	-5.63
799.634	20.99
799.814	96.77
799.994	102.91
800.174	88.57
800.354	45.57
800.534	-22.02
800.714	137.73
800.894	-118.27
801.074	-38.4
801.254	-30.21
801.434	152.06
801.614	-44.54
801.794	12.8
801.974	1884.64
802.154	-48.64
802.334	74.24
802.514	-15.87
802.693	6.66
802.873	-122.37
803.053	66.05
803.233	2.56
803.413	-17.92
803.592	-36.35
803.772	-15.87
803.952	43.52
804.131	-36.35
804.311	78.33
804.491	117.25
804.67	-73.21
804.85	-91.65
805.03	10.75
805.209	76.29
805.389	33.28
805.568	-11.78
805.748	-5.63
805.928	-26.11
806.107	74.24
806.287	59.9
806.466	37.38
806.646	-138.75
806.825	-24.06
807.004	-71.17
807.184	66.05
807.363	117.25
807.543	33.28
807.722	-56.83
807.901	74.24
808.081	23.04
808.26	-89.6
808.439	8.7
808.619	20.99
808.798	-38.4
808.977	88.57
809.156	59.9
809.336	20.99
809.515	96.77
809.694	-91.65
809.873	-83.45
810.052	49.66
810.231	16.9
810.411	-7.68
810.59	131.58
810.769	-22.02
810.948	51.71
811.127	-71.17
811.306	-42.5
811.485	8.7
811.664	164.35
811.843	43.52
812.022	49.66
812.201	-48.64
812.38	4.61
812.559	-52.74
812.737	43.52
812.916	-122.37
813.095	-69.12
813.274	29.18
813.453	20.99
813.632	8.7
813.811	66.05
813.989	-140.8
814.168	-11.78
814.347	-99.84
814.526	-28.16
814.704	82.43
814.883	154.11
815.062	-19.97
815.24	14.85
815.419	-67.07
815.598	43.52
815.776	-97.79
815.955	-34.3
816.133	-91.65
816.312	29.18
816.49	39.42
816.669	39.42
816.847	-83.45
817.026	78.33
817.204	-67.07
817.383	2.56
817.561	-36.35
817.74	59.9
817.918	31.23
818.097	-34.3
818.275	-89.6
818.453	53.76
818.632	41.47
818.81	-69.12
818.988	-30.21
819.167	-28.16
819.345	6.66
819.523	-7.68
819.701	-17.92
819.879	-83.45
820.058	25.09
820.236	35.33
820.414	35.33
820.592	-48.64
820.77	-73.21
820.948	-9.73
821.127	-85.5
821.305	33.28
821.483	-71.17
821.661	8.7
821.839	-26.11
822.017	-9.73
822.195	-48.64
822.373	141.82
822.551	12.8
822.729	86.53
822.907	-58.88
823.085	31.23
823.262	27.14
823.44	-19.97
823.618	-11.78
823.796	-1.54
823.974	-19.97
824.152	-81.41
824.329	14.85
824.507	78.33
824.685	74.24
824.863	-54.78
825.04	-40.45
825.218	45.57
825.396	94.72
825.574	29.18
825.751	55.81
825.929	49.66
826.107	-163.33
826.284	18.94
826.462	20.99
826.639	-48.64
826.817	-99.84
826.994	-69.12
827.172	-103.93
827.349	98.81
827.527	-24.06
827.704	4.61
827.882	39.42
828.059	-15.87
828.237	-48.64
828.414	29.18
828.591	-26.11
828.769	27.14
828.946	-116.22
829.124	70.14
829.301	29.18
829.478	45.57
829.655	45.57
829.833	98.81
830.01	-67.07
830.187	-24.06
830.364	-3.58
830.542	20.99
830.719	125.44
830.896	20.99
831.073	117.25
831.25	96.77
831.427	70.14
831.604	10.75
831.782	-69.12
831.959	59.9
832.136	-38.4
832.313	4.61
832.49	-26.11
832.667	-3.58
832.844	-38.4
833.021	68.09
833.198	-3.58
833.374	-11.78
833.551	4.61
833.728	-24.06
833.905	33.28
834.082	-81.41
834.259	37.38
834.436	61.95
834.612	-108.03
834.789	119.29
834.966	-48.64
835.143	12.8
835.319	-108.03
835.496	98.81
835.673	45.57
835.85	-48.64
836.026	-17.92
836.203	162.3
836.38	-7.68
836.556	51.71
836.733	-40.45
836.909	98.81
837.086	-54.78
837.262	-62.98
837.439	25.09
837.616	-73.21
837.792	25.09
837.968	47.62
838.145	-128.51
838.321	16.9
838.498	57.86
838.674	66.05
838.851	-26.11
839.027	-17.92
839.203	-7.68
839.38	23.04
839.556	-26.11
839.732	27.14
839.909	-17.92
840.085	25.09
840.261	16.9
840.437	41.47
840.614	45.57
840.79	96.77
840.966	61.95
841.142	8.7
841.318	-34.3
841.494	47.62
841.671	41.47
841.847	-65.02
842.023	-69.12
842.199	90.62
842.375	150.01
842.551	-85.5
842.727	-40.45
842.903	18.94
843.079	-46.59
843.255	80.38
843.431	55.81
843.607	-19.97
843.783	-134.65
843.959	100.86
844.134	-1.54
844.31	92.67
844.486	-34.3
844.662	-48.64
844.838	29.18
845.013	-36.35
845.189	-11.78
845.365	23.04
845.541	-52.74
845.716	-11.78
845.892	53.76
846.068	-79.36
846.244	-52.74
846.419	-9.73
846.595	-67.07
846.77	-112.13
846.946	115.2
847.122	-71.17
847.297	37.38
847.473	107.01
847.648	-116.22
847.824	109.05
847.999	-151.04
848.175	25.09
848.35	-36.35
848.526	94.72
848.701	66.05
848.876	18.94
849.052	66.05
849.227	-24.06
849.403	2.56
849.578	-36.35
849.753	61.95
849.929	107.01
850.104	-140.8
850.279	-9.73
850.454	-26.11
850.63	2.56
850.805	-15.87
850.98	45.57
851.155	-7.68
851.33	31.23
851.505	-79.36
851.681	125.44
851.856	-110.08
852.031	12.8
852.206	-40.45
852.381	-13.82
852.556	-71.17
852.731	14.85
852.906	55.81
853.081	4.61
853.256	135.68
853.431	10.75
853.606	-44.54
853.781	-79.36
853.956	-77.31
854.131	80.38
854.305	-17.92
854.48	-34.3
854.655	10.75
854.83	-116.22
855.005	41.47
855.18	-24.06
855.354	-30.21
855.529	23.04
855.704	-26.11
855.879	47.62
856.053	-101.89
856.228	-13.82
856.403	-83.45
856.577	49.66
856.752	-116.22
856.926	-13.82
857.101	39.42
857.276	-79.36
857.45	-13.82
857.625	57.86
857.799	-11.78
857.974	-28.16
858.148	-134.65
858.323	8.7
858.497	-60.93
858.672	-91.65
858.846	-7.68
859.02	-30.21
859.195	-38.4
859.369	12.8
859.543	12.8
859.718	29.18
859.892	37.38
860.066	37.38
860.241	-148.99
860.415	-28.16
860.589	-67.07
860.763	-48.64
860.938	8.7
861.112	16.9
861.286	-30.21
861.46	8.7
861.634	-34.3
861.808	133.63
861.982	-24.06
862.157	-122.37
862.331	-24.06
862.505	-58.88
862.679	-134.65
862.853	-71.17
863.027	-34.3
863.201	111.1
863.375	-114.17
863.549	68.09
863.722	64
863.896	53.76
864.07	-126.46
864.244	-15.87
864.418	10.75
864.592	-77.31
864.766	92.67
864.939	-28.16
865.113	6.66
865.287	129.53
865.461	-120.32
865.634	23.04
865.808	-19.97
865.982	-56.83
866.156	-65.02
866.329	-89.6
866.503	4.61
866.676	43.52
866.85	100.86
867.024	-38.4
867.197	-34.3
867.371	18.94
867.544	-28.16
867.718	-19.97
867.891	25.09
868.065	-58.88
868.238	-62.98
868.412	59.9
868.585	0.51
868.759	-60.93
868.932	-15.87
869.105	-58.88
869.279	39.42
869.452	18.94
869.625	-7.68
869.799	16.9
869.972	-146.94
870.145	20.99
870.319	2.56
870.492	18.94
870.665	-105.98
870.838	-93.69
871.011	-105.98
871.185	29.18
871.358	-26.11
871.531	12.8
871.704	-30.21
871.877	47.62
872.05	29.18
872.223	-62.98
872.396	92.67
872.569	57.86
872.742	-167.42
872.915	25.09
873.088	-3.58
873.261	-75.26
873.434	-7.68
873.607	-40.45
873.78	78.33
873.953	-87.55
874.126	14.85
874.299	35.33
874.471	-62.98
874.644	-38.4
874.817	4.61
874.99	215.55
875.163	-71.17
875.335	6.66
875.508	-3.58
875.681	96.77
875.853	10.75
876.026	-77.31
876.199	-46.59
876.371	-22.02
876.544	-44.54
876.717	6.66
876.889	-3.58
877.062	2.56
877.234	-42.5
877.407	-85.5
877.579	-46.59
877.752	10.75
877.924	59.9
878.097	47.62
878.269	76.29
878.442	-24.06
878.614	-11.78
878.786	49.66
878.959	31.23
879.131	2.56
879.303	-196.09
879.476	-65.02
879.648	39.42
879.82	-11.78
879.993	-60.93
880.165	-50.69
880.337	-153.09
880.509	66.05
880.681	-103.93
880.854	-112.13
881.026	55.81
881.198	94.72
881.37	-58.88
881.542	-46.59
881.714	-28.16
881.886	20.99
882.058	29.18
882.23	27.14
882.402	-56.83
882.574	-28.16
882.746	160.25
882.918	61.95
883.09	51.71
883.262	8.7
883.434	-24.06
883.606	-114.17
883.778	-3.58
883.95	98.81
884.122	-19.97
884.293	72.19
884.465	14.85
884.637	18.94
884.809	20.99
884.98	25.09
885.152	35.33
885.324	35.33
885.496	-46.59
885.667	-73.21
885.839	-28.16
886.011	121.34
886.182	-13.82
886.354	55.81
886.525	-1.54
886.697	20.99
886.869	-32.26
887.04	-67.07
887.212	176.64
887.383	164.35
887.555	-7.68
887.726	-15.87
887.897	-95.74
888.069	41.47
888.24	8.7
888.412	8.7
888.583	-60.93
888.754	-67.07
888.926	-93.69
889.097	4.61
889.268	-99.84
889.44	72.19
889.611	-50.69
889.782	-52.74
889.953	-24.06
890.125	94.72
890.296	-36.35
890.467	6.66
890.638	-38.4
890.809	-13.82
890.98	-7.68
891.151	-28.16
891.323	96.77
891.494	25.09
891.665	0.51
891.836	-75.26
892.007	-77.31
892.178	-3.58
892.349	-87.55
892.52	-165.37
892.691	4.61
892.862	-50.69
893.032	-69.12
893.203	-22.02
893.374	-15.87
893.545	133.63
893.716	2.56
893.887	-13.82
894.057	-40.45
894.228	-17.92
894.399	-48.64
894.57	66.05
894.74	-67.07
894.911	31.23
895.082	-58.88
895.253	-50.69
895.423	92.67
895.594	4.61
895.764	-40.45
895.935	-114.17
896.106	88.57
896.276	-189.95
896.447	33.28
896.617	-52.74
896.788	27.14
896.958	-32.26
897.129	-77.31
897.299	-126.46
897.47	2.56
897.64	68.09
897.81	-22.02
897.981	14.85
898.151	-11.78
898.322	14.85
898.492	-13.82
898.662	-58.88
898.832	-3.58
899.003	18.94
899.173	20.99
899.343	-40.45
899.513	-58.88
