Data from USB4F104151__233__11-06-24-424.txt Node

Date: Wed Feb 26 11:06:24 EST 2025
User: louis
Spectrometer: USB4F10415
Trigger mode: 4
Integration Time (sec): 1.000000E-1
Scans to average: 1
Electric dark correction enabled: true
Nonlinearity correction enabled: false
Boxcar width: 0
XAxis mode: Wavelengths
Number of Pixels in Spectrum: 3648
>>>>>Begin Spectral Data<<<<<
178.204	-356.52
178.424	-356.52
178.644	-356.52
178.864	-397.48
179.084	-424.1
179.304	-16.55
179.524	-80.04
179.744	8.02
179.964	100.18
180.184	-8.36
180.404	-2.22
180.624	-28.84
180.844	-49.32
181.064	-37.03
181.283	26.45
181.503	-2.22
181.723	89.94
181.943	-82.09
182.163	192.34
182.383	-22.7
182.602	36.69
182.822	51.03
183.042	42.84
183.262	-22.7
183.482	-8.36
183.701	91.99
183.921	18.26
184.141	-47.27
184.361	34.64
184.58	104.28
184.8	63.32
185.02	-32.94
185.239	57.17
185.459	30.55
185.679	157.52
185.898	-65.71
186.118	116.56
186.338	-10.41
186.557	85.84
186.777	22.36
186.997	12.12
187.216	-0.17
187.436	247.63
187.655	48.98
187.875	69.46
188.095	-6.31
188.314	89.94
188.534	143.19
188.753	30.55
188.973	130.9
189.192	188.24
189.412	30.55
189.631	48.98
189.851	28.5
190.07	120.66
190.29	-34.99
190.509	-34.99
190.729	89.94
190.948	94.04
191.168	274.26
191.387	63.32
191.607	-55.47
191.826	51.03
192.045	12.12
192.265	3.93
192.484	46.93
192.704	73.56
192.923	-20.65
193.142	151.38
193.362	108.37
193.581	114.52
193.8	20.31
194.02	57.17
194.239	77.65
194.458	112.47
194.678	8.02
194.897	34.64
195.116	73.56
195.335	59.22
195.555	77.65
195.774	12.12
195.993	135
196.212	10.07
196.432	-61.61
196.651	-32.94
196.87	12.12
197.089	245.59
197.308	51.03
197.528	104.28
197.747	-32.94
197.966	22.36
198.185	83.8
198.404	-4.27
198.623	118.61
198.842	122.71
199.062	79.7
199.281	120.66
199.5	69.46
199.719	55.12
199.938	40.79
200.157	36.69
200.376	91.99
200.595	124.76
200.814	34.64
201.033	-30.89
201.252	112.47
201.471	51.03
201.69	8.02
201.909	-18.6
202.128	34.64
202.347	24.4
202.566	-16.55
202.785	-63.66
203.004	-28.84
203.223	186.19
203.442	77.65
203.661	-90.28
203.879	10.07
204.098	153.43
204.317	-104.62
204.536	44.88
204.755	132.95
204.974	67.41
205.193	55.12
205.411	135
205.63	44.88
205.849	38.74
206.068	24.4
206.287	-0.17
206.505	137.04
206.724	44.88
206.943	-10.41
207.162	-45.23
207.381	116.56
207.599	30.55
207.818	24.4
208.037	-102.57
208.255	10.07
208.474	-2.22
208.693	-49.32
208.911	55.12
209.13	87.89
209.349	118.61
209.567	98.13
209.786	34.64
210.005	102.23
210.223	94.04
210.442	-96.43
210.661	59.22
210.879	83.8
211.098	20.31
211.316	-65.71
211.535	79.7
211.753	100.18
211.972	120.66
212.191	-4.27
212.409	-10.41
212.628	143.19
212.846	-16.55
213.065	67.41
213.283	55.12
213.502	-34.99
213.72	18.26
213.938	38.74
214.157	-82.09
214.375	83.8
214.594	20.31
214.812	59.22
215.031	57.17
215.249	16.21
215.467	14.17
215.686	40.79
215.904	81.75
216.122	98.13
216.341	53.08
216.559	-0.17
216.778	106.32
216.996	77.65
217.214	26.45
217.432	-20.65
217.651	-96.43
217.869	40.79
218.087	18.26
218.306	-41.13
218.524	71.51
218.742	-41.13
218.96	120.66
219.179	-43.18
219.397	-14.51
219.615	276.31
219.833	126.8
220.051	-69.8
220.27	34.64
220.488	147.28
220.706	36.69
220.924	-18.6
221.142	-26.79
221.36	69.46
221.578	63.32
221.796	65.36
222.015	89.94
222.233	16.21
222.451	87.89
222.669	-8.36
222.887	61.27
223.105	-77.99
223.323	5.97
223.541	-18.6
223.759	36.69
223.977	57.17
224.195	210.77
224.413	98.13
224.631	55.12
224.849	73.56
225.067	198.48
225.285	59.22
225.503	-51.37
225.721	-108.71
225.939	112.47
226.157	-32.94
226.375	182.1
226.592	-24.75
226.81	-10.41
227.028	116.56
227.246	132.95
227.464	77.65
227.682	120.66
227.9	98.13
228.117	102.23
228.335	1.88
228.553	16.21
228.771	61.27
228.989	8.02
229.206	100.18
229.424	-2.22
229.642	24.4
229.86	-18.6
230.077	163.67
230.295	51.03
230.513	141.14
230.731	83.8
230.948	106.32
231.166	65.36
231.384	28.5
231.601	-14.51
231.819	124.76
232.037	-80.04
232.254	-59.56
232.472	36.69
232.689	-45.23
232.907	120.66
233.125	12.12
233.342	20.31
233.56	5.97
233.777	-10.41
233.995	65.36
234.213	96.08
234.43	159.57
234.648	-10.41
234.865	77.65
235.083	42.84
235.3	96.08
235.518	118.61
235.735	104.28
235.953	73.56
236.17	42.84
236.388	8.02
236.605	1.88
236.822	145.24
237.04	130.9
237.257	28.5
237.475	-20.65
237.692	-10.41
237.909	69.46
238.127	53.08
238.344	63.32
238.562	24.4
238.779	-112.81
238.996	-4.27
239.214	28.5
239.431	83.8
239.648	30.55
239.865	61.27
240.083	18.26
240.3	1.88
240.517	-41.13
240.735	57.17
240.952	175.95
241.169	34.64
241.386	143.19
241.603	26.45
241.821	30.55
242.038	71.51
242.255	108.37
242.472	-75.95
242.689	71.51
242.907	46.93
243.124	42.84
243.341	8.02
243.558	89.94
243.775	-12.46
243.992	3.93
244.209	147.28
244.426	214.87
244.643	48.98
244.86	-14.51
245.078	81.75
245.295	79.7
245.512	3.93
245.729	10.07
245.946	40.79
246.163	110.42
246.38	38.74
246.597	53.08
246.814	91.99
247.031	79.7
247.248	69.46
247.464	46.93
247.681	38.74
247.898	85.84
248.115	48.98
248.332	-26.79
248.549	87.89
248.766	147.28
248.983	59.22
249.2	130.9
249.417	141.14
249.633	20.31
249.85	61.27
250.067	46.93
250.284	-16.55
250.501	61.27
250.717	106.32
250.934	-69.8
251.151	53.08
251.368	42.84
251.585	116.56
251.801	61.27
252.018	-12.46
252.235	108.37
252.451	-51.37
252.668	-65.71
252.885	173.91
253.102	81.75
253.318	26.45
253.535	-24.75
253.752	-14.51
253.968	-6.31
254.185	-0.17
254.401	-26.79
254.618	32.6
254.835	-28.84
255.051	186.19
255.268	85.84
255.484	3.93
255.701	-32.94
255.917	-6.31
256.134	-47.27
256.351	38.74
256.567	3.93
256.784	16.21
257	34.64
257.217	102.23
257.433	102.23
257.65	-10.41
257.866	151.38
258.082	-10.41
258.299	-45.23
258.515	46.93
258.732	-2.22
258.948	-8.36
259.165	65.36
259.381	-16.55
259.597	63.32
259.814	67.41
260.03	69.46
260.246	28.5
260.463	87.89
260.679	112.47
260.895	3.93
261.112	83.8
261.328	40.79
261.544	-47.27
261.761	77.65
261.977	-67.75
262.193	-41.13
262.409	77.65
262.626	28.5
262.842	36.69
263.058	-39.08
263.274	87.89
263.49	16.21
263.707	79.7
263.923	188.24
264.139	-86.19
264.355	67.41
264.571	132.95
264.787	12.12
265.004	120.66
265.22	-12.46
265.436	-100.52
265.652	20.31
265.868	24.4
266.084	-94.38
266.3	106.32
266.516	-43.18
266.732	28.5
266.948	79.7
267.164	22.36
267.38	122.71
267.596	81.75
267.812	141.14
268.028	63.32
268.244	-28.84
268.46	85.84
268.676	32.6
268.892	63.32
269.108	36.69
269.324	-102.57
269.54	-37.03
269.756	24.4
269.972	-39.08
270.188	16.21
270.403	-37.03
270.619	-34.99
270.835	116.56
271.051	96.08
271.267	46.93
271.483	-32.94
271.698	145.24
271.914	20.31
272.13	67.41
272.346	-4.27
272.562	22.36
272.777	73.56
272.993	108.37
273.209	-26.79
273.425	153.43
273.64	-22.7
273.856	53.08
274.072	57.17
274.287	24.4
274.503	120.66
274.719	44.88
274.934	-32.94
275.15	-14.51
275.366	46.93
275.581	12.12
275.797	63.32
276.012	65.36
276.228	51.03
276.444	14.17
276.659	155.47
276.875	-39.08
277.09	30.55
277.306	-22.7
277.521	98.13
277.737	75.6
277.952	85.84
278.168	42.84
278.383	-4.27
278.599	10.07
278.814	96.08
279.03	73.56
279.245	118.61
279.461	73.56
279.676	83.8
279.892	3.93
280.107	-47.27
280.322	-8.36
280.538	67.41
280.753	-22.7
280.969	26.45
281.184	96.08
281.399	114.52
281.615	-28.84
281.83	100.18
282.045	-41.13
282.26	18.26
282.476	65.36
282.691	120.66
282.906	1.88
283.122	32.6
283.337	-28.84
283.552	151.38
283.767	-22.7
283.983	98.13
284.198	-69.8
284.413	26.45
284.628	-57.51
284.843	42.84
285.058	104.28
285.274	-32.94
285.489	-32.94
285.704	89.94
285.919	-37.03
286.134	32.6
286.349	44.88
286.564	36.69
286.779	161.62
286.995	-10.41
287.21	-32.94
287.425	34.64
287.64	-59.56
287.855	32.6
288.07	-67.75
288.285	81.75
288.5	104.28
288.715	26.45
288.93	30.55
289.145	-30.89
289.36	67.41
289.575	20.31
289.79	169.81
290.004	48.98
290.219	18.26
290.434	-30.89
290.649	20.31
290.864	-34.99
291.079	116.56
291.294	48.98
291.509	87.89
291.724	-2.22
291.938	-43.18
292.153	55.12
292.368	12.12
292.583	65.36
292.798	-18.6
293.012	5.97
293.227	79.7
293.442	-20.65
293.657	110.42
293.871	153.43
294.086	12.12
294.301	202.58
294.516	40.79
294.73	51.03
294.945	-12.46
295.16	-34.99
295.374	100.18
295.589	114.52
295.804	-12.46
296.018	108.37
296.233	85.84
296.447	28.5
296.662	42.84
296.877	126.8
297.091	94.04
297.306	-4.27
297.52	-32.94
297.735	24.4
297.949	79.7
298.164	38.74
298.378	65.36
298.593	-32.94
298.807	18.26
299.022	-4.27
299.236	87.89
299.451	44.88
299.665	18.26
299.88	57.17
300.094	75.6
300.309	59.22
300.523	-0.17
300.737	-10.41
300.952	34.64
301.166	104.28
301.381	-4.27
301.595	59.22
301.809	16.21
302.024	26.45
302.238	-41.13
302.452	165.71
302.667	-0.17
302.881	89.94
303.095	69.46
303.309	65.36
303.524	57.17
303.738	73.56
303.952	-67.75
304.166	55.12
304.381	-110.76
304.595	182.1
304.809	10.07
305.023	36.69
305.237	53.08
305.452	75.6
305.666	57.17
305.88	118.61
306.094	100.18
306.308	28.5
306.522	128.85
306.736	32.6
306.95	48.98
307.164	85.84
307.379	53.08
307.593	135
307.807	155.47
308.021	94.04
308.235	71.51
308.449	-30.89
308.663	-28.84
308.877	118.61
309.091	65.36
309.305	61.27
309.519	-104.62
309.733	112.47
309.947	-57.51
310.161	53.08
310.374	132.95
310.588	169.81
310.802	-34.99
311.016	-26.79
311.23	73.56
311.444	-8.36
311.658	57.17
311.872	116.56
312.085	102.23
312.299	153.43
312.513	155.47
312.727	36.69
312.941	-30.89
313.154	61.27
313.368	85.84
313.582	5.97
313.796	1.88
314.009	100.18
314.223	206.67
314.437	128.85
314.651	116.56
314.864	-0.17
315.078	71.51
315.292	-41.13
315.505	-12.46
315.719	141.14
315.933	114.52
316.146	-2.22
316.36	30.55
316.573	132.95
316.787	34.64
317.001	98.13
317.214	24.4
317.428	89.94
317.641	-63.66
317.855	40.79
318.068	83.8
318.282	-26.79
318.495	198.48
318.709	59.22
318.922	42.84
319.136	132.95
319.349	110.42
319.563	14.17
319.776	100.18
319.99	-63.66
320.203	73.56
320.417	-26.79
320.63	22.36
320.843	149.33
321.057	110.42
321.27	-6.31
321.483	87.89
321.697	110.42
321.91	36.69
322.124	34.64
322.337	34.64
322.55	-65.71
322.763	69.46
322.977	61.27
323.19	3.93
323.403	57.17
323.617	22.36
323.83	116.56
324.043	30.55
324.256	157.52
324.469	-16.55
324.683	141.14
324.896	18.26
325.109	-6.31
325.322	-53.42
325.535	96.08
325.748	28.5
325.962	-47.27
326.175	57.17
326.388	77.65
326.601	157.52
326.814	42.84
327.027	67.41
327.24	171.86
327.453	-65.71
327.666	71.51
327.879	186.19
328.092	65.36
328.305	135
328.518	-10.41
328.731	8.02
328.944	30.55
329.157	30.55
329.37	40.79
329.583	186.19
329.796	100.18
330.009	-37.03
330.222	79.7
330.435	59.22
330.648	-4.27
330.861	-6.31
331.073	-16.55
331.286	106.32
331.499	44.88
331.712	16.21
331.925	81.75
332.138	3.93
332.35	106.32
332.563	-32.94
332.776	91.99
332.989	-53.42
333.202	1.88
333.414	61.27
333.627	114.52
333.84	-8.36
334.053	55.12
334.265	20.31
334.478	-10.41
334.691	20.31
334.903	51.03
335.116	-41.13
335.329	71.51
335.541	89.94
335.754	212.82
335.966	-20.65
336.179	5.97
336.392	-34.99
336.604	18.26
336.817	130.9
337.029	81.75
337.242	71.51
337.454	108.37
337.667	69.46
337.88	145.24
338.092	44.88
338.305	83.8
338.517	-30.89
338.729	130.9
338.942	198.48
339.154	-39.08
339.367	12.12
339.579	135
339.792	-20.65
340.004	59.22
340.217	-4.27
340.429	89.94
340.641	124.76
340.854	-41.13
341.066	22.36
341.278	75.6
341.491	159.57
341.703	59.22
341.915	-47.27
342.128	120.66
342.34	102.23
342.552	-82.09
342.764	87.89
342.977	40.79
343.189	102.23
343.401	48.98
343.613	-39.08
343.826	94.04
344.038	-22.7
344.25	16.21
344.462	26.45
344.674	44.88
344.886	38.74
345.099	87.89
345.311	122.71
345.523	-28.84
345.735	-61.61
345.947	26.45
346.159	87.89
346.371	5.97
346.583	55.12
346.795	124.76
347.007	114.52
347.219	147.28
347.431	-18.6
347.643	-10.41
347.855	12.12
348.067	116.56
348.279	-65.71
348.491	40.79
348.703	130.9
348.915	-39.08
349.127	-10.41
349.339	91.99
349.551	61.27
349.763	44.88
349.975	46.93
350.187	114.52
350.399	73.56
350.61	10.07
350.822	18.26
351.034	116.56
351.246	57.17
351.458	91.99
351.669	85.84
351.881	85.84
352.093	79.7
352.305	114.52
352.517	57.17
352.728	77.65
352.94	87.89
353.152	63.32
353.363	-30.89
353.575	81.75
353.787	96.08
353.999	3.93
354.21	120.66
354.422	-4.27
354.633	10.07
354.845	-0.17
355.057	85.84
355.268	30.55
355.48	130.9
355.692	-41.13
355.903	44.88
356.115	-92.33
356.326	-32.94
356.538	192.34
356.749	36.69
356.961	106.32
357.172	8.02
357.384	-102.57
357.595	200.53
357.807	114.52
358.018	-32.94
358.23	40.79
358.441	178
358.653	-32.94
358.864	24.4
359.075	61.27
359.287	171.86
359.498	59.22
359.709	55.12
359.921	114.52
360.132	46.93
360.344	36.69
360.555	-18.6
360.766	130.9
360.977	36.69
361.189	120.66
361.4	83.8
361.611	89.94
361.823	38.74
362.034	34.64
362.245	-20.65
362.456	46.93
362.667	96.08
362.879	-86.19
363.09	89.94
363.301	85.84
363.512	28.5
363.723	-16.55
363.935	94.04
364.146	137.04
364.357	-2.22
364.568	20.31
364.779	-34.99
364.99	100.18
365.201	-47.27
365.412	104.28
365.623	-98.47
365.834	67.41
366.045	40.79
366.256	96.08
366.467	57.17
366.678	32.6
366.889	118.61
367.1	3.93
367.311	85.84
367.522	38.74
367.733	63.32
367.944	96.08
368.155	71.51
368.366	161.62
368.577	96.08
368.788	114.52
368.999	10.07
369.209	79.7
369.42	198.48
369.631	251.73
369.842	126.8
370.053	53.08
370.264	116.56
370.474	-90.28
370.685	55.12
370.896	44.88
371.107	106.32
371.317	114.52
371.528	14.17
371.739	100.18
371.95	100.18
372.16	73.56
372.371	-61.61
372.582	51.03
372.792	96.08
373.003	89.94
373.214	87.89
373.424	100.18
373.635	5.97
373.846	67.41
374.056	108.37
374.267	-10.41
374.477	108.37
374.688	44.88
374.898	36.69
375.109	98.13
375.319	89.94
375.53	114.52
375.74	100.18
375.951	55.12
376.161	110.42
376.372	186.19
376.582	-8.36
376.793	36.69
377.003	-65.71
377.214	67.41
377.424	22.36
377.635	-16.55
377.845	-0.17
378.055	87.89
378.266	-90.28
378.476	-10.41
378.686	28.5
378.897	30.55
379.107	137.04
379.317	98.13
379.528	-0.17
379.738	102.23
379.948	-28.84
380.158	77.65
380.369	44.88
380.579	28.5
380.789	57.17
380.999	24.4
381.21	135
381.42	157.52
381.63	34.64
381.84	75.6
382.05	42.84
382.261	118.61
382.471	96.08
382.681	-2.22
382.891	159.57
383.101	145.24
383.311	-65.71
383.521	34.64
383.731	55.12
383.941	44.88
384.151	32.6
384.361	-6.31
384.571	36.69
384.781	85.84
384.991	171.86
385.201	221.01
385.411	73.56
385.621	30.55
385.831	81.75
386.041	42.84
386.251	38.74
386.461	77.65
386.671	1.88
386.881	59.22
387.091	10.07
387.301	106.32
387.511	48.98
387.72	12.12
387.93	130.9
388.14	-37.03
388.35	28.5
388.56	10.07
388.769	63.32
388.979	48.98
389.189	51.03
389.399	36.69
389.609	59.22
389.818	151.38
390.028	106.32
390.238	145.24
390.447	8.02
390.657	53.08
390.867	44.88
391.076	-26.79
391.286	3.93
391.496	85.84
391.705	77.65
391.915	75.6
392.125	135
392.334	-57.51
392.544	204.63
392.753	-34.99
392.963	-34.99
393.172	36.69
393.382	-18.6
393.591	161.62
393.801	-30.89
394.01	210.77
394.22	98.13
394.429	44.88
394.639	65.36
394.848	81.75
395.058	96.08
395.267	55.12
395.477	73.56
395.686	124.76
395.895	212.82
396.105	186.19
396.314	69.46
396.524	48.98
396.733	85.84
396.942	48.98
397.152	186.19
397.361	159.57
397.57	61.27
397.78	-18.6
397.989	26.45
398.198	135
398.407	94.04
398.617	89.94
398.826	61.27
399.035	-20.65
399.244	67.41
399.453	63.32
399.663	94.04
399.872	104.28
400.081	-28.84
400.29	139.09
400.499	20.31
400.708	139.09
400.917	57.17
401.127	79.7
401.336	85.84
401.545	163.67
401.754	141.14
401.963	69.46
402.172	-8.36
402.381	18.26
402.59	57.17
402.799	28.5
403.008	114.52
403.217	83.8
403.426	118.61
403.635	-18.6
403.844	20.31
404.053	71.51
404.262	89.94
404.471	165.71
404.68	63.32
404.888	67.41
405.097	53.08
405.306	126.8
405.515	110.42
405.724	51.03
405.933	104.28
406.142	55.12
406.35	112.47
406.559	18.26
406.768	22.36
406.977	208.72
407.185	79.7
407.394	116.56
407.603	44.88
407.812	65.36
408.02	151.38
408.229	10.07
408.438	79.7
408.646	-71.85
408.855	-14.51
409.064	120.66
409.272	55.12
409.481	91.99
409.69	-67.75
409.898	-39.08
410.107	30.55
410.315	135
410.524	-67.75
410.733	81.75
410.941	26.45
411.15	59.22
411.358	48.98
411.567	241.49
411.775	83.8
411.984	48.98
412.192	122.71
412.401	-16.55
412.609	108.37
412.818	165.71
413.026	55.12
413.234	30.55
413.443	44.88
413.651	-18.6
413.86	112.47
414.068	149.33
414.276	157.52
414.485	8.02
414.693	128.85
414.901	161.62
415.11	104.28
415.318	24.4
415.526	104.28
415.734	126.8
415.943	30.55
416.151	141.14
416.359	24.4
416.567	57.17
416.776	102.23
416.984	128.85
417.192	135
417.4	67.41
417.608	26.45
417.817	32.6
418.025	42.84
418.233	204.63
418.441	-32.94
418.649	-4.27
418.857	26.45
419.065	100.18
419.273	38.74
419.481	85.84
419.689	77.65
419.897	-2.22
420.105	-41.13
420.313	77.65
420.521	169.81
420.729	178
420.937	44.88
421.145	-51.37
421.353	77.65
421.561	182.1
421.769	65.36
421.977	28.5
422.185	188.24
422.393	12.12
422.601	91.99
422.809	73.56
423.017	3.93
423.224	139.09
423.432	106.32
423.64	55.12
423.848	178
424.056	42.84
424.263	71.51
424.471	-32.94
424.679	104.28
424.887	-12.46
425.094	180.05
425.302	65.36
425.51	46.93
425.718	77.65
425.925	51.03
426.133	10.07
426.341	270.16
426.548	79.7
426.756	69.46
426.964	100.18
427.171	55.12
427.379	132.95
427.586	87.89
427.794	71.51
428.001	137.04
428.209	100.18
428.417	173.91
428.624	67.41
428.832	118.61
429.039	73.56
429.247	83.8
429.454	182.1
429.662	194.39
429.869	87.89
430.076	147.28
430.284	124.76
430.491	163.67
430.699	157.52
430.906	194.39
431.114	147.28
431.321	159.57
431.528	130.9
431.736	186.19
431.943	196.43
432.15	157.52
432.358	221.01
432.565	180.05
432.772	81.75
432.979	309.07
433.187	216.91
433.394	233.3
433.601	120.66
433.808	198.48
434.016	225.11
434.223	225.11
434.43	253.78
434.637	366.42
434.844	323.41
435.052	202.58
435.259	276.31
435.466	300.88
435.673	317.26
435.88	319.31
436.087	380.75
436.294	380.75
436.501	390.99
436.708	276.31
436.915	378.7
437.122	386.9
437.329	352.08
437.537	382.8
437.743	405.33
437.95	591.69
438.157	440.14
438.364	425.81
438.571	464.72
438.778	448.33
438.985	466.77
439.192	552.78
439.399	460.62
439.606	491.34
439.813	565.07
440.02	694.09
440.227	661.32
440.433	614.22
440.64	630.6
440.847	589.64
441.054	583.5
441.261	839.5
441.467	675.66
441.674	673.61
441.881	786.25
442.088	689.99
442.294	724.81
442.501	984.9
442.708	1015.62
442.914	845.64
443.121	997.19
443.328	941.89
443.534	1105.73
443.741	1011.53
443.948	913.22
444.154	1173.32
444.361	1292.1
444.568	1210.18
444.774	1189.7
444.981	1140.55
445.187	1302.34
445.394	1349.44
445.6	1316.67
445.807	1394.5
446.013	1478.46
446.22	1423.17
446.426	1593.15
446.633	1697.6
446.839	1902.39
447.046	1687.36
447.252	1929.02
447.459	1853.24
447.665	1879.86
447.871	2035.51
448.078	2109.24
448.284	2213.68
448.491	2299.7
448.697	2488.11
448.903	2479.92
449.11	2496.3
449.316	2416.43
449.522	2660.14
449.728	2895.66
449.935	2856.75
450.141	2881.32
450.347	3141.41
450.553	3094.31
450.76	3188.52
450.966	3340.07
451.172	3561.25
451.378	3682.08
451.584	3641.12
451.791	3970.84
451.997	4009.75
452.203	4063
452.409	4278.04
452.615	4513.55
452.821	4366.1
453.027	4585.23
453.233	5050.12
453.44	4695.82
453.646	5109.51
453.852	5316.36
454.058	5644.03
454.264	5656.32
454.47	6164.22
454.676	6258.42
454.882	6395.64
455.088	6278.9
455.294	6637.3
455.5	7165.67
455.705	7640.8
455.911	7517.92
456.117	7876.32
456.323	8034.01
456.529	8128.22
456.735	8642.26
456.941	9105.1
457.147	9301.7
457.352	9594.56
457.558	9854.65
457.764	10589.88
457.97	10845.87
458.176	11220.65
458.381	11759.27
458.587	12168.86
458.793	12570.26
458.999	12566.17
459.204	14046.85
459.41	14528.12
459.616	14372.47
459.821	15099.5
460.027	16014.94
460.233	16838.23
460.438	16627.29
460.644	17610.31
460.85	17518.15
461.055	18517.56
461.261	19387.95
461.466	18976.31
461.672	19357.23
461.878	21632.52
462.083	21112.34
462.289	21718.54
462.494	23064.05
462.7	22828.54
462.905	23418.35
463.111	25189.84
463.316	26430.91
463.522	26746.3
463.727	27436.47
463.932	28599.71
464.138	29777.29
464.343	30838.14
464.549	30948.73
464.754	33027.42
464.959	33772.88
465.165	34518.34
465.37	34551.11
465.575	34340.17
465.781	36777.25
465.986	37782.8
466.191	36900.13
466.397	37842.2
466.602	36476.2
466.807	39060.74
467.012	39597.31
467.218	40144.11
467.423	39943.41
467.628	41282.78
467.833	43584.7
468.038	42384.59
468.244	42073.3
468.449	43605.18
468.654	43154.63
468.859	43377.86
469.064	43334.85
469.269	42104.02
469.474	42456.27
469.679	43467.97
469.885	42532.04
470.09	43340.99
470.295	42841.29
470.5	42290.38
470.705	42550.48
470.91	41536.73
471.115	40981.73
471.32	41813.21
471.525	41272.54
471.73	40060.15
471.935	39927.03
472.139	38481.16
472.344	38720.77
472.549	38114.58
472.754	37881.11
472.959	36820.26
473.164	35568.95
473.369	34825.54
473.574	36068.65
473.778	35089.73
473.983	34751.81
474.188	34094.41
474.393	32501.09
474.598	32222.57
474.802	31593.84
475.007	31227.26
475.212	31237.5
475.417	29531.54
475.621	29437.33
475.826	29169.05
476.031	28306.85
476.235	27723.18
476.44	27882.92
476.645	27342.26
476.849	26852.8
477.054	26750.4
477.259	26047.94
477.463	26179.01
477.668	24716.76
477.872	24976.86
478.077	24378.85
478.282	23768.55
478.486	24020.45
478.691	23418.35
478.895	23068.15
479.1	22916.6
479.304	22685.18
479.509	21927.43
479.713	22658.56
479.918	21820.94
480.122	21333.52
480.326	21673.48
480.531	21671.43
480.735	21231.12
480.94	21143.06
481.144	21730.83
481.348	20493.85
481.553	20487.71
481.757	19541.55
481.961	20416.03
482.166	20297.25
482.37	20098.59
482.574	19506.73
482.778	19598.89
482.983	19785.26
483.187	19428.91
483.391	19379.76
483.595	19033.65
483.8	18562.62
484.004	18843.19
484.208	18898.48
484.412	18562.62
484.616	18304.57
484.821	18079.3
485.025	17649.22
485.229	17884.74
485.433	17534.54
485.637	17325.64
485.841	17032.79
486.045	17008.21
486.249	16692.82
486.453	16371.29
486.657	16375.39
486.861	15982.18
487.065	15597.16
487.269	15453.8
487.473	15005.3
487.677	15343.21
487.881	15052.4
488.085	14554.74
488.289	14569.08
488.493	14069.37
488.697	14124.67
488.901	13889.15
489.105	13446.79
489.309	13491.85
489.512	13149.84
489.716	12961.42
489.92	12359.32
490.124	12263.07
490.328	12689.04
490.531	11857.57
490.735	11916.96
490.939	11577
491.143	11464.36
491.346	11056.81
491.55	11308.71
491.754	10913.45
491.958	10645.17
492.161	10634.93
492.365	10262.2
492.569	10190.52
492.772	9959.1
492.976	10030.78
493.18	9643.71
493.383	9823.94
493.587	9631.43
493.79	9764.54
493.994	9387.72
494.197	9471.68
494.401	9490.12
494.605	9199.3
494.808	9238.22
495.012	9279.18
495.215	9217.74
495.419	9029.32
495.622	8814.29
495.825	8767.18
496.029	8793.81
496.232	8990.41
496.436	8791.76
496.639	8879.82
496.843	8894.16
497.046	8918.73
497.249	8961.74
497.453	8883.92
497.656	8838.86
497.859	8734.42
498.063	8851.15
498.266	8869.58
498.469	8795.86
498.673	8959.69
498.876	9000.65
499.079	9109.19
499.282	8969.93
499.485	9481.92
499.689	9295.56
499.892	9307.85
500.095	9365.19
500.298	9447.11
500.501	9494.21
500.705	9701.06
500.908	9830.08
501.111	9572.04
501.314	10028.73
501.517	9959.1
501.72	10178.23
501.923	9901.76
502.126	10307.26
502.329	10581.68
502.532	10655.41
502.735	10475.19
502.938	10860.21
503.141	10731.19
503.344	11048.62
503.547	11181.74
503.75	11116.2
503.953	11683.49
504.156	11726.5
504.359	11857.57
504.562	11919.01
504.765	12269.21
504.968	12398.23
505.17	12592.79
505.373	12687
505.576	12992.14
505.779	13280.91
505.982	13184.65
506.185	13809.28
506.387	13926.02
506.59	13985.41
506.793	14438.01
506.996	14663.29
507.198	15316.59
507.401	15435.37
507.604	15748.71
507.807	16033.38
508.009	16281.18
508.212	16598.62
508.415	16838.23
508.617	17104.46
508.82	17446.48
509.022	17428.04
509.225	18411.07
509.428	18779.7
509.63	19224.11
509.833	19240.5
510.035	20153.89
510.238	20336.16
510.44	20702.75
510.643	21315.09
510.845	21732.87
511.048	21839.37
511.25	22291.97
511.453	22869.5
511.655	23977.45
511.858	23987.69
512.06	24788.44
512.262	25329.11
512.465	25398.74
512.667	26209.73
512.87	27106.74
513.072	27555.25
513.274	28249.51
513.477	28548.51
513.679	29515.15
513.881	30236.04
514.084	30702.98
514.286	31270.26
514.488	31833.46
514.69	33537.37
514.893	33576.28
515.095	33631.57
515.297	34893.12
515.499	35329.34
515.701	36082.99
515.904	37086.5
516.106	37672.21
516.308	38278.41
516.51	39554.3
516.712	39836.92
516.914	40738.02
517.116	41532.64
517.318	41886.93
517.52	42894.53
517.722	43226.31
517.925	44061.88
518.127	45438.11
518.329	46060.69
518.531	46054.55
518.733	47615.1
518.935	48393.33
519.136	48256.12
519.338	49558.63
519.54	50271.32
519.742	51108.94
519.944	51381.32
520.146	52800.56
520.348	53175.34
520.55	53105.71
520.752	53527.59
520.954	55116.81
521.155	54899.73
521.357	56071.17
521.559	56550.39
521.761	57644.01
521.963	57736.16
522.164	58233.82
522.366	58479.58
522.568	59243.47
522.77	59161.55
522.971	60253.12
523.173	59667.4
523.375	60859.32
523.576	60707.77
523.778	60511.16
523.98	61127.6
524.181	61518.76
524.383	61539.24
524.584	62092.19
524.786	61985.7
524.988	61696.94
525.189	62139.3
525.391	62163.87
525.592	62284.7
525.794	62501.79
525.995	62385.05
526.197	61975.46
526.398	61948.84
526.6	62167.97
526.801	61920.16
527.003	62028.71
527.204	61379.5
527.406	61641.64
527.607	61000.63
527.808	61199.28
528.01	59556.81
528.211	59880.39
528.412	60720.05
528.614	59786.18
528.815	59724.74
529.016	59380.68
529.218	58203.1
529.419	58151.9
529.62	57476.07
529.822	56738.8
530.023	56595.45
530.224	56411.13
530.425	55645.19
530.626	54404.12
530.828	54383.64
531.029	54719.51
531.23	53058.6
531.431	52753.46
531.632	52368.44
531.833	52051
532.035	51258.44
532.236	50900.04
532.437	50619.47
532.638	49198.18
532.839	49288.29
533.04	48301.17
533.241	47228.04
533.442	47838.33
533.643	46359.7
533.844	45823.13
534.045	45304.99
534.246	44049.59
534.447	44061.88
534.648	43220.16
534.849	42945.73
535.05	42251.47
535.251	41891.03
535.451	41276.64
535.652	40850.66
535.853	40205.55
536.054	39406.84
536.255	39167.23
536.456	38280.46
536.657	38315.28
536.857	37549.34
537.058	36707.62
537.259	36697.38
537.46	36306.22
537.66	35525.94
537.861	35423.54
538.062	34559.3
538.263	34374.98
538.463	34102.6
538.664	33357.14
538.865	33312.09
539.065	32855.39
539.266	31954.29
539.466	31864.18
539.667	31253.88
539.868	31700.34
540.068	30555.52
540.269	30309.77
540.469	30104.97
540.67	29570.45
540.87	29191.58
541.071	28949.92
541.271	28747.17
541.472	28151.21
541.672	27911.6
541.873	27293.11
542.073	27119.03
542.274	27127.22
542.474	26756.54
542.675	26205.64
542.875	26373.57
543.075	25589.2
543.276	25298.39
543.476	25349.59
543.676	24524.26
543.877	24645.09
544.077	24698.33
544.277	24120.81
544.478	23856.62
544.678	23418.35
544.878	23397.87
545.078	23162.36
545.279	22699.51
545.479	22414.85
545.679	22138.37
545.879	22019.59
546.079	21755.4
546.28	21401.1
546.48	21114.39
546.68	21048.85
546.88	20727.32
547.08	20682.27
547.28	20313.63
547.48	19629.61
547.68	20010.53
547.88	19160.62
548.081	19443.24
548.281	18982.45
548.481	18902.58
548.681	18497.08
548.881	18275.9
549.081	17980.99
549.28	17835.59
549.48	17903.17
549.68	17352.27
549.88	17372.75
550.08	16729.69
550.28	16668.25
550.48	16660.06
550.68	16322.14
550.88	16045.66
551.08	15457.9
551.279	15617.64
551.479	15253.1
551.679	15236.72
551.879	14689.91
552.079	14863.99
552.278	14431.87
552.478	14360.19
552.678	14163.58
552.878	13921.92
553.077	13647.49
553.277	13303.43
553.477	13229.71
553.676	12914.32
553.876	12813.97
554.076	12494.49
554.275	12312.22
554.475	12017.31
554.674	12086.94
554.874	11886.24
555.074	11538.09
555.273	11484.84
555.473	11218.6
555.672	11091.63
555.872	11032.24
556.071	10700.47
556.271	10720.95
556.47	10557.11
556.67	10061.5
556.869	10157.75
557.068	9940.67
557.268	9742.02
557.467	9572.04
557.667	9473.73
557.866	9307.85
558.065	9193.16
558.265	8857.29
558.464	8824.53
558.663	8812.24
558.863	8629.97
559.062	8599.25
559.261	8236.76
559.461	8373.97
559.66	8052.44
559.859	7853.79
560.058	7790.3
560.258	7614.18
560.457	7562.98
560.656	7661.28
560.855	7239.4
561.054	7257.83
561.253	7034.6
561.453	6909.68
561.652	6991.59
561.851	6856.43
562.05	6610.67
562.249	6424.31
562.448	6582
562.647	6350.58
562.846	6209.27
563.045	6135.54
563.244	5926.65
563.443	6233.85
563.642	5848.83
563.841	5910.27
564.04	5930.75
564.239	5664.51
564.438	5605.12
564.637	5361.41
564.836	5361.41
565.035	5388.04
565.234	5168.9
565.432	5332.74
565.631	5113.61
565.83	5091.08
566.029	4839.18
566.228	4927.24
566.427	4960.01
566.625	4679.44
566.824	4667.15
567.023	4714.25
567.222	4534.03
567.42	4439.83
567.619	4515.6
567.818	4364.05
568.016	4452.11
568.215	4208.41
568.414	4239.12
568.612	4228.88
568.811	4044.57
569.01	4124.44
569.208	3923.74
569.407	3974.94
569.605	3979.03
569.804	3833.63
570.002	3743.52
570.201	3653.41
570.4	3686.17
570.598	3669.79
570.797	3563.29
570.995	3346.21
571.193	3567.39
571.392	3467.04
571.59	3280.68
571.789	3329.83
571.987	3409.7
572.186	3290.92
572.384	3188.52
572.582	3082.02
572.781	3151.65
572.979	2959.14
573.177	3051.3
573.376	2909.99
573.574	2953
573.772	2746.16
573.971	2721.58
574.169	2590.51
574.367	2793.26
574.565	2645.8
574.763	2537.26
574.962	2643.76
575.16	2529.07
575.358	2445.1
575.556	2461.49
575.754	2465.58
575.952	2430.77
576.151	2381.62
576.349	2309.94
576.547	2240.31
576.745	2266.93
576.943	2320.18
577.141	2158.39
577.339	2119.48
577.537	2099
577.735	2109.24
577.933	2086.71
578.131	1984.31
578.329	2096.95
578.527	1953.59
578.725	2092.85
578.923	1857.34
579.121	1873.72
579.319	1695.55
579.516	1797.95
579.714	2031.41
579.912	1785.66
580.11	1711.93
580.308	1711.93
580.506	1693.5
580.704	1505.09
580.901	1615.68
581.099	1619.77
581.297	1554.24
581.495	1611.58
581.692	1437.5
581.89	1675.07
582.088	1558.33
582.285	1417.02
582.483	1537.85
582.681	1421.12
582.878	1361.73
583.076	1371.97
583.274	1400.64
583.471	1433.41
583.669	1386.3
583.866	1281.86
584.064	1277.76
584.262	1283.91
584.459	1220.42
584.657	1187.65
584.854	1281.86
585.052	1273.67
585.249	1214.27
585.447	1158.98
585.644	1040.2
585.841	1187.65
586.039	1025.86
586.236	1120.07
586.434	1097.54
586.631	1025.86
586.828	999.24
587.026	1089.35
587.223	905.03
587.42	1015.62
587.618	1118.02
587.815	1130.31
588.012	1021.77
588.21	1011.53
588.407	1126.21
588.604	1044.29
588.801	876.36
588.999	966.47
589.196	1046.34
589.393	905.03
589.59	974.66
589.787	966.47
589.984	835.4
590.182	849.74
590.379	714.57
590.576	788.3
590.773	874.31
590.97	816.97
591.167	796.49
591.364	896.84
591.561	845.64
591.758	995.14
591.955	851.78
592.152	859.98
592.349	874.31
592.546	812.87
592.743	757.58
592.94	876.36
593.137	872.26
593.334	870.22
593.531	923.46
593.727	878.41
593.924	806.73
594.121	776.01
594.318	804.68
594.515	962.37
594.712	1066.82
594.908	982.85
595.105	739.15
595.302	827.21
595.499	976.71
595.696	1007.43
595.892	837.45
596.089	921.42
596.286	915.27
596.482	1060.68
596.679	995.14
596.876	1050.44
597.072	1032.01
597.269	1171.27
597.466	1075.01
597.662	1142.6
597.859	1054.53
598.055	1163.08
598.252	1380.16
598.448	1259.33
598.645	1486.65
598.841	1417.02
599.038	1531.71
599.234	1584.96
599.431	1584.96
599.627	1539.9
599.824	1675.07
600.02	1693.5
600.217	1783.61
600.413	1793.85
600.609	1886.01
600.806	2250.55
601.002	2051.89
601.198	2035.51
601.395	2178.87
601.591	2301.75
601.787	2469.68
601.984	2455.34
602.18	2572.08
602.376	2590.51
602.572	2826.03
602.769	2791.21
602.965	2946.86
603.161	3106.6
603.357	3190.56
603.553	3305.25
603.75	3331.87
603.946	3585.82
604.142	3686.17
604.338	3845.91
604.534	3798.81
604.73	3991.32
604.926	4122.39
605.122	4316.95
605.318	4286.23
605.514	4519.7
605.71	4618
605.906	4804.36
606.102	4867.85
606.298	5134.09
606.494	5275.4
606.69	5588.74
606.886	5553.92
607.082	5560.06
607.278	5781.25
607.474	5949.18
607.67	6280.95
607.866	6268.66
608.062	6473.46
608.257	6823.66
608.453	6969.07
608.649	7141.1
608.845	6981.35
609.041	7278.31
609.236	7646.94
609.432	7835.36
609.628	7896.8
609.824	8359.64
610.019	8523.48
610.215	8595.15
610.411	9146.06
610.606	9205.45
610.802	9488.07
610.998	9694.91
611.193	10043.07
611.389	10084.03
611.584	10616.5
611.78	10673.84
611.976	10962.61
612.171	11316.9
612.367	11583.14
612.562	12017.31
612.758	12070.56
612.953	12310.17
613.149	13004.43
613.344	13108.88
613.539	13899.39
613.735	14028.42
613.93	14268.03
614.126	14628.47
614.321	15384.17
614.517	15566.44
614.712	15875.68
614.907	16369.24
615.103	16944.72
615.298	17131.09
615.493	17415.76
615.688	17860.16
615.884	18648.63
616.079	18562.62
616.274	19453.48
616.47	19834.41
616.665	20465.18
616.86	20612.63
617.055	21478.93
617.25	21579.28
617.445	22656.51
617.641	22543.87
617.836	23784.94
618.031	23875.05
618.226	24806.87
618.421	24987.1
618.616	25998.79
618.811	26023.37
619.006	27112.89
619.201	27463.09
619.396	28341.67
619.591	28485.03
619.786	29795.73
619.981	29898.13
620.176	31024.51
620.371	30870.91
620.566	31911.28
620.761	32253.29
620.956	33551.7
621.151	33715.54
621.346	34684.23
621.541	35097.92
621.735	36539.69
621.93	36381.99
622.125	37405.98
622.32	37401.88
622.515	38147.34
622.709	38909.19
622.904	40019.19
623.099	40590.57
623.294	41424.09
623.488	42015.96
623.683	42652.87
623.878	42677.45
624.072	43787.45
624.267	44571.82
624.462	45397.15
624.656	45632.67
624.851	47033.48
625.046	47053.96
625.24	47574.14
625.435	48403.57
625.629	49022.06
625.824	49235.05
626.018	50216.02
626.213	49847.39
626.407	51219.53
626.602	51688.51
626.796	52216.89
626.991	52585.52
627.185	53179.43
627.38	53566.5
627.574	53582.88
627.768	53617.7
627.963	54172.7
628.157	54258.71
628.352	54692.88
628.546	54223.9
628.74	54879.25
628.935	54320.15
629.129	54563.86
629.323	54090.78
629.517	53957.66
629.712	53615.65
629.906	53429.29
630.1	52173.88
630.294	52393.01
630.489	51651.65
630.683	50992.2
630.877	50322.52
631.071	49226.85
631.265	48735.34
631.459	47815.8
631.653	46662.8
631.848	45589.66
632.042	44299.44
632.236	44115.12
632.43	42210.51
632.624	41766.1
632.818	40371.44
633.012	38984.96
633.206	37491.99
633.4	36527.4
633.594	35450.17
633.788	34430.28
633.982	33424.73
634.176	31810.93
634.369	30270.86
634.563	29599.12
634.757	28501.41
634.951	27604.4
635.145	26328.52
635.339	25451.98
635.533	24446.43
635.726	23535.09
635.92	22287.87
636.114	21542.41
636.308	20608.54
636.501	19832.36
636.695	18990.64
636.889	17823.3
637.083	17262.16
637.276	16606.81
637.47	16143.97
637.664	15363.69
637.857	15023.73
638.051	14341.75
638.244	13651.59
638.438	12889.74
638.632	12736.15
638.825	11812.51
639.019	11775.65
639.212	11157.16
639.406	10786.48
639.599	10481.33
639.793	10065.6
639.986	9541.32
640.18	9162.44
640.373	8783.57
640.567	8459.99
640.76	8249.05
640.954	7675.62
641.147	7513.83
641.34	7196.39
641.534	7028.46
641.727	6803.18
641.92	6518.51
642.114	6225.65
642.307	6031.1
642.5	5814.01
642.694	5414.66
642.887	5398.27
643.08	5324.55
643.273	4962.06
643.467	4824.84
643.66	4484.88
643.853	4388.63
644.046	4224.79
644.239	4245.27
644.432	3792.67
644.626	3690.27
644.819	3698.46
645.012	3505.95
645.205	3479.33
645.398	3327.78
645.591	3006.25
645.784	2903.85
645.977	2791.21
646.17	2834.22
646.363	2543.41
646.556	2314.03
646.749	2414.38
646.942	2369.33
647.135	2371.38
647.328	2213.68
647.521	2154.29
647.714	2066.23
647.907	1898.3
648.099	1824.57
648.292	1843
648.485	1830.71
648.678	1697.6
648.871	1605.44
649.064	1652.54
649.256	1343.3
649.449	1484.61
649.642	1347.39
649.835	1314.63
650.027	1269.57
650.22	1333.06
650.413	1169.22
650.605	1267.52
650.798	1111.88
650.991	1046.34
651.183	1142.6
651.376	1122.12
651.568	1017.67
651.761	937.8
651.954	935.75
652.146	853.83
652.339	847.69
652.531	898.89
652.724	810.82
652.916	771.91
653.109	585.55
653.301	837.45
653.494	796.49
653.686	636.75
653.879	708.43
654.071	696.14
654.263	558.92
654.456	626.51
654.648	687.95
654.84	579.4
655.033	563.02
655.225	558.92
655.417	495.44
655.61	571.21
655.802	458.57
655.994	626.51
656.186	481.1
656.379	563.02
656.571	366.42
656.763	442.19
656.955	468.81
657.148	393.04
657.34	544.59
657.532	446.29
657.724	440.14
657.916	434
658.108	474.96
658.3	411.47
658.492	440.14
658.684	274.26
658.876	405.33
659.068	331.6
659.26	192.34
659.452	268.11
659.644	341.84
659.836	434
660.028	298.83
660.22	276.31
660.412	288.59
660.604	223.06
660.796	280.4
660.988	358.22
661.18	270.16
661.372	311.12
661.563	245.59
661.755	286.54
661.947	128.85
662.139	184.15
662.331	216.91
662.522	270.16
662.714	122.71
662.906	210.77
663.097	223.06
663.289	120.66
663.481	128.85
663.673	253.78
663.864	241.49
664.056	239.44
664.247	165.71
664.439	345.94
664.631	233.3
664.822	261.97
665.014	216.91
665.205	167.76
665.397	165.71
665.588	186.19
665.78	221.01
665.971	274.26
666.163	163.67
666.354	274.26
666.546	186.19
666.737	202.58
666.929	200.53
667.12	157.52
667.311	155.47
667.503	247.63
667.694	255.83
667.885	178
668.077	221.01
668.268	120.66
668.459	210.77
668.651	175.95
668.842	169.81
669.033	147.28
669.224	126.8
669.416	304.98
669.607	161.62
669.798	149.33
669.989	239.44
670.18	171.86
670.371	198.48
670.563	81.75
670.754	159.57
670.945	202.58
671.136	188.24
671.327	169.81
671.518	264.02
671.709	298.83
671.9	214.87
672.091	272.21
672.282	196.43
672.473	221.01
672.664	100.18
672.855	161.62
673.046	163.67
673.237	264.02
673.428	167.76
673.619	153.43
673.809	106.32
674	323.41
674.191	147.28
674.382	182.1
674.573	225.11
674.764	114.52
674.954	243.54
675.145	128.85
675.336	102.23
675.527	114.52
675.717	161.62
675.908	130.9
676.099	139.09
676.289	198.48
676.48	71.51
676.671	163.67
676.861	114.52
677.052	270.16
677.243	169.81
677.433	139.09
677.624	266.07
677.814	270.16
678.005	225.11
678.195	296.78
678.386	108.37
678.576	300.88
678.767	155.47
678.957	180.05
679.148	286.54
679.338	274.26
679.529	180.05
679.719	239.44
679.909	280.4
680.1	302.93
680.29	311.12
680.481	77.65
680.671	325.46
680.861	257.87
681.052	241.49
681.242	311.12
681.432	266.07
681.622	239.44
681.813	171.86
682.003	282.45
682.193	225.11
682.383	333.65
682.573	229.2
682.764	243.54
682.954	231.25
683.144	323.41
683.334	157.52
683.524	290.64
683.714	296.78
683.904	309.07
684.094	272.21
684.284	237.39
684.474	345.94
684.664	360.27
684.854	229.2
685.044	290.64
685.234	292.69
685.424	329.55
685.614	241.49
685.804	327.5
685.994	368.46
686.184	302.93
686.374	237.39
686.564	280.4
686.753	253.78
686.943	214.87
687.133	276.31
687.323	221.01
687.513	280.4
687.702	247.63
687.892	227.15
688.082	413.52
688.272	321.36
688.461	235.35
688.651	450.38
688.841	325.46
689.03	278.35
689.22	257.87
689.41	282.45
689.599	259.92
689.789	237.39
689.979	350.03
690.168	300.88
690.358	345.94
690.547	347.98
690.737	282.45
690.926	276.31
691.116	264.02
691.305	321.36
691.495	304.98
691.684	206.67
691.874	147.28
692.063	319.31
692.252	315.22
692.442	319.31
692.631	216.91
692.82	221.01
693.01	339.79
693.199	218.96
693.388	210.77
693.578	225.11
693.767	280.4
693.956	231.25
694.146	186.19
694.335	296.78
694.524	268.11
694.713	276.31
694.902	188.24
695.092	274.26
695.281	282.45
695.47	190.29
695.659	214.87
695.848	188.24
696.037	98.13
696.226	282.45
696.415	194.39
696.604	327.5
696.793	223.06
696.982	159.57
697.171	335.7
697.36	153.43
697.549	333.65
697.738	163.67
697.927	216.91
698.116	159.57
698.305	368.46
698.494	214.87
698.683	106.32
698.872	288.59
699.061	212.82
699.25	196.43
699.438	278.35
699.627	204.63
699.816	347.98
700.005	173.91
700.193	137.04
700.382	307.02
700.571	186.19
700.76	294.74
700.948	264.02
701.137	239.44
701.326	210.77
701.514	218.96
701.703	182.1
701.892	249.68
702.08	427.85
702.269	200.53
702.457	147.28
702.646	245.59
702.834	175.95
703.023	292.69
703.212	253.78
703.4	212.82
703.589	225.11
703.777	163.67
703.965	157.52
704.154	143.19
704.342	221.01
704.531	171.86
704.719	210.77
704.907	288.59
705.096	126.8
705.284	196.43
705.472	214.87
705.661	290.64
705.849	298.83
706.037	196.43
706.226	151.38
706.414	268.11
706.602	102.23
706.79	245.59
706.979	153.43
707.167	198.48
707.355	178
707.543	200.53
707.731	243.54
707.919	216.91
708.107	173.91
708.296	100.18
708.484	182.1
708.672	194.39
708.86	200.53
709.048	231.25
709.236	161.62
709.424	233.3
709.612	259.92
709.8	67.41
709.988	198.48
710.176	245.59
710.364	331.6
710.551	249.68
710.739	194.39
710.927	239.44
711.115	165.71
711.303	237.39
711.491	227.15
711.679	157.52
711.866	155.47
712.054	157.52
712.242	223.06
712.43	288.59
712.617	231.25
712.805	245.59
712.993	182.1
713.181	122.71
713.368	300.88
713.556	196.43
713.744	249.68
713.931	397.14
714.119	292.69
714.306	257.87
714.494	180.05
714.682	280.4
714.869	163.67
715.057	241.49
715.244	118.61
715.432	182.1
715.619	155.47
715.807	206.67
715.994	221.01
716.182	235.35
716.369	300.88
716.556	251.73
716.744	108.37
716.931	132.95
717.119	206.67
717.306	198.48
717.493	302.93
717.681	91.99
717.868	149.33
718.055	266.07
718.242	255.83
718.43	259.92
718.617	274.26
718.804	196.43
718.991	292.69
719.179	259.92
719.366	286.54
719.553	231.25
719.74	286.54
719.927	278.35
720.114	319.31
720.301	186.19
720.488	155.47
720.676	153.43
720.863	272.21
721.05	323.41
721.237	313.17
721.424	313.17
721.611	307.02
721.798	151.38
721.985	184.15
722.172	268.11
722.358	225.11
722.545	290.64
722.732	227.15
722.919	335.7
723.106	202.58
723.293	294.74
723.48	274.26
723.667	190.29
723.853	270.16
724.04	304.98
724.227	286.54
724.414	208.72
724.6	374.61
724.787	352.08
724.974	339.79
725.161	278.35
725.347	192.34
725.534	241.49
725.72	268.11
725.907	356.18
726.094	313.17
726.28	155.47
726.467	245.59
726.653	196.43
726.84	339.79
727.027	331.6
727.213	278.35
727.4	296.78
727.586	311.12
727.773	304.98
727.959	296.78
728.145	278.35
728.332	253.78
728.518	210.77
728.705	257.87
728.891	280.4
729.077	280.4
729.264	214.87
729.45	239.44
729.636	266.07
729.823	184.15
730.009	317.26
730.195	278.35
730.382	296.78
730.568	264.02
730.754	241.49
730.94	253.78
731.126	282.45
731.313	296.78
731.499	235.35
731.685	276.31
731.871	278.35
732.057	284.5
732.243	325.46
732.429	315.22
732.615	323.41
732.801	323.41
732.987	327.5
733.173	294.74
733.359	270.16
733.545	370.51
733.731	251.73
733.917	370.51
734.103	331.6
734.289	390.99
734.475	151.38
734.661	448.33
734.847	302.93
735.033	186.19
735.219	368.46
735.404	261.97
735.59	268.11
735.776	286.54
735.962	196.43
736.148	378.7
736.333	360.27
736.519	360.27
736.705	278.35
736.89	323.41
737.076	315.22
737.262	307.02
737.447	192.34
737.633	339.79
737.819	307.02
738.004	200.53
738.19	288.59
738.375	235.35
738.561	286.54
738.747	261.97
738.932	233.3
739.118	403.28
739.303	327.5
739.489	276.31
739.674	333.65
739.859	259.92
740.045	364.37
740.23	331.6
740.416	171.86
740.601	378.7
740.786	274.26
740.972	243.54
741.157	212.82
741.342	284.5
741.528	159.57
741.713	386.9
741.898	251.73
742.084	302.93
742.269	243.54
742.454	302.93
742.639	399.18
742.824	239.44
743.01	440.14
743.195	477.01
743.38	253.78
743.565	247.63
743.75	321.36
743.935	300.88
744.12	388.94
744.305	268.11
744.49	192.34
744.675	194.39
744.86	313.17
745.045	268.11
745.23	347.98
745.415	302.93
745.6	341.84
745.785	225.11
745.97	259.92
746.155	278.35
746.34	311.12
746.525	294.74
746.71	393.04
746.895	161.62
747.079	171.86
747.264	233.3
747.449	411.47
747.634	300.88
747.819	280.4
748.003	272.21
748.188	143.19
748.373	272.21
748.557	309.07
748.742	272.21
748.927	237.39
749.111	243.54
749.296	264.02
749.481	284.5
749.665	268.11
749.85	192.34
750.034	198.48
750.219	282.45
750.404	169.81
750.588	304.98
750.773	157.52
750.957	208.72
751.141	288.59
751.326	276.31
751.51	190.29
751.695	255.83
751.879	188.24
752.064	329.55
752.248	237.39
752.432	350.03
752.617	364.37
752.801	255.83
752.985	173.91
753.17	292.69
753.354	257.87
753.538	243.54
753.722	194.39
753.907	196.43
754.091	157.52
754.275	264.02
754.459	161.62
754.643	114.52
754.828	239.44
755.012	212.82
755.196	126.8
755.38	106.32
755.564	135
755.748	186.19
755.932	243.54
756.116	202.58
756.3	239.44
756.484	112.47
756.668	294.74
756.852	130.9
757.036	184.15
757.22	180.05
757.404	89.94
757.588	141.14
757.772	280.4
757.956	151.38
758.14	284.5
758.323	124.76
758.507	257.87
758.691	71.51
758.875	290.64
759.059	307.02
759.242	198.48
759.426	114.52
759.61	169.81
759.794	130.9
759.977	304.98
760.161	313.17
760.345	169.81
760.528	268.11
760.712	182.1
760.895	196.43
761.079	79.7
761.263	24.4
761.446	65.36
761.63	89.94
761.813	227.15
761.997	18.26
762.18	135
762.364	171.86
762.547	-14.51
762.731	137.04
762.914	227.15
763.098	100.18
763.281	59.22
763.464	114.52
763.648	108.37
763.831	155.47
764.015	122.71
764.198	108.37
764.381	128.85
764.564	135
764.748	151.38
764.931	108.37
765.114	141.14
765.297	192.34
765.481	69.46
765.664	98.13
765.847	98.13
766.03	311.12
766.213	18.26
766.397	116.56
766.58	57.17
766.763	130.9
766.946	155.47
767.129	106.32
767.312	91.99
767.495	42.84
767.678	98.13
767.861	110.42
768.044	122.71
768.227	96.08
768.41	120.66
768.593	96.08
768.776	102.23
768.959	81.75
769.142	118.61
769.324	89.94
769.507	159.57
769.69	59.22
769.873	34.64
770.056	261.97
770.239	151.38
770.421	188.24
770.604	112.47
770.787	118.61
770.97	104.28
771.152	12.12
771.335	100.18
771.518	46.93
771.7	231.25
771.883	190.29
772.066	63.32
772.248	126.8
772.431	192.34
772.613	186.19
772.796	73.56
772.978	65.36
773.161	251.73
773.343	143.19
773.526	-0.17
773.708	-12.46
773.891	32.6
774.073	30.55
774.256	8.02
774.438	239.44
774.621	46.93
774.803	155.47
774.985	-0.17
775.168	171.86
775.35	77.65
775.532	122.71
775.715	3.93
775.897	190.29
776.079	75.6
776.261	91.99
776.444	77.65
776.626	98.13
776.808	75.6
776.99	12.12
777.173	44.88
777.355	57.17
777.537	26.45
777.719	106.32
777.901	48.98
778.083	-26.79
778.265	-22.7
778.447	169.81
778.629	-12.46
778.811	44.88
778.993	114.52
779.175	135
779.357	69.46
779.539	-14.51
779.721	44.88
779.903	145.24
780.085	-14.51
780.267	30.55
780.449	46.93
780.631	81.75
780.812	171.86
780.994	102.23
781.176	63.32
781.358	-2.22
781.54	61.27
781.721	73.56
781.903	87.89
782.085	69.46
782.267	208.72
782.448	28.5
782.63	14.17
782.812	87.89
782.993	65.36
783.175	51.03
783.357	67.41
783.538	85.84
783.72	-28.84
783.901	89.94
784.083	36.69
784.264	61.27
784.446	-69.8
784.627	-65.71
784.809	75.6
784.99	1.88
785.172	126.8
785.353	36.69
785.535	67.41
785.716	53.08
785.897	-28.84
786.079	32.6
786.26	48.98
786.441	32.6
786.623	-55.47
786.804	53.08
786.985	-0.17
787.167	46.93
787.348	73.56
787.529	-2.22
787.71	231.25
787.891	67.41
788.073	-112.81
788.254	-24.75
788.435	143.19
788.616	106.32
788.797	-24.75
788.978	-16.55
789.159	67.41
789.34	42.84
789.522	32.6
789.703	-43.18
789.884	-4.27
790.065	48.98
790.246	204.63
790.427	-14.51
790.607	155.47
790.788	122.71
790.969	16.21
791.15	102.23
791.331	-30.89
791.512	22.36
791.693	-28.84
791.874	-77.99
792.054	210.77
792.235	100.18
792.416	-92.33
792.597	-2.22
792.778	61.27
792.958	53.08
793.139	30.55
793.32	-22.7
793.5	-121
793.681	120.66
793.862	83.8
794.042	46.93
794.223	-51.37
794.404	28.5
794.584	-41.13
794.765	-8.36
794.945	-18.6
795.126	122.71
795.306	106.32
795.487	-14.51
795.667	-12.46
795.848	-18.6
796.028	20.31
796.209	67.41
796.389	100.18
796.57	38.74
796.75	18.26
796.93	-45.23
797.111	-24.75
797.291	-73.9
797.471	24.4
797.652	55.12
797.832	-80.04
798.012	65.36
798.192	-57.51
798.373	-90.28
798.553	-4.27
798.733	87.89
798.913	-55.47
799.093	-61.61
799.274	87.89
799.454	102.23
799.634	22.36
799.814	161.62
799.994	55.12
800.174	34.64
800.354	36.69
800.534	-116.9
800.714	112.47
800.894	-116.9
801.074	-37.03
801.254	-32.94
801.434	98.13
801.614	-16.55
801.794	-98.47
801.974	1902.39
802.154	-24.75
802.334	10.07
802.514	3.93
802.693	8.02
802.873	-10.41
803.053	132.95
803.233	83.8
803.413	-8.36
803.592	-30.89
803.772	-32.94
803.952	-43.18
804.131	-73.9
804.311	53.08
804.491	67.41
804.67	-18.6
804.85	-0.17
805.03	42.84
805.209	102.23
805.389	63.32
805.568	-61.61
805.748	-30.89
805.928	22.36
806.107	-4.27
806.287	46.93
806.466	34.64
806.646	12.12
806.825	40.79
807.004	-77.99
807.184	20.31
807.363	63.32
807.543	26.45
807.722	-14.51
807.901	102.23
808.081	32.6
808.26	-102.57
808.439	24.4
808.619	-6.31
808.798	-123.05
808.977	18.26
809.156	79.7
809.336	71.51
809.515	40.79
809.694	-43.18
809.873	-69.8
810.052	-4.27
810.231	98.13
810.411	81.75
810.59	77.65
810.769	71.51
810.948	79.7
811.127	-67.75
811.306	3.93
811.485	24.4
811.664	116.56
811.843	16.21
812.022	30.55
812.201	12.12
812.38	-0.17
812.559	63.32
812.737	40.79
812.916	-110.76
813.095	-28.84
813.274	77.65
813.453	-14.51
813.632	106.32
813.811	18.26
813.989	-98.47
814.168	46.93
814.347	-14.51
814.526	46.93
814.704	1.88
814.883	106.32
815.062	-106.67
815.24	-18.6
815.419	-57.51
815.598	18.26
815.776	-116.9
815.955	-47.27
816.133	-166.06
816.312	65.36
816.49	-77.99
816.669	14.17
816.847	3.93
817.026	53.08
817.204	12.12
817.383	-8.36
817.561	-73.9
817.74	44.88
817.918	-4.27
818.097	-47.27
818.275	-96.43
818.453	69.46
818.632	26.45
818.81	-34.99
818.988	-0.17
819.167	1.88
819.345	-63.66
819.523	24.4
819.701	114.52
819.879	55.12
820.058	-10.41
820.236	-69.8
820.414	30.55
820.592	-47.27
820.77	14.17
820.948	-88.23
821.127	-41.13
821.305	-16.55
821.483	5.97
821.661	77.65
821.839	-16.55
822.017	-6.31
822.195	-47.27
822.373	102.23
822.551	26.45
822.729	57.17
822.907	32.6
823.085	65.36
823.262	20.31
823.44	46.93
823.618	-18.6
823.796	-0.17
823.974	-2.22
824.152	-65.71
824.329	-18.6
824.507	48.98
824.685	-37.03
824.863	-10.41
825.04	-63.66
825.218	18.26
825.396	-63.66
825.574	-82.09
825.751	-0.17
825.929	40.79
826.107	-55.47
826.284	-43.18
826.462	63.32
826.639	-51.37
826.817	-43.18
826.994	18.26
827.172	-37.03
827.349	145.24
827.527	77.65
827.704	-28.84
827.882	83.8
828.059	-67.75
828.237	10.07
828.414	48.98
828.591	-168.1
828.769	-39.08
828.946	-28.84
829.124	112.47
829.301	12.12
829.478	-16.55
829.655	-2.22
829.833	26.45
830.01	-145.58
830.187	5.97
830.364	-24.75
830.542	-22.7
830.719	94.04
830.896	46.93
831.073	69.46
831.25	12.12
831.427	71.51
831.604	-123.05
831.782	-84.14
831.959	34.64
832.136	-114.86
832.313	1.88
832.49	-28.84
832.667	-39.08
832.844	-26.79
833.021	112.47
833.198	48.98
833.374	-41.13
833.551	-4.27
833.728	14.17
833.905	42.84
834.082	-161.96
834.259	42.84
834.436	139.09
834.612	-55.47
834.789	53.08
834.966	-49.32
835.143	-20.65
835.319	-100.52
835.496	1.88
835.673	12.12
835.85	40.79
836.026	44.88
836.203	71.51
836.38	-28.84
836.556	-43.18
836.733	-45.23
836.909	81.75
837.086	36.69
837.262	-45.23
837.439	14.17
837.616	-133.29
837.792	-43.18
837.968	-8.36
838.145	-131.24
838.321	-20.65
838.498	8.02
838.674	32.6
838.851	14.17
839.027	-34.99
839.203	12.12
839.38	8.02
839.556	-51.37
839.732	102.23
839.909	32.6
840.085	79.7
840.261	-59.56
840.437	46.93
840.614	-61.61
840.79	55.12
840.966	32.6
841.142	44.88
841.318	-49.32
841.494	40.79
841.671	24.4
841.847	-8.36
842.023	-14.51
842.199	5.97
842.375	100.18
842.551	-90.28
842.727	-77.99
842.903	81.75
843.079	-82.09
843.255	73.56
843.431	22.36
843.607	-59.56
843.783	-178.34
843.959	-24.75
844.134	-88.23
844.31	53.08
844.486	-24.75
844.662	-88.23
844.838	85.84
845.013	12.12
845.189	34.64
845.365	71.51
845.541	-49.32
845.716	26.45
845.892	20.31
846.068	3.93
846.244	-86.19
846.419	-16.55
846.595	-114.86
846.77	-71.85
846.946	145.24
847.122	-51.37
847.297	-14.51
847.473	163.67
847.648	-84.14
847.824	-26.79
847.999	-96.43
848.175	-18.6
848.35	34.64
848.526	61.27
848.701	3.93
848.876	10.07
849.052	139.09
849.227	-53.42
849.403	-47.27
849.578	-4.27
849.753	36.69
849.929	157.52
850.104	-129.19
850.279	-30.89
850.454	36.69
850.63	63.32
850.805	-0.17
850.98	16.21
851.155	26.45
851.33	87.89
851.505	-67.75
851.681	98.13
851.856	-73.9
852.031	59.22
852.206	79.7
852.381	-39.08
852.556	-145.58
852.731	20.31
852.906	77.65
853.081	-6.31
853.256	161.62
853.431	-8.36
853.606	-63.66
853.781	-73.9
853.956	-139.43
854.131	8.02
854.305	-84.14
854.48	-49.32
854.655	-82.09
854.83	-30.89
855.005	53.08
855.18	-43.18
855.354	-22.7
855.529	87.89
855.704	-75.95
855.879	81.75
856.053	-118.95
856.228	-4.27
856.403	-61.61
856.577	63.32
856.752	-100.52
856.926	-84.14
857.101	71.51
857.276	-34.99
857.45	20.31
857.625	46.93
857.799	8.02
857.974	38.74
858.148	-51.37
858.323	18.26
858.497	-57.51
858.672	-96.43
858.846	-37.03
859.02	71.51
859.195	-26.79
859.369	-51.37
859.543	63.32
859.718	42.84
859.892	51.03
860.066	-12.46
860.241	-47.27
860.415	-30.89
860.589	46.93
860.763	8.02
860.938	36.69
861.112	-0.17
861.286	-41.13
861.46	-26.79
861.634	-26.79
861.808	51.03
861.982	-16.55
862.157	-51.37
862.331	-43.18
862.505	-114.86
862.679	-53.42
862.853	-6.31
863.027	-26.79
863.201	-2.22
863.375	-37.03
863.549	1.88
863.722	8.02
863.896	65.36
864.07	-30.89
864.244	-61.61
864.418	44.88
864.592	46.93
864.766	-0.17
864.939	32.6
865.113	-106.67
865.287	91.99
865.461	-12.46
865.634	-20.65
865.808	20.31
865.982	-51.37
866.156	-51.37
866.329	-98.47
866.503	46.93
866.676	8.02
866.85	-6.31
867.024	-112.81
867.197	5.97
867.371	-32.94
867.544	-6.31
867.718	-67.75
867.891	-8.36
868.065	-118.95
868.238	87.89
868.412	12.12
868.585	77.65
868.759	-2.22
868.932	20.31
869.105	-84.14
869.279	5.97
869.452	-32.94
869.625	14.17
869.799	-41.13
869.972	-131.24
870.145	-32.94
870.319	106.32
870.492	18.26
870.665	-20.65
870.838	-41.13
871.011	-125.1
871.185	-55.47
871.358	-14.51
871.531	57.17
871.704	-82.09
871.877	16.21
872.05	-65.71
872.223	-84.14
872.396	57.17
872.569	-0.17
872.742	-30.89
872.915	63.32
873.088	44.88
873.261	-90.28
873.434	61.27
873.607	-37.03
873.78	67.41
873.953	-88.23
874.126	-6.31
874.299	-12.46
874.471	-43.18
874.644	-34.99
874.817	59.22
874.99	155.47
875.163	-71.85
875.335	-34.99
875.508	-8.36
875.681	112.47
875.853	-71.85
876.026	-41.13
876.199	63.32
876.371	73.56
876.544	-57.51
876.717	-12.46
876.889	-49.32
877.062	-104.62
877.234	-55.47
877.407	-100.52
877.579	-32.94
877.752	24.4
877.924	65.36
878.097	59.22
878.269	14.17
878.442	-4.27
878.614	-0.17
878.786	71.51
878.959	-8.36
879.131	-37.03
879.303	-112.81
879.476	-6.31
879.648	24.4
879.82	-26.79
879.993	-32.94
880.165	-131.24
880.337	-84.14
880.509	20.31
880.681	-57.51
880.854	-100.52
881.026	24.4
881.198	42.84
881.37	-57.51
881.542	-34.99
881.714	-69.8
881.886	-18.6
882.058	1.88
882.23	-10.41
882.402	-34.99
882.574	53.08
882.746	48.98
882.918	69.46
883.09	3.93
883.262	-4.27
883.434	-30.89
883.606	-98.47
883.778	-14.51
883.95	194.39
884.122	-16.55
884.293	28.5
884.465	8.02
884.637	42.84
884.809	-69.8
884.98	-106.67
885.152	12.12
885.324	53.08
885.496	-75.95
885.667	12.12
885.839	-90.28
886.011	124.76
886.182	-28.84
886.354	30.55
886.525	-30.89
886.697	-24.75
886.869	-24.75
887.04	-53.42
887.212	116.56
887.383	94.04
887.555	-22.7
887.726	-24.75
887.897	-6.31
888.069	18.26
888.24	63.32
888.412	-18.6
888.583	-71.85
888.754	-8.36
888.926	-176.3
889.097	-59.56
889.268	-129.19
889.44	22.36
889.611	-112.81
889.782	-92.33
889.953	-32.94
890.125	-8.36
890.296	-63.66
890.467	-63.66
890.638	-69.8
890.809	-102.57
890.98	-32.94
891.151	59.22
891.323	48.98
891.494	36.69
891.665	20.31
891.836	-45.23
892.007	-28.84
892.178	18.26
892.349	-18.6
892.52	-80.04
892.691	-28.84
892.862	-22.7
893.032	-73.9
893.203	16.21
893.374	-53.42
893.545	73.56
893.716	-41.13
893.887	38.74
894.057	-129.19
894.228	-24.75
894.399	3.93
894.57	34.64
894.74	-14.51
894.911	36.69
895.082	-20.65
895.253	-73.9
895.423	-45.23
895.594	5.97
895.764	40.79
895.935	-108.71
896.106	36.69
896.276	14.17
896.447	85.84
896.617	-67.75
896.788	-80.04
896.958	-65.71
897.129	-43.18
897.299	-34.99
897.47	81.75
897.64	65.36
897.81	-65.71
897.981	34.64
898.151	-51.37
898.322	22.36
898.492	26.45
898.662	-47.27
898.832	-96.43
899.003	-69.8
899.173	-2.22
899.343	-57.51
899.513	-16.55
