Data from USB4F104151__136__11-03-45-144.txt Node

Date: Wed Feb 26 11:03:45 EST 2025
User: louis
Spectrometer: USB4F10415
Trigger mode: 4
Integration Time (sec): 1.000000E-1
Scans to average: 1
Electric dark correction enabled: true
Nonlinearity correction enabled: false
Boxcar width: 0
XAxis mode: Wavelengths
Number of Pixels in Spectrum: 3648
>>>>>Begin Spectral Data<<<<<
178.204	-416.76
178.424	-416.76
178.644	-416.76
178.864	-398.33
179.084	-461.82
179.304	-5.12
179.524	-29.7
179.744	17.41
179.964	31.74
180.184	37.89
180.404	74.75
180.624	27.65
180.844	-39.94
181.064	-56.32
181.283	44.03
181.503	-101.37
181.723	-1.02
181.943	-46.08
182.163	146.43
182.383	-29.7
182.602	95.23
182.822	136.19
183.042	70.65
183.262	-25.6
183.482	17.41
183.701	21.5
183.921	84.99
184.141	-46.08
184.361	19.46
184.58	31.74
184.8	54.27
185.02	5.12
185.239	84.99
185.459	62.46
185.679	168.96
185.898	-54.27
186.118	33.79
186.338	-31.74
186.557	136.19
186.777	-29.7
186.997	5.12
187.216	5.12
187.436	156.67
187.655	39.94
187.875	72.7
188.095	-52.22
188.314	52.22
188.534	125.95
188.753	11.26
188.973	185.34
189.192	134.14
189.412	-27.65
189.631	21.5
189.851	95.23
190.07	160.77
190.29	-64.51
190.509	-31.74
190.729	1.02
190.948	181.25
191.168	304.12
191.387	62.46
191.607	54.27
191.826	-5.12
192.045	5.12
192.265	-41.98
192.484	48.13
192.704	48.13
192.923	-15.36
193.142	214.01
193.362	160.77
193.581	173.05
193.8	64.51
194.02	17.41
194.239	29.7
194.458	64.51
194.678	21.5
194.897	-37.89
195.116	91.13
195.335	148.48
195.555	146.43
195.774	66.56
195.993	93.18
196.212	-1.02
196.432	11.26
196.651	-66.56
196.87	-23.55
197.089	252.92
197.308	60.42
197.528	89.09
197.747	-41.98
197.966	52.22
198.185	128
198.404	-19.46
198.623	109.57
198.842	89.09
199.062	97.28
199.281	82.94
199.5	107.52
199.719	-17.41
199.938	48.13
200.157	95.23
200.376	160.77
200.595	103.42
200.814	119.81
201.033	-80.89
201.252	113.66
201.471	78.85
201.69	89.09
201.909	9.22
202.128	89.09
202.347	87.04
202.566	-62.46
202.785	-25.6
203.004	9.22
203.223	254.97
203.442	132.09
203.661	-31.74
203.879	44.03
204.098	82.94
204.317	48.13
204.536	99.33
204.755	76.8
204.974	60.42
205.193	15.36
205.411	136.19
205.63	150.53
205.849	78.85
206.068	-19.46
206.287	-33.79
206.505	134.14
206.724	31.74
206.943	19.46
207.162	-72.7
207.381	66.56
207.599	-25.6
207.818	31.74
208.037	-62.46
208.255	48.13
208.474	80.89
208.693	89.09
208.911	23.55
209.13	62.46
209.349	76.8
209.567	199.68
209.786	105.47
210.005	56.32
210.223	19.46
210.442	-80.89
210.661	78.85
210.879	82.94
211.098	29.7
211.316	21.5
211.535	39.94
211.753	80.89
211.972	5.12
212.191	-7.17
212.409	11.26
212.628	78.85
212.846	37.89
213.065	13.31
213.283	121.85
213.502	-33.79
213.72	54.27
213.938	-17.41
214.157	5.12
214.375	62.46
214.594	41.98
214.812	84.99
215.031	-9.22
215.249	89.09
215.467	1.02
215.686	60.42
215.904	50.18
216.122	-37.89
216.341	105.47
216.559	19.46
216.778	89.09
216.996	105.47
217.214	13.31
217.432	1.02
217.651	-9.22
217.869	39.94
218.087	9.22
218.306	62.46
218.524	-11.26
218.742	-1.02
218.96	181.25
219.179	-62.46
219.397	48.13
219.615	279.55
219.833	80.89
220.051	-5.12
220.27	80.89
220.488	125.95
220.706	76.8
220.924	-15.36
221.142	-3.07
221.36	105.47
221.578	48.13
221.796	-3.07
222.015	-13.31
222.233	82.94
222.451	84.99
222.669	-13.31
222.887	62.46
223.105	50.18
223.323	56.32
223.541	-48.13
223.759	105.47
223.977	-37.89
224.195	128
224.413	80.89
224.631	39.94
224.849	115.71
225.067	228.35
225.285	-21.5
225.503	72.7
225.721	-87.04
225.939	5.12
226.157	52.22
226.375	177.15
226.592	-70.65
226.81	115.71
227.028	109.57
227.246	107.52
227.464	107.52
227.682	128
227.9	46.08
228.117	37.89
228.335	89.09
228.553	-13.31
228.771	70.65
228.989	50.18
229.206	1.02
229.424	13.31
229.642	15.36
229.86	-64.51
230.077	166.91
230.295	7.17
230.513	121.85
230.731	82.94
230.948	187.39
231.166	216.06
231.384	35.84
231.601	9.22
231.819	128
232.037	33.79
232.254	-56.32
232.472	39.94
232.689	39.94
232.907	111.61
233.125	3.07
233.342	-52.22
233.56	13.31
233.777	21.5
233.995	-5.12
234.213	52.22
234.43	64.51
234.648	3.07
234.865	50.18
235.083	39.94
235.3	107.52
235.518	58.37
235.735	183.29
235.953	117.76
236.17	52.22
236.388	11.26
236.605	27.65
236.822	93.18
237.04	107.52
237.257	113.66
237.475	-17.41
237.692	41.98
237.909	91.13
238.127	-58.37
238.344	121.85
238.562	25.6
238.779	-7.17
238.996	-50.18
239.214	27.65
239.431	62.46
239.648	-78.85
239.865	33.79
240.083	70.65
240.3	-17.41
240.517	-37.89
240.735	23.55
240.952	82.94
241.169	80.89
241.386	52.22
241.603	70.65
241.821	21.5
242.038	50.18
242.255	138.24
242.472	-13.31
242.689	46.08
242.907	144.38
243.124	132.09
243.341	27.65
243.558	-11.26
243.775	-39.94
243.992	-35.84
244.209	103.42
244.426	130.05
244.643	29.7
244.86	-21.5
245.078	54.27
245.295	-15.36
245.512	11.26
245.729	31.74
245.946	19.46
246.163	15.36
246.38	29.7
246.597	80.89
246.814	54.27
247.031	21.5
247.248	115.71
247.464	134.14
247.681	31.74
247.898	-1.02
248.115	9.22
248.332	17.41
248.549	148.48
248.766	168.96
248.983	23.55
249.2	33.79
249.417	62.46
249.633	-19.46
249.85	121.85
250.067	-37.89
250.284	93.18
250.501	66.56
250.717	95.23
250.934	-1.02
251.151	48.13
251.368	93.18
251.585	-27.65
251.801	68.61
252.018	-9.22
252.235	138.24
252.451	-39.94
252.668	39.94
252.885	144.38
253.102	103.42
253.318	66.56
253.535	31.74
253.752	-58.37
253.968	1.02
254.185	-74.75
254.401	107.52
254.618	-39.94
254.835	-23.55
255.051	138.24
255.268	13.31
255.484	50.18
255.701	62.46
255.917	11.26
256.134	-15.36
256.351	-64.51
256.567	-60.42
256.784	25.6
257	-107.52
257.217	123.9
257.433	109.57
257.65	-52.22
257.866	128
258.082	-13.31
258.299	-25.6
258.515	58.37
258.732	-7.17
258.948	-27.65
259.165	97.28
259.381	-11.26
259.597	109.57
259.814	62.46
260.03	52.22
260.246	3.07
260.463	25.6
260.679	72.7
260.895	19.46
261.112	17.41
261.328	35.84
261.544	31.74
261.761	177.15
261.977	31.74
262.193	-46.08
262.409	68.61
262.626	52.22
262.842	23.55
263.058	17.41
263.274	115.71
263.49	87.04
263.707	115.71
263.923	93.18
264.139	7.17
264.355	68.61
264.571	113.66
264.787	193.53
265.004	148.48
265.22	84.99
265.436	41.98
265.652	33.79
265.868	21.5
266.084	29.7
266.3	13.31
266.516	134.14
266.732	72.7
266.948	-33.79
267.164	-9.22
267.38	1.02
267.596	105.47
267.812	177.15
268.028	41.98
268.244	1.02
268.46	-13.31
268.676	7.17
268.892	39.94
269.108	-56.32
269.324	60.42
269.54	-128
269.756	89.09
269.972	17.41
270.188	62.46
270.403	-93.18
270.619	44.03
270.835	111.61
271.051	15.36
271.267	-37.89
271.483	-17.41
271.698	68.61
271.914	82.94
272.13	56.32
272.346	-17.41
272.562	52.22
272.777	68.61
272.993	31.74
273.209	-21.5
273.425	68.61
273.64	-33.79
273.856	121.85
274.072	-93.18
274.287	-39.94
274.503	82.94
274.719	62.46
274.934	1.02
275.15	-9.22
275.366	52.22
275.581	1.02
275.797	44.03
276.012	46.08
276.228	13.31
276.444	-11.26
276.659	123.9
276.875	-84.99
277.09	9.22
277.306	5.12
277.521	103.42
277.737	54.27
277.952	68.61
278.168	35.84
278.383	41.98
278.599	-27.65
278.814	99.33
279.03	54.27
279.245	99.33
279.461	11.26
279.676	164.86
279.892	-89.09
280.107	-17.41
280.322	-58.37
280.538	74.75
280.753	-128
280.969	-21.5
281.184	9.22
281.399	87.04
281.615	52.22
281.83	56.32
282.045	-144.38
282.26	-25.6
282.476	62.46
282.691	58.37
282.906	119.81
283.122	11.26
283.337	-23.55
283.552	29.7
283.767	48.13
283.983	82.94
284.198	39.94
284.413	80.89
284.628	3.07
284.843	1.02
285.058	140.29
285.274	46.08
285.489	-21.5
285.704	7.17
285.919	9.22
286.134	-27.65
286.349	3.07
286.564	-15.36
286.779	123.9
286.995	41.98
287.21	37.89
287.425	58.37
287.64	1.02
287.855	52.22
288.07	-91.13
288.285	93.18
288.5	117.76
288.715	19.46
288.93	23.55
289.145	-54.27
289.36	117.76
289.575	19.46
289.79	95.23
290.004	-15.36
290.219	76.8
290.434	-44.03
290.649	-21.5
290.864	-60.42
291.079	27.65
291.294	21.5
291.509	-1.02
291.724	27.65
291.938	37.89
292.153	113.66
292.368	35.84
292.583	-1.02
292.798	27.65
293.012	46.08
293.227	39.94
293.442	-7.17
293.657	107.52
293.871	103.42
294.086	-46.08
294.301	189.44
294.516	142.33
294.73	13.31
294.945	-29.7
295.16	-19.46
295.374	138.24
295.589	9.22
295.804	-68.61
296.018	25.6
296.233	140.29
296.447	72.7
296.662	-70.65
296.877	56.32
297.091	31.74
297.306	37.89
297.52	48.13
297.735	1.02
297.949	56.32
298.164	93.18
298.378	3.07
298.593	-19.46
298.807	1.02
299.022	-23.55
299.236	113.66
299.451	9.22
299.665	-21.5
299.88	29.7
300.094	31.74
300.309	56.32
300.523	80.89
300.737	-27.65
300.952	54.27
301.166	103.42
301.381	-15.36
301.595	-31.74
301.809	44.03
302.024	95.23
302.238	-60.42
302.452	179.2
302.667	-11.26
302.881	91.13
303.095	31.74
303.309	19.46
303.524	-25.6
303.738	11.26
303.952	-7.17
304.166	25.6
304.381	-117.76
304.595	89.09
304.809	5.12
305.023	76.8
305.237	-27.65
305.452	-50.18
305.666	150.53
305.88	115.71
306.094	97.28
306.308	128
306.522	15.36
306.736	84.99
306.95	82.94
307.164	-5.12
307.379	138.24
307.593	128
307.807	115.71
308.021	121.85
308.235	58.37
308.449	-62.46
308.663	-29.7
308.877	181.25
309.091	134.14
309.305	19.46
309.519	7.17
309.733	115.71
309.947	-113.66
310.161	19.46
310.374	99.33
310.588	144.38
310.802	-64.51
311.016	11.26
311.23	35.84
311.444	9.22
311.658	56.32
311.872	119.81
312.085	154.62
312.299	66.56
312.513	97.28
312.727	125.95
312.941	-54.27
313.154	-17.41
313.368	52.22
313.582	39.94
313.796	72.7
314.009	21.5
314.223	257.02
314.437	66.56
314.651	-3.07
314.864	-54.27
315.078	-17.41
315.292	-25.6
315.505	-15.36
315.719	33.79
315.933	121.85
316.146	44.03
316.36	66.56
316.573	66.56
316.787	93.18
317.001	27.65
317.214	48.13
317.428	74.75
317.641	-91.13
317.855	5.12
318.068	31.74
318.282	91.13
318.495	171.01
318.709	76.8
318.922	76.8
319.136	60.42
319.349	105.47
319.563	-11.26
319.776	9.22
319.99	-58.37
320.203	138.24
320.417	66.56
320.63	111.61
320.843	156.67
321.057	11.26
321.27	50.18
321.483	93.18
321.697	177.15
321.91	39.94
322.124	35.84
322.337	101.37
322.55	-3.07
322.763	66.56
322.977	23.55
323.19	29.7
323.403	21.5
323.617	37.89
323.83	84.99
324.043	37.89
324.256	105.47
324.469	21.5
324.683	123.9
324.896	17.41
325.109	62.46
325.322	-29.7
325.535	66.56
325.748	62.46
325.962	9.22
326.175	-46.08
326.388	56.32
326.601	123.9
326.814	33.79
327.027	9.22
327.24	148.48
327.453	-58.37
327.666	44.03
327.879	154.62
328.092	74.75
328.305	101.37
328.518	-62.46
328.731	5.12
328.944	-5.12
329.157	-11.26
329.37	9.22
329.583	148.48
329.796	87.04
330.009	-39.94
330.222	113.66
330.435	46.08
330.648	58.37
330.861	52.22
331.073	54.27
331.286	50.18
331.499	31.74
331.712	9.22
331.925	1.02
332.138	44.03
332.35	144.38
332.563	48.13
332.776	138.24
332.989	-68.61
333.202	-31.74
333.414	41.98
333.627	-7.17
333.84	-7.17
334.053	160.77
334.265	29.7
334.478	89.09
334.691	78.85
334.903	89.09
335.116	-11.26
335.329	23.55
335.541	125.95
335.754	125.95
335.966	-48.13
336.179	115.71
336.392	-19.46
336.604	3.07
336.817	95.23
337.029	78.85
337.242	23.55
337.454	58.37
337.667	17.41
337.88	179.2
338.092	113.66
338.305	15.36
338.517	-21.5
338.729	76.8
338.942	97.28
339.154	-9.22
339.367	-48.13
339.579	109.57
339.792	-11.26
340.004	-1.02
340.217	23.55
340.429	99.33
340.641	-35.84
340.854	-23.55
341.066	35.84
341.278	95.23
341.491	201.72
341.703	78.85
341.915	-50.18
342.128	37.89
342.34	52.22
342.552	-50.18
342.764	-7.17
342.977	-44.03
343.189	97.28
343.401	46.08
343.613	-13.31
343.826	1.02
344.038	-3.07
344.25	37.89
344.462	11.26
344.674	76.8
344.886	-25.6
345.099	58.37
345.311	64.51
345.523	-62.46
345.735	-164.86
345.947	17.41
346.159	46.08
346.371	19.46
346.583	31.74
346.795	205.82
347.007	97.28
347.219	76.8
347.431	19.46
347.643	246.78
347.855	-62.46
348.067	107.52
348.279	-64.51
348.491	82.94
348.703	87.04
348.915	9.22
349.127	-37.89
349.339	84.99
349.551	1.02
349.763	105.47
349.975	-21.5
350.187	119.81
350.399	189.44
350.61	7.17
350.822	-33.79
351.034	130.05
351.246	74.75
351.458	54.27
351.669	97.28
351.881	84.99
352.093	173.05
352.305	58.37
352.517	23.55
352.728	156.67
352.94	-7.17
353.152	19.46
353.363	-33.79
353.575	68.61
353.787	132.09
353.999	52.22
354.21	193.53
354.422	-66.56
354.633	-5.12
354.845	7.17
355.057	60.42
355.268	-15.36
355.48	113.66
355.692	-29.7
355.903	105.47
356.115	31.74
356.326	-62.46
356.538	123.9
356.749	46.08
356.961	74.75
357.172	52.22
357.384	35.84
357.595	271.36
357.807	7.17
358.018	-60.42
358.23	11.26
358.441	105.47
358.653	39.94
358.864	19.46
359.075	-31.74
359.287	101.37
359.498	150.53
359.709	72.7
359.921	-5.12
360.132	48.13
360.344	25.6
360.555	-23.55
360.766	54.27
360.977	54.27
361.189	62.46
361.4	37.89
361.611	144.38
361.823	140.29
362.034	25.6
362.245	-119.81
362.456	74.75
362.667	64.51
362.879	-25.6
363.09	17.41
363.301	-19.46
363.512	35.84
363.723	68.61
363.935	-5.12
364.146	130.05
364.357	-7.17
364.568	33.79
364.779	-109.57
364.99	199.68
365.201	3.07
365.412	74.75
365.623	-41.98
365.834	31.74
366.045	107.52
366.256	37.89
366.467	76.8
366.678	-31.74
366.889	-5.12
367.1	56.32
367.311	121.85
367.522	-33.79
367.733	103.42
367.944	50.18
368.155	11.26
368.366	115.71
368.577	224.25
368.788	121.85
368.999	-27.65
369.209	-1.02
369.42	171.01
369.631	263.16
369.842	125.95
370.053	-11.26
370.264	62.46
370.474	-27.65
370.685	109.57
370.896	-9.22
371.107	115.71
371.317	80.89
371.528	-29.7
371.739	117.76
371.95	78.85
372.16	146.43
372.371	-35.84
372.582	74.75
372.792	35.84
373.003	5.12
373.214	46.08
373.424	95.23
373.635	-15.36
373.846	91.13
374.056	27.65
374.267	101.37
374.477	82.94
374.688	-5.12
374.898	84.99
375.109	76.8
375.319	103.42
375.53	35.84
375.74	111.61
375.951	29.7
376.161	56.32
376.372	66.56
376.582	-70.65
376.793	35.84
377.003	37.89
377.214	-66.56
377.424	76.8
377.635	76.8
377.845	29.7
378.055	121.85
378.266	-1.02
378.476	1.02
378.686	76.8
378.897	70.65
379.107	119.81
379.317	35.84
379.528	-11.26
379.738	91.13
379.948	7.17
380.158	84.99
380.369	97.28
380.579	64.51
380.789	41.98
380.999	84.99
381.21	115.71
381.42	117.76
381.63	52.22
381.84	25.6
382.05	56.32
382.261	107.52
382.471	117.76
382.681	78.85
382.891	199.68
383.101	44.03
383.311	27.65
383.521	64.51
383.731	80.89
383.941	156.67
384.151	97.28
384.361	89.09
384.571	37.89
384.781	128
384.991	199.68
385.201	220.16
385.411	115.71
385.621	50.18
385.831	21.5
386.041	-9.22
386.251	33.79
386.461	185.34
386.671	33.79
386.881	-29.7
387.091	-50.18
387.301	168.96
387.511	-33.79
387.72	125.95
387.93	134.14
388.14	-78.85
388.35	105.47
388.56	35.84
388.769	117.76
388.979	11.26
389.189	-97.28
389.399	56.32
389.609	89.09
389.818	105.47
390.028	52.22
390.238	164.86
390.447	44.03
390.657	41.98
390.867	17.41
391.076	-111.61
391.286	39.94
391.496	-1.02
391.705	-23.55
391.915	156.67
392.125	179.2
392.334	-5.12
392.544	207.87
392.753	62.46
392.963	11.26
393.172	21.5
393.382	-66.56
393.591	164.86
393.801	-5.12
394.01	211.96
394.22	128
394.429	91.13
394.639	7.17
394.848	66.56
395.058	19.46
395.267	66.56
395.477	144.38
395.686	84.99
395.895	261.12
396.105	207.87
396.314	123.9
396.524	9.22
396.733	99.33
396.942	62.46
397.152	-7.17
397.361	173.05
397.57	72.7
397.78	39.94
397.989	58.37
398.198	248.83
398.407	-17.41
398.617	123.9
398.826	19.46
399.035	17.41
399.244	107.52
399.453	23.55
399.663	60.42
399.872	23.55
400.081	56.32
400.29	144.38
400.499	7.17
400.708	52.22
400.917	39.94
401.127	58.37
401.336	41.98
401.545	164.86
401.754	93.18
401.963	136.19
402.172	9.22
402.381	-9.22
402.59	68.61
402.799	58.37
403.008	154.62
403.217	23.55
403.426	44.03
403.635	-41.98
403.844	19.46
404.053	-9.22
404.262	33.79
404.471	179.2
404.68	70.65
404.888	60.42
405.097	13.31
405.306	1.02
405.515	31.74
405.724	-58.37
405.933	99.33
406.142	29.7
406.35	89.09
406.559	15.36
406.768	-7.17
406.977	166.91
407.185	-41.98
407.394	95.23
407.603	-101.37
407.812	50.18
408.02	76.8
408.229	-44.03
408.438	21.5
408.646	-72.7
408.855	74.75
409.064	25.6
409.272	7.17
409.481	48.13
409.69	-46.08
409.898	13.31
410.107	125.95
410.315	113.66
410.524	-33.79
410.733	-21.5
410.941	29.7
411.15	84.99
411.358	146.43
411.567	105.47
411.775	17.41
411.984	82.94
412.192	62.46
412.401	-68.61
412.609	123.9
412.818	138.24
413.026	87.04
413.234	50.18
413.443	41.98
413.651	-25.6
413.86	87.04
414.068	191.49
414.276	236.54
414.485	-1.02
414.693	193.53
414.901	209.92
415.11	-9.22
415.318	31.74
415.526	52.22
415.734	95.23
415.943	123.9
416.151	119.81
416.359	-41.98
416.567	97.28
416.776	58.37
416.984	93.18
417.192	130.05
417.4	64.51
417.608	58.37
417.817	-13.31
418.025	154.62
418.233	183.29
418.441	-50.18
418.649	7.17
418.857	72.7
419.065	152.57
419.273	-19.46
419.481	62.46
419.689	101.37
419.897	-7.17
420.105	84.99
420.313	166.91
420.521	183.29
420.729	199.68
420.937	44.03
421.145	-31.74
421.353	68.61
421.561	144.38
421.769	70.65
421.977	-68.61
422.185	134.14
422.393	41.98
422.601	166.91
422.809	115.71
423.017	52.22
423.224	39.94
423.432	111.61
423.64	19.46
423.848	134.14
424.056	27.65
424.263	87.04
424.471	44.03
424.679	179.2
424.887	-99.33
425.094	113.66
425.302	115.71
425.51	80.89
425.718	97.28
425.925	31.74
426.133	48.13
426.341	283.64
426.548	50.18
426.756	72.7
426.964	195.58
427.171	15.36
427.379	66.56
427.586	64.51
427.794	136.19
428.001	128
428.209	121.85
428.417	218.11
428.624	173.05
428.832	97.28
429.039	87.04
429.247	103.42
429.454	125.95
429.662	232.44
429.869	115.71
430.076	103.42
430.284	171.01
430.491	171.01
430.699	189.44
430.906	265.21
431.114	158.72
431.321	203.77
431.528	156.67
431.736	95.23
431.943	177.15
432.15	181.25
432.358	117.76
432.565	297.98
432.772	82.94
432.979	191.49
433.187	142.33
433.394	254.97
433.601	166.91
433.808	218.11
434.016	257.02
434.223	175.1
434.43	185.34
434.637	293.88
434.844	300.03
435.052	244.73
435.259	304.12
435.466	297.98
435.673	158.72
435.88	234.49
436.087	240.64
436.294	295.93
436.501	353.27
436.708	326.65
436.915	322.56
437.122	369.66
437.329	281.6
437.537	326.65
437.743	336.89
437.95	496.63
438.157	300.03
438.364	404.47
438.571	412.67
438.778	375.8
438.985	416.76
439.192	533.5
439.399	435.19
439.606	553.98
439.813	523.26
440.02	652.28
440.227	781.3
440.433	588.79
440.64	607.22
440.847	533.5
441.054	717.81
441.261	760.82
441.467	615.41
441.674	611.32
441.881	766.96
442.088	711.67
442.294	785.4
442.501	883.7
442.708	838.64
442.914	762.87
443.121	938.99
443.328	967.67
443.534	975.86
443.741	945.14
443.948	922.61
444.154	1020.91
444.361	1256.43
444.568	1115.12
444.774	1102.83
444.981	1090.54
445.187	1379.31
445.394	1194.99
445.6	1184.75
445.807	1487.85
446.013	1383.4
446.22	1362.92
446.426	1567.72
446.633	1475.56
446.839	1795.04
447.046	1489.9
447.252	1704.93
447.459	1854.44
447.665	1790.95
447.871	2028.51
448.078	2135.01
448.284	2032.61
448.491	2171.87
448.697	2264.03
448.903	2366.43
449.11	2272.22
449.316	2331.61
449.522	2579.42
449.728	2726.87
449.935	2741.21
450.141	2788.31
450.347	2997.2
450.553	2960.34
450.76	2960.34
450.966	3204.05
451.172	3351.5
451.378	3564.49
451.584	3439.56
451.791	3828.68
451.997	3840.97
452.203	3953.6
452.409	4207.55
452.615	4359.1
452.821	4299.71
453.027	4219.84
453.233	4729.78
453.44	4578.23
453.646	4934.58
453.852	4987.83
454.058	5194.67
454.264	5469.1
454.47	5931.94
454.676	5815.21
454.882	6484.89
455.088	6226.85
455.294	6554.52
455.5	6890.39
455.705	7244.69
455.911	7195.54
456.117	7353.23
456.323	7660.43
456.529	7904.14
456.735	8416.13
456.941	8790.91
457.147	9003.89
457.352	9317.23
457.558	9558.89
457.764	10152.81
457.97	10210.15
458.176	10896.22
458.381	11121.49
458.587	11590.48
458.793	12206.92
458.999	12161.86
459.204	13589.3
459.41	14054.19
459.616	14021.42
459.821	14707.49
460.027	15348.5
460.233	16036.62
460.438	16309
460.644	17255.16
460.85	17134.33
461.055	18025.2
461.261	18881.25
461.466	18254.57
461.672	19192.54
461.878	21048
462.083	20611.78
462.289	21351.1
462.494	22028.98
462.7	22158
462.905	22436.52
463.111	24750.73
463.316	25457.28
463.522	26016.37
463.727	26700.39
463.932	27789.91
464.138	28867.14
464.343	29723.19
464.549	29973.05
464.754	32094.74
464.959	32899.59
465.165	33673.73
465.37	33581.57
465.575	33131.01
465.781	35492.32
465.986	36622.8
466.191	36008.41
466.397	36649.42
466.602	35258.85
466.807	37099.98
467.012	37654.98
467.218	38248.89
467.423	38613.43
467.628	39686.56
467.833	41722.24
468.038	40796.56
468.244	40214.94
468.449	42363.26
468.654	41521.54
468.859	41345.42
469.064	41337.23
469.269	39866.78
469.474	40577.43
469.679	41519.49
469.885	40153.5
470.09	40671.64
470.295	41163.15
470.5	39838.11
470.705	40219.03
470.91	39080.36
471.115	38502.84
471.32	39696.8
471.525	39082.41
471.73	37978.56
471.935	38162.87
472.139	35768.8
472.344	36753.87
472.549	36133.34
472.754	34935.27
472.959	34654.7
473.164	33624.57
473.369	32518.67
473.574	33769.98
473.778	32731.66
473.983	32301.59
474.188	31691.29
474.393	30050.87
474.598	30319.15
474.802	29377.09
475.007	28922.44
475.212	29016.65
475.417	27710.04
475.621	27155.04
475.826	26927.72
476.031	26282.61
476.235	25608.83
476.44	26143.35
476.645	25156.22
476.849	24996.48
477.054	24627.85
477.259	23747.22
477.463	24081.04
477.668	23552.66
477.872	23462.55
478.077	22448.81
478.282	22071.98
478.486	21865.14
478.691	21691.06
478.895	21400.25
479.1	21148.35
479.304	21052.09
479.509	20128.46
479.713	20642.5
479.918	20288.2
480.122	19868.37
480.326	19933.9
480.531	19839.7
480.735	19540.69
480.94	19331.8
481.144	20091.6
481.348	18973.41
481.553	19106.52
481.757	18426.6
481.961	18795.23
482.166	18924.26
482.37	18453.22
482.574	18318.06
482.778	18256.62
482.983	18277.1
483.187	18031.34
483.391	17693.43
483.595	17588.98
483.8	17306.36
484.004	17339.13
484.208	17404.66
484.412	17101.56
484.616	17017.6
484.821	16896.77
485.025	16280.33
485.229	16409.35
485.433	16091.91
485.637	15835.92
485.841	15692.56
486.045	15485.72
486.249	15303.45
486.453	14850.85
486.657	14594.85
486.861	14631.71
487.065	14306.09
487.269	14048.04
487.473	13585.2
487.677	13763.37
487.881	13947.69
488.085	13237.05
488.289	13153.08
488.493	12784.44
488.697	12839.74
488.901	12608.32
489.105	12213.06
489.309	11909.96
489.512	11860.81
489.716	11586.38
489.92	11385.68
490.124	11197.27
490.328	11105.11
490.531	11029.34
490.735	10523.49
490.939	10326.88
491.143	10193.76
491.346	10120.04
491.55	9870.19
491.754	9872.23
491.958	9556.85
492.161	9702.25
492.365	9352.05
492.569	9073.53
492.772	9110.39
492.976	8809.34
493.18	8702.84
493.383	8565.63
493.587	8547.2
493.79	8557.44
493.994	8137.6
494.197	8274.82
494.401	8203.14
494.605	7945.09
494.808	8180.61
495.012	7945.09
495.215	8043.4
495.419	7885.7
495.622	7734.15
495.825	7748.49
496.029	7748.49
496.232	7721.87
496.436	7646.09
496.639	8027.01
496.843	7529.36
497.046	7631.76
497.249	7799.69
497.453	7734.15
497.656	7566.22
497.859	7625.61
498.063	7719.82
498.266	7766.92
498.469	7725.96
498.673	7850.89
498.876	7824.26
499.079	7689.1
499.282	7742.35
499.485	8240
499.689	7883.66
499.892	8123.27
500.095	7934.85
500.298	8196.99
500.501	7889.8
500.705	8211.33
500.908	8229.76
501.111	8270.72
501.314	8508.29
501.517	8543.1
501.72	8444.8
501.923	8641.4
502.126	8846.2
502.329	9016.18
502.532	8930.17
502.735	9007.99
502.938	9079.67
503.141	9339.76
503.344	9358.19
503.547	9438.06
503.75	9577.33
503.953	9669.48
504.156	9857.9
504.359	10060.65
504.562	10027.88
504.765	10330.98
504.968	10466.14
505.17	10484.58
505.373	10693.47
505.576	11004.76
505.779	11117.4
505.982	11393.87
506.185	11471.7
506.387	11645.77
506.59	11836.24
506.793	12114.76
506.996	12241.73
507.198	12712.77
507.401	12929.85
507.604	12886.84
507.807	13460.27
508.009	13703.98
508.212	13968.17
508.415	14248.74
508.617	14457.64
508.82	14465.83
509.022	14836.51
509.225	15407.89
509.428	15618.83
509.63	16005.9
509.833	16128.78
510.035	16839.42
510.238	17089.28
510.44	17408.76
510.643	17767.15
510.845	18309.86
511.048	18416.36
511.25	19026.65
511.453	19405.53
511.655	20263.63
511.858	20255.43
512.06	20722.37
512.262	21025.47
512.465	21387.96
512.667	22028.98
512.87	22676.13
513.072	23231.13
513.274	23823
513.477	24115.86
513.679	24611.46
513.881	25258.62
514.084	25868.92
514.286	26301.04
514.488	26778.22
514.69	27910.74
514.893	27931.22
515.095	28566.09
515.297	29053.51
515.499	29598.27
515.701	30511.66
515.904	31142.44
516.106	31953.43
516.308	32397.84
516.51	33436.16
516.712	33444.35
516.914	34603.5
517.116	35353.06
517.318	35748.32
517.52	36192.73
517.722	36665.81
517.925	37712.32
518.127	38566.32
518.329	39043.5
518.531	39051.69
518.733	40386.97
518.935	40575.38
519.136	41025.93
519.338	42148.22
519.54	42385.79
519.742	43264.36
519.944	43827.56
520.146	44656.98
520.348	45211.98
520.55	45822.28
520.752	46096.7
520.954	46887.22
521.155	47180.08
521.357	48042.27
521.559	48341.28
521.761	49312.02
521.963	48734.49
522.164	49416.46
522.366	50022.66
522.568	50452.73
522.77	50925.81
522.971	51294.45
523.173	51437.81
523.375	51593.45
523.576	51589.36
523.778	51552.49
523.98	53067.99
524.181	53123.29
524.383	52379.87
524.584	53410
524.786	53024.98
524.988	52977.88
525.189	53612.75
525.391	53553.36
525.592	53332.18
525.794	53797.07
525.995	53639.37
526.197	53328.08
526.398	53340.37
526.6	53319.89
526.801	52900.06
527.003	52656.35
527.204	52371.68
527.406	52783.32
527.607	52211.94
527.808	52541.66
528.01	51314.93
528.211	51454.19
528.412	51966.18
528.614	50804.98
528.815	50866.42
529.016	50678.01
529.218	49391.89
529.419	49328.4
529.62	49172.75
529.822	48531.74
530.023	48275.74
530.224	48261.41
530.425	46930.23
530.626	46424.38
530.828	45859.14
531.029	46434.62
531.23	45355.34
531.431	44546.39
531.632	44966.23
531.833	43809.12
532.035	43129.2
532.236	42776.95
532.437	42393.98
532.638	41736.58
532.839	41349.51
533.04	40982.93
533.241	39778.72
533.442	40227.23
533.643	39481.77
533.844	38607.28
534.045	38515.12
534.246	37237.19
534.447	37206.47
534.648	36473.3
534.849	36282.84
535.05	35484.13
535.251	35078.63
535.451	34798.06
535.652	34150.9
535.853	33542.66
536.054	33434.11
536.255	32850.44
536.456	32246.29
536.657	32487.95
536.857	31273.51
537.058	31093.29
537.259	30847.53
537.46	30597.68
537.66	29801.02
537.861	29667.9
538.062	28881.48
538.263	28598.86
538.463	28328.53
538.664	27869.78
538.865	27888.21
539.065	27243.1
539.266	26915.43
539.466	26884.71
539.667	26008.18
539.868	26194.54
540.068	25326.21
540.269	25406.08
540.469	25227.9
540.67	24746.63
540.87	24408.72
541.071	24048.27
541.271	24013.46
541.472	23898.77
541.672	23282.33
541.873	23138.97
542.073	22479.53
542.274	22784.68
542.474	22307.5
542.675	22063.79
542.875	22084.27
543.075	21564.09
543.276	21195.45
543.476	21295.8
543.676	20867.78
543.877	20493
544.077	20615.88
544.277	20140.75
544.478	19835.6
544.678	19903.18
544.878	19464.92
545.078	19063.52
545.279	18889.44
545.479	18819.81
545.679	18676.45
545.879	18270.95
546.079	18213.61
546.28	17890.03
546.48	17822.45
546.68	17820.4
546.88	17404.66
547.08	17369.85
547.28	16878.33
547.48	16505.6
547.68	16345.86
547.88	16235.27
548.081	16233.22
548.281	15915.79
548.481	15495.96
548.681	15354.65
548.881	15377.17
549.081	15139.61
549.28	14799.65
549.48	14738.21
549.68	14654.24
549.88	14363.43
550.08	13816.62
550.28	14052.14
550.48	13738.8
550.68	13562.67
550.88	13327.16
551.08	13001.53
551.279	13185.85
551.479	12604.22
551.679	12544.83
551.879	12233.54
552.079	12254.02
552.278	11936.59
552.478	12022.6
552.678	11711.31
552.878	11610.96
553.077	11529.04
553.277	10978.14
553.477	11178.84
553.676	11082.58
553.876	10566.49
554.076	10316.64
554.275	10382.18
554.475	9905
554.674	10161
554.874	9982.82
555.074	9655.15
555.273	9476.98
555.473	9519.98
555.672	9102.2
555.872	9091.96
556.071	9001.85
556.271	8805.24
556.47	8770.43
556.67	8444.8
556.869	8399.74
557.068	8053.64
557.268	8086.4
557.467	7918.47
557.667	7818.12
557.866	7562.12
558.065	7623.56
558.265	7525.26
558.464	7158.67
558.663	7205.78
558.863	7130
559.062	7189.39
559.261	6701.98
559.461	6898.58
559.66	6618.01
559.859	6650.78
560.058	6388.64
560.258	6204.32
560.457	6116.26
560.656	6134.69
560.855	5886.89
561.054	6040.48
561.253	5927.85
561.453	5735.34
561.652	5847.97
561.851	5731.24
562.05	5462.96
562.249	5168.05
562.448	5589.93
562.647	5297.07
562.846	5155.76
563.045	5161.91
563.244	5075.89
563.443	5061.55
563.642	4826.04
563.841	4828.09
564.04	4752.31
564.239	4666.3
564.438	4563.9
564.637	4453.31
564.836	4438.97
565.035	4330.43
565.234	4336.57
565.432	4205.5
565.631	4264.89
565.83	4117.44
566.029	4139.97
566.228	3926.98
566.427	4008.9
566.625	3892.16
566.824	3965.89
567.023	3863.49
567.222	3650.5
567.42	3638.22
567.619	3773.38
567.818	3705.8
568.016	3648.46
568.215	3492.81
568.414	3449.8
568.612	3468.24
568.811	3331.02
569.01	3283.92
569.208	3189.71
569.407	3232.72
569.605	3226.57
569.804	3023.83
570.002	3140.56
570.201	2986.96
570.4	3077.07
570.598	2972.63
570.797	3017.68
570.995	2769.88
571.193	2769.88
571.392	2837.46
571.59	2718.68
571.789	2763.73
571.987	2669.53
572.186	2638.81
572.384	2509.79
572.582	2544.6
572.781	2517.98
572.979	2440.15
573.177	2434.01
573.376	2413.53
573.574	2364.38
573.772	2286.56
573.971	2268.13
574.169	2083.81
574.367	2337.76
574.565	2167.77
574.763	2077.66
574.962	2122.72
575.16	2048.99
575.358	1922.02
575.556	1997.79
575.754	2077.66
575.952	1969.12
576.151	1989.6
576.349	1975.27
576.547	1694.69
576.745	1842.15
576.943	1948.64
577.141	1688.55
577.339	1682.41
577.537	1649.64
577.735	1661.93
577.933	1663.97
578.131	1557.48
578.329	1799.14
578.527	1555.43
578.725	1557.48
578.923	1371.12
579.121	1514.47
579.319	1354.73
579.516	1442.79
579.714	1586.15
579.912	1444.84
580.11	1266.67
580.308	1401.83
580.506	1266.67
580.704	1192.94
580.901	1293.29
581.099	1352.68
581.297	1285.1
581.495	1287.15
581.692	1151.98
581.89	1233.9
582.088	1223.66
582.285	1211.37
582.483	1117.17
582.681	1098.74
582.878	1117.17
583.076	1082.35
583.274	1098.74
583.471	1123.31
583.669	1098.74
583.866	1031.15
584.064	1006.58
584.262	936.95
584.459	1004.53
584.657	1102.83
584.854	1070.06
585.052	1055.73
585.249	996.34
585.447	916.47
585.644	959.47
585.841	982
586.039	801.78
586.236	928.75
586.434	842.74
586.631	832.5
586.828	818.16
587.026	797.68
587.223	781.3
587.42	842.74
587.618	789.49
587.815	865.27
588.012	685.05
588.21	713.72
588.407	891.89
588.604	916.47
588.801	631.8
588.999	775.16
589.196	787.44
589.393	742.39
589.59	713.72
589.787	760.82
589.984	750.58
590.182	769.01
590.379	662.52
590.576	609.27
590.773	699.38
590.97	621.56
591.167	891.89
591.364	779.25
591.561	711.67
591.758	859.12
591.955	758.77
592.152	650.23
592.349	594.93
592.546	625.65
592.743	654.33
592.94	693.24
593.137	752.63
593.334	750.58
593.531	717.81
593.727	762.87
593.924	760.82
594.121	726
594.318	639.99
594.515	744.44
594.712	859.12
594.908	795.64
595.105	564.22
595.302	771.06
595.499	771.06
595.696	910.32
595.892	713.72
596.089	869.36
596.286	756.72
596.482	936.95
596.679	992.24
596.876	805.88
597.072	1076.21
597.269	885.75
597.466	1012.72
597.662	1008.62
597.859	982
598.055	963.57
598.252	1096.69
598.448	1145.84
598.645	1156.08
598.841	1229.81
599.038	1367.02
599.234	1352.68
599.431	1299.44
599.627	1410.03
599.824	1479.66
600.02	1465.32
600.217	1594.34
600.413	1504.23
600.609	1711.08
600.806	1895.4
601.002	1706.98
601.198	1709.03
601.395	1862.63
601.591	2020.32
601.787	2036.7
601.984	2085.86
602.18	2141.15
602.376	2214.88
602.572	2452.44
602.769	2440.15
602.965	2542.55
603.161	2556.89
603.357	2722.77
603.553	2925.52
603.75	2864.08
603.946	2855.89
604.142	3058.64
604.338	3189.71
604.534	3281.87
604.73	3388.36
604.926	3451.85
605.122	3681.22
605.318	3681.22
605.514	3896.26
605.71	3867.59
605.906	4094.91
606.102	4156.35
606.298	4369.34
606.494	4436.92
606.69	4625.34
606.886	4750.26
607.082	4791.22
607.278	4774.84
607.474	5104.56
607.67	5292.98
607.866	5206.96
608.062	5606.31
608.257	5657.51
608.453	5751.72
608.649	6001.57
608.845	6214.56
609.041	6138.79
609.236	6445.98
609.432	6450.08
609.628	7003.03
609.824	6998.93
610.019	7046.04
610.215	7269.27
610.411	7650.19
610.606	7748.49
610.802	7924.62
610.998	7891.85
611.193	8452.99
611.389	8549.25
611.584	8747.9
611.78	8903.54
611.976	9255.79
612.171	9757.55
612.367	9712.49
612.562	9900.9
612.758	10093.41
612.953	10224.48
613.149	10894.17
613.344	10857.31
613.539	11365.2
613.735	11639.63
613.93	11989.83
614.126	12137.29
614.321	12622.66
614.517	12819.26
614.712	13206.33
614.907	13382.45
615.103	13927.21
615.298	14009.13
615.493	14396.2
615.688	14754.59
615.884	15594.26
616.079	15379.22
616.274	16483.08
616.47	16442.12
616.665	16900.86
616.86	17287.93
617.055	18096.88
617.25	18082.54
617.445	18645.73
617.641	18973.41
617.836	20034.25
618.031	19714.77
618.226	20617.93
618.421	20773.57
618.616	21451.45
618.811	21703.35
619.006	22633.13
619.201	22571.69
619.396	23583.38
619.591	23464.6
619.786	24584.84
619.981	24507.02
620.176	25711.22
620.371	25756.28
620.566	26368.62
620.761	26882.66
620.956	27830.87
621.151	27691.61
621.346	28682.83
621.541	28906.05
621.735	30009.91
621.93	29749.82
622.125	30652.97
622.32	30800.43
622.515	32037.4
622.709	31988.25
622.904	32766.48
623.099	33131.01
623.294	33980.92
623.488	34482.67
623.683	35359.2
623.878	35668.45
624.072	36278.74
624.267	37124.55
624.462	37583.3
624.656	37261.77
624.851	38437.3
625.046	38816.18
625.24	39535.01
625.435	39272.87
625.629	40573.33
625.824	40546.71
626.018	41122.19
626.213	40860.05
626.407	42381.69
626.602	41728.39
626.796	42563.96
626.991	43108.72
627.185	43254.12
627.38	43456.87
627.574	43657.57
627.768	43336.04
627.963	43934.05
628.157	43915.62
628.352	44056.93
628.546	43229.55
628.74	43835.75
628.935	43440.49
629.129	43635.05
629.323	42701.17
629.517	42602.87
629.712	42176.89
629.906	41574.79
630.1	40884.62
630.294	40919.44
630.489	40386.97
630.683	40108.44
630.877	38658.48
631.071	37884.35
631.265	37317.06
631.459	36510.16
631.653	35613.15
631.848	34490.87
632.042	33626.62
632.236	33321.48
632.43	31416.86
632.624	30935.59
632.818	30214.71
633.012	28754.51
633.206	27828.82
633.4	27152.99
633.594	26124.91
633.788	25223.81
633.982	24306.32
634.176	23288.48
634.369	22338.22
634.563	21605.05
634.757	20589.25
634.951	20241.1
635.145	19325.66
635.339	18283.24
635.533	17697.52
635.726	16896.77
635.92	16073.48
636.114	15479.57
636.308	14965.53
636.501	14398.24
636.695	13511.47
636.889	13054.78
637.083	12620.61
637.276	11883.34
637.47	11565.9
637.664	10931.03
637.857	10586.97
638.051	10113.89
638.244	9732.97
638.438	9393.01
638.632	9126.77
638.825	8751.99
639.019	8219.52
639.212	8135.56
639.406	7748.49
639.599	7273.36
639.793	7125.91
639.986	6704.03
640.18	6562.72
640.373	6278.05
640.567	6114.21
640.76	5788.58
640.954	5655.47
641.147	5426.09
641.34	5166
641.534	4979.64
641.727	4887.48
641.92	4674.49
642.114	4567.99
642.307	4262.85
642.5	4223.94
642.694	3875.78
642.887	3730.38
643.08	3720.14
643.273	3609.54
643.467	3271.63
643.66	3095.5
643.853	2997.2
644.046	3003.35
644.239	2972.63
644.432	2685.91
644.626	2534.36
644.819	2603.99
645.012	2495.45
645.205	2526.17
645.398	2386.91
645.591	2294.75
645.784	1995.75
645.977	1969.12
646.17	1940.45
646.363	1942.5
646.556	1752.04
646.749	1739.75
646.942	1813.48
647.135	1786.85
647.328	1516.52
647.521	1713.13
647.714	1336.3
647.907	1373.16
648.099	1238
648.292	1301.48
648.485	1293.29
648.678	1209.33
648.871	1186.8
649.064	1121.26
649.256	924.66
649.449	982
649.642	859.12
649.835	938.99
650.027	865.27
650.22	1010.67
650.413	828.4
650.605	920.56
650.798	764.92
650.991	828.4
651.183	756.72
651.376	799.73
651.568	713.72
651.761	689.14
651.954	740.34
652.146	689.14
652.339	736.24
652.531	666.61
652.724	556.02
652.916	547.83
653.109	424.95
653.301	680.95
653.494	558.07
653.686	560.12
653.879	513.02
654.071	502.78
654.263	427
654.456	453.63
654.648	556.02
654.84	494.58
655.033	394.23
655.225	480.25
655.417	336.89
655.61	459.77
655.802	369.66
655.994	496.63
656.186	304.12
656.379	420.86
656.571	300.03
656.763	312.32
656.955	359.42
657.148	332.79
657.34	427
657.532	314.36
657.724	273.4
657.916	330.75
658.108	390.14
658.3	273.4
658.492	320.51
658.684	242.68
658.876	287.74
659.068	132.09
659.26	76.8
659.452	187.39
659.644	269.31
659.836	379.9
660.028	320.51
660.22	214.01
660.412	203.77
660.604	236.54
660.796	226.3
660.988	265.21
661.18	158.72
661.372	240.64
661.563	138.24
661.755	158.72
661.947	146.43
662.139	205.82
662.331	164.86
662.522	146.43
662.714	64.51
662.906	101.37
663.097	160.77
663.289	48.13
663.481	48.13
663.673	121.85
663.864	160.77
664.056	187.39
664.247	162.81
664.439	168.96
664.631	146.43
664.822	234.49
665.014	48.13
665.205	62.46
665.397	173.05
665.588	146.43
665.78	181.25
665.971	199.68
666.163	89.09
666.354	146.43
666.546	48.13
666.737	113.66
666.929	148.48
667.12	113.66
667.311	171.01
667.503	103.42
667.694	183.29
667.885	146.43
668.077	171.01
668.268	70.65
668.459	35.84
668.651	121.85
668.842	193.53
669.033	109.57
669.224	29.7
669.416	263.16
669.607	166.91
669.798	-1.02
669.989	240.64
670.18	132.09
670.371	183.29
670.563	5.12
670.754	183.29
670.945	240.64
671.136	148.48
671.327	21.5
671.518	209.92
671.709	236.54
671.9	164.86
672.091	207.87
672.282	121.85
672.473	117.76
672.664	27.65
672.855	111.61
673.046	103.42
673.237	214.01
673.428	132.09
673.619	216.06
673.809	64.51
674	230.4
674.191	156.67
674.382	123.9
674.573	68.61
674.764	125.95
674.954	254.97
675.145	74.75
675.336	80.89
675.527	72.7
675.717	78.85
675.908	37.89
676.099	80.89
676.289	109.57
676.48	52.22
676.671	82.94
676.861	64.51
677.052	130.05
677.243	125.95
677.433	46.08
677.624	187.39
677.814	117.76
678.005	76.8
678.195	236.54
678.386	44.03
678.576	66.56
678.767	39.94
678.957	37.89
679.148	226.3
679.338	191.49
679.529	164.86
679.719	138.24
679.909	173.05
680.1	111.61
680.29	128
680.481	64.51
680.671	156.67
680.861	138.24
681.052	197.63
681.242	70.65
681.432	177.15
681.622	158.72
681.813	68.61
682.003	130.05
682.193	142.33
682.383	128
682.573	162.81
682.764	123.9
682.954	177.15
683.144	220.16
683.334	115.71
683.524	220.16
683.714	183.29
683.904	201.72
684.094	158.72
684.284	144.38
684.474	248.83
684.664	269.31
684.854	154.62
685.044	76.8
685.234	150.53
685.424	195.58
685.614	117.76
685.804	230.4
685.994	224.25
686.184	136.19
686.374	205.82
686.564	140.29
686.753	191.49
686.943	123.9
687.133	142.33
687.323	156.67
687.513	197.63
687.702	74.75
687.892	183.29
688.082	201.72
688.272	220.16
688.461	142.33
688.651	261.12
688.841	179.2
689.03	140.29
689.22	117.76
689.41	216.06
689.599	156.67
689.789	91.13
689.979	230.4
690.168	111.61
690.358	158.72
690.547	99.33
690.737	123.9
690.926	197.63
691.116	211.96
691.305	226.3
691.495	254.97
691.684	107.52
691.874	132.09
692.063	179.2
692.252	189.44
692.442	195.58
692.631	125.95
692.82	152.57
693.01	128
693.199	195.58
693.388	158.72
693.578	195.58
693.767	193.53
693.956	279.55
694.146	207.87
694.335	201.72
694.524	99.33
694.713	236.54
694.902	142.33
695.092	152.57
695.281	197.63
695.47	134.14
695.659	152.57
695.848	173.05
696.037	136.19
696.226	168.96
696.415	207.87
696.604	242.68
696.793	154.62
696.982	158.72
697.171	316.41
697.36	70.65
697.549	152.57
697.738	78.85
697.927	150.53
698.116	84.99
698.305	191.49
698.494	254.97
698.683	148.48
698.872	279.55
699.061	99.33
699.25	136.19
699.438	121.85
699.627	113.66
699.816	297.98
700.005	48.13
700.193	168.96
700.382	150.53
700.571	201.72
700.76	134.14
700.948	148.48
701.137	189.44
701.326	222.2
701.514	148.48
701.703	195.58
701.892	224.25
702.08	332.79
702.269	187.39
702.457	66.56
702.646	195.58
702.834	168.96
703.023	154.62
703.212	232.44
703.4	80.89
703.589	97.28
703.777	115.71
703.965	93.18
704.154	64.51
704.342	99.33
704.531	62.46
704.719	121.85
704.907	207.87
705.096	121.85
705.284	134.14
705.472	138.24
705.661	144.38
705.849	175.1
706.037	240.64
706.226	160.77
706.414	89.09
706.602	87.04
706.79	187.39
706.979	134.14
707.167	125.95
707.355	66.56
707.543	89.09
707.731	125.95
707.919	177.15
708.107	119.81
708.296	89.09
708.484	117.76
708.672	232.44
708.86	164.86
709.048	168.96
709.236	109.57
709.424	152.57
709.612	193.53
709.8	29.7
709.988	105.47
710.176	203.77
710.364	275.45
710.551	117.76
710.739	87.04
710.927	68.61
711.115	199.68
711.303	187.39
711.491	281.6
711.679	70.65
711.866	199.68
712.054	152.57
712.242	171.01
712.43	306.17
712.617	93.18
712.805	218.11
712.993	173.05
713.181	84.99
713.368	265.21
713.556	130.05
713.744	158.72
713.931	351.23
714.119	238.59
714.306	144.38
714.494	101.37
714.682	117.76
714.869	29.7
715.057	68.61
715.244	19.46
715.432	132.09
715.619	117.76
715.807	130.05
715.994	181.25
716.182	115.71
716.369	183.29
716.556	199.68
716.744	35.84
716.931	150.53
717.119	181.25
717.306	146.43
717.493	236.54
717.681	97.28
717.868	123.9
718.055	138.24
718.242	181.25
718.43	181.25
718.617	205.82
718.804	164.86
718.991	228.35
719.179	183.29
719.366	203.77
719.553	240.64
719.74	158.72
719.927	209.92
720.114	199.68
720.301	130.05
720.488	109.57
720.676	50.18
720.863	193.53
721.05	308.22
721.237	168.96
721.424	234.49
721.611	197.63
721.798	80.89
721.985	123.9
722.172	105.47
722.358	211.96
722.545	205.82
722.732	177.15
722.919	334.84
723.106	181.25
723.293	175.1
723.48	240.64
723.667	142.33
723.853	263.16
724.04	222.2
724.227	197.63
724.414	154.62
724.6	244.73
724.787	279.55
724.974	308.22
725.161	250.88
725.347	144.38
725.534	185.34
725.72	171.01
725.907	236.54
726.094	287.74
726.28	128
726.467	318.46
726.653	87.04
726.84	277.5
727.027	381.95
727.213	230.4
727.4	236.54
727.586	197.63
727.773	175.1
727.959	273.4
728.145	105.47
728.332	158.72
728.518	181.25
728.705	232.44
728.891	234.49
729.077	154.62
729.264	91.13
729.45	160.77
729.636	220.16
729.823	125.95
730.009	250.88
730.195	297.98
730.382	332.79
730.568	115.71
730.754	166.91
730.94	207.87
731.126	252.92
731.313	343.03
731.499	199.68
731.685	254.97
731.871	220.16
732.057	291.84
732.243	277.5
732.429	275.45
732.615	289.79
732.801	250.88
732.987	152.57
733.173	146.43
733.359	146.43
733.545	183.29
733.731	154.62
733.917	304.12
734.103	199.68
734.289	211.96
734.475	154.62
734.661	314.36
734.847	209.92
735.033	185.34
735.219	295.93
735.404	154.62
735.59	80.89
735.776	89.09
735.962	201.72
736.148	175.1
736.333	240.64
736.519	248.83
736.705	197.63
736.89	207.87
737.076	214.01
737.262	140.29
737.447	175.1
737.633	125.95
737.819	287.74
738.004	250.88
738.19	228.35
738.375	283.64
738.561	273.4
738.747	240.64
738.932	201.72
739.118	312.32
739.303	220.16
739.489	242.68
739.674	230.4
739.859	66.56
740.045	242.68
740.23	252.92
740.416	99.33
740.601	171.01
740.786	203.77
740.972	72.7
741.157	97.28
741.342	183.29
741.528	39.94
741.713	330.75
741.898	195.58
742.084	97.28
742.269	168.96
742.454	310.27
742.639	271.36
742.824	158.72
743.01	220.16
743.195	263.16
743.38	199.68
743.565	179.2
743.75	138.24
743.935	308.22
744.12	287.74
744.305	99.33
744.49	132.09
744.675	193.53
744.86	234.49
745.045	222.2
745.23	171.01
745.415	175.1
745.6	295.93
745.785	242.68
745.97	250.88
746.155	211.96
746.34	336.89
746.525	148.48
746.71	220.16
746.895	91.13
747.079	187.39
747.264	173.05
747.449	175.1
747.634	312.32
747.819	189.44
748.003	171.01
748.188	183.29
748.373	179.2
748.557	132.09
748.742	209.92
748.927	197.63
749.111	150.53
749.296	195.58
749.481	228.35
749.665	207.87
749.85	166.91
750.034	150.53
750.219	140.29
750.404	152.57
750.588	216.06
750.773	117.76
750.957	164.86
751.141	152.57
751.326	181.25
751.51	9.22
751.695	156.67
751.879	168.96
752.064	265.21
752.248	197.63
752.432	250.88
752.617	222.2
752.801	263.16
752.985	39.94
753.17	261.12
753.354	209.92
753.538	146.43
753.722	93.18
753.907	54.27
754.091	166.91
754.275	197.63
754.459	76.8
754.643	76.8
754.828	74.75
755.012	189.44
755.196	50.18
755.38	144.38
755.564	68.61
755.748	97.28
755.932	261.12
756.116	191.49
756.3	218.11
756.484	123.9
756.668	171.01
756.852	89.09
757.036	25.6
757.22	87.04
757.404	64.51
757.588	62.46
757.772	173.05
757.956	72.7
758.14	252.92
758.323	19.46
758.507	203.77
758.691	44.03
758.875	271.36
759.059	173.05
759.242	175.1
759.426	99.33
759.61	123.9
759.794	76.8
759.977	230.4
760.161	381.95
760.345	164.86
760.528	181.25
760.712	119.81
760.895	154.62
761.079	160.77
761.263	-25.6
761.446	87.04
761.63	128
761.813	103.42
761.997	7.17
762.18	91.13
762.364	132.09
762.547	3.07
762.731	66.56
762.914	119.81
763.098	3.07
763.281	107.52
763.464	3.07
763.648	146.43
763.831	89.09
764.015	23.55
764.198	189.44
764.381	46.08
764.564	99.33
764.748	123.9
764.931	123.9
765.114	31.74
765.297	173.05
765.481	15.36
765.664	76.8
765.847	25.6
766.03	205.82
766.213	1.02
766.397	113.66
766.58	15.36
766.763	105.47
766.946	-3.07
767.129	-13.31
767.312	64.51
767.495	62.46
767.678	11.26
767.861	105.47
768.044	103.42
768.227	-3.07
768.41	56.32
768.593	87.04
768.776	93.18
768.959	-25.6
769.142	99.33
769.324	11.26
769.507	144.38
769.69	119.81
769.873	136.19
770.056	269.31
770.239	13.31
770.421	166.91
770.604	128
770.787	72.7
770.97	54.27
771.152	35.84
771.335	148.48
771.518	23.55
771.7	125.95
771.883	105.47
772.066	68.61
772.248	105.47
772.431	115.71
772.613	50.18
772.796	44.03
772.978	128
773.161	154.62
773.343	-21.5
773.526	-5.12
773.708	-48.13
773.891	-3.07
774.073	72.7
774.256	50.18
774.438	175.1
774.621	62.46
774.803	82.94
774.985	44.03
775.168	125.95
775.35	113.66
775.532	113.66
775.715	-74.75
775.897	62.46
776.079	52.22
776.261	130.05
776.444	103.42
776.626	93.18
776.808	31.74
776.99	-19.46
777.173	60.42
777.355	37.89
777.537	31.74
777.719	7.17
777.901	37.89
778.083	-62.46
778.265	-64.51
778.447	84.99
778.629	37.89
778.811	64.51
778.993	84.99
779.175	84.99
779.357	89.09
779.539	-50.18
779.721	52.22
779.903	91.13
780.085	-3.07
780.267	78.85
780.449	93.18
780.631	93.18
780.812	56.32
780.994	48.13
781.176	23.55
781.358	64.51
781.54	25.6
781.721	82.94
781.903	11.26
782.085	46.08
782.267	60.42
782.448	-25.6
782.63	13.31
782.812	78.85
782.993	62.46
783.175	17.41
783.357	33.79
783.538	74.75
783.72	-31.74
783.901	44.03
784.083	37.89
784.264	115.71
784.446	-64.51
784.627	-13.31
784.809	113.66
784.99	-27.65
785.172	60.42
785.353	58.37
785.535	27.65
785.716	5.12
785.897	-25.6
786.079	72.7
786.26	-44.03
786.441	107.52
786.623	-62.46
786.804	-44.03
786.985	-93.18
787.167	29.7
787.348	-1.02
787.529	17.41
787.71	171.01
787.891	76.8
788.073	27.65
788.254	-48.13
788.435	39.94
788.616	136.19
788.797	-58.37
788.978	27.65
789.159	-25.6
789.34	66.56
789.522	11.26
789.703	-3.07
789.884	27.65
790.065	119.81
790.246	164.86
790.427	5.12
790.607	234.49
790.788	128
790.969	-7.17
791.15	62.46
791.331	1.02
791.512	-27.65
791.693	-140.29
791.874	-37.89
792.054	193.53
792.235	48.13
792.416	-21.5
792.597	-7.17
792.778	93.18
792.958	80.89
793.139	-15.36
793.32	156.67
793.5	-27.65
793.681	168.96
793.862	66.56
794.042	76.8
794.223	-48.13
794.404	48.13
794.584	-9.22
794.765	23.55
794.945	-35.84
795.126	80.89
795.306	107.52
795.487	46.08
795.667	13.31
795.848	21.5
796.028	-3.07
796.209	-21.5
796.389	154.62
796.57	-5.12
796.75	-3.07
796.93	-39.94
797.111	-50.18
797.291	54.27
797.471	76.8
797.652	31.74
797.832	13.31
798.012	78.85
798.192	1.02
798.373	-101.37
798.553	19.46
798.733	46.08
798.913	-99.33
799.093	15.36
799.274	13.31
799.454	82.94
799.634	72.7
799.814	-25.6
799.994	50.18
800.174	19.46
800.354	-50.18
800.534	-58.37
800.714	70.65
800.894	-121.85
801.074	-68.61
801.254	-31.74
801.434	113.66
801.614	-1.02
801.794	-17.41
801.974	1899.49
802.154	7.17
802.334	68.61
802.514	-76.8
802.693	33.79
802.873	-62.46
803.053	150.53
803.233	25.6
803.413	-39.94
803.592	-33.79
803.772	-84.99
803.952	62.46
804.131	-41.98
804.311	70.65
804.491	74.75
804.67	33.79
804.85	-44.03
805.03	23.55
805.209	103.42
805.389	9.22
805.568	-48.13
805.748	-72.7
805.928	21.5
806.107	115.71
806.287	3.07
806.466	-5.12
806.646	-21.5
806.825	23.55
807.004	-41.98
807.184	41.98
807.363	11.26
807.543	21.5
807.722	-82.94
807.901	148.48
808.081	46.08
808.26	-146.43
808.439	15.36
808.619	-74.75
808.798	-21.5
808.977	25.6
809.156	33.79
809.336	-1.02
809.515	76.8
809.694	-136.19
809.873	1.02
810.052	-11.26
810.231	35.84
810.411	-48.13
810.59	125.95
810.769	39.94
810.948	84.99
811.127	-68.61
811.306	-70.65
811.485	-11.26
811.664	128
811.843	-11.26
812.022	19.46
812.201	-11.26
812.38	52.22
812.559	-62.46
812.737	-1.02
812.916	-107.52
813.095	-72.7
813.274	5.12
813.453	105.47
813.632	76.8
813.811	72.7
813.989	-150.53
814.168	-58.37
814.347	-33.79
814.526	-23.55
814.704	66.56
814.883	187.39
815.062	-95.23
815.24	84.99
815.419	-95.23
815.598	89.09
815.776	-87.04
815.955	-66.56
816.133	-89.09
816.312	27.65
816.49	-99.33
816.669	35.84
816.847	-33.79
817.026	103.42
817.204	35.84
817.383	7.17
817.561	-70.65
817.74	-3.07
817.918	70.65
818.097	-74.75
818.275	-91.13
818.453	44.03
818.632	68.61
818.81	48.13
818.988	-21.5
819.167	-31.74
819.345	-3.07
819.523	-97.28
819.701	21.5
819.879	46.08
820.058	37.89
820.236	-9.22
820.414	-93.18
820.592	-5.12
820.77	-37.89
820.948	-121.85
821.127	13.31
821.305	56.32
821.483	-119.81
821.661	76.8
821.839	41.98
822.017	-11.26
822.195	-60.42
822.373	41.98
822.551	-15.36
822.729	-9.22
822.907	-13.31
823.085	62.46
823.262	-15.36
823.44	-37.89
823.618	-87.04
823.796	-105.47
823.974	-11.26
824.152	17.41
824.329	-5.12
824.507	19.46
824.685	146.43
824.863	-46.08
825.04	-19.46
825.218	95.23
825.396	35.84
825.574	-13.31
825.751	5.12
825.929	25.6
826.107	-44.03
826.284	-33.79
826.462	-5.12
826.639	-99.33
826.817	-97.28
826.994	-35.84
827.172	-41.98
827.349	95.23
827.527	97.28
827.704	76.8
827.882	105.47
828.059	-60.42
828.237	-27.65
828.414	84.99
828.591	-60.42
828.769	31.74
828.946	-41.98
829.124	136.19
829.301	66.56
829.478	-29.7
829.655	52.22
829.833	1.02
830.01	-113.66
830.187	87.04
830.364	27.65
830.542	89.09
830.719	117.76
830.896	33.79
831.073	-19.46
831.25	11.26
831.427	56.32
831.604	25.6
831.782	-84.99
831.959	52.22
832.136	-62.46
832.313	119.81
832.49	11.26
832.667	29.7
832.844	-44.03
833.021	64.51
833.198	27.65
833.374	-19.46
833.551	64.51
833.728	-60.42
833.905	44.03
834.082	-128
834.259	-70.65
834.436	64.51
834.612	-125.95
834.789	46.08
834.966	-19.46
835.143	25.6
835.319	-19.46
835.496	-19.46
835.673	46.08
835.85	93.18
836.026	52.22
836.203	35.84
836.38	37.89
836.556	-48.13
836.733	-3.07
836.909	130.05
837.086	-52.22
837.262	-37.89
837.439	-50.18
837.616	-78.85
837.792	-103.42
837.968	27.65
838.145	-125.95
838.321	-44.03
838.498	58.37
838.674	101.37
838.851	23.55
839.027	29.7
839.203	-9.22
839.38	91.13
839.556	-50.18
839.732	39.94
839.909	-23.55
840.085	11.26
840.261	-113.66
840.437	-5.12
840.614	-62.46
840.79	111.61
840.966	-5.12
841.142	25.6
841.318	3.07
841.494	56.32
841.671	58.37
841.847	-101.37
842.023	-41.98
842.199	-74.75
842.375	80.89
842.551	-62.46
842.727	-132.09
842.903	107.52
843.079	-111.61
843.255	54.27
843.431	-29.7
843.607	60.42
843.783	-113.66
843.959	19.46
844.134	-37.89
844.31	84.99
844.486	-62.46
844.662	-48.13
844.838	-5.12
845.013	35.84
845.189	58.37
845.365	-7.17
845.541	-66.56
845.716	-62.46
845.892	107.52
846.068	15.36
846.244	-99.33
846.419	56.32
846.595	-101.37
846.77	-23.55
846.946	-5.12
847.122	-113.66
847.297	5.12
847.473	56.32
847.648	-44.03
847.824	-41.98
847.999	-58.37
848.175	-5.12
848.35	-37.89
848.526	-25.6
848.701	134.14
848.876	35.84
849.052	97.28
849.227	-44.03
849.403	-19.46
849.578	29.7
849.753	29.7
849.929	93.18
850.104	-68.61
850.279	35.84
850.454	-17.41
850.63	60.42
850.805	17.41
850.98	31.74
851.155	19.46
851.33	103.42
851.505	-121.85
851.681	138.24
851.856	-41.98
852.031	41.98
852.206	-9.22
852.381	-87.04
852.556	27.65
852.731	46.08
852.906	33.79
853.081	125.95
853.256	52.22
853.431	-41.98
853.606	-15.36
853.781	-121.85
853.956	-78.85
854.131	11.26
854.305	-76.8
854.48	-27.65
854.655	-109.57
854.83	-99.33
855.005	-33.79
855.18	-48.13
855.354	21.5
855.529	-23.55
855.704	-37.89
855.879	70.65
856.053	-54.27
856.228	-41.98
856.403	-66.56
856.577	54.27
856.752	-66.56
856.926	-33.79
857.101	-25.6
857.276	-82.94
857.45	17.41
857.625	84.99
857.799	3.07
857.974	-35.84
858.148	-123.9
858.323	68.61
858.497	-46.08
858.672	25.6
858.846	-89.09
859.02	93.18
859.195	-144.38
859.369	-72.7
859.543	-39.94
859.718	-19.46
859.892	31.74
860.066	5.12
860.241	-76.8
860.415	11.26
860.589	-35.84
860.763	-52.22
860.938	-25.6
861.112	23.55
861.286	-15.36
861.46	-19.46
861.634	-33.79
861.808	68.61
861.982	-21.5
862.157	-136.19
862.331	-7.17
862.505	-119.81
862.679	-78.85
862.853	-48.13
863.027	-19.46
863.201	144.38
863.375	-158.72
863.549	58.37
863.722	66.56
863.896	68.61
864.07	-64.51
864.244	-1.02
864.418	-9.22
864.592	-27.65
864.766	-11.26
864.939	-25.6
865.113	-41.98
865.287	13.31
865.461	-119.81
865.634	-25.6
865.808	-33.79
865.982	-17.41
866.156	-29.7
866.329	-82.94
866.503	25.6
866.676	117.76
866.85	-9.22
867.024	-68.61
867.197	66.56
867.371	58.37
867.544	-13.31
867.718	-91.13
867.891	27.65
868.065	-164.86
868.238	35.84
868.412	136.19
868.585	21.5
868.759	-25.6
868.932	13.31
869.105	-103.42
869.279	19.46
869.452	-72.7
869.625	48.13
869.799	-54.27
869.972	-70.65
870.145	-66.56
870.319	76.8
870.492	-31.74
870.665	-80.89
870.838	3.07
871.011	-107.52
871.185	-17.41
871.358	-46.08
871.531	27.65
871.704	17.41
871.877	13.31
872.05	-44.03
872.223	-101.37
872.396	-5.12
872.569	25.6
872.742	-150.53
872.915	13.31
873.088	-11.26
873.261	-46.08
873.434	62.46
873.607	-56.32
873.78	41.98
873.953	-70.65
874.126	50.18
874.299	1.02
874.471	-15.36
874.644	19.46
874.817	66.56
874.99	144.38
875.163	-58.37
875.335	11.26
875.508	-58.37
875.681	29.7
875.853	-95.23
876.026	21.5
876.199	9.22
876.371	44.03
876.544	23.55
876.717	-13.31
876.889	-72.7
877.062	19.46
877.234	-72.7
877.407	-84.99
877.579	-3.07
877.752	1.02
877.924	113.66
878.097	74.75
878.269	-23.55
878.442	-29.7
878.614	54.27
878.786	-44.03
878.959	15.36
879.131	-64.51
879.303	-193.53
879.476	-27.65
879.648	74.75
879.82	-58.37
879.993	-19.46
880.165	56.32
880.337	-136.19
880.509	-91.13
880.681	-74.75
880.854	-33.79
881.026	68.61
881.198	189.44
881.37	19.46
881.542	1.02
881.714	33.79
881.886	-15.36
882.058	-17.41
882.23	-37.89
882.402	-44.03
882.574	-46.08
882.746	-3.07
882.918	17.41
883.09	113.66
883.262	-37.89
883.434	-46.08
883.606	-154.62
883.778	-64.51
883.95	142.33
884.122	-1.02
884.293	50.18
884.465	11.26
884.637	74.75
884.809	-101.37
884.98	37.89
885.152	-1.02
885.324	113.66
885.496	-123.9
885.667	-44.03
885.839	-23.55
886.011	105.47
886.182	25.6
886.354	-17.41
886.525	25.6
886.697	-15.36
886.869	-46.08
887.04	-1.02
887.212	15.36
887.383	93.18
887.555	62.46
887.726	-119.81
887.897	-115.71
888.069	3.07
888.24	37.89
888.412	-25.6
888.583	-70.65
888.754	-7.17
888.926	-128
889.097	-5.12
889.268	-78.85
889.44	27.65
889.611	-50.18
889.782	-46.08
889.953	-58.37
890.125	50.18
890.296	-41.98
890.467	3.07
890.638	37.89
890.809	-56.32
890.98	-1.02
891.151	3.07
891.323	41.98
891.494	11.26
891.665	-29.7
891.836	-62.46
892.007	1.02
892.178	17.41
892.349	68.61
892.52	5.12
892.691	-31.74
892.862	-125.95
893.032	-72.7
893.203	-13.31
893.374	-60.42
893.545	50.18
893.716	13.31
893.887	56.32
894.057	31.74
894.228	9.22
894.399	-54.27
894.57	95.23
894.74	29.7
894.911	5.12
895.082	-1.02
895.253	-146.43
895.423	68.61
895.594	87.04
895.764	-25.6
895.935	-25.6
896.106	54.27
896.276	41.98
896.447	48.13
896.617	-56.32
896.788	-132.09
896.958	-66.56
897.129	-11.26
897.299	-95.23
897.47	78.85
897.64	-23.55
897.81	-19.46
897.981	-9.22
898.151	-33.79
898.322	19.46
898.492	-21.5
898.662	-39.94
898.832	31.74
899.003	-80.89
899.173	54.27
899.343	-142.33
899.513	-13.31
