Data from USB4F104151__165__11-04-48-335.txt Node

Date: Wed Feb 26 11:04:48 EST 2025
User: louis
Spectrometer: USB4F10415
Trigger mode: 4
Integration Time (sec): 1.000000E-1
Scans to average: 1
Electric dark correction enabled: true
Nonlinearity correction enabled: false
Boxcar width: 0
XAxis mode: Wavelengths
Number of Pixels in Spectrum: 3648
>>>>>Begin Spectral Data<<<<<
178.204	-429.22
178.424	-429.22
178.644	-429.22
178.864	-445.6
179.084	-429.22
179.304	7
179.524	-29.87
179.744	33.62
179.964	4.95
180.184	54.1
180.404	19.29
180.624	-40.11
180.844	-7.34
181.064	-46.25
181.283	37.72
181.503	-58.54
181.723	25.43
181.943	-122.02
182.163	228.18
182.383	-38.06
182.602	54.1
182.822	111.44
183.042	-3.24
183.262	-17.58
183.482	88.92
183.701	25.43
183.921	-3.24
184.141	-56.49
184.361	95.06
184.58	82.77
184.8	-25.77
185.02	23.38
185.239	123.73
185.459	113.49
185.679	115.54
185.898	-134.31
186.118	-11.43
186.338	41.81
186.557	58.2
186.777	-27.82
186.997	0.85
187.216	-31.91
187.436	183.12
187.655	-1.19
187.875	113.49
188.095	33.62
188.314	90.96
188.534	162.64
188.753	-62.63
188.973	138.07
189.192	207.7
189.412	47.96
189.631	-40.11
189.851	23.38
190.07	174.93
190.29	11.09
190.509	-7.34
190.729	84.82
190.948	146.26
191.168	291.66
191.387	80.72
191.607	-27.82
191.826	7
192.045	-7.34
192.265	-21.67
192.484	21.33
192.704	27.48
192.923	-9.39
193.142	222.03
193.362	17.24
193.581	191.31
193.8	29.52
194.02	107.35
194.239	25.43
194.458	97.11
194.678	29.52
194.897	-13.48
195.116	62.29
195.335	25.43
195.555	39.76
195.774	-79.02
195.993	129.88
196.212	-25.77
196.432	-23.72
196.651	-1.19
196.87	-56.49
197.089	193.36
197.308	54.1
197.528	15.19
197.747	-93.35
197.966	-23.72
198.185	86.87
198.404	-68.78
198.623	133.97
198.842	121.68
199.062	99.16
199.281	103.25
199.5	56.15
199.719	4.95
199.938	54.1
200.157	90.96
200.376	156.5
200.595	183.12
200.814	29.52
201.033	70.48
201.252	142.16
201.471	107.35
201.69	136.02
201.909	-3.24
202.128	133.97
202.347	66.39
202.566	107.35
202.785	-124.07
203.004	-56.49
203.223	236.37
203.442	35.67
203.661	-36.01
203.879	43.86
204.098	140.12
204.317	-7.34
204.536	113.49
204.755	82.77
204.974	97.11
205.193	-17.58
205.411	181.07
205.63	129.88
205.849	56.15
206.068	78.68
206.287	21.33
206.505	90.96
206.724	68.44
206.943	35.67
207.162	-11.43
207.381	121.68
207.599	-15.53
207.818	68.44
208.037	-31.91
208.255	-9.39
208.474	78.68
208.693	111.44
208.911	-42.15
209.13	185.17
209.349	158.55
209.567	176.98
209.786	31.57
210.005	95.06
210.223	35.67
210.442	-79.02
210.661	-23.72
210.879	76.63
211.098	125.78
211.316	29.52
211.535	54.1
211.753	72.53
211.972	11.09
212.191	86.87
212.409	13.14
212.628	66.39
212.846	-40.11
213.065	60.24
213.283	162.64
213.502	29.52
213.72	29.52
213.938	70.48
214.157	-19.63
214.375	58.2
214.594	95.06
214.812	27.48
215.031	2.9
215.249	-17.58
215.467	-9.39
215.686	27.48
215.904	50
216.122	9.05
216.341	99.16
216.559	56.15
216.778	90.96
216.996	86.87
217.214	7
217.432	23.38
217.651	-17.58
217.869	-42.15
218.087	45.91
218.306	-7.34
218.524	43.86
218.742	7
218.96	107.35
219.179	41.81
219.397	4.95
219.615	193.36
219.833	29.52
220.051	70.48
220.27	93.01
220.488	158.55
220.706	74.58
220.924	-50.35
221.142	-126.12
221.36	74.58
221.578	52.05
221.796	27.48
222.015	11.09
222.233	72.53
222.451	211.79
222.669	58.2
222.887	107.35
223.105	15.19
223.323	39.76
223.541	-17.58
223.759	70.48
223.977	27.48
224.195	136.02
224.413	82.77
224.631	-7.34
224.849	93.01
225.067	267.09
225.285	-60.59
225.503	27.48
225.721	-95.4
225.939	97.11
226.157	-25.77
226.375	168.79
226.592	41.81
226.81	47.96
227.028	103.25
227.246	127.83
227.464	43.86
227.682	107.35
227.9	144.21
228.117	-31.91
228.335	90.96
228.553	27.48
228.771	43.86
228.989	37.72
229.206	25.43
229.424	31.57
229.642	-3.24
229.86	25.43
230.077	144.21
230.295	-1.19
230.513	156.5
230.731	86.87
230.948	95.06
231.166	197.46
231.384	58.2
231.601	13.14
231.819	183.12
232.037	13.14
232.254	-83.11
232.472	11.09
232.689	27.48
232.907	150.36
233.125	-3.24
233.342	25.43
233.56	-7.34
233.777	50
233.995	-79.02
234.213	60.24
234.43	101.2
234.648	-15.53
234.865	39.76
235.083	41.81
235.3	90.96
235.518	35.67
235.735	119.64
235.953	45.91
236.17	80.72
236.388	-31.91
236.605	183.12
236.822	117.59
237.04	76.63
237.257	68.44
237.475	41.81
237.692	-15.53
237.909	27.48
238.127	-17.58
238.344	-1.19
238.562	4.95
238.779	-38.06
238.996	-42.15
239.214	99.16
239.431	86.87
239.648	13.14
239.865	68.44
240.083	76.63
240.3	70.48
240.517	21.33
240.735	52.05
240.952	176.98
241.169	64.34
241.386	54.1
241.603	31.57
241.821	-11.43
242.038	90.96
242.255	111.44
242.472	-9.39
242.689	121.68
242.907	78.68
243.124	54.1
243.341	9.05
243.558	37.72
243.775	-38.06
243.992	25.43
244.209	140.12
244.426	113.49
244.643	144.21
244.86	-29.87
245.078	125.78
245.295	90.96
245.512	0.85
245.729	-64.68
245.946	93.01
246.163	47.96
246.38	0.85
246.597	7
246.814	72.53
247.031	45.91
247.248	29.52
247.464	105.3
247.681	58.2
247.898	-5.29
248.115	45.91
248.332	13.14
248.549	109.4
248.766	248.66
248.983	101.2
249.2	113.49
249.417	154.45
249.633	2.9
249.85	86.87
250.067	60.24
250.284	50
250.501	64.34
250.717	45.91
250.934	-36.01
251.151	-3.24
251.368	-25.77
251.585	52.05
251.801	93.01
252.018	-29.87
252.235	115.54
252.451	-58.54
252.668	37.72
252.885	99.16
253.102	109.4
253.318	7
253.535	17.24
253.752	-56.49
253.968	7
254.185	-17.58
254.401	2.9
254.618	52.05
254.835	0.85
255.051	138.07
255.268	115.54
255.484	78.68
255.701	23.38
255.917	117.59
256.134	-68.78
256.351	-15.53
256.567	-109.74
256.784	-46.25
257	-95.4
257.217	129.88
257.433	99.16
257.65	2.9
257.866	99.16
258.082	-115.88
258.299	-64.68
258.515	72.53
258.732	-23.72
258.948	7
259.165	86.87
259.381	7
259.597	80.72
259.814	-23.72
260.03	27.48
260.246	23.38
260.463	164.69
260.679	146.26
260.895	58.2
261.112	39.76
261.328	50
261.544	21.33
261.761	183.12
261.977	-13.48
262.193	-62.63
262.409	156.5
262.626	97.11
262.842	-1.19
263.058	27.48
263.274	142.16
263.49	23.38
263.707	105.3
263.923	86.87
264.139	-93.35
264.355	25.43
264.571	105.3
264.787	113.49
265.004	127.83
265.22	-9.39
265.436	-13.48
265.652	31.57
265.868	88.92
266.084	-17.58
266.3	52.05
266.516	13.14
266.732	-5.29
266.948	119.64
267.164	-5.29
267.38	97.11
267.596	74.58
267.812	179.03
268.028	37.72
268.244	0.85
268.46	31.57
268.676	-15.53
268.892	11.09
269.108	82.77
269.324	-21.67
269.54	-64.68
269.756	127.83
269.972	-54.44
270.188	47.96
270.403	4.95
270.619	37.72
270.835	123.73
271.051	35.67
271.267	31.57
271.483	27.48
271.698	127.83
271.914	93.01
272.13	54.1
272.346	52.05
272.562	-3.24
272.777	107.35
272.993	58.2
273.209	-27.82
273.425	93.01
273.64	2.9
273.856	113.49
274.072	-29.87
274.287	-66.73
274.503	-38.06
274.719	78.68
274.934	37.72
275.15	-81.07
275.366	54.1
275.581	-15.53
275.797	56.15
276.012	-13.48
276.228	70.48
276.444	33.62
276.659	60.24
276.875	-85.16
277.09	-15.53
277.306	45.91
277.521	62.29
277.737	-11.43
277.952	60.24
278.168	43.86
278.383	17.24
278.599	101.2
278.814	62.29
279.03	17.24
279.245	107.35
279.461	70.48
279.676	15.19
279.892	-46.25
280.107	-3.24
280.322	-54.44
280.538	-7.34
280.753	25.43
280.969	25.43
281.184	-64.68
281.399	191.31
281.615	19.29
281.83	88.92
282.045	-74.92
282.26	-19.63
282.476	66.39
282.691	156.5
282.906	37.72
283.122	99.16
283.337	-44.2
283.552	123.73
283.767	68.44
283.983	154.45
284.198	103.25
284.413	66.39
284.628	-50.35
284.843	9.05
285.058	80.72
285.274	37.72
285.489	29.52
285.704	93.01
285.919	11.09
286.134	23.38
286.349	11.09
286.564	-17.58
286.779	117.59
286.995	7
287.21	-85.16
287.425	107.35
287.64	-50.35
287.855	-38.06
288.07	-27.82
288.285	111.44
288.5	103.25
288.715	93.01
288.93	84.82
289.145	-52.39
289.36	148.31
289.575	9.05
289.79	95.06
290.004	56.15
290.219	193.36
290.434	-54.44
290.649	-9.39
290.864	15.19
291.079	17.24
291.294	107.35
291.509	86.87
291.724	19.29
291.938	-29.87
292.153	62.29
292.368	99.16
292.583	25.43
292.798	138.07
293.012	17.24
293.227	117.59
293.442	113.49
293.657	95.06
293.871	72.53
294.086	33.62
294.301	250.71
294.516	164.69
294.73	21.33
294.945	-15.53
295.16	31.57
295.374	121.68
295.589	107.35
295.804	-72.87
296.018	17.24
296.233	90.96
296.447	113.49
296.662	15.19
296.877	129.88
297.091	78.68
297.306	-9.39
297.52	0.85
297.735	9.05
297.949	62.29
298.164	56.15
298.378	64.34
298.593	-33.96
298.807	27.48
299.022	25.43
299.236	86.87
299.451	11.09
299.665	-21.67
299.88	15.19
300.094	13.14
300.309	11.09
300.523	0.85
300.737	-97.45
300.952	111.44
301.166	119.64
301.381	0.85
301.595	-7.34
301.809	54.1
302.024	-5.29
302.238	41.81
302.452	107.35
302.667	52.05
302.881	95.06
303.095	80.72
303.309	78.68
303.524	-40.11
303.738	-21.67
303.952	-13.48
304.166	29.52
304.381	-146.6
304.595	187.22
304.809	13.14
305.023	-70.83
305.237	41.81
305.452	23.38
305.666	43.86
305.88	109.4
306.094	70.48
306.308	74.58
306.522	90.96
306.736	23.38
306.95	58.2
307.164	97.11
307.379	-7.34
307.593	41.81
307.807	168.79
308.021	78.68
308.235	107.35
308.449	-27.82
308.663	7
308.877	234.32
309.091	90.96
309.305	58.2
309.519	-126.12
309.733	45.91
309.947	-79.02
310.161	115.54
310.374	105.3
310.588	23.38
310.802	-52.39
311.016	-72.87
311.23	95.06
311.444	-72.87
311.658	60.24
311.872	74.58
312.085	170.83
312.299	82.77
312.513	150.36
312.727	52.05
312.941	-105.64
313.154	70.48
313.368	109.4
313.582	31.57
313.796	15.19
314.009	25.43
314.223	101.2
314.437	4.95
314.651	72.53
314.864	15.19
315.078	19.29
315.292	-95.4
315.505	58.2
315.719	90.96
315.933	-50.35
316.146	-31.91
316.36	-3.24
316.573	64.34
316.787	78.68
317.001	78.68
317.214	-58.54
317.428	0.85
317.641	-36.01
317.855	62.29
318.068	82.77
318.282	43.86
318.495	222.03
318.709	86.87
318.922	109.4
319.136	154.45
319.349	29.52
319.563	39.76
319.776	47.96
319.99	-130.22
320.203	113.49
320.417	56.15
320.63	93.01
320.843	179.03
321.057	60.24
321.27	11.09
321.483	80.72
321.697	115.54
321.91	45.91
322.124	21.33
322.337	-9.39
322.55	-11.43
322.763	-1.19
322.977	4.95
323.19	13.14
323.403	74.58
323.617	50
323.83	154.45
324.043	-13.48
324.256	142.16
324.469	-21.67
324.683	111.44
324.896	33.62
325.109	86.87
325.322	-89.26
325.535	117.59
325.748	68.44
325.962	-5.29
326.175	25.43
326.388	31.57
326.601	185.17
326.814	35.67
327.027	15.19
327.24	131.92
327.453	-124.07
327.666	160.59
327.879	140.12
328.092	56.15
328.305	80.72
328.518	15.19
328.731	-72.87
328.944	-19.63
329.157	58.2
329.37	9.05
329.583	117.59
329.796	179.03
330.009	39.76
330.222	105.3
330.435	52.05
330.648	54.1
330.861	-23.72
331.073	-1.19
331.286	129.88
331.499	60.24
331.712	25.43
331.925	11.09
332.138	-44.2
332.35	95.06
332.563	-36.01
332.776	43.86
332.989	-42.15
333.202	7
333.414	60.24
333.627	35.67
333.84	-19.63
334.053	101.2
334.265	-7.34
334.478	-13.48
334.691	66.39
334.903	99.16
335.116	-54.44
335.329	27.48
335.541	107.35
335.754	238.42
335.966	25.43
336.179	25.43
336.392	-25.77
336.604	62.29
336.817	107.35
337.029	13.14
337.242	80.72
337.454	148.31
337.667	2.9
337.88	166.74
338.092	113.49
338.305	90.96
338.517	11.09
338.729	41.81
338.942	185.17
339.154	-27.82
339.367	-40.11
339.579	74.58
339.792	-79.02
340.004	31.57
340.217	4.95
340.429	72.53
340.641	0.85
340.854	-33.96
341.066	4.95
341.278	156.5
341.491	215.89
341.703	7
341.915	-31.91
342.128	164.69
342.34	113.49
342.552	-68.78
342.764	25.43
342.977	43.86
343.189	74.58
343.401	72.53
343.613	-13.48
343.826	39.76
344.038	-42.15
344.25	31.57
344.462	-42.15
344.674	33.62
344.886	64.34
345.099	72.53
345.311	140.12
345.523	35.67
345.735	-44.2
345.947	45.91
346.159	90.96
346.371	58.2
346.583	-31.91
346.795	140.12
347.007	-31.91
347.219	70.48
347.431	9.05
347.643	109.4
347.855	-40.11
348.067	97.11
348.279	41.81
348.491	41.81
348.703	72.53
348.915	9.05
349.127	9.05
349.339	-1.19
349.551	29.52
349.763	82.77
349.975	31.57
350.187	31.57
350.399	129.88
350.61	39.76
350.822	76.63
351.034	86.87
351.246	-7.34
351.458	66.39
351.669	101.2
351.881	54.1
352.093	84.82
352.305	172.88
352.517	189.27
352.728	119.64
352.94	-60.59
353.152	4.95
353.363	-99.5
353.575	113.49
353.787	207.7
353.999	62.29
354.21	117.59
354.422	-29.87
354.633	-5.29
354.845	4.95
355.057	-17.58
355.268	74.58
355.48	107.35
355.692	-23.72
355.903	97.11
356.115	0.85
356.326	-48.3
356.538	80.72
356.749	90.96
356.961	109.4
357.172	13.14
357.384	-52.39
357.595	113.49
357.807	-15.53
358.018	31.57
358.23	27.48
358.441	160.59
358.653	58.2
358.864	78.68
359.075	-17.58
359.287	41.81
359.498	150.36
359.709	121.68
359.921	27.48
360.132	60.24
360.344	-1.19
360.555	-3.24
360.766	9.05
360.977	127.83
361.189	103.25
361.4	62.29
361.611	62.29
361.823	105.3
362.034	58.2
362.245	-38.06
362.456	29.52
362.667	119.64
362.879	-89.26
363.09	72.53
363.301	29.52
363.512	-15.53
363.723	47.96
363.935	66.39
364.146	99.16
364.357	-13.48
364.568	-23.72
364.779	-103.59
364.99	197.46
365.201	-9.39
365.412	113.49
365.623	-13.48
365.834	33.62
366.045	15.19
366.256	138.07
366.467	43.86
366.678	56.15
366.889	78.68
367.1	-15.53
367.311	158.55
367.522	-48.3
367.733	47.96
367.944	70.48
368.155	-25.77
368.366	74.58
368.577	170.83
368.788	115.54
368.999	-93.35
369.209	45.91
369.42	158.55
369.631	211.79
369.842	107.35
370.053	-85.16
370.264	29.52
370.474	-66.73
370.685	43.86
370.896	82.77
371.107	111.44
371.317	43.86
371.528	45.91
371.739	54.1
371.95	97.11
372.16	80.72
372.371	-31.91
372.582	62.29
372.792	-40.11
373.003	86.87
373.214	17.24
373.424	107.35
373.635	-46.25
373.846	68.44
374.056	54.1
374.267	105.3
374.477	0.85
374.688	-56.49
374.898	68.44
375.109	56.15
375.319	15.19
375.53	113.49
375.74	127.83
375.951	88.92
376.161	29.52
376.372	164.69
376.582	-40.11
376.793	123.73
377.003	-19.63
377.214	-68.78
377.424	74.58
377.635	19.29
377.845	-48.3
378.055	160.59
378.266	-13.48
378.476	80.72
378.686	123.73
378.897	117.59
379.107	23.38
379.317	80.72
379.528	35.67
379.738	131.92
379.948	-15.53
380.158	90.96
380.369	-1.19
380.579	37.72
380.789	4.95
380.999	119.64
381.21	109.4
381.42	136.02
381.63	58.2
381.84	66.39
382.05	76.63
382.261	107.35
382.471	115.54
382.681	-40.11
382.891	158.55
383.101	113.49
383.311	58.2
383.521	68.44
383.731	84.82
383.941	99.16
384.151	56.15
384.361	52.05
384.571	113.49
384.781	64.34
384.991	203.6
385.201	203.6
385.411	101.2
385.621	23.38
385.831	0.85
386.041	103.25
386.251	47.96
386.461	80.72
386.671	41.81
386.881	88.92
387.091	2.9
387.301	76.63
387.511	25.43
387.72	76.63
387.93	121.68
388.14	-42.15
388.35	45.91
388.56	113.49
388.769	105.3
388.979	-68.78
389.189	35.67
389.399	107.35
389.609	109.4
389.818	19.29
390.028	9.05
390.238	99.16
390.447	-93.35
390.657	76.63
390.867	54.1
391.076	-85.16
391.286	39.76
391.496	-7.34
391.705	29.52
391.915	189.27
392.125	115.54
392.334	-38.06
392.544	97.11
392.753	-27.82
392.963	-23.72
393.172	-38.06
393.382	-29.87
393.591	146.26
393.801	66.39
394.01	219.99
394.22	80.72
394.429	13.14
394.639	140.12
394.848	7
395.058	62.29
395.267	-19.63
395.477	88.92
395.686	56.15
395.895	179.03
396.105	154.45
396.314	84.82
396.524	29.52
396.733	80.72
396.942	74.58
397.152	121.68
397.361	97.11
397.57	90.96
397.78	29.52
397.989	119.64
398.198	172.88
398.407	17.24
398.617	74.58
398.826	17.24
399.035	-40.11
399.244	156.5
399.453	150.36
399.663	7
399.872	62.29
400.081	-48.3
400.29	156.5
400.499	58.2
400.708	107.35
400.917	23.38
401.127	54.1
401.336	-3.24
401.545	136.02
401.754	117.59
401.963	131.92
402.172	97.11
402.381	-23.72
402.59	15.19
402.799	76.63
403.008	21.33
403.217	88.92
403.426	70.48
403.635	-23.72
403.844	-17.58
404.053	9.05
404.262	2.9
404.471	152.4
404.68	58.2
404.888	-38.06
405.097	41.81
405.306	23.38
405.515	58.2
405.724	13.14
405.933	129.88
406.142	76.63
406.35	138.07
406.559	19.29
406.768	88.92
406.977	140.12
407.185	127.83
407.394	80.72
407.603	-15.53
407.812	54.1
408.02	105.3
408.229	-40.11
408.438	-36.01
408.646	-60.59
408.855	-11.43
409.064	66.39
409.272	45.91
409.481	95.06
409.69	-27.82
409.898	-115.88
410.107	109.4
410.315	88.92
410.524	2.9
410.733	9.05
410.941	-31.91
411.15	150.36
411.358	158.55
411.567	179.03
411.775	88.92
411.984	138.07
412.192	119.64
412.401	-72.87
412.609	144.21
412.818	95.06
413.026	117.59
413.234	127.83
413.443	-1.19
413.651	-46.25
413.86	60.24
414.068	103.25
414.276	174.93
414.485	-33.96
414.693	179.03
414.901	230.23
415.11	131.92
415.318	-9.39
415.526	15.19
415.734	109.4
415.943	37.72
416.151	54.1
416.359	50
416.567	99.16
416.776	88.92
416.984	99.16
417.192	131.92
417.4	54.1
417.608	-1.19
417.817	17.24
418.025	123.73
418.233	160.59
418.441	-38.06
418.649	-52.39
418.857	47.96
419.065	115.54
419.273	35.67
419.481	76.63
419.689	7
419.897	17.24
420.105	-54.44
420.313	103.25
420.521	115.54
420.729	152.4
420.937	-3.24
421.145	27.48
421.353	148.31
421.561	162.64
421.769	50
421.977	41.81
422.185	66.39
422.393	52.05
422.601	138.07
422.809	35.67
423.017	72.53
423.224	140.12
423.432	105.3
423.64	41.81
423.848	144.21
424.056	-29.87
424.263	176.98
424.471	121.68
424.679	123.73
424.887	-33.96
425.094	127.83
425.302	74.58
425.51	37.72
425.718	127.83
425.925	64.34
426.133	15.19
426.341	242.51
426.548	50
426.756	56.15
426.964	74.58
427.171	37.72
427.379	109.4
427.586	17.24
427.794	72.53
428.001	152.4
428.209	60.24
428.417	152.4
428.624	164.69
428.832	31.57
429.039	35.67
429.247	136.02
429.454	93.01
429.662	181.07
429.869	168.79
430.076	133.97
430.284	121.68
430.491	203.6
430.699	138.07
430.906	154.45
431.114	131.92
431.321	138.07
431.528	131.92
431.736	156.5
431.943	181.07
432.15	201.55
432.358	209.75
432.565	201.55
432.772	84.82
432.979	172.88
433.187	86.87
433.394	236.37
433.601	97.11
433.808	236.37
434.016	262.99
434.223	232.27
434.43	170.83
434.637	211.79
434.844	265.04
435.052	230.23
435.259	273.23
435.466	314.19
435.673	314.19
435.88	326.48
436.087	234.32
436.294	338.77
436.501	396.11
436.708	217.94
436.915	303.95
437.122	293.71
437.329	236.37
437.537	379.73
437.743	297.81
437.95	516.94
438.157	394.06
438.364	385.87
438.571	279.38
438.778	437.07
438.985	451.41
439.192	461.65
439.399	385.87
439.606	521.04
439.813	459.6
440.02	645.96
440.227	615.24
440.433	516.94
440.64	596.81
440.847	529.23
441.054	564.04
441.261	688.97
441.467	625.48
441.674	574.28
441.881	832.33
442.088	656.2
442.294	766.79
442.501	817.99
442.708	774.99
442.914	793.42
443.121	867.14
443.328	873.29
443.534	899.91
443.741	846.66
443.948	713.55
444.154	885.58
444.361	1110.85
444.568	1071.94
444.774	1026.89
444.981	947.01
445.187	1082.18
445.394	1135.43
445.6	1088.32
445.807	1407.81
446.013	1137.48
446.22	1233.73
446.426	1372.99
446.633	1424.19
446.839	1659.71
447.046	1461.06
447.252	1706.81
447.459	1557.31
447.665	1477.44
447.871	1758.01
448.078	1917.75
448.284	1848.12
448.491	1919.8
448.697	1944.38
448.903	2145.08
449.11	2089.78
449.316	2120.5
449.522	2343.73
449.728	2384.69
449.935	2439.98
450.141	2509.62
450.347	2792.23
450.553	2669.36
450.76	2810.67
450.966	2935.59
451.172	2943.78
451.378	3027.75
451.584	3076.9
451.791	3457.82
451.997	3453.73
452.203	3558.18
452.409	3689.25
452.615	3889.95
452.821	3816.22
453.027	3717.92
453.233	4240.15
453.44	4184.85
453.646	4383.51
453.852	4551.44
454.058	4789
454.264	4877.07
454.47	5180.17
454.676	5200.65
454.882	5720.83
455.088	5552.9
455.294	5782.27
455.5	6191.86
455.705	6441.72
455.911	6423.28
456.117	6810.35
456.323	7049.96
456.529	6787.82
456.735	7688.93
456.941	7789.28
457.147	8100.57
457.352	8491.73
457.558	8348.37
457.764	9085.64
457.97	9388.74
458.176	9603.78
458.381	10121.91
458.587	10306.23
458.793	10791.6
458.999	10789.55
459.204	12259.99
459.41	12481.17
459.616	12393.11
459.821	13204.11
460.027	13937.28
460.233	14471.8
460.438	14375.55
460.644	15215.21
460.85	15315.56
461.055	15903.33
461.261	16677.46
461.466	16636.5
461.672	16577.11
461.878	18737.72
462.083	18364.99
462.289	18852.41
462.494	19857.96
462.7	20021.8
462.905	20138.53
463.111	21815.82
463.316	22743.55
463.522	23138.8
463.727	24310.24
463.932	24943.06
464.138	25921.99
464.343	26941.88
464.549	26622.4
464.754	28854.69
464.959	29573.52
465.165	29931.92
465.37	29987.21
465.575	29890.96
465.781	32059.76
465.986	33063.26
466.191	32207.21
466.397	32668
466.602	31867.25
466.807	33454.42
467.012	34115.92
467.218	35166.52
467.423	34654.53
467.628	35670.33
467.833	37576.98
468.038	37108
468.244	36514.09
468.449	38379.79
468.654	37282.08
468.859	37101.86
469.064	37591.32
469.269	36155.69
469.474	36782.37
469.679	37910.8
469.885	36522.28
470.09	37067.04
470.295	37275.93
470.5	36315.44
470.705	36645.16
470.91	36026.67
471.115	35369.27
471.32	35840.31
471.525	35742
471.73	34693.44
471.935	34466.12
472.139	33055.07
472.344	33532.25
472.549	32725.35
472.754	32369
472.959	31596.92
473.164	30855.55
473.369	30075.27
473.574	30871.93
473.778	30149
473.983	29573.52
474.188	29239.7
474.393	28086.7
474.598	28041.64
474.802	27300.28
475.007	26909.11
475.212	26524.1
475.417	25438.67
475.621	25131.48
475.826	25291.22
476.031	24490.46
476.235	23880.17
476.44	23785.96
476.645	23206.39
476.849	23103.99
477.054	22426.11
477.259	22133.25
477.463	22112.77
477.668	21379.6
477.872	21258.77
478.077	20683.29
478.282	20302.37
478.486	20281.89
478.691	20128.29
478.895	19790.38
479.1	19690.02
479.304	19470.89
479.509	18668.09
479.713	19229.23
479.918	18573.88
480.122	18344.51
480.326	18451
480.531	18479.68
480.735	18178.62
480.94	17812.04
481.144	18582.07
481.348	17410.64
481.553	17627.72
481.757	17033.81
481.961	17439.31
482.166	17359.44
482.37	17400.4
482.574	16714.33
482.778	16681.56
482.983	17072.72
483.187	16521.82
483.391	16335.45
483.595	16271.97
483.8	16188
484.004	16058.98
484.208	15993.44
484.412	15944.29
484.616	15692.39
484.821	15688.29
485.025	14889.59
485.229	15078
485.433	14602.87
485.637	14580.34
485.841	14299.77
486.045	14393.98
486.249	14246.52
486.453	13970.05
486.657	13822.59
486.861	13533.83
487.065	13097.61
487.269	13159.05
487.473	12511.89
487.677	12796.56
487.881	12704.4
488.085	12233.37
488.289	12216.99
488.493	11842.21
488.697	11852.45
488.901	11512.49
489.105	11332.26
489.309	11020.97
489.512	11233.96
489.716	10662.58
489.92	10283.7
490.124	10349.24
490.328	10396.34
490.531	10216.12
490.735	10060.48
490.939	9718.47
491.143	9671.36
491.346	9337.54
491.55	9194.19
491.754	8948.43
491.958	9128.65
492.161	8864.46
492.365	8747.73
492.569	8362.71
492.772	8250.07
492.976	8309.46
493.18	8018.65
493.383	8139.48
493.587	7895.77
493.79	7924.44
493.994	7785.18
494.197	7733.98
494.401	7738.08
494.605	7533.28
494.808	7592.67
495.012	7437.03
495.215	7494.37
495.419	7459.56
495.622	6951.66
495.825	7205.61
496.029	7127.78
496.232	7293.67
496.436	7080.68
496.639	7379.68
496.843	6980.33
497.046	6980.33
497.249	7168.74
497.453	7293.67
497.656	7219.94
497.859	6998.76
498.063	7189.22
498.266	7162.6
498.469	7088.87
498.673	6976.23
498.876	7291.62
499.079	7297.77
499.282	7238.37
499.485	7457.51
499.689	7408.36
499.892	7283.43
500.095	7463.65
500.298	7424.74
500.501	7377.64
500.705	7572.19
500.908	7645.92
501.111	7727.84
501.314	7750.37
501.517	7922.4
501.72	7897.82
501.923	7760.61
502.126	8024.79
502.329	8301.27
502.532	8428.24
502.735	8311.51
502.938	8467.16
503.141	8622.8
503.344	8653.52
503.547	8803.02
503.75	8964.81
503.953	9229
504.156	9126.6
504.359	9052.88
504.562	9239.24
504.765	9482.95
504.968	9622.21
505.17	9839.3
505.373	10074.81
505.576	10166.97
505.779	10465.97
505.982	10453.69
506.185	10521.27
506.387	10717.87
506.59	10865.33
506.793	11319.98
506.996	11063.98
507.198	11717.28
507.401	11811.49
507.604	12012.19
507.807	12227.23
508.009	12602.01
508.212	12640.92
508.415	13036.17
508.617	13253.26
508.82	13646.47
509.022	13548.17
509.225	14232.19
509.428	14465.66
509.63	14826.1
509.833	14918.26
510.035	15368.81
510.238	15540.84
510.44	15690.34
510.643	15921.76
510.845	16898.64
511.048	16933.46
511.25	17439.31
511.453	17668.68
511.655	18676.28
511.858	18129.47
512.06	18954.8
512.262	19255.86
512.465	19556.91
512.667	20234.78
512.87	20705.82
513.072	21070.36
513.274	21838.34
513.477	22178.31
513.679	22612.48
513.881	23210.48
514.084	23503.34
514.286	24064.49
514.488	24512.99
514.69	25444.82
514.893	25666
515.095	26231.24
515.297	26429.89
515.499	27242.93
515.701	28211.62
515.904	28318.12
516.106	29153.69
516.308	29864.33
516.51	30054.79
516.712	30824.83
516.914	31302.01
517.116	32106.86
517.318	32743.78
517.52	33141.08
517.722	33413.46
517.925	34568.52
518.127	35137.85
518.329	36061.49
518.531	35518.78
518.733	37087.52
518.935	37787.92
519.136	37718.29
519.338	38459.66
519.54	39368.96
519.742	39897.33
519.944	40059.12
520.146	41025.76
520.348	41523.42
520.55	41834.71
520.752	42014.93
520.954	43092.16
521.155	43022.53
521.357	44130.48
521.559	44660.91
521.761	45185.19
521.963	45158.56
522.164	45944.98
522.366	46092.44
522.568	46336.15
522.77	46620.81
522.971	47593.6
523.173	47204.49
523.375	47687.81
523.576	48017.53
523.778	47890.55
523.98	48521.33
524.181	49066.09
524.383	48935.02
524.584	49471.59
524.786	49340.52
524.988	48799.85
525.189	49322.08
525.391	49582.18
525.592	49410.15
525.794	49780.83
525.995	49479.78
526.197	49481.83
526.398	49389.67
526.6	49010.79
526.801	49420.39
527.003	49135.72
527.204	48699.5
527.406	48978.03
527.607	48384.12
527.808	48953.45
528.01	47890.55
528.211	47802.49
528.412	47843.45
528.614	47577.22
528.815	47347.84
529.016	47503.49
529.218	46524.56
529.419	46047.38
529.62	45562.01
529.822	45416.61
530.023	44775.59
530.224	44349.62
530.425	44148.92
530.626	43395.26
530.828	42746.06
531.029	43276.48
531.23	42254.54
531.431	41322.72
531.632	41320.67
531.833	41150.69
532.035	40593.64
532.236	40065.27
532.437	39774.45
532.638	39190.78
532.839	38349.07
533.04	38457.61
533.241	37204.25
533.442	37472.54
533.643	36696.36
533.844	36342.06
534.045	35893.55
534.246	35189.05
534.447	34847.04
534.648	33798.48
534.849	34038.09
535.05	32901.47
535.251	32905.57
535.451	32293.22
535.652	32078.19
535.853	31838.58
536.054	31791.47
536.255	30720.38
536.456	30550.4
536.657	30587.27
536.857	29383.06
537.058	29241.75
537.259	29079.96
537.46	28623.26
537.66	28162.47
537.861	27883.95
538.062	27095.48
538.263	27204.02
538.463	26720.7
538.664	26239.43
538.865	26008.01
539.065	25823.69
539.266	25295.32
539.466	25160.15
539.667	24707.55
539.868	24914.39
540.068	24252.9
540.269	23691.76
540.469	23607.79
540.67	23548.4
540.87	23501.29
541.071	22788.6
541.271	22860.28
541.472	22323.71
541.672	22106.63
541.873	21772.81
542.073	21447.18
542.274	21625.36
542.474	20840.98
542.675	20748.82
542.875	20851.22
543.075	20171.3
543.276	20005.41
543.476	19999.27
543.676	19634.73
543.877	19606.06
544.077	19360.3
544.277	19157.55
544.478	18928.18
544.678	18938.42
544.878	18233.92
545.078	18428.48
545.279	17693.26
545.479	17652.3
545.679	17529.42
545.879	17367.63
546.079	17171.02
546.28	16849.49
546.48	16781.91
546.68	16953.94
546.88	16589.4
547.08	16581.21
547.28	16380.51
547.48	15739.49
547.68	15852.13
547.88	15471.21
548.081	15313.52
548.281	15112.81
548.481	14938.74
548.681	14781.04
548.881	14420.6
549.081	14551.67
549.28	14029.44
549.48	14103.17
549.68	14041.73
549.88	13871.75
550.08	13386.38
550.28	13154.96
550.48	13230.73
550.68	13236.88
550.88	12696.21
551.08	12610.2
551.279	12540.57
551.479	12032.67
551.679	12026.53
551.879	11729.57
552.079	11821.73
552.278	11588.26
552.478	11424.42
552.678	11276.97
552.878	11283.11
553.077	10869.42
553.277	10541.75
553.477	10437.3
553.676	10287.8
553.876	10179.26
554.076	10080.96
554.275	9685.7
554.475	9630.4
554.674	9611.97
554.874	9515.72
555.074	9272.01
555.273	9079.5
555.473	9056.97
555.672	8772.3
555.872	8626.9
556.071	8549.07
556.271	8585.94
556.47	8336.09
556.67	8182.49
556.869	8202.97
557.068	7957.21
557.268	7793.37
557.467	7434.98
557.667	7607.01
557.866	7500.51
558.065	7205.61
558.265	7199.46
558.464	6957.8
558.663	6742.77
558.863	6779.63
559.062	6933.23
559.261	6558.45
559.461	6540.02
559.66	6462.19
559.859	6314.74
560.058	6066.94
560.258	6120.18
560.457	5989.11
560.656	6140.66
560.855	5702.4
561.054	5765.89
561.253	5784.32
561.453	5468.93
561.652	5487.36
561.851	5434.11
562.05	5251.85
562.249	5229.32
562.448	5284.61
562.647	4934.41
562.846	4940.55
563.045	5102.34
563.244	4870.92
563.443	4860.68
563.642	4719.37
563.841	4604.69
564.04	4604.69
564.239	4600.59
564.438	4449.04
564.637	4422.42
564.836	4465.43
565.035	4252.44
565.234	4102.93
565.432	4107.03
565.631	4143.89
565.83	4043.54
566.029	3767.07
566.228	3818.27
566.427	4025.11
566.625	3613.47
566.824	3775.26
567.023	3697.44
567.222	3396.39
567.42	3396.39
567.619	3580.7
567.818	3461.92
568.016	3695.39
568.215	3439.39
568.414	3347.23
568.612	3263.27
568.811	3113.77
569.01	3187.49
569.208	3050.28
569.407	3099.43
569.605	3029.8
569.804	2935.59
570.002	2933.54
570.201	2908.97
570.4	2921.26
570.598	2757.42
570.797	2806.57
570.995	2691.88
571.193	2747.18
571.392	2655.02
571.59	2589.49
571.789	2724.65
571.987	2507.57
572.186	2571.05
572.384	2376.5
572.582	2423.6
572.781	2394.93
572.979	2429.74
573.177	2435.89
573.376	2335.54
573.574	2222.9
573.772	2210.61
573.971	2032.44
574.169	2083.64
574.367	2255.67
574.565	2104.12
574.763	1981.24
574.962	1975.1
575.16	1973.05
575.358	1878.84
575.556	1819.45
575.754	1868.6
575.952	1852.22
576.151	1798.97
576.349	1809.21
576.547	1747.77
576.745	1729.34
576.943	1821.5
577.141	1628.99
577.339	1635.13
577.537	1596.22
577.735	1715
577.933	1688.38
578.131	1438.53
578.329	1555.26
578.527	1450.82
578.725	1528.64
578.923	1327.94
579.121	1549.12
579.319	1340.22
579.516	1342.27
579.714	1538.88
579.912	1385.28
580.11	1321.79
580.308	1401.66
580.506	1276.74
580.704	1243.97
580.901	1182.53
581.099	1297.22
581.297	1258.31
581.495	1227.59
581.692	1094.47
581.89	1307.46
582.088	1117
582.285	1131.33
582.483	1102.66
582.681	1141.57
582.878	1053.51
583.076	1082.18
583.274	1067.85
583.471	1225.54
583.669	1076.04
583.866	1035.08
584.064	1008.45
584.262	932.68
584.459	899.91
584.657	961.35
584.854	1022.79
585.052	924.49
585.249	953.16
585.447	949.06
585.644	750.41
585.841	934.73
586.039	922.44
586.236	951.11
586.434	852.81
586.631	789.32
586.828	770.89
587.026	779.08
587.223	779.08
587.42	803.66
587.618	772.94
587.815	854.86
588.012	686.92
588.21	785.23
588.407	822.09
588.604	848.71
588.801	658.25
588.999	793.42
589.196	809.8
589.393	664.4
589.59	740.17
589.787	713.55
589.984	666.44
590.182	645.96
590.379	666.44
590.576	662.35
590.773	748.36
590.97	613.2
591.167	740.17
591.364	717.64
591.561	607.05
591.758	760.65
591.955	584.52
592.152	633.68
592.349	527.18
592.546	641.87
592.743	594.76
592.94	695.11
593.137	639.82
593.334	731.98
593.531	707.4
593.727	777.03
593.924	715.59
594.121	736.07
594.318	658.25
594.515	746.31
594.712	824.14
594.908	789.32
595.105	639.82
595.302	742.22
595.499	719.69
595.696	871.24
595.892	672.59
596.089	844.62
596.286	670.54
596.482	817.99
596.679	893.77
596.876	795.47
597.072	873.29
597.269	858.95
597.466	858.95
597.662	1033.03
597.859	889.67
598.055	977.73
598.252	1037.13
598.448	1071.94
598.645	1149.76
598.841	1043.27
599.038	1274.69
599.234	1282.88
599.431	1227.59
599.627	1246.02
599.824	1399.62
600.02	1301.31
600.217	1303.36
600.413	1473.34
600.609	1461.06
600.806	1792.83
601.002	1647.42
601.198	1645.37
601.395	1778.49
601.591	1934.14
601.787	1915.7
601.984	1989.43
602.18	1930.04
602.376	2018.1
602.572	2157.36
602.769	2331.44
602.965	2327.35
603.161	2476.85
603.357	2493.23
603.553	2683.69
603.75	2577.2
603.946	2759.47
604.142	2929.45
604.338	2933.54
604.534	2800.43
604.73	3132.2
604.926	3111.72
605.122	3486.5
605.318	3478.3
605.514	3578.65
605.71	3658.53
605.906	3767.07
606.102	3824.41
606.298	4006.68
606.494	4049.69
606.69	4410.13
606.886	4231.96
607.082	4260.63
607.278	4334.36
607.474	4797.2
607.67	4872.97
607.866	4664.08
608.062	5163.78
608.257	5286.66
608.453	5325.57
608.649	5597.95
608.845	5694.21
609.041	5661.44
609.236	5886.72
609.432	6255.35
609.628	6304.5
609.824	6550.26
610.019	6501.11
610.215	6527.73
610.411	6896.36
610.606	7357.16
610.802	7129.83
610.998	7398.12
611.193	7770.85
611.389	7877.34
611.584	8147.67
611.78	8288.98
611.976	8549.07
612.171	8624.85
612.367	8993.48
612.562	9212.62
612.758	9188.04
612.953	9603.78
613.149	9886.4
613.344	10207.93
613.539	10431.16
613.735	10713.78
613.93	10949.29
614.126	11317.93
614.321	11539.11
614.517	11793.06
614.712	12253.85
614.907	12311.19
615.103	12642.96
615.298	12956.3
615.493	13415.05
615.688	13709.96
615.884	14264.96
616.079	14381.69
616.274	14793.33
616.47	14832.24
616.665	15581.8
616.86	15862.37
617.055	16124.51
617.25	16425.56
617.445	17283.66
617.641	17197.65
617.836	18158.14
618.031	18047.55
618.226	18760.25
618.421	18842.17
618.616	19667.5
618.811	19782.18
619.006	20797.98
619.201	20488.73
619.396	21277.2
619.591	21565.96
619.786	22632.96
619.981	22880.76
620.176	23536.11
620.371	23724.52
620.566	24424.93
620.761	24484.32
620.956	25426.39
621.151	25338.32
621.346	26286.53
621.541	26143.17
621.735	27374
621.93	27158.97
622.125	28273.06
622.32	28264.87
622.515	28981.66
622.709	29323.67
622.904	30464.39
623.099	30247.3
623.294	31224.18
623.488	31246.71
623.683	32258.41
623.878	32313.7
624.072	33474.9
624.267	33421.66
624.462	34081.1
624.656	34431.3
624.851	35422.52
625.046	35469.62
625.24	36116.78
625.435	36315.44
625.629	36749.6
625.824	37583.13
626.018	37980.43
626.213	37628.18
626.407	38742.28
626.602	38891.78
626.796	39409.92
626.991	39844.09
627.185	40003.83
627.38	40311.02
627.574	39956.72
627.768	40384.75
627.963	40306.93
628.157	40669.42
628.352	41128.16
628.546	40313.07
628.74	41265.38
628.935	40784.1
629.129	40429.8
629.323	40048.88
629.517	40214.77
629.712	40159.47
629.906	39158.02
630.1	38883.59
630.294	39045.38
630.489	38115.6
630.683	38115.6
630.877	36350.25
631.071	36530.47
631.265	35852.59
631.459	35111.23
631.653	34347.34
631.848	33505.62
632.042	32338.28
632.236	31832.43
632.43	30726.53
632.624	30230.92
632.818	29028.76
633.012	28201.38
633.206	27324.85
633.4	26776
633.594	25366.99
633.788	24912.35
633.982	23656.94
634.176	22876.66
634.369	21899.78
634.563	21084.69
634.757	19935.78
634.951	19563.05
635.145	18807.35
635.339	18362.94
635.533	17455.69
635.726	16865.88
635.92	15583.85
636.114	15184.49
636.308	14629.49
636.501	14090.88
636.695	13642.37
636.889	12896.91
637.083	12335.77
637.276	11731.62
637.47	11166.38
637.664	11012.78
637.857	10609.33
638.051	10148.54
638.244	9638.59
638.438	9261.77
638.632	8987.34
638.825	8657.62
639.019	8415.96
639.212	7838.43
639.406	7635.68
639.599	7164.65
639.793	7129.83
639.986	6830.83
640.18	6529.78
640.373	6081.27
640.567	6007.55
640.76	5769.98
640.954	5571.33
641.147	5251.85
641.34	5030.66
641.534	4930.31
641.727	4848.4
641.92	4485.9
642.114	4363.03
642.307	4135.7
642.5	4055.83
642.694	3719.96
642.887	3713.82
643.08	3820.32
643.273	3658.53
643.467	3447.58
643.66	3259.17
643.853	2964.26
644.046	2980.65
644.239	2839.34
644.432	2755.37
644.626	2652.97
644.819	2425.65
645.012	2450.22
645.205	2413.36
645.398	2403.12
645.591	2163.51
645.784	2040.63
645.977	2024.25
646.17	2044.73
646.363	1772.35
646.556	1684.28
646.749	1712.96
646.942	1719.1
647.135	1721.15
647.328	1579.84
647.521	1581.89
647.714	1370.94
647.907	1360.7
648.099	1284.93
648.292	1325.89
648.485	1325.89
648.678	1198.92
648.871	1088.32
649.064	1053.51
649.256	949.06
649.449	1051.46
649.642	930.63
649.835	1002.31
650.027	869.19
650.22	977.73
650.413	891.72
650.605	904.01
650.798	701.26
650.991	744.27
651.183	834.38
651.376	832.33
651.568	727.88
651.761	648.01
651.954	668.49
652.146	641.87
652.339	666.44
652.531	717.64
652.724	518.99
652.916	533.33
653.109	371.54
653.301	666.44
653.494	531.28
653.686	461.65
653.879	605
654.071	521.04
654.263	461.65
654.456	355.15
654.648	586.57
654.84	445.26
655.033	349.01
655.225	498.51
655.417	260.95
655.61	525.13
655.802	459.6
655.994	500.56
656.186	289.62
656.379	406.35
656.571	287.57
656.763	349.01
656.955	308.05
657.148	213.84
657.34	346.96
657.532	301.9
657.724	252.75
657.916	265.04
658.108	365.39
658.3	320.34
658.492	285.52
658.684	191.31
658.876	320.34
659.068	195.41
659.26	226.13
659.452	183.12
659.644	246.61
659.836	361.3
660.028	217.94
660.22	199.51
660.412	246.61
660.604	211.79
660.796	224.08
660.988	256.85
661.18	138.07
661.372	189.27
661.563	209.75
661.755	176.98
661.947	115.54
662.139	125.78
662.331	226.13
662.522	260.95
662.714	172.88
662.906	148.31
663.097	217.94
663.289	107.35
663.481	50
663.673	140.12
663.864	168.79
664.056	234.32
664.247	70.48
664.439	209.75
664.631	160.59
664.822	189.27
665.014	136.02
665.205	78.68
665.397	154.45
665.588	209.75
665.78	156.5
665.971	183.12
666.163	144.21
666.354	111.44
666.546	90.96
666.737	140.12
666.929	111.44
667.12	117.59
667.311	93.01
667.503	123.73
667.694	193.36
667.885	56.15
668.077	187.22
668.268	15.19
668.459	131.92
668.651	158.55
668.842	201.55
669.033	56.15
669.224	43.86
669.416	289.62
669.607	74.58
669.798	-89.26
669.989	166.74
670.18	127.83
670.371	97.11
670.563	66.39
670.754	230.23
670.945	142.16
671.136	117.59
671.327	86.87
671.518	99.16
671.709	258.9
671.9	201.55
672.091	187.22
672.282	78.68
672.473	86.87
672.664	62.29
672.855	78.68
673.046	121.68
673.237	154.45
673.428	66.39
673.619	176.98
673.809	88.92
674	107.35
674.191	168.79
674.382	76.63
674.573	80.72
674.764	121.68
674.954	189.27
675.145	56.15
675.336	117.59
675.527	13.14
675.717	54.1
675.908	62.29
676.099	97.11
676.289	160.59
676.48	111.44
676.671	136.02
676.861	119.64
677.052	168.79
677.243	131.92
677.433	95.06
677.624	256.85
677.814	113.49
678.005	109.4
678.195	187.22
678.386	127.83
678.576	125.78
678.767	90.96
678.957	117.59
679.148	162.64
679.338	211.79
679.529	226.13
679.719	33.62
679.909	172.88
680.1	107.35
680.29	142.16
680.481	90.96
680.671	156.5
680.861	213.84
681.052	238.42
681.242	109.4
681.432	127.83
681.622	213.84
681.813	56.15
682.003	140.12
682.193	27.48
682.383	187.22
682.573	142.16
682.764	84.82
682.954	172.88
683.144	219.99
683.334	111.44
683.524	154.45
683.714	191.31
683.904	209.75
684.094	201.55
684.284	193.36
684.474	224.08
684.664	215.89
684.854	179.03
685.044	131.92
685.234	111.44
685.424	166.74
685.614	60.24
685.804	312.14
685.994	170.83
686.184	138.07
686.374	160.59
686.564	111.44
686.753	103.25
686.943	66.39
687.133	121.68
687.323	107.35
687.513	283.47
687.702	185.17
687.892	187.22
688.082	219.99
688.272	215.89
688.461	209.75
688.651	295.76
688.841	136.02
689.03	144.21
689.22	193.36
689.41	162.64
689.599	189.27
689.789	115.54
689.979	373.58
690.168	150.36
690.358	226.13
690.547	162.64
690.737	238.42
690.926	123.73
691.116	205.65
691.305	185.17
691.495	279.38
691.684	176.98
691.874	101.2
692.063	189.27
692.252	138.07
692.442	234.32
692.631	111.44
692.82	189.27
693.01	185.17
693.199	125.78
693.388	219.99
693.578	119.64
693.767	213.84
693.956	156.5
694.146	172.88
694.335	238.42
694.524	156.5
694.713	205.65
694.902	140.12
695.092	117.59
695.281	158.55
695.47	144.21
695.659	97.11
695.848	162.64
696.037	56.15
696.226	193.36
696.415	136.02
696.604	224.08
696.793	209.75
696.982	156.5
697.171	328.53
697.36	119.64
697.549	183.12
697.738	41.81
697.927	140.12
698.116	72.53
698.305	226.13
698.494	133.97
698.683	111.44
698.872	271.19
699.061	176.98
699.25	187.22
699.438	72.53
699.627	168.79
699.816	320.34
700.005	9.05
700.193	160.59
700.382	197.46
700.571	262.99
700.76	189.27
700.948	191.31
701.137	131.92
701.326	185.17
701.514	58.2
701.703	148.31
701.892	123.73
702.08	277.33
702.269	176.98
702.457	197.46
702.646	228.18
702.834	101.2
703.023	176.98
703.212	213.84
703.4	170.83
703.589	152.4
703.777	45.91
703.965	41.81
704.154	115.54
704.342	123.73
704.531	152.4
704.719	121.68
704.907	240.47
705.096	72.53
705.284	121.68
705.472	117.59
705.661	230.23
705.849	209.75
706.037	158.55
706.226	119.64
706.414	162.64
706.602	41.81
706.79	252.75
706.979	119.64
707.167	295.76
707.355	21.33
707.543	52.05
707.731	183.12
707.919	158.55
708.107	117.59
708.296	50
708.484	-13.48
708.672	170.83
708.86	205.65
709.048	187.22
709.236	123.73
709.424	217.94
709.612	179.03
709.8	86.87
709.988	172.88
710.176	179.03
710.364	306
710.551	162.64
710.739	238.42
710.927	119.64
711.115	152.4
711.303	215.89
711.491	207.7
711.679	115.54
711.866	250.71
712.054	117.59
712.242	248.66
712.43	267.09
712.617	150.36
712.805	269.14
712.993	129.88
713.181	7
713.368	322.38
713.556	152.4
713.744	25.43
713.931	340.82
714.119	203.6
714.306	127.83
714.494	129.88
714.682	197.46
714.869	107.35
715.057	183.12
715.244	39.76
715.432	99.16
715.619	119.64
715.807	136.02
715.994	125.78
716.182	154.45
716.369	252.75
716.556	252.75
716.744	107.35
716.931	133.97
717.119	219.99
717.306	207.7
717.493	170.83
717.681	78.68
717.868	103.25
718.055	207.7
718.242	109.4
718.43	168.79
718.617	287.57
718.804	125.78
718.991	283.47
719.179	172.88
719.366	242.51
719.553	142.16
719.74	240.47
719.927	148.31
720.114	156.5
720.301	119.64
720.488	123.73
720.676	39.76
720.863	310.1
721.05	322.38
721.237	179.03
721.424	226.13
721.611	170.83
721.798	56.15
721.985	228.18
722.172	158.55
722.358	176.98
722.545	238.42
722.732	174.93
722.919	279.38
723.106	242.51
723.293	103.25
723.48	193.36
723.667	127.83
723.853	260.95
724.04	183.12
724.227	287.57
724.414	166.74
724.6	187.22
724.787	277.33
724.974	283.47
725.161	236.37
725.347	168.79
725.534	144.21
725.72	211.79
725.907	351.06
726.094	187.22
726.28	150.36
726.467	140.12
726.653	129.88
726.84	340.82
727.027	287.57
727.213	189.27
727.4	217.94
727.586	209.75
727.773	193.36
727.959	238.42
728.145	187.22
728.332	201.55
728.518	166.74
728.705	342.86
728.891	240.47
729.077	244.56
729.264	93.01
729.45	256.85
729.636	228.18
729.823	215.89
730.009	320.34
730.195	246.61
730.382	260.95
730.568	140.12
730.754	109.4
730.94	224.08
731.126	326.48
731.313	301.9
731.499	131.92
731.685	293.71
731.871	271.19
732.057	211.79
732.243	295.76
732.429	219.99
732.615	189.27
732.801	320.34
732.987	127.83
733.173	193.36
733.359	176.98
733.545	222.03
733.731	238.42
733.917	308.05
734.103	185.17
734.289	336.72
734.475	250.71
734.661	369.49
734.847	199.51
735.033	246.61
735.219	232.27
735.404	209.75
735.59	125.78
735.776	154.45
735.962	299.86
736.148	320.34
736.333	256.85
736.519	293.71
736.705	260.95
736.89	160.59
737.076	224.08
737.262	234.32
737.447	111.44
737.633	246.61
737.819	297.81
738.004	209.75
738.19	289.62
738.375	287.57
738.561	283.47
738.747	275.28
738.932	179.03
739.118	387.92
739.303	299.86
739.489	275.28
739.674	144.21
739.859	244.56
740.045	246.61
740.23	226.13
740.416	86.87
740.601	215.89
740.786	256.85
740.972	115.54
741.157	195.41
741.342	127.83
741.528	181.07
741.713	271.19
741.898	191.31
742.084	197.46
742.269	250.71
742.454	219.99
742.639	219.99
742.824	183.12
743.01	236.37
743.195	334.67
743.38	205.65
743.565	267.09
743.75	228.18
743.935	299.86
744.12	242.51
744.305	144.21
744.49	154.45
744.675	183.12
744.86	213.84
745.045	215.89
745.23	209.75
745.415	260.95
745.6	308.05
745.785	150.36
745.97	250.71
746.155	252.75
746.34	301.9
746.525	191.31
746.71	332.62
746.895	78.68
747.079	168.79
747.264	201.55
747.449	254.8
747.634	306
747.819	131.92
748.003	172.88
748.188	0.85
748.373	244.56
748.557	144.21
748.742	150.36
748.927	146.26
749.111	131.92
749.296	205.65
749.481	211.79
749.665	242.51
749.85	142.16
750.034	197.46
750.219	138.07
750.404	138.07
750.588	228.18
750.773	72.53
750.957	105.3
751.141	187.22
751.326	166.74
751.51	154.45
751.695	160.59
751.879	117.59
752.064	308.05
752.248	152.4
752.432	324.43
752.617	189.27
752.801	279.38
752.985	111.44
753.17	297.81
753.354	158.55
753.538	115.54
753.722	150.36
753.907	115.54
754.091	144.21
754.275	172.88
754.459	60.24
754.643	58.2
754.828	156.5
755.012	146.26
755.196	90.96
755.38	146.26
755.564	103.25
755.748	152.4
755.932	193.36
756.116	244.56
756.3	150.36
756.484	68.44
756.668	129.88
756.852	33.62
757.036	183.12
757.22	140.12
757.404	162.64
757.588	136.02
757.772	144.21
757.956	138.07
758.14	316.24
758.323	78.68
758.507	140.12
758.691	97.11
758.875	189.27
759.059	209.75
759.242	78.68
759.426	84.82
759.61	127.83
759.794	103.25
759.977	140.12
760.161	299.86
760.345	181.07
760.528	179.03
760.712	152.4
760.895	156.5
761.079	111.44
761.263	11.09
761.446	111.44
761.63	131.92
761.813	199.51
761.997	33.62
762.18	66.39
762.364	162.64
762.547	-31.91
762.731	50
762.914	121.68
763.098	119.64
763.281	123.73
763.464	47.96
763.648	117.59
763.831	131.92
764.015	52.05
764.198	154.45
764.381	90.96
764.564	74.58
764.748	107.35
764.931	56.15
765.114	-21.67
765.297	176.98
765.481	52.05
765.664	136.02
765.847	43.86
766.03	185.17
766.213	41.81
766.397	52.05
766.58	-40.11
766.763	164.69
766.946	25.43
767.129	90.96
767.312	45.91
767.495	35.67
767.678	76.63
767.861	41.81
768.044	64.34
768.227	45.91
768.41	86.87
768.593	99.16
768.776	90.96
768.959	72.53
769.142	174.93
769.324	45.91
769.507	95.06
769.69	27.48
769.873	148.31
770.056	219.99
770.239	13.14
770.421	170.83
770.604	90.96
770.787	72.53
770.97	107.35
771.152	127.83
771.335	144.21
771.518	-9.39
771.7	123.73
771.883	209.75
772.066	84.82
772.248	115.54
772.431	187.22
772.613	99.16
772.796	-9.39
772.978	117.59
773.161	209.75
773.343	37.72
773.526	43.86
773.708	-13.48
773.891	-62.63
774.073	25.43
774.256	19.29
774.438	166.74
774.621	7
774.803	138.07
774.985	35.67
775.168	90.96
775.35	70.48
775.532	117.59
775.715	-23.72
775.897	131.92
776.079	54.1
776.261	45.91
776.444	95.06
776.626	58.2
776.808	-11.43
776.99	-15.53
777.173	117.59
777.355	17.24
777.537	-5.29
777.719	50
777.901	54.1
778.083	41.81
778.265	-23.72
778.447	154.45
778.629	54.1
778.811	13.14
778.993	103.25
779.175	52.05
779.357	9.05
779.539	-11.43
779.721	109.4
779.903	97.11
780.085	56.15
780.267	39.76
780.449	19.29
780.631	80.72
780.812	64.34
780.994	62.29
781.176	4.95
781.358	-13.48
781.54	74.58
781.721	37.72
781.903	76.63
782.085	19.29
782.267	133.97
782.448	-54.44
782.63	2.9
782.812	117.59
782.993	101.2
783.175	60.24
783.357	-89.26
783.538	58.2
783.72	15.19
783.901	88.92
784.083	86.87
784.264	45.91
784.446	-56.49
784.627	-44.2
784.809	117.59
784.99	29.52
785.172	84.82
785.353	39.76
785.535	31.57
785.716	2.9
785.897	-36.01
786.079	39.76
786.26	9.05
786.441	41.81
786.623	-93.35
786.804	80.72
786.985	35.67
787.167	64.34
787.348	74.58
787.529	41.81
787.71	195.41
787.891	78.68
788.073	-21.67
788.254	-97.45
788.435	148.31
788.616	86.87
788.797	-38.06
788.978	97.11
789.159	17.24
789.34	-38.06
789.522	-3.24
789.703	-25.77
789.884	21.33
790.065	56.15
790.246	197.46
790.427	-17.58
790.607	58.2
790.788	90.96
790.969	-50.35
791.15	80.72
791.331	-58.54
791.512	27.48
791.693	-23.72
791.874	-9.39
792.054	176.98
792.235	140.12
792.416	27.48
792.597	-31.91
792.778	97.11
792.958	7
793.139	35.67
793.32	27.48
793.5	-36.01
793.681	129.88
793.862	45.91
794.042	35.67
794.223	-56.49
794.404	-70.83
794.584	-148.65
794.765	23.38
794.945	25.43
795.126	129.88
795.306	136.02
795.487	43.86
795.667	-31.91
795.848	54.1
796.028	-46.25
796.209	123.73
796.389	90.96
796.57	17.24
796.75	4.95
796.93	-27.82
797.111	-50.35
797.291	-33.96
797.471	62.29
797.652	-44.2
797.832	-56.49
798.012	119.64
798.192	-89.26
798.373	-79.02
798.553	-21.67
798.733	68.44
798.913	-60.59
799.093	-79.02
799.274	39.76
799.454	-9.39
799.634	62.29
799.814	56.15
799.994	27.48
800.174	103.25
800.354	13.14
800.534	-99.5
800.714	72.53
800.894	-83.11
801.074	-60.59
801.254	4.95
801.434	101.2
801.614	-87.21
801.794	-64.68
801.974	1971
802.154	-23.72
802.334	68.44
802.514	-46.25
802.693	35.67
802.873	-23.72
803.053	82.77
803.233	90.96
803.413	-3.24
803.592	-56.49
803.772	-79.02
803.952	29.52
804.131	-85.16
804.311	80.72
804.491	68.44
804.67	-44.2
804.85	7
805.03	15.19
805.209	58.2
805.389	-29.87
805.568	-50.35
805.748	50
805.928	-40.11
806.107	129.88
806.287	97.11
806.466	56.15
806.646	-95.4
806.825	-1.19
807.004	-76.97
807.184	31.57
807.363	60.24
807.543	29.52
807.722	15.19
807.901	-11.43
808.081	84.82
808.26	-64.68
808.439	35.67
808.619	-38.06
808.798	-89.26
808.977	54.1
809.156	54.1
809.336	29.52
809.515	27.48
809.694	-103.59
809.873	-76.97
810.052	41.81
810.231	80.72
810.411	95.06
810.59	64.34
810.769	-29.87
810.948	172.88
811.127	-70.83
811.306	-60.59
811.485	-17.58
811.664	74.58
811.843	33.62
812.022	31.57
812.201	25.43
812.38	-58.54
812.559	-68.78
812.737	25.43
812.916	-97.45
813.095	-21.67
813.274	47.96
813.453	-21.67
813.632	70.48
813.811	80.72
813.989	-101.55
814.168	11.09
814.347	-23.72
814.526	15.19
814.704	56.15
814.883	80.72
815.062	39.76
815.24	23.38
815.419	-93.35
815.598	43.86
815.776	-99.5
815.955	-44.2
816.133	-158.89
816.312	58.2
816.49	7
816.669	-15.53
816.847	-17.58
817.026	72.53
817.204	37.72
817.383	-42.15
817.561	-130.22
817.74	113.49
817.918	62.29
818.097	-9.39
818.275	-33.96
818.453	19.29
818.632	54.1
818.81	37.72
818.988	-93.35
819.167	-42.15
819.345	9.05
819.523	-99.5
819.701	0.85
819.879	27.48
820.058	-11.43
820.236	76.63
820.414	-19.63
820.592	-33.96
820.77	-33.96
820.948	-62.63
821.127	25.43
821.305	19.29
821.483	-76.97
821.661	90.96
821.839	13.14
822.017	-48.3
822.195	-11.43
822.373	37.72
822.551	-74.92
822.729	60.24
822.907	-3.24
823.085	-3.24
823.262	39.76
823.44	-81.07
823.618	-46.25
823.796	-72.87
823.974	-44.2
824.152	-72.87
824.329	-91.31
824.507	-5.29
824.685	52.05
824.863	-19.63
825.04	9.05
825.218	27.48
825.396	15.19
825.574	31.57
825.751	-52.39
825.929	68.44
826.107	-42.15
826.284	78.68
826.462	60.24
826.639	-113.83
826.817	-87.21
826.994	15.19
827.172	-3.24
827.349	15.19
827.527	29.52
827.704	50
827.882	68.44
828.059	-31.91
828.237	4.95
828.414	62.29
828.591	-107.69
828.769	-9.39
828.946	-89.26
829.124	95.06
829.301	50
829.478	-9.39
829.655	-3.24
829.833	-27.82
830.01	-130.22
830.187	-36.01
830.364	39.76
830.542	-3.24
830.719	109.4
830.896	70.48
831.073	27.48
831.25	-31.91
831.427	13.14
831.604	9.05
831.782	-38.06
831.959	80.72
832.136	-1.19
832.313	21.33
832.49	-52.39
832.667	60.24
832.844	-142.5
833.021	41.81
833.198	-3.24
833.374	-74.92
833.551	13.14
833.728	84.82
833.905	101.2
834.082	-105.64
834.259	-3.24
834.436	62.29
834.612	-101.55
834.789	97.11
834.966	-23.72
835.143	86.87
835.319	-99.5
835.496	119.64
835.673	33.62
835.85	109.4
836.026	60.24
836.203	45.91
836.38	23.38
836.556	-1.19
836.733	80.72
836.909	115.54
837.086	-1.19
837.262	-56.49
837.439	62.29
837.616	-44.2
837.792	-52.39
837.968	113.49
838.145	-105.64
838.321	2.9
838.498	80.72
838.674	56.15
838.851	-7.34
839.027	-44.2
839.203	2.9
839.38	25.43
839.556	-46.25
839.732	84.82
839.909	-3.24
840.085	78.68
840.261	-42.15
840.437	-5.29
840.614	-62.63
840.79	27.48
840.966	39.76
841.142	-50.35
841.318	4.95
841.494	-25.77
841.671	-11.43
841.847	-25.77
842.023	-158.89
842.199	74.58
842.375	88.92
842.551	-136.36
842.727	-83.11
842.903	58.2
843.079	-15.53
843.255	88.92
843.431	66.39
843.607	41.81
843.783	-203.94
843.959	-15.53
844.134	-42.15
844.31	7
844.486	31.57
844.662	-93.35
844.838	-5.29
845.013	2.9
845.189	156.5
845.365	66.39
845.541	-5.29
845.716	-1.19
845.892	33.62
846.068	-58.54
846.244	-31.91
846.419	25.43
846.595	-66.73
846.77	-103.59
846.946	88.92
847.122	7
847.297	-66.73
847.473	99.16
847.648	-79.02
847.824	7
847.999	-58.54
848.175	-5.29
848.35	27.48
848.526	43.86
848.701	109.4
848.876	74.58
849.052	66.39
849.227	-70.83
849.403	-62.63
849.578	-17.58
849.753	11.09
849.929	-103.59
850.104	-62.63
850.279	-44.2
850.454	-13.48
850.63	-19.63
850.805	-19.63
850.98	-3.24
851.155	-40.11
851.33	-36.01
851.505	-76.97
851.681	90.96
851.856	-87.21
852.031	11.09
852.206	-40.11
852.381	-79.02
852.556	-99.5
852.731	66.39
852.906	62.29
853.081	27.48
853.256	93.01
853.431	-1.19
853.606	-46.25
853.781	-85.16
853.956	-117.93
854.131	-29.87
854.305	9.05
854.48	-44.2
854.655	-130.22
854.83	-38.06
855.005	4.95
855.18	11.09
855.354	-62.63
855.529	-31.91
855.704	-1.19
855.879	76.63
856.053	-1.19
856.228	7
856.403	-66.73
856.577	37.72
856.752	-62.63
856.926	-3.24
857.101	-15.53
857.276	-93.35
857.45	11.09
857.625	39.76
857.799	-50.35
857.974	25.43
858.148	-136.36
858.323	64.34
858.497	11.09
858.672	-66.73
858.846	-64.68
859.02	70.48
859.195	-11.43
859.369	35.67
859.543	23.38
859.718	-31.91
859.892	58.2
860.066	-38.06
860.241	-68.78
860.415	-48.3
860.589	0.85
860.763	-27.82
860.938	2.9
861.112	-1.19
861.286	4.95
861.46	21.33
861.634	-23.72
861.808	74.58
861.982	-99.5
862.157	-46.25
862.331	-38.06
862.505	-150.7
862.679	-144.55
862.853	-70.83
863.027	23.38
863.201	121.68
863.375	-23.72
863.549	52.05
863.722	56.15
863.896	76.63
864.07	-105.64
864.244	21.33
864.418	33.62
864.592	-52.39
864.766	45.91
864.939	-36.01
865.113	-113.83
865.287	27.48
865.461	-134.31
865.634	-31.91
865.808	-9.39
865.982	-9.39
866.156	-13.48
866.329	-109.74
866.503	-9.39
866.676	62.29
866.85	43.86
867.024	-33.96
867.197	88.92
867.371	13.14
867.544	11.09
867.718	-62.63
867.891	62.29
868.065	-83.11
868.238	-60.59
868.412	99.16
868.585	-46.25
868.759	-56.49
868.932	17.24
869.105	-113.83
869.279	-31.91
869.452	-11.43
869.625	9.05
869.799	60.24
869.972	-154.79
870.145	-50.35
870.319	13.14
870.492	-58.54
870.665	-72.87
870.838	-107.69
871.011	-185.51
871.185	-48.3
871.358	-33.96
871.531	52.05
871.704	-21.67
871.877	52.05
872.05	-48.3
872.223	-54.44
872.396	58.2
872.569	37.72
872.742	-160.94
872.915	-15.53
873.088	-19.63
873.261	-165.03
873.434	54.1
873.607	-7.34
873.78	86.87
873.953	-126.12
874.126	21.33
874.299	27.48
874.471	-38.06
874.644	0.85
874.817	62.29
874.99	15.19
875.163	-103.59
875.335	33.62
875.508	-7.34
875.681	66.39
875.853	-17.58
876.026	-58.54
876.199	-15.53
876.371	58.2
876.544	-91.31
876.717	35.67
876.889	-91.31
877.062	27.48
877.234	-76.97
877.407	-3.24
877.579	37.72
877.752	37.72
877.924	74.58
878.097	-42.15
878.269	-40.11
878.442	33.62
878.614	54.1
878.786	17.24
878.959	-19.63
879.131	-64.68
879.303	-140.46
879.476	-70.83
879.648	11.09
879.82	-42.15
879.993	-60.59
880.165	-70.83
880.337	-85.16
880.509	11.09
880.681	-60.59
880.854	-1.19
881.026	41.81
881.198	50
881.37	35.67
881.542	-64.68
881.714	-1.19
881.886	-70.83
882.058	-21.67
882.23	23.38
882.402	31.57
882.574	52.05
882.746	74.58
882.918	88.92
883.09	39.76
883.262	-40.11
883.434	47.96
883.606	-76.97
883.778	2.9
883.95	115.54
884.122	15.19
884.293	84.82
884.465	0.85
884.637	60.24
884.809	-113.83
884.98	-36.01
885.152	0.85
885.324	66.39
885.496	-17.58
885.667	11.09
885.839	-38.06
886.011	13.14
886.182	-5.29
886.354	41.81
886.525	33.62
886.697	-11.43
886.869	-70.83
887.04	-40.11
887.212	129.88
887.383	205.65
887.555	-60.59
887.726	23.38
887.897	-50.35
888.069	-29.87
888.24	-15.53
888.412	-19.63
888.583	-17.58
888.754	-66.73
888.926	-218.28
889.097	-93.35
889.268	-38.06
889.44	2.9
889.611	-169.13
889.782	-38.06
889.953	-103.59
890.125	78.68
890.296	-117.93
890.467	-44.2
890.638	-5.29
890.809	-25.77
890.98	0.85
891.151	93.01
891.323	101.2
891.494	33.62
891.665	-42.15
891.836	13.14
892.007	-76.97
892.178	0.85
892.349	33.62
892.52	-115.88
892.691	0.85
892.862	50
893.032	-44.2
893.203	-33.96
893.374	-33.96
893.545	90.96
893.716	-103.59
893.887	39.76
894.057	-66.73
894.228	-36.01
894.399	-40.11
894.57	72.53
894.74	58.2
894.911	9.05
895.082	-107.69
895.253	21.33
895.423	45.91
895.594	90.96
895.764	-25.77
895.935	-17.58
896.106	52.05
896.276	-93.35
896.447	-36.01
896.617	-42.15
896.788	-111.78
896.958	-66.73
897.129	-38.06
897.299	-29.87
897.47	95.06
897.64	27.48
897.81	-83.11
897.981	41.81
898.151	-60.59
898.322	41.81
898.492	2.9
898.662	-95.4
898.832	-95.4
899.003	-93.35
899.173	52.05
899.343	15.19
899.513	-140.46
