Data from USB4F104151__146__11-04-20-239.txt Node

Date: Wed Feb 26 11:04:20 EST 2025
User: louis
Spectrometer: USB4F10415
Trigger mode: 4
Integration Time (sec): 1.000000E-1
Scans to average: 1
Electric dark correction enabled: true
Nonlinearity correction enabled: false
Boxcar width: 0
XAxis mode: Wavelengths
Number of Pixels in Spectrum: 3648
>>>>>Begin Spectral Data<<<<<
178.204	-373.07
178.424	-373.07
178.644	-373.07
178.864	-428.37
179.084	-371.02
179.304	-33.11
179.524	-16.73
179.744	42.67
179.964	128.68
180.184	-12.63
180.404	13.99
180.624	-35.16
180.844	-16.73
181.064	-24.92
181.283	18.09
181.503	-20.82
181.723	-43.35
181.943	-143.7
182.163	222.89
182.383	-24.92
182.602	143.02
182.822	106.15
183.042	126.63
183.262	-31.06
183.482	87.72
183.701	28.33
183.921	-35.16
184.141	48.81
184.361	93.87
184.58	20.14
184.8	46.76
185.02	-43.35
185.239	95.91
185.459	65.19
185.679	95.91
185.898	-57.68
186.118	69.29
186.338	18.09
186.557	157.35
186.777	-90.45
186.997	32.43
187.216	54.95
187.436	196.26
187.655	108.2
187.875	85.67
188.095	-10.58
188.314	110.25
188.534	143.02
188.753	26.28
188.973	143.02
189.192	190.12
189.412	24.23
189.631	87.72
189.851	91.82
190.07	163.5
190.29	1.71
190.509	-16.73
190.729	-10.58
190.948	122.54
191.168	204.46
191.387	83.63
191.607	71.34
191.826	46.76
192.045	57
192.265	69.29
192.484	9.9
192.704	20.14
192.923	22.19
193.142	186.02
193.362	136.87
193.581	140.97
193.8	67.24
194.02	67.24
194.239	122.54
194.458	145.06
194.678	44.71
194.897	44.71
195.116	95.91
195.335	28.33
195.555	59.05
195.774	-80.21
195.993	46.76
196.212	26.28
196.432	3.75
196.651	50.86
196.87	63.15
197.089	237.22
197.308	61.1
197.528	61.1
197.747	-45.4
197.966	46.76
198.185	124.58
198.404	38.57
198.623	122.54
198.842	120.49
199.062	89.77
199.281	147.11
199.5	122.54
199.719	77.48
199.938	91.82
200.157	122.54
200.376	81.58
200.595	91.82
200.814	83.63
201.033	5.8
201.252	229.03
201.471	59.05
201.69	130.73
201.909	32.43
202.128	138.92
202.347	81.58
202.566	22.19
202.785	-82.26
203.004	18.09
203.223	272.04
203.442	63.15
203.661	5.8
203.879	77.48
204.098	173.74
204.317	-43.35
204.536	134.82
204.755	124.58
204.974	136.87
205.193	42.67
205.411	208.55
205.63	151.21
205.849	110.25
206.068	9.9
206.287	-69.97
206.505	165.54
206.724	52.91
206.943	-47.44
207.162	95.91
207.381	40.62
207.599	30.38
207.818	57
208.037	-22.87
208.255	48.81
208.474	110.25
208.693	40.62
208.911	-14.68
209.13	157.35
209.349	143.02
209.567	81.58
209.786	188.07
210.005	116.39
210.223	61.1
210.442	-65.88
210.661	83.63
210.879	71.34
211.098	59.05
211.316	77.48
211.535	95.91
211.753	57
211.972	34.47
212.191	59.05
212.409	-0.34
212.628	128.68
212.846	52.91
213.065	44.71
213.283	120.49
213.502	22.19
213.72	59.05
213.938	-39.25
214.157	50.86
214.375	147.11
214.594	-20.82
214.812	159.4
215.031	69.29
215.249	-8.53
215.467	71.34
215.686	52.91
215.904	134.82
216.122	32.43
216.341	181.93
216.559	116.39
216.778	153.26
216.996	235.18
217.214	46.76
217.432	28.33
217.651	-35.16
217.869	48.81
218.087	20.14
218.306	26.28
218.524	93.87
218.742	83.63
218.96	110.25
219.179	61.1
219.397	52.91
219.615	300.71
219.833	100.01
220.051	46.76
220.27	132.78
220.488	57
220.706	136.87
220.924	91.82
221.142	16.04
221.36	87.72
221.578	130.73
221.796	-18.77
222.015	38.57
222.233	120.49
222.451	145.06
222.669	-24.92
222.887	46.76
223.105	22.19
223.323	63.15
223.541	-24.92
223.759	83.63
223.977	22.19
224.195	171.69
224.413	61.1
224.631	81.58
224.849	71.34
225.067	190.12
225.285	87.72
225.503	83.63
225.721	-104.79
225.939	89.77
226.157	40.62
226.375	288.42
226.592	63.15
226.81	1.71
227.028	134.82
227.246	132.78
227.464	42.67
227.682	130.73
227.9	106.15
228.117	77.48
228.335	77.48
228.553	83.63
228.771	5.8
228.989	118.44
229.206	48.81
229.424	-31.06
229.642	7.85
229.86	-51.54
230.077	143.02
230.295	110.25
230.513	44.71
230.731	52.91
230.948	192.17
231.166	269.99
231.384	54.95
231.601	-37.2
231.819	237.22
232.037	48.81
232.254	-33.11
232.472	61.1
232.689	13.99
232.907	200.36
233.125	30.38
233.342	-2.39
233.56	26.28
233.777	-8.53
233.995	36.52
234.213	138.92
234.43	104.11
234.648	71.34
234.865	-4.44
235.083	73.39
235.3	85.67
235.518	95.91
235.735	52.91
235.953	196.26
236.17	44.71
236.388	20.14
236.605	75.43
236.822	118.44
237.04	112.3
237.257	130.73
237.475	-24.92
237.692	32.43
237.909	-0.34
238.127	28.33
238.344	65.19
238.562	81.58
238.779	91.82
238.996	9.9
239.214	50.86
239.431	71.34
239.648	46.76
239.865	28.33
240.083	118.44
240.3	-65.88
240.517	3.75
240.735	73.39
240.952	100.01
241.169	46.76
241.386	97.96
241.603	108.2
241.821	-72.02
242.038	87.72
242.255	143.02
242.472	59.05
242.689	130.73
242.907	59.05
243.124	46.76
243.341	-39.25
243.558	46.76
243.775	-100.69
243.992	-59.73
244.209	108.2
244.426	93.87
244.643	83.63
244.86	36.52
245.078	38.57
245.295	34.47
245.512	114.34
245.729	-0.34
245.946	140.97
246.163	50.86
246.38	42.67
246.597	102.06
246.814	48.81
247.031	87.72
247.248	73.39
247.464	75.43
247.681	63.15
247.898	100.01
248.115	13.99
248.332	-24.92
248.549	89.77
248.766	145.06
248.983	100.01
249.2	77.48
249.417	120.49
249.633	46.76
249.85	32.43
250.067	36.52
250.284	57
250.501	22.19
250.717	126.63
250.934	-49.49
251.151	38.57
251.368	40.62
251.585	169.64
251.801	77.48
252.018	11.95
252.235	151.21
252.451	1.71
252.668	38.57
252.885	147.11
253.102	75.43
253.318	22.19
253.535	40.62
253.752	100.01
253.968	48.81
254.185	-20.82
254.401	112.3
254.618	126.63
254.835	-2.39
255.051	124.58
255.268	67.24
255.484	81.58
255.701	71.34
255.917	93.87
256.134	3.75
256.351	91.82
256.567	-22.87
256.784	52.91
257	-76.12
257.217	108.2
257.433	169.64
257.65	44.71
257.866	163.5
258.082	-26.96
258.299	67.24
258.515	40.62
258.732	104.11
258.948	46.76
259.165	16.04
259.381	-4.44
259.597	132.78
259.814	42.67
260.03	108.2
260.246	102.06
260.463	65.19
260.679	75.43
260.895	50.86
261.112	30.38
261.328	95.91
261.544	-80.21
261.761	159.4
261.977	100.01
262.193	-108.88
262.409	114.34
262.626	93.87
262.842	34.47
263.058	59.05
263.274	116.39
263.49	147.11
263.707	69.29
263.923	124.58
264.139	-51.54
264.355	106.15
264.571	116.39
264.787	54.95
265.004	110.25
265.22	57
265.436	-16.73
265.652	71.34
265.868	48.81
266.084	-88.4
266.3	38.57
266.516	30.38
266.732	69.29
266.948	5.8
267.164	-47.44
267.38	190.12
267.596	128.68
267.812	237.22
268.028	20.14
268.244	-72.02
268.46	106.15
268.676	5.8
268.892	87.72
269.108	-29.01
269.324	-2.39
269.54	32.43
269.756	122.54
269.972	-51.54
270.188	18.09
270.403	75.43
270.619	38.57
270.835	36.52
271.051	38.57
271.267	-4.44
271.483	26.28
271.698	95.91
271.914	48.81
272.13	79.53
272.346	26.28
272.562	3.75
272.777	192.17
272.993	128.68
273.209	75.43
273.425	13.99
273.64	28.33
273.856	102.06
274.072	24.23
274.287	40.62
274.503	54.95
274.719	26.28
274.934	44.71
275.15	9.9
275.366	34.47
275.581	3.75
275.797	69.29
276.012	75.43
276.228	110.25
276.444	52.91
276.659	159.4
276.875	13.99
277.09	-29.01
277.306	54.95
277.521	93.87
277.737	38.57
277.952	85.67
278.168	46.76
278.383	52.91
278.599	50.86
278.814	126.63
279.03	18.09
279.245	124.58
279.461	122.54
279.676	36.52
279.892	-43.35
280.107	-39.25
280.322	-51.54
280.538	18.09
280.753	-35.16
280.969	71.34
281.184	63.15
281.399	112.3
281.615	122.54
281.83	59.05
282.045	7.85
282.26	-53.59
282.476	18.09
282.691	87.72
282.906	52.91
283.122	95.91
283.337	-43.35
283.552	91.82
283.767	16.04
283.983	95.91
284.198	40.62
284.413	165.54
284.628	-18.77
284.843	38.57
285.058	104.11
285.274	-4.44
285.489	-57.68
285.704	85.67
285.919	75.43
286.134	-12.63
286.349	77.48
286.564	32.43
286.779	159.4
286.995	-0.34
287.21	-55.64
287.425	87.72
287.64	122.54
287.855	112.3
288.07	-51.54
288.285	155.3
288.5	120.49
288.715	126.63
288.93	85.67
289.145	-37.2
289.36	87.72
289.575	44.71
289.79	136.87
290.004	69.29
290.219	106.15
290.434	-26.96
290.649	16.04
290.864	22.19
291.079	-10.58
291.294	44.71
291.509	57
291.724	22.19
291.938	-26.96
292.153	67.24
292.368	-67.92
292.583	153.26
292.798	97.96
293.012	57
293.227	46.76
293.442	54.95
293.657	188.07
293.871	188.07
294.086	136.87
294.301	159.4
294.516	179.88
294.73	48.81
294.945	40.62
295.16	7.85
295.374	132.78
295.589	118.44
295.804	-22.87
296.018	18.09
296.233	163.5
296.447	28.33
296.662	-14.68
296.877	157.35
297.091	93.87
297.306	40.62
297.52	30.38
297.735	95.91
297.949	20.14
298.164	9.9
298.378	32.43
298.593	-14.68
298.807	-8.53
299.022	81.58
299.236	177.83
299.451	-41.3
299.665	3.75
299.88	48.81
300.094	112.3
300.309	42.67
300.523	65.19
300.737	32.43
300.952	97.96
301.166	108.2
301.381	-37.2
301.595	36.52
301.809	34.47
302.024	3.75
302.238	-57.68
302.452	124.58
302.667	24.23
302.881	108.2
303.095	102.06
303.309	104.11
303.524	77.48
303.738	-18.77
303.952	20.14
304.166	104.11
304.381	-72.02
304.595	134.82
304.809	42.67
305.023	112.3
305.237	-18.77
305.452	-4.44
305.666	36.52
305.88	1.71
306.094	104.11
306.308	91.82
306.522	126.63
306.736	89.77
306.95	138.92
307.164	54.95
307.379	50.86
307.593	130.73
307.807	171.69
308.021	138.92
308.235	71.34
308.449	-39.25
308.663	97.96
308.877	177.83
309.091	97.96
309.305	59.05
309.519	-164.18
309.733	194.22
309.947	-115.03
310.161	54.95
310.374	50.86
310.588	143.02
310.802	-43.35
311.016	16.04
311.23	87.72
311.444	81.58
311.658	24.23
311.872	159.4
312.085	114.34
312.299	163.5
312.513	128.68
312.727	89.77
312.941	-29.01
313.154	147.11
313.368	128.68
313.582	44.71
313.796	40.62
314.009	71.34
314.223	100.01
314.437	65.19
314.651	97.96
314.864	67.24
315.078	30.38
315.292	3.75
315.505	48.81
315.719	114.34
315.933	132.78
316.146	-24.92
316.36	-55.64
316.573	177.83
316.787	69.29
317.001	46.76
317.214	-29.01
317.428	83.63
317.641	54.95
317.855	11.95
318.068	20.14
318.282	54.95
318.495	175.78
318.709	161.45
318.922	16.04
319.136	46.76
319.349	91.82
319.563	-76.12
319.776	171.69
319.99	-41.3
320.203	138.92
320.417	57
320.63	81.58
320.843	210.6
321.057	57
321.27	11.95
321.483	132.78
321.697	112.3
321.91	100.01
322.124	81.58
322.337	44.71
322.55	44.71
322.763	38.57
322.977	44.71
323.19	-4.44
323.403	128.68
323.617	106.15
323.83	126.63
324.043	42.67
324.256	69.29
324.469	-33.11
324.683	138.92
324.896	9.9
325.109	75.43
325.322	-69.97
325.535	106.15
325.748	126.63
325.962	-0.34
326.175	18.09
326.388	97.96
326.601	153.26
326.814	-14.68
327.027	112.3
327.24	173.74
327.453	18.09
327.666	143.02
327.879	97.96
328.092	28.33
328.305	104.11
328.518	52.91
328.731	9.9
328.944	-22.87
329.157	87.72
329.37	110.25
329.583	194.22
329.796	206.5
330.009	-82.26
330.222	145.06
330.435	138.92
330.648	69.29
330.861	130.73
331.073	69.29
331.286	118.44
331.499	-47.44
331.712	-14.68
331.925	-20.82
332.138	-14.68
332.35	112.3
332.563	26.28
332.776	106.15
332.989	40.62
333.202	-45.4
333.414	128.68
333.627	95.91
333.84	16.04
334.053	77.48
334.265	5.8
334.478	3.75
334.691	73.39
334.903	61.1
335.116	54.95
335.329	46.76
335.541	36.52
335.754	210.6
335.966	59.05
336.179	13.99
336.392	87.72
336.604	95.91
336.817	163.5
337.029	124.58
337.242	11.95
337.454	75.43
337.667	83.63
337.88	167.59
338.092	38.57
338.305	83.63
338.517	126.63
338.729	116.39
338.942	190.12
339.154	13.99
339.367	-31.06
339.579	93.87
339.792	-31.06
340.004	93.87
340.217	-6.49
340.429	28.33
340.641	46.76
340.854	42.67
341.066	50.86
341.278	118.44
341.491	267.94
341.703	34.47
341.915	-6.49
342.128	106.15
342.34	81.58
342.552	26.28
342.764	24.23
342.977	97.96
343.189	149.16
343.401	75.43
343.613	-10.58
343.826	34.47
344.038	-29.01
344.25	67.24
344.462	48.81
344.674	116.39
344.886	110.25
345.099	57
345.311	77.48
345.523	40.62
345.735	-37.2
345.947	77.48
346.159	95.91
346.371	42.67
346.583	42.67
346.795	138.92
347.007	42.67
347.219	108.2
347.431	22.19
347.643	149.16
347.855	130.73
348.067	95.91
348.279	16.04
348.491	34.47
348.703	91.82
348.915	-6.49
349.127	46.76
349.339	89.77
349.551	28.33
349.763	106.15
349.975	-39.25
350.187	200.36
350.399	112.3
350.61	63.15
350.822	42.67
351.034	50.86
351.246	77.48
351.458	42.67
351.669	136.87
351.881	128.68
352.093	153.26
352.305	77.48
352.517	83.63
352.728	159.4
352.94	114.34
353.152	52.91
353.363	-0.34
353.575	42.67
353.787	140.97
353.999	87.72
354.21	186.02
354.422	20.14
354.633	30.38
354.845	67.24
355.057	24.23
355.268	100.01
355.48	114.34
355.692	7.85
355.903	52.91
356.115	38.57
356.326	-108.88
356.538	190.12
356.749	128.68
356.961	181.93
357.172	85.67
357.384	9.9
357.595	237.22
357.807	50.86
358.018	11.95
358.23	79.53
358.441	186.02
358.653	89.77
358.864	50.86
359.075	20.14
359.287	120.49
359.498	143.02
359.709	61.1
359.921	89.77
360.132	34.47
360.344	59.05
360.555	-59.73
360.766	38.57
360.977	-20.82
361.189	102.06
361.4	-6.49
361.611	136.87
361.823	110.25
362.034	73.39
362.245	-10.58
362.456	79.53
362.667	132.78
362.879	-4.44
363.09	3.75
363.301	26.28
363.512	50.86
363.723	52.91
363.935	61.1
364.146	79.53
364.357	32.43
364.568	106.15
364.779	-24.92
364.99	169.64
365.201	65.19
365.412	161.45
365.623	-8.53
365.834	77.48
366.045	59.05
366.256	61.1
366.467	134.82
366.678	26.28
366.889	104.11
367.1	28.33
367.311	124.58
367.522	28.33
367.733	159.4
367.944	122.54
368.155	26.28
368.366	100.01
368.577	188.07
368.788	77.48
368.999	18.09
369.209	38.57
369.42	247.46
369.631	290.47
369.842	122.54
370.053	9.9
370.264	130.73
370.474	-20.82
370.685	87.72
370.896	-10.58
371.107	52.91
371.317	71.34
371.528	18.09
371.739	167.59
371.95	71.34
372.16	59.05
372.371	13.99
372.582	-20.82
372.792	83.63
373.003	13.99
373.214	95.91
373.424	102.06
373.635	3.75
373.846	89.77
374.056	52.91
374.267	81.58
374.477	59.05
374.688	44.71
374.898	106.15
375.109	11.95
375.319	79.53
375.53	102.06
375.74	52.91
375.951	20.14
376.161	54.95
376.372	122.54
376.582	32.43
376.793	138.92
377.003	48.81
377.214	26.28
377.424	71.34
377.635	40.62
377.845	7.85
378.055	143.02
378.266	71.34
378.476	1.71
378.686	169.64
378.897	100.01
379.107	143.02
379.317	106.15
379.528	5.8
379.738	122.54
379.948	67.24
380.158	161.45
380.369	40.62
380.579	48.81
380.789	65.19
380.999	120.49
381.21	169.64
381.42	229.03
381.63	61.1
381.84	73.39
382.05	112.3
382.261	95.91
382.471	138.92
382.681	40.62
382.891	188.07
383.101	65.19
383.311	-80.21
383.521	-0.34
383.731	120.49
383.941	87.72
384.151	124.58
384.361	89.77
384.571	71.34
384.781	87.72
384.991	249.51
385.201	69.29
385.411	169.64
385.621	34.47
385.831	26.28
386.041	83.63
386.251	75.43
386.461	138.92
386.671	48.81
386.881	89.77
387.091	24.23
387.301	159.4
387.511	34.47
387.72	50.86
387.93	190.12
388.14	-35.16
388.35	116.39
388.56	118.44
388.769	163.5
388.979	3.75
389.189	22.19
389.399	30.38
389.609	22.19
389.818	87.72
390.028	100.01
390.238	36.52
390.447	-31.06
390.657	97.96
390.867	69.29
391.076	9.9
391.286	42.67
391.496	52.91
391.705	69.29
391.915	126.63
392.125	130.73
392.334	16.04
392.544	175.78
392.753	87.72
392.963	112.3
393.172	42.67
393.382	-24.92
393.591	157.35
393.801	67.24
394.01	149.16
394.22	71.34
394.429	11.95
394.639	-14.68
394.848	108.2
395.058	112.3
395.267	79.53
395.477	130.73
395.686	120.49
395.895	251.56
396.105	204.46
396.314	112.3
396.524	26.28
396.733	44.71
396.942	151.21
397.152	157.35
397.361	118.44
397.57	136.87
397.78	83.63
397.989	85.67
398.198	274.09
398.407	93.87
398.617	67.24
398.826	75.43
399.035	20.14
399.244	126.63
399.453	-18.77
399.663	120.49
399.872	79.53
400.081	-24.92
400.29	194.22
400.499	75.43
400.708	67.24
400.917	69.29
401.127	116.39
401.336	32.43
401.545	124.58
401.754	173.74
401.963	85.67
402.172	61.1
402.381	34.47
402.59	26.28
402.799	38.57
403.008	134.82
403.217	145.06
403.426	85.67
403.635	46.76
403.844	97.96
404.053	-2.39
404.262	71.34
404.471	173.74
404.68	38.57
404.888	89.77
405.097	-12.63
405.306	124.58
405.515	108.2
405.724	7.85
405.933	138.92
406.142	71.34
406.35	155.3
406.559	26.28
406.768	106.15
406.977	196.26
407.185	122.54
407.394	95.91
407.603	-37.2
407.812	18.09
408.02	161.45
408.229	36.52
408.438	73.39
408.646	3.75
408.855	57
409.064	149.16
409.272	28.33
409.481	153.26
409.69	-47.44
409.898	91.82
410.107	114.34
410.315	220.84
410.524	95.91
410.733	120.49
410.941	34.47
411.15	136.87
411.358	48.81
411.567	167.59
411.775	61.1
411.984	32.43
412.192	108.2
412.401	77.48
412.609	188.07
412.818	136.87
413.026	126.63
413.234	-10.58
413.443	57
413.651	63.15
413.86	67.24
414.068	226.98
414.276	247.46
414.485	104.11
414.693	179.88
414.901	130.73
415.11	116.39
415.318	136.87
415.526	67.24
415.734	112.3
415.943	26.28
416.151	161.45
416.359	18.09
416.567	48.81
416.776	149.16
416.984	108.2
417.192	188.07
417.4	38.57
417.608	-35.16
417.817	46.76
418.025	163.5
418.233	210.6
418.441	34.47
418.649	-33.11
418.857	153.26
419.065	226.98
419.273	11.95
419.481	95.91
419.689	34.47
419.897	-18.77
420.105	-4.44
420.313	138.92
420.521	181.93
420.729	165.54
420.937	30.38
421.145	87.72
421.353	200.36
421.561	190.12
421.769	65.19
421.977	-0.34
422.185	161.45
422.393	73.39
422.601	124.58
422.809	73.39
423.017	89.77
423.224	124.58
423.432	138.92
423.64	59.05
423.848	179.88
424.056	124.58
424.263	153.26
424.471	140.97
424.679	169.64
424.887	-47.44
425.094	155.3
425.302	108.2
425.51	81.58
425.718	161.45
425.925	108.2
426.133	81.58
426.341	171.69
426.548	81.58
426.756	50.86
426.964	143.02
427.171	24.23
427.379	175.78
427.586	118.44
427.794	116.39
428.001	220.84
428.209	128.68
428.417	173.74
428.624	126.63
428.832	177.83
429.039	138.92
429.247	202.41
429.454	181.93
429.662	202.41
429.869	118.44
430.076	126.63
430.284	147.11
430.491	235.18
430.699	210.6
430.906	267.94
431.114	231.08
431.321	204.46
431.528	155.3
431.736	198.31
431.943	257.7
432.15	212.65
432.358	216.74
432.565	333.48
432.772	79.53
432.979	210.6
433.187	91.82
433.394	257.7
433.601	161.45
433.808	294.57
434.016	308.9
434.223	267.94
434.43	317.09
434.637	329.38
434.844	345.77
435.052	308.9
435.259	321.19
435.466	321.19
435.673	327.33
435.88	304.81
436.087	405.16
436.294	384.68
436.501	351.91
436.708	376.48
436.915	331.43
437.122	360.1
437.329	315.05
437.537	403.11
437.743	409.25
437.95	536.23
438.157	437.92
438.364	462.5
438.571	439.97
438.778	491.17
438.985	575.14
439.192	571.04
439.399	548.51
439.606	644.77
439.813	605.86
440.02	667.3
440.227	722.59
440.433	714.4
440.64	728.74
440.847	573.09
441.054	587.43
441.261	816.8
441.467	741.02
441.674	720.54
441.881	872.09
442.088	824.99
442.294	863.9
442.501	863.9
442.708	951.96
442.914	911
443.121	992.92
443.328	1023.64
443.534	1076.89
443.741	1007.26
443.948	1013.4
444.154	1146.52
444.361	1322.65
444.568	1128.09
444.774	1238.68
444.981	1242.78
445.187	1394.33
445.394	1396.37
445.6	1394.33
445.807	1529.49
446.013	1552.02
446.22	1509.01
446.426	1701.52
446.633	1762.96
446.839	1967.76
447.046	1717.9
447.252	2066.06
447.459	1941.13
447.665	2039.44
447.871	2172.55
448.078	2315.91
448.284	2242.18
448.491	2426.5
448.697	2381.45
448.903	2553.48
449.11	2686.59
449.316	2461.32
449.522	2762.37
449.728	2877.05
449.935	2915.97
450.141	2961.02
450.347	3274.36
450.553	3182.2
450.76	3235.45
450.966	3595.89
451.172	3513.97
451.378	3688.05
451.584	3948.14
451.791	3956.33
451.997	4095.6
452.203	4173.42
452.409	4456.04
452.615	4558.44
452.821	4554.34
453.027	4396.65
453.233	5166.68
453.44	5000.8
453.646	5301.85
453.852	5338.71
454.058	5656.15
454.264	5871.19
454.47	6231.63
454.676	6276.68
454.882	6837.83
455.088	6420.04
455.294	6893.12
455.5	7462.46
455.705	7827
455.911	7626.29
456.117	7999.02
456.323	8156.72
456.529	8203.82
456.735	9125.41
456.941	9205.28
457.147	9840.15
457.352	9809.43
457.558	10094.1
457.764	10827.27
457.97	11011.59
458.176	11417.08
458.381	12062.19
458.587	12289.52
458.793	12940.77
458.999	12850.66
459.204	14511.57
459.41	15109.57
459.616	14765.51
459.821	15525.31
460.027	16436.66
460.233	16950.7
460.438	17085.86
460.644	17941.91
460.85	18238.87
461.055	19316.1
461.261	19867
461.466	19492.23
461.672	19932.54
461.878	22412.63
462.083	22183.26
462.289	22627.67
462.494	23391.56
462.7	23596.35
462.905	24026.43
463.111	25883.94
463.316	27108.62
463.522	27401.48
463.727	28302.59
463.932	29398.25
464.138	30782.68
464.343	31370.44
464.549	31810.76
464.754	34266.27
464.959	35173.52
465.165	35572.88
465.37	35468.43
465.575	35175.57
465.781	37969
465.986	38687.84
466.191	38171.75
466.397	38372.45
466.602	37395.57
466.807	39740.49
467.012	40367.17
467.218	41094.2
467.423	41131.06
467.628	42298.41
467.833	44534.79
468.038	43580.43
468.244	42664.99
468.449	44764.16
468.654	44071.95
468.859	44321.8
469.064	44100.62
469.269	43027.48
469.474	43492.37
469.679	44471.3
469.885	43428.88
470.09	44084.23
470.295	43887.63
470.5	42765.34
470.705	43080.73
470.91	41860.14
471.115	41694.25
471.32	42279.97
471.525	42040.36
471.73	40750.14
471.935	40600.64
472.139	38890.59
472.344	39109.72
472.549	39076.95
472.754	37969
472.959	37215.35
473.164	35740.81
473.369	35495.05
473.574	36314.24
473.778	35720.33
473.983	34868.37
474.188	34272.42
474.393	32877.75
474.598	32664.76
474.802	32027.84
475.007	31548.62
475.212	31341.77
475.417	30020.83
475.621	29584.62
475.826	29476.07
476.031	28441.85
476.235	28089.6
476.44	28005.63
476.645	27501.83
476.849	27145.48
477.054	26336.54
477.259	26068.25
477.463	25935.13
477.668	25343.27
477.872	25218.35
478.077	24538.42
478.282	23921.98
478.486	23645.51
478.691	23512.39
478.895	23053.64
479.1	22613.33
479.304	23020.88
479.509	21960.03
479.713	22619.47
479.918	21898.59
480.122	21474.66
480.326	21687.65
480.531	21353.83
480.735	21292.39
480.94	21081.45
481.144	21728.61
481.348	20209.01
481.553	20667.76
481.757	19987.83
481.961	20229.49
482.166	20440.43
482.37	19955.07
482.574	19213.7
482.778	19617.15
482.983	19969.4
483.187	19553.66
483.391	19264.9
483.595	18974.09
483.8	18705.81
484.004	18550.16
484.208	18355.6
484.412	18380.18
484.616	18212.24
484.821	18431.38
485.025	17399.2
485.229	17534.37
485.433	17202.6
485.637	16965.03
485.841	16999.85
486.045	16721.32
486.249	16494
486.453	16158.13
486.657	16010.68
486.861	15779.26
487.065	15289.79
487.269	15171.01
487.473	14937.54
487.677	15070.66
487.881	14863.82
488.085	14396.88
488.289	14458.32
488.493	13792.73
488.697	13868.5
488.901	13352.41
489.105	13102.56
489.309	13102.56
489.512	12801.51
489.716	12383.73
489.92	12266.99
490.124	12008.95
490.328	12223.98
490.531	11537.91
490.735	11781.62
490.939	11408.89
491.143	11062.79
491.346	10575.37
491.55	10870.28
491.754	10485.26
491.958	10460.68
492.161	10094.1
492.365	10012.18
492.569	9889.3
492.772	9625.11
492.976	9465.37
493.18	9502.23
493.383	9561.62
493.587	9229.85
493.79	9256.48
493.994	8783.4
494.197	8777.25
494.401	8783.4
494.605	8689.19
494.808	8713.77
495.012	8404.52
495.215	8451.63
495.419	8646.18
495.622	8169.01
495.825	8255.02
496.029	8119.85
496.232	8322.6
496.436	8031.79
496.639	8189.49
496.843	8134.19
497.046	8283.69
497.249	8375.85
497.453	8048.18
497.656	8103.47
497.859	7996.98
498.063	8212.01
498.266	8482.35
498.469	8050.22
498.673	8261.16
498.876	8111.66
499.079	8334.89
499.282	8390.19
499.485	8689.19
499.689	8394.28
499.892	8394.28
500.095	8443.43
500.298	8691.24
500.501	8566.31
500.705	8869.41
500.908	8637.99
501.111	8646.18
501.314	8945.19
501.517	9145.89
501.72	9104.93
501.923	8969.76
502.126	9207.33
502.329	9422.36
502.532	9463.32
502.735	9426.46
502.938	9573.91
503.141	9565.72
503.344	9813.52
503.547	9958.93
503.75	10122.77
503.953	10083.86
504.156	10309.13
504.359	10573.32
504.562	10575.37
504.765	10862.08
504.968	10970.63
505.17	11060.74
505.373	11236.86
505.576	11490.81
505.779	11361.79
505.982	11617.79
506.185	11933.17
506.387	12115.44
506.59	12541.42
506.793	12557.8
506.996	12865
507.198	13368.8
507.401	13317.6
507.604	13546.97
507.807	13649.37
508.009	14018
508.212	14259.67
508.415	14562.76
508.617	14755.27
508.82	15222.21
509.022	15273.41
509.225	15865.27
509.428	15998.39
509.63	16373.17
509.833	16430.51
510.035	17329.57
510.238	17517.98
510.44	17790.36
510.643	18386.32
510.845	18767.24
511.048	19182.98
511.25	19481.99
511.453	19742.08
511.655	20774.25
511.858	20948.33
512.06	21310.82
512.262	21699.94
512.465	22097.24
512.667	22777.17
512.87	22877.52
513.072	23708.99
513.274	24247.61
513.477	24599.86
513.679	25373.99
513.881	25853.22
514.084	26455.32
514.286	26975.5
514.488	27534.6
514.69	28447.99
514.893	28699.89
515.095	29480.17
515.297	30010.59
515.499	30883.03
515.701	31503.56
515.904	31767.75
516.106	32363.71
516.308	33336.49
516.51	33979.56
516.712	34114.72
516.914	35007.64
517.116	35953.8
517.318	36232.32
517.52	37055.61
517.722	37414
517.925	38511.71
518.127	39257.17
518.329	39709.77
518.531	40318.02
518.733	40893.5
518.935	41983.02
519.136	41810.99
519.338	42877.98
519.54	43580.43
519.742	44549.12
519.944	44794.88
520.146	45427.7
520.348	46320.62
520.55	46937.05
520.752	47158.24
520.954	48122.83
521.155	48092.11
521.357	49017.79
521.559	49437.62
521.761	50228.14
521.963	50367.4
522.164	50901.92
522.366	50996.13
522.568	52206.48
522.77	52347.79
522.971	52390.8
523.173	52099.98
523.375	53494.65
523.576	53220.22
523.778	53138.3
523.98	54023.03
524.181	53881.72
524.383	54246.25
524.584	54520.68
524.786	54410.09
524.988	54301.55
525.189	54334.32
525.391	54823.78
525.592	55458.65
525.794	55143.27
525.995	54811.49
526.197	54848.36
526.398	55216.99
526.6	54578.03
526.801	55110.5
527.003	54332.27
527.204	54186.86
527.406	54557.55
527.607	53857.14
527.808	54188.91
528.01	52757.38
528.211	52671.37
528.412	53414.78
528.614	52681.61
528.815	52536.2
529.016	52233.1
529.218	51286.94
529.419	51131.29
529.62	50482.09
529.822	50400.17
530.023	49845.17
530.224	49429.43
530.425	48741.31
530.626	47922.13
530.828	47225.82
531.029	47717.33
531.23	46558.18
531.431	45935.6
531.632	45964.27
531.833	45267.96
532.035	44991.48
532.236	44518.4
532.437	43881.49
532.638	43211.8
532.839	42693.66
533.04	42578.98
533.241	41425.97
533.442	41610.29
533.643	40461.38
533.844	40352.83
534.045	39552.08
534.246	39138.39
534.447	38435.94
534.648	37936.23
534.849	37586.03
535.05	36822.14
535.251	36347.01
535.451	35798.15
535.652	35593.36
535.853	35028.12
536.054	34524.32
536.255	34344.09
536.456	33811.62
536.657	33623.21
536.857	32617.66
537.058	32083.14
537.259	31956.16
537.46	31841.48
537.66	31124.69
537.861	30551.26
538.062	30264.54
538.263	30106.85
538.463	29568.23
538.664	29400.3
538.865	28689.65
539.065	28749.04
539.266	27696.39
539.466	27923.71
539.667	27260.17
539.868	27186.44
540.068	26905.87
540.269	26514.71
540.469	26160.41
540.67	25705.76
540.87	25607.46
541.071	25144.62
541.271	25115.95
541.472	24616.24
541.672	24325.43
541.873	23889.21
542.073	23635.27
542.274	23604.55
542.474	23127.37
542.675	22656.34
542.875	22848.85
543.075	22453.59
543.276	22089.05
543.476	22472.02
543.676	21710.18
543.877	21282.15
544.077	21237.09
544.277	21362.02
544.478	20614.51
544.678	20768.11
544.878	20235.64
545.078	20032.89
545.279	19867
545.479	19580.29
545.679	19271.04
545.879	19205.51
546.079	18959.75
546.28	18664.85
546.48	18326.93
546.68	18423.19
546.88	18197.91
547.08	17978.78
547.28	17599.9
547.48	17241.51
547.68	17049
547.88	17065.38
548.081	16709.04
548.281	16293.3
548.481	16139.7
548.681	16254.39
548.881	16211.38
549.081	15668.67
549.28	15586.75
549.48	15414.72
549.68	14822.86
549.88	14894.54
550.08	14458.32
550.28	14613.96
550.48	14472.65
550.68	14251.47
550.88	13837.78
551.08	13641.18
551.279	13471.2
551.479	13057.51
551.679	13178.34
551.879	12781.03
552.079	12717.54
552.278	12551.66
552.478	12344.81
552.678	12248.56
552.878	12189.17
553.077	11830.77
553.277	11388.41
553.477	11380.22
553.676	11339.26
553.876	10925.57
554.076	10956.29
554.275	10886.66
554.475	10290.7
554.674	10737.16
554.874	10184.21
555.074	9911.83
555.273	10008.08
555.473	9756.18
555.672	9588.25
555.872	9561.62
556.071	9340.44
556.271	9276.96
556.47	8990.24
556.67	8713.77
556.869	8738.34
557.068	8545.83
557.268	8334.89
557.467	8271.4
557.667	8207.92
557.866	8056.37
558.065	7740.98
558.265	7796.28
558.464	7603.77
558.663	7683.64
558.863	7368.25
559.062	7323.19
559.261	7235.13
559.461	7228.99
559.66	6903.36
559.859	6997.57
560.058	6536.77
560.258	6606.41
560.457	6407.75
560.656	6571.59
560.855	6131.28
561.054	6393.42
561.253	6096.46
561.453	6039.12
561.652	5967.44
561.851	5858.9
562.05	5600.85
562.249	5568.09
562.448	5713.49
562.647	5314.14
562.846	5439.06
563.045	5434.97
563.244	5205.6
563.443	5189.21
563.642	5037.66
563.841	5002.85
564.04	4996.7
564.239	4843.1
564.438	4736.61
564.637	4812.39
564.836	4669.03
565.035	4599.4
565.234	4497
565.432	4425.32
565.631	4333.16
565.83	4384.36
566.029	4337.26
566.228	4167.28
566.427	4269.67
566.625	3976.81
566.824	4132.46
567.023	3874.42
567.222	3868.27
567.42	3896.94
567.619	3710.58
567.818	3640.95
568.016	3831.41
568.215	3655.28
568.414	3620.47
568.612	3575.41
568.811	3589.75
569.01	3427.96
569.208	3432.05
569.407	3311.22
569.605	3290.74
569.804	3247.74
570.002	3176.06
570.201	3016.32
570.4	3157.63
570.598	3051.13
570.797	3073.66
570.995	2854.53
571.193	2991.74
571.392	2823.81
571.59	2786.94
571.789	2875.01
571.987	2877.05
572.186	2825.86
572.384	2752.13
572.582	2729.6
572.781	2707.07
572.979	2494.08
573.177	2580.1
573.376	2502.28
573.574	2485.89
573.772	2268.81
573.971	2354.82
574.169	2250.38
574.367	2395.78
574.565	2367.11
574.763	2244.23
574.962	2209.42
575.16	2131.59
575.358	2080.39
575.556	2072.2
575.754	2127.5
575.952	2090.63
576.151	1998.48
576.349	1898.13
576.547	1857.17
576.745	1922.7
576.943	1869.45
577.141	1732.24
577.339	1769.1
577.537	1767.06
577.735	1779.34
577.933	1722
578.131	1644.18
578.329	1818.25
578.527	1558.16
578.725	1717.9
578.923	1427.09
579.121	1615.51
579.319	1447.57
579.516	1586.83
579.714	1730.19
579.912	1470.1
580.11	1359.51
580.308	1330.84
580.506	1365.65
580.704	1250.97
580.901	1302.17
581.099	1369.75
581.297	1423
581.495	1289.88
581.692	1250.97
581.89	1404.57
582.088	1300.12
582.285	1222.3
582.483	1275.54
582.681	1214.1
582.878	1128.09
583.076	1164.95
583.274	1205.91
583.471	1244.82
583.669	1060.51
583.866	1023.64
584.064	1113.75
584.262	980.64
584.459	958.11
584.657	1117.85
584.854	1007.26
585.052	1093.27
585.249	1056.41
585.447	1044.12
585.644	902.81
585.841	1001.12
586.039	1052.31
586.236	1083.03
586.434	868
586.631	872.09
586.828	888.48
587.026	943.77
587.223	784.03
587.42	865.95
587.618	831.13
587.815	892.57
588.012	872.09
588.21	814.75
588.407	911
588.604	880.29
588.801	757.41
588.999	820.89
589.196	872.09
589.393	800.41
589.59	773.79
589.787	831.13
589.984	794.27
590.182	722.59
590.379	675.49
590.576	804.51
590.773	714.4
590.97	718.5
591.167	886.43
591.364	759.46
591.561	679.58
591.758	792.22
591.955	761.5
592.152	802.46
592.349	718.5
592.546	583.33
592.743	659.1
592.94	679.58
593.137	833.18
593.334	806.56
593.531	726.69
593.727	726.69
593.924	716.45
594.121	741.02
594.318	790.17
594.515	777.89
594.712	822.94
594.908	906.91
595.105	687.78
595.302	829.09
595.499	714.4
595.696	988.83
595.892	716.45
596.089	941.72
596.286	790.17
596.482	954.01
596.679	880.29
596.876	794.27
597.072	988.83
597.269	870.05
597.466	1072.79
597.662	962.2
597.859	1060.51
598.055	1031.83
598.252	1099.42
598.448	1138.33
598.645	1179.29
598.841	1308.31
599.038	1398.42
599.234	1488.53
599.431	1332.89
599.627	1478.29
599.824	1484.44
600.02	1545.88
600.217	1527.44
600.413	1607.31
600.609	1701.52
600.806	2002.57
601.002	1838.73
601.198	1814.16
601.395	1918.61
601.591	2014.86
601.787	2070.16
601.984	2162.31
602.18	2285.19
602.376	2340.49
602.572	2549.38
602.769	2619.01
602.965	2625.15
603.161	2748.03
603.357	2731.65
603.553	3010.17
603.75	2877.05
603.946	3071.61
604.142	3112.57
604.338	3251.83
604.534	3253.88
604.73	3462.77
604.926	3556.98
605.122	3792.5
605.318	3622.52
605.514	3890.8
605.71	3888.75
605.906	4279.91
606.102	4292.2
606.298	4466.28
606.494	4683.36
606.69	4738.66
606.886	4709.99
607.082	4873.82
607.278	5133.92
607.474	5170.78
607.67	5418.58
607.866	5314.14
608.062	5627.48
608.257	5803.6
608.453	5938.77
608.649	6252.11
608.845	6104.65
609.041	6364.75
609.236	6702.66
609.432	6854.21
609.628	6968.9
609.824	7243.32
610.019	7398.97
610.215	7536.18
610.411	7634.49
610.606	7980.59
610.802	7968.31
610.998	8351.28
611.193	8611.37
611.389	8734.25
611.584	8922.66
611.78	9037.34
611.976	9623.06
612.171	9899.54
612.367	9926.16
612.562	10247.69
612.758	10491.4
612.953	10706.44
613.149	11163.14
613.344	11177.47
613.539	11628.03
613.735	11980.28
613.93	12432.88
614.126	12365.29
614.321	13008.36
614.517	13290.98
614.712	13493.72
614.907	13860.31
615.103	14448.08
615.298	14611.92
615.493	15009.22
615.688	14980.55
615.884	16065.97
616.079	15885.75
616.274	16842.15
616.47	16901.54
616.665	17378.72
616.86	17786.27
617.055	18169.24
617.25	18591.12
617.445	19365.25
617.641	19336.58
617.836	20194.68
618.031	20272.5
618.226	21124.46
618.421	21144.94
618.616	22320.47
618.811	22433.11
619.006	23223.62
619.201	23252.3
619.396	24356.15
619.591	24220.99
619.786	25003.31
619.981	25625.89
620.176	26015.01
620.371	26576.15
620.566	27225.36
620.761	27763.97
620.956	28716.28
621.151	28503.29
621.346	29644.01
621.541	29596.9
621.735	30647.51
621.93	30541.02
622.125	31806.66
622.32	32156.86
622.515	32732.34
622.709	33217.71
622.904	33993.89
623.099	34385.05
623.294	35159.19
623.488	35044.5
623.683	36170.88
623.878	36666.49
624.072	37434.48
624.267	38001.77
624.462	38163.56
624.656	38429.79
624.851	39593.04
625.046	40035.4
625.24	40817.72
625.435	40692.8
625.629	41622.58
625.824	41663.53
626.018	42552.35
626.213	42306.6
626.407	43414.55
626.602	43351.06
626.796	44307.46
626.991	44160.01
627.185	44612.61
627.38	44872.7
627.574	45116.41
627.768	44966.91
627.963	45444.09
628.157	45485.04
628.352	45743.09
628.546	45405.17
628.74	46154.73
628.935	45333.49
629.129	45745.14
629.323	44684.29
629.517	44903.42
629.712	44723.2
629.906	44033.03
630.1	43242.52
630.294	43533.33
630.489	42402.85
630.683	42351.65
630.877	40920.12
631.071	40662.08
631.265	40180.81
631.459	39072.85
631.653	38046.82
631.848	37047.41
632.042	36236.42
632.236	35480.72
632.43	34225.31
632.624	33545.39
632.818	32586.94
633.012	31300.81
633.206	30420.19
633.4	29660.39
633.594	28187.9
633.788	27798.79
633.982	26604.82
634.176	25687.33
634.369	24530.23
634.563	23588.16
634.757	22668.62
634.951	21984.6
635.145	20948.33
635.339	20100.47
635.533	19283.33
635.726	18894.22
635.92	17851.8
636.114	17180.07
636.308	16293.3
636.501	16055.73
636.695	15265.22
636.889	14427.6
637.083	13805.02
637.276	13161.95
637.47	12668.39
637.664	12187.12
637.857	11580.92
638.051	11453.95
638.244	10835.46
638.438	10374.67
638.632	10026.51
638.825	9319.96
639.019	9305.63
639.212	8685.09
639.406	8490.54
639.599	8117.81
639.793	7773.75
639.986	7562.81
640.18	7286.33
640.373	6917.7
640.567	6536.77
640.76	6422.09
640.954	6155.85
641.147	5787.22
641.34	5502.55
641.534	5602.9
641.727	5418.58
641.92	5148.25
642.114	4986.46
642.307	4701.79
642.5	4511.33
642.694	4251.24
642.887	4161.13
643.08	4073.07
643.273	3847.79
643.467	3643
643.66	3591.8
643.853	3415.67
644.046	3217.02
644.239	3247.74
644.432	3034.75
644.626	2827.9
644.819	2860.67
645.012	2610.82
645.205	2788.99
645.398	2655.87
645.591	2391.69
645.784	2252.42
645.977	2180.75
646.17	2178.7
646.363	2109.07
646.556	2035.34
646.749	1875.6
646.942	1871.5
647.135	1789.58
647.328	1660.56
647.521	1662.61
647.714	1590.93
647.907	1521.3
648.099	1406.61
648.292	1582.74
648.485	1416.85
648.678	1298.07
648.871	1152.67
649.064	1171.1
649.256	1068.7
649.449	1156.76
649.642	992.92
649.835	974.49
650.027	1083.03
650.22	1037.98
650.413	1042.07
650.605	1109.66
650.798	845.47
650.991	773.79
651.183	831.13
651.376	839.33
651.568	761.5
651.761	769.69
651.954	806.56
652.146	673.44
652.339	702.11
652.531	700.06
652.724	554.66
652.916	497.32
653.109	446.12
653.301	710.3
653.494	614.05
653.686	593.57
653.879	648.86
654.071	628.39
654.263	444.07
654.456	538.27
654.648	640.67
654.84	458.4
655.033	329.38
655.225	513.7
655.417	394.92
655.61	487.08
655.802	534.18
655.994	534.18
656.186	358.05
656.379	421.54
656.571	331.43
656.763	339.62
656.955	308.9
657.148	403.11
657.34	446.12
657.532	429.73
657.724	288.42
657.916	411.3
658.108	401.06
658.3	345.77
658.492	374.44
658.684	214.7
658.876	472.74
659.068	222.89
659.26	190.12
659.452	198.31
659.644	339.62
659.836	417.44
660.028	188.07
660.22	163.5
660.412	333.48
660.604	308.9
660.796	233.13
660.988	327.33
661.18	269.99
661.372	243.37
661.563	190.12
661.755	274.09
661.947	165.54
662.139	226.98
662.331	171.69
662.522	300.71
662.714	87.72
662.906	122.54
663.097	183.98
663.289	128.68
663.481	149.16
663.673	186.02
663.864	147.11
664.056	280.23
664.247	116.39
664.439	284.33
664.631	169.64
664.822	267.94
665.014	212.65
665.205	188.07
665.397	190.12
665.588	183.98
665.78	69.29
665.971	257.7
666.163	151.21
666.354	132.78
666.546	136.87
666.737	71.34
666.929	138.92
667.12	116.39
667.311	243.37
667.503	48.81
667.694	253.61
667.885	181.93
668.077	280.23
668.268	48.81
668.459	155.3
668.651	177.83
668.842	175.78
669.033	77.48
669.224	42.67
669.416	292.52
669.607	136.87
669.798	95.91
669.989	272.04
670.18	145.06
670.371	116.39
670.563	87.72
670.754	235.18
670.945	169.64
671.136	151.21
671.327	32.43
671.518	282.28
671.709	267.94
671.9	196.26
672.091	235.18
672.282	151.21
672.473	130.73
672.664	132.78
672.855	118.44
673.046	192.17
673.237	239.27
673.428	130.73
673.619	124.58
673.809	54.95
674	288.42
674.191	159.4
674.382	138.92
674.573	100.01
674.764	106.15
674.954	220.84
675.145	46.76
675.336	95.91
675.527	69.29
675.717	73.39
675.908	112.3
676.099	130.73
676.289	159.4
676.48	128.68
676.671	126.63
676.861	173.74
677.052	206.5
677.243	194.22
677.433	42.67
677.624	118.44
677.814	95.91
678.005	85.67
678.195	284.33
678.386	122.54
678.576	120.49
678.767	69.29
678.957	87.72
679.148	194.22
679.338	280.23
679.529	284.33
679.719	143.02
679.909	259.75
680.1	224.94
680.29	204.46
680.481	102.06
680.671	186.02
680.861	140.97
681.052	167.59
681.242	75.43
681.432	157.35
681.622	149.16
681.813	104.11
682.003	145.06
682.193	116.39
682.383	159.4
682.573	138.92
682.764	87.72
682.954	138.92
683.144	231.08
683.334	138.92
683.524	145.06
683.714	218.79
683.904	206.5
684.094	173.74
684.284	169.64
684.474	325.29
684.664	272.04
684.854	253.61
685.044	196.26
685.234	161.45
685.424	202.41
685.614	155.3
685.804	329.38
685.994	263.85
686.184	173.74
686.374	130.73
686.564	214.7
686.753	155.3
686.943	102.06
687.133	192.17
687.323	167.59
687.513	173.74
687.702	222.89
687.892	104.11
688.082	243.37
688.272	253.61
688.461	157.35
688.651	327.33
688.841	286.37
689.03	128.68
689.22	132.78
689.41	269.99
689.599	179.88
689.789	171.69
689.979	298.66
690.168	128.68
690.358	261.8
690.547	233.13
690.737	224.94
690.926	179.88
691.116	290.47
691.305	204.46
691.495	216.74
691.684	136.87
691.874	161.45
692.063	206.5
692.252	282.28
692.442	241.32
692.631	124.58
692.82	167.59
693.01	183.98
693.199	75.43
693.388	208.55
693.578	110.25
693.767	239.27
693.956	179.88
694.146	183.98
694.335	237.22
694.524	171.69
694.713	276.13
694.902	85.67
695.092	147.11
695.281	214.7
695.47	161.45
695.659	122.54
695.848	181.93
696.037	102.06
696.226	245.41
696.415	149.16
696.604	292.52
696.793	188.07
696.982	120.49
697.171	317.09
697.36	145.06
697.549	208.55
697.738	91.82
697.927	69.29
698.116	128.68
698.305	161.45
698.494	163.5
698.683	140.97
698.872	356.01
699.061	136.87
699.25	140.97
699.438	112.3
699.627	40.62
699.816	302.76
700.005	67.24
700.193	212.65
700.382	216.74
700.571	169.64
700.76	259.75
700.948	157.35
701.137	130.73
701.326	210.6
701.514	179.88
701.703	175.78
701.892	173.74
702.08	300.71
702.269	138.92
702.457	175.78
702.646	188.07
702.834	177.83
703.023	161.45
703.212	177.83
703.4	186.02
703.589	157.35
703.777	241.32
703.965	134.82
704.154	186.02
704.342	159.4
704.531	163.5
704.719	151.21
704.907	143.02
705.096	89.77
705.284	145.06
705.472	204.46
705.661	167.59
705.849	192.17
706.037	267.94
706.226	198.31
706.414	175.78
706.602	200.36
706.79	198.31
706.979	143.02
707.167	190.12
707.355	108.2
707.543	251.56
707.731	192.17
707.919	147.11
708.107	147.11
708.296	69.29
708.484	59.05
708.672	231.08
708.86	153.26
709.048	138.92
709.236	147.11
709.424	259.75
709.612	196.26
709.8	171.69
709.988	165.54
710.176	284.33
710.364	255.65
710.551	173.74
710.739	165.54
710.927	192.17
711.115	157.35
711.303	265.89
711.491	241.32
711.679	108.2
711.866	243.37
712.054	132.78
712.242	241.32
712.43	251.56
712.617	110.25
712.805	259.75
712.993	194.22
713.181	63.15
713.368	249.51
713.556	110.25
713.744	110.25
713.931	358.05
714.119	165.54
714.306	118.44
714.494	61.1
714.682	206.5
714.869	81.58
715.057	212.65
715.244	85.67
715.432	241.32
715.619	112.3
715.807	233.13
715.994	143.02
716.182	110.25
716.369	245.41
716.556	247.46
716.744	59.05
716.931	85.67
717.119	284.33
717.306	145.06
717.493	175.78
717.681	112.3
717.868	247.46
718.055	278.18
718.242	167.59
718.43	198.31
718.617	245.41
718.804	200.36
718.991	276.13
719.179	243.37
719.366	304.81
719.553	214.7
719.74	296.61
719.927	167.59
720.114	143.02
720.301	159.4
720.488	169.64
720.676	202.41
720.863	282.28
721.05	290.47
721.237	100.01
721.424	243.37
721.611	272.04
721.798	102.06
721.985	50.86
722.172	71.34
722.358	198.31
722.545	304.81
722.732	183.98
722.919	310.95
723.106	257.7
723.293	159.4
723.48	198.31
723.667	112.3
723.853	331.43
724.04	214.7
724.227	196.26
724.414	196.26
724.6	222.89
724.787	310.95
724.974	351.91
725.161	120.49
725.347	104.11
725.534	159.4
725.72	241.32
725.907	263.85
726.094	274.09
726.28	167.59
726.467	161.45
726.653	194.22
726.84	345.77
727.027	382.63
727.213	165.54
727.4	276.13
727.586	222.89
727.773	235.18
727.959	257.7
728.145	177.83
728.332	151.21
728.518	249.51
728.705	173.74
728.891	159.4
729.077	210.6
729.264	108.2
729.45	190.12
729.636	323.24
729.823	214.7
730.009	202.41
730.195	210.6
730.382	222.89
730.568	134.82
730.754	272.04
730.94	177.83
731.126	249.51
731.313	288.42
731.499	188.07
731.685	226.98
731.871	235.18
732.057	179.88
732.243	247.46
732.429	269.99
732.615	317.09
732.801	157.35
732.987	231.08
733.173	204.46
733.359	104.11
733.545	241.32
733.731	179.88
733.917	366.25
734.103	186.02
734.289	235.18
734.475	171.69
734.661	358.05
734.847	169.64
735.033	212.65
735.219	229.03
735.404	298.66
735.59	263.85
735.776	214.7
735.962	237.22
736.148	274.09
736.333	276.13
736.519	247.46
736.705	247.46
736.89	284.33
737.076	226.98
737.262	95.91
737.447	138.92
737.633	183.98
737.819	274.09
738.004	165.54
738.19	257.7
738.375	214.7
738.561	290.47
738.747	169.64
738.932	118.44
739.118	380.58
739.303	286.37
739.489	216.74
739.674	216.74
739.859	183.98
740.045	261.8
740.23	233.13
740.416	126.63
740.601	186.02
740.786	243.37
740.972	134.82
741.157	145.06
741.342	235.18
741.528	100.01
741.713	321.19
741.898	245.41
742.084	206.5
742.269	134.82
742.454	278.18
742.639	308.9
742.824	282.28
743.01	229.03
743.195	313
743.38	171.69
743.565	261.8
743.75	286.37
743.935	317.09
744.12	245.41
744.305	126.63
744.49	214.7
744.675	175.78
744.86	95.91
745.045	292.52
745.23	208.55
745.415	241.32
745.6	241.32
745.785	169.64
745.97	327.33
746.155	261.8
746.34	302.76
746.525	251.56
746.71	159.4
746.895	157.35
747.079	134.82
747.264	169.64
747.449	253.61
747.634	302.76
747.819	257.7
748.003	233.13
748.188	120.49
748.373	140.97
748.557	292.52
748.742	169.64
748.927	136.87
749.111	128.68
749.296	143.02
749.481	259.75
749.665	222.89
749.85	108.2
750.034	167.59
750.219	161.45
750.404	145.06
750.588	229.03
750.773	194.22
750.957	249.51
751.141	153.26
751.326	183.98
751.51	38.57
751.695	165.54
751.879	216.74
752.064	356.01
752.248	116.39
752.432	341.67
752.617	208.55
752.801	276.13
752.985	108.2
753.17	229.03
753.354	200.36
753.538	224.94
753.722	143.02
753.907	179.88
754.091	24.23
754.275	292.52
754.459	79.53
754.643	120.49
754.828	206.5
755.012	190.12
755.196	112.3
755.38	122.54
755.564	116.39
755.748	179.88
755.932	175.78
756.116	147.11
756.3	235.18
756.484	169.64
756.668	145.06
756.852	114.34
757.036	114.34
757.22	134.82
757.404	40.62
757.588	83.63
757.772	106.15
757.956	110.25
758.14	251.56
758.323	130.73
758.507	177.83
758.691	147.11
758.875	200.36
759.059	194.22
759.242	93.87
759.426	116.39
759.61	132.78
759.794	46.76
759.977	143.02
760.161	339.62
760.345	247.46
760.528	181.93
760.712	128.68
760.895	237.22
761.079	149.16
761.263	106.15
761.446	-2.39
761.63	134.82
761.813	149.16
761.997	22.19
762.18	155.3
762.364	155.3
762.547	44.71
762.731	95.91
762.914	130.73
763.098	132.78
763.281	52.91
763.464	67.24
763.648	151.21
763.831	87.72
764.015	73.39
764.198	155.3
764.381	34.47
764.564	93.87
764.748	177.83
764.931	179.88
765.114	59.05
765.297	151.21
765.481	38.57
765.664	63.15
765.847	67.24
766.03	143.02
766.213	143.02
766.397	114.34
766.58	-35.16
766.763	106.15
766.946	42.67
767.129	104.11
767.312	26.28
767.495	134.82
767.678	100.01
767.861	110.25
768.044	126.63
768.227	42.67
768.41	79.53
768.593	93.87
768.776	132.78
768.959	38.57
769.142	147.11
769.324	79.53
769.507	159.4
769.69	81.58
769.873	165.54
770.056	323.24
770.239	167.59
770.421	163.5
770.604	167.59
770.787	89.77
770.97	75.43
771.152	-31.06
771.335	132.78
771.518	-37.2
771.7	77.48
771.883	229.03
772.066	-35.16
772.248	116.39
772.431	136.87
772.613	102.06
772.796	100.01
772.978	100.01
773.161	220.84
773.343	116.39
773.526	71.34
773.708	-10.58
773.891	59.05
774.073	63.15
774.256	69.29
774.438	173.74
774.621	38.57
774.803	114.34
774.985	-63.83
775.168	130.73
775.35	18.09
775.532	69.29
775.715	87.72
775.897	108.2
776.079	87.72
776.261	85.67
776.444	61.1
776.626	11.95
776.808	26.28
776.99	-14.68
777.173	42.67
777.355	-29.01
777.537	61.1
777.719	93.87
777.901	97.96
778.083	79.53
778.265	97.96
778.447	130.73
778.629	-26.96
778.811	32.43
778.993	5.8
779.175	136.87
779.357	46.76
779.539	44.71
779.721	147.11
779.903	140.97
780.085	67.24
780.267	87.72
780.449	54.95
780.631	177.83
780.812	220.84
780.994	20.14
781.176	91.82
781.358	85.67
781.54	38.57
781.721	102.06
781.903	153.26
782.085	136.87
782.267	169.64
782.448	-16.73
782.63	57
782.812	22.19
782.993	140.97
783.175	69.29
783.357	32.43
783.538	188.07
783.72	-67.92
783.901	100.01
784.083	54.95
784.264	91.82
784.446	-10.58
784.627	18.09
784.809	46.76
784.99	57
785.172	75.43
785.353	46.76
785.535	83.63
785.716	42.67
785.897	-53.59
786.079	18.09
786.26	57
786.441	61.1
786.623	-78.16
786.804	-2.39
786.985	-12.63
787.167	83.63
787.348	16.04
787.529	93.87
787.71	153.26
787.891	132.78
788.073	22.19
788.254	-96.6
788.435	212.65
788.616	32.43
788.797	-22.87
788.978	5.8
789.159	3.75
789.34	143.02
789.522	130.73
789.703	-51.54
789.884	69.29
790.065	-2.39
790.246	102.06
790.427	46.76
790.607	169.64
790.788	151.21
790.969	-35.16
791.15	20.14
791.331	-0.34
791.512	61.1
791.693	16.04
791.874	83.63
792.054	212.65
792.235	122.54
792.416	34.47
792.597	-29.01
792.778	112.3
792.958	108.2
793.139	34.47
793.32	16.04
793.5	-41.3
793.681	149.16
793.862	122.54
794.042	65.19
794.223	-88.4
794.404	-18.77
794.584	-0.34
794.765	36.52
794.945	-31.06
795.126	-6.49
795.306	22.19
795.487	1.71
795.667	-0.34
795.848	126.63
796.028	-0.34
796.209	79.53
796.389	91.82
796.57	108.2
796.75	-51.54
796.93	-33.11
797.111	1.71
797.291	3.75
797.471	81.58
797.652	38.57
797.832	7.85
798.012	24.23
798.192	3.75
798.373	-22.87
798.553	38.57
798.733	67.24
798.913	-82.26
799.093	36.52
799.274	73.39
799.454	149.16
799.634	16.04
799.814	83.63
799.994	36.52
800.174	143.02
800.354	42.67
800.534	11.95
800.714	32.43
800.894	-61.78
801.074	-49.49
801.254	30.38
801.434	153.26
801.614	-4.44
801.794	13.99
801.974	1937.04
802.154	-8.53
802.334	108.2
802.514	-2.39
802.693	-24.92
802.873	5.8
803.053	124.58
803.233	24.23
803.413	-0.34
803.592	-86.36
803.772	-26.96
803.952	9.9
804.131	20.14
804.311	118.44
804.491	104.11
804.67	-24.92
804.85	-35.16
805.03	59.05
805.209	71.34
805.389	91.82
805.568	-74.07
805.748	44.71
805.928	18.09
806.107	81.58
806.287	1.71
806.466	61.1
806.646	42.67
806.825	75.43
807.004	54.95
807.184	9.9
807.363	106.15
807.543	75.43
807.722	11.95
807.901	63.15
808.081	54.95
808.26	-69.97
808.439	32.43
808.619	34.47
808.798	-2.39
808.977	52.91
809.156	151.21
809.336	32.43
809.515	26.28
809.694	-2.39
809.873	-12.63
810.052	81.58
810.231	104.11
810.411	57
810.59	134.82
810.769	-53.59
810.948	-6.49
811.127	-86.36
811.306	-72.02
811.485	20.14
811.664	130.73
811.843	1.71
812.022	-16.73
812.201	-6.49
812.38	91.82
812.559	-0.34
812.737	67.24
812.916	-106.84
813.095	3.75
813.274	75.43
813.453	40.62
813.632	32.43
813.811	110.25
813.989	-96.6
814.168	42.67
814.347	-39.25
814.526	93.87
814.704	102.06
814.883	91.82
815.062	-12.63
815.24	91.82
815.419	-47.44
815.598	83.63
815.776	-78.16
815.955	57
816.133	-74.07
816.312	7.85
816.49	-29.01
816.669	104.11
816.847	38.57
817.026	28.33
817.204	-10.58
817.383	-59.73
817.561	-47.44
817.74	-0.34
817.918	18.09
818.097	-16.73
818.275	81.58
818.453	77.48
818.632	-24.92
818.81	77.48
818.988	-4.44
819.167	34.47
819.345	-51.54
819.523	-31.06
819.701	38.57
819.879	54.95
820.058	22.19
820.236	-6.49
820.414	9.9
820.592	7.85
820.77	-2.39
820.948	-61.78
821.127	-119.12
821.305	-20.82
821.483	-121.17
821.661	16.04
821.839	106.15
822.017	-104.79
822.195	44.71
822.373	44.71
822.551	11.95
822.729	108.2
822.907	-35.16
823.085	59.05
823.262	36.52
823.44	-8.53
823.618	-24.92
823.796	69.29
823.974	48.81
824.152	22.19
824.329	30.38
824.507	87.72
824.685	40.62
824.863	38.57
825.04	-10.58
825.218	69.29
825.396	26.28
825.574	52.91
825.751	46.76
825.929	138.92
826.107	-67.92
826.284	3.75
826.462	63.15
826.639	-67.92
826.817	-43.35
826.994	-2.39
827.172	-72.02
827.349	177.83
827.527	13.99
827.704	22.19
827.882	63.15
828.059	13.99
828.237	61.1
828.414	112.3
828.591	-24.92
828.769	26.28
828.946	-41.3
829.124	102.06
829.301	77.48
829.478	-6.49
829.655	48.81
829.833	85.67
830.01	-104.79
830.187	-2.39
830.364	28.33
830.542	44.71
830.719	132.78
830.896	97.96
831.073	22.19
831.25	42.67
831.427	30.38
831.604	81.58
831.782	-49.49
831.959	83.63
832.136	42.67
832.313	28.33
832.49	-14.68
832.667	44.71
832.844	-12.63
833.021	202.41
833.198	1.71
833.374	-20.82
833.551	9.9
833.728	3.75
833.905	63.15
834.082	-47.44
834.259	67.24
834.436	67.24
834.612	-24.92
834.789	120.49
834.966	16.04
835.143	3.75
835.319	-72.02
835.496	69.29
835.673	165.54
835.85	132.78
836.026	40.62
836.203	5.8
836.38	-22.87
836.556	36.52
836.733	-0.34
836.909	57
837.086	26.28
837.262	-123.22
837.439	38.57
837.616	-4.44
837.792	11.95
837.968	54.95
838.145	-98.64
838.321	26.28
838.498	165.54
838.674	67.24
838.851	38.57
839.027	7.85
839.203	52.91
839.38	28.33
839.556	-8.53
839.732	83.63
839.909	-4.44
840.085	24.23
840.261	-4.44
840.437	26.28
840.614	-4.44
840.79	83.63
840.966	140.97
841.142	-12.63
841.318	-84.31
841.494	34.47
841.671	69.29
841.847	-29.01
842.023	-37.2
842.199	65.19
842.375	89.77
842.551	-84.31
842.727	-47.44
842.903	128.68
843.079	-57.68
843.255	40.62
843.431	-2.39
843.607	30.38
843.783	-100.69
843.959	-31.06
844.134	-14.68
844.31	93.87
844.486	-10.58
844.662	-59.73
844.838	42.67
845.013	22.19
845.189	54.95
845.365	-37.2
845.541	5.8
845.716	95.91
845.892	63.15
846.068	-53.59
846.244	-127.32
846.419	-0.34
846.595	-26.96
846.77	-76.12
846.946	120.49
847.122	-33.11
847.297	-41.3
847.473	100.01
847.648	-110.93
847.824	3.75
847.999	-98.64
848.175	-57.68
848.35	67.24
848.526	59.05
848.701	38.57
848.876	18.09
849.052	36.52
849.227	13.99
849.403	36.52
849.578	44.71
849.753	26.28
849.929	54.95
850.104	-63.83
850.279	11.95
850.454	9.9
850.63	52.91
850.805	44.71
850.98	46.76
851.155	-14.68
851.33	-4.44
851.505	-76.12
851.681	128.68
851.856	-31.06
852.031	81.58
852.206	-10.58
852.381	-24.92
852.556	-67.92
852.731	50.86
852.906	130.73
853.081	63.15
853.256	46.76
853.431	22.19
853.606	-74.07
853.781	-76.12
853.956	-78.16
854.131	85.67
854.305	-12.63
854.48	-57.68
854.655	-82.26
854.83	-29.01
855.005	-63.83
855.18	50.86
855.354	30.38
855.529	-29.01
855.704	7.85
855.879	67.24
856.053	-53.59
856.228	108.2
856.403	28.33
856.577	134.82
856.752	-67.92
856.926	50.86
857.101	-2.39
857.276	-84.31
857.45	120.49
857.625	59.05
857.799	1.71
857.974	26.28
858.148	-100.69
858.323	50.86
858.497	-47.44
858.672	-72.02
858.846	-39.25
859.02	20.14
859.195	-49.49
859.369	-63.83
859.543	-37.2
859.718	54.95
859.892	59.05
860.066	5.8
860.241	18.09
860.415	-33.11
860.589	20.14
860.763	-4.44
860.938	42.67
861.112	73.39
861.286	-55.64
861.46	-6.49
861.634	-10.58
861.808	44.71
861.982	-78.16
862.157	-72.02
862.331	-84.31
862.505	-72.02
862.679	-31.06
862.853	9.9
863.027	32.43
863.201	157.35
863.375	-47.44
863.549	3.75
863.722	40.62
863.896	104.11
864.07	-0.34
864.244	5.8
864.418	63.15
864.592	52.91
864.766	-80.21
864.939	-12.63
865.113	-0.34
865.287	104.11
865.461	-43.35
865.634	118.44
865.808	-55.64
865.982	3.75
866.156	-96.6
866.329	-59.73
866.503	-86.36
866.676	54.95
866.85	13.99
867.024	-47.44
867.197	97.96
867.371	89.77
867.544	11.95
867.718	-84.31
867.891	218.79
868.065	-96.6
868.238	-61.78
868.412	124.58
868.585	81.58
868.759	-78.16
868.932	-31.06
869.105	-119.12
869.279	3.75
869.452	-59.73
869.625	52.91
869.799	-67.92
869.972	-14.68
870.145	34.47
870.319	46.76
870.492	-2.39
870.665	-55.64
870.838	5.8
871.011	-170.32
871.185	-47.44
871.358	-4.44
871.531	69.29
871.704	34.47
871.877	-12.63
872.05	-65.88
872.223	-61.78
872.396	24.23
872.569	73.39
872.742	-61.78
872.915	48.81
873.088	-104.79
873.261	-96.6
873.434	54.95
873.607	-74.07
873.78	167.59
873.953	-4.44
874.126	81.58
874.299	63.15
874.471	9.9
874.644	-20.82
874.817	7.85
874.99	153.26
875.163	-10.58
875.335	-18.77
875.508	-22.87
875.681	32.43
875.853	-67.92
876.026	24.23
876.199	42.67
876.371	44.71
876.544	-53.59
876.717	59.05
876.889	-33.11
877.062	1.71
877.234	-74.07
877.407	18.09
877.579	11.95
877.752	11.95
877.924	61.1
878.097	13.99
878.269	-51.54
878.442	16.04
878.614	63.15
878.786	5.8
878.959	81.58
879.131	-4.44
879.303	-82.26
879.476	50.86
879.648	46.76
879.82	-12.63
879.993	-35.16
880.165	-8.53
880.337	-86.36
880.509	28.33
880.681	-119.12
880.854	-39.25
881.026	52.91
881.198	161.45
881.37	63.15
881.542	20.14
881.714	-33.11
881.886	-12.63
882.058	77.48
882.23	28.33
882.402	13.99
882.574	-8.53
882.746	91.82
882.918	149.16
883.09	5.8
883.262	-8.53
883.434	28.33
883.606	-65.88
883.778	42.67
883.95	136.87
884.122	-39.25
884.293	110.25
884.465	24.23
884.637	124.58
884.809	-31.06
884.98	36.52
885.152	77.48
885.324	40.62
885.496	-6.49
885.667	-41.3
885.839	-0.34
886.011	151.21
886.182	79.53
886.354	79.53
886.525	-24.92
886.697	24.23
886.869	-41.3
887.04	34.47
887.212	69.29
887.383	212.65
887.555	24.23
887.726	13.99
887.897	16.04
888.069	-8.53
888.24	124.58
888.412	36.52
888.583	-10.58
888.754	30.38
888.926	-14.68
889.097	-35.16
889.268	-88.4
889.44	46.76
889.611	-0.34
889.782	-121.17
889.953	-35.16
890.125	69.29
890.296	-96.6
890.467	-53.59
890.638	-47.44
890.809	-37.2
890.98	-24.92
891.151	1.71
891.323	112.3
891.494	7.85
891.665	52.91
891.836	-59.73
892.007	5.8
892.178	118.44
892.349	7.85
892.52	-26.96
892.691	28.33
892.862	9.9
893.032	-26.96
893.203	-4.44
893.374	-33.11
893.545	28.33
893.716	-33.11
893.887	9.9
894.057	-4.44
894.228	-35.16
894.399	-47.44
894.57	63.15
894.74	-2.39
894.911	52.91
895.082	-59.73
895.253	18.09
895.423	1.71
895.594	79.53
895.764	46.76
895.935	-98.64
896.106	24.23
896.276	-51.54
896.447	5.8
896.617	-84.31
896.788	-26.96
896.958	-45.4
897.129	61.1
897.299	-84.31
897.47	134.82
897.64	52.91
897.81	9.9
897.981	46.76
898.151	-14.68
898.322	26.28
898.492	18.09
898.662	-59.73
898.832	11.95
899.003	-96.6
899.173	18.09
899.343	-98.64
899.513	-51.54
