Data from USB4F104151__40__10-42-50-580.txt Node

Date: Wed Feb 26 10:42:50 EST 2025
User: louis
Spectrometer: USB4F10415
Trigger mode: 4
Integration Time (sec): 1.000000E-1
Scans to average: 1
Electric dark correction enabled: true
Nonlinearity correction enabled: false
Boxcar width: 0
XAxis mode: Wavelengths
Number of Pixels in Spectrum: 3648
>>>>>Begin Spectral Data<<<<<
178.204	-427.34
178.424	-427.34
178.644	-427.34
178.864	-427.34
179.084	-382.29
179.304	4.78
179.524	23.21
179.744	-11.61
179.964	23.21
180.184	47.79
180.404	10.92
180.624	-103.76
180.844	39.59
181.064	-68.95
181.283	33.45
181.503	-30.04
181.723	31.4
181.943	-83.28
182.163	139.94
182.383	27.31
182.602	19.11
182.822	187.05
183.042	58.03
183.262	-40.28
183.482	-3.41
183.701	37.55
183.921	2.73
184.141	-40.28
184.361	74.41
184.58	64.17
184.8	41.64
185.02	-23.89
185.239	4.78
185.459	86.7
185.679	125.61
185.898	-17.75
186.118	43.69
186.338	49.83
186.557	96.94
186.777	-1.37
186.997	62.12
187.216	60.07
187.436	135.85
187.655	90.79
187.875	82.6
188.095	21.16
188.314	113.32
188.534	146.09
188.753	-105.81
188.973	178.86
189.192	160.42
189.412	19.11
189.631	17.07
189.851	21.16
190.07	131.75
190.29	-81.24
190.509	55.98
190.729	-13.65
190.948	119.46
191.168	209.58
191.387	-15.7
191.607	-17.75
191.826	33.45
192.045	6.83
192.265	-19.8
192.484	10.92
192.704	-9.56
192.923	-89.43
193.142	98.99
193.362	84.65
193.581	98.99
193.8	74.41
194.02	47.79
194.239	80.55
194.458	-44.37
194.678	23.21
194.897	2.73
195.116	74.41
195.335	-5.46
195.555	92.84
195.774	47.79
195.993	51.88
196.212	-60.76
196.432	-11.61
196.651	76.46
196.87	10.92
197.089	268.97
197.308	12.97
197.528	39.59
197.747	10.92
197.966	-15.7
198.185	72.36
198.404	-44.37
198.623	115.37
198.842	154.28
199.062	82.6
199.281	51.88
199.5	-21.85
199.719	27.31
199.938	68.27
200.157	58.03
200.376	131.75
200.595	148.14
200.814	41.64
201.033	-25.94
201.252	211.62
201.471	53.93
201.69	94.89
201.909	-21.85
202.128	88.75
202.347	27.31
202.566	4.78
202.785	-60.76
203.004	10.92
203.223	260.77
203.442	84.65
203.661	-50.52
203.879	90.79
204.098	113.32
204.317	-46.42
204.536	103.08
204.755	86.7
204.974	72.36
205.193	53.93
205.411	144.04
205.63	107.18
205.849	-9.56
206.068	41.64
206.287	-3.41
206.505	60.07
206.724	-15.7
206.943	27.31
207.162	60.07
207.381	76.46
207.599	29.35
207.818	105.13
208.037	-101.72
208.255	29.35
208.474	-1.37
208.693	45.74
208.911	39.59
209.13	41.64
209.349	70.31
209.567	76.46
209.786	4.78
210.005	78.51
210.223	31.4
210.442	-87.38
210.661	86.7
210.879	19.11
211.098	-5.46
211.316	29.35
211.535	0.68
211.753	-1.37
211.972	35.5
212.191	-79.19
212.409	-7.51
212.628	90.79
212.846	2.73
213.065	66.22
213.283	41.64
213.502	60.07
213.72	19.11
213.938	60.07
214.157	-27.99
214.375	53.93
214.594	-52.56
214.812	96.94
215.031	-66.9
215.249	41.64
215.467	66.22
215.686	19.11
215.904	60.07
216.122	90.79
216.341	213.67
216.559	4.78
216.778	8.87
216.996	115.37
217.214	-27.99
217.432	12.97
217.651	-36.18
217.869	-9.56
218.087	4.78
218.306	-23.89
218.524	113.32
218.742	-1.37
218.96	82.6
219.179	15.02
219.397	-9.56
219.615	158.38
219.833	86.7
220.051	-52.56
220.27	90.79
220.488	92.84
220.706	-36.18
220.924	47.79
221.142	23.21
221.36	137.9
221.578	51.88
221.796	23.21
222.015	39.59
222.233	-1.37
222.451	133.8
222.669	-73.04
222.887	70.31
223.105	39.59
223.323	2.73
223.541	-5.46
223.759	21.16
223.977	-7.51
224.195	185
224.413	101.03
224.631	45.74
224.849	68.27
225.067	242.34
225.285	-42.32
225.503	-1.37
225.721	-161.11
225.939	47.79
226.157	10.92
226.375	213.67
226.592	-107.86
226.81	27.31
227.028	127.66
227.246	162.47
227.464	62.12
227.682	70.31
227.9	105.13
228.117	23.21
228.335	15.02
228.553	17.07
228.771	70.31
228.989	-34.13
229.206	68.27
229.424	58.03
229.642	8.87
229.86	-46.42
230.077	107.18
230.295	72.36
230.513	105.13
230.731	90.79
230.948	193.19
231.166	195.24
231.384	25.26
231.601	-44.37
231.819	178.86
232.037	35.5
232.254	-25.94
232.472	27.31
232.689	78.51
232.907	33.45
233.125	-7.51
233.342	19.11
233.56	60.07
233.777	-9.56
233.995	47.79
234.213	101.03
234.43	37.55
234.648	43.69
234.865	35.5
235.083	15.02
235.3	51.88
235.518	41.64
235.735	158.38
235.953	17.07
236.17	2.73
236.388	-21.85
236.605	4.78
236.822	78.51
237.04	103.08
237.257	86.7
237.475	-60.76
237.692	41.64
237.909	29.35
238.127	10.92
238.344	43.69
238.562	74.41
238.779	19.11
238.996	-83.28
239.214	51.88
239.431	62.12
239.648	-17.75
239.865	117.42
240.083	-3.41
240.3	-21.85
240.517	-3.41
240.735	-19.8
240.952	80.55
241.169	144.04
241.386	68.27
241.603	37.55
241.821	-7.51
242.038	60.07
242.255	76.46
242.472	58.03
242.689	94.89
242.907	41.64
243.124	-17.75
243.341	-3.41
243.558	27.31
243.775	-9.56
243.992	-85.33
244.209	70.31
244.426	252.58
244.643	76.46
244.86	-79.19
245.078	129.7
245.295	113.32
245.512	29.35
245.729	-13.65
245.946	39.59
246.163	49.83
246.38	-42.32
246.597	60.07
246.814	23.21
247.031	103.08
247.248	23.21
247.464	115.37
247.681	58.03
247.898	70.31
248.115	47.79
248.332	-56.66
248.549	170.66
248.766	250.53
248.983	53.93
249.2	82.6
249.417	47.79
249.633	-7.51
249.85	37.55
250.067	35.5
250.284	64.17
250.501	33.45
250.717	41.64
250.934	-3.41
251.151	31.4
251.368	21.16
251.585	6.83
251.801	80.55
252.018	-17.75
252.235	111.27
252.451	-62.8
252.668	27.31
252.885	115.37
253.102	19.11
253.318	53.93
253.535	-54.61
253.752	60.07
253.968	4.78
254.185	-50.52
254.401	58.03
254.618	70.31
254.835	6.83
255.051	146.09
255.268	115.37
255.484	101.03
255.701	19.11
255.917	58.03
256.134	-36.18
256.351	55.98
256.567	17.07
256.784	78.51
257	-120.15
257.217	31.4
257.433	92.84
257.65	-15.7
257.866	74.41
258.082	27.31
258.299	17.07
258.515	31.4
258.732	41.64
258.948	-21.85
259.165	101.03
259.381	10.92
259.597	68.27
259.814	17.07
260.03	-1.37
260.246	-17.75
260.463	137.9
260.679	141.99
260.895	23.21
261.112	53.93
261.328	76.46
261.544	-64.85
261.761	129.7
261.977	-40.28
262.193	-54.61
262.409	164.52
262.626	62.12
262.842	51.88
263.058	-5.46
263.274	191.14
263.49	53.93
263.707	86.7
263.923	78.51
264.139	-105.81
264.355	105.13
264.571	74.41
264.787	43.69
265.004	109.23
265.22	27.31
265.436	-15.7
265.652	39.59
265.868	27.31
266.084	-19.8
266.3	45.74
266.516	-38.23
266.732	92.84
266.948	6.83
267.164	21.16
267.38	94.89
267.596	33.45
267.812	144.04
268.028	4.78
268.244	19.11
268.46	84.65
268.676	-44.37
268.892	60.07
269.108	27.31
269.324	-23.89
269.54	41.64
269.756	115.37
269.972	-11.61
270.188	47.79
270.403	31.4
270.619	-44.37
270.835	49.83
271.051	39.59
271.267	-30.04
271.483	-25.94
271.698	131.75
271.914	51.88
272.13	72.36
272.346	19.11
272.562	37.55
272.777	178.86
272.993	12.97
273.209	-75.09
273.425	101.03
273.64	-66.9
273.856	115.37
274.072	-19.8
274.287	-5.46
274.503	4.78
274.719	82.6
274.934	23.21
275.15	-19.8
275.366	4.78
275.581	-40.28
275.797	-5.46
276.012	90.79
276.228	43.69
276.444	45.74
276.659	123.56
276.875	-30.04
277.09	27.31
277.306	-25.94
277.521	-23.89
277.737	-7.51
277.952	51.88
278.168	66.22
278.383	78.51
278.599	2.73
278.814	88.75
279.03	33.45
279.245	55.98
279.461	60.07
279.676	74.41
279.892	25.26
280.107	-32.08
280.322	-9.56
280.538	90.79
280.753	-3.41
280.969	60.07
281.184	29.35
281.399	123.56
281.615	58.03
281.83	45.74
282.045	17.07
282.26	-83.28
282.476	98.99
282.691	41.64
282.906	60.07
283.122	-7.51
283.337	-3.41
283.552	43.69
283.767	55.98
283.983	60.07
284.198	68.27
284.413	25.26
284.628	-79.19
284.843	-15.7
285.058	92.84
285.274	-19.8
285.489	-36.18
285.704	82.6
285.919	-71
286.134	-11.61
286.349	15.02
286.564	-38.23
286.779	60.07
286.995	2.73
287.21	-128.34
287.425	131.75
287.64	25.26
287.855	41.64
288.07	-122.2
288.285	156.33
288.5	156.33
288.715	66.22
288.93	43.69
289.145	-87.38
289.36	39.59
289.575	29.35
289.79	131.75
290.004	-5.46
290.219	158.38
290.434	-5.46
290.649	-19.8
290.864	78.51
291.079	-50.52
291.294	111.27
291.509	-38.23
291.724	-75.09
291.938	39.59
292.153	76.46
292.368	72.36
292.583	-1.37
292.798	121.51
293.012	64.17
293.227	19.11
293.442	39.59
293.657	72.36
293.871	127.66
294.086	80.55
294.301	47.79
294.516	152.23
294.73	74.41
294.945	-62.8
295.16	12.97
295.374	82.6
295.589	129.7
295.804	-54.61
296.018	31.4
296.233	64.17
296.447	92.84
296.662	4.78
296.877	70.31
297.091	37.55
297.306	-21.85
297.52	-103.76
297.735	80.55
297.949	37.55
298.164	49.83
298.378	31.4
298.593	37.55
298.807	29.35
299.022	55.98
299.236	105.13
299.451	-30.04
299.665	23.21
299.88	29.35
300.094	53.93
300.309	-38.23
300.523	53.93
300.737	-46.42
300.952	101.03
301.166	72.36
301.381	86.7
301.595	21.16
301.809	47.79
302.024	-17.75
302.238	-21.85
302.452	115.37
302.667	-23.89
302.881	62.12
303.095	201.38
303.309	86.7
303.524	-3.41
303.738	-27.99
303.952	-21.85
304.166	47.79
304.381	-66.9
304.595	160.42
304.809	-25.94
305.023	-42.32
305.237	17.07
305.452	-27.99
305.666	98.99
305.88	131.75
306.094	121.51
306.308	219.82
306.522	111.27
306.736	123.56
306.95	31.4
307.164	-9.56
307.379	17.07
307.593	68.27
307.807	103.08
308.021	131.75
308.235	103.08
308.449	-105.81
308.663	-13.65
308.877	172.71
309.091	-27.99
309.305	84.65
309.519	-50.52
309.733	111.27
309.947	-25.94
310.161	62.12
310.374	84.65
310.588	49.83
310.802	-27.99
311.016	-32.08
311.23	66.22
311.444	-54.61
311.658	119.46
311.872	76.46
312.085	70.31
312.299	154.28
312.513	113.32
312.727	4.78
312.941	-46.42
313.154	60.07
313.368	139.94
313.582	74.41
313.796	80.55
314.009	35.5
314.223	123.56
314.437	49.83
314.651	45.74
314.864	-50.52
315.078	-1.37
315.292	-36.18
315.505	-27.99
315.719	72.36
315.933	35.5
316.146	-3.41
316.36	-36.18
316.573	117.42
316.787	92.84
317.001	27.31
317.214	-5.46
317.428	33.45
317.641	19.11
317.855	-3.41
318.068	39.59
318.282	43.69
318.495	219.82
318.709	94.89
318.922	4.78
319.136	141.99
319.349	103.08
319.563	-30.04
319.776	23.21
319.99	-48.47
320.203	78.51
320.417	-23.89
320.63	90.79
320.843	121.51
321.057	60.07
321.27	66.22
321.483	47.79
321.697	125.61
321.91	76.46
322.124	152.23
322.337	35.5
322.55	-17.75
322.763	72.36
322.977	66.22
323.19	-103.76
323.403	43.69
323.617	17.07
323.83	96.94
324.043	-17.75
324.256	-5.46
324.469	-19.8
324.683	68.27
324.896	-13.65
325.109	21.16
325.322	-54.61
325.535	43.69
325.748	123.56
325.962	-21.85
326.175	15.02
326.388	-11.61
326.601	92.84
326.814	-19.8
327.027	-21.85
327.24	137.9
327.453	-46.42
327.666	82.6
327.879	152.23
328.092	121.51
328.305	137.9
328.518	17.07
328.731	-13.65
328.944	53.93
329.157	98.99
329.37	55.98
329.583	178.86
329.796	135.85
330.009	4.78
330.222	70.31
330.435	25.26
330.648	86.7
330.861	33.45
331.073	53.93
331.286	88.75
331.499	78.51
331.712	-38.23
331.925	0.68
332.138	25.26
332.35	90.79
332.563	-40.28
332.776	117.42
332.989	47.79
333.202	-27.99
333.414	31.4
333.627	58.03
333.84	-58.71
334.053	10.92
334.265	64.17
334.478	-25.94
334.691	76.46
334.903	43.69
335.116	-9.56
335.329	53.93
335.541	68.27
335.754	82.6
335.966	-44.37
336.179	90.79
336.392	35.5
336.604	8.87
336.817	74.41
337.029	23.21
337.242	-42.32
337.454	101.03
337.667	55.98
337.88	111.27
338.092	70.31
338.305	47.79
338.517	-19.8
338.729	158.38
338.942	103.08
339.154	-95.57
339.367	-91.48
339.579	86.7
339.792	2.73
340.004	62.12
340.217	47.79
340.429	27.31
340.641	-23.89
340.854	-23.89
341.066	23.21
341.278	94.89
341.491	166.57
341.703	78.51
341.915	15.02
342.128	82.6
342.34	150.18
342.552	-44.37
342.764	0.68
342.977	4.78
343.189	45.74
343.401	96.94
343.613	-85.33
343.826	0.68
344.038	-1.37
344.25	47.79
344.462	-75.09
344.674	49.83
344.886	23.21
345.099	-52.56
345.311	133.8
345.523	-36.18
345.735	-87.38
345.947	23.21
346.159	43.69
346.371	80.55
346.583	-50.52
346.795	197.29
347.007	68.27
347.219	131.75
347.431	-68.95
347.643	64.17
347.855	-9.56
348.067	170.66
348.279	-17.75
348.491	10.92
348.703	23.21
348.915	76.46
349.127	-25.94
349.339	-9.56
349.551	17.07
349.763	-3.41
349.975	35.5
350.187	58.03
350.399	62.12
350.61	25.26
350.822	27.31
351.034	17.07
351.246	135.85
351.458	60.07
351.669	107.18
351.881	60.07
352.093	135.85
352.305	72.36
352.517	39.59
352.728	101.03
352.94	141.99
353.152	105.13
353.363	-7.51
353.575	53.93
353.787	96.94
353.999	82.6
354.21	221.86
354.422	-54.61
354.633	82.6
354.845	21.16
355.057	27.31
355.268	43.69
355.48	49.83
355.692	-64.85
355.903	-25.94
356.115	2.73
356.326	-157.01
356.538	127.66
356.749	39.59
356.961	158.38
357.172	23.21
357.384	8.87
357.595	205.48
357.807	-50.52
358.018	-11.61
358.23	31.4
358.441	166.57
358.653	98.99
358.864	-48.47
359.075	21.16
359.287	78.51
359.498	72.36
359.709	107.18
359.921	49.83
360.132	64.17
360.344	62.12
360.555	39.59
360.766	72.36
360.977	-1.37
361.189	158.38
361.4	-1.37
361.611	96.94
361.823	29.35
362.034	27.31
362.245	-5.46
362.456	37.55
362.667	6.83
362.879	4.78
363.09	35.5
363.301	146.09
363.512	109.23
363.723	-30.04
363.935	51.88
364.146	115.37
364.357	70.31
364.568	6.83
364.779	-48.47
364.99	141.99
365.201	64.17
365.412	197.29
365.623	-64.85
365.834	72.36
366.045	39.59
366.256	64.17
366.467	70.31
366.678	76.46
366.889	-19.8
367.1	-11.61
367.311	72.36
367.522	-56.66
367.733	70.31
367.944	90.79
368.155	23.21
368.366	35.5
368.577	64.17
368.788	64.17
368.999	82.6
369.209	60.07
369.42	234.15
369.631	246.44
369.842	15.02
370.053	-7.51
370.264	49.83
370.474	-32.08
370.685	72.36
370.896	64.17
371.107	113.32
371.317	78.51
371.528	60.07
371.739	109.23
371.95	84.65
372.16	133.8
372.371	35.5
372.582	-9.56
372.792	133.8
373.003	70.31
373.214	98.99
373.424	156.33
373.635	-19.8
373.846	146.09
374.056	-21.85
374.267	150.18
374.477	109.23
374.688	47.79
374.898	19.11
375.109	-11.61
375.319	6.83
375.53	96.94
375.74	2.73
375.951	51.88
376.161	19.11
376.372	72.36
376.582	-13.65
376.793	111.27
377.003	-7.51
377.214	-66.9
377.424	107.18
377.635	17.07
377.845	21.16
378.055	144.04
378.266	15.02
378.476	-1.37
378.686	-21.85
378.897	35.5
379.107	78.51
379.317	98.99
379.528	78.51
379.738	37.55
379.948	-64.85
380.158	86.7
380.369	94.89
380.579	141.99
380.789	72.36
380.999	84.65
381.21	127.66
381.42	191.14
381.63	39.59
381.84	101.03
382.05	35.5
382.261	84.65
382.471	98.99
382.681	-62.8
382.891	115.37
383.101	72.36
383.311	-79.19
383.521	-38.23
383.731	129.7
383.941	139.94
384.151	60.07
384.361	45.74
384.571	41.64
384.781	60.07
384.991	193.19
385.201	236.2
385.411	72.36
385.621	19.11
385.831	-7.51
386.041	15.02
386.251	29.35
386.461	96.94
386.671	58.03
386.881	92.84
387.091	31.4
387.301	162.47
387.511	15.02
387.72	76.46
387.93	117.42
388.14	-15.7
388.35	29.35
388.56	129.7
388.769	49.83
388.979	62.12
389.189	-38.23
389.399	53.93
389.609	101.03
389.818	74.41
390.028	23.21
390.238	94.89
390.447	-46.42
390.657	94.89
390.867	-17.75
391.076	-7.51
391.286	17.07
391.496	-48.47
391.705	-11.61
391.915	152.23
392.125	86.7
392.334	51.88
392.544	117.42
392.753	37.55
392.963	-36.18
393.172	58.03
393.382	-11.61
393.591	152.23
393.801	-11.61
394.01	98.99
394.22	62.12
394.429	-11.61
394.639	-1.37
394.848	90.79
395.058	51.88
395.267	43.69
395.477	111.27
395.686	55.98
395.895	185
396.105	246.44
396.314	103.08
396.524	-52.56
396.733	17.07
396.942	45.74
397.152	35.5
397.361	15.02
397.57	17.07
397.78	51.88
397.989	45.74
398.198	164.52
398.407	-7.51
398.617	64.17
398.826	88.75
399.035	43.69
399.244	-36.18
399.453	53.93
399.663	17.07
399.872	66.22
400.081	-32.08
400.29	144.04
400.499	37.55
400.708	101.03
400.917	25.26
401.127	51.88
401.336	17.07
401.545	195.24
401.754	146.09
401.963	84.65
402.172	29.35
402.381	-25.94
402.59	84.65
402.799	8.87
403.008	72.36
403.217	45.74
403.426	90.79
403.635	-48.47
403.844	76.46
404.053	82.6
404.262	-21.85
404.471	131.75
404.68	150.18
404.888	55.98
405.097	39.59
405.306	92.84
405.515	27.31
405.724	-9.56
405.933	55.98
406.142	-7.51
406.35	148.14
406.559	31.4
406.768	15.02
406.977	144.04
407.185	47.79
407.394	92.84
407.603	-50.52
407.812	101.03
408.02	123.56
408.229	-30.04
408.438	39.59
408.646	-89.43
408.855	-34.13
409.064	29.35
409.272	51.88
409.481	103.08
409.69	-23.89
409.898	-30.04
410.107	64.17
410.315	113.32
410.524	2.73
410.733	43.69
410.941	25.26
411.15	125.61
411.358	166.57
411.567	221.86
411.775	70.31
411.984	31.4
412.192	88.75
412.401	49.83
412.609	180.9
412.818	101.03
413.026	17.07
413.234	58.03
413.443	35.5
413.651	49.83
413.86	-46.42
414.068	189.1
414.276	144.04
414.485	66.22
414.693	152.23
414.901	217.77
415.11	10.92
415.318	86.7
415.526	49.83
415.734	66.22
415.943	64.17
416.151	127.66
416.359	6.83
416.567	25.26
416.776	94.89
416.984	119.46
417.192	133.8
417.4	6.83
417.608	-11.61
417.817	-77.14
418.025	162.47
418.233	172.71
418.441	-60.76
418.649	-32.08
418.857	4.78
419.065	109.23
419.273	-40.28
419.481	0.68
419.689	68.27
419.897	131.75
420.105	-38.23
420.313	117.42
420.521	166.57
420.729	109.23
420.937	-62.8
421.145	-50.52
421.353	35.5
421.561	164.52
421.769	78.51
421.977	66.22
422.185	109.23
422.393	2.73
422.601	125.61
422.809	90.79
423.017	90.79
423.224	68.27
423.432	139.94
423.64	21.16
423.848	139.94
424.056	-27.99
424.263	80.55
424.471	33.45
424.679	162.47
424.887	-27.99
425.094	127.66
425.302	45.74
425.51	33.45
425.718	125.61
425.925	96.94
426.133	43.69
426.341	219.82
426.548	121.51
426.756	17.07
426.964	84.65
427.171	-1.37
427.379	96.94
427.586	121.51
427.794	98.99
428.001	144.04
428.209	84.65
428.417	156.33
428.624	94.89
428.832	123.56
429.039	4.78
429.247	19.11
429.454	82.6
429.662	225.96
429.869	174.76
430.076	105.13
430.284	125.61
430.491	166.57
430.699	94.89
430.906	150.18
431.114	84.65
431.321	88.75
431.528	144.04
431.736	135.85
431.943	205.48
432.15	207.53
432.358	189.1
432.565	256.68
432.772	35.5
432.979	217.77
433.187	144.04
433.394	213.67
433.601	86.7
433.808	217.77
434.016	258.73
434.223	221.86
434.43	225.96
434.637	234.15
434.844	373.41
435.052	322.21
435.259	228.01
435.466	291.49
435.673	230.06
435.88	285.35
436.087	383.65
436.294	283.3
436.501	238.25
436.708	195.24
436.915	281.25
437.122	307.88
437.329	152.23
437.537	309.93
437.743	348.84
437.95	395.94
438.157	340.65
438.364	412.32
438.571	385.7
438.778	336.55
438.985	432.8
439.192	541.35
439.399	344.74
439.606	484
439.813	516.77
440.02	656.03
440.227	680.61
440.433	600.74
440.64	553.63
440.847	508.58
441.054	570.02
441.261	756.38
441.467	576.16
441.674	606.88
441.881	711.33
442.088	613.03
442.294	701.09
442.501	723.62
442.708	844.45
442.914	754.34
443.121	856.73
443.328	762.53
443.534	1032.86
443.741	852.64
443.948	774.81
444.154	957.08
444.361	1004.19
444.568	938.65
444.774	1143.45
444.981	903.84
445.187	1137.31
445.394	1186.46
445.6	1112.73
445.807	1405.59
446.013	1313.43
446.22	1186.46
446.426	1378.97
446.633	1602.19
446.839	1757.84
447.046	1366.68
447.252	1565.33
447.459	1702.54
447.665	1649.3
447.871	1872.53
448.078	1874.57
448.284	1954.44
448.491	1944.21
448.697	2122.38
448.903	2157.19
449.11	2167.43
449.316	2142.86
449.522	2357.89
449.728	2407.05
449.935	2519.68
450.141	2460.29
450.347	2790.02
450.553	2749.06
450.76	2712.19
450.966	2931.33
451.172	2976.38
451.378	3089.02
451.584	3078.78
451.791	3408.5
451.997	3449.46
452.203	3588.72
452.409	3709.55
452.615	3783.28
452.821	3791.47
453.027	3760.75
453.233	4330.09
453.44	4162.16
453.646	4256.36
453.852	4600.42
454.058	4743.78
454.264	4733.54
454.47	5278.3
454.676	5235.29
454.882	5710.42
455.088	5544.53
455.294	5745.23
455.5	6138.44
455.705	6523.46
455.911	6500.94
456.117	6713.92
456.323	7125.57
456.529	6937.15
456.735	7578.17
456.941	7891.51
457.147	7950.9
457.352	8325.68
457.558	8550.95
457.764	9148.96
457.97	9007.65
458.176	9437.72
458.381	10025.49
458.587	10170.9
458.793	10768.9
458.999	10854.92
459.204	11962.87
459.41	12554.73
459.616	12259.82
459.821	13201.89
460.027	13472.22
460.233	14379.47
460.438	14328.27
460.644	15202.75
460.85	15358.4
461.055	15741.37
461.261	16794.03
461.466	16255.41
461.672	16439.73
461.878	18682.25
462.083	18477.46
462.289	18768.27
462.494	19501.44
462.7	19571.07
462.905	19896.7
463.111	21451.11
463.316	22456.66
463.522	22907.21
463.727	23804.22
463.932	24611.12
464.138	25221.42
464.343	26462.49
464.549	26919.18
464.754	28389.63
464.959	29065.46
465.165	29927.65
465.37	29397.23
465.575	29511.91
465.781	31635.66
465.986	32430.27
466.191	31674.57
466.397	32184.51
466.602	31559.88
466.807	33116.34
467.012	34005.16
467.218	34533.53
467.423	34547.87
467.628	35729.55
467.833	36946.04
468.038	36644.99
468.244	35969.16
468.449	37781.61
468.654	36745.34
468.859	36954.23
469.064	37036.15
469.269	35969.16
469.474	36434.05
469.679	37587.05
469.885	36491.39
470.09	36980.85
470.295	37005.43
470.5	36139.14
470.705	36696.19
470.91	35780.74
471.115	35258.51
471.32	35565.71
471.525	35719.31
471.73	34502.81
471.935	34443.42
472.139	33071.28
472.344	33349.81
472.549	33124.53
472.754	32321.73
472.959	31879.36
473.164	30462.17
473.369	30175.45
473.574	30994.64
473.778	30437.59
473.983	29743.33
474.188	29389.03
474.393	27754.76
474.598	27838.72
474.802	27480.33
475.007	26933.52
475.212	26644.76
475.417	25549.09
475.621	25358.63
475.826	25108.78
476.031	24441.14
476.235	24166.71
476.44	24287.54
476.645	23589.19
476.849	23230.79
477.054	22581.59
477.259	22370.65
477.463	22286.68
477.668	21582.18
477.872	21545.31
478.077	21041.51
478.282	20519.28
478.486	20414.84
478.691	20113.78
478.895	19822.97
479.1	19927.42
479.304	19659.13
479.509	19075.46
479.713	19190.15
479.918	18684.3
480.122	18614.67
480.326	18624.91
480.531	18702.73
480.735	18370.96
480.94	18252.18
481.144	18534.8
481.348	17408.42
481.553	17420.7
481.757	17191.33
481.961	17480.1
482.166	17467.81
482.37	17285.54
482.574	16740.78
482.778	16748.97
482.983	16921
483.187	16665
483.391	16806.31
483.595	16486.83
483.8	16087.48
484.004	16214.45
484.208	15808.95
484.412	15829.43
484.616	15727.03
484.821	15675.84
485.025	15088.07
485.229	15299.01
485.433	14899.66
485.637	14928.33
485.841	14731.72
486.045	14395.85
486.249	14377.42
486.453	13988.31
486.657	13752.79
486.861	13470.17
487.065	13103.59
487.269	13478.36
487.473	12925.41
487.677	13021.67
487.881	12829.16
488.085	12425.71
488.289	11958.77
488.493	11973.11
488.697	12059.12
488.901	11682.3
489.105	11278.85
489.309	11133.44
489.512	10998.27
489.716	10775.05
489.92	10783.24
490.124	10426.89
490.328	10789.38
490.531	10134.03
490.735	10232.33
490.939	9792.02
491.143	9669.14
491.346	9470.49
491.55	9493.02
491.754	9370.14
491.958	9011.75
492.161	8860.2
492.365	8718.89
492.569	8587.82
492.772	8516.14
492.976	8557.1
493.18	8262.19
493.383	8495.66
493.587	8194.61
493.79	8186.41
493.994	7873.07
494.197	7854.64
494.401	7674.42
494.605	7709.24
494.808	7553.59
495.012	7651.89
495.215	7565.88
495.419	7746.1
495.622	7496.25
495.825	7320.12
496.029	7322.17
496.232	7443
496.436	7195.2
496.639	7201.34
496.843	7062.08
497.046	7182.91
497.249	7391.8
497.453	7338.55
497.656	7387.71
497.859	7248.44
498.063	7395.9
498.266	7467.58
498.469	7219.77
498.673	7377.47
498.876	7322.17
499.079	7440.95
499.282	7449.15
499.485	7813.68
499.689	7420.47
499.892	7533.11
500.095	7350.84
500.298	7754.29
500.501	7465.53
500.705	7785.01
500.908	7711.28
501.111	7998
501.314	7819.83
501.517	8098.35
501.72	7924.27
501.923	8004.14
502.126	8194.61
502.329	8208.94
502.532	8256.04
502.735	8518.18
502.938	8759.84
503.141	8796.71
503.344	8847.91
503.547	8755.75
503.75	8966.69
503.953	9058.85
504.156	9173.53
504.359	9591.32
504.562	9105.95
504.765	9718.29
504.968	9882.13
505.17	9855.51
505.373	10091.02
505.576	10293.77
505.779	10447.37
505.982	10517
506.185	10824.2
506.387	10842.63
506.59	10969.6
506.793	11217.41
506.996	11434.49
507.198	11665.91
507.401	11805.17
507.604	11948.53
507.807	12376.56
508.009	12616.17
508.212	12861.93
508.415	13261.28
508.617	13384.16
508.82	13375.97
509.022	13586.91
509.225	14254.55
509.428	14557.64
509.63	14776.78
509.833	14791.11
510.035	15563.2
510.238	15612.35
510.44	15796.67
510.643	16615.85
510.845	16943.53
511.048	16906.66
511.25	17392.03
511.453	17580.45
511.655	18631.05
511.858	18577.81
512.06	18717.07
512.262	19403.14
512.465	19472.77
512.667	20097.4
512.87	20756.85
513.072	21317.99
513.274	21444.96
513.477	22122.84
513.679	22655.31
513.881	22831.44
514.084	23447.88
514.286	24084.8
514.488	24592.69
514.69	25405.73
514.893	25700.64
515.095	26253.59
515.297	26683.67
515.499	27375.88
515.701	27666.69
515.904	28516.6
516.106	29096.17
516.308	29722.85
516.51	30304.48
516.712	30535.9
516.914	31709.38
517.116	32284.86
517.318	31961.28
517.52	32921.78
517.722	33261.74
517.925	34447.52
518.127	35088.53
518.329	35569.8
518.531	35715.21
518.733	36741.24
518.935	37220.47
519.136	37896.3
519.338	38633.57
519.54	38996.06
519.742	39737.42
519.944	40280.13
520.146	41234.49
520.348	41300.02
520.55	42192.93
520.752	42528.8
520.954	43016.22
521.155	43337.75
521.357	44029.96
521.559	44474.37
521.761	45465.59
521.963	45498.36
522.164	45408.25
522.366	46082.03
522.568	46696.42
522.77	47327.19
522.971	48189.39
523.173	47708.11
523.375	48414.66
523.576	48115.66
523.778	47816.66
523.98	49018.81
524.181	49176.51
524.383	49192.89
524.584	49674.16
524.786	49547.19
524.988	49350.59
525.189	49668.02
525.391	50241.45
525.592	49993.65
525.794	49969.07
525.995	49909.68
526.197	49715.12
526.398	49801.14
526.6	49786.8
526.801	50073.52
527.003	49737.65
527.204	49559.48
527.406	49407.93
527.607	48809.92
527.808	49487.8
528.01	48353.22
528.211	48410.57
528.412	48650.18
528.614	48177.1
528.815	48099.28
529.016	47990.73
529.218	47419.35
529.419	46933.98
529.62	46331.88
529.822	45780.98
530.023	45576.18
530.224	45264.89
530.425	44937.21
530.626	43898.89
530.828	43530.26
531.029	43880.46
531.23	43073.56
531.431	42588.19
531.632	42455.07
531.833	41961.51
532.035	41373.75
532.236	40845.37
532.437	40685.63
532.638	39811.15
532.839	39487.57
533.04	39202.9
533.241	38273.12
533.442	38283.36
533.643	37640.3
533.844	37111.92
534.045	37034.1
534.246	36032.64
534.447	35735.69
534.648	35197.07
534.849	34734.23
535.05	34412.7
535.251	33953.96
535.451	33167.54
535.652	33265.84
535.853	32465.08
536.054	32002.24
536.255	31678.66
536.456	31142.1
536.657	31240.4
536.857	30453.98
537.058	30238.94
537.259	29984.99
537.46	29522.15
537.66	28637.43
537.861	28276.99
538.062	28094.72
538.263	27801.86
538.463	27144.46
538.664	27050.25
538.865	27040.01
539.065	26730.77
539.266	25946.4
539.466	25819.42
539.667	25626.92
539.868	25536.8
540.068	24660.27
540.269	24686.9
540.469	24406.33
540.67	23814.46
540.87	23806.27
541.071	23263.56
541.271	23187.78
541.472	22958.41
541.672	22509.91
541.873	22231.38
542.073	21856.61
542.274	22225.24
542.474	21629.28
542.675	21303.65
542.875	21537.12
543.075	20855.15
543.276	20500.85
543.476	20650.35
543.676	20183.41
543.877	20281.72
544.077	19892.6
544.277	19388.8
544.478	19388.8
544.678	19321.22
544.878	19028.36
545.078	18678.16
545.279	18612.62
545.479	18137.49
545.679	18131.35
545.879	17686.94
546.079	17727.9
546.28	17410.46
546.48	17193.38
546.68	17127.85
546.88	17105.32
547.08	16406.96
547.28	16499.12
547.48	16204.21
547.68	16023.99
547.88	15749.56
548.081	15710.65
548.281	15215.04
548.481	15227.33
548.681	15264.19
548.881	14746.06
549.081	14770.63
549.28	14451.15
549.48	14170.58
549.68	14402
549.88	14436.81
550.08	13760.98
550.28	13687.26
550.48	13490.65
550.68	13240.8
550.88	13246.94
551.08	12808.68
551.279	12714.47
551.479	12366.32
551.679	12382.7
551.879	12052.98
552.079	12057.07
552.278	11868.66
552.478	11946.48
552.678	11393.53
552.878	11631.1
553.077	11268.61
553.277	10668.55
553.477	10766.85
553.676	10580.49
553.876	10578.44
554.076	10379.79
554.275	10213.9
554.475	9912.85
554.674	10025.49
554.874	9562.65
555.074	9277.98
555.273	9527.83
555.473	9237.02
555.672	9159.2
555.872	8856.1
556.071	8761.89
556.271	8905.25
556.47	8370.73
556.67	8352.3
556.869	8221.23
557.068	8200.75
557.268	7864.88
557.467	8063.54
557.667	7737.91
557.866	7735.86
558.065	7379.51
558.265	7170.62
558.464	7055.93
558.663	7182.91
558.863	6883.91
559.062	7049.79
559.261	6773.32
559.461	6707.78
559.66	6373.96
559.859	6345.29
560.058	6255.18
560.258	6324.81
560.457	6263.37
560.656	6148.68
560.855	5868.11
561.054	6007.38
561.253	5843.54
561.453	5757.52
561.652	5634.64
561.851	5540.44
562.05	5366.36
562.249	5352.02
562.448	5311.07
562.647	5173.85
562.846	5104.22
563.045	5243.48
563.244	5012.06
563.443	5085.79
563.642	4821.6
563.841	4805.22
564.04	4817.51
564.239	4596.32
564.438	4536.93
564.637	4319.85
564.836	4485.73
565.035	4188.78
565.234	4280.94
565.432	4237.93
565.631	4160.11
565.83	4096.62
566.029	3936.88
566.228	3938.93
566.427	4016.75
566.625	3641.97
566.824	3775.09
567.023	3793.52
567.222	3682.93
567.42	3705.46
567.619	3588.72
567.818	3545.72
568.016	3592.82
568.215	3484.28
568.414	3416.69
568.612	3414.65
568.811	3314.3
569.01	3279.48
569.208	3205.75
569.407	3066.49
569.605	3060.35
569.804	3033.72
570.002	2994.81
570.201	2935.42
570.4	3041.92
570.598	2914.94
570.797	2792.06
570.995	2665.09
571.193	2810.5
571.392	2712.19
571.59	2646.66
571.789	2679.43
571.987	2579.08
572.186	2503.3
572.384	2415.24
572.582	2478.72
572.781	2568.84
572.979	2339.46
573.177	2282.12
573.376	2249.35
573.574	2357.89
573.772	2202.25
573.971	2079.37
574.169	2126.47
574.367	2046.6
574.565	2108.04
574.763	2065.04
574.962	2030.22
575.16	1976.97
575.358	1866.38
575.556	1962.64
575.754	1976.97
575.952	1925.77
576.151	1979.02
576.349	1872.53
576.547	1620.63
576.745	1854.09
576.943	1778.32
577.141	1708.69
577.339	1622.67
577.537	1682.06
577.735	1649.3
577.933	1641.11
578.131	1587.86
578.329	1708.69
578.527	1551
578.725	1563.28
578.923	1415.83
579.121	1497.75
579.319	1307.29
579.516	1524.37
579.714	1653.39
579.912	1360.53
580.11	1303.19
580.308	1424.02
580.506	1350.29
580.704	1241.75
580.901	1104.54
581.099	1401.49
581.297	1280.66
581.495	1198.74
581.692	1151.64
581.89	1372.82
582.088	1141.4
582.285	1170.07
582.483	1073.82
582.681	1178.26
582.878	1145.5
583.076	1065.63
583.274	1032.86
583.471	1221.27
583.669	1100.44
583.866	922.27
584.064	1051.29
584.262	854.69
584.459	944.8
584.657	955.04
584.854	969.37
585.052	981.66
585.249	948.89
585.447	991.9
585.644	807.58
585.841	889.5
586.039	957.08
586.236	963.23
586.434	809.63
586.631	907.93
586.828	760.48
587.026	862.88
587.223	733.86
587.42	783.01
587.618	778.91
587.815	912.03
588.012	760.48
588.21	785.05
588.407	801.44
588.604	826.01
588.801	641.7
588.999	666.27
589.196	778.91
589.393	740
589.59	701.09
589.787	817.82
589.984	719.52
590.182	719.52
590.379	627.36
590.576	641.7
590.773	660.13
590.97	635.55
591.167	768.67
591.364	764.58
591.561	641.7
591.758	793.25
591.955	696.99
592.152	625.31
592.349	662.18
592.546	623.27
592.743	600.74
592.94	664.22
593.137	684.7
593.334	701.09
593.531	684.7
593.727	643.74
593.924	729.76
594.121	649.89
594.318	557.73
594.515	682.66
594.712	758.43
594.908	621.22
595.105	572.07
595.302	684.7
595.499	664.22
595.696	848.54
595.892	633.5
596.089	793.25
596.286	711.33
596.482	840.35
596.679	789.15
596.876	752.29
597.072	719.52
597.269	881.31
597.466	735.9
597.662	895.65
597.859	871.07
598.055	881.31
598.252	942.75
598.448	1055.39
598.645	1100.44
598.841	1170.07
599.038	1333.91
599.234	1297.05
599.431	1243.8
599.627	1276.57
599.824	1266.33
600.02	1266.33
600.217	1434.26
600.413	1325.72
600.609	1460.88
600.806	1790.61
601.002	1626.77
601.198	1524.37
601.395	1686.16
601.591	1819.28
601.787	1831.57
601.984	1827.47
602.18	1995.4
602.376	1991.31
602.572	2071.18
602.769	2208.39
602.965	2253.45
603.161	2384.52
603.357	2398.85
603.553	2484.87
603.75	2548.36
603.946	2632.32
604.142	2914.94
604.338	2972.29
604.534	2847.36
604.73	3056.25
604.926	3080.83
605.122	3332.73
605.318	3277.43
605.514	3437.17
605.71	3635.83
605.906	3545.72
606.102	3592.82
606.298	3871.34
606.494	3932.78
606.69	4229.74
606.886	4233.83
607.082	4264.55
607.278	4362.86
607.474	4639.33
607.67	4754.02
607.866	4784.74
608.062	4872.8
608.257	5126.75
608.453	5104.22
608.649	5474.9
608.845	5323.35
609.041	5538.39
609.236	5782.1
609.432	6081.1
609.628	6246.99
609.824	6226.51
610.019	6466.12
610.215	6648.39
610.411	6906.43
610.606	7139.9
610.802	7178.81
610.998	7180.86
611.193	7608.89
611.389	7600.69
611.584	7983.66
611.78	8061.49
611.976	8129.07
612.171	8434.22
612.367	8768.04
612.562	8823.33
612.758	8878.63
612.953	9376.28
613.149	9706.01
613.344	9919
613.539	10074.64
613.735	10355.21
613.93	10916.36
614.126	10955.27
614.321	11407.87
614.517	11782.65
614.712	11905.52
614.907	12145.14
615.103	12448.24
615.298	12833.25
615.493	12798.44
615.688	13486.56
615.884	14152.15
616.079	14078.42
616.274	14494.16
616.47	14676.43
616.665	15178.18
616.86	15516.09
617.055	15927.74
617.25	16011.7
617.445	17037.73
617.641	16888.23
617.836	17791.39
618.031	17596.83
618.226	18559.38
618.421	18835.85
618.616	19409.28
618.811	19560.83
619.006	20142.46
619.201	20291.96
619.396	21209.45
619.591	21236.07
619.786	22219.1
619.981	22094.17
620.176	22874.45
620.371	23208.26
620.566	23654.72
620.761	24090.94
620.956	24893.74
621.151	25041.2
621.346	25532.71
621.541	26147.1
621.735	27103.5
621.93	26781.97
622.125	27199.76
622.32	27664.64
622.515	28463.35
622.709	28897.52
622.904	29384.94
623.099	29898.98
623.294	30445.79
623.488	31047.89
623.683	31361.23
623.878	31627.46
624.072	32684.22
624.267	33163.44
624.462	33374.38
624.656	33743.02
624.851	34701.47
625.046	34732.18
625.24	35391.63
625.435	35702.92
625.629	36206.72
625.824	36735.1
626.018	37228.66
626.213	36851.83
626.407	37957.74
626.602	38299.75
626.796	38875.23
626.991	39526.48
627.185	39610.45
627.38	39460.94
627.574	39884.87
627.768	40054.86
627.963	40572.99
628.157	40517.7
628.352	40976.44
628.546	40261.7
628.74	41093.18
628.935	40546.37
629.129	40749.12
629.323	40382.53
629.517	40648.77
629.712	40200.26
629.906	39944.27
630.1	39393.36
630.294	39161.94
630.489	38291.55
630.683	38299.75
630.877	37101.68
631.071	37236.85
631.265	36704.38
631.459	35346.58
631.653	34834.58
631.848	33953.96
632.042	33390.77
632.236	32909.49
632.43	31789.25
632.624	31004.88
632.818	29882.59
633.012	29192.43
633.206	28291.32
633.4	27853.06
633.594	26530.07
633.788	25581.86
633.982	24883.5
634.176	24236.34
634.369	23124.3
634.563	22266.2
634.757	21201.26
634.951	20627.82
635.145	19939.71
635.339	18954.63
635.533	18203.03
635.726	17887.64
635.92	16898.47
636.114	15962.55
636.308	15419.84
636.501	15237.57
636.695	14473.68
636.889	13701.59
637.083	13070.82
637.276	12767.72
637.47	12028.4
637.664	11704.82
637.857	11100.67
638.051	10662.41
638.244	10187.28
638.438	9820.69
638.632	9542.17
638.825	8745.51
639.019	8899.11
639.212	8258.09
639.406	8032.82
639.599	7586.36
639.793	7674.42
639.986	7189.05
640.18	6920.77
640.373	6474.31
640.567	6441.54
640.76	6044.24
640.954	5986.9
641.147	5655.12
641.34	5395.03
641.534	5388.89
641.727	5200.48
641.92	4833.89
642.114	4577.89
642.307	4434.53
642.5	4393.58
642.694	4041.32
642.887	3932.78
643.08	4063.85
643.273	3705.46
643.467	3496.57
643.66	3410.55
643.853	3179.13
644.046	3281.53
644.239	3066.49
644.432	2914.94
644.626	2747.01
644.819	2601.6
645.012	2523.78
645.205	2626.18
645.398	2429.57
645.591	2396.81
645.784	2214.54
645.977	2073.23
646.17	2175.63
646.363	1997.45
646.556	1850
646.749	1720.98
646.942	1745.55
647.135	1647.25
647.328	1667.73
647.521	1553.04
647.714	1464.98
647.907	1571.47
648.099	1323.67
648.292	1352.34
648.485	1350.29
648.678	1329.81
648.871	1237.66
649.064	1192.6
649.256	1147.55
649.449	1057.43
649.642	948.89
649.835	1024.67
650.027	887.45
650.22	905.88
650.413	893.6
650.605	895.65
650.798	727.71
650.991	838.3
651.183	795.29
651.376	895.65
651.568	846.49
651.761	651.94
651.954	742.05
652.146	705.18
652.339	707.23
652.531	760.48
652.724	510.63
652.916	549.54
653.109	463.52
653.301	551.59
653.494	637.6
653.686	594.59
653.879	641.7
654.071	516.77
654.263	455.33
654.456	498.34
654.648	539.3
654.84	496.29
655.033	416.42
655.225	441
655.417	328.36
655.61	529.06
655.802	385.7
655.994	510.63
656.186	281.25
656.379	514.72
656.571	369.32
656.763	291.49
656.955	357.03
657.148	352.93
657.34	363.17
657.532	348.84
657.724	375.46
657.916	389.8
658.108	326.31
658.3	377.51
658.492	344.74
658.684	252.58
658.876	291.49
659.068	217.77
659.26	228.01
659.452	178.86
659.644	330.41
659.836	400.04
660.028	318.12
660.22	234.15
660.412	221.86
660.604	242.34
660.796	230.06
660.988	277.16
661.18	215.72
661.372	273.06
661.563	240.3
661.755	172.71
661.947	203.43
662.139	168.62
662.331	248.49
662.522	254.63
662.714	92.84
662.906	117.42
663.097	180.9
663.289	168.62
663.481	-1.37
663.673	246.44
663.864	172.71
664.056	324.26
664.247	135.85
664.439	279.21
664.631	203.43
664.822	199.34
665.014	262.82
665.205	131.75
665.397	150.18
665.588	127.66
665.78	187.05
665.971	234.15
666.163	66.22
666.354	174.76
666.546	121.51
666.737	123.56
666.929	133.8
667.12	154.28
667.311	223.91
667.503	123.56
667.694	129.7
667.885	86.7
668.077	287.4
668.268	64.17
668.459	78.51
668.651	191.14
668.842	115.37
669.033	80.55
669.224	88.75
669.416	289.45
669.607	170.66
669.798	53.93
669.989	225.96
670.18	55.98
670.371	225.96
670.563	64.17
670.754	213.67
670.945	199.34
671.136	205.48
671.327	111.27
671.518	262.82
671.709	185
671.9	258.73
672.091	264.87
672.282	152.23
672.473	215.72
672.664	201.38
672.855	123.56
673.046	187.05
673.237	242.34
673.428	197.29
673.619	225.96
673.809	60.07
674	268.97
674.191	232.1
674.382	191.14
674.573	92.84
674.764	180.9
674.954	236.2
675.145	185
675.336	84.65
675.527	164.52
675.717	117.42
675.908	176.81
676.099	115.37
676.289	174.76
676.48	21.16
676.671	187.05
676.861	178.86
677.052	160.42
677.243	92.84
677.433	117.42
677.624	299.69
677.814	219.82
678.005	135.85
678.195	230.06
678.386	144.04
678.576	166.57
678.767	146.09
678.957	176.81
679.148	346.79
679.338	277.16
679.529	246.44
679.719	107.18
679.909	338.6
680.1	246.44
680.29	238.25
680.481	152.23
680.671	258.73
680.861	144.04
681.052	283.3
681.242	174.76
681.432	271.01
681.622	234.15
681.813	195.24
682.003	240.3
682.193	207.53
682.383	223.91
682.573	225.96
682.764	137.9
682.954	275.11
683.144	314.02
683.334	158.38
683.524	205.48
683.714	240.3
683.904	297.64
684.094	209.58
684.284	240.3
684.474	236.2
684.664	277.16
684.854	244.39
685.044	201.38
685.234	232.1
685.424	301.73
685.614	256.68
685.804	303.78
685.994	260.77
686.184	264.87
686.374	309.93
686.564	332.45
686.753	225.96
686.943	152.23
687.133	248.49
687.323	217.77
687.513	277.16
687.702	287.4
687.892	170.66
688.082	277.16
688.272	336.55
688.461	252.58
688.651	363.17
688.841	162.47
689.03	215.72
689.22	236.2
689.41	346.79
689.599	213.67
689.789	166.57
689.979	316.07
690.168	174.76
690.358	258.73
690.547	283.3
690.737	205.48
690.926	248.49
691.116	242.34
691.305	271.01
691.495	293.54
691.684	76.46
691.874	232.1
692.063	248.49
692.252	322.21
692.442	301.73
692.631	160.42
692.82	205.48
693.01	248.49
693.199	189.1
693.388	228.01
693.578	266.92
693.767	293.54
693.956	262.82
694.146	230.06
694.335	318.12
694.524	256.68
694.713	320.17
694.902	252.58
695.092	277.16
695.281	193.19
695.47	238.25
695.659	234.15
695.848	223.91
696.037	201.38
696.226	271.01
696.415	246.44
696.604	332.45
696.793	322.21
696.982	180.9
697.171	338.6
697.36	148.14
697.549	189.1
697.738	146.09
697.927	185
698.116	144.04
698.305	215.72
698.494	203.43
698.683	248.49
698.872	365.22
699.061	250.53
699.25	103.08
699.438	236.2
699.627	297.64
699.816	330.41
700.005	156.33
700.193	219.82
700.382	328.36
700.571	217.77
700.76	189.1
700.948	303.78
701.137	236.2
701.326	191.14
701.514	164.52
701.703	211.62
701.892	203.43
702.08	285.35
702.269	191.14
702.457	103.08
702.646	209.58
702.834	125.61
703.023	219.82
703.212	299.69
703.4	240.3
703.589	201.38
703.777	160.42
703.965	125.61
704.154	191.14
704.342	195.24
704.531	107.18
704.719	213.67
704.907	275.11
705.096	117.42
705.284	148.14
705.472	250.53
705.661	219.82
705.849	209.58
706.037	281.25
706.226	223.91
706.414	262.82
706.602	160.42
706.79	260.77
706.979	230.06
707.167	191.14
707.355	62.12
707.543	252.58
707.731	244.39
707.919	150.18
708.107	219.82
708.296	170.66
708.484	148.14
708.672	197.29
708.86	244.39
709.048	215.72
709.236	205.48
709.424	217.77
709.612	232.1
709.8	86.7
709.988	250.53
710.176	205.48
710.364	273.06
710.551	182.95
710.739	252.58
710.927	172.71
711.115	277.16
711.303	242.34
711.491	305.83
711.679	182.95
711.866	262.82
712.054	172.71
712.242	193.19
712.43	252.58
712.617	279.21
712.805	334.5
712.993	203.43
713.181	80.55
713.368	217.77
713.556	201.38
713.744	105.13
713.931	404.13
714.119	277.16
714.306	219.82
714.494	238.25
714.682	199.34
714.869	92.84
715.057	193.19
715.244	164.52
715.432	236.2
715.619	164.52
715.807	262.82
715.994	172.71
716.182	160.42
716.369	346.79
716.556	285.35
716.744	121.51
716.931	60.07
717.119	258.73
717.306	182.95
717.493	195.24
717.681	164.52
717.868	213.67
718.055	221.86
718.242	240.3
718.43	240.3
718.617	322.21
718.804	115.37
718.991	258.73
719.179	297.64
719.366	326.31
719.553	271.01
719.74	281.25
719.927	246.44
720.114	164.52
720.301	103.08
720.488	205.48
720.676	141.99
720.863	324.26
721.05	340.65
721.237	283.3
721.424	254.63
721.611	293.54
721.798	96.94
721.985	199.34
722.172	191.14
722.358	172.71
722.545	314.02
722.732	250.53
722.919	307.88
723.106	307.88
723.293	213.67
723.48	244.39
723.667	240.3
723.853	234.15
724.04	207.53
724.227	301.73
724.414	166.57
724.6	244.39
724.787	348.84
724.974	350.89
725.161	275.11
725.347	135.85
725.534	209.58
725.72	326.31
725.907	305.83
726.094	271.01
726.28	189.1
726.467	189.1
726.653	236.2
726.84	377.51
727.027	383.65
727.213	234.15
727.4	262.82
727.586	289.45
727.773	277.16
727.959	283.3
728.145	281.25
728.332	254.63
728.518	180.9
728.705	316.07
728.891	264.87
729.077	336.55
729.264	199.34
729.45	168.62
729.636	400.04
729.823	291.49
730.009	311.97
730.195	273.06
730.382	297.64
730.568	242.34
730.754	285.35
730.94	166.57
731.126	311.97
731.313	371.37
731.499	160.42
731.685	232.1
731.871	293.54
732.057	273.06
732.243	297.64
732.429	266.92
732.615	348.84
732.801	293.54
732.987	297.64
733.173	266.92
733.359	217.77
733.545	209.58
733.731	236.2
733.917	338.6
734.103	305.83
734.289	301.73
734.475	168.62
734.661	430.76
734.847	281.25
735.033	244.39
735.219	338.6
735.404	281.25
735.59	223.91
735.776	215.72
735.962	297.64
736.148	303.78
736.333	400.04
736.519	297.64
736.705	228.01
736.89	252.58
737.076	287.4
737.262	285.35
737.447	277.16
737.633	256.68
737.819	322.21
738.004	209.58
738.19	305.83
738.375	311.97
738.561	330.41
738.747	213.67
738.932	228.01
739.118	365.22
739.303	352.93
739.489	369.32
739.674	291.49
739.859	248.49
740.045	299.69
740.23	246.44
740.416	53.93
740.601	307.88
740.786	314.02
740.972	260.77
741.157	273.06
741.342	205.48
741.528	180.9
741.713	377.51
741.898	279.21
742.084	281.25
742.269	273.06
742.454	242.34
742.639	320.17
742.824	279.21
743.01	359.08
743.195	414.37
743.38	238.25
743.565	234.15
743.75	250.53
743.935	354.98
744.12	314.02
744.305	156.33
744.49	230.06
744.675	168.62
744.86	223.91
745.045	309.93
745.23	240.3
745.415	271.01
745.6	326.31
745.785	187.05
745.97	314.02
746.155	322.21
746.34	340.65
746.525	201.38
746.71	279.21
746.895	168.62
747.079	197.29
747.264	228.01
747.449	332.45
747.634	359.08
747.819	209.58
748.003	234.15
748.188	176.81
748.373	268.97
748.557	273.06
748.742	223.91
748.927	223.91
749.111	178.86
749.296	207.53
749.481	266.92
749.665	301.73
749.85	135.85
750.034	264.87
750.219	199.34
750.404	180.9
750.588	277.16
750.773	146.09
750.957	191.14
751.141	328.36
751.326	146.09
751.51	137.9
751.695	219.82
751.879	144.04
752.064	273.06
752.248	137.9
752.432	240.3
752.617	279.21
752.801	223.91
752.985	178.86
753.17	277.16
753.354	201.38
753.538	238.25
753.722	82.6
753.907	113.32
754.091	127.66
754.275	199.34
754.459	84.65
754.643	129.7
754.828	174.76
755.012	285.35
755.196	109.23
755.38	223.91
755.564	201.38
755.748	121.51
755.932	215.72
756.116	289.45
756.3	193.19
756.484	66.22
756.668	234.15
756.852	49.83
757.036	238.25
757.22	82.6
757.404	144.04
757.588	148.14
757.772	135.85
757.956	150.18
758.14	316.07
758.323	86.7
758.507	209.58
758.691	88.75
758.875	244.39
759.059	244.39
759.242	115.37
759.426	182.95
759.61	217.77
759.794	39.59
759.977	215.72
760.161	363.17
760.345	266.92
760.528	185
760.712	217.77
760.895	178.86
761.079	174.76
761.263	111.27
761.446	68.27
761.63	60.07
761.813	168.62
761.997	53.93
762.18	121.51
762.364	127.66
762.547	12.97
762.731	117.42
762.914	96.94
763.098	96.94
763.281	60.07
763.464	111.27
763.648	129.7
763.831	115.37
764.015	78.51
764.198	113.32
764.381	121.51
764.564	125.61
764.748	129.7
764.931	119.46
765.114	121.51
765.297	76.46
765.481	-21.85
765.664	144.04
765.847	51.88
766.03	240.3
766.213	96.94
766.397	111.27
766.58	6.83
766.763	234.15
766.946	49.83
767.129	64.17
767.312	43.69
767.495	121.51
767.678	64.17
767.861	176.81
768.044	88.75
768.227	31.4
768.41	119.46
768.593	123.56
768.776	53.93
768.959	15.02
769.142	144.04
769.324	47.79
769.507	88.75
769.69	62.12
769.873	25.26
770.056	264.87
770.239	60.07
770.421	234.15
770.604	96.94
770.787	113.32
770.97	88.75
771.152	94.89
771.335	135.85
771.518	55.98
771.7	162.47
771.883	283.3
772.066	21.16
772.248	78.51
772.431	86.7
772.613	23.21
772.796	90.79
772.978	137.9
773.161	90.79
773.343	144.04
773.526	6.83
773.708	-62.8
773.891	21.16
774.073	80.55
774.256	78.51
774.438	150.18
774.621	107.18
774.803	160.42
774.985	113.32
775.168	107.18
775.35	98.99
775.532	160.42
775.715	37.55
775.897	58.03
776.079	31.4
776.261	64.17
776.444	-21.85
776.626	45.74
776.808	90.79
776.99	-83.28
777.173	64.17
777.355	47.79
777.537	39.59
777.719	0.68
777.901	-11.61
778.083	-52.56
778.265	-42.32
778.447	86.7
778.629	107.18
778.811	62.12
778.993	92.84
779.175	103.08
779.357	47.79
779.539	0.68
779.721	53.93
779.903	17.07
780.085	29.35
780.267	-5.46
780.449	127.66
780.631	152.23
780.812	86.7
780.994	35.5
781.176	68.27
781.358	4.78
781.54	51.88
781.721	70.31
781.903	64.17
782.085	-19.8
782.267	185
782.448	-11.61
782.63	10.92
782.812	21.16
782.993	72.36
783.175	86.7
783.357	37.55
783.538	-19.8
783.72	-71
783.901	55.98
784.083	31.4
784.264	176.81
784.446	-7.51
784.627	-25.94
784.809	103.08
784.99	-19.8
785.172	78.51
785.353	17.07
785.535	39.59
785.716	31.4
785.897	4.78
786.079	53.93
786.26	80.55
786.441	113.32
786.623	-34.13
786.804	-27.99
786.985	-32.08
787.167	37.55
787.348	-25.94
787.529	12.97
787.71	178.86
787.891	-1.37
788.073	-3.41
788.254	-87.38
788.435	111.27
788.616	62.12
788.797	-23.89
788.978	35.5
789.159	-56.66
789.34	51.88
789.522	43.69
789.703	-27.99
789.884	92.84
790.065	78.51
790.246	135.85
790.427	0.68
790.607	64.17
790.788	25.26
790.969	-7.51
791.15	127.66
791.331	-32.08
791.512	-5.46
791.693	-30.04
791.874	43.69
792.054	156.33
792.235	152.23
792.416	-44.37
792.597	23.21
792.778	98.99
792.958	62.12
793.139	12.97
793.32	39.59
793.5	-54.61
793.681	64.17
793.862	29.35
794.042	68.27
794.223	-32.08
794.404	-40.28
794.584	-142.68
794.765	41.64
794.945	-50.52
795.126	64.17
795.306	107.18
795.487	27.31
795.667	156.33
795.848	62.12
796.028	-23.89
796.209	41.64
796.389	37.55
796.57	6.83
796.75	-5.46
796.93	39.59
797.111	-44.37
797.291	-32.08
797.471	62.12
797.652	-13.65
797.832	-21.85
798.012	88.75
798.192	0.68
798.373	-50.52
798.553	-21.85
798.733	53.93
798.913	-46.42
799.093	-50.52
799.274	-23.89
799.454	51.88
799.634	43.69
799.814	139.94
799.994	23.21
800.174	72.36
800.354	96.94
800.534	-62.8
800.714	64.17
800.894	-87.38
801.074	-73.04
801.254	4.78
801.434	152.23
801.614	76.46
801.794	49.83
801.974	1745.55
802.154	0.68
802.334	60.07
802.514	-38.23
802.693	-27.99
802.873	-38.23
803.053	158.38
803.233	58.03
803.413	-56.66
803.592	-66.9
803.772	-3.41
803.952	33.45
804.131	-56.66
804.311	88.75
804.491	78.51
804.67	-79.19
804.85	-95.57
805.03	43.69
805.209	111.27
805.389	49.83
805.568	-58.71
805.748	-17.75
805.928	-27.99
806.107	135.85
806.287	51.88
806.466	8.87
806.646	-34.13
806.825	-34.13
807.004	-9.56
807.184	0.68
807.363	53.93
807.543	25.26
807.722	-132.44
807.901	49.83
808.081	129.7
808.26	-122.2
808.439	-1.37
808.619	8.87
808.798	-17.75
808.977	-9.56
809.156	129.7
809.336	-56.66
809.515	76.46
809.694	-116.05
809.873	4.78
810.052	51.88
810.231	58.03
810.411	43.69
810.59	82.6
810.769	43.69
810.948	90.79
811.127	-46.42
811.306	10.92
811.485	-36.18
811.664	133.8
811.843	53.93
812.022	-36.18
812.201	-27.99
812.38	19.11
812.559	10.92
812.737	-27.99
812.916	-68.95
813.095	-17.75
813.274	-5.46
813.453	76.46
813.632	43.69
813.811	92.84
813.989	-101.72
814.168	-11.61
814.347	-38.23
814.526	49.83
814.704	37.55
814.883	72.36
815.062	-75.09
815.24	86.7
815.419	-60.76
815.598	-46.42
815.776	-54.61
815.955	-66.9
816.133	-163.15
816.312	25.26
816.49	-83.28
816.669	80.55
816.847	37.55
817.026	146.09
817.204	2.73
817.383	33.45
817.561	-114
817.74	47.79
817.918	8.87
818.097	29.35
818.275	4.78
818.453	27.31
818.632	31.4
818.81	2.73
818.988	-54.61
819.167	-54.61
819.345	35.5
819.523	-36.18
819.701	37.55
819.879	43.69
820.058	64.17
820.236	-3.41
820.414	72.36
820.592	12.97
820.77	-11.61
820.948	-62.8
821.127	0.68
821.305	2.73
821.483	-85.33
821.661	35.5
821.839	15.02
822.017	-46.42
822.195	-71
822.373	115.37
822.551	27.31
822.729	78.51
822.907	-97.62
823.085	70.31
823.262	29.35
823.44	29.35
823.618	-27.99
823.796	-30.04
823.974	-11.61
824.152	-48.47
824.329	-81.24
824.507	-15.7
824.685	-1.37
824.863	-73.04
825.04	-38.23
825.218	58.03
825.396	92.84
825.574	-15.7
825.751	49.83
825.929	-30.04
826.107	-122.2
826.284	19.11
826.462	15.02
826.639	-66.9
826.817	-107.86
826.994	-34.13
827.172	-87.38
827.349	154.28
827.527	-3.41
827.704	-27.99
827.882	49.83
828.059	-15.7
828.237	-50.52
828.414	-7.51
828.591	-81.24
828.769	29.35
828.946	-95.57
829.124	-9.56
829.301	154.28
829.478	-68.95
829.655	-11.61
829.833	86.7
830.01	-62.8
830.187	-11.61
830.364	27.31
830.542	8.87
830.719	88.75
830.896	127.66
831.073	27.31
831.25	37.55
831.427	76.46
831.604	-19.8
831.782	-79.19
831.959	41.64
832.136	-62.8
832.313	19.11
832.49	-42.32
832.667	17.07
832.844	43.69
833.021	10.92
833.198	37.55
833.374	21.16
833.551	98.99
833.728	-42.32
833.905	86.7
834.082	-83.28
834.259	-46.42
834.436	76.46
834.612	-87.38
834.789	51.88
834.966	-77.14
835.143	-58.71
835.319	-93.52
835.496	98.99
835.673	-27.99
835.85	119.46
836.026	41.64
836.203	53.93
836.38	25.26
836.556	-30.04
836.733	-3.41
836.909	131.75
837.086	-48.47
837.262	-19.8
837.439	19.11
837.616	-30.04
837.792	-25.94
837.968	37.55
838.145	-128.34
838.321	33.45
838.498	82.6
838.674	101.03
838.851	90.79
839.027	-101.72
839.203	-15.7
839.38	-21.85
839.556	-25.94
839.732	-66.9
839.909	15.02
840.085	146.09
840.261	-40.28
840.437	-23.89
840.614	-73.04
840.79	-9.56
840.966	84.65
841.142	-46.42
841.318	-13.65
841.494	10.92
841.671	150.18
841.847	10.92
842.023	-116.05
842.199	58.03
842.375	86.7
842.551	-114
842.727	12.97
842.903	84.65
843.079	-56.66
843.255	119.46
843.431	-17.75
843.607	10.92
843.783	-136.53
843.959	10.92
844.134	-19.8
844.31	117.42
844.486	-19.8
844.662	-30.04
844.838	-1.37
845.013	33.45
845.189	23.21
845.365	45.74
845.541	6.83
845.716	10.92
845.892	84.65
846.068	-87.38
846.244	-36.18
846.419	-5.46
846.595	-58.71
846.77	-66.9
846.946	6.83
847.122	-62.8
847.297	-144.72
847.473	55.98
847.648	-116.05
847.824	-17.75
847.999	-144.72
848.175	15.02
848.35	78.51
848.526	53.93
848.701	84.65
848.876	37.55
849.052	41.64
849.227	-27.99
849.403	17.07
849.578	-34.13
849.753	-21.85
849.929	43.69
850.104	-17.75
850.279	12.97
850.454	25.26
850.63	-17.75
850.805	-42.32
850.98	27.31
851.155	-30.04
851.33	-23.89
851.505	-140.63
851.681	41.64
851.856	-101.72
852.031	109.23
852.206	-34.13
852.381	-105.81
852.556	-44.37
852.731	21.16
852.906	62.12
853.081	78.51
853.256	96.94
853.431	12.97
853.606	-21.85
853.781	-73.04
853.956	-169.3
854.131	37.55
854.305	-93.52
854.48	-73.04
854.655	-40.28
854.83	-83.28
855.005	-5.46
855.18	19.11
855.354	-7.51
855.529	-1.37
855.704	-144.72
855.879	-13.65
856.053	0.68
856.228	6.83
856.403	-36.18
856.577	43.69
856.752	-101.72
856.926	-1.37
857.101	35.5
857.276	-130.39
857.45	4.78
857.625	-13.65
857.799	21.16
857.974	29.35
858.148	-144.72
858.323	-34.13
858.497	8.87
858.672	-62.8
858.846	-77.14
859.02	-32.08
859.195	-23.89
859.369	-3.41
859.543	-15.7
859.718	33.45
859.892	19.11
860.066	21.16
860.241	-60.76
860.415	-58.71
860.589	-19.8
860.763	23.21
860.938	-23.89
861.112	2.73
861.286	-21.85
861.46	41.64
861.634	25.26
861.808	76.46
861.982	2.73
862.157	-81.24
862.331	-32.08
862.505	-32.08
862.679	-103.76
862.853	-40.28
863.027	-79.19
863.201	174.76
863.375	-36.18
863.549	105.13
863.722	82.6
863.896	88.75
864.07	-50.52
864.244	-79.19
864.418	27.31
864.592	-91.48
864.766	-46.42
864.939	-66.9
865.113	-46.42
865.287	121.51
865.461	-36.18
865.634	-44.37
865.808	10.92
865.982	19.11
866.156	-40.28
866.329	-93.52
866.503	25.26
866.676	10.92
866.85	19.11
867.024	-95.57
867.197	21.16
867.371	-46.42
867.544	23.21
867.718	-146.77
867.891	62.12
868.065	-93.52
868.238	-30.04
868.412	19.11
868.585	23.21
868.759	-5.46
868.932	-60.76
869.105	-79.19
869.279	-58.71
869.452	-93.52
869.625	80.55
869.799	-19.8
869.972	-105.81
870.145	-85.33
870.319	39.59
870.492	-40.28
870.665	-34.13
870.838	-30.04
871.011	-148.82
871.185	-7.51
871.358	-30.04
871.531	37.55
871.704	-105.81
871.877	29.35
872.05	-25.94
872.223	-42.32
872.396	-3.41
872.569	6.83
872.742	-140.63
872.915	29.35
873.088	-34.13
873.261	-142.68
873.434	55.98
873.607	27.31
873.78	90.79
873.953	-154.96
874.126	4.78
874.299	-42.32
874.471	-30.04
874.644	2.73
874.817	55.98
874.99	113.32
875.163	-46.42
875.335	12.97
875.508	23.21
875.681	62.12
875.853	-40.28
876.026	15.02
876.199	-9.56
876.371	27.31
876.544	-60.76
876.717	17.07
876.889	-73.04
877.062	-13.65
877.234	-120.15
877.407	-42.32
877.579	23.21
877.752	70.31
877.924	35.5
878.097	-77.14
878.269	60.07
878.442	-56.66
878.614	-5.46
878.786	41.64
878.959	-58.71
879.131	2.73
879.303	-132.44
879.476	-15.7
879.648	58.03
879.82	-30.04
879.993	-9.56
880.165	-50.52
880.337	-50.52
880.509	2.73
880.681	-48.47
880.854	-85.33
881.026	-11.61
881.198	121.51
881.37	-32.08
881.542	51.88
881.714	-30.04
881.886	-62.8
882.058	-34.13
882.23	-54.61
882.402	-27.99
882.574	-23.89
882.746	-5.46
882.918	41.64
883.09	10.92
883.262	-19.8
883.434	43.69
883.606	-101.72
883.778	109.23
883.95	74.41
884.122	-91.48
884.293	-36.18
884.465	-13.65
884.637	107.18
884.809	-95.57
884.98	35.5
885.152	43.69
885.324	78.51
885.496	-36.18
885.667	2.73
885.839	-56.66
886.011	64.17
886.182	27.31
886.354	49.83
886.525	76.46
886.697	-3.41
886.869	-64.85
887.04	-54.61
887.212	35.5
887.383	90.79
887.555	-40.28
887.726	-38.23
887.897	-27.99
888.069	4.78
888.24	-19.8
888.412	-58.71
888.583	-9.56
888.754	12.97
888.926	-109.91
889.097	-93.52
889.268	-103.76
889.44	53.93
889.611	-130.39
889.782	-202.07
889.953	-95.57
890.125	92.84
890.296	-79.19
890.467	-91.48
890.638	-83.28
890.809	-44.37
890.98	-7.51
891.151	-7.51
891.323	94.89
891.494	-7.51
891.665	-9.56
891.836	-9.56
892.007	-46.42
892.178	10.92
892.349	-42.32
892.52	-142.68
892.691	6.83
892.862	-11.61
893.032	-134.48
893.203	-87.38
893.374	-17.75
893.545	27.31
893.716	-48.47
893.887	15.02
894.057	-79.19
894.228	-64.85
894.399	-30.04
894.57	103.08
894.74	-25.94
894.911	6.83
895.082	-89.43
895.253	-107.86
895.423	-5.46
895.594	0.68
895.764	45.74
895.935	62.12
896.106	2.73
896.276	-21.85
896.447	33.45
896.617	-64.85
896.788	-25.94
896.958	-1.37
897.129	-36.18
897.299	-25.94
897.47	37.55
897.64	109.23
897.81	2.73
897.981	25.26
898.151	-38.23
898.322	49.83
898.492	-7.51
898.662	-77.14
898.832	-66.9
899.003	-23.89
899.173	66.22
899.343	-99.67
899.513	-66.9
