Data from USB4F104151__217__11-05-56-628.txt Node

Date: Wed Feb 26 11:05:56 EST 2025
User: louis
Spectrometer: USB4F10415
Trigger mode: 4
Integration Time (sec): 1.000000E-1
Scans to average: 1
Electric dark correction enabled: true
Nonlinearity correction enabled: false
Boxcar width: 0
XAxis mode: Wavelengths
Number of Pixels in Spectrum: 3648
>>>>>Begin Spectral Data<<<<<
178.204	-400.38
178.424	-400.38
178.644	-400.38
178.864	-449.53
179.084	-373.75
179.304	11.26
179.524	-9.22
179.744	29.7
179.964	37.89
180.184	-11.26
180.404	-11.26
180.624	74.75
180.844	-66.56
181.064	-93.18
181.283	-25.6
181.503	1.02
181.723	62.46
181.943	-150.53
182.163	289.79
182.383	23.55
182.602	113.66
182.822	168.96
183.042	52.22
183.262	-15.36
183.482	82.94
183.701	82.94
183.921	113.66
184.141	31.74
184.361	50.18
184.58	60.42
184.8	52.22
185.02	33.79
185.239	148.48
185.459	84.99
185.679	80.89
185.898	-76.8
186.118	101.37
186.338	25.6
186.557	148.48
186.777	52.22
186.997	68.61
187.216	-60.42
187.436	193.53
187.655	27.65
187.875	72.7
188.095	66.56
188.314	105.47
188.534	105.47
188.753	-95.23
188.973	150.53
189.192	207.87
189.412	48.13
189.631	101.37
189.851	66.56
190.07	232.44
190.29	-15.36
190.509	37.89
190.729	119.81
190.948	93.18
191.168	216.06
191.387	25.6
191.607	23.55
191.826	29.7
192.045	15.36
192.265	7.17
192.484	74.75
192.704	29.7
192.923	-113.66
193.142	183.29
193.362	121.85
193.581	185.34
193.8	80.89
194.02	37.89
194.239	84.99
194.458	115.71
194.678	31.74
194.897	17.41
195.116	68.61
195.335	78.85
195.555	121.85
195.774	-3.07
195.993	103.42
196.212	15.36
196.432	-17.41
196.651	46.08
196.87	39.94
197.089	316.41
197.308	15.36
197.528	95.23
197.747	-64.51
197.966	3.07
198.185	115.71
198.404	-48.13
198.623	113.66
198.842	132.09
199.062	66.56
199.281	175.1
199.5	-37.89
199.719	99.33
199.938	144.38
200.157	37.89
200.376	56.32
200.595	142.33
200.814	134.14
201.033	27.65
201.252	158.72
201.471	48.13
201.69	162.81
201.909	21.5
202.128	99.33
202.347	130.05
202.566	62.46
202.785	-76.8
203.004	-76.8
203.223	316.41
203.442	37.89
203.661	35.84
203.879	76.8
204.098	175.1
204.317	-74.75
204.536	60.42
204.755	78.85
204.974	68.61
205.193	-7.17
205.411	111.61
205.63	111.61
205.849	101.37
206.068	1.02
206.287	-11.26
206.505	64.51
206.724	23.55
206.943	-33.79
207.162	13.31
207.381	87.04
207.599	54.27
207.818	-13.31
208.037	7.17
208.255	62.46
208.474	130.05
208.693	97.28
208.911	31.74
209.13	46.08
209.349	91.13
209.567	91.13
209.786	103.42
210.005	11.26
210.223	82.94
210.442	-91.13
210.661	29.7
210.879	93.18
211.098	46.08
211.316	123.9
211.535	177.15
211.753	48.13
211.972	7.17
212.191	23.55
212.409	56.32
212.628	164.86
212.846	46.08
213.065	35.84
213.283	76.8
213.502	48.13
213.72	3.07
213.938	78.85
214.157	13.31
214.375	177.15
214.594	13.31
214.812	56.32
215.031	93.18
215.249	-5.12
215.467	117.76
215.686	-11.26
215.904	11.26
216.122	35.84
216.341	160.77
216.559	130.05
216.778	121.85
216.996	166.91
217.214	5.12
217.432	35.84
217.651	-25.6
217.869	66.56
218.087	21.5
218.306	7.17
218.524	64.51
218.742	15.36
218.96	123.9
219.179	66.56
219.397	29.7
219.615	189.44
219.833	82.94
220.051	23.55
220.27	168.96
220.488	173.05
220.706	84.99
220.924	27.65
221.142	58.37
221.36	76.8
221.578	117.76
221.796	-31.74
222.015	17.41
222.233	97.28
222.451	195.58
222.669	-31.74
222.887	60.42
223.105	54.27
223.323	17.41
223.541	60.42
223.759	35.84
223.977	70.65
224.195	211.96
224.413	66.56
224.631	11.26
224.849	64.51
225.067	220.16
225.285	-64.51
225.503	21.5
225.721	-80.89
225.939	68.61
226.157	39.94
226.375	259.07
226.592	-13.31
226.81	-9.22
227.028	134.14
227.246	91.13
227.464	68.61
227.682	117.76
227.9	95.23
228.117	168.96
228.335	101.37
228.553	31.74
228.771	31.74
228.989	97.28
229.206	121.85
229.424	72.7
229.642	17.41
229.86	3.07
230.077	171.01
230.295	48.13
230.513	89.09
230.731	48.13
230.948	162.81
231.166	150.53
231.384	91.13
231.601	23.55
231.819	166.91
232.037	-1.02
232.254	11.26
232.472	-17.41
232.689	-48.13
232.907	74.75
233.125	9.22
233.342	-9.22
233.56	-27.65
233.777	44.03
233.995	41.98
234.213	93.18
234.43	58.37
234.648	-11.26
234.865	44.03
235.083	68.61
235.3	138.24
235.518	95.23
235.735	148.48
235.953	134.14
236.17	39.94
236.388	54.27
236.605	52.22
236.822	105.47
237.04	132.09
237.257	37.89
237.475	-33.79
237.692	54.27
237.909	160.77
238.127	27.65
238.344	46.08
238.562	119.81
238.779	17.41
238.996	-46.08
239.214	13.31
239.431	62.46
239.648	-1.02
239.865	136.19
240.083	72.7
240.3	29.7
240.517	23.55
240.735	109.57
240.952	195.58
241.169	50.18
241.386	54.27
241.603	54.27
241.821	9.22
242.038	-3.07
242.255	109.57
242.472	1.02
242.689	128
242.907	56.32
243.124	35.84
243.341	101.37
243.558	44.03
243.775	-60.42
243.992	-58.37
244.209	91.13
244.426	144.38
244.643	89.09
244.86	1.02
245.078	187.39
245.295	177.15
245.512	-7.17
245.729	5.12
245.946	168.96
246.163	-17.41
246.38	21.5
246.597	46.08
246.814	17.41
247.031	1.02
247.248	50.18
247.464	128
247.681	66.56
247.898	46.08
248.115	19.46
248.332	25.6
248.549	97.28
248.766	117.76
248.983	99.33
249.2	70.65
249.417	173.05
249.633	-19.46
249.85	125.95
250.067	-9.22
250.284	50.18
250.501	107.52
250.717	-1.02
250.934	7.17
251.151	33.79
251.368	-5.12
251.585	50.18
251.801	-21.5
252.018	1.02
252.235	68.61
252.451	-31.74
252.668	-48.13
252.885	41.98
253.102	35.84
253.318	91.13
253.535	66.56
253.752	33.79
253.968	60.42
254.185	-78.85
254.401	80.89
254.618	3.07
254.835	-27.65
255.051	87.04
255.268	136.19
255.484	58.37
255.701	44.03
255.917	52.22
256.134	-39.94
256.351	25.6
256.567	27.65
256.784	56.32
257	9.22
257.217	115.71
257.433	183.29
257.65	168.96
257.866	146.43
258.082	-60.42
258.299	-23.55
258.515	113.66
258.732	56.32
258.948	-56.32
259.165	62.46
259.381	-68.61
259.597	82.94
259.814	107.52
260.03	1.02
260.246	-3.07
260.463	173.05
260.679	136.19
260.895	25.6
261.112	58.37
261.328	19.46
261.544	64.51
261.761	226.3
261.977	-1.02
262.193	-17.41
262.409	95.23
262.626	58.37
262.842	-58.37
263.058	-11.26
263.274	125.95
263.49	89.09
263.707	82.94
263.923	123.9
264.139	-23.55
264.355	-48.13
264.571	154.62
264.787	130.05
265.004	140.29
265.22	39.94
265.436	-27.65
265.652	-15.36
265.868	31.74
266.084	29.7
266.3	60.42
266.516	-48.13
266.732	35.84
266.948	54.27
267.164	54.27
267.38	179.2
267.596	46.08
267.812	37.89
268.028	7.17
268.244	64.51
268.46	58.37
268.676	-11.26
268.892	25.6
269.108	41.98
269.324	-41.98
269.54	27.65
269.756	148.48
269.972	-7.17
270.188	-9.22
270.403	-11.26
270.619	23.55
270.835	58.37
271.051	82.94
271.267	15.36
271.483	-58.37
271.698	144.38
271.914	84.99
272.13	68.61
272.346	27.65
272.562	52.22
272.777	89.09
272.993	50.18
273.209	80.89
273.425	78.85
273.64	-41.98
273.856	84.99
274.072	19.46
274.287	91.13
274.503	111.61
274.719	48.13
274.934	50.18
275.15	-37.89
275.366	76.8
275.581	-9.22
275.797	35.84
276.012	50.18
276.228	-11.26
276.444	56.32
276.659	70.65
276.875	33.79
277.09	48.13
277.306	29.7
277.521	37.89
277.737	82.94
277.952	105.47
278.168	52.22
278.383	68.61
278.599	11.26
278.814	27.65
279.03	119.81
279.245	168.96
279.461	87.04
279.676	44.03
279.892	-3.07
280.107	-31.74
280.322	35.84
280.538	70.65
280.753	31.74
280.969	29.7
281.184	-17.41
281.399	224.25
281.615	13.31
281.83	99.33
282.045	-5.12
282.26	19.46
282.476	-23.55
282.691	132.09
282.906	31.74
283.122	33.79
283.337	39.94
283.552	50.18
283.767	1.02
283.983	115.71
284.198	115.71
284.413	82.94
284.628	-27.65
284.843	33.79
285.058	91.13
285.274	7.17
285.489	7.17
285.704	82.94
285.919	41.98
286.134	107.52
286.349	78.85
286.564	50.18
286.779	132.09
286.995	-11.26
287.21	-44.03
287.425	60.42
287.64	23.55
287.855	136.19
288.07	-70.65
288.285	138.24
288.5	60.42
288.715	93.18
288.93	27.65
289.145	-1.02
289.36	97.28
289.575	72.7
289.79	113.66
290.004	-48.13
290.219	136.19
290.434	-48.13
290.649	17.41
290.864	11.26
291.079	56.32
291.294	74.75
291.509	33.79
291.724	-41.98
291.938	-9.22
292.153	84.99
292.368	50.18
292.583	97.28
292.798	119.81
293.012	54.27
293.227	64.51
293.442	15.36
293.657	128
293.871	93.18
294.086	68.61
294.301	121.85
294.516	144.38
294.73	70.65
294.945	-21.5
295.16	-1.02
295.374	150.53
295.589	181.25
295.804	-11.26
296.018	66.56
296.233	115.71
296.447	130.05
296.662	99.33
296.877	128
297.091	48.13
297.306	25.6
297.52	35.84
297.735	148.48
297.949	15.36
298.164	31.74
298.378	-37.89
298.593	-115.71
298.807	-66.56
299.022	27.65
299.236	148.48
299.451	60.42
299.665	-1.02
299.88	-5.12
300.094	111.61
300.309	25.6
300.523	-29.7
300.737	58.37
300.952	125.95
301.166	13.31
301.381	97.28
301.595	-31.74
301.809	78.85
302.024	-25.6
302.238	-58.37
302.452	111.61
302.667	140.29
302.881	177.15
303.095	58.37
303.309	87.04
303.524	82.94
303.738	-25.6
303.952	-11.26
304.166	91.13
304.381	-95.23
304.595	197.63
304.809	-74.75
305.023	82.94
305.237	23.55
305.452	-70.65
305.666	50.18
305.88	160.77
306.094	82.94
306.308	44.03
306.522	93.18
306.736	48.13
306.95	119.81
307.164	52.22
307.379	11.26
307.593	166.91
307.807	160.77
308.021	115.71
308.235	138.24
308.449	-136.19
308.663	76.8
308.877	193.53
309.091	76.8
309.305	5.12
309.519	15.36
309.733	132.09
309.947	-62.46
310.161	52.22
310.374	146.43
310.588	125.95
310.802	48.13
311.016	29.7
311.23	29.7
311.444	19.46
311.658	-7.17
311.872	189.44
312.085	171.01
312.299	168.96
312.513	121.85
312.727	60.42
312.941	-25.6
313.154	44.03
313.368	58.37
313.582	41.98
313.796	132.09
314.009	46.08
314.223	93.18
314.437	50.18
314.651	66.56
314.864	-3.07
315.078	27.65
315.292	-52.22
315.505	44.03
315.719	52.22
315.933	72.7
316.146	5.12
316.36	-23.55
316.573	119.81
316.787	89.09
317.001	82.94
317.214	-74.75
317.428	152.57
317.641	-97.28
317.855	48.13
318.068	117.76
318.282	64.51
318.495	236.54
318.709	175.1
318.922	25.6
319.136	109.57
319.349	119.81
319.563	21.5
319.776	134.14
319.99	-50.18
320.203	93.18
320.417	48.13
320.63	25.6
320.843	150.53
321.057	91.13
321.27	-5.12
321.483	121.85
321.697	168.96
321.91	87.04
322.124	103.42
322.337	66.56
322.55	-56.32
322.763	37.89
322.977	41.98
323.19	74.75
323.403	33.79
323.617	125.95
323.83	89.09
324.043	17.41
324.256	140.29
324.469	-17.41
324.683	162.81
324.896	109.57
325.109	101.37
325.322	-64.51
325.535	82.94
325.748	31.74
325.962	60.42
326.175	70.65
326.388	99.33
326.601	171.01
326.814	1.02
327.027	78.85
327.24	168.96
327.453	-136.19
327.666	87.04
327.879	109.57
328.092	41.98
328.305	123.9
328.518	21.5
328.731	74.75
328.944	-21.5
329.157	171.01
329.37	-76.8
329.583	162.81
329.796	128
330.009	-52.22
330.222	70.65
330.435	89.09
330.648	70.65
330.861	52.22
331.073	46.08
331.286	115.71
331.499	78.85
331.712	1.02
331.925	72.7
332.138	37.89
332.35	185.34
332.563	37.89
332.776	181.25
332.989	-46.08
333.202	-13.31
333.414	105.47
333.627	84.99
333.84	-9.22
334.053	74.75
334.265	5.12
334.478	82.94
334.691	95.23
334.903	95.23
335.116	64.51
335.329	7.17
335.541	109.57
335.754	193.53
335.966	44.03
336.179	50.18
336.392	56.32
336.604	33.79
336.817	76.8
337.029	37.89
337.242	64.51
337.454	113.66
337.667	60.42
337.88	154.62
338.092	109.57
338.305	33.79
338.517	27.65
338.729	113.66
338.942	250.88
339.154	1.02
339.367	-19.46
339.579	93.18
339.792	41.98
340.004	52.22
340.217	93.18
340.429	97.28
340.641	3.07
340.854	3.07
341.066	64.51
341.278	125.95
341.491	130.05
341.703	84.99
341.915	-17.41
342.128	1.02
342.34	48.13
342.552	-1.02
342.764	3.07
342.977	-1.02
343.189	33.79
343.401	48.13
343.613	-58.37
343.826	89.09
344.038	-31.74
344.25	99.33
344.462	37.89
344.674	66.56
344.886	-1.02
345.099	41.98
345.311	150.53
345.523	5.12
345.735	-27.65
345.947	31.74
346.159	95.23
346.371	72.7
346.583	27.65
346.795	197.63
347.007	-1.02
347.219	56.32
347.431	29.7
347.643	119.81
347.855	50.18
348.067	166.91
348.279	-13.31
348.491	80.89
348.703	76.8
348.915	101.37
349.127	-58.37
349.339	58.37
349.551	78.85
349.763	60.42
349.975	74.75
350.187	123.9
350.399	218.11
350.61	84.99
350.822	44.03
351.034	54.27
351.246	3.07
351.458	84.99
351.669	115.71
351.881	99.33
352.093	134.14
352.305	115.71
352.517	37.89
352.728	187.39
352.94	50.18
353.152	132.09
353.363	23.55
353.575	37.89
353.787	228.35
353.999	44.03
354.21	164.86
354.422	76.8
354.633	-11.26
354.845	-9.22
355.057	27.65
355.268	13.31
355.48	107.52
355.692	-7.17
355.903	44.03
356.115	-44.03
356.326	-39.94
356.538	144.38
356.749	132.09
356.961	97.28
357.172	128
357.384	33.79
357.595	134.14
357.807	56.32
358.018	9.22
358.23	46.08
358.441	162.81
358.653	113.66
358.864	37.89
359.075	54.27
359.287	62.46
359.498	154.62
359.709	111.61
359.921	105.47
360.132	78.85
360.344	54.27
360.555	39.94
360.766	15.36
360.977	-3.07
361.189	166.91
361.4	11.26
361.611	119.81
361.823	168.96
362.034	130.05
362.245	-23.55
362.456	62.46
362.667	31.74
362.879	13.31
363.09	21.5
363.301	103.42
363.512	60.42
363.723	3.07
363.935	46.08
364.146	-3.07
364.357	15.36
364.568	152.57
364.779	-50.18
364.99	216.06
365.201	13.31
365.412	158.72
365.623	-97.28
365.834	132.09
366.045	44.03
366.256	64.51
366.467	117.76
366.678	-27.65
366.889	-9.22
367.1	-35.84
367.311	136.19
367.522	35.84
367.733	156.67
367.944	103.42
368.155	33.79
368.366	162.81
368.577	117.76
368.788	138.24
368.999	97.28
369.209	-9.22
369.42	203.77
369.631	281.6
369.842	99.33
370.053	121.85
370.264	136.19
370.474	-29.7
370.685	13.31
370.896	25.6
371.107	93.18
371.317	76.8
371.528	115.71
371.739	70.65
371.95	152.57
372.16	41.98
372.371	-3.07
372.582	-21.5
372.792	50.18
373.003	119.81
373.214	97.28
373.424	154.62
373.635	-1.02
373.846	70.65
374.056	70.65
374.267	97.28
374.477	78.85
374.688	-15.36
374.898	78.85
375.109	70.65
375.319	-31.74
375.53	68.61
375.74	132.09
375.951	-9.22
376.161	76.8
376.372	119.81
376.582	37.89
376.793	39.94
377.003	27.65
377.214	31.74
377.424	58.37
377.635	48.13
377.845	-5.12
378.055	58.37
378.266	-62.46
378.476	64.51
378.686	91.13
378.897	76.8
379.107	119.81
379.317	158.72
379.528	35.84
379.738	101.37
379.948	72.7
380.158	66.56
380.369	89.09
380.579	113.66
380.789	33.79
380.999	62.46
381.21	82.94
381.42	183.29
381.63	62.46
381.84	130.05
382.05	70.65
382.261	130.05
382.471	156.67
382.681	25.6
382.891	166.91
383.101	87.04
383.311	39.94
383.521	-46.08
383.731	74.75
383.941	74.75
384.151	27.65
384.361	56.32
384.571	93.18
384.781	99.33
384.991	173.05
385.201	214.01
385.411	117.76
385.621	175.1
385.831	119.81
386.041	39.94
386.251	23.55
386.461	181.25
386.671	21.5
386.881	97.28
387.091	58.37
387.301	84.99
387.511	-7.17
387.72	136.19
387.93	111.61
388.14	-56.32
388.35	115.71
388.56	107.52
388.769	138.24
388.979	140.29
389.189	-23.55
389.399	46.08
389.609	119.81
389.818	70.65
390.028	35.84
390.238	76.8
390.447	3.07
390.657	60.42
390.867	44.03
391.076	-19.46
391.286	107.52
391.496	19.46
391.705	91.13
391.915	105.47
392.125	91.13
392.334	29.7
392.544	148.48
392.753	68.61
392.963	-23.55
393.172	54.27
393.382	87.04
393.591	199.68
393.801	-3.07
394.01	181.25
394.22	125.95
394.429	52.22
394.639	-76.8
394.848	5.12
395.058	72.7
395.267	3.07
395.477	72.7
395.686	91.13
395.895	238.59
396.105	191.49
396.314	60.42
396.524	74.75
396.733	48.13
396.942	128
397.152	54.27
397.361	132.09
397.57	111.61
397.78	9.22
397.989	130.05
398.198	267.26
398.407	87.04
398.617	-13.31
398.826	93.18
399.035	44.03
399.244	132.09
399.453	78.85
399.663	39.94
399.872	93.18
400.081	33.79
400.29	158.72
400.499	23.55
400.708	119.81
400.917	41.98
401.127	-11.26
401.336	11.26
401.545	175.1
401.754	119.81
401.963	123.9
402.172	23.55
402.381	-13.31
402.59	95.23
402.799	-33.79
403.008	128
403.217	115.71
403.426	62.46
403.635	-23.55
403.844	97.28
404.053	23.55
404.262	80.89
404.471	185.34
404.68	56.32
404.888	46.08
405.097	31.74
405.306	21.5
405.515	82.94
405.724	107.52
405.933	82.94
406.142	156.67
406.35	103.42
406.559	128
406.768	41.98
406.977	91.13
407.185	74.75
407.394	15.36
407.603	3.07
407.812	31.74
408.02	99.33
408.229	62.46
408.438	117.76
408.646	21.5
408.855	72.7
409.064	111.61
409.272	82.94
409.481	109.57
409.69	-11.26
409.898	54.27
410.107	1.02
410.315	111.61
410.524	15.36
410.733	50.18
410.941	89.09
411.15	109.57
411.358	173.05
411.567	175.1
411.775	19.46
411.984	-3.07
412.192	164.86
412.401	-27.65
412.609	123.9
412.818	158.72
413.026	154.62
413.234	66.56
413.443	117.76
413.651	-72.7
413.86	136.19
414.068	179.2
414.276	205.82
414.485	-13.31
414.693	119.81
414.901	232.44
415.11	33.79
415.318	44.03
415.526	70.65
415.734	123.9
415.943	95.23
416.151	150.53
416.359	48.13
416.567	27.65
416.776	46.08
416.984	152.57
417.192	211.96
417.4	115.71
417.608	58.37
417.817	13.31
418.025	115.71
418.233	214.01
418.441	-68.61
418.649	60.42
418.857	23.55
419.065	128
419.273	41.98
419.481	31.74
419.689	11.26
419.897	60.42
420.105	-56.32
420.313	99.33
420.521	236.54
420.729	64.51
420.937	31.74
421.145	-39.94
421.353	154.62
421.561	199.68
421.769	115.71
421.977	50.18
422.185	128
422.393	111.61
422.601	121.85
422.809	70.65
423.017	25.6
423.224	66.56
423.432	84.99
423.64	64.51
423.848	138.24
424.056	48.13
424.263	146.43
424.471	99.33
424.679	183.29
424.887	-48.13
425.094	115.71
425.302	87.04
425.51	78.85
425.718	171.01
425.925	56.32
426.133	37.89
426.341	246.78
426.548	115.71
426.756	58.37
426.964	130.05
427.171	5.12
427.379	136.19
427.586	70.65
427.794	91.13
428.001	136.19
428.209	138.24
428.417	142.33
428.624	132.09
428.832	111.61
429.039	74.75
429.247	152.57
429.454	144.38
429.662	224.25
429.869	226.3
430.076	183.29
430.284	171.01
430.491	214.01
430.699	261.12
430.906	205.82
431.114	80.89
431.321	185.34
431.528	105.47
431.736	107.52
431.943	132.09
432.15	117.76
432.358	183.29
432.565	222.2
432.772	66.56
432.979	261.12
433.187	148.48
433.394	185.34
433.601	187.39
433.808	285.69
434.016	197.63
434.223	275.45
434.43	220.16
434.637	254.97
434.844	347.13
435.052	263.16
435.259	252.92
435.466	377.85
435.673	340.99
435.88	338.94
436.087	302.08
436.294	351.23
436.501	478.2
436.708	314.36
436.915	365.56
437.122	369.66
437.329	304.12
437.537	406.52
437.743	322.56
437.95	463.86
438.157	513.02
438.364	515.06
438.571	486.39
438.778	510.97
438.985	521.21
439.192	584.7
439.399	607.22
439.606	502.78
439.813	594.93
440.02	748.53
440.227	754.68
440.433	623.61
440.64	562.17
440.847	513.02
441.054	635.89
441.261	814.07
441.467	750.58
441.674	699.38
441.881	769.01
442.088	664.57
442.294	846.84
442.501	887.79
442.708	1061.87
442.914	791.54
443.121	1029.1
443.328	934.9
443.534	1125.36
443.741	967.67
443.948	996.34
444.154	1133.55
444.361	1313.77
444.568	1221.61
444.774	1227.76
444.981	1164.27
445.187	1440.75
445.394	1432.55
445.6	1352.68
445.807	1522.66
446.013	1547.24
446.22	1444.84
446.426	1704.93
446.633	1727.46
446.839	1883.11
447.046	1631.21
447.252	1928.16
447.459	1870.82
447.665	1793
447.871	2085.86
448.078	2159.58
448.284	2268.13
448.491	2272.22
448.697	2444.25
448.903	2558.94
449.11	2698.2
449.316	2491.35
449.522	2704.34
449.728	2853.84
449.935	2894.8
450.141	2960.34
450.347	3161.04
450.553	3091.41
450.76	3277.77
450.966	3357.64
451.172	3427.28
451.378	3679.18
451.584	3724.23
451.791	4004.8
451.997	4010.95
452.203	4113.35
452.409	4240.32
452.615	4524.99
452.821	4373.44
453.027	4473.79
453.233	5088.18
453.44	4760.5
453.646	5127.09
453.852	5430.19
454.058	5553.07
454.264	5669.8
454.47	5987.24
454.676	6157.22
454.882	6785.94
455.088	6388.64
455.294	6669.21
455.5	7195.54
455.705	7664.52
455.911	7644.04
456.117	7906.18
456.323	8006.53
456.529	7947.14
456.735	8874.87
456.941	9175.92
457.147	9323.38
457.352	9653.1
457.558	9800.55
457.764	10804.06
457.97	10658.65
458.176	11174.74
458.381	11803.47
458.587	11858.76
458.793	12581.7
458.999	12573.5
459.204	14023.47
459.41	14424.87
459.616	14314.28
459.821	15174.42
460.027	15993.61
460.233	16438.02
460.438	16694.02
460.644	17560.31
460.85	17957.61
461.055	18617.06
461.261	19671.76
461.466	18893.54
461.672	19456.73
461.878	21766.84
462.083	21430.97
462.289	21789.36
462.494	22721.19
462.7	22917.79
462.905	23257.76
463.111	25170.56
463.316	26286.7
463.522	26759.78
463.727	27726.42
463.932	28588.62
464.138	29962.81
464.343	30911.02
464.549	30921.26
464.754	33057.29
464.959	34013.69
465.165	34417.14
465.37	33966.59
465.575	34175.48
465.781	36710.86
465.986	37726.66
466.191	37081.55
466.397	37525.96
466.602	36987.34
466.807	38764.98
467.012	39098.8
467.218	39840.16
467.423	40161.69
467.628	41245.07
467.833	42973.55
468.038	42533.24
468.244	41410.95
468.449	43874.66
468.654	42772.85
468.859	42944.88
469.064	43084.14
469.269	41783.68
469.474	42451.32
469.679	43344.23
469.885	42047.87
470.09	42867.06
470.295	43198.83
470.5	41836.93
470.705	42271.1
470.91	40888.72
471.115	40778.13
471.32	41582.98
471.525	41200.01
471.73	39774.63
471.935	39694.75
472.139	37773.76
472.344	38263.22
472.549	38222.26
472.754	36989.39
472.959	36057.56
473.164	35068.39
473.369	34492.91
473.574	35908.06
473.778	34800.11
473.983	34447.86
474.188	33790.46
474.393	31898.14
474.598	31863.32
474.802	31054.37
475.007	31062.57
475.212	30730.8
475.417	29444.67
475.621	28992.07
475.826	28815.94
476.031	28050
476.235	27533.92
476.44	27570.78
476.645	26806.89
476.849	26888.81
477.054	26139.25
477.259	25545.34
477.463	25692.79
477.668	24926.85
477.872	24771.21
478.077	24205.97
478.282	23544.47
478.486	23454.36
478.691	22788.77
478.895	22682.28
479.1	22766.24
479.304	22297.26
479.509	21588.66
479.713	22098.61
479.918	21265.08
480.122	21113.53
480.326	21199.55
480.531	21097.15
480.735	20742.85
480.94	20310.73
481.144	21238.46
481.348	19968.72
481.553	20019.92
481.757	19507.93
481.961	19788.5
482.166	20024.01
482.37	19432.15
482.574	19335.9
482.778	19010.27
482.983	19282.65
483.187	19086.04
483.391	18952.93
483.595	18852.58
483.8	18369.26
484.004	18479.85
484.208	18391.78
484.412	18197.23
484.616	17943.28
484.821	17738.48
485.025	17302.26
485.229	17406.71
485.433	16982.78
485.637	16878.33
485.841	16630.53
486.045	16419.59
486.249	16478.98
486.453	15858.45
486.657	15706.9
486.861	15475.48
487.065	14975.77
487.269	15072.03
487.473	14521.12
487.677	14691.1
487.881	14492.45
488.085	14033.71
488.289	14039.85
488.493	13433.65
488.697	13419.32
488.901	13130.55
489.105	12919.61
489.309	12792.64
489.512	12436.29
489.716	12178.25
489.92	12000.07
490.124	11758.41
490.328	12030.79
490.531	11496.27
490.735	11328.34
490.939	11064.15
491.143	10933.08
491.346	10826.59
491.55	10455.9
491.754	10421.09
491.958	10294.11
492.161	10191.72
492.365	10128.23
492.569	9745.26
492.772	9632.62
492.976	9644.91
493.18	9331.57
493.383	9345.91
493.587	9225.08
493.79	9282.42
493.994	8717.18
494.197	8946.55
494.401	8881.02
494.605	8614.78
494.808	8627.07
495.012	8530.81
495.215	8475.52
495.419	8698.75
495.622	8119.17
495.825	8283.01
496.029	8227.71
496.232	8328.06
496.436	8106.88
496.639	8448.9
496.843	8133.51
497.046	8330.11
497.249	8274.82
497.453	8184.71
497.656	8291.2
497.859	8147.84
498.063	8158.08
498.266	8340.35
498.469	8061.83
498.673	8348.54
498.876	8156.04
499.079	8289.15
499.282	8254.34
499.485	8741.75
499.689	8799.1
499.892	8631.16
500.095	8414.08
500.298	8711.04
500.501	8577.92
500.705	8725.37
500.908	8807.29
501.111	8819.58
501.314	9098.1
501.517	9137.01
501.72	9194.36
501.923	9075.57
502.126	9329.52
502.329	9638.76
502.532	9528.17
502.735	9476.98
502.938	9929.58
503.141	9710.44
503.344	9970.54
503.547	10242.92
503.75	10197.86
503.953	10396.51
504.156	10472.29
504.359	10609.5
504.562	10945.37
504.765	10754.91
504.968	11107.16
505.17	11209.56
505.373	11428.69
505.576	11768.65
505.779	11871.05
505.982	11983.69
506.185	12188.49
506.387	12079.94
506.59	12485.44
506.793	12657.47
506.996	12899.13
507.198	13357.88
507.401	13429.56
507.604	13957.93
507.807	14091.05
508.009	14383.91
508.212	14463.78
508.415	14836.51
508.617	15158.04
508.82	15428.37
509.022	15430.42
509.225	16364.29
509.428	16556.8
509.63	16550.66
509.833	16886.53
510.035	17820.4
510.238	17699.57
510.44	18137.84
510.643	18590.44
510.845	19079.9
511.048	19358.42
511.25	19825.36
511.453	20273.87
511.655	21115.58
511.858	21172.92
512.06	21854.9
512.262	22020.78
512.465	22457
512.667	22909.6
512.87	23669.4
513.072	23999.12
513.274	24689.29
513.477	25240.19
513.679	25746.04
513.881	26634.86
514.084	27183.71
514.286	27392.61
514.488	28047.96
514.69	28889.67
514.893	29397.57
515.095	30071.35
515.297	30743.08
515.499	30945.83
515.701	31928.86
515.904	32500.24
516.106	33110.53
516.308	34142.71
516.51	34445.81
516.712	35058.15
516.914	35875.29
517.116	36837.84
517.318	37108.17
517.52	37413.32
517.722	38107.58
517.925	39049.64
518.127	39979.42
518.329	40610.2
518.531	40993.17
518.733	41814.4
518.935	42887.54
519.136	42561.91
519.338	44077.41
519.54	44872.02
519.742	45265.23
519.944	45539.66
520.146	46696.76
520.348	47110.45
520.55	47317.29
520.752	48130.34
520.954	49027.35
521.155	48943.38
521.357	49959.17
521.559	50290.94
521.761	51599.6
521.963	51110.13
522.164	51603.69
522.366	52056.29
522.568	52762.84
522.77	52771.03
522.971	54008.01
523.173	53422.29
523.375	53971.14
523.576	53559.5
523.778	54204.61
523.98	55105.72
524.181	55242.93
524.383	55425.2
524.584	55703.73
524.786	55531.7
524.988	55281.84
525.189	56330.4
525.391	55748.78
525.592	56228.01
525.794	56035.5
525.995	55980.2
526.197	55984.3
526.398	55865.52
526.6	55451.83
526.801	55218.36
527.003	55302.32
527.204	55300.28
527.406	55140.53
527.607	54792.38
527.808	54823.1
528.01	53752.01
528.211	54075.59
528.412	54460.61
528.614	53821.64
528.815	53528.78
529.016	53643.47
529.218	52066.53
529.419	52570.33
529.62	51480.81
529.822	50901.24
530.023	51050.74
530.224	50686.2
530.425	49809.67
530.626	48605.47
530.828	48562.46
531.029	49000.72
531.23	47491.37
531.431	47343.92
531.632	46768.44
531.833	46397.76
532.035	45814.08
532.236	45381.96
532.437	45142.35
532.638	44331.36
532.839	43624.81
533.04	43360.62
533.241	42348.92
533.442	42652.02
533.643	41550.21
533.844	40837.52
534.045	40346.01
534.246	39682.47
534.447	39565.73
534.648	38785.46
534.849	38347.19
535.05	37544.39
535.251	37441.99
535.451	36725.2
535.652	36882.89
535.853	35654.11
536.054	35604.96
536.255	35170.79
536.456	34257.4
536.657	34017.78
536.857	33368.58
537.058	32846.35
537.259	32936.46
537.46	32004.63
537.66	32057.88
537.861	31386.15
538.062	30913.06
538.263	30550.57
538.463	29919.8
538.664	29971
538.865	29659.71
539.065	29313.6
539.266	28510.8
539.466	28533.32
539.667	27560.54
539.868	27796.06
540.068	27267.68
540.269	26868.33
540.469	26964.58
540.67	26258.03
540.87	25852.53
541.071	25516.67
541.271	25414.27
541.472	25137.79
541.672	24992.39
541.873	24240.78
542.073	24150.67
542.274	24050.32
542.474	23642.78
542.675	23523.99
542.875	23141.02
543.075	22934.18
543.276	22715.05
543.476	22598.31
543.676	22041.26
543.877	22205.1
544.077	21521.08
544.277	21179.07
544.478	21177.02
544.678	21232.32
544.878	20669.12
545.078	20572.87
545.279	20249.29
545.479	20013.77
545.679	19956.43
545.879	19649.24
546.079	19407.58
546.28	19129.05
546.48	18991.84
546.68	18926.3
546.88	18502.37
547.08	18277.1
547.28	18193.13
547.48	17685.23
547.68	17545.97
547.88	17173.24
548.081	17165.05
548.281	17140.47
548.481	16702.21
548.681	16718.59
548.881	16446.21
549.081	16161.55
549.28	15870.73
549.48	15749.9
549.68	15229.72
549.88	15401.75
550.08	14711.58
550.28	14838.56
550.48	14611.23
550.68	14441.25
550.88	14271.27
551.08	13931.31
551.279	14052.14
551.479	13568.82
551.679	13617.97
551.879	13200.18
552.079	13144.89
552.278	12606.27
552.478	12690.24
552.678	12598.08
552.878	12387.14
553.077	12094.28
553.277	11680.59
553.477	11924.3
553.676	11551.57
553.876	11385.68
554.076	11232.08
554.275	10943.32
554.475	10709.85
554.674	10773.34
554.874	10699.61
555.074	10136.42
555.273	10126.18
555.473	10099.56
555.672	9962.34
555.872	9798.51
556.071	9442.16
556.271	9687.92
556.47	9358.19
556.67	8909.69
556.869	8713.08
557.068	8555.39
557.268	8530.81
557.467	8381.31
557.667	8512.38
557.866	8307.59
558.065	7947.14
558.265	8051.59
558.464	7740.3
558.663	7746.44
558.863	7568.27
559.062	7574.41
559.261	7283.6
559.461	7377.81
559.66	7234.45
559.859	7009.17
560.058	6845.34
560.258	6632.35
560.457	6671.26
560.656	6751.13
560.855	6237.09
561.054	6417.31
561.253	6306.72
561.453	6099.87
561.652	6058.92
561.851	5993.38
562.05	5837.73
562.249	5641.13
562.448	5684.14
562.647	5610.41
562.846	5395.37
563.045	5438.38
563.244	5469.1
563.443	5329.84
563.642	5180.34
563.841	5161.91
564.04	5133.23
564.239	5073.84
564.438	4867
564.637	4836.28
564.836	4717.5
565.035	4631.48
565.234	4692.92
565.432	4543.42
565.631	4457.4
565.83	4312
566.029	4434.88
566.228	4393.92
566.427	4375.49
566.625	3951.56
566.824	4211.65
567.023	3972.04
567.222	3949.51
567.42	3961.8
567.619	3982.28
567.818	3847.11
568.016	3793.86
568.215	3767.24
568.414	3787.72
568.612	3679.18
568.811	3603.4
569.01	3531.72
569.208	3349.45
569.407	3529.67
569.605	3392.46
569.804	3341.26
570.002	3263.44
570.201	3255.25
570.4	3154.9
570.598	3146.7
570.797	3138.51
570.995	3017.68
571.193	3011.54
571.392	3054.55
571.59	2849.75
571.789	2937.81
571.987	2927.57
572.186	2909.14
572.384	2593.75
572.582	2847.7
572.781	2749.4
572.979	2583.51
573.177	2526.17
573.376	2526.17
573.574	2632.66
573.772	2560.98
573.971	2409.44
574.169	2296.8
574.367	2272.22
574.565	2364.38
574.763	2286.56
574.962	2122.72
575.16	2360.28
575.358	2079.71
575.556	2071.52
575.754	2128.86
575.952	2124.77
576.151	2198.49
576.349	2010.08
576.547	1887.2
576.745	1887.2
576.943	1881.06
577.141	1940.45
577.339	1770.47
577.537	1864.68
577.735	1901.54
577.933	1790.95
578.131	1698.79
578.329	1840.1
578.527	1590.25
578.725	1778.66
578.923	1528.81
579.121	1620.97
579.319	1432.55
579.516	1487.85
579.714	1745.89
579.912	1545.19
580.11	1432.55
580.308	1362.92
580.506	1440.75
580.704	1332.2
580.901	1266.67
581.099	1528.81
581.297	1350.64
581.495	1340.4
581.692	1352.68
581.89	1461.23
582.088	1266.67
582.285	1301.48
582.483	1225.71
582.681	1219.57
582.878	1192.94
583.076	1156.08
583.274	1180.65
583.471	1215.47
583.669	1211.37
583.866	1147.89
584.064	1053.68
584.262	1008.62
584.459	1080.3
584.657	1108.98
584.854	1113.07
585.052	1080.3
585.249	994.29
585.447	1031.15
585.644	826.36
585.841	1039.34
586.039	1039.34
586.236	1037.3
586.434	887.79
586.631	861.17
586.828	848.88
587.026	893.94
587.223	787.44
587.42	703.48
587.618	873.46
587.815	953.33
588.012	912.37
588.21	812.02
588.407	834.55
588.604	902.13
588.801	777.2
588.999	867.31
589.196	867.31
589.393	824.31
589.59	736.24
589.787	828.4
589.984	769.01
590.182	865.27
590.379	736.24
590.576	797.68
590.773	715.77
590.97	730.1
591.167	791.54
591.364	785.4
591.561	666.61
591.758	789.49
591.955	832.5
592.152	644.09
592.349	734.2
592.546	629.75
592.743	683
592.94	646.13
593.137	881.65
593.334	756.72
593.531	801.78
593.727	801.78
593.924	838.64
594.121	746.48
594.318	742.39
594.515	760.82
594.712	865.27
594.908	814.07
595.105	656.37
595.302	748.53
595.499	787.44
595.696	955.38
595.892	820.21
596.089	934.9
596.286	824.31
596.482	924.66
596.679	889.84
596.876	771.06
597.072	961.52
597.269	893.94
597.466	941.04
597.662	1037.3
597.859	949.23
598.055	1010.67
598.252	1129.45
598.448	1092.59
598.645	1131.5
598.841	1102.83
599.038	1354.73
599.234	1338.35
599.431	1266.67
599.627	1321.96
599.824	1477.61
600.02	1410.03
600.217	1391.59
600.413	1584.1
600.609	1633.26
600.806	1866.72
601.002	1893.35
601.198	1747.94
601.395	1928.16
601.591	1954.79
601.787	1942.5
601.984	2110.43
602.18	2167.77
602.376	2188.25
602.572	2282.46
602.769	2442.2
602.965	2323.42
603.161	2448.35
603.357	2782.17
603.553	2890.71
603.75	2690.01
603.946	2909.14
604.142	3054.55
604.338	3177.42
604.534	3384.27
604.73	3419.08
604.926	3449.8
605.122	3656.65
605.318	3646.41
605.514	3984.32
605.71	3904.45
605.906	4121.54
606.102	4109.25
606.298	4219.84
606.494	4551.61
606.69	4545.47
606.886	4486.08
607.082	4676.54
607.278	4879.29
607.474	5090.23
607.67	5313.45
607.866	5245.87
608.062	5456.81
608.257	5567.4
608.453	5682.09
608.649	6083.49
608.845	6036.39
609.041	6321.06
609.236	6411.17
609.432	6454.17
609.628	6804.38
609.824	6734.75
610.019	7148.43
610.215	7216.02
610.411	7461.77
610.606	7701.39
610.802	7771.02
610.998	8086.4
611.193	8342.4
611.389	8153.99
611.584	8688.51
611.78	8768.38
611.976	9014.13
612.171	9542.51
612.367	9796.46
612.562	9905
612.758	10101.61
612.953	10287.97
613.149	10713.95
613.344	11019.1
613.539	11174.74
613.735	11762.51
613.93	11946.83
614.126	12057.42
614.321	12690.24
614.517	12790.59
614.712	13165.37
614.907	13269.81
615.103	13689.65
615.298	13964.07
615.493	14707.49
615.688	14592.8
615.884	15457.04
616.079	15604.5
616.274	15971.08
616.47	16239.37
616.665	16757.5
616.86	17265.4
617.055	17640.18
617.25	17771.25
617.445	18674.4
617.641	18848.48
617.836	19397.34
618.031	19346.14
618.226	20470.47
618.421	20493
618.616	21336.76
618.811	21562.04
619.006	22370.99
619.201	22481.58
619.396	22872.74
619.591	23579.29
619.786	24248.97
619.981	24603.27
620.176	25295.49
620.371	25367.16
620.566	26182.26
620.761	26935.91
620.956	27683.42
621.151	27415.13
621.346	28537.42
621.541	28795.46
621.735	29665.85
621.93	29426.24
622.125	30421.55
622.32	30419.5
622.515	31803.93
622.709	31654.43
622.904	32907.79
623.099	33161.73
623.294	33921.53
623.488	33933.82
623.683	35146.22
623.878	35224.04
624.072	36098.52
624.267	36641.23
624.462	36913.61
624.656	37089.74
624.851	38431.16
625.046	38541.75
625.24	39547.3
625.435	39469.48
625.629	40145.31
625.824	40798.61
626.018	41142.67
626.213	40896.91
626.407	41931.14
626.602	41955.71
626.796	42908.02
626.991	43405.67
627.185	43600.23
627.38	43733.35
627.574	43854.18
627.768	44323.16
627.963	43936.1
628.157	44124.51
628.352	44925.27
628.546	44138.85
628.74	45095.25
628.935	44530.01
629.129	44695.89
629.323	44366.17
629.517	44190.05
629.712	43657.57
629.906	43266.41
630.1	43090.29
630.294	43110.77
630.489	41896.32
630.683	41478.54
630.877	40987.02
631.071	40139.16
631.265	39815.58
631.459	38984.11
631.653	37638.59
631.848	37241.29
632.042	36008.41
632.236	35566.05
632.43	34238.97
632.624	33540.61
632.818	32254.48
633.012	31224.36
633.206	30270
633.4	29602.36
633.594	28293.71
633.788	27556.44
633.982	26835.56
634.176	25518.71
634.369	24730.25
634.563	23937.68
634.757	22366.89
634.951	22149.81
635.145	21181.12
635.339	20130.51
635.533	19321.56
635.726	18893.54
635.92	17816.3
636.114	17261.3
636.308	16325.38
636.501	16032.52
636.695	15305.49
636.889	14517.03
637.083	13861.68
637.276	13339.44
637.47	12917.56
637.664	12264.26
637.857	11823.95
638.051	11492.18
638.244	10967.9
638.438	10466.14
638.632	10126.18
638.825	9530.22
639.019	9497.46
639.212	8749.95
639.406	8584.06
639.599	8211.33
639.793	7918.47
639.986	7299.98
640.18	7193.49
640.373	6978.45
640.567	6724.51
640.76	6527.9
640.954	6237.09
641.147	5981.09
641.34	5661.61
641.534	5514.16
641.727	5495.72
641.92	5348.27
642.114	4897.72
642.307	4785.08
642.5	4535.23
642.694	4389.82
642.887	4334.53
643.08	4258.75
643.273	4015.04
643.467	3845.06
643.66	3484.62
643.853	3361.74
644.046	3464.14
644.239	3247.05
644.432	2927.57
644.626	2847.7
644.819	2917.33
645.012	2847.7
645.205	2642.9
645.398	2595.8
645.591	2388.96
645.784	2243.55
645.977	2296.8
646.17	2032.61
646.363	2063.33
646.556	1942.5
646.749	1887.2
646.942	1872.87
647.135	1883.11
647.328	1704.93
647.521	1715.17
647.714	1557.48
647.907	1561.58
648.099	1448.94
648.292	1547.24
648.485	1444.84
648.678	1328.11
648.871	1278.96
649.064	1289.2
649.256	1170.41
649.449	1096.69
649.642	934.9
649.835	1070.06
650.027	924.66
650.22	1053.68
650.413	879.6
650.605	1061.87
650.798	873.46
650.991	883.7
651.183	852.98
651.376	764.92
651.568	826.36
651.761	809.97
651.954	803.83
652.146	740.34
652.339	721.91
652.531	750.58
652.724	658.42
652.916	586.74
653.109	486.39
653.301	721.91
653.494	642.04
653.686	568.31
653.879	596.98
654.071	517.11
654.263	498.68
654.456	465.91
654.648	590.84
654.84	476.15
655.033	449.53
655.225	588.79
655.417	345.08
655.61	506.87
655.802	498.68
655.994	494.58
656.186	357.37
656.379	461.82
656.571	361.47
656.763	349.18
656.955	340.99
657.148	351.23
657.34	420.86
657.532	422.91
657.724	357.37
657.916	291.84
658.108	371.71
658.3	416.76
658.492	363.51
658.684	232.44
658.876	318.46
659.068	150.53
659.26	234.49
659.452	173.05
659.644	324.6
659.836	371.71
660.028	304.12
660.22	156.67
660.412	236.54
660.604	259.07
660.796	250.88
660.988	361.47
661.18	238.59
661.372	257.02
661.563	254.97
661.755	234.49
661.947	148.48
662.139	181.25
662.331	279.55
662.522	234.49
662.714	158.72
662.906	185.34
663.097	148.48
663.289	244.73
663.481	48.13
663.673	185.34
663.864	201.72
664.056	183.29
664.247	130.05
664.439	304.12
664.631	132.09
664.822	216.06
665.014	179.2
665.205	123.9
665.397	144.38
665.588	144.38
665.78	214.01
665.971	211.96
666.163	140.29
666.354	148.48
666.546	103.42
666.737	242.68
666.929	99.33
667.12	95.23
667.311	185.34
667.503	164.86
667.694	244.73
667.885	148.48
668.077	240.64
668.268	128
668.459	144.38
668.651	158.72
668.842	189.44
669.033	150.53
669.224	142.33
669.416	263.16
669.607	136.19
669.798	109.57
669.989	230.4
670.18	162.81
670.371	156.67
670.563	-35.84
670.754	318.46
670.945	162.81
671.136	193.53
671.327	136.19
671.518	263.16
671.709	222.2
671.9	177.15
672.091	271.36
672.282	236.54
672.473	146.43
672.664	154.62
672.855	175.1
673.046	195.58
673.237	216.06
673.428	171.01
673.619	146.43
673.809	179.2
674	156.67
674.191	218.11
674.382	164.86
674.573	146.43
674.764	199.68
674.954	248.83
675.145	117.76
675.336	99.33
675.527	60.42
675.717	101.37
675.908	175.1
676.099	173.05
676.289	201.72
676.48	109.57
676.671	148.48
676.861	162.81
677.052	201.72
677.243	144.38
677.433	105.47
677.624	232.44
677.814	242.68
678.005	166.91
678.195	244.73
678.386	128
678.576	248.83
678.767	58.37
678.957	207.87
679.148	273.4
679.338	295.93
679.529	267.26
679.719	166.91
679.909	265.21
680.1	259.07
680.29	189.44
680.481	189.44
680.671	218.11
680.861	177.15
681.052	322.56
681.242	113.66
681.432	261.12
681.622	242.68
681.813	89.09
682.003	152.57
682.193	119.81
682.383	222.2
682.573	173.05
682.764	146.43
682.954	201.72
683.144	324.6
683.334	203.77
683.524	195.58
683.714	314.36
683.904	254.97
684.094	232.44
684.284	224.25
684.474	437.24
684.664	293.88
684.854	320.51
685.044	263.16
685.234	248.83
685.424	265.21
685.614	271.36
685.804	400.38
685.994	271.36
686.184	222.2
686.374	279.55
686.564	267.26
686.753	302.08
686.943	183.29
687.133	189.44
687.323	199.68
687.513	236.54
687.702	222.2
687.892	214.01
688.082	275.45
688.272	404.47
688.461	283.64
688.651	361.47
688.841	285.69
689.03	218.11
689.22	224.25
689.41	254.97
689.599	218.11
689.789	160.77
689.979	394.23
690.168	279.55
690.358	230.4
690.547	214.01
690.737	271.36
690.926	242.68
691.116	226.3
691.305	312.32
691.495	252.92
691.684	168.96
691.874	224.25
692.063	222.2
692.252	250.88
692.442	261.12
692.631	166.91
692.82	261.12
693.01	314.36
693.199	246.78
693.388	218.11
693.578	267.26
693.767	312.32
693.956	244.73
694.146	291.84
694.335	232.44
694.524	211.96
694.713	334.84
694.902	189.44
695.092	244.73
695.281	187.39
695.47	248.83
695.659	205.82
695.848	146.43
696.037	125.95
696.226	302.08
696.415	168.96
696.604	371.71
696.793	187.39
696.982	222.2
697.171	246.78
697.36	183.29
697.549	181.25
697.738	99.33
697.927	177.15
698.116	101.37
698.305	302.08
698.494	209.92
698.683	230.4
698.872	349.18
699.061	193.53
699.25	173.05
699.438	267.26
699.627	152.57
699.816	322.56
700.005	82.94
700.193	203.77
700.382	328.7
700.571	232.44
700.76	250.88
700.948	302.08
701.137	254.97
701.326	263.16
701.514	152.57
701.703	218.11
701.892	273.4
702.08	365.56
702.269	185.34
702.457	257.02
702.646	134.14
702.834	240.64
703.023	246.78
703.212	259.07
703.4	177.15
703.589	125.95
703.777	128
703.965	146.43
704.154	177.15
704.342	93.18
704.531	136.19
704.719	211.96
704.907	336.89
705.096	146.43
705.284	226.3
705.472	244.73
705.661	218.11
705.849	246.78
706.037	340.99
706.226	224.25
706.414	265.21
706.602	164.86
706.79	201.72
706.979	128
707.167	177.15
707.355	72.7
707.543	232.44
707.731	201.72
707.919	244.73
708.107	234.49
708.296	142.33
708.484	134.14
708.672	244.73
708.86	191.49
709.048	203.77
709.236	162.81
709.424	273.4
709.612	355.32
709.8	54.27
709.988	205.82
710.176	265.21
710.364	269.31
710.551	226.3
710.739	179.2
710.927	140.29
711.115	250.88
711.303	226.3
711.491	291.84
711.679	193.53
711.866	312.32
712.054	226.3
712.242	261.12
712.43	269.31
712.617	158.72
712.805	293.88
712.993	265.21
713.181	82.94
713.368	330.75
713.556	218.11
713.744	128
713.931	316.41
714.119	238.59
714.306	205.82
714.494	171.01
714.682	275.45
714.869	105.47
715.057	234.49
715.244	87.04
715.432	242.68
715.619	185.34
715.807	234.49
715.994	230.4
716.182	257.02
716.369	361.47
716.556	238.59
716.744	197.63
716.931	119.81
717.119	222.2
717.306	228.35
717.493	338.94
717.681	252.92
717.868	271.36
718.055	242.68
718.242	183.29
718.43	279.55
718.617	297.98
718.804	183.29
718.991	281.6
719.179	248.83
719.366	234.49
719.553	203.77
719.74	226.3
719.927	226.3
720.114	263.16
720.301	123.9
720.488	150.53
720.676	171.01
720.863	345.08
721.05	345.08
721.237	275.45
721.424	267.26
721.611	248.83
721.798	93.18
721.985	193.53
722.172	261.12
722.358	271.36
722.545	297.98
722.732	207.87
722.919	240.64
723.106	312.32
723.293	193.53
723.48	263.16
723.667	254.97
723.853	336.89
724.04	244.73
724.227	295.93
724.414	322.56
724.6	254.97
724.787	416.76
724.974	381.95
725.161	205.82
725.347	128
725.534	283.64
725.72	306.17
725.907	308.22
726.094	257.02
726.28	236.54
726.467	191.49
726.653	136.19
726.84	375.8
727.027	324.6
727.213	281.6
727.4	363.51
727.586	267.26
727.773	257.02
727.959	295.93
728.145	257.02
728.332	271.36
728.518	300.03
728.705	447.48
728.891	228.35
729.077	332.79
729.264	214.01
729.45	246.78
729.636	271.36
729.823	289.79
730.009	338.94
730.195	365.56
730.382	273.4
730.568	146.43
730.754	302.08
730.94	273.4
731.126	320.51
731.313	340.99
731.499	295.93
731.685	349.18
731.871	302.08
732.057	226.3
732.243	351.23
732.429	273.4
732.615	332.79
732.801	283.64
732.987	259.07
733.173	246.78
733.359	236.54
733.545	254.97
733.731	195.58
733.917	365.56
734.103	267.26
734.289	226.3
734.475	300.03
734.661	459.77
734.847	308.22
735.033	199.68
735.219	320.51
735.404	285.69
735.59	216.06
735.776	281.6
735.962	369.66
736.148	365.56
736.333	361.47
736.519	285.69
736.705	240.64
736.89	310.27
737.076	343.03
737.262	254.97
737.447	183.29
737.633	175.1
737.819	347.13
738.004	322.56
738.19	285.69
738.375	412.67
738.561	326.65
738.747	297.98
738.932	166.91
739.118	383.99
739.303	277.5
739.489	302.08
739.674	246.78
739.859	209.92
740.045	334.84
740.23	259.07
740.416	216.06
740.601	259.07
740.786	287.74
740.972	287.74
741.157	187.39
741.342	248.83
741.528	220.16
741.713	386.04
741.898	289.79
742.084	261.12
742.269	254.97
742.454	302.08
742.639	314.36
742.824	265.21
743.01	457.72
743.195	410.62
743.38	300.03
743.565	242.68
743.75	191.49
743.935	306.17
744.12	371.71
744.305	248.83
744.49	277.5
744.675	259.07
744.86	269.31
745.045	340.99
745.23	297.98
745.415	238.59
745.6	297.98
745.785	205.82
745.97	324.6
746.155	332.79
746.34	322.56
746.525	312.32
746.71	312.32
746.895	173.05
747.079	148.48
747.264	214.01
747.449	379.9
747.634	343.03
747.819	259.07
748.003	209.92
748.188	205.82
748.373	332.79
748.557	267.26
748.742	271.36
748.927	277.5
749.111	125.95
749.296	152.57
749.481	244.73
749.665	171.01
749.85	214.01
750.034	273.4
750.219	267.26
750.404	171.01
750.588	265.21
750.773	224.25
750.957	168.96
751.141	209.92
751.326	343.03
751.51	107.52
751.695	267.26
751.879	160.77
752.064	345.08
752.248	246.78
752.432	240.64
752.617	242.68
752.801	240.64
752.985	308.22
753.17	369.66
753.354	222.2
753.538	154.62
753.722	115.71
753.907	146.43
754.091	158.72
754.275	218.11
754.459	138.24
754.643	138.24
754.828	267.26
755.012	226.3
755.196	220.16
755.38	205.82
755.564	228.35
755.748	201.72
755.932	246.78
756.116	222.2
756.3	209.92
756.484	166.91
756.668	285.69
756.852	84.99
757.036	154.62
757.22	246.78
757.404	177.15
757.588	109.57
757.772	177.15
757.956	183.29
758.14	330.75
758.323	93.18
758.507	175.1
758.691	123.9
758.875	189.44
759.059	228.35
759.242	115.71
759.426	125.95
759.61	164.86
759.794	37.89
759.977	154.62
760.161	308.22
760.345	250.88
760.528	218.11
760.712	177.15
760.895	168.96
761.079	197.63
761.263	5.12
761.446	93.18
761.63	160.77
761.813	234.49
761.997	89.09
762.18	78.85
762.364	150.53
762.547	-9.22
762.731	109.57
762.914	117.76
763.098	121.85
763.281	95.23
763.464	134.14
763.648	87.04
763.831	11.26
764.015	80.89
764.198	201.72
764.381	29.7
764.564	168.96
764.748	175.1
764.931	134.14
765.114	123.9
765.297	183.29
765.481	39.94
765.664	140.29
765.847	76.8
766.03	191.49
766.213	119.81
766.397	156.67
766.58	15.36
766.763	175.1
766.946	37.89
767.129	99.33
767.312	87.04
767.495	191.49
767.678	136.19
767.861	128
768.044	148.48
768.227	87.04
768.41	130.05
768.593	52.22
768.776	128
768.959	107.52
769.142	226.3
769.324	166.91
769.507	123.9
769.69	41.98
769.873	52.22
770.056	281.6
770.239	58.37
770.421	199.68
770.604	101.37
770.787	136.19
770.97	134.14
771.152	68.61
771.335	189.44
771.518	-3.07
771.7	160.77
771.883	201.72
772.066	48.13
772.248	76.8
772.431	218.11
772.613	125.95
772.796	35.84
772.978	99.33
773.161	156.67
773.343	25.6
773.526	25.6
773.708	80.89
773.891	-29.7
774.073	97.28
774.256	-27.65
774.438	185.34
774.621	44.03
774.803	78.85
774.985	17.41
775.168	181.25
775.35	31.74
775.532	107.52
775.715	3.07
775.897	158.72
776.079	11.26
776.261	119.81
776.444	101.37
776.626	68.61
776.808	99.33
776.99	35.84
777.173	66.56
777.355	128
777.537	115.71
777.719	107.52
777.901	62.46
778.083	-29.7
778.265	-46.08
778.447	23.55
778.629	35.84
778.811	-13.31
778.993	132.09
779.175	162.81
779.357	33.79
779.539	-72.7
779.721	66.56
779.903	119.81
780.085	27.65
780.267	181.25
780.449	62.46
780.631	39.94
780.812	232.44
780.994	80.89
781.176	52.22
781.358	54.27
781.54	23.55
781.721	97.28
781.903	187.39
782.085	58.37
782.267	128
782.448	-23.55
782.63	19.46
782.812	19.46
782.993	99.33
783.175	138.24
783.357	31.74
783.538	62.46
783.72	33.79
783.901	66.56
784.083	68.61
784.264	50.18
784.446	17.41
784.627	-31.74
784.809	144.38
784.99	7.17
785.172	82.94
785.353	72.7
785.535	74.75
785.716	3.07
785.897	39.94
786.079	1.02
786.26	119.81
786.441	142.33
786.623	-37.89
786.804	-3.07
786.985	54.27
787.167	52.22
787.348	89.09
787.529	50.18
787.71	171.01
787.891	58.37
788.073	48.13
788.254	-72.7
788.435	173.05
788.616	27.65
788.797	-54.27
788.978	46.08
789.159	-11.26
789.34	78.85
789.522	15.36
789.703	-27.65
789.884	89.09
790.065	99.33
790.246	74.75
790.427	13.31
790.607	181.25
790.788	103.42
790.969	-27.65
791.15	101.37
791.331	17.41
791.512	-21.5
791.693	21.5
791.874	35.84
792.054	171.01
792.235	52.22
792.416	-50.18
792.597	-41.98
792.778	44.03
792.958	97.28
793.139	19.46
793.32	80.89
793.5	-13.31
793.681	134.14
793.862	80.89
794.042	82.94
794.223	-50.18
794.404	-50.18
794.584	-37.89
794.765	-9.22
794.945	46.08
795.126	87.04
795.306	41.98
795.487	27.65
795.667	-19.46
795.848	-15.36
796.028	23.55
796.209	54.27
796.389	31.74
796.57	-11.26
796.75	-41.98
796.93	109.57
797.111	-11.26
797.291	50.18
797.471	107.52
797.652	-21.5
797.832	-44.03
798.012	84.99
798.192	29.7
798.373	-56.32
798.553	50.18
798.733	89.09
798.913	11.26
799.093	-9.22
799.274	-23.55
799.454	44.03
799.634	41.98
799.814	99.33
799.994	95.23
800.174	107.52
800.354	15.36
800.534	-93.18
800.714	80.89
800.894	-44.03
801.074	-64.51
801.254	-93.18
801.434	74.75
801.614	52.22
801.794	-62.46
801.974	1795.04
802.154	13.31
802.334	60.42
802.514	-39.94
802.693	50.18
802.873	11.26
803.053	64.51
803.233	93.18
803.413	27.65
803.592	-84.99
803.772	-64.51
803.952	72.7
804.131	17.41
804.311	87.04
804.491	78.85
804.67	-93.18
804.85	-29.7
805.03	115.71
805.209	68.61
805.389	41.98
805.568	44.03
805.748	-52.22
805.928	-39.94
806.107	1.02
806.287	76.8
806.466	9.22
806.646	-19.46
806.825	19.46
807.004	5.12
807.184	70.65
807.363	23.55
807.543	80.89
807.722	-29.7
807.901	60.42
808.081	72.7
808.26	-115.71
808.439	-21.5
808.619	-5.12
808.798	-52.22
808.977	136.19
809.156	162.81
809.336	-35.84
809.515	70.65
809.694	-87.04
809.873	-33.79
810.052	80.89
810.231	187.39
810.411	-5.12
810.59	15.36
810.769	7.17
810.948	140.29
811.127	-70.65
811.306	-3.07
811.485	11.26
811.664	107.52
811.843	64.51
812.022	-56.32
812.201	-66.56
812.38	-17.41
812.559	-84.99
812.737	72.7
812.916	-123.9
813.095	-33.79
813.274	3.07
813.453	74.75
813.632	37.89
813.811	33.79
813.989	-91.13
814.168	-1.02
814.347	-54.27
814.526	-21.5
814.704	148.48
814.883	103.42
815.062	21.5
815.24	78.85
815.419	-27.65
815.598	44.03
815.776	-101.37
815.955	3.07
816.133	-107.52
816.312	78.85
816.49	-27.65
816.669	44.03
816.847	-19.46
817.026	74.75
817.204	58.37
817.383	23.55
817.561	-46.08
817.74	72.7
817.918	50.18
818.097	15.36
818.275	-17.41
818.453	11.26
818.632	44.03
818.81	54.27
818.988	-35.84
819.167	-29.7
819.345	5.12
819.523	-58.37
819.701	19.46
819.879	11.26
820.058	-54.27
820.236	-68.61
820.414	-5.12
820.592	-23.55
820.77	23.55
820.948	-62.46
821.127	-5.12
821.305	17.41
821.483	-11.26
821.661	64.51
821.839	-11.26
822.017	33.79
822.195	-19.46
822.373	78.85
822.551	3.07
822.729	68.61
822.907	-3.07
823.085	89.09
823.262	-15.36
823.44	29.7
823.618	13.31
823.796	-33.79
823.974	-56.32
824.152	-109.57
824.329	21.5
824.507	21.5
824.685	5.12
824.863	21.5
825.04	52.22
825.218	-52.22
825.396	31.74
825.574	62.46
825.751	39.94
825.929	-17.41
826.107	-80.89
826.284	33.79
826.462	37.89
826.639	-31.74
826.817	-76.8
826.994	62.46
827.172	-44.03
827.349	101.37
827.527	35.84
827.704	25.6
827.882	29.7
828.059	-76.8
828.237	-64.51
828.414	97.28
828.591	-76.8
828.769	41.98
828.946	-7.17
829.124	97.28
829.301	91.13
829.478	-27.65
829.655	52.22
829.833	13.31
830.01	-130.05
830.187	31.74
830.364	17.41
830.542	1.02
830.719	89.09
830.896	91.13
831.073	52.22
831.25	17.41
831.427	74.75
831.604	54.27
831.782	-17.41
831.959	62.46
832.136	-56.32
832.313	-21.5
832.49	35.84
832.667	154.62
832.844	-15.36
833.021	117.76
833.198	11.26
833.374	9.22
833.551	33.79
833.728	-39.94
833.905	84.99
834.082	-93.18
834.259	48.13
834.436	95.23
834.612	-31.74
834.789	84.99
834.966	3.07
835.143	37.89
835.319	-41.98
835.496	15.36
835.673	27.65
835.85	115.71
836.026	54.27
836.203	62.46
836.38	-19.46
836.556	-25.6
836.733	-60.42
836.909	181.25
837.086	23.55
837.262	3.07
837.439	15.36
837.616	-31.74
837.792	-21.5
837.968	5.12
838.145	-119.81
838.321	-15.36
838.498	46.08
838.674	66.56
838.851	35.84
839.027	15.36
839.203	29.7
839.38	50.18
839.556	21.5
839.732	78.85
839.909	5.12
840.085	93.18
840.261	-50.18
840.437	13.31
840.614	-132.09
840.79	66.56
840.966	21.5
841.142	19.46
841.318	33.79
841.494	89.09
841.671	136.19
841.847	-44.03
842.023	11.26
842.199	48.13
842.375	48.13
842.551	-138.24
842.727	-56.32
842.903	105.47
843.079	-11.26
843.255	101.37
843.431	13.31
843.607	136.19
843.783	-97.28
843.959	29.7
844.134	-60.42
844.31	136.19
844.486	-50.18
844.662	-23.55
844.838	21.5
845.013	54.27
845.189	41.98
845.365	64.51
845.541	64.51
845.716	31.74
845.892	87.04
846.068	25.6
846.244	-35.84
846.419	103.42
846.595	-60.42
846.77	13.31
846.946	44.03
847.122	-1.02
847.297	-11.26
847.473	115.71
847.648	-44.03
847.824	39.94
847.999	-154.62
848.175	76.8
848.35	-15.36
848.526	78.85
848.701	134.14
848.876	66.56
849.052	37.89
849.227	21.5
849.403	-17.41
849.578	-23.55
849.753	-17.41
849.929	91.13
850.104	-148.48
850.279	46.08
850.454	58.37
850.63	27.65
850.805	-3.07
850.98	-39.94
851.155	-76.8
851.33	64.51
851.505	7.17
851.681	54.27
851.856	48.13
852.031	72.7
852.206	35.84
852.381	-50.18
852.556	-54.27
852.731	11.26
852.906	82.94
853.081	-1.02
853.256	150.53
853.431	48.13
853.606	-62.46
853.781	-23.55
853.956	-97.28
854.131	13.31
854.305	-93.18
854.48	-17.41
854.655	-13.31
854.83	-52.22
855.005	3.07
855.18	70.65
855.354	31.74
855.529	39.94
855.704	-52.22
855.879	50.18
856.053	-93.18
856.228	60.42
856.403	-66.56
856.577	-11.26
856.752	-37.89
856.926	11.26
857.101	15.36
857.276	-60.42
857.45	5.12
857.625	48.13
857.799	29.7
857.974	-1.02
858.148	-123.9
858.323	5.12
858.497	-50.18
858.672	-56.32
858.846	-93.18
859.02	13.31
859.195	-113.66
859.369	-3.07
859.543	25.6
859.718	-11.26
859.892	-33.79
860.066	1.02
860.241	-70.65
860.415	-3.07
860.589	-48.13
860.763	19.46
860.938	-44.03
861.112	21.5
861.286	-31.74
861.46	3.07
861.634	-23.55
861.808	68.61
861.982	-62.46
862.157	-134.14
862.331	35.84
862.505	-44.03
862.679	-15.36
862.853	-33.79
863.027	-29.7
863.201	136.19
863.375	-95.23
863.549	109.57
863.722	31.74
863.896	119.81
864.07	-113.66
864.244	-19.46
864.418	46.08
864.592	76.8
864.766	-35.84
864.939	62.46
865.113	-60.42
865.287	117.76
865.461	-91.13
865.634	-19.46
865.808	15.36
865.982	33.79
866.156	-72.7
866.329	-132.09
866.503	64.51
866.676	54.27
866.85	58.37
867.024	-89.09
867.197	1.02
867.371	35.84
867.544	87.04
867.718	-136.19
867.891	97.28
868.065	-101.37
868.238	19.46
868.412	58.37
868.585	21.5
868.759	-82.94
868.932	-13.31
869.105	-23.55
869.279	95.23
869.452	-107.52
869.625	11.26
869.799	48.13
869.972	-76.8
870.145	3.07
870.319	31.74
870.492	-11.26
870.665	-29.7
870.838	-99.33
871.011	-84.99
871.185	-33.79
871.358	-60.42
871.531	37.89
871.704	-27.65
871.877	41.98
872.05	-54.27
872.223	-46.08
872.396	39.94
872.569	35.84
872.742	-72.7
872.915	54.27
873.088	-113.66
873.261	-17.41
873.434	29.7
873.607	23.55
873.78	93.18
873.953	-41.98
874.126	15.36
874.299	41.98
874.471	5.12
874.644	-41.98
874.817	9.22
874.99	164.86
875.163	-39.94
875.335	27.65
875.508	54.27
875.681	140.29
875.853	-15.36
876.026	-29.7
876.199	46.08
876.371	9.22
876.544	-21.5
876.717	5.12
876.889	-56.32
877.062	74.75
877.234	-39.94
877.407	-70.65
877.579	5.12
877.752	-3.07
877.924	76.8
878.097	44.03
878.269	-78.85
878.442	25.6
878.614	68.61
878.786	54.27
878.959	41.98
879.131	101.37
879.303	-62.46
879.476	-7.17
879.648	144.38
879.82	46.08
879.993	-70.65
880.165	-39.94
880.337	-164.86
880.509	-68.61
880.681	-101.37
880.854	3.07
881.026	89.09
881.198	140.29
881.37	23.55
881.542	80.89
881.714	3.07
881.886	-5.12
882.058	-3.07
882.23	58.37
882.402	23.55
882.574	70.65
882.746	64.51
882.918	78.85
883.09	-37.89
883.262	27.65
883.434	15.36
883.606	-46.08
883.778	-3.07
883.95	80.89
884.122	-19.46
884.293	144.38
884.465	-15.36
884.637	25.6
884.809	-5.12
884.98	70.65
885.152	23.55
885.324	9.22
885.496	-78.85
885.667	35.84
885.839	1.02
886.011	93.18
886.182	62.46
886.354	3.07
886.525	13.31
886.697	-11.26
886.869	-48.13
887.04	-3.07
887.212	109.57
887.383	158.72
887.555	5.12
887.726	-80.89
887.897	46.08
888.069	-7.17
888.24	-39.94
888.412	35.84
888.583	35.84
888.754	52.22
888.926	-125.95
889.097	-19.46
889.268	-5.12
889.44	27.65
889.611	-52.22
889.782	-39.94
889.953	-39.94
890.125	29.7
890.296	-93.18
890.467	-105.47
890.638	-107.52
890.809	-78.85
890.98	-5.12
891.151	46.08
891.323	56.32
891.494	-39.94
891.665	5.12
891.836	-48.13
892.007	58.37
892.178	39.94
892.349	29.7
892.52	-62.46
892.691	9.22
892.862	-48.13
893.032	-66.56
893.203	-46.08
893.374	39.94
893.545	66.56
893.716	-48.13
893.887	64.51
894.057	-62.46
894.228	-46.08
894.399	-132.09
894.57	48.13
894.74	3.07
894.911	62.46
895.082	-3.07
895.253	15.36
895.423	-31.74
895.594	95.23
895.764	44.03
895.935	-113.66
896.106	17.41
896.276	-23.55
896.447	37.89
896.617	-93.18
896.788	-111.61
896.958	23.55
897.129	-33.79
897.299	-117.76
897.47	144.38
897.64	60.42
897.81	-37.89
897.981	-15.36
898.151	-46.08
898.322	3.07
898.492	58.37
898.662	-62.46
898.832	-27.65
899.003	-84.99
899.173	25.6
899.343	-44.03
899.513	-19.46
