Data from USB4F104151__113__10-45-53-160.txt Node

Date: Wed Feb 26 10:45:53 EST 2025
User: louis
Spectrometer: USB4F10415
Trigger mode: 4
Integration Time (sec): 1.000000E-1
Scans to average: 1
Electric dark correction enabled: true
Nonlinearity correction enabled: false
Boxcar width: 0
XAxis mode: Wavelengths
Number of Pixels in Spectrum: 3648
>>>>>Begin Spectral Data<<<<<
178.204	-322.38
178.424	-322.38
178.644	-322.38
178.864	-422.73
179.084	-412.5
179.304	66.73
179.524	-88.92
179.744	13.48
179.964	5.29
180.184	68.78
180.404	15.53
180.624	-90.96
180.844	-52.05
181.064	-84.82
181.283	56.49
181.503	33.96
181.723	56.49
181.943	-33.62
182.163	210.09
182.383	11.43
182.602	66.73
182.822	185.51
183.042	87.21
183.262	-29.52
183.482	-21.33
183.701	60.59
183.921	64.68
184.141	33.96
184.361	-9.05
184.58	85.16
184.8	81.07
185.02	-0.85
185.239	117.93
185.459	13.48
185.679	93.35
185.898	25.77
186.118	103.59
186.338	27.82
186.557	128.17
186.777	-15.19
186.997	33.96
187.216	72.87
187.436	103.59
187.655	19.63
187.875	85.16
188.095	72.87
188.314	144.55
188.534	126.12
188.753	-29.52
188.973	126.12
189.192	212.14
189.412	56.49
189.631	81.07
189.851	109.74
190.07	150.7
190.29	1.19
190.509	15.53
190.729	-9.05
190.948	128.17
191.168	226.47
191.387	56.49
191.607	33.96
191.826	113.83
192.045	85.16
192.265	-27.48
192.484	72.87
192.704	83.11
192.923	-58.2
193.142	193.7
193.362	126.12
193.581	113.83
193.8	40.11
194.02	173.22
194.239	46.25
194.458	185.51
194.678	46.25
194.897	74.92
195.116	87.21
195.335	117.93
195.555	72.87
195.774	33.96
195.993	95.4
196.212	48.3
196.432	-58.2
196.651	72.87
196.87	7.34
197.089	197.8
197.308	50.35
197.528	150.7
197.747	-0.85
197.966	70.83
198.185	181.42
198.404	-29.52
198.623	105.64
198.842	101.55
199.062	83.11
199.281	136.36
199.5	15.53
199.719	79.02
199.938	81.07
200.157	148.65
200.376	111.78
200.595	119.98
200.814	68.78
201.033	19.63
201.252	152.74
201.471	11.43
201.69	103.59
201.909	48.3
202.128	185.51
202.347	105.64
202.566	62.63
202.785	-86.87
203.004	-19.29
203.223	269.48
203.442	119.98
203.661	-13.14
203.879	101.55
204.098	144.55
204.317	7.34
204.536	130.22
204.755	64.68
204.974	64.68
205.193	38.06
205.411	130.22
205.63	117.93
205.849	58.54
206.068	111.78
206.287	7.34
206.505	189.61
206.724	72.87
206.943	122.02
207.162	21.67
207.381	50.35
207.599	91.31
207.818	119.98
208.037	29.87
208.255	91.31
208.474	58.54
208.693	72.87
208.911	5.29
209.13	68.78
209.349	115.88
209.567	52.39
209.786	132.26
210.005	83.11
210.223	70.83
210.442	-123.73
210.661	-23.38
210.879	60.59
211.098	72.87
211.316	21.67
211.535	83.11
211.753	126.12
211.972	79.02
212.191	21.67
212.409	1.19
212.628	205.99
212.846	-15.19
213.065	113.83
213.283	154.79
213.502	19.63
213.72	72.87
213.938	44.2
214.157	76.97
214.375	152.74
214.594	64.68
214.812	113.83
215.031	-15.19
215.249	9.39
215.467	56.49
215.686	62.63
215.904	87.21
216.122	70.83
216.341	220.33
216.559	111.78
216.778	138.41
216.996	162.98
217.214	-9.05
217.432	81.07
217.651	13.48
217.869	-2.9
218.087	97.45
218.306	27.82
218.524	54.44
218.742	56.49
218.96	126.12
219.179	70.83
219.397	93.35
219.615	158.89
219.833	83.11
220.051	-45.91
220.27	99.5
220.488	97.45
220.706	89.26
220.924	40.11
221.142	-9.05
221.36	89.26
221.578	124.07
221.796	87.21
222.015	89.26
222.233	70.83
222.451	216.23
222.669	-13.14
222.887	64.68
223.105	50.35
223.323	23.72
223.541	15.53
223.759	99.5
223.977	33.96
224.195	105.64
224.413	107.69
224.631	68.78
224.849	72.87
225.067	279.72
225.285	5.29
225.503	29.87
225.721	-88.92
225.939	66.73
226.157	56.49
226.375	167.08
226.592	-33.62
226.81	66.73
227.028	117.93
227.246	169.13
227.464	54.44
227.682	142.5
227.9	27.82
228.117	111.78
228.335	23.72
228.553	76.97
228.771	25.77
228.989	48.3
229.206	42.15
229.424	58.54
229.642	58.54
229.86	-9.05
230.077	52.39
230.295	105.64
230.513	115.88
230.731	79.02
230.948	142.5
231.166	72.87
231.384	11.43
231.601	23.72
231.819	119.98
232.037	13.48
232.254	-7
232.472	23.72
232.689	-27.48
232.907	122.02
233.125	40.11
233.342	-95.06
233.56	44.2
233.777	76.97
233.995	27.82
234.213	52.39
234.43	70.83
234.648	-31.57
234.865	29.87
235.083	27.82
235.3	68.78
235.518	93.35
235.735	117.93
235.953	42.15
236.17	72.87
236.388	109.74
236.605	70.83
236.822	119.98
237.04	44.2
237.257	113.83
237.475	3.24
237.692	66.73
237.909	128.17
238.127	-0.85
238.344	128.17
238.562	103.59
238.779	19.63
238.996	-58.2
239.214	50.35
239.431	119.98
239.648	-39.76
239.865	117.93
240.083	52.39
240.3	13.48
240.517	36.01
240.735	56.49
240.952	162.98
241.169	91.31
241.386	128.17
241.603	36.01
241.821	21.67
242.038	107.69
242.255	152.74
242.472	-54.1
242.689	111.78
242.907	95.4
243.124	72.87
243.341	99.5
243.558	87.21
243.775	-19.29
243.992	-37.72
244.209	117.93
244.426	175.27
244.643	76.97
244.86	-4.95
245.078	95.4
245.295	109.74
245.512	15.53
245.729	31.91
245.946	179.37
246.163	99.5
246.38	-47.96
246.597	158.89
246.814	89.26
247.031	19.63
247.248	38.06
247.464	132.26
247.681	91.31
247.898	40.11
248.115	46.25
248.332	3.24
248.549	222.38
248.766	111.78
248.983	107.69
249.2	117.93
249.417	154.79
249.633	17.58
249.85	128.17
250.067	25.77
250.284	46.25
250.501	91.31
250.717	46.25
250.934	-60.24
251.151	117.93
251.368	23.72
251.585	79.02
251.801	87.21
252.018	-19.29
252.235	150.7
252.451	-101.2
252.668	52.39
252.885	171.18
253.102	72.87
253.318	1.19
253.535	60.59
253.752	29.87
253.968	7.34
254.185	-17.24
254.401	19.63
254.618	101.55
254.835	-0.85
255.051	64.68
255.268	175.27
255.484	91.31
255.701	31.91
255.917	81.07
256.134	-2.9
256.351	68.78
256.567	-39.76
256.784	36.01
257	-70.48
257.217	128.17
257.433	40.11
257.65	25.77
257.866	165.03
258.082	-13.14
258.299	-109.4
258.515	148.65
258.732	-29.52
258.948	-39.76
259.165	70.83
259.381	38.06
259.597	105.64
259.814	-64.34
260.03	-17.24
260.246	66.73
260.463	183.46
260.679	167.08
260.895	83.11
261.112	52.39
261.328	40.11
261.544	56.49
261.761	228.52
261.977	42.15
262.193	54.44
262.409	56.49
262.626	3.24
262.842	113.83
263.058	-21.33
263.274	91.31
263.49	210.09
263.707	62.63
263.923	146.6
264.139	-2.9
264.355	89.26
264.571	113.83
264.787	52.39
265.004	132.26
265.22	79.02
265.436	21.67
265.652	-13.14
265.868	95.4
266.084	25.77
266.3	44.2
266.516	31.91
266.732	191.66
266.948	40.11
267.164	93.35
267.38	38.06
267.596	74.92
267.812	173.22
268.028	40.11
268.244	-0.85
268.46	33.96
268.676	56.49
268.892	-13.14
269.108	50.35
269.324	5.29
269.54	-72.53
269.756	185.51
269.972	-43.86
270.188	44.2
270.403	-56.15
270.619	3.24
270.835	89.26
271.051	83.11
271.267	-64.34
271.483	-17.24
271.698	58.54
271.914	76.97
272.13	85.16
272.346	13.48
272.562	76.97
272.777	181.42
272.993	40.11
273.209	72.87
273.425	107.69
273.64	-93.01
273.856	103.59
274.072	36.01
274.287	-39.76
274.503	126.12
274.719	62.63
274.934	42.15
275.15	3.24
275.366	140.46
275.581	-23.38
275.797	23.72
276.012	60.59
276.228	31.91
276.444	72.87
276.659	144.55
276.875	-31.57
277.09	31.91
277.306	56.49
277.521	136.36
277.737	31.91
277.952	158.89
278.168	95.4
278.383	3.24
278.599	79.02
278.814	126.12
279.03	89.26
279.245	150.7
279.461	-13.14
279.676	122.02
279.892	-47.96
280.107	21.67
280.322	74.92
280.538	101.55
280.753	15.53
280.969	97.45
281.184	-39.76
281.399	122.02
281.615	31.91
281.83	11.43
282.045	-97.11
282.26	-9.05
282.476	91.31
282.691	126.12
282.906	13.48
283.122	66.73
283.337	-13.14
283.552	111.78
283.767	89.26
283.983	144.55
284.198	-27.48
284.413	36.01
284.628	13.48
284.843	40.11
285.058	103.59
285.274	54.44
285.489	44.2
285.704	62.63
285.919	97.45
286.134	74.92
286.349	85.16
286.564	-31.57
286.779	150.7
286.995	-41.81
287.21	-0.85
287.425	27.82
287.64	31.91
287.855	119.98
288.07	-27.48
288.285	97.45
288.5	109.74
288.715	74.92
288.93	-21.33
289.145	-4.95
289.36	144.55
289.575	85.16
289.79	165.03
290.004	21.67
290.219	85.16
290.434	-29.52
290.649	-86.87
290.864	17.58
291.079	72.87
291.294	95.4
291.509	105.64
291.724	1.19
291.938	-11.09
292.153	38.06
292.368	38.06
292.583	23.72
292.798	76.97
293.012	64.68
293.227	52.39
293.442	-4.95
293.657	146.6
293.871	81.07
294.086	85.16
294.301	214.18
294.516	136.36
294.73	36.01
294.945	-60.24
295.16	56.49
295.374	169.13
295.589	115.88
295.804	33.96
296.018	70.83
296.233	101.55
296.447	36.01
296.662	5.29
296.877	167.08
297.091	91.31
297.306	42.15
297.52	42.15
297.735	56.49
297.949	19.63
298.164	124.07
298.378	97.45
298.593	-2.9
298.807	17.58
299.022	89.26
299.236	167.08
299.451	64.68
299.665	-9.05
299.88	99.5
300.094	89.26
300.309	38.06
300.523	117.93
300.737	-29.52
300.952	48.3
301.166	87.21
301.381	-19.29
301.595	7.34
301.809	81.07
302.024	21.67
302.238	-27.48
302.452	195.75
302.667	64.68
302.881	169.13
303.095	171.18
303.309	13.48
303.524	19.63
303.738	33.96
303.952	48.3
304.166	117.93
304.381	-66.39
304.595	148.65
304.809	7.34
305.023	9.39
305.237	-35.67
305.452	-31.57
305.666	42.15
305.88	44.2
306.094	144.55
306.308	124.07
306.522	128.17
306.736	195.75
306.95	132.26
307.164	40.11
307.379	58.54
307.593	175.27
307.807	136.36
308.021	60.59
308.235	99.5
308.449	-45.91
308.663	7.34
308.877	210.09
309.091	97.45
309.305	140.46
309.519	-15.19
309.733	156.84
309.947	38.06
310.161	132.26
310.374	134.31
310.588	181.42
310.802	36.01
311.016	64.68
311.23	17.58
311.444	-21.33
311.658	68.78
311.872	216.23
312.085	234.66
312.299	68.78
312.513	83.11
312.727	68.78
312.941	13.48
313.154	-7
313.368	79.02
313.582	87.21
313.796	107.69
314.009	134.31
314.223	238.76
314.437	66.73
314.651	95.4
314.864	33.96
315.078	46.25
315.292	-13.14
315.505	40.11
315.719	87.21
315.933	126.12
316.146	85.16
316.36	3.24
316.573	103.59
316.787	167.08
317.001	52.39
317.214	-13.14
317.428	58.54
317.641	-2.9
317.855	-27.48
318.068	74.92
318.282	76.97
318.495	189.61
318.709	93.35
318.922	68.78
319.136	136.36
319.349	117.93
319.563	-113.49
319.776	87.21
319.99	-33.62
320.203	119.98
320.417	38.06
320.63	101.55
320.843	175.27
321.057	87.21
321.27	150.7
321.483	175.27
321.697	130.22
321.91	101.55
322.124	74.92
322.337	105.64
322.55	-29.52
322.763	38.06
322.977	7.34
323.19	11.43
323.403	40.11
323.617	60.59
323.83	150.7
324.043	36.01
324.256	66.73
324.469	29.87
324.683	83.11
324.896	15.53
325.109	105.64
325.322	-9.05
325.535	66.73
325.748	146.6
325.962	11.43
326.175	62.63
326.388	122.02
326.601	113.83
326.814	-31.57
327.027	21.67
327.24	165.03
327.453	-29.52
327.666	72.87
327.879	167.08
328.092	89.26
328.305	46.25
328.518	103.59
328.731	25.77
328.944	19.63
329.157	138.41
329.37	-9.05
329.583	128.17
329.796	212.14
330.009	5.29
330.222	66.73
330.435	134.31
330.648	95.4
330.861	142.5
331.073	138.41
331.286	142.5
331.499	9.39
331.712	52.39
331.925	-15.19
332.138	85.16
332.35	74.92
332.563	-19.29
332.776	162.98
332.989	13.48
333.202	74.92
333.414	50.35
333.627	52.39
333.84	48.3
334.053	79.02
334.265	13.48
334.478	79.02
334.691	7.34
334.903	113.83
335.116	48.3
335.329	66.73
335.541	91.31
335.754	130.22
335.966	7.34
336.179	27.82
336.392	19.63
336.604	48.3
336.817	187.56
337.029	128.17
337.242	85.16
337.454	74.92
337.667	5.29
337.88	220.33
338.092	91.31
338.305	101.55
338.517	33.96
338.729	93.35
338.942	183.46
339.154	21.67
339.367	-29.52
339.579	175.27
339.792	-68.44
340.004	126.12
340.217	31.91
340.429	66.73
340.641	70.83
340.854	-31.57
341.066	70.83
341.278	158.89
341.491	197.8
341.703	91.31
341.915	-41.81
342.128	171.18
342.34	36.01
342.552	-13.14
342.764	50.35
342.977	50.35
343.189	126.12
343.401	23.72
343.613	-58.2
343.826	122.02
344.038	-0.85
344.25	60.59
344.462	48.3
344.674	74.92
344.886	52.39
345.099	62.63
345.311	101.55
345.523	38.06
345.735	-62.29
345.947	101.55
346.159	140.46
346.371	-11.09
346.583	15.53
346.795	220.33
347.007	19.63
347.219	68.78
347.431	-41.81
347.643	203.94
347.855	-9.05
348.067	70.83
348.279	27.82
348.491	29.87
348.703	76.97
348.915	-4.95
349.127	40.11
349.339	76.97
349.551	-29.52
349.763	101.55
349.975	70.83
350.187	144.55
350.399	187.56
350.61	60.59
350.822	25.77
351.034	52.39
351.246	103.59
351.458	93.35
351.669	76.97
351.881	76.97
352.093	83.11
352.305	158.89
352.517	23.72
352.728	201.9
352.94	27.82
353.152	173.22
353.363	-15.19
353.575	-19.29
353.787	216.23
353.999	29.87
354.21	191.66
354.422	33.96
354.633	23.72
354.845	76.97
355.057	31.91
355.268	111.78
355.48	111.78
355.692	-7
355.903	27.82
356.115	-54.1
356.326	-56.15
356.538	179.37
356.749	-33.62
356.961	232.62
357.172	79.02
357.384	-68.44
357.595	228.52
357.807	3.24
358.018	56.49
358.23	13.48
358.441	128.17
358.653	15.53
358.864	-21.33
359.075	38.06
359.287	46.25
359.498	162.98
359.709	89.26
359.921	76.97
360.132	83.11
360.344	136.36
360.555	52.39
360.766	89.26
360.977	-9.05
361.189	91.31
361.4	50.35
361.611	132.26
361.823	140.46
362.034	27.82
362.245	-97.11
362.456	31.91
362.667	9.39
362.879	-21.33
363.09	23.72
363.301	103.59
363.512	31.91
363.723	15.53
363.935	1.19
364.146	97.45
364.357	-45.91
364.568	52.39
364.779	-33.62
364.99	119.98
365.201	27.82
365.412	179.37
365.623	-64.34
365.834	205.99
366.045	68.78
366.256	91.31
366.467	117.93
366.678	15.53
366.889	54.44
367.1	50.35
367.311	128.17
367.522	19.63
367.733	107.69
367.944	158.89
368.155	99.5
368.366	95.4
368.577	89.26
368.788	56.49
368.999	-0.85
369.209	72.87
369.42	269.48
369.631	232.62
369.842	103.59
370.053	15.53
370.264	105.64
370.474	19.63
370.685	56.49
370.896	21.67
371.107	187.56
371.317	74.92
371.528	19.63
371.739	154.79
371.95	66.73
372.16	48.3
372.371	31.91
372.582	46.25
372.792	136.36
373.003	142.5
373.214	83.11
373.424	13.48
373.635	25.77
373.846	191.66
374.056	109.74
374.267	66.73
374.477	79.02
374.688	50.35
374.898	91.31
375.109	95.4
375.319	13.48
375.53	91.31
375.74	56.49
375.951	44.2
376.161	93.35
376.372	216.23
376.582	-17.24
376.793	66.73
377.003	-13.14
377.214	-19.29
377.424	126.12
377.635	117.93
377.845	1.19
378.055	228.52
378.266	-29.52
378.476	-17.24
378.686	15.53
378.897	36.01
379.107	74.92
379.317	107.69
379.528	50.35
379.738	160.94
379.948	62.63
380.158	160.94
380.369	36.01
380.579	101.55
380.789	85.16
380.999	146.6
381.21	134.31
381.42	181.42
381.63	27.82
381.84	158.89
382.05	58.54
382.261	146.6
382.471	160.94
382.681	109.74
382.891	103.59
383.101	130.22
383.311	-52.05
383.521	13.48
383.731	109.74
383.941	76.97
384.151	99.5
384.361	138.41
384.571	115.88
384.781	76.97
384.991	175.27
385.201	224.42
385.411	44.2
385.621	103.59
385.831	93.35
386.041	48.3
386.251	1.19
386.461	95.4
386.671	83.11
386.881	76.97
387.091	42.15
387.301	52.39
387.511	85.16
387.72	72.87
387.93	179.37
388.14	-56.15
388.35	56.49
388.56	156.84
388.769	93.35
388.979	25.77
389.189	3.24
389.399	50.35
389.609	42.15
389.818	99.5
390.028	21.67
390.238	64.68
390.447	27.82
390.657	113.83
390.867	-7
391.076	-17.24
391.286	103.59
391.496	111.78
391.705	66.73
391.915	91.31
392.125	138.41
392.334	38.06
392.544	183.46
392.753	87.21
392.963	46.25
393.172	79.02
393.382	87.21
393.591	226.47
393.801	1.19
394.01	162.98
394.22	140.46
394.429	-9.05
394.639	68.78
394.848	7.34
395.058	72.87
395.267	72.87
395.477	261.29
395.686	87.21
395.895	205.99
396.105	179.37
396.314	17.58
396.524	144.55
396.733	-13.14
396.942	93.35
397.152	134.31
397.361	162.98
397.57	117.93
397.78	89.26
397.989	93.35
398.198	218.28
398.407	36.01
398.617	62.63
398.826	138.41
399.035	3.24
399.244	97.45
399.453	111.78
399.663	89.26
399.872	91.31
400.081	-160.59
400.29	60.59
400.499	-25.43
400.708	111.78
400.917	79.02
401.127	99.5
401.336	42.15
401.545	156.84
401.754	81.07
401.963	146.6
402.172	62.63
402.381	31.91
402.59	-13.14
402.799	99.5
403.008	79.02
403.217	87.21
403.426	56.49
403.635	44.2
403.844	91.31
404.053	25.77
404.262	29.87
404.471	199.85
404.68	89.26
404.888	46.25
405.097	115.88
405.306	93.35
405.515	119.98
405.724	56.49
405.933	115.88
406.142	152.74
406.35	87.21
406.559	83.11
406.768	-29.52
406.977	126.12
407.185	158.89
407.394	46.25
407.603	31.91
407.812	122.02
408.02	126.12
408.229	33.96
408.438	95.4
408.646	-54.1
408.855	79.02
409.064	171.18
409.272	46.25
409.481	83.11
409.69	-33.62
409.898	-35.67
410.107	46.25
410.315	109.74
410.524	91.31
410.733	111.78
410.941	36.01
411.15	148.65
411.358	93.35
411.567	136.36
411.775	171.18
411.984	128.17
412.192	136.36
412.401	70.83
412.609	185.51
412.818	124.07
413.026	81.07
413.234	13.48
413.443	91.31
413.651	1.19
413.86	31.91
414.068	138.41
414.276	175.27
414.485	79.02
414.693	171.18
414.901	187.56
415.11	91.31
415.318	25.77
415.526	91.31
415.734	56.49
415.943	48.3
416.151	226.47
416.359	101.55
416.567	81.07
416.776	173.22
416.984	111.78
417.192	175.27
417.4	50.35
417.608	-29.52
417.817	11.43
418.025	91.31
418.233	158.89
418.441	-37.72
418.649	23.72
418.857	89.26
419.065	152.74
419.273	52.39
419.481	93.35
419.689	23.72
419.897	40.11
420.105	-9.05
420.313	93.35
420.521	165.03
420.729	216.23
420.937	50.35
421.145	72.87
421.353	93.35
421.561	185.51
421.769	66.73
421.977	138.41
422.185	117.93
422.393	58.54
422.601	48.3
422.809	156.84
423.017	72.87
423.224	48.3
423.432	154.79
423.64	160.94
423.848	154.79
424.056	74.92
424.263	119.98
424.471	62.63
424.679	130.22
424.887	15.53
425.094	130.22
425.302	52.39
425.51	72.87
425.718	134.31
425.925	111.78
426.133	-15.19
426.341	224.42
426.548	54.44
426.756	33.96
426.964	187.56
427.171	29.87
427.379	146.6
427.586	83.11
427.794	162.98
428.001	181.42
428.209	40.11
428.417	208.04
428.624	148.65
428.832	167.08
429.039	150.7
429.247	66.73
429.454	126.12
429.662	263.33
429.869	122.02
430.076	107.69
430.284	146.6
430.491	224.42
430.699	212.14
430.906	187.56
431.114	175.27
431.321	167.08
431.528	189.61
431.736	208.04
431.943	89.26
432.15	146.6
432.358	138.41
432.565	304.29
432.772	23.72
432.979	273.57
433.187	115.88
433.394	240.81
433.601	232.62
433.808	304.29
434.016	302.25
434.223	220.33
434.43	144.55
434.637	136.36
434.844	146.6
435.052	320.68
435.259	287.91
435.466	150.7
435.673	238.76
435.88	271.53
436.087	242.85
436.294	287.91
436.501	275.62
436.708	257.19
436.915	234.66
437.122	369.83
437.329	240.81
437.537	390.31
437.743	363.69
437.95	482.47
438.157	314.53
438.364	378.02
438.571	398.5
438.778	390.31
438.985	472.23
439.192	441.51
439.399	367.78
439.606	392.36
439.813	478.37
440.02	607.39
440.227	568.48
440.433	556.19
440.64	496.8
440.847	494.76
441.054	543.91
441.261	654.5
441.467	613.54
441.674	558.24
441.881	703.65
442.088	640.16
442.294	750.75
442.501	760.99
442.708	793.76
442.914	750.75
443.121	795.81
443.328	804
443.534	926.88
443.741	828.57
443.948	756.9
444.154	904.35
444.361	1180.82
444.568	920.73
444.774	1021.08
444.981	971.93
445.187	1129.63
445.394	1156.25
445.6	1121.43
445.807	1275.03
446.013	1328.28
446.22	1070.23
446.426	1414.29
446.633	1420.44
446.839	1533.08
447.046	1311.89
447.252	1645.71
447.459	1520.79
447.665	1543.32
447.871	1684.62
448.078	1795.22
448.284	1852.56
448.491	1977.48
448.697	1885.33
448.903	2043.02
449.11	2069.64
449.316	2059.4
449.522	2276.49
449.728	2325.64
449.935	2462.85
450.141	2397.32
450.347	2557.06
450.553	2589.83
450.76	2544.77
450.966	2784.38
451.172	2942.08
451.378	3015.8
451.584	3001.47
451.791	3370.1
451.997	3329.14
452.203	3495.03
452.409	3597.43
452.615	3757.17
452.821	3456.12
453.027	3583.09
453.233	4103.28
453.44	3863.66
453.646	4146.28
453.852	4412.52
454.058	4490.34
454.264	4521.06
454.47	4852.83
454.676	4922.46
454.882	5432.41
455.088	5291.1
455.294	5469.27
455.5	5667.92
455.705	6157.39
455.911	6011.98
456.117	6360.14
456.323	6538.31
456.529	6636.61
456.735	6966.34
456.941	7226.43
457.147	7621.69
457.352	7593.01
457.558	8016.94
457.764	8686.63
457.97	8827.94
458.176	9124.9
458.381	9446.43
458.587	9731.09
458.793	10296.33
458.999	10083.34
459.204	11246.59
459.41	11647.99
459.616	11588.6
459.821	12250.1
460.027	12719.08
460.233	13386.72
460.438	13280.22
460.644	14181.33
460.85	14302.16
461.055	14963.65
461.261	15780.79
461.466	15383.49
461.672	15496.13
461.878	17433.5
462.083	17179.56
462.289	17724.32
462.494	18082.71
462.7	18428.82
462.905	18518.93
463.111	20161.4
463.316	21097.32
463.522	21302.12
463.727	22494.04
463.932	23087.95
464.138	23726.91
464.343	25021.23
464.549	24711.99
464.754	26694.42
464.959	27360.01
465.165	27763.46
465.37	27476.74
465.575	27720.45
465.781	29594.34
465.986	30239.45
466.191	29682.41
466.397	30266.08
466.602	29266.67
466.807	31161.04
467.012	31738.57
467.218	32295.61
467.423	32436.92
467.628	33481.39
467.833	35041.94
468.038	34298.53
468.244	33571.5
468.449	35453.58
468.654	34661.02
468.859	34409.12
469.064	34847.38
469.269	33747.62
469.474	34220.7
469.679	35287.7
469.885	33958.56
470.09	34939.54
470.295	34730.65
470.5	33850.02
470.705	34050.72
470.91	33424.04
471.115	32774.84
471.32	33833.64
471.525	33045.17
471.73	32230.08
471.935	32207.55
472.139	30819.03
472.344	31093.46
472.549	30900.95
472.754	30384.86
472.959	29653.73
473.164	28621.56
473.369	28146.43
473.574	28709.62
473.778	28168.96
473.983	27712.26
474.188	27484.94
474.393	26061.6
474.598	25660.2
474.802	25396.01
475.007	25248.55
475.212	24769.33
475.417	23677.76
475.621	23876.41
475.826	23511.88
476.031	22911.82
476.235	22565.71
476.44	22510.42
476.645	21732.19
476.849	21273.45
477.054	20999.02
477.259	20634.48
477.463	20798.32
477.668	20079.48
477.872	20382.58
478.077	19768.19
478.282	19039.11
478.486	18713.49
478.691	18641.81
478.895	18527.12
479.1	18404.24
479.304	18109.33
479.509	17886.11
479.713	18017.18
479.918	17363.87
480.122	16966.57
480.326	17331.11
480.531	17335.2
480.735	16702.38
480.94	16915.37
481.144	17056.68
481.348	16509.87
481.553	16319.41
481.757	15860.66
481.961	16323.51
482.166	16364.46
482.37	15961.02
482.574	15498.17
482.778	15414.21
482.983	15768.51
483.187	15506.37
483.391	15596.48
483.595	15076.29
483.8	14705.61
484.004	15074.24
484.208	14834.63
484.412	14953.41
484.616	14588.88
484.821	14576.59
485.025	14099.41
485.229	14177.23
485.433	13810.65
485.637	13628.38
485.841	13308.9
486.045	13300.7
486.249	13136.87
486.453	12747.75
486.657	12825.57
486.861	12671.98
487.065	12162.03
487.269	12258.29
487.473	11809.78
487.677	11906.04
487.881	11893.75
488.085	11394.04
488.289	11508.73
488.493	11230.21
488.697	11056.13
488.901	10767.37
489.105	10382.35
489.309	10476.55
489.512	10193.94
489.716	10116.11
489.92	9964.56
490.124	9686.04
490.328	9587.74
490.531	9569.3
490.735	9161.76
490.939	9008.16
491.143	8821.8
491.346	8760.36
491.55	8703.01
491.754	8508.46
491.958	8438.83
492.161	8195.12
492.365	8080.43
492.569	7930.93
492.772	7844.91
492.976	7900.21
493.18	7646.26
493.383	7627.83
493.587	7337.02
493.79	7347.26
493.994	7146.56
494.197	7078.97
494.401	7142.46
494.605	6874.18
494.808	7042.11
495.012	7033.92
495.215	6751.3
495.419	6982.72
495.622	6653
495.825	6831.17
496.029	6575.17
496.232	6775.88
496.436	6435.91
496.639	6935.62
496.843	6528.07
497.046	6589.51
497.249	6669.38
497.453	6466.63
497.656	6456.39
497.859	6540.36
498.063	6671.43
498.266	6702.15
498.469	6515.78
498.673	6468.68
498.876	6669.38
499.079	6653
499.282	6591.56
499.485	6982.72
499.689	6710.34
499.892	6812.74
500.095	6775.88
500.298	6931.52
500.501	6831.17
500.705	7083.07
500.908	7115.84
501.111	7097.41
501.314	7281.72
501.517	7179.33
501.72	7255.1
501.923	7285.82
502.126	7322.68
502.329	7709.75
502.532	7484.47
502.735	7709.75
502.938	7750.71
503.141	7699.51
503.344	7799.86
503.547	8076.34
503.75	7879.73
503.953	8240.17
504.156	8399.91
504.359	8180.78
504.562	8229.93
504.765	8674.34
504.968	8811.56
505.17	8862.76
505.373	9032.74
505.576	9272.35
505.779	9301.02
505.982	9620.5
506.185	9548.82
506.387	9729.05
506.59	9802.77
506.793	10216.46
506.996	10130.45
507.198	10619.91
507.401	10707.98
507.604	10888.2
507.807	11154.43
508.009	11367.42
508.212	11394.04
508.415	11582.46
508.617	11670.52
508.82	12141.55
509.022	12178.42
509.225	12757.99
509.428	12536.81
509.63	13173.73
509.833	13261.79
510.035	14089.17
510.238	13992.92
510.44	14367.7
510.643	14734.28
510.845	14941.13
511.048	15211.46
511.25	15297.47
511.453	15834.04
511.655	16432.05
511.858	16626.6
512.06	17132.45
512.262	17501.09
512.465	17630.11
512.667	17836.95
512.87	18408.34
513.072	18740.11
513.274	19573.63
513.477	19647.36
513.679	19895.16
513.881	20466.55
514.084	20958.06
514.286	21490.53
514.488	21672.8
514.69	22500.18
514.893	23001.93
515.095	23159.63
515.297	23792.45
515.499	24247.1
515.701	24726.32
515.904	25350.95
516.106	25989.92
516.308	26276.63
516.51	26735.38
516.712	27331.34
516.914	28166.91
517.116	28496.63
517.318	28979.95
517.52	29207.28
517.722	29676.26
517.925	30440.15
518.127	31267.53
518.329	31564.49
518.531	31640.26
518.733	32885.43
518.935	33346.22
519.136	33686.18
519.338	34654.87
519.54	34658.97
519.742	35404.43
519.944	35728.01
520.146	36614.78
520.348	36743.8
520.55	37210.74
520.752	37519.98
520.954	38277.73
521.155	38427.23
521.357	39219.8
521.559	39750.22
521.761	40325.7
521.963	40122.95
522.164	40874.55
522.366	41189.94
522.568	41374.26
522.77	41710.13
522.971	42410.53
523.173	42226.21
523.375	42838.56
523.576	42699.3
523.778	43106.84
523.98	43201.05
524.181	43573.78
524.383	43919.88
524.584	44268.04
524.786	43956.75
524.988	44036.62
525.189	44184.07
525.391	44390.92
525.592	44352.01
525.794	44614.15
525.995	44276.23
526.197	44585.47
526.398	44147.21
526.6	44509.7
526.801	44018.19
527.003	44409.35
527.204	44020.23
527.406	44282.37
527.607	43905.55
527.808	43516.43
528.01	42789.41
528.211	42848.8
528.412	43217.43
528.614	42658.34
528.815	42228.26
529.016	42230.31
529.218	41689.65
529.419	41572.91
529.62	41151.03
529.822	40915.51
530.023	40690.24
530.224	40354.37
530.425	39582.29
530.626	38785.63
530.828	38531.68
531.029	39025.24
531.23	38230.63
531.431	37511.79
531.632	37417.58
531.833	36692.6
532.035	36479.61
532.236	36371.07
532.437	35566.22
532.638	34863.77
532.839	34980.5
533.04	34538.14
533.241	33628.84
533.442	33800.87
533.643	33184.43
533.844	32508.6
534.045	32420.54
534.246	31777.48
534.447	31634.12
534.648	30728.92
534.849	30614.23
535.05	29874.91
535.251	29874.91
535.451	29397.74
535.652	29078.25
535.853	28629.75
536.054	28281.6
536.255	27931.39
536.456	27380.49
536.657	27550.47
536.857	26891.02
537.058	26561.3
537.259	26305.31
537.46	26030.88
537.66	25062.19
537.861	25215.79
538.062	24326.97
538.263	24355.64
538.463	23972.67
538.664	23960.38
538.865	23262.02
539.065	23399.24
539.266	22661.97
539.466	22735.7
539.667	22274.9
539.868	22322.01
540.068	21814.11
540.269	21295.97
540.469	21611.36
540.67	21318.5
540.87	20927.34
541.071	20200.31
541.271	20358
541.472	20276.09
541.672	19927.93
541.873	19430.27
542.073	19135.37
542.274	19352.45
542.474	19145.61
542.675	18949
542.875	18662.29
543.075	18176.92
543.276	18072.47
543.476	18357.14
543.676	17644.45
543.877	17585.05
544.077	17415.07
544.277	17204.13
544.478	17118.12
544.678	16923.56
544.878	16559.02
545.078	16372.66
545.279	16169.91
545.479	16116.66
545.679	15909.82
545.879	15754.17
546.079	15567.81
546.28	15356.86
546.48	15164.36
546.68	15119.3
546.88	14980.04
547.08	14808.01
547.28	14695.37
547.48	14101.46
547.68	14146.51
547.88	14054.36
548.081	13792.22
548.281	13460.45
548.481	13323.23
548.681	13231.07
548.881	13120.48
549.081	12911.59
549.28	12901.35
549.48	12499.95
549.68	12368.88
549.88	12268.53
550.08	11951.09
550.28	12094.45
550.48	11805.69
550.68	11627.51
550.88	11351.04
551.08	11318.27
551.279	11344.89
551.479	10941.44
551.679	10789.89
551.879	10595.34
552.079	10392.59
552.278	10365.96
552.478	10316.81
552.678	10132.5
552.878	10062.87
553.077	9669.66
553.277	9559.06
553.477	9323.55
553.676	9303.07
553.876	9258.01
554.076	8956.96
554.275	8909.86
554.475	8662.05
554.674	8623.14
554.874	8490.03
555.074	8297.52
555.273	8356.91
555.473	8148.01
555.672	7941.17
555.872	7785.52
556.071	7935.03
556.271	7687.22
556.47	7662.65
556.67	7226.43
556.869	7205.95
557.068	7203.9
557.268	7068.73
557.467	6796.35
557.667	6896.71
557.866	6802.5
558.065	6528.07
558.265	6343.75
558.464	6270.03
558.663	6401.1
558.863	6147.15
559.062	6245.45
559.261	5971.02
559.461	5960.78
559.66	5665.88
559.859	5682.26
560.058	5438.55
560.258	5413.98
560.457	5346.39
560.656	5477.46
560.855	5102.68
561.054	5256.28
561.253	5157.98
561.453	5051.49
561.652	4973.66
561.851	4850.78
562.05	4668.52
562.249	4568.16
562.448	4582.5
562.647	4506.73
562.846	4428.9
563.045	4562.02
563.244	4283.5
563.443	4410.47
563.642	4123.76
563.841	4162.67
564.04	4015.21
564.239	4209.77
564.438	3953.77
564.637	3855.47
564.836	3808.37
565.035	3865.71
565.234	3710.07
565.432	3783.79
565.631	3730.55
565.83	3619.96
566.029	3550.32
566.228	3421.3
566.427	3478.65
566.625	3279.99
566.824	3421.3
567.023	3331.19
567.222	3241.08
567.42	3310.71
567.619	3081.34
567.818	3157.11
568.016	3249.27
568.215	3101.82
568.414	3015.8
568.612	2942.08
568.811	2911.36
569.01	2862.21
569.208	2788.48
569.407	2868.35
569.605	2815.1
569.804	2712.71
570.002	2761.86
570.201	2659.46
570.4	2700.42
570.598	2505.86
570.797	2520.2
570.995	2434.18
571.193	2407.56
571.392	2362.5
571.59	2278.54
571.789	2385.03
571.987	2290.82
572.186	2374.79
572.384	2200.71
572.582	2122.89
572.781	2278.54
572.979	1930.38
573.177	2010.25
573.376	2204.81
573.574	2083.98
573.772	1895.57
573.971	1895.57
574.169	1821.84
574.367	1993.87
574.565	1887.37
574.763	1760.4
574.962	1870.99
575.16	1780.88
575.358	1709.2
575.556	1690.77
575.754	1619.09
575.952	1647.76
576.151	1717.39
576.349	1694.86
576.547	1555.6
576.745	1645.71
576.943	1635.47
577.141	1559.7
577.339	1473.68
577.537	1537.17
577.735	1549.46
577.933	1485.97
578.131	1361.05
578.329	1533.08
578.527	1285.27
578.725	1438.87
578.923	1293.46
579.121	1336.47
579.319	1092.76
579.516	1277.08
579.714	1383.57
579.912	1232.02
580.11	1170.58
580.308	1227.93
580.506	1158.3
580.704	1059.99
580.901	1125.53
581.099	1115.29
581.297	1047.71
581.495	1170.58
581.692	1094.81
581.89	1197.21
582.088	1141.91
582.285	994.46
582.483	1092.76
582.681	1006.75
582.878	1088.67
583.076	1094.81
583.274	918.68
583.471	1156.25
583.669	990.36
583.866	865.44
584.064	896.16
584.262	865.44
584.459	963.74
584.657	935.07
584.854	896.16
585.052	869.53
585.249	826.53
585.447	851.1
585.644	699.55
585.841	863.39
586.039	859.29
586.236	943.26
586.434	758.94
586.631	736.42
586.828	732.32
587.026	711.84
587.223	685.22
587.42	623.78
587.618	713.89
587.815	804
588.012	670.88
588.21	693.41
588.407	785.57
588.604	703.65
588.801	582.82
588.999	677.02
589.196	687.26
589.393	677.02
589.59	681.12
589.787	701.6
589.984	599.2
590.182	670.88
590.379	609.44
590.576	552.1
590.773	574.63
590.97	554.15
591.167	638.11
591.364	629.92
591.561	584.87
591.758	720.03
591.955	576.67
592.152	654.5
592.349	611.49
592.546	580.77
592.743	638.11
592.94	658.59
593.137	603.3
593.334	558.24
593.531	664.74
593.727	615.59
593.924	625.83
594.121	597.15
594.318	597.15
594.515	666.78
594.712	703.65
594.908	732.32
595.105	588.96
595.302	629.92
595.499	724.13
595.696	734.37
595.892	674.98
596.089	773.28
596.286	621.73
596.482	781.47
596.679	689.31
596.876	646.3
597.072	767.13
597.269	599.2
597.466	818.33
597.662	795.81
597.859	867.49
598.055	900.25
598.252	894.11
598.448	982.17
598.645	961.69
598.841	1006.75
599.038	1139.87
599.234	1168.54
599.431	1070.23
599.627	1103
599.824	1207.45
600.02	1277.08
600.217	1225.88
600.413	1277.08
600.609	1428.63
600.806	1598.61
601.002	1463.44
601.198	1453.2
601.395	1559.7
601.591	1574.03
601.787	1748.11
601.984	1758.35
602.18	1897.61
602.376	1813.65
602.572	1940.62
602.769	2040.97
602.965	2118.79
603.161	2288.78
603.357	2264.2
603.553	2403.46
603.75	2346.12
603.946	2524.29
604.142	2595.97
604.338	2817.15
604.534	2567.3
604.73	2813.06
604.926	2829.44
605.122	3038.33
605.318	3185.79
605.514	3167.35
605.71	3089.53
605.906	3257.46
606.102	3456.12
606.298	3697.78
606.494	3646.58
606.69	3918.96
606.886	3853.42
607.082	3998.83
607.278	4072.56
607.474	4377.7
607.67	4389.99
607.866	4285.55
608.062	4615.27
608.257	4725.86
608.453	4717.67
608.649	5012.57
608.845	5004.38
609.041	5047.39
609.236	5385.3
609.432	5436.5
609.628	5653.59
609.824	5862.48
610.019	5755.99
610.215	6067.28
610.411	6300.75
610.606	6499.4
610.802	6487.11
610.998	6847.55
611.193	6997.06
611.389	6892.61
611.584	7263.29
611.78	7296.06
611.976	7697.46
612.171	7943.22
612.367	8004.66
612.562	8148.01
612.758	8406.06
612.953	8598.57
613.149	9092.13
613.344	9180.19
613.539	9542.68
613.735	9808.92
613.93	9894.93
614.126	10034.19
614.321	10462.22
614.517	10667.02
614.712	11062.27
614.907	11015.17
615.103	11510.78
615.298	11715.58
615.493	12065.78
615.688	12497.9
615.884	12921.83
616.079	12966.88
616.274	13358.05
616.47	13634.52
616.665	14035.92
616.86	14328.78
617.055	14816.2
617.25	14951.37
617.445	15393.73
617.641	15838.14
617.836	16198.58
618.031	16737.2
618.226	17042.34
618.421	17451.94
618.616	17804.19
618.811	18064.28
619.006	19112.84
619.201	18987.91
619.396	19131.27
619.591	19659.65
619.786	20446.07
619.981	20695.92
620.176	21273.45
620.371	21427.04
620.566	22059.87
620.761	22655.82
620.956	23208.78
621.151	22868.81
621.346	23851.84
621.541	24064.83
621.735	24847.15
621.93	25185.07
622.125	25914.14
622.32	25889.57
622.515	26536.73
622.709	26903.31
622.904	27497.22
623.099	27953.92
623.294	28871.41
623.488	28668.66
623.683	29754.08
623.878	29684.45
624.072	30386.91
624.267	30911.19
624.462	31107.79
624.656	31451.85
624.851	32324.29
625.046	32627.38
625.24	33184.43
625.435	33647.27
625.629	33997.48
625.824	34575
626.018	35058.32
626.213	34828.95
626.407	35926.66
626.602	35709.58
626.796	36350.59
626.991	36770.43
627.185	37153.4
627.38	37446.26
627.574	37685.87
627.768	37642.86
627.963	37552.75
628.157	37970.54
628.352	38660.7
628.546	38105.7
628.74	38543.97
628.935	38011.49
629.129	38021.73
629.323	37749.35
629.517	37943.91
629.712	37057.14
629.906	37302.9
630.1	36725.37
630.294	37094
630.489	36389.5
630.683	36082.31
630.877	34890.39
631.071	34738.84
631.265	34329.25
631.459	33733.29
631.653	32623.29
631.848	31947.46
632.042	31324.88
632.236	30884.56
632.43	29995.74
632.624	29006.58
632.818	28058.37
633.012	27419.4
633.206	26624.79
633.4	25695.01
633.594	24699.7
633.788	23987
633.982	23352.13
634.176	22565.71
634.369	21719.9
634.563	20800.37
634.757	20122.49
634.951	19321.73
635.145	18563.98
635.339	17775.52
635.533	17140.65
635.726	16462.77
635.92	15668.16
636.114	15133.64
636.308	14601.16
636.501	13988.82
636.695	13442.01
636.889	12645.35
637.083	12506.09
637.276	11934.71
637.47	11387.9
637.664	10920.96
637.857	10501.13
638.051	10009.62
638.244	9675.8
638.438	9329.69
638.632	9071.65
638.825	8352.81
639.019	8283.18
639.212	7906.35
639.406	7525.43
639.599	7328.83
639.793	7099.45
639.986	6675.52
640.18	6595.65
640.373	6270.03
640.567	5954.64
640.76	5868.63
640.954	5469.27
641.147	5252.19
641.34	5086.3
641.534	4922.46
641.727	4873.31
641.92	4717.67
642.114	4463.72
642.307	4164.72
642.5	4213.87
642.694	3929.2
642.887	3736.69
643.08	3742.83
643.273	3533.94
643.467	3323
643.66	3150.97
643.853	3087.48
644.046	2954.37
644.239	2901.12
644.432	2712.71
644.626	2593.92
644.819	2555.01
645.012	2516.1
645.205	2524.29
645.398	2399.37
645.591	2178.19
645.784	2165.9
645.977	2047.12
646.17	1993.87
646.363	1830.03
646.556	1774.74
646.749	1703.06
646.942	1705.1
647.135	1649.81
647.328	1582.23
647.521	1688.72
647.714	1393.81
647.907	1371.29
648.099	1219.74
648.292	1356.95
648.485	1338.52
648.678	1174.68
648.871	1107.1
649.064	1103
649.256	1059.99
649.449	1041.56
649.642	920.73
649.835	963.74
650.027	873.63
650.22	965.79
650.413	873.63
650.605	851.1
650.798	806.05
650.991	801.95
651.183	754.85
651.376	789.66
651.568	728.22
651.761	711.84
651.954	699.55
652.146	597.15
652.339	552.1
652.531	732.32
652.724	593.06
652.916	476.32
653.109	392.36
653.301	709.79
653.494	656.54
653.686	548
653.879	539.81
654.071	570.53
654.263	529.57
654.456	455.84
654.648	560.29
654.84	545.95
655.033	410.79
655.225	521.38
655.417	349.35
655.61	373.92
655.802	488.61
655.994	472.23
656.186	281.77
656.379	414.88
656.571	357.54
656.763	318.63
656.955	251.05
657.148	310.44
657.34	365.73
657.532	337.06
657.724	240.81
657.916	304.29
658.108	343.21
658.3	357.54
658.492	343.21
658.684	283.81
658.876	341.16
659.068	199.85
659.26	185.51
659.452	189.61
659.644	281.77
659.836	359.59
660.028	318.63
660.22	160.94
660.412	210.09
660.604	210.09
660.796	179.37
660.988	322.73
661.18	208.04
661.372	220.33
661.563	175.27
661.755	187.56
661.947	126.12
662.139	191.66
662.331	177.32
662.522	195.75
662.714	148.65
662.906	171.18
663.097	179.37
663.289	152.74
663.481	146.6
663.673	181.42
663.864	140.46
664.056	244.9
664.247	142.5
664.439	306.34
664.631	113.83
664.822	189.61
665.014	216.23
665.205	124.07
665.397	109.74
665.588	154.79
665.78	140.46
665.971	203.94
666.163	175.27
666.354	191.66
666.546	95.4
666.737	126.12
666.929	101.55
667.12	146.6
667.311	124.07
667.503	134.31
667.694	132.26
667.885	144.55
668.077	105.64
668.268	21.67
668.459	183.46
668.651	208.04
668.842	103.59
669.033	142.5
669.224	109.74
669.416	308.39
669.607	128.17
669.798	70.83
669.989	279.72
670.18	191.66
670.371	189.61
670.563	85.16
670.754	205.99
670.945	140.46
671.136	201.9
671.327	126.12
671.518	263.33
671.709	263.33
671.9	144.55
672.091	218.28
672.282	101.55
672.473	122.02
672.664	138.41
672.855	185.51
673.046	140.46
673.237	283.81
673.428	97.45
673.619	201.9
673.809	175.27
674	162.98
674.191	177.32
674.382	138.41
674.573	156.84
674.764	89.26
674.954	277.67
675.145	-17.24
675.336	56.49
675.527	113.83
675.717	160.94
675.908	126.12
676.099	136.36
676.289	148.65
676.48	60.59
676.671	191.66
676.861	152.74
677.052	195.75
677.243	154.79
677.433	105.64
677.624	197.8
677.814	226.47
678.005	117.93
678.195	259.24
678.386	103.59
678.576	169.13
678.767	138.41
678.957	105.64
679.148	173.22
679.338	302.25
679.529	222.38
679.719	162.98
679.909	224.42
680.1	269.48
680.29	169.13
680.481	95.4
680.671	205.99
680.861	255.14
681.052	197.8
681.242	193.7
681.432	162.98
681.622	175.27
681.813	162.98
682.003	150.7
682.193	232.62
682.383	181.42
682.573	201.9
682.764	144.55
682.954	122.02
683.144	285.86
683.334	156.84
683.524	281.77
683.714	257.19
683.904	244.9
684.094	148.65
684.284	136.36
684.474	228.52
684.664	232.62
684.854	228.52
685.044	216.23
685.234	310.44
685.424	158.89
685.614	132.26
685.804	275.62
685.994	232.62
686.184	203.94
686.374	230.57
686.564	156.84
686.753	205.99
686.943	212.14
687.133	169.13
687.323	205.99
687.513	269.48
687.702	273.57
687.892	173.22
688.082	208.04
688.272	238.76
688.461	183.46
688.651	296.1
688.841	265.38
689.03	148.65
689.22	101.55
689.41	216.23
689.599	279.72
689.789	105.64
689.979	255.14
690.168	177.32
690.358	300.2
690.547	187.56
690.737	179.37
690.926	171.18
691.116	185.51
691.305	242.85
691.495	257.19
691.684	140.46
691.874	187.56
692.063	152.74
692.252	195.75
692.442	242.85
692.631	134.31
692.82	140.46
693.01	156.84
693.199	249
693.388	193.7
693.578	171.18
693.767	175.27
693.956	234.66
694.146	230.57
694.335	255.14
694.524	173.22
694.713	236.71
694.902	179.37
695.092	50.35
695.281	257.19
695.47	162.98
695.659	197.8
695.848	138.41
696.037	167.08
696.226	269.48
696.415	226.47
696.604	287.91
696.793	214.18
696.982	122.02
697.171	304.29
697.36	150.7
697.549	146.6
697.738	46.25
697.927	185.51
698.116	113.83
698.305	224.42
698.494	183.46
698.683	148.65
698.872	298.15
699.061	103.59
699.25	142.5
699.438	253.09
699.627	87.21
699.816	283.81
700.005	138.41
700.193	208.04
700.382	261.29
700.571	201.9
700.76	285.86
700.948	142.5
701.137	191.66
701.326	275.62
701.514	99.5
701.703	232.62
701.892	212.14
702.08	242.85
702.269	177.32
702.457	99.5
702.646	218.28
702.834	253.09
703.023	220.33
703.212	167.08
703.4	181.42
703.589	160.94
703.777	162.98
703.965	87.21
704.154	148.65
704.342	74.92
704.531	226.47
704.719	255.14
704.907	246.95
705.096	46.25
705.284	124.07
705.472	201.9
705.661	232.62
705.849	222.38
706.037	216.23
706.226	199.85
706.414	304.29
706.602	179.37
706.79	263.33
706.979	154.79
707.167	160.94
707.355	52.39
707.543	253.09
707.731	150.7
707.919	191.66
708.107	199.85
708.296	126.12
708.484	83.11
708.672	246.95
708.86	185.51
709.048	249
709.236	122.02
709.424	208.04
709.612	238.76
709.8	93.35
709.988	220.33
710.176	222.38
710.364	193.7
710.551	144.55
710.739	134.31
710.927	93.35
711.115	210.09
711.303	208.04
711.491	277.67
711.679	101.55
711.866	332.97
712.054	146.6
712.242	154.79
712.43	246.95
712.617	162.98
712.805	308.39
712.993	203.94
713.181	72.87
713.368	177.32
713.556	189.61
713.744	179.37
713.931	433.32
714.119	240.81
714.306	191.66
714.494	197.8
714.682	179.37
714.869	103.59
715.057	205.99
715.244	79.02
715.432	179.37
715.619	187.56
715.807	150.7
715.994	136.36
716.182	109.74
716.369	249
716.556	197.8
716.744	91.31
716.931	44.2
717.119	193.7
717.306	205.99
717.493	230.57
717.681	216.23
717.868	158.89
718.055	216.23
718.242	191.66
718.43	238.76
718.617	214.18
718.804	246.95
718.991	255.14
719.179	277.67
719.366	249
719.553	232.62
719.74	126.12
719.927	156.84
720.114	261.29
720.301	113.83
720.488	193.7
720.676	144.55
720.863	244.9
721.05	292.01
721.237	179.37
721.424	320.68
721.611	173.22
721.798	142.5
721.985	146.6
722.172	150.7
722.358	224.42
722.545	275.62
722.732	287.91
722.919	306.34
723.106	195.75
723.293	220.33
723.48	179.37
723.667	244.9
723.853	318.63
724.04	208.04
724.227	273.57
724.414	236.71
724.6	285.86
724.787	322.73
724.974	298.15
725.161	220.33
725.347	160.94
725.534	181.42
725.72	275.62
725.907	349.35
726.094	318.63
726.28	183.46
726.467	214.18
726.653	232.62
726.84	406.69
727.027	242.85
727.213	162.98
727.4	277.67
727.586	210.09
727.773	189.61
727.959	142.5
728.145	244.9
728.332	240.81
728.518	140.46
728.705	265.38
728.891	238.76
729.077	244.9
729.264	179.37
729.45	310.44
729.636	269.48
729.823	201.9
730.009	273.57
730.195	246.95
730.382	255.14
730.568	158.89
730.754	253.09
730.94	156.84
731.126	222.38
731.313	337.06
731.499	212.14
731.685	275.62
731.871	230.57
732.057	283.81
732.243	312.49
732.429	339.11
732.615	302.25
732.801	259.24
732.987	224.42
733.173	220.33
733.359	220.33
733.545	183.46
733.731	244.9
733.917	332.97
734.103	308.39
734.289	210.09
734.475	175.27
734.661	312.49
734.847	242.85
735.033	261.29
735.219	300.2
735.404	154.79
735.59	148.65
735.776	111.78
735.962	304.29
736.148	199.85
736.333	328.87
736.519	195.75
736.705	240.81
736.89	249
737.076	261.29
737.262	179.37
737.447	195.75
737.633	214.18
737.819	330.92
738.004	216.23
738.19	205.99
738.375	279.72
738.561	281.77
738.747	220.33
738.932	165.03
739.118	316.58
739.303	261.29
739.489	265.38
739.674	212.14
739.859	130.22
740.045	367.78
740.23	226.47
740.416	89.26
740.601	183.46
740.786	208.04
740.972	165.03
741.157	140.46
741.342	210.09
741.528	122.02
741.713	318.63
741.898	177.32
742.084	244.9
742.269	119.98
742.454	306.34
742.639	318.63
742.824	208.04
743.01	259.24
743.195	398.5
743.38	220.33
743.565	230.57
743.75	240.81
743.935	316.58
744.12	275.62
744.305	154.79
744.49	189.61
744.675	294.05
744.86	191.66
745.045	271.53
745.23	218.28
745.415	216.23
745.6	269.48
745.785	179.37
745.97	314.53
746.155	279.72
746.34	298.15
746.525	242.85
746.71	341.16
746.895	111.78
747.079	142.5
747.264	142.5
747.449	269.48
747.634	310.44
747.819	220.33
748.003	124.07
748.188	210.09
748.373	236.71
748.557	208.04
748.742	183.46
748.927	259.24
749.111	195.75
749.296	130.22
749.481	203.94
749.665	134.31
749.85	195.75
750.034	234.66
750.219	162.98
750.404	148.65
750.588	322.73
750.773	205.99
750.957	232.62
751.141	158.89
751.326	279.72
751.51	154.79
751.695	165.03
751.879	134.31
752.064	310.44
752.248	162.98
752.432	318.63
752.617	224.42
752.801	189.61
752.985	162.98
753.17	289.96
753.354	212.14
753.538	253.09
753.722	154.79
753.907	162.98
754.091	58.54
754.275	181.42
754.459	-7
754.643	13.48
754.828	148.65
755.012	228.52
755.196	60.59
755.38	214.18
755.564	68.78
755.748	128.17
755.932	191.66
756.116	130.22
756.3	160.94
756.484	146.6
756.668	138.41
756.852	42.15
757.036	144.55
757.22	210.09
757.404	89.26
757.588	113.83
757.772	150.7
757.956	162.98
758.14	265.38
758.323	89.26
758.507	201.9
758.691	122.02
758.875	187.56
759.059	193.7
759.242	36.01
759.426	165.03
759.61	122.02
759.794	27.82
759.977	199.85
760.161	373.92
760.345	259.24
760.528	189.61
760.712	205.99
760.895	197.8
761.079	111.78
761.263	83.11
761.446	85.16
761.63	89.26
761.813	160.94
761.997	89.26
762.18	85.16
762.364	136.36
762.547	50.35
762.731	119.98
762.914	11.43
763.098	79.02
763.281	150.7
763.464	70.83
763.648	154.79
763.831	62.63
764.015	154.79
764.198	183.46
764.381	93.35
764.564	97.45
764.748	140.46
764.931	183.46
765.114	62.63
765.297	287.91
765.481	27.82
765.664	-29.52
765.847	81.07
766.03	154.79
766.213	101.55
766.397	52.39
766.58	15.53
766.763	185.51
766.946	54.44
767.129	111.78
767.312	89.26
767.495	70.83
767.678	109.74
767.861	66.73
768.044	99.5
768.227	13.48
768.41	103.59
768.593	113.83
768.776	101.55
768.959	109.74
769.142	222.38
769.324	79.02
769.507	89.26
769.69	68.78
769.873	52.39
770.056	222.38
770.239	68.78
770.421	199.85
770.604	146.6
770.787	83.11
770.97	103.59
771.152	58.54
771.335	60.59
771.518	36.01
771.7	179.37
771.883	220.33
772.066	89.26
772.248	105.64
772.431	122.02
772.613	203.94
772.796	17.58
772.978	101.55
773.161	232.62
773.343	13.48
773.526	5.29
773.708	19.63
773.891	13.48
774.073	60.59
774.256	60.59
774.438	187.56
774.621	105.64
774.803	56.49
774.985	33.96
775.168	97.45
775.35	29.87
775.532	140.46
775.715	60.59
775.897	72.87
776.079	-7
776.261	107.69
776.444	50.35
776.626	68.78
776.808	23.72
776.99	48.3
777.173	160.94
777.355	17.58
777.537	-9.05
777.719	113.83
777.901	68.78
778.083	-4.95
778.265	-80.72
778.447	140.46
778.629	60.59
778.811	107.69
778.993	136.36
779.175	208.04
779.357	83.11
779.539	-43.86
779.721	21.67
779.903	134.31
780.085	29.87
780.267	79.02
780.449	124.07
780.631	136.36
780.812	173.22
780.994	36.01
781.176	64.68
781.358	31.91
781.54	81.07
781.721	101.55
781.903	122.02
782.085	21.67
782.267	122.02
782.448	-60.24
782.63	31.91
782.812	140.46
782.993	42.15
783.175	154.79
783.357	36.01
783.538	87.21
783.72	97.45
783.901	-4.95
784.083	148.65
784.264	38.06
784.446	-7
784.627	-21.33
784.809	62.63
784.99	48.3
785.172	76.97
785.353	83.11
785.535	99.5
785.716	60.59
785.897	-31.57
786.079	21.67
786.26	38.06
786.441	33.96
786.623	-25.43
786.804	-60.24
786.985	81.07
787.167	56.49
787.348	60.59
787.529	11.43
787.71	146.6
787.891	103.59
788.073	-4.95
788.254	-27.48
788.435	140.46
788.616	56.49
788.797	9.39
788.978	15.53
789.159	-9.05
789.34	85.16
789.522	-23.38
789.703	19.63
789.884	72.87
790.065	87.21
790.246	91.31
790.427	7.34
790.607	136.36
790.788	126.12
790.969	-41.81
791.15	99.5
791.331	-76.63
791.512	-25.43
791.693	-15.19
791.874	-29.52
792.054	187.56
792.235	33.96
792.416	-15.19
792.597	-11.09
792.778	54.44
792.958	81.07
793.139	103.59
793.32	83.11
793.5	-29.52
793.681	148.65
793.862	72.87
794.042	23.72
794.223	-31.57
794.404	-9.05
794.584	-99.16
794.765	-17.24
794.945	27.82
795.126	27.82
795.306	81.07
795.487	19.63
795.667	15.53
795.848	79.02
796.028	44.2
796.209	105.64
796.389	62.63
796.57	60.59
796.75	1.19
796.93	-58.2
797.111	-0.85
797.291	-27.48
797.471	83.11
797.652	-4.95
797.832	17.58
798.012	103.59
798.192	9.39
798.373	-109.4
798.553	38.06
798.733	87.21
798.913	-35.67
799.093	-35.67
799.274	62.63
799.454	117.93
799.634	122.02
799.814	54.44
799.994	87.21
800.174	64.68
800.354	101.55
800.534	-115.54
800.714	62.63
800.894	-66.39
801.074	-13.14
801.254	1.19
801.434	132.26
801.614	44.2
801.794	-35.67
801.974	1746.06
802.154	3.24
802.334	91.31
802.514	-19.29
802.693	1.19
802.873	60.59
803.053	132.26
803.233	62.63
803.413	27.82
803.592	-105.3
803.772	-31.57
803.952	-15.19
804.131	-86.87
804.311	109.74
804.491	103.59
804.67	-54.1
804.85	21.67
805.03	122.02
805.209	52.39
805.389	-95.06
805.568	-0.85
805.748	60.59
805.928	31.91
806.107	68.78
806.287	38.06
806.466	109.74
806.646	15.53
806.825	50.35
807.004	-25.43
807.184	19.63
807.363	64.68
807.543	23.72
807.722	1.19
807.901	111.78
808.081	74.92
808.26	-99.16
808.439	56.49
808.619	122.02
808.798	3.24
808.977	-0.85
809.156	-2.9
809.336	60.59
809.515	81.07
809.694	-58.2
809.873	-50
810.052	91.31
810.231	111.78
810.411	11.43
810.59	132.26
810.769	58.54
810.948	33.96
811.127	-64.34
811.306	36.01
811.485	17.58
811.664	124.07
811.843	13.48
812.022	3.24
812.201	66.73
812.38	70.83
812.559	-7
812.737	81.07
812.916	-25.43
813.095	-60.24
813.274	93.35
813.453	-21.33
813.632	76.97
813.811	87.21
813.989	-60.24
814.168	25.77
814.347	-45.91
814.526	1.19
814.704	134.31
814.883	210.09
815.062	15.53
815.24	87.21
815.419	7.34
815.598	74.92
815.776	-131.92
815.955	68.78
816.133	-29.52
816.312	-2.9
816.49	13.48
816.669	87.21
816.847	15.53
817.026	40.11
817.204	11.43
817.383	40.11
817.561	29.87
817.74	-62.29
817.918	1.19
818.097	-17.24
818.275	11.43
818.453	7.34
818.632	105.64
818.81	42.15
818.988	-72.53
819.167	-21.33
819.345	-39.76
819.523	-23.38
819.701	99.5
819.879	1.19
820.058	21.67
820.236	54.44
820.414	62.63
820.592	19.63
820.77	-23.38
820.948	-41.81
821.127	9.39
821.305	46.25
821.483	-86.87
821.661	54.44
821.839	-2.9
822.017	-95.06
822.195	-39.76
822.373	62.63
822.551	-19.29
822.729	56.49
822.907	-31.57
823.085	29.87
823.262	29.87
823.44	23.72
823.618	-15.19
823.796	-31.57
823.974	-4.95
824.152	-47.96
824.329	15.53
824.507	-4.95
824.685	-29.52
824.863	27.82
825.04	-4.95
825.218	68.78
825.396	70.83
825.574	29.87
825.751	70.83
825.929	79.02
826.107	-31.57
826.284	-23.38
826.462	-11.09
826.639	-15.19
826.817	-50
826.994	83.11
827.172	21.67
827.349	189.61
827.527	81.07
827.704	54.44
827.882	74.92
828.059	27.82
828.237	-62.29
828.414	46.25
828.591	-133.97
828.769	13.48
828.946	-31.57
829.124	105.64
829.301	232.62
829.478	-54.1
829.655	46.25
829.833	-7
830.01	-90.96
830.187	-33.62
830.364	29.87
830.542	68.78
830.719	107.69
830.896	60.59
831.073	1.19
831.25	38.06
831.427	38.06
831.604	-13.14
831.782	-7
831.959	89.26
832.136	15.53
832.313	23.72
832.49	-35.67
832.667	13.48
832.844	21.67
833.021	76.97
833.198	56.49
833.374	7.34
833.551	109.74
833.728	40.11
833.905	89.26
834.082	-50
834.259	29.87
834.436	58.54
834.612	17.58
834.789	66.73
834.966	-13.14
835.143	-0.85
835.319	-25.43
835.496	60.59
835.673	79.02
835.85	50.35
836.026	83.11
836.203	79.02
836.38	-39.76
836.556	33.96
836.733	-13.14
836.909	136.36
837.086	-9.05
837.262	-52.05
837.439	48.3
837.616	38.06
837.792	-9.05
837.968	83.11
838.145	-0.85
838.321	-9.05
838.498	76.97
838.674	87.21
838.851	93.35
839.027	-50
839.203	-37.72
839.38	1.19
839.556	-33.62
839.732	150.7
839.909	-23.38
840.085	105.64
840.261	-54.1
840.437	19.63
840.614	-0.85
840.79	52.39
840.966	50.35
841.142	68.78
841.318	-0.85
841.494	85.16
841.671	132.26
841.847	-0.85
842.023	-97.11
842.199	68.78
842.375	134.31
842.551	-133.97
842.727	-70.48
842.903	107.69
843.079	-70.48
843.255	58.54
843.431	13.48
843.607	36.01
843.783	-78.68
843.959	113.83
844.134	-2.9
844.31	103.59
844.486	29.87
844.662	-11.09
844.838	83.11
845.013	-33.62
845.189	126.12
845.365	93.35
845.541	124.07
845.716	-29.52
845.892	91.31
846.068	-54.1
846.244	-23.38
846.419	31.91
846.595	-2.9
846.77	-82.77
846.946	109.74
847.122	17.58
847.297	-21.33
847.473	138.41
847.648	-105.3
847.824	31.91
847.999	-82.77
848.175	19.63
848.35	-21.33
848.526	103.59
848.701	128.17
848.876	132.26
849.052	64.68
849.227	-54.1
849.403	-47.96
849.578	11.43
849.753	-27.48
849.929	-2.9
850.104	-84.82
850.279	9.39
850.454	-13.14
850.63	119.98
850.805	-47.96
850.98	36.01
851.155	11.43
851.33	79.02
851.505	7.34
851.681	115.88
851.856	-27.48
852.031	52.39
852.206	79.02
852.381	-62.29
852.556	17.58
852.731	93.35
852.906	111.78
853.081	27.82
853.256	119.98
853.431	29.87
853.606	-21.33
853.781	-45.91
853.956	-103.25
854.131	62.63
854.305	-27.48
854.48	17.58
854.655	-43.86
854.83	-41.81
855.005	-0.85
855.18	62.63
855.354	27.82
855.529	89.26
855.704	-21.33
855.879	17.58
856.053	-27.48
856.228	58.54
856.403	89.26
856.577	23.72
856.752	-158.55
856.926	3.24
857.101	-19.29
857.276	11.43
857.45	27.82
857.625	128.17
857.799	33.96
857.974	3.24
858.148	-45.91
858.323	7.34
858.497	-35.67
858.672	-7
858.846	-27.48
859.02	29.87
859.195	-25.43
859.369	-29.52
859.543	-9.05
859.718	-19.29
859.892	-37.72
860.066	76.97
860.241	-25.43
860.415	-4.95
860.589	-56.15
860.763	74.92
860.938	29.87
861.112	70.83
861.286	-45.91
861.46	46.25
861.634	48.3
861.808	83.11
861.982	-27.48
862.157	-70.48
862.331	-29.52
862.505	-82.77
862.679	-64.34
862.853	-93.01
863.027	3.24
863.201	91.31
863.375	-50
863.549	76.97
863.722	103.59
863.896	21.67
864.07	-2.9
864.244	19.63
864.418	44.2
864.592	42.15
864.766	19.63
864.939	-15.19
865.113	-4.95
865.287	40.11
865.461	-21.33
865.634	17.58
865.808	19.63
865.982	9.39
866.156	-70.48
866.329	-62.29
866.503	25.77
866.676	103.59
866.85	25.77
867.024	-47.96
867.197	91.31
867.371	74.92
867.544	-15.19
867.718	-90.96
867.891	21.67
868.065	-37.72
868.238	-4.95
868.412	111.78
868.585	-35.67
868.759	-95.06
868.932	-60.24
869.105	-62.29
869.279	-84.82
869.452	-7
869.625	17.58
869.799	40.11
869.972	-76.63
870.145	5.29
870.319	44.2
870.492	-58.2
870.665	-33.62
870.838	-9.05
871.011	-107.35
871.185	-45.91
871.358	-39.76
871.531	56.49
871.704	-13.14
871.877	72.87
872.05	-33.62
872.223	-33.62
872.396	19.63
872.569	33.96
872.742	-84.82
872.915	29.87
873.088	-9.05
873.261	-4.95
873.434	138.41
873.607	9.39
873.78	119.98
873.953	-113.49
874.126	101.55
874.299	52.39
874.471	-86.87
874.644	-31.57
874.817	19.63
874.99	40.11
875.163	9.39
875.335	95.4
875.508	-31.57
875.681	97.45
875.853	-82.77
876.026	-35.67
876.199	87.21
876.371	13.48
876.544	-0.85
876.717	-0.85
876.889	29.87
877.062	-60.24
877.234	-168.79
877.407	-29.52
877.579	-60.24
877.752	15.53
877.924	138.41
878.097	11.43
878.269	64.68
878.442	60.59
878.614	91.31
878.786	19.63
878.959	11.43
879.131	103.59
879.303	-72.53
879.476	62.63
879.648	91.31
879.82	-19.29
879.993	-35.67
880.165	-2.9
880.337	-90.96
880.509	27.82
880.681	-113.49
880.854	54.44
881.026	15.53
881.198	138.41
881.37	-4.95
881.542	42.15
881.714	-31.57
881.886	-35.67
882.058	38.06
882.23	-35.67
882.402	25.77
882.574	11.43
882.746	40.11
882.918	238.76
883.09	72.87
883.262	13.48
883.434	38.06
883.606	-66.39
883.778	-25.43
883.95	122.02
884.122	72.87
884.293	72.87
884.465	15.53
884.637	48.3
884.809	-23.38
884.98	36.01
885.152	-7
885.324	89.26
885.496	-0.85
885.667	7.34
885.839	-31.57
886.011	144.55
886.182	-25.43
886.354	29.87
886.525	-2.9
886.697	56.49
886.869	-41.81
887.04	93.35
887.212	21.67
887.383	191.66
887.555	-4.95
887.726	-76.63
887.897	-39.76
888.069	-17.24
888.24	85.16
888.412	-31.57
888.583	15.53
888.754	-31.57
888.926	-107.35
889.097	-4.95
889.268	-41.81
889.44	-9.05
889.611	-60.24
889.782	-23.38
889.953	-13.14
890.125	48.3
890.296	-95.06
890.467	19.63
890.638	-35.67
890.809	-35.67
890.98	-56.15
891.151	15.53
891.323	111.78
891.494	17.58
891.665	15.53
891.836	5.29
892.007	9.39
892.178	9.39
892.349	-2.9
892.52	-72.53
892.691	44.2
892.862	-47.96
893.032	-31.57
893.203	-35.67
893.374	-25.43
893.545	64.68
893.716	-95.06
893.887	81.07
894.057	-4.95
894.228	38.06
894.399	-25.43
894.57	91.31
894.74	5.29
894.911	85.16
895.082	48.3
895.253	40.11
895.423	-0.85
895.594	162.98
895.764	76.97
895.935	-74.58
896.106	111.78
896.276	-88.92
896.447	17.58
896.617	-27.48
896.788	-103.25
896.958	66.73
897.129	-45.91
897.299	17.58
897.47	130.22
897.64	99.5
897.81	17.58
897.981	17.58
898.151	-27.48
898.322	62.63
898.492	117.93
898.662	-39.76
898.832	23.72
899.003	17.58
899.173	81.07
899.343	-88.92
899.513	-35.67
