Data from USB4F104151__75__10-44-09-871.txt Node

Date: Wed Feb 26 10:44:09 EST 2025
User: louis
Spectrometer: USB4F10415
Trigger mode: 4
Integration Time (sec): 1.000000E-1
Scans to average: 1
Electric dark correction enabled: true
Nonlinearity correction enabled: false
Boxcar width: 0
XAxis mode: Wavelengths
Number of Pixels in Spectrum: 3648
>>>>>Begin Spectral Data<<<<<
178.204	-411.81
178.424	-411.81
178.644	-411.81
178.864	-481.44
179.084	-368.81
179.304	-6.31
179.524	-98.47
179.744	-6.31
179.964	34.64
180.184	51.03
180.404	89.94
180.624	-16.55
180.844	-26.79
181.064	-43.18
181.283	53.08
181.503	-71.85
181.723	40.79
181.943	-114.86
182.163	274.26
182.383	-43.18
182.602	24.4
182.822	51.03
183.042	57.17
183.262	-51.37
183.482	-92.33
183.701	8.02
183.921	118.61
184.141	-84.14
184.361	75.6
184.58	102.23
184.8	67.41
185.02	5.97
185.239	75.6
185.459	87.89
185.679	73.56
185.898	-51.37
186.118	46.93
186.338	94.04
186.557	122.71
186.777	-80.04
186.997	34.64
187.216	14.17
187.436	165.71
187.655	61.27
187.875	122.71
188.095	51.03
188.314	126.8
188.534	89.94
188.753	-16.55
188.973	141.14
189.192	235.35
189.412	85.84
189.631	69.46
189.851	3.93
190.07	184.15
190.29	-10.41
190.509	1.88
190.729	34.64
190.948	143.19
191.168	270.16
191.387	81.75
191.607	22.36
191.826	48.98
192.045	36.69
192.265	55.12
192.484	46.93
192.704	28.5
192.923	-2.22
193.142	243.54
193.362	79.7
193.581	141.14
193.8	98.13
194.02	130.9
194.239	114.52
194.458	126.8
194.678	75.6
194.897	14.17
195.116	96.08
195.335	44.88
195.555	38.74
195.774	44.88
195.993	118.61
196.212	-18.6
196.432	-63.66
196.651	-6.31
196.87	-10.41
197.089	190.29
197.308	102.23
197.528	163.67
197.747	-26.79
197.966	53.08
198.185	145.24
198.404	26.45
198.623	98.13
198.842	149.33
199.062	159.57
199.281	157.52
199.5	18.26
199.719	83.8
199.938	42.84
200.157	79.7
200.376	157.52
200.595	149.33
200.814	102.23
201.033	16.21
201.252	157.52
201.471	34.64
201.69	48.98
201.909	53.08
202.128	186.19
202.347	147.28
202.566	55.12
202.785	-28.84
203.004	-30.89
203.223	245.59
203.442	57.17
203.661	-32.94
203.879	147.28
204.098	139.09
204.317	-37.03
204.536	108.37
204.755	149.33
204.974	108.37
205.193	18.26
205.411	130.9
205.63	132.95
205.849	112.47
206.068	28.5
206.287	36.69
206.505	151.38
206.724	61.27
206.943	-22.7
207.162	69.46
207.381	36.69
207.599	26.45
207.818	46.93
208.037	-67.75
208.255	114.52
208.474	40.79
208.693	98.13
208.911	59.22
209.13	91.99
209.349	73.56
209.567	79.7
209.786	167.76
210.005	108.37
210.223	73.56
210.442	-77.99
210.661	51.03
210.879	110.42
211.098	28.5
211.316	-49.32
211.535	106.32
211.753	12.12
211.972	28.5
212.191	-12.46
212.409	-12.46
212.628	106.32
212.846	22.36
213.065	36.69
213.283	130.9
213.502	34.64
213.72	67.41
213.938	110.42
214.157	71.51
214.375	85.84
214.594	-26.79
214.812	192.34
215.031	36.69
215.249	32.6
215.467	30.55
215.686	87.89
215.904	124.76
216.122	57.17
216.341	190.29
216.559	61.27
216.778	135
216.996	159.57
217.214	-51.37
217.432	22.36
217.651	-14.51
217.869	69.46
218.087	65.36
218.306	-18.6
218.524	124.76
218.742	20.31
218.96	102.23
219.179	81.75
219.397	116.56
219.615	186.19
219.833	163.67
220.051	44.88
220.27	108.37
220.488	48.98
220.706	126.8
220.924	71.51
221.142	-8.36
221.36	120.66
221.578	-22.7
221.796	79.7
222.015	83.8
222.233	102.23
222.451	132.95
222.669	-12.46
222.887	85.84
223.105	67.41
223.323	22.36
223.541	-32.94
223.759	-16.55
223.977	-24.75
224.195	196.43
224.413	163.67
224.631	120.66
224.849	59.22
225.067	225.11
225.285	-34.99
225.503	-10.41
225.721	-110.76
225.939	108.37
226.157	20.31
226.375	214.87
226.592	5.97
226.81	57.17
227.028	100.18
227.246	159.57
227.464	91.99
227.682	112.47
227.9	65.36
228.117	89.94
228.335	173.91
228.553	10.07
228.771	71.51
228.989	8.02
229.206	77.65
229.424	36.69
229.642	12.12
229.86	34.64
230.077	122.71
230.295	-8.36
230.513	91.99
230.731	118.61
230.948	194.39
231.166	102.23
231.384	55.12
231.601	-2.22
231.819	180.05
232.037	8.02
232.254	-39.08
232.472	69.46
232.689	36.69
232.907	91.99
233.125	75.6
233.342	-20.65
233.56	-18.6
233.777	69.46
233.995	61.27
234.213	155.47
234.43	73.56
234.648	87.89
234.865	-32.94
235.083	108.37
235.3	63.32
235.518	124.76
235.735	139.09
235.953	145.24
236.17	36.69
236.388	137.04
236.605	34.64
236.822	81.75
237.04	135
237.257	87.89
237.475	18.26
237.692	30.55
237.909	120.66
238.127	77.65
238.344	71.51
238.562	53.08
238.779	-157.86
238.996	-71.85
239.214	79.7
239.431	153.43
239.648	-2.22
239.865	118.61
240.083	28.5
240.3	-53.42
240.517	77.65
240.735	40.79
240.952	192.34
241.169	48.98
241.386	46.93
241.603	34.64
241.821	51.03
242.038	110.42
242.255	77.65
242.472	-37.03
242.689	128.85
242.907	102.23
243.124	32.6
243.341	59.22
243.558	63.32
243.775	10.07
243.992	-26.79
244.209	139.09
244.426	98.13
244.643	126.8
244.86	32.6
245.078	145.24
245.295	91.99
245.512	26.45
245.729	130.9
245.946	71.51
246.163	102.23
246.38	3.93
246.597	75.6
246.814	61.27
247.031	40.79
247.248	73.56
247.464	75.6
247.681	30.55
247.898	-24.75
248.115	71.51
248.332	-45.23
248.549	165.71
248.766	198.48
248.983	126.8
249.2	81.75
249.417	159.57
249.633	-6.31
249.85	124.76
250.067	53.08
250.284	106.32
250.501	110.42
250.717	87.89
250.934	-26.79
251.151	71.51
251.368	20.31
251.585	51.03
251.801	-14.51
252.018	89.94
252.235	149.33
252.451	46.93
252.668	-0.17
252.885	135
253.102	14.17
253.318	59.22
253.535	42.84
253.752	51.03
253.968	-77.99
254.185	-37.03
254.401	69.46
254.618	98.13
254.835	-53.42
255.051	116.56
255.268	-8.36
255.484	89.94
255.701	36.69
255.917	112.47
256.134	-96.43
256.351	-4.27
256.567	-28.84
256.784	100.18
257	-4.27
257.217	163.67
257.433	44.88
257.65	77.65
257.866	116.56
258.082	69.46
258.299	12.12
258.515	34.64
258.732	-69.8
258.948	-34.99
259.165	98.13
259.381	26.45
259.597	59.22
259.814	12.12
260.03	26.45
260.246	-2.22
260.463	149.33
260.679	182.1
260.895	81.75
261.112	57.17
261.328	-39.08
261.544	20.31
261.761	229.2
261.977	20.31
262.193	-20.65
262.409	106.32
262.626	100.18
262.842	42.84
263.058	36.69
263.274	145.24
263.49	116.56
263.707	85.84
263.923	85.84
264.139	-88.23
264.355	106.32
264.571	155.47
264.787	28.5
265.004	110.42
265.22	34.64
265.436	28.5
265.652	38.74
265.868	30.55
266.084	-61.61
266.3	94.04
266.516	-45.23
266.732	100.18
266.948	85.84
267.164	-16.55
267.38	175.95
267.596	87.89
267.812	153.43
268.028	77.65
268.244	83.8
268.46	30.55
268.676	32.6
268.892	5.97
269.108	28.5
269.324	22.36
269.54	1.88
269.756	91.99
269.972	-86.19
270.188	18.26
270.403	-0.17
270.619	69.46
270.835	55.12
271.051	89.94
271.267	16.21
271.483	42.84
271.698	124.76
271.914	91.99
272.13	85.84
272.346	3.93
272.562	96.08
272.777	175.95
272.993	38.74
273.209	38.74
273.425	-0.17
273.64	-22.7
273.856	188.24
274.072	3.93
274.287	-37.03
274.503	161.62
274.719	155.47
274.934	-10.41
275.15	-47.27
275.366	32.6
275.581	20.31
275.797	-28.84
276.012	40.79
276.228	1.88
276.444	98.13
276.659	141.14
276.875	-75.95
277.09	16.21
277.306	87.89
277.521	81.75
277.737	38.74
277.952	130.9
278.168	100.18
278.383	85.84
278.599	96.08
278.814	124.76
279.03	46.93
279.245	180.05
279.461	149.33
279.676	81.75
279.892	46.93
280.107	-34.99
280.322	5.97
280.538	132.95
280.753	12.12
280.969	36.69
281.184	79.7
281.399	225.11
281.615	26.45
281.83	46.93
282.045	22.36
282.26	3.93
282.476	75.6
282.691	87.89
282.906	16.21
283.122	12.12
283.337	18.26
283.552	102.23
283.767	5.97
283.983	190.29
284.198	-24.75
284.413	141.14
284.628	-57.51
284.843	65.36
285.058	112.47
285.274	55.12
285.489	-80.04
285.704	167.76
285.919	83.8
286.134	53.08
286.349	10.07
286.564	-14.51
286.779	73.56
286.995	44.88
287.21	-55.47
287.425	34.64
287.64	10.07
287.855	108.37
288.07	-67.75
288.285	180.05
288.5	51.03
288.715	143.19
288.93	-26.79
289.145	-6.31
289.36	96.08
289.575	83.8
289.79	102.23
290.004	16.21
290.219	149.33
290.434	55.12
290.649	8.02
290.864	108.37
291.079	-16.55
291.294	28.5
291.509	53.08
291.724	38.74
291.938	24.4
292.153	91.99
292.368	69.46
292.583	112.47
292.798	59.22
293.012	65.36
293.227	91.99
293.442	42.84
293.657	122.71
293.871	137.04
294.086	126.8
294.301	206.67
294.516	145.24
294.73	63.32
294.945	91.99
295.16	14.17
295.374	149.33
295.589	53.08
295.804	42.84
296.018	94.04
296.233	98.13
296.447	51.03
296.662	-28.84
296.877	-18.6
297.091	208.72
297.306	40.79
297.52	59.22
297.735	20.31
297.949	79.7
298.164	104.28
298.378	14.17
298.593	-10.41
298.807	34.64
299.022	55.12
299.236	122.71
299.451	20.31
299.665	3.93
299.88	91.99
300.094	55.12
300.309	16.21
300.523	18.26
300.737	1.88
300.952	69.46
301.166	118.61
301.381	-0.17
301.595	1.88
301.809	8.02
302.024	65.36
302.238	-98.47
302.452	221.01
302.667	30.55
302.881	214.87
303.095	112.47
303.309	57.17
303.524	26.45
303.738	48.98
303.952	1.88
304.166	112.47
304.381	-59.56
304.595	159.57
304.809	-30.89
305.023	128.85
305.237	-12.46
305.452	55.12
305.666	81.75
305.88	130.9
306.094	149.33
306.308	44.88
306.522	59.22
306.736	55.12
306.95	118.61
307.164	48.98
307.379	48.98
307.593	132.95
307.807	108.37
308.021	102.23
308.235	137.04
308.449	-10.41
308.663	75.6
308.877	253.78
309.091	24.4
309.305	87.89
309.519	-18.6
309.733	122.71
309.947	16.21
310.161	44.88
310.374	128.85
310.588	112.47
310.802	-94.38
311.016	77.65
311.23	110.42
311.444	32.6
311.658	24.4
311.872	130.9
312.085	118.61
312.299	135
312.513	163.67
312.727	3.93
312.941	-8.36
313.154	57.17
313.368	53.08
313.582	-14.51
313.796	100.18
314.009	57.17
314.223	165.71
314.437	44.88
314.651	69.46
314.864	44.88
315.078	46.93
315.292	-16.55
315.505	32.6
315.719	87.89
315.933	71.51
316.146	59.22
316.36	-26.79
316.573	67.41
316.787	42.84
317.001	128.85
317.214	3.93
317.428	38.74
317.641	38.74
317.855	73.56
318.068	79.7
318.282	38.74
318.495	212.82
318.709	79.7
318.922	32.6
319.136	165.71
319.349	122.71
319.563	10.07
319.776	110.42
319.99	-39.08
320.203	98.13
320.417	85.84
320.63	81.75
320.843	120.66
321.057	65.36
321.27	10.07
321.483	67.41
321.697	108.37
321.91	55.12
322.124	44.88
322.337	98.13
322.55	38.74
322.763	104.28
322.977	44.88
323.19	42.84
323.403	61.27
323.617	120.66
323.83	112.47
324.043	28.5
324.256	83.8
324.469	-49.32
324.683	110.42
324.896	94.04
325.109	83.8
325.322	26.45
325.535	173.91
325.748	180.05
325.962	28.5
326.175	3.93
326.388	57.17
326.601	132.95
326.814	12.12
327.027	67.41
327.24	153.43
327.453	-34.99
327.666	94.04
327.879	83.8
328.092	77.65
328.305	91.99
328.518	75.6
328.731	-22.7
328.944	34.64
329.157	71.51
329.37	44.88
329.583	165.71
329.796	83.8
330.009	14.17
330.222	104.28
330.435	67.41
330.648	139.09
330.861	48.98
331.073	40.79
331.286	126.8
331.499	10.07
331.712	8.02
331.925	116.56
332.138	26.45
332.35	67.41
332.563	46.93
332.776	116.56
332.989	18.26
333.202	-22.7
333.414	16.21
333.627	53.08
333.84	-4.27
334.053	155.47
334.265	18.26
334.478	77.65
334.691	130.9
334.903	94.04
335.116	16.21
335.329	73.56
335.541	147.28
335.754	153.43
335.966	-16.55
336.179	-4.27
336.392	48.98
336.604	55.12
336.817	38.74
337.029	34.64
337.242	51.03
337.454	151.38
337.667	75.6
337.88	100.18
338.092	73.56
338.305	63.32
338.517	61.27
338.729	116.56
338.942	151.38
339.154	-14.51
339.367	-41.13
339.579	141.14
339.792	-6.31
340.004	85.84
340.217	24.4
340.429	67.41
340.641	20.31
340.854	5.97
341.066	79.7
341.278	151.38
341.491	210.77
341.703	98.13
341.915	18.26
342.128	77.65
342.34	153.43
342.552	-12.46
342.764	69.46
342.977	67.41
343.189	130.9
343.401	77.65
343.613	-6.31
343.826	89.94
344.038	-0.17
344.25	98.13
344.462	-6.31
344.674	51.03
344.886	-45.23
345.099	79.7
345.311	91.99
345.523	-82.09
345.735	-77.99
345.947	132.95
346.159	42.84
346.371	73.56
346.583	75.6
346.795	186.19
347.007	-34.99
347.219	114.52
347.431	46.93
347.643	178
347.855	40.79
348.067	153.43
348.279	-26.79
348.491	30.55
348.703	65.36
348.915	-16.55
349.127	20.31
349.339	12.12
349.551	-6.31
349.763	178
349.975	77.65
350.187	108.37
350.399	71.51
350.61	153.43
350.822	79.7
351.034	96.08
351.246	145.24
351.458	57.17
351.669	67.41
351.881	34.64
352.093	112.47
352.305	130.9
352.517	108.37
352.728	169.81
352.94	122.71
353.152	89.94
353.363	-22.7
353.575	14.17
353.787	194.39
353.999	98.13
354.21	169.81
354.422	-39.08
354.633	20.31
354.845	24.4
355.057	24.4
355.268	-22.7
355.48	145.24
355.692	-147.62
355.903	65.36
356.115	32.6
356.326	-69.8
356.538	167.76
356.749	32.6
356.961	83.8
357.172	63.32
357.384	36.69
357.595	276.31
357.807	12.12
358.018	20.31
358.23	61.27
358.441	116.56
358.653	94.04
358.864	65.36
359.075	53.08
359.287	139.09
359.498	194.39
359.709	94.04
359.921	79.7
360.132	46.93
360.344	26.45
360.555	18.26
360.766	116.56
360.977	8.02
361.189	85.84
361.4	1.88
361.611	-2.22
361.823	98.13
362.034	85.84
362.245	-43.18
362.456	75.6
362.667	87.89
362.879	26.45
363.09	100.18
363.301	102.23
363.512	34.64
363.723	-34.99
363.935	22.36
364.146	67.41
364.357	5.97
364.568	71.51
364.779	-4.27
364.99	108.37
365.201	-4.27
365.412	139.09
365.623	-65.71
365.834	71.51
366.045	65.36
366.256	108.37
366.467	163.67
366.678	61.27
366.889	94.04
367.1	108.37
367.311	141.14
367.522	-39.08
367.733	94.04
367.944	104.28
368.155	63.32
368.366	108.37
368.577	167.76
368.788	69.46
368.999	-34.99
369.209	51.03
369.42	259.92
369.631	237.39
369.842	137.04
370.053	81.75
370.264	98.13
370.474	-55.47
370.685	40.79
370.896	10.07
371.107	120.66
371.317	-32.94
371.528	18.26
371.739	108.37
371.95	53.08
372.16	135
372.371	-24.75
372.582	83.8
372.792	81.75
373.003	36.69
373.214	5.97
373.424	139.09
373.635	-32.94
373.846	157.52
374.056	-12.46
374.267	85.84
374.477	104.28
374.688	3.93
374.898	79.7
375.109	118.61
375.319	61.27
375.53	141.14
375.74	89.94
375.951	3.93
376.161	59.22
376.372	214.87
376.582	1.88
376.793	89.94
377.003	1.88
377.214	-10.41
377.424	104.28
377.635	24.4
377.845	34.64
378.055	98.13
378.266	32.6
378.476	12.12
378.686	130.9
378.897	48.98
379.107	100.18
379.317	65.36
379.528	28.5
379.738	83.8
379.948	32.6
380.158	128.85
380.369	110.42
380.579	83.8
380.789	94.04
380.999	180.05
381.21	85.84
381.42	161.62
381.63	69.46
381.84	100.18
382.05	141.14
382.261	128.85
382.471	163.67
382.681	57.17
382.891	169.81
383.101	102.23
383.311	-75.95
383.521	132.95
383.731	124.76
383.941	186.19
384.151	-8.36
384.361	36.69
384.571	83.8
384.781	77.65
384.991	198.48
385.201	180.05
385.411	135
385.621	48.98
385.831	98.13
386.041	24.4
386.251	61.27
386.461	178
386.671	40.79
386.881	104.28
387.091	79.7
387.301	98.13
387.511	38.74
387.72	120.66
387.93	147.28
388.14	-92.33
388.35	24.4
388.56	85.84
388.769	198.48
388.979	24.4
389.189	34.64
389.399	46.93
389.609	38.74
389.818	139.09
390.028	163.67
390.238	48.98
390.447	1.88
390.657	132.95
390.867	32.6
391.076	-20.65
391.286	59.22
391.496	96.08
391.705	75.6
391.915	208.72
392.125	71.51
392.334	34.64
392.544	151.38
392.753	16.21
392.963	-2.22
393.172	87.89
393.382	40.79
393.591	163.67
393.801	12.12
394.01	112.47
394.22	118.61
394.429	18.26
394.639	85.84
394.848	98.13
395.058	28.5
395.267	14.17
395.477	102.23
395.686	79.7
395.895	143.19
396.105	212.82
396.314	53.08
396.524	10.07
396.733	53.08
396.942	175.95
397.152	163.67
397.361	126.8
397.57	163.67
397.78	28.5
397.989	81.75
398.198	239.44
398.407	48.98
398.617	102.23
398.826	69.46
399.035	89.94
399.244	94.04
399.453	114.52
399.663	89.94
399.872	24.4
400.081	36.69
400.29	141.14
400.499	24.4
400.708	81.75
400.917	-8.36
401.127	-24.75
401.336	26.45
401.545	182.1
401.754	87.89
401.963	94.04
402.172	38.74
402.381	-67.75
402.59	22.36
402.799	51.03
403.008	178
403.217	53.08
403.426	171.86
403.635	-28.84
403.844	38.74
404.053	71.51
404.262	22.36
404.471	147.28
404.68	112.47
404.888	175.95
405.097	69.46
405.306	126.8
405.515	135
405.724	108.37
405.933	126.8
406.142	118.61
406.35	120.66
406.559	16.21
406.768	81.75
406.977	202.58
407.185	141.14
407.394	59.22
407.603	14.17
407.812	44.88
408.02	126.8
408.229	36.69
408.438	135
408.646	3.93
408.855	85.84
409.064	38.74
409.272	122.71
409.481	89.94
409.69	-63.66
409.898	-51.37
410.107	98.13
410.315	161.62
410.524	59.22
410.733	5.97
410.941	89.94
411.15	91.99
411.358	12.12
411.567	155.47
411.775	128.85
411.984	53.08
412.192	159.57
412.401	63.32
412.609	261.97
412.818	126.8
413.026	149.33
413.234	53.08
413.443	40.79
413.651	3.93
413.86	75.6
414.068	114.52
414.276	186.19
414.485	20.31
414.693	196.43
414.901	190.29
415.11	44.88
415.318	38.74
415.526	120.66
415.734	139.09
415.943	112.47
416.151	173.91
416.359	-0.17
416.567	71.51
416.776	83.8
416.984	143.19
417.192	198.48
417.4	20.31
417.608	55.12
417.817	24.4
418.025	212.82
418.233	171.86
418.441	40.79
418.649	22.36
418.857	63.32
419.065	210.77
419.273	-26.79
419.481	-12.46
419.689	67.41
419.897	42.84
420.105	8.02
420.313	89.94
420.521	112.47
420.729	206.67
420.937	24.4
421.145	59.22
421.353	91.99
421.561	212.82
421.769	63.32
421.977	110.42
422.185	178
422.393	57.17
422.601	188.24
422.809	124.76
423.017	53.08
423.224	81.75
423.432	161.62
423.64	114.52
423.848	126.8
424.056	51.03
424.263	100.18
424.471	3.93
424.679	130.9
424.887	36.69
425.094	155.47
425.302	110.42
425.51	36.69
425.718	143.19
425.925	77.65
426.133	91.99
426.341	253.78
426.548	79.7
426.756	48.98
426.964	141.14
427.171	-8.36
427.379	128.85
427.586	157.52
427.794	141.14
428.001	178
428.209	128.85
428.417	221.01
428.624	108.37
428.832	227.15
429.039	98.13
429.247	114.52
429.454	169.81
429.662	143.19
429.869	102.23
430.076	182.1
430.284	190.29
430.491	208.72
430.699	178
430.906	239.44
431.114	128.85
431.321	249.68
431.528	128.85
431.736	110.42
431.943	194.39
432.15	253.78
432.358	249.68
432.565	321.36
432.772	55.12
432.979	352.08
433.187	130.9
433.394	253.78
433.601	161.62
433.808	227.15
434.016	251.73
434.223	192.34
434.43	221.01
434.637	239.44
434.844	290.64
435.052	278.35
435.259	272.21
435.466	358.22
435.673	212.82
435.88	366.42
436.087	388.94
436.294	415.57
436.501	364.37
436.708	339.79
436.915	341.84
437.122	442.19
437.329	208.72
437.537	397.14
437.743	327.5
437.95	511.82
438.157	407.38
438.364	380.75
438.571	411.47
438.778	454.48
438.985	481.1
439.192	481.1
439.399	431.95
439.606	526.16
439.813	632.65
440.02	665.42
440.227	698.19
440.433	573.26
440.64	599.88
440.847	558.92
441.054	669.52
441.261	730.95
441.467	696.14
441.674	616.27
441.881	733
442.088	743.24
442.294	825.16
442.501	892.74
442.708	874.31
442.914	812.87
443.121	935.75
443.328	1003.33
443.534	1062.73
443.741	900.94
443.948	868.17
444.154	1005.38
444.361	1300.29
444.568	1158.98
444.774	1187.65
444.981	1140.55
445.187	1294.15
445.394	1236.8
445.6	1294.15
445.807	1427.26
446.013	1371.97
446.22	1304.39
446.426	1535.81
446.633	1509.18
446.839	1799.99
447.046	1546.05
447.252	1795.9
447.459	1744.7
447.665	1734.46
447.871	1959.74
448.078	2023.22
448.284	2078.52
448.491	2111.29
448.697	2311.99
448.903	2414.38
449.11	2289.46
449.316	2365.23
449.522	2533.17
449.728	2729.77
449.935	2795.31
450.141	2852.65
450.347	2998.06
450.553	2885.42
450.76	3032.87
450.966	3112.74
451.172	3086.12
451.378	3303.2
451.584	3350.31
451.791	3591.97
451.997	3694.36
452.203	3933.98
452.409	4085.53
452.615	4073.24
452.821	4026.14
453.027	4173.59
453.233	4671.25
453.44	4677.39
453.646	4783.88
453.852	4923.15
454.058	5263.11
454.264	5439.23
454.47	5818.11
454.676	5609.22
454.882	6332.15
455.088	6053.62
455.294	6344.44
455.5	6598.38
455.705	7216.87
455.911	7093.99
456.117	7257.83
456.323	7470.82
456.529	7442.15
456.735	8281.81
456.941	8402.65
457.147	8869.58
457.352	8971.98
457.558	9256.65
457.764	9871.04
457.97	10024.64
458.176	10436.28
458.381	10950.32
458.587	11200.17
458.793	11746.98
458.999	11798.18
459.204	13225.61
459.41	13700.74
459.616	13463.18
459.821	14403.19
460.027	14870.13
460.233	15511.14
460.438	15928.93
460.644	16551.51
460.85	16682.58
461.055	17249.87
461.261	18368.06
461.466	17788.49
461.672	18310.72
461.878	20395.55
462.083	20147.75
462.289	20573.72
462.494	21716.49
462.7	21442.06
462.905	21675.53
463.111	23385.58
463.316	24802.78
463.522	25163.22
463.727	25767.37
463.932	26959.29
464.138	27780.53
464.343	29117.85
464.549	29146.52
464.754	31528.31
464.959	32132.46
465.165	32576.87
465.37	32372.07
465.575	32626.02
465.781	34731.33
465.986	35816.75
466.191	35306.81
466.397	35646.77
466.602	34612.55
466.807	36488.49
467.012	37133.6
467.218	37700.89
467.423	38186.25
467.628	38618.38
467.833	41090.27
468.038	40010.99
468.244	39585.02
468.449	41864.41
468.654	40543.47
468.859	40285.42
469.064	40709.35
469.269	39683.32
469.474	40260.85
469.679	41407.71
469.885	39914.74
470.09	40576.23
470.295	40924.39
470.5	40031.47
470.705	40156.4
470.91	39238.91
471.115	38628.62
471.32	39255.29
471.525	39189.76
471.73	37948.69
471.935	37438.75
472.139	36218.16
472.344	36275.5
472.549	36156.72
472.754	35798.32
472.959	34522.44
473.164	33705.3
473.369	33035.61
473.574	34198.86
473.778	33428.82
473.983	32732.51
474.188	32204.14
474.393	31044.99
474.598	30414.21
474.802	30057.87
475.007	29666.7
475.212	29253.01
475.417	28020.14
475.621	27661.74
475.826	27686.32
476.031	27035.06
476.235	26412.48
476.44	26445.25
476.645	25851.34
476.849	25277.91
477.054	24862.17
477.259	24649.18
477.463	24516.06
477.668	23608.81
477.872	23946.73
478.077	23166.45
478.282	22470.14
478.486	22576.64
478.691	21995.01
478.895	22089.22
479.1	21616.14
479.304	21599.76
479.509	20825.62
479.713	21284.37
479.918	20340.25
480.122	20295.2
480.326	20526.62
480.531	20442.65
480.735	20348.45
480.94	19928.61
481.144	20284.96
481.348	19490.35
481.553	19424.81
481.757	18824.76
481.961	19164.72
482.166	19199.54
482.37	19211.82
482.574	18585.15
482.778	18630.2
482.983	18703.93
483.187	18656.82
483.391	18271.81
483.595	18064.96
483.8	17860.16
484.004	17706.57
484.208	17725
484.412	17481.29
484.616	17442.38
484.821	17178.19
485.025	16430.68
485.229	16957.01
485.433	16449.11
485.637	16146.01
485.841	15801.96
486.045	15935.07
486.249	15697.51
486.453	15279.72
486.657	15292.01
486.861	15228.52
487.065	14366.33
487.269	14618.23
487.473	14136.96
487.677	14001.79
487.881	14319.23
488.085	13454.98
488.289	13553.29
488.493	12998.29
488.697	13260.43
488.901	12459.67
489.105	12635.8
489.309	12316.31
489.512	12195.48
489.716	11882.14
489.92	11646.63
490.124	11591.33
490.328	11445.93
490.531	11165.35
490.735	10880.69
490.939	10784.43
491.143	10278.58
491.346	10393.27
491.55	10198.71
491.754	10100.41
491.958	9961.15
492.161	9692.87
492.365	9666.24
492.569	9207.5
492.772	9338.57
492.976	9213.64
493.18	9012.94
493.383	8851.15
493.587	8861.39
493.79	8672.98
493.994	8619.73
494.197	8349.4
494.401	8496.85
494.605	8226.52
494.808	8212.18
495.012	8171.22
495.215	8271.58
495.419	8128.22
495.622	7720.67
495.825	7821.02
496.029	7806.69
496.232	7859.93
496.436	7708.38
496.639	7698.14
496.843	7732.96
497.046	7755.49
497.249	7730.91
497.453	7792.35
497.656	7620.32
497.859	7509.73
498.063	7737.06
498.266	7884.51
498.469	7499.49
498.673	7479.01
498.876	7661.28
499.079	7728.86
499.282	7718.62
499.485	8128.22
499.689	7800.54
499.892	7939.8
500.095	7792.35
500.298	7902.94
500.501	7978.72
500.705	8189.66
500.908	8029.91
501.111	8117.98
501.314	8406.74
501.517	8480.47
501.72	8486.61
501.923	8279.77
502.126	8578.77
502.329	8660.69
502.532	8775.38
502.735	8867.53
502.938	8883.92
503.141	8900.3
503.344	8820.43
503.547	8984.27
503.75	9217.74
503.953	9451.21
504.156	9486.02
504.359	9557.7
504.562	9567.94
504.765	9891.52
504.968	9979.58
505.17	10186.43
505.373	10206.91
505.576	10423.99
505.779	10593.97
505.982	10763.95
506.185	10925.74
506.387	11134.64
506.59	11212.46
506.793	11757.22
506.996	11515.56
507.198	11914.91
507.401	12160.67
507.604	12207.77
507.807	12580.5
508.009	12854.93
508.212	12803.73
508.415	13303.43
508.617	13436.55
508.82	13684.36
509.022	13663.88
509.225	14380.67
509.428	14671.48
509.63	14714.48
509.833	14980.72
510.035	15574.63
510.238	15672.93
510.44	16150.11
510.643	16580.18
510.845	17063.5
511.048	16883.28
511.25	17405.52
511.453	17712.71
511.655	18609.72
511.858	18300.48
512.06	19080.75
512.262	19516.97
512.465	19701.29
512.667	20114.98
512.87	20502.04
513.072	21120.53
513.274	21732.87
513.477	21794.31
513.679	22398.46
513.881	22926.84
514.084	23537.13
514.286	23950.82
514.488	24503.78
514.69	25325.01
514.893	25386.45
515.095	26217.93
515.297	26267.08
515.499	27000.25
515.701	27606.45
515.904	28362.15
516.106	28616.1
516.308	29312.41
516.51	29824.4
516.712	29887.89
516.914	30971.26
517.116	32234.86
517.318	32185.71
517.52	32451.94
517.722	32990.56
517.925	33940.82
518.127	34633.03
518.329	34985.28
518.531	35329.34
518.733	36396.33
518.935	36914.47
519.136	36998.43
519.338	38044.94
519.54	38186.25
519.742	39052.55
519.944	39744.76
520.146	40240.37
520.348	40465.64
520.55	41024.74
520.752	41495.77
520.954	42595.53
521.155	41997.52
521.357	43093.19
521.559	43685.05
521.761	44258.48
521.963	44594.35
522.164	44747.95
522.366	45423.78
522.568	45788.31
522.77	45761.69
522.971	46802.06
523.173	46507.15
523.375	47269
523.576	46599.31
523.778	47023.24
523.98	47617.15
524.181	47805.56
524.383	47797.37
524.584	48602.22
524.786	47885.43
524.988	48053.37
525.189	48594.03
525.391	48575.6
525.592	48821.36
525.794	49112.17
525.995	48108.66
526.197	48350.32
526.398	48346.23
526.6	48292.98
526.801	48409.71
527.003	48346.23
527.204	47924.35
527.406	48129.14
527.607	47715.45
527.808	47809.66
528.01	46400.66
528.211	46808.2
528.412	47099.01
528.614	46646.41
528.815	46261.4
529.016	46306.45
529.218	45444.26
529.419	45266.08
529.62	45028.52
529.822	44475.57
530.023	44315.83
530.224	43748.54
530.425	43529.41
530.626	42652.87
530.828	42298.58
531.029	42691.79
531.23	41563.36
531.431	40953.06
531.632	41227.49
531.833	40498.41
532.035	39871.73
532.236	39034.11
532.437	39191.81
532.638	38432.01
532.839	38026.51
533.04	37879.06
533.241	36975.91
533.442	36912.42
533.643	36408.62
533.844	35878.19
534.045	35489.08
534.246	34694.47
534.447	34360.65
534.648	33625.43
534.849	33690.96
535.05	32746.85
535.251	32646.5
535.451	32093.55
535.652	31733.11
535.853	31671.67
536.054	31020.41
536.255	30723.46
536.456	30053.77
536.657	30084.49
536.857	29179.29
537.058	28818.85
537.259	28442.02
537.46	28380.58
537.66	27706.8
537.861	27514.29
538.062	27065.78
538.263	26746.3
538.463	26349
538.664	25970.12
538.865	25578.96
539.065	25707.98
539.266	24829.4
539.466	25273.81
539.667	24327.65
539.868	24749.53
540.068	23993.83
540.269	23856.62
540.469	23580.14
540.67	23291.38
540.87	22982.13
541.071	22607.36
541.271	22666.75
541.472	22197.76
541.672	21814.79
541.873	21648.91
542.073	21032.47
542.274	21073.43
542.474	20727.32
542.675	20880.92
542.875	20518.43
543.075	20094.5
543.276	19820.07
543.476	20088.35
543.676	19783.21
543.877	19506.73
544.077	19396.14
544.277	19011.12
544.478	18617.91
544.678	18730.55
544.878	18460.22
545.078	18079.3
545.279	17782.34
545.479	17598.02
545.679	17608.26
545.879	17296.97
546.079	17077.84
546.28	16907.86
546.48	16668.25
546.68	16438.87
546.88	16406.11
547.08	16074.34
547.28	16090.72
547.48	15496.81
547.68	15939.17
547.88	15431.27
548.081	15212.14
548.281	15122.03
548.481	14683.77
548.681	14802.55
548.881	14671.48
549.081	14349.95
549.28	14253.69
549.48	13772.42
549.68	13747.84
549.88	13696.64
550.08	13121.17
550.28	13313.67
550.48	13328.01
550.68	12801.68
550.88	12607.12
551.08	12502.68
551.279	12678.8
551.479	11900.58
551.679	12027.55
551.879	11703.97
552.079	11853.47
552.278	11501.22
552.478	11292.33
552.678	11257.51
552.878	11081.39
553.077	10974.89
553.277	10532.53
553.477	10489.53
553.676	10516.15
553.876	10167.99
554.076	9942.72
554.275	9891.52
554.475	9746.11
554.674	9787.07
554.874	9365.19
555.074	9258.7
555.273	9086.67
555.473	9098.95
555.672	8789.71
555.872	8675.02
556.071	8558.29
556.271	8789.71
556.47	8318.68
556.67	8304.34
556.869	8144.6
557.068	8036.06
557.268	7714.53
557.467	7679.71
557.667	7603.94
557.866	7505.63
558.065	7298.79
558.265	7263.97
558.464	6991.59
558.663	7223.02
558.863	6754.03
559.062	6823.66
559.261	6700.78
559.461	6518.51
559.66	6469.36
559.859	6414.07
560.058	6076.15
560.258	6110.97
560.457	5873.4
560.656	6172.41
560.855	5650.18
561.054	5736.19
561.253	5639.94
561.453	5678.85
561.652	5375.75
561.851	5617.41
562.05	5273.35
562.249	5218.05
562.448	5220.1
562.647	5121.8
562.846	5076.74
563.045	4972.3
563.244	4878.09
563.443	4871.95
563.642	4542.22
563.841	4714.25
564.04	4704.01
564.239	4599.57
564.438	4362
564.637	4394.77
564.836	4380.43
565.035	4179.73
565.234	4142.87
565.432	4202.26
565.631	4128.53
565.83	4118.29
566.029	3907.35
566.228	3741.47
566.427	3903.26
566.625	3622.69
566.824	3718.94
567.023	3653.41
567.222	3655.45
567.42	3725.08
567.619	3694.36
567.818	3553.06
568.016	3596.06
568.215	3354.4
568.414	3434.27
568.612	3397.41
568.811	3311.39
569.01	3354.4
569.208	3155.75
569.407	3276.58
569.605	3075.88
569.804	3153.7
570.002	2981.67
570.201	3043.11
570.4	2987.82
570.598	2885.42
570.797	2936.62
570.995	2789.16
571.193	2883.37
571.392	2770.73
571.59	2524.97
571.789	2754.35
571.987	2602.8
572.186	2766.64
572.384	2426.67
572.582	2606.89
572.781	2596.65
572.979	2393.9
573.177	2402.1
573.376	2441.01
573.574	2322.23
573.772	2162.48
573.971	2137.91
574.169	2142
574.367	2260.79
574.565	2139.96
574.763	2178.87
574.962	2037.56
575.16	2066.23
575.358	2012.98
575.556	2039.61
575.754	1924.92
575.952	1877.82
576.151	1941.3
576.349	1851.19
576.547	1812.28
576.745	1967.93
576.943	1763.13
577.141	1716.03
577.339	1728.31
577.537	1707.84
577.735	1746.75
577.933	1658.68
578.131	1517.37
578.329	1769.27
578.527	1521.47
578.725	1529.66
578.923	1400.64
579.121	1560.38
579.319	1443.65
579.516	1490.75
579.714	1718.08
579.912	1404.74
580.11	1306.43
580.308	1386.3
580.506	1376.06
580.704	1238.85
580.901	1318.72
581.099	1474.37
581.297	1230.66
581.495	1275.71
581.692	1224.51
581.89	1390.4
582.088	1255.23
582.285	1195.84
582.483	1111.88
582.681	1206.08
582.878	1140.55
583.076	1120.07
583.274	1152.84
583.471	1269.57
583.669	1101.64
583.866	968.52
584.064	966.47
584.262	972.61
584.459	1013.57
584.657	1027.91
584.854	1005.38
585.052	1062.73
585.249	972.61
585.447	1032.01
585.644	862.02
585.841	1007.43
586.039	902.98
586.236	1023.81
586.434	927.56
586.631	835.4
586.828	847.69
587.026	853.83
587.223	751.43
587.42	841.54
587.618	909.13
587.815	900.94
588.012	880.46
588.21	765.77
588.407	722.76
588.604	845.64
588.801	661.32
588.999	741.19
589.196	814.92
589.393	730.95
589.59	687.95
589.787	763.72
589.984	782.15
590.182	722.76
590.379	689.99
590.576	757.58
590.773	716.62
590.97	771.91
591.167	702.28
591.364	757.58
591.561	679.75
591.758	745.29
591.955	808.78
592.152	714.57
592.349	503.63
592.546	653.13
592.743	683.85
592.94	689.99
593.137	755.53
593.334	706.38
593.531	675.66
593.727	743.24
593.924	702.28
594.121	667.47
594.318	726.86
594.515	702.28
594.712	880.46
594.908	816.97
595.105	618.32
595.302	812.87
595.499	669.52
595.696	800.59
595.892	661.32
596.089	855.88
596.286	767.82
596.482	907.08
596.679	900.94
596.876	804.68
597.072	958.28
597.269	902.98
597.466	849.74
597.662	833.35
597.859	919.37
598.055	927.56
598.252	1097.54
598.448	1021.77
598.645	1146.69
598.841	1183.56
599.038	1263.43
599.234	1347.39
599.431	1281.86
599.627	1392.45
599.824	1369.92
600.02	1390.4
600.217	1414.98
600.413	1617.72
600.609	1556.29
600.806	1853.24
601.002	1685.31
601.198	1632.06
601.395	1937.21
601.591	1900.34
601.787	1939.26
601.984	2127.67
602.18	2150.2
602.376	2144.05
602.572	2326.32
602.769	2457.39
602.965	2467.63
603.161	2600.75
603.357	2574.13
603.553	2948.9
603.75	2758.44
603.946	2918.18
604.142	2948.9
604.338	3282.72
604.534	3143.46
604.73	3202.85
604.926	3356.45
605.122	3479.33
605.318	3571.49
605.514	3723.04
605.71	3741.47
605.906	3997.46
606.102	3942.17
606.298	4239.12
606.494	4382.48
606.69	4560.66
606.886	4589.33
607.082	4732.69
607.278	4771.6
607.474	4917
607.67	5089.03
607.866	5125.9
608.062	5328.64
608.257	5711.61
608.453	5715.71
608.649	5940.99
608.845	5904.12
609.041	6137.59
609.236	6481.65
609.432	6211.32
609.628	6754.03
609.824	6741.74
610.019	6852.33
610.215	7110.38
610.411	7552.74
610.606	7675.62
610.802	7743.2
610.998	8093.4
611.193	8224.47
611.389	8326.87
611.584	8703.7
611.78	8871.63
611.976	8998.6
612.171	9256.65
612.367	9604.8
612.562	9825.98
612.758	9993.92
612.953	10045.12
613.149	10446.52
613.344	10976.94
613.539	11222.7
613.735	11419.3
613.93	11792.03
614.126	11753.12
614.321	12437.14
614.517	12658.32
614.712	12899.98
614.907	13250.19
615.103	13629.06
615.298	13897.35
615.493	14249.6
615.688	14364.28
615.884	15232.62
616.079	15310.44
616.274	15824.48
616.47	16039.52
616.665	16578.14
616.86	16873.04
617.055	17374.8
617.25	17589.83
617.445	18589.24
617.641	18597.43
617.836	19514.92
618.031	19267.12
618.226	20223.52
618.421	20653.59
618.616	21298.7
618.811	21653
619.006	22373.89
619.201	22275.59
619.396	22824.44
619.591	23131.64
619.786	23889.38
619.981	24313.31
620.176	25083.35
620.371	25406.93
620.566	26408.39
620.761	26375.62
620.956	27168.18
621.151	27280.82
621.346	27993.51
621.541	28288.42
621.735	29638.03
621.93	29240.73
622.125	30338.44
622.32	30379.4
622.515	31296.89
622.709	31929.71
622.904	32808.29
623.099	33054.04
623.294	33557.85
623.488	33789.27
623.683	34764.1
623.878	34676.04
624.072	35896.63
624.267	35935.54
624.462	36644.13
624.656	37373.21
624.851	37747.99
625.046	38133.01
625.24	38905.09
625.435	39410.94
625.629	39892.21
625.824	40551.66
626.018	41331.93
626.213	40838.37
626.407	41796.82
626.602	41880.79
626.796	42833.1
626.991	43005.13
627.185	43156.67
627.38	43603.13
627.574	43857.08
627.768	43803.83
627.963	44205.23
628.157	44311.73
628.352	44559.53
628.546	44106.93
628.74	44950.7
628.935	44315.83
629.129	44594.35
629.323	44192.95
629.517	44203.19
629.712	43672.76
629.906	43343.04
630.1	42837.19
630.294	42955.97
630.489	42325.2
630.683	42099.92
630.877	40781.03
631.071	40453.36
631.265	39998.71
631.459	38970.63
631.653	38147.34
631.848	37489.95
632.042	36681
632.236	36269.36
632.43	34708.8
632.624	33989.97
632.818	32408.93
633.012	32003.44
633.206	30893.44
633.4	29961.61
633.594	28558.75
633.788	27880.88
633.982	27313.59
634.176	26099.14
634.369	25435.6
634.563	24479.2
634.757	23125.49
634.951	22676.99
635.145	21626.38
635.339	20803.1
635.533	19719.72
635.726	19232.3
635.92	18058.82
636.114	17737.29
636.308	16836.18
636.501	16281.18
636.695	15388.27
636.889	14825.08
637.083	14462.58
637.276	13643.4
637.47	13287.05
637.664	12590.74
637.857	12252.83
638.051	11687.59
638.244	11085.48
638.438	10892.98
638.632	10473.14
638.825	9703.11
639.019	9682.63
639.212	9170.63
639.406	8783.57
639.599	8470.23
639.793	8300.25
639.986	7661.28
640.18	7560.93
640.373	7153.38
640.567	6862.57
640.76	6694.64
640.954	6428.4
641.147	5971.71
641.34	5963.51
641.534	5793.53
641.727	5639.94
641.92	5400.32
642.114	5129.99
642.307	4947.72
642.5	4724.49
642.694	4554.51
642.887	4400.91
643.08	4392.72
643.273	4093.72
643.467	3813.15
643.66	3704.6
643.853	3505.95
644.046	3551.01
644.239	3262.24
644.432	3131.17
644.626	2856.75
644.819	2973.48
645.012	2701.1
645.205	2826.03
645.398	2631.47
645.591	2541.36
645.784	2375.47
645.977	2305.84
646.17	2164.53
646.363	2268.98
646.556	2025.27
646.749	1963.83
646.942	1949.5
647.135	1822.52
647.328	1763.13
647.521	1806.14
647.714	1722.17
647.907	1640.25
648.099	1552.19
648.292	1568.57
648.485	1490.75
648.678	1263.43
648.871	1353.54
649.064	1341.25
649.256	1146.69
649.449	1251.14
649.642	1081.16
649.835	1118.02
650.027	1072.96
650.22	1124.16
650.413	997.19
650.605	1025.86
650.798	954.18
650.991	913.22
651.183	958.28
651.376	923.46
651.568	864.07
651.761	667.47
651.954	765.77
652.146	689.99
652.339	900.94
652.531	708.43
652.724	642.89
652.916	624.46
653.109	409.42
653.301	649.04
653.494	675.66
653.686	610.12
653.879	694.09
654.071	589.64
654.263	499.53
654.456	489.29
654.648	659.28
654.84	532.3
655.033	444.24
655.225	565.07
655.417	321.36
655.61	618.32
655.802	495.44
655.994	491.34
656.186	448.33
656.379	485.2
656.571	452.43
656.763	317.26
656.955	259.92
657.148	339.79
657.34	481.1
657.532	405.33
657.724	280.4
657.916	335.7
658.108	350.03
658.3	423.76
658.492	409.42
658.684	352.08
658.876	364.37
659.068	192.34
659.26	261.97
659.452	223.06
659.644	288.59
659.836	337.74
660.028	329.55
660.22	274.26
660.412	245.59
660.604	251.73
660.796	225.11
660.988	374.61
661.18	214.87
661.372	302.93
661.563	282.45
661.755	245.59
661.947	130.9
662.139	253.78
662.331	173.91
662.522	241.49
662.714	233.3
662.906	98.13
663.097	245.59
663.289	196.43
663.481	132.95
663.673	239.44
663.864	167.76
664.056	171.86
664.247	77.65
664.439	229.2
664.631	155.47
664.822	157.52
665.014	190.29
665.205	108.37
665.397	98.13
665.588	192.34
665.78	145.24
665.971	235.35
666.163	214.87
666.354	182.1
666.546	73.56
666.737	135
666.929	178
667.12	126.8
667.311	200.53
667.503	122.71
667.694	143.19
667.885	147.28
668.077	192.34
668.268	46.93
668.459	153.43
668.651	83.8
668.842	178
669.033	106.32
669.224	-22.7
669.416	390.99
669.607	108.37
669.798	151.38
669.989	251.73
670.18	104.28
670.371	186.19
670.563	30.55
670.754	309.07
670.945	233.3
671.136	143.19
671.327	151.38
671.518	253.78
671.709	253.78
671.9	227.15
672.091	169.81
672.282	163.67
672.473	192.34
672.664	145.24
672.855	87.89
673.046	169.81
673.237	264.02
673.428	251.73
673.619	259.92
673.809	108.37
674	202.58
674.191	210.77
674.382	165.71
674.573	190.29
674.764	100.18
674.954	221.01
675.145	100.18
675.336	91.99
675.527	208.72
675.717	173.91
675.908	132.95
676.099	173.91
676.289	137.04
676.48	46.93
676.671	229.2
676.861	122.71
677.052	272.21
677.243	153.43
677.433	145.24
677.624	186.19
677.814	188.24
678.005	87.89
678.195	214.87
678.386	120.66
678.576	151.38
678.767	89.94
678.957	126.8
679.148	110.42
679.338	245.59
679.529	284.5
679.719	104.28
679.909	130.9
680.1	188.24
680.29	198.48
680.481	69.46
680.671	231.25
680.861	135
681.052	208.72
681.242	100.18
681.432	302.93
681.622	237.39
681.813	163.67
682.003	188.24
682.193	153.43
682.383	153.43
682.573	227.15
682.764	114.52
682.954	200.53
683.144	286.54
683.334	192.34
683.524	202.58
683.714	208.72
683.904	231.25
684.094	225.11
684.284	79.7
684.474	364.37
684.664	243.54
684.854	186.19
685.044	245.59
685.234	221.01
685.424	210.77
685.614	100.18
685.804	300.88
685.994	266.07
686.184	206.67
686.374	210.77
686.564	196.43
686.753	212.82
686.943	114.52
687.133	180.05
687.323	223.06
687.513	169.81
687.702	157.52
687.892	243.54
688.082	237.39
688.272	266.07
688.461	210.77
688.651	399.18
688.841	257.87
689.03	200.53
689.22	145.24
689.41	264.02
689.599	192.34
689.789	69.46
689.979	274.26
690.168	186.19
690.358	282.45
690.547	266.07
690.737	229.2
690.926	280.4
691.116	173.91
691.305	268.11
691.495	272.21
691.684	159.57
691.874	79.7
692.063	182.1
692.252	229.2
692.442	347.98
692.631	128.85
692.82	137.04
693.01	210.77
693.199	167.76
693.388	257.87
693.578	137.04
693.767	282.45
693.956	239.44
694.146	173.91
694.335	143.19
694.524	192.34
694.713	317.26
694.902	81.75
695.092	122.71
695.281	221.01
695.47	202.58
695.659	143.19
695.848	132.95
696.037	122.71
696.226	214.87
696.415	194.39
696.604	253.78
696.793	237.39
696.982	200.53
697.171	395.09
697.36	130.9
697.549	255.83
697.738	130.9
697.927	194.39
698.116	110.42
698.305	221.01
698.494	178
698.683	165.71
698.872	309.07
699.061	188.24
699.25	206.67
699.438	149.33
699.627	159.57
699.816	331.6
700.005	135
700.193	118.61
700.382	204.63
700.571	190.29
700.76	231.25
700.948	225.11
701.137	272.21
701.326	190.29
701.514	173.91
701.703	233.3
701.892	202.58
702.08	329.55
702.269	178
702.457	151.38
702.646	235.35
702.834	145.24
703.023	188.24
703.212	208.72
703.4	169.81
703.589	124.76
703.777	145.24
703.965	120.66
704.154	198.48
704.342	132.95
704.531	157.52
704.719	130.9
704.907	261.97
705.096	110.42
705.284	87.89
705.472	214.87
705.661	243.54
705.849	255.83
706.037	221.01
706.226	190.29
706.414	167.76
706.602	128.85
706.79	259.92
706.979	96.08
707.167	200.53
707.355	40.79
707.543	266.07
707.731	184.15
707.919	212.82
708.107	141.14
708.296	128.85
708.484	118.61
708.672	175.95
708.86	245.59
709.048	221.01
709.236	102.23
709.424	186.19
709.612	245.59
709.8	85.84
709.988	202.58
710.176	266.07
710.364	378.7
710.551	145.24
710.739	161.62
710.927	106.32
711.115	128.85
711.303	249.68
711.491	311.12
711.679	75.6
711.866	255.83
712.054	155.47
712.242	272.21
712.43	321.36
712.617	221.01
712.805	272.21
712.993	147.28
713.181	112.47
713.368	210.77
713.556	155.47
713.744	151.38
713.931	276.31
714.119	241.49
714.306	135
714.494	165.71
714.682	282.45
714.869	100.18
715.057	175.95
715.244	116.56
715.432	229.2
715.619	130.9
715.807	159.57
715.994	145.24
716.182	221.01
716.369	200.53
716.556	216.91
716.744	61.27
716.931	114.52
717.119	173.91
717.306	231.25
717.493	229.2
717.681	231.25
717.868	171.86
718.055	198.48
718.242	161.62
718.43	192.34
718.617	255.83
718.804	212.82
718.991	280.4
719.179	206.67
719.366	272.21
719.553	241.49
719.74	161.62
719.927	200.53
720.114	292.69
720.301	173.91
720.488	116.56
720.676	200.53
720.863	327.5
721.05	347.98
721.237	272.21
721.424	290.64
721.611	253.78
721.798	165.71
721.985	186.19
722.172	124.76
722.358	167.76
722.545	341.84
722.732	180.05
722.919	276.31
723.106	239.44
723.293	302.93
723.48	139.09
723.667	157.52
723.853	241.49
724.04	304.98
724.227	325.46
724.414	139.09
724.6	286.54
724.787	311.12
724.974	315.22
725.161	200.53
725.347	126.8
725.534	229.2
725.72	257.87
725.907	186.19
726.094	286.54
726.28	188.24
726.467	186.19
726.653	108.37
726.84	272.21
727.027	317.26
727.213	139.09
727.4	245.59
727.586	300.88
727.773	286.54
727.959	206.67
728.145	235.35
728.332	163.67
728.518	235.35
728.705	333.65
728.891	229.2
729.077	294.74
729.264	155.47
729.45	221.01
729.636	202.58
729.823	284.5
730.009	327.5
730.195	233.3
730.382	241.49
730.568	206.67
730.754	206.67
730.94	178
731.126	175.95
731.313	151.38
731.499	259.92
731.685	243.54
731.871	337.74
732.057	274.26
732.243	347.98
732.429	288.59
732.615	388.94
732.801	270.16
732.987	268.11
733.173	225.11
733.359	198.48
733.545	259.92
733.731	114.52
733.917	319.31
734.103	272.21
734.289	255.83
734.475	151.38
734.661	419.66
734.847	190.29
735.033	245.59
735.219	261.97
735.404	221.01
735.59	208.72
735.776	214.87
735.962	290.64
736.148	288.59
736.333	278.35
736.519	243.54
736.705	163.67
736.89	261.97
737.076	196.43
737.262	167.76
737.447	175.95
737.633	233.3
737.819	253.78
738.004	268.11
738.19	304.98
738.375	352.08
738.561	376.66
738.747	276.31
738.932	145.24
739.118	380.75
739.303	264.02
739.489	247.63
739.674	216.91
739.859	255.83
740.045	249.68
740.23	274.26
740.416	151.38
740.601	302.93
740.786	204.63
740.972	124.76
741.157	227.15
741.342	171.86
741.528	178
741.713	294.74
741.898	137.04
742.084	229.2
742.269	169.81
742.454	294.74
742.639	343.89
742.824	231.25
743.01	317.26
743.195	239.44
743.38	255.83
743.565	210.77
743.75	317.26
743.935	280.4
744.12	335.7
744.305	163.67
744.49	143.19
744.675	216.91
744.86	178
745.045	313.17
745.23	302.93
745.415	223.06
745.6	321.36
745.785	173.91
745.97	229.2
746.155	229.2
746.34	347.98
746.525	247.63
746.71	313.17
746.895	184.15
747.079	122.71
747.264	184.15
747.449	302.93
747.634	300.88
747.819	339.79
748.003	257.87
748.188	245.59
748.373	278.35
748.557	259.92
748.742	243.54
748.927	218.96
749.111	102.23
749.296	192.34
749.481	261.97
749.665	210.77
749.85	190.29
750.034	270.16
750.219	280.4
750.404	190.29
750.588	169.81
750.773	173.91
750.957	223.06
751.141	171.86
751.326	272.21
751.51	169.81
751.695	171.86
751.879	163.67
752.064	309.07
752.248	202.58
752.432	307.02
752.617	210.77
752.801	223.06
752.985	196.43
753.17	296.78
753.354	192.34
753.538	243.54
753.722	159.57
753.907	114.52
754.091	91.99
754.275	268.11
754.459	89.94
754.643	139.09
754.828	159.57
755.012	233.3
755.196	147.28
755.38	143.19
755.564	163.67
755.748	221.01
755.932	247.63
756.116	147.28
756.3	204.63
756.484	137.04
756.668	317.26
756.852	59.22
757.036	94.04
757.22	266.07
757.404	118.61
757.588	124.76
757.772	165.71
757.956	120.66
758.14	231.25
758.323	114.52
758.507	161.62
758.691	94.04
758.875	200.53
759.059	266.07
759.242	85.84
759.426	108.37
759.61	159.57
759.794	130.9
759.977	155.47
760.161	370.51
760.345	249.68
760.528	165.71
760.712	192.34
760.895	204.63
761.079	46.93
761.263	112.47
761.446	69.46
761.63	57.17
761.813	276.31
761.997	96.08
762.18	118.61
762.364	173.91
762.547	69.46
762.731	8.02
762.914	24.4
763.098	137.04
763.281	94.04
763.464	91.99
763.648	85.84
763.831	155.47
764.015	3.93
764.198	145.24
764.381	110.42
764.564	184.15
764.748	73.56
764.931	149.33
765.114	118.61
765.297	124.76
765.481	71.51
765.664	102.23
765.847	96.08
766.03	139.09
766.213	135
766.397	141.14
766.58	12.12
766.763	178
766.946	98.13
767.129	73.56
767.312	124.76
767.495	126.8
767.678	67.41
767.861	173.91
768.044	141.14
768.227	116.56
768.41	104.28
768.593	69.46
768.776	124.76
768.959	77.65
769.142	110.42
769.324	137.04
769.507	116.56
769.69	24.4
769.873	83.8
770.056	243.54
770.239	24.4
770.421	65.36
770.604	167.76
770.787	98.13
770.97	135
771.152	65.36
771.335	63.32
771.518	122.71
771.7	114.52
771.883	302.93
772.066	14.17
772.248	61.27
772.431	163.67
772.613	130.9
772.796	89.94
772.978	118.61
773.161	202.58
773.343	18.26
773.526	120.66
773.708	-18.6
773.891	-39.08
774.073	69.46
774.256	65.36
774.438	139.09
774.621	169.81
774.803	112.47
774.985	18.26
775.168	165.71
775.35	-8.36
775.532	139.09
775.715	18.26
775.897	169.81
776.079	8.02
776.261	91.99
776.444	67.41
776.626	42.84
776.808	30.55
776.99	-20.65
777.173	46.93
777.355	53.08
777.537	85.84
777.719	71.51
777.901	73.56
778.083	38.74
778.265	44.88
778.447	83.8
778.629	-20.65
778.811	20.31
778.993	51.03
779.175	118.61
779.357	91.99
779.539	24.4
779.721	89.94
779.903	5.97
780.085	8.02
780.267	91.99
780.449	106.32
780.631	63.32
780.812	139.09
780.994	69.46
781.176	98.13
781.358	55.12
781.54	12.12
781.721	145.24
781.903	128.85
782.085	8.02
782.267	139.09
782.448	-49.32
782.63	5.97
782.812	18.26
782.993	126.8
783.175	118.61
783.357	48.98
783.538	94.04
783.72	1.88
783.901	157.52
784.083	73.56
784.264	128.85
784.446	-55.47
784.627	-18.6
784.809	77.65
784.99	44.88
785.172	110.42
785.353	32.6
785.535	30.55
785.716	48.98
785.897	51.03
786.079	-14.51
786.26	96.08
786.441	118.61
786.623	-32.94
786.804	-26.79
786.985	77.65
787.167	57.17
787.348	-51.37
787.529	61.27
787.71	202.58
787.891	91.99
788.073	-49.32
788.254	36.69
788.435	192.34
788.616	77.65
788.797	-39.08
788.978	65.36
789.159	-84.14
789.34	57.17
789.522	-4.27
789.703	55.12
789.884	46.93
790.065	-0.17
790.246	145.24
790.427	-86.19
790.607	202.58
790.788	75.6
790.969	57.17
791.15	32.6
791.331	44.88
791.512	-10.41
791.693	46.93
791.874	3.93
792.054	171.86
792.235	96.08
792.416	20.31
792.597	-18.6
792.778	94.04
792.958	135
793.139	28.5
793.32	57.17
793.5	-34.99
793.681	137.04
793.862	44.88
794.042	38.74
794.223	-43.18
794.404	-12.46
794.584	-43.18
794.765	12.12
794.945	22.36
795.126	108.37
795.306	44.88
795.487	65.36
795.667	57.17
795.848	120.66
796.028	32.6
796.209	48.98
796.389	73.56
796.57	42.84
796.75	-73.9
796.93	-0.17
797.111	-18.6
797.291	-4.27
797.471	26.45
797.652	-37.03
797.832	12.12
798.012	75.6
798.192	-118.95
798.373	-53.42
798.553	65.36
798.733	36.69
798.913	-77.99
799.093	22.36
799.274	100.18
799.454	141.14
799.634	106.32
799.814	42.84
799.994	155.47
800.174	77.65
800.354	-24.75
800.534	-77.99
800.714	55.12
800.894	10.07
801.074	-106.67
801.254	-94.38
801.434	184.15
801.614	83.8
801.794	28.5
801.974	1576.77
802.154	-41.13
802.334	118.61
802.514	8.02
802.693	102.23
802.873	-37.03
803.053	94.04
803.233	161.62
803.413	73.56
803.592	42.84
803.772	-12.46
803.952	57.17
804.131	-22.7
804.311	79.7
804.491	159.57
804.67	5.97
804.85	-51.37
805.03	8.02
805.209	73.56
805.389	71.51
805.568	-106.67
805.748	16.21
805.928	1.88
806.107	69.46
806.287	102.23
806.466	75.6
806.646	-12.46
806.825	-71.85
807.004	24.4
807.184	30.55
807.363	75.6
807.543	73.56
807.722	-16.55
807.901	102.23
808.081	153.43
808.26	-65.71
808.439	63.32
808.619	-8.36
808.798	30.55
808.977	108.37
809.156	100.18
809.336	87.89
809.515	65.36
809.694	-94.38
809.873	-0.17
810.052	87.89
810.231	159.57
810.411	116.56
810.59	169.81
810.769	32.6
810.948	51.03
811.127	-84.14
811.306	3.93
811.485	12.12
811.664	104.28
811.843	-22.7
812.022	-10.41
812.201	-37.03
812.38	108.37
812.559	-73.9
812.737	71.51
812.916	-43.18
813.095	-12.46
813.274	-0.17
813.453	-37.03
813.632	51.03
813.811	40.79
813.989	-30.89
814.168	42.84
814.347	-28.84
814.526	-39.08
814.704	126.8
814.883	194.39
815.062	-88.23
815.24	75.6
815.419	-22.7
815.598	75.6
815.776	-98.47
815.955	-14.51
816.133	-90.28
816.312	34.64
816.49	-8.36
816.669	-0.17
816.847	1.88
817.026	18.26
817.204	-12.46
817.383	-10.41
817.561	-2.22
817.74	32.6
817.918	40.79
818.097	-8.36
818.275	-34.99
818.453	106.32
818.632	77.65
818.81	48.98
818.988	8.02
819.167	-20.65
819.345	65.36
819.523	-61.61
819.701	1.88
819.879	100.18
820.058	63.32
820.236	112.47
820.414	96.08
820.592	18.26
820.77	10.07
820.948	-30.89
821.127	-14.51
821.305	94.04
821.483	-84.14
821.661	116.56
821.839	106.32
822.017	28.5
822.195	40.79
822.373	118.61
822.551	46.93
822.729	61.27
822.907	48.98
823.085	87.89
823.262	-2.22
823.44	-90.28
823.618	-2.22
823.796	73.56
823.974	-41.13
824.152	-32.94
824.329	-2.22
824.507	-20.65
824.685	55.12
824.863	-63.66
825.04	26.45
825.218	1.88
825.396	14.17
825.574	81.75
825.751	30.55
825.929	106.32
826.107	5.97
826.284	46.93
826.462	34.64
826.639	-61.61
826.817	-4.27
826.994	36.69
827.172	-12.46
827.349	139.09
827.527	-8.36
827.704	38.74
827.882	85.84
828.059	-73.9
828.237	-28.84
828.414	94.04
828.591	-90.28
828.769	-10.41
828.946	40.79
829.124	106.32
829.301	175.95
829.478	-22.7
829.655	85.84
829.833	8.02
830.01	-67.75
830.187	40.79
830.364	14.17
830.542	12.12
830.719	104.28
830.896	22.36
831.073	102.23
831.25	-2.22
831.427	38.74
831.604	16.21
831.782	-20.65
831.959	-22.7
832.136	5.97
832.313	-75.95
832.49	-32.94
832.667	44.88
832.844	-75.95
833.021	130.9
833.198	77.65
833.374	22.36
833.551	3.93
833.728	-16.55
833.905	83.8
834.082	8.02
834.259	16.21
834.436	114.52
834.612	-45.23
834.789	5.97
834.966	-2.22
835.143	-20.65
835.319	-14.51
835.496	85.84
835.673	79.7
835.85	75.6
836.026	1.88
836.203	139.09
836.38	12.12
836.556	-8.36
836.733	5.97
836.909	89.94
837.086	44.88
837.262	-8.36
837.439	40.79
837.616	-80.04
837.792	40.79
837.968	-26.79
838.145	-139.43
838.321	20.31
838.498	100.18
838.674	-20.65
838.851	118.61
839.027	-18.6
839.203	-71.85
839.38	-12.46
839.556	-59.56
839.732	118.61
839.909	44.88
840.085	89.94
840.261	-0.17
840.437	34.64
840.614	-18.6
840.79	112.47
840.966	26.45
841.142	63.32
841.318	-32.94
841.494	53.08
841.671	132.95
841.847	-0.17
842.023	-6.31
842.199	51.03
842.375	139.09
842.551	-41.13
842.727	18.26
842.903	122.71
843.079	16.21
843.255	155.47
843.431	3.93
843.607	69.46
843.783	-145.58
843.959	42.84
844.134	-43.18
844.31	104.28
844.486	1.88
844.662	3.93
844.838	-4.27
845.013	96.08
845.189	46.93
845.365	61.27
845.541	79.7
845.716	51.03
845.892	75.6
846.068	-71.85
846.244	32.6
846.419	85.84
846.595	-0.17
846.77	-82.09
846.946	30.55
847.122	-24.75
847.297	-22.7
847.473	153.43
847.648	-20.65
847.824	16.21
847.999	-192.68
848.175	-28.84
848.35	81.75
848.526	18.26
848.701	36.69
848.876	53.08
849.052	108.37
849.227	38.74
849.403	-10.41
849.578	-6.31
849.753	18.26
849.929	46.93
850.104	-53.42
850.279	3.93
850.454	10.07
850.63	65.36
850.805	53.08
850.98	3.93
851.155	-12.46
851.33	28.5
851.505	-57.51
851.681	116.56
851.856	-30.89
852.031	-30.89
852.206	28.5
852.381	-121
852.556	-14.51
852.731	32.6
852.906	55.12
853.081	81.75
853.256	147.28
853.431	-39.08
853.606	14.17
853.781	-22.7
853.956	-69.8
854.131	63.32
854.305	-22.7
854.48	-49.32
854.655	-61.61
854.83	-45.23
855.005	63.32
855.18	24.4
855.354	32.6
855.529	116.56
855.704	-39.08
855.879	63.32
856.053	-55.47
856.228	85.84
856.403	-82.09
856.577	18.26
856.752	-71.85
856.926	-14.51
857.101	40.79
857.276	-16.55
857.45	79.7
857.625	51.03
857.799	40.79
857.974	32.6
858.148	-77.99
858.323	87.89
858.497	-22.7
858.672	-77.99
858.846	-32.94
859.02	77.65
859.195	-57.51
859.369	-37.03
859.543	18.26
859.718	57.17
859.892	-8.36
860.066	-18.6
860.241	20.31
860.415	-61.61
860.589	-6.31
860.763	38.74
860.938	-77.99
861.112	48.98
861.286	-71.85
861.46	42.84
861.634	-0.17
861.808	46.93
861.982	-69.8
862.157	-34.99
862.331	-24.75
862.505	-57.51
862.679	-86.19
862.853	-51.37
863.027	16.21
863.201	3.93
863.375	-2.22
863.549	77.65
863.722	-22.7
863.896	40.79
864.07	-73.9
864.244	1.88
864.418	16.21
864.592	18.26
864.766	-18.6
864.939	-51.37
865.113	3.93
865.287	96.08
865.461	-10.41
865.634	18.26
865.808	-8.36
865.982	-16.55
866.156	-110.76
866.329	-112.81
866.503	65.36
866.676	-8.36
866.85	55.12
867.024	-100.52
867.197	59.22
867.371	16.21
867.544	89.94
867.718	-104.62
867.891	102.23
868.065	-39.08
868.238	55.12
868.412	28.5
868.585	-24.75
868.759	-24.75
868.932	-6.31
869.105	-71.85
869.279	-0.17
869.452	-47.27
869.625	24.4
869.799	-59.56
869.972	-28.84
870.145	-51.37
870.319	79.7
870.492	-37.03
870.665	-45.23
870.838	-24.75
871.011	-110.76
871.185	-55.47
871.358	-28.84
871.531	30.55
871.704	-73.9
871.877	34.64
872.05	-14.51
872.223	-28.84
872.396	81.75
872.569	14.17
872.742	-131.24
872.915	20.31
873.088	-12.46
873.261	-20.65
873.434	44.88
873.607	-18.6
873.78	81.75
873.953	-69.8
874.126	-2.22
874.299	89.94
874.471	26.45
874.644	14.17
874.817	-22.7
874.99	96.08
875.163	-39.08
875.335	143.19
875.508	22.36
875.681	118.61
875.853	-125.1
876.026	-8.36
876.199	18.26
876.371	44.88
876.544	32.6
876.717	65.36
876.889	-41.13
877.062	104.28
877.234	-94.38
877.407	-22.7
877.579	-37.03
877.752	20.31
877.924	69.46
878.097	26.45
878.269	32.6
878.442	5.97
878.614	48.98
878.786	42.84
878.959	20.31
879.131	63.32
879.303	-131.24
879.476	-55.47
879.648	128.85
879.82	-86.19
879.993	16.21
880.165	-41.13
880.337	-49.32
880.509	44.88
880.681	-67.75
880.854	1.88
881.026	145.24
881.198	180.05
881.37	3.93
881.542	-45.23
881.714	16.21
881.886	22.36
882.058	46.93
882.23	-51.37
882.402	-16.55
882.574	91.99
882.746	30.55
882.918	77.65
883.09	20.31
883.262	8.02
883.434	-4.27
883.606	-51.37
883.778	-26.79
883.95	100.18
884.122	20.31
884.293	34.64
884.465	-65.71
884.637	143.19
884.809	-32.94
884.98	-57.51
885.152	100.18
885.324	57.17
885.496	-73.9
885.667	-2.22
885.839	-26.79
886.011	153.43
886.182	-28.84
886.354	53.08
886.525	-32.94
886.697	-18.6
886.869	3.93
887.04	-22.7
887.212	14.17
887.383	157.52
887.555	-2.22
887.726	-69.8
887.897	22.36
888.069	59.22
888.24	81.75
888.412	34.64
888.583	89.94
888.754	-26.79
888.926	-116.9
889.097	-6.31
889.268	-53.42
889.44	14.17
889.611	-80.04
889.782	-14.51
889.953	-82.09
890.125	79.7
890.296	-116.9
890.467	-98.47
890.638	-49.32
890.809	10.07
890.98	-112.81
891.151	10.07
891.323	110.42
891.494	77.65
891.665	22.36
891.836	-0.17
892.007	-6.31
892.178	22.36
892.349	12.12
892.52	-39.08
892.691	-14.51
892.862	59.22
893.032	-114.86
893.203	-18.6
893.374	-28.84
893.545	91.99
893.716	-28.84
893.887	22.36
894.057	-20.65
894.228	36.69
894.399	12.12
894.57	155.47
894.74	55.12
894.911	67.41
895.082	-28.84
895.253	-61.61
895.423	20.31
895.594	91.99
895.764	-12.46
895.935	-16.55
896.106	63.32
896.276	-86.19
896.447	40.79
896.617	-69.8
896.788	-108.71
896.958	-12.46
897.129	1.88
897.299	-47.27
897.47	73.56
897.64	77.65
897.81	-41.13
897.981	3.93
898.151	-32.94
898.322	61.27
898.492	-4.27
898.662	-77.99
898.832	-10.41
899.003	36.69
899.173	-32.94
899.343	-16.55
899.513	-106.67
