Data from USB4F104151__79__10-44-18-369.txt Node

Date: Wed Feb 26 10:44:18 EST 2025
User: louis
Spectrometer: USB4F10415
Trigger mode: 4
Integration Time (sec): 1.000000E-1
Scans to average: 1
Electric dark correction enabled: true
Nonlinearity correction enabled: false
Boxcar width: 0
XAxis mode: Wavelengths
Number of Pixels in Spectrum: 3648
>>>>>Begin Spectral Data<<<<<
178.204	-359.25
178.424	-359.25
178.644	-359.25
178.864	-402.26
179.084	-385.87
179.304	-35.67
179.524	27.82
179.744	-47.96
179.964	42.15
180.184	7.34
180.404	25.77
180.624	36.01
180.844	-15.19
181.064	-43.86
181.283	11.43
181.503	-60.24
181.723	52.39
181.943	-66.39
182.163	234.66
182.383	9.39
182.602	31.91
182.822	185.51
183.042	81.07
183.262	15.53
183.482	-31.57
183.701	66.73
183.921	52.39
184.141	-45.91
184.361	36.01
184.58	-33.62
184.8	3.24
185.02	15.53
185.239	44.2
185.459	56.49
185.679	134.31
185.898	-15.19
186.118	13.48
186.338	64.68
186.557	169.13
186.777	-23.38
186.997	-23.38
187.216	50.35
187.436	146.6
187.655	1.19
187.875	97.45
188.095	50.35
188.314	140.46
188.534	136.36
188.753	7.34
188.973	99.5
189.192	191.66
189.412	50.35
189.631	42.15
189.851	81.07
190.07	146.6
190.29	-80.72
190.509	3.24
190.729	-0.85
190.948	115.88
191.168	205.99
191.387	201.9
191.607	33.96
191.826	99.5
192.045	46.25
192.265	-9.05
192.484	44.2
192.704	42.15
192.923	-33.62
193.142	95.4
193.362	140.46
193.581	259.24
193.8	105.64
194.02	81.07
194.239	52.39
194.458	-4.95
194.678	15.53
194.897	42.15
195.116	-27.48
195.335	-7
195.555	74.92
195.774	40.11
195.993	130.22
196.212	9.39
196.432	7.34
196.651	21.67
196.87	17.58
197.089	226.47
197.308	117.93
197.528	93.35
197.747	-72.53
197.966	85.16
198.185	167.08
198.404	11.43
198.623	87.21
198.842	205.99
199.062	158.89
199.281	173.22
199.5	-7
199.719	-4.95
199.938	97.45
200.157	113.83
200.376	58.54
200.595	124.07
200.814	66.73
201.033	52.39
201.252	85.16
201.471	95.4
201.69	113.83
201.909	36.01
202.128	70.83
202.347	130.22
202.566	54.44
202.785	-109.4
203.004	-39.76
203.223	228.52
203.442	91.31
203.661	-9.05
203.879	85.16
204.098	146.6
204.317	-54.1
204.536	101.55
204.755	40.11
204.974	66.73
205.193	-33.62
205.411	162.98
205.63	124.07
205.849	85.16
206.068	-4.95
206.287	-9.05
206.505	132.26
206.724	23.72
206.943	42.15
207.162	13.48
207.381	13.48
207.599	40.11
207.818	40.11
208.037	56.49
208.255	70.83
208.474	66.73
208.693	158.89
208.911	15.53
209.13	117.93
209.349	83.11
209.567	46.25
209.786	150.7
210.005	107.69
210.223	-23.38
210.442	-72.53
210.661	27.82
210.879	52.39
211.098	-19.29
211.316	-56.15
211.535	62.63
211.753	64.68
211.972	115.88
212.191	-7
212.409	13.48
212.628	97.45
212.846	15.53
213.065	58.54
213.283	83.11
213.502	31.91
213.72	5.29
213.938	5.29
214.157	-17.24
214.375	150.7
214.594	74.92
214.812	115.88
215.031	60.59
215.249	17.58
215.467	46.25
215.686	46.25
215.904	111.78
216.122	56.49
216.341	83.11
216.559	5.29
216.778	134.31
216.996	126.12
217.214	23.72
217.432	-9.05
217.651	-66.39
217.869	93.35
218.087	33.96
218.306	-13.14
218.524	126.12
218.742	3.24
218.96	66.73
219.179	-4.95
219.397	42.15
219.615	289.96
219.833	38.06
220.051	-19.29
220.27	87.21
220.488	146.6
220.706	83.11
220.924	-7
221.142	-7
221.36	70.83
221.578	1.19
221.796	9.39
222.015	11.43
222.233	40.11
222.451	195.75
222.669	-52.05
222.887	62.63
223.105	-2.9
223.323	54.44
223.541	-58.2
223.759	76.97
223.977	89.26
224.195	226.47
224.413	99.5
224.631	60.59
224.849	-37.72
225.067	197.8
225.285	38.06
225.503	-80.72
225.721	-138.07
225.939	74.92
226.157	87.21
226.375	226.47
226.592	93.35
226.81	-4.95
227.028	169.13
227.246	138.41
227.464	25.77
227.682	93.35
227.9	15.53
228.117	95.4
228.335	132.26
228.553	9.39
228.771	-4.95
228.989	42.15
229.206	15.53
229.424	46.25
229.642	13.48
229.86	15.53
230.077	138.41
230.295	29.87
230.513	76.97
230.731	60.59
230.948	195.75
231.166	134.31
231.384	21.67
231.601	-58.2
231.819	148.65
232.037	38.06
232.254	-25.43
232.472	-45.91
232.689	-23.38
232.907	177.32
233.125	-4.95
233.342	3.24
233.56	38.06
233.777	-17.24
233.995	60.59
234.213	105.64
234.43	42.15
234.648	85.16
234.865	62.63
235.083	66.73
235.3	58.54
235.518	107.69
235.735	144.55
235.953	-7
236.17	11.43
236.388	40.11
236.605	97.45
236.822	126.12
237.04	76.97
237.257	9.39
237.475	-17.24
237.692	-0.85
237.909	111.78
238.127	3.24
238.344	83.11
238.562	64.68
238.779	-23.38
238.996	-111.44
239.214	11.43
239.431	150.7
239.648	-62.29
239.865	107.69
240.083	160.94
240.3	56.49
240.517	-13.14
240.735	81.07
240.952	136.36
241.169	50.35
241.386	68.78
241.603	23.72
241.821	-25.43
242.038	113.83
242.255	25.77
242.472	-45.91
242.689	-4.95
242.907	97.45
243.124	54.44
243.341	70.83
243.558	-11.09
243.775	-52.05
243.992	-41.81
244.209	109.74
244.426	124.07
244.643	126.12
244.86	62.63
245.078	83.11
245.295	56.49
245.512	40.11
245.729	17.58
245.946	52.39
246.163	9.39
246.38	42.15
246.597	99.5
246.814	97.45
247.031	21.67
247.248	17.58
247.464	169.13
247.681	70.83
247.898	91.31
248.115	124.07
248.332	-31.57
248.549	115.88
248.766	126.12
248.983	48.3
249.2	109.74
249.417	150.7
249.633	-11.09
249.85	109.74
250.067	23.72
250.284	23.72
250.501	79.02
250.717	70.83
250.934	-74.58
251.151	72.87
251.368	70.83
251.585	113.83
251.801	97.45
252.018	-35.67
252.235	83.11
252.451	-54.1
252.668	13.48
252.885	56.49
253.102	33.96
253.318	-27.48
253.535	9.39
253.752	19.63
253.968	33.96
254.185	-64.34
254.401	44.2
254.618	70.83
254.835	11.43
255.051	130.22
255.268	79.02
255.484	134.31
255.701	27.82
255.917	-31.57
256.134	46.25
256.351	62.63
256.567	-60.24
256.784	62.63
257	-115.54
257.217	62.63
257.433	7.34
257.65	105.64
257.866	126.12
258.082	-29.52
258.299	-43.86
258.515	40.11
258.732	-31.57
258.948	-31.57
259.165	38.06
259.381	7.34
259.597	40.11
259.814	-29.52
260.03	9.39
260.246	-41.81
260.463	122.02
260.679	111.78
260.895	36.01
261.112	79.02
261.328	-82.77
261.544	13.48
261.761	99.5
261.977	-101.2
262.193	48.3
262.409	93.35
262.626	81.07
262.842	19.63
263.058	-9.05
263.274	154.79
263.49	109.74
263.707	83.11
263.923	138.41
264.139	-19.29
264.355	97.45
264.571	62.63
264.787	13.48
265.004	97.45
265.22	19.63
265.436	23.72
265.652	38.06
265.868	70.83
266.084	-37.72
266.3	29.87
266.516	-93.01
266.732	64.68
266.948	25.77
267.164	11.43
267.38	109.74
267.596	66.73
267.812	193.7
268.028	87.21
268.244	27.82
268.46	15.53
268.676	-25.43
268.892	130.22
269.108	-23.38
269.324	-7
269.54	3.24
269.756	105.64
269.972	-74.58
270.188	3.24
270.403	25.77
270.619	-50
270.835	146.6
271.051	48.3
271.267	-70.48
271.483	7.34
271.698	3.24
271.914	54.44
272.13	40.11
272.346	23.72
272.562	56.49
272.777	150.7
272.993	56.49
273.209	-9.05
273.425	144.55
273.64	-39.76
273.856	83.11
274.072	50.35
274.287	-4.95
274.503	103.59
274.719	31.91
274.934	62.63
275.15	-50
275.366	7.34
275.581	52.39
275.797	36.01
276.012	-25.43
276.228	19.63
276.444	36.01
276.659	89.26
276.875	-23.38
277.09	44.2
277.306	-43.86
277.521	50.35
277.737	31.91
277.952	181.42
278.168	79.02
278.383	79.02
278.599	25.77
278.814	97.45
279.03	23.72
279.245	83.11
279.461	50.35
279.676	79.02
279.892	-13.14
280.107	-37.72
280.322	-4.95
280.538	64.68
280.753	15.53
280.969	58.54
281.184	66.73
281.399	224.42
281.615	-11.09
281.83	74.92
282.045	-27.48
282.26	15.53
282.476	38.06
282.691	171.18
282.906	66.73
283.122	46.25
283.337	-9.05
283.552	99.5
283.767	-2.9
283.983	79.02
284.198	44.2
284.413	124.07
284.628	-11.09
284.843	-50
285.058	115.88
285.274	-19.29
285.489	-0.85
285.704	146.6
285.919	-9.05
286.134	36.01
286.349	36.01
286.564	9.39
286.779	33.96
286.995	23.72
287.21	-62.29
287.425	7.34
287.64	-4.95
287.855	103.59
288.07	-35.67
288.285	162.98
288.5	111.78
288.715	134.31
288.93	72.87
289.145	52.39
289.36	179.37
289.575	50.35
289.79	76.97
290.004	17.58
290.219	95.4
290.434	-54.1
290.649	33.96
290.864	-2.9
291.079	66.73
291.294	72.87
291.509	66.73
291.724	-52.05
291.938	-21.33
292.153	42.15
292.368	-2.9
292.583	-11.09
292.798	68.78
293.012	81.07
293.227	146.6
293.442	-90.96
293.657	101.55
293.871	136.36
294.086	79.02
294.301	179.37
294.516	99.5
294.73	87.21
294.945	-60.24
295.16	36.01
295.374	158.89
295.589	134.31
295.804	62.63
296.018	66.73
296.233	158.89
296.447	60.59
296.662	15.53
296.877	130.22
297.091	119.98
297.306	58.54
297.52	9.39
297.735	27.82
297.949	-17.24
298.164	15.53
298.378	-13.14
298.593	-41.81
298.807	-15.19
299.022	13.48
299.236	105.64
299.451	-25.43
299.665	33.96
299.88	93.35
300.094	124.07
300.309	21.67
300.523	74.92
300.737	9.39
300.952	119.98
301.166	48.3
301.381	40.11
301.595	31.91
301.809	-52.05
302.024	11.43
302.238	-45.91
302.452	66.73
302.667	54.44
302.881	83.11
303.095	119.98
303.309	25.77
303.524	38.06
303.738	42.15
303.952	-50
304.166	128.17
304.381	-62.29
304.595	99.5
304.809	-4.95
305.023	19.63
305.237	44.2
305.452	-2.9
305.666	70.83
305.88	-7
306.094	68.78
306.308	81.07
306.522	111.78
306.736	-13.14
306.95	97.45
307.164	27.82
307.379	9.39
307.593	167.08
307.807	154.79
308.021	83.11
308.235	38.06
308.449	7.34
308.663	-11.09
308.877	249
309.091	21.67
309.305	42.15
309.519	-117.59
309.733	158.89
309.947	-21.33
310.161	126.12
310.374	72.87
310.588	91.31
310.802	70.83
311.016	38.06
311.23	101.55
311.444	-58.2
311.658	64.68
311.872	93.35
312.085	175.27
312.299	156.84
312.513	95.4
312.727	140.46
312.941	1.19
313.154	9.39
313.368	33.96
313.582	54.44
313.796	46.25
314.009	52.39
314.223	154.79
314.437	148.65
314.651	52.39
314.864	5.29
315.078	15.53
315.292	-103.25
315.505	-17.24
315.719	5.29
315.933	29.87
316.146	-31.57
316.36	7.34
316.573	99.5
316.787	13.48
317.001	128.17
317.214	-31.57
317.428	-0.85
317.641	56.49
317.855	33.96
318.068	33.96
318.282	74.92
318.495	238.76
318.709	33.96
318.922	48.3
319.136	171.18
319.349	99.5
319.563	23.72
319.776	126.12
319.99	-50
320.203	36.01
320.417	11.43
320.63	64.68
320.843	240.81
321.057	64.68
321.27	-21.33
321.483	124.07
321.697	91.31
321.91	38.06
322.124	17.58
322.337	89.26
322.55	13.48
322.763	13.48
322.977	-9.05
323.19	-21.33
323.403	-19.29
323.617	25.77
323.83	126.12
324.043	36.01
324.256	103.59
324.469	-74.58
324.683	52.39
324.896	7.34
325.109	76.97
325.322	-2.9
325.535	97.45
325.748	62.63
325.962	60.59
326.175	105.64
326.388	9.39
326.601	150.7
326.814	27.82
327.027	23.72
327.24	119.98
327.453	-54.1
327.666	115.88
327.879	177.32
328.092	44.2
328.305	66.73
328.518	99.5
328.731	-88.92
328.944	27.82
329.157	79.02
329.37	31.91
329.583	130.22
329.796	101.55
330.009	-82.77
330.222	124.07
330.435	134.31
330.648	15.53
330.861	40.11
331.073	33.96
331.286	122.02
331.499	66.73
331.712	-27.48
331.925	83.11
332.138	27.82
332.35	136.36
332.563	44.2
332.776	85.16
332.989	-13.14
333.202	-29.52
333.414	105.64
333.627	-21.33
333.84	15.53
334.053	124.07
334.265	31.91
334.478	7.34
334.691	38.06
334.903	85.16
335.116	-54.1
335.329	31.91
335.541	76.97
335.754	144.55
335.966	19.63
336.179	44.2
336.392	33.96
336.604	50.35
336.817	136.36
337.029	85.16
337.242	66.73
337.454	64.68
337.667	54.44
337.88	81.07
338.092	33.96
338.305	48.3
338.517	17.58
338.729	87.21
338.942	167.08
339.154	-31.57
339.367	-47.96
339.579	105.64
339.792	-27.48
340.004	130.22
340.217	-29.52
340.429	11.43
340.641	-39.76
340.854	-25.43
341.066	29.87
341.278	81.07
341.491	234.66
341.703	7.34
341.915	-35.67
342.128	119.98
342.34	46.25
342.552	-11.09
342.764	-80.72
342.977	60.59
343.189	15.53
343.401	64.68
343.613	-62.29
343.826	107.69
344.038	-4.95
344.25	66.73
344.462	27.82
344.674	101.55
344.886	48.3
345.099	36.01
345.311	177.32
345.523	33.96
345.735	-76.63
345.947	23.72
346.159	21.67
346.371	-0.85
346.583	11.43
346.795	205.99
347.007	-76.63
347.219	93.35
347.431	-25.43
347.643	179.37
347.855	89.26
348.067	91.31
348.279	-52.05
348.491	89.26
348.703	99.5
348.915	103.59
349.127	27.82
349.339	66.73
349.551	-70.48
349.763	99.5
349.975	-19.29
350.187	70.83
350.399	103.59
350.61	46.25
350.822	-0.85
351.034	5.29
351.246	25.77
351.458	56.49
351.669	105.64
351.881	115.88
352.093	117.93
352.305	117.93
352.517	95.4
352.728	103.59
352.94	105.64
353.152	101.55
353.363	-66.39
353.575	68.78
353.787	156.84
353.999	107.69
354.21	130.22
354.422	-7
354.633	-17.24
354.845	38.06
355.057	76.97
355.268	111.78
355.48	146.6
355.692	56.49
355.903	-11.09
356.115	-4.95
356.326	19.63
356.538	97.45
356.749	21.67
356.961	128.17
357.172	36.01
357.384	-64.34
357.595	107.69
357.807	68.78
358.018	-47.96
358.23	50.35
358.441	224.42
358.653	111.78
358.864	74.92
359.075	105.64
359.287	89.26
359.498	66.73
359.709	115.88
359.921	13.48
360.132	66.73
360.344	85.16
360.555	36.01
360.766	33.96
360.977	-27.48
361.189	91.31
361.4	9.39
361.611	-25.43
361.823	142.5
362.034	62.63
362.245	-52.05
362.456	27.82
362.667	64.68
362.879	-0.85
363.09	25.77
363.301	130.22
363.512	68.78
363.723	-39.76
363.935	-29.52
364.146	64.68
364.357	-9.05
364.568	79.02
364.779	-39.76
364.99	240.81
365.201	79.02
365.412	99.5
365.623	-19.29
365.834	56.49
366.045	68.78
366.256	89.26
366.467	101.55
366.678	50.35
366.889	68.78
367.1	64.68
367.311	222.38
367.522	1.19
367.733	29.87
367.944	109.74
368.155	79.02
368.366	83.11
368.577	95.4
368.788	107.69
368.999	23.72
369.209	13.48
369.42	173.22
369.631	222.38
369.842	122.02
370.053	11.43
370.264	101.55
370.474	-101.2
370.685	148.65
370.896	-27.48
371.107	101.55
371.317	79.02
371.528	-0.85
371.739	126.12
371.95	99.5
372.16	122.02
372.371	-15.19
372.582	-17.24
372.792	140.46
373.003	95.4
373.214	105.64
373.424	122.02
373.635	-19.29
373.846	128.17
374.056	36.01
374.267	38.06
374.477	54.44
374.688	11.43
374.898	48.3
375.109	136.36
375.319	40.11
375.53	189.61
375.74	38.06
375.951	136.36
376.161	60.59
376.372	46.25
376.582	-2.9
376.793	113.83
377.003	-35.67
377.214	-15.19
377.424	62.63
377.635	33.96
377.845	-54.1
378.055	126.12
378.266	-25.43
378.476	-47.96
378.686	23.72
378.897	29.87
379.107	124.07
379.317	128.17
379.528	-15.19
379.738	93.35
379.948	-66.39
380.158	95.4
380.369	81.07
380.579	42.15
380.789	42.15
380.999	89.26
381.21	81.07
381.42	177.32
381.63	3.24
381.84	81.07
382.05	146.6
382.261	152.74
382.471	162.98
382.681	23.72
382.891	158.89
383.101	142.5
383.311	25.77
383.521	-9.05
383.731	109.74
383.941	79.02
384.151	56.49
384.361	21.67
384.571	70.83
384.781	93.35
384.991	269.48
385.201	244.9
385.411	15.53
385.621	97.45
385.831	132.26
386.041	-7
386.251	122.02
386.461	177.32
386.671	36.01
386.881	68.78
387.091	74.92
387.301	138.41
387.511	27.82
387.72	130.22
387.93	113.83
388.14	-56.15
388.35	83.11
388.56	101.55
388.769	119.98
388.979	95.4
389.189	-9.05
389.399	79.02
389.609	93.35
389.818	117.93
390.028	44.2
390.238	-11.09
390.447	48.3
390.657	-23.38
390.867	-4.95
391.076	-144.21
391.286	83.11
391.496	76.97
391.705	36.01
391.915	150.7
392.125	160.94
392.334	31.91
392.544	158.89
392.753	38.06
392.963	-39.76
393.172	54.44
393.382	21.67
393.591	150.7
393.801	27.82
394.01	148.65
394.22	158.89
394.429	-47.96
394.639	29.87
394.848	66.73
395.058	50.35
395.267	91.31
395.477	130.22
395.686	144.55
395.895	128.17
396.105	165.03
396.314	89.26
396.524	68.78
396.733	-66.39
396.942	87.21
397.152	64.68
397.361	109.74
397.57	-11.09
397.78	56.49
397.989	62.63
398.198	210.09
398.407	50.35
398.617	109.74
398.826	62.63
399.035	99.5
399.244	210.09
399.453	74.92
399.663	56.49
399.872	124.07
400.081	-9.05
400.29	132.26
400.499	-7
400.708	154.79
400.917	111.78
401.127	68.78
401.336	-37.72
401.545	191.66
401.754	81.07
401.963	74.92
402.172	3.24
402.381	19.63
402.59	40.11
402.799	36.01
403.008	93.35
403.217	74.92
403.426	72.87
403.635	-21.33
403.844	-2.9
404.053	44.2
404.262	40.11
404.471	238.76
404.68	31.91
404.888	23.72
405.097	15.53
405.306	62.63
405.515	68.78
405.724	5.29
405.933	76.97
406.142	89.26
406.35	122.02
406.559	19.63
406.768	105.64
406.977	113.83
407.185	33.96
407.394	93.35
407.603	-35.67
407.812	38.06
408.02	205.99
408.229	44.2
408.438	68.78
408.646	-50
408.855	27.82
409.064	33.96
409.272	9.39
409.481	33.96
409.69	-13.14
409.898	3.24
410.107	105.64
410.315	144.55
410.524	-45.91
410.733	48.3
410.941	60.59
411.15	130.22
411.358	91.31
411.567	99.5
411.775	-15.19
411.984	93.35
412.192	58.54
412.401	29.87
412.609	117.93
412.818	175.27
413.026	117.93
413.234	52.39
413.443	-7
413.651	23.72
413.86	97.45
414.068	158.89
414.276	210.09
414.485	-27.48
414.693	165.03
414.901	275.62
415.11	54.44
415.318	124.07
415.526	33.96
415.734	146.6
415.943	99.5
416.151	197.8
416.359	-2.9
416.567	126.12
416.776	91.31
416.984	87.21
417.192	222.38
417.4	52.39
417.608	56.49
417.817	60.59
418.025	138.41
418.233	162.98
418.441	-101.2
418.649	79.02
418.857	40.11
419.065	173.22
419.273	-54.1
419.481	93.35
419.689	85.16
419.897	27.82
420.105	-47.96
420.313	62.63
420.521	132.26
420.729	189.61
420.937	23.72
421.145	-9.05
421.353	87.21
421.561	97.45
421.769	162.98
421.977	7.34
422.185	109.74
422.393	21.67
422.601	103.59
422.809	107.69
423.017	48.3
423.224	-0.85
423.432	101.55
423.64	48.3
423.848	197.8
424.056	-11.09
424.263	142.5
424.471	31.91
424.679	146.6
424.887	33.96
425.094	126.12
425.302	113.83
425.51	83.11
425.718	107.69
425.925	58.54
426.133	21.67
426.341	169.13
426.548	13.48
426.756	46.25
426.964	52.39
427.171	44.2
427.379	68.78
427.586	23.72
427.794	50.35
428.001	160.94
428.209	122.02
428.417	150.7
428.624	134.31
428.832	83.11
429.039	109.74
429.247	70.83
429.454	191.66
429.662	142.5
429.869	140.46
430.076	107.69
430.284	140.46
430.491	251.05
430.699	105.64
430.906	199.85
431.114	148.65
431.321	103.59
431.528	87.21
431.736	144.55
431.943	122.02
432.15	214.18
432.358	226.47
432.565	226.47
432.772	87.21
432.979	251.05
433.187	93.35
433.394	236.71
433.601	130.22
433.808	197.8
434.016	205.99
434.223	162.98
434.43	275.62
434.637	269.48
434.844	257.19
435.052	156.84
435.259	289.96
435.466	310.44
435.673	255.14
435.88	322.73
436.087	265.38
436.294	330.92
436.501	281.77
436.708	212.14
436.915	314.53
437.122	382.12
437.329	273.57
437.537	281.77
437.743	318.63
437.95	461.99
438.157	365.73
438.364	382.12
438.571	351.4
438.778	437.41
438.985	423.08
439.192	472.23
439.399	408.74
439.606	451.75
439.813	449.7
440.02	541.86
440.227	609.44
440.433	584.87
440.64	502.95
440.847	498.85
441.054	586.91
441.261	580.77
441.467	611.49
441.674	496.8
441.881	666.78
442.088	611.49
442.294	672.93
442.501	726.18
442.708	683.17
442.914	777.37
443.121	826.53
443.328	779.42
443.534	859.29
443.741	769.18
443.948	748.7
444.154	949.4
444.361	1135.77
444.568	1004.7
444.774	941.21
444.981	945.31
445.187	1129.63
445.394	1023.13
445.6	1078.43
445.807	1256.6
446.013	1158.3
446.22	1074.33
446.426	1248.41
446.633	1365.14
446.839	1574.03
447.046	1336.47
447.252	1531.03
447.459	1440.92
447.665	1496.21
447.871	1633.43
448.078	1866.89
448.284	1760.4
448.491	1836.17
448.697	1879.18
448.903	1983.63
449.11	2032.78
449.316	1969.29
449.522	2174.09
449.728	2288.78
449.935	2213
450.141	2260.1
450.347	2575.49
450.553	2432.13
450.76	2555.01
450.966	2675.84
451.172	2702.47
451.378	2817.15
451.584	2952.32
451.791	3269.75
451.997	3200.12
452.203	3226.75
452.409	3456.12
452.615	3615.86
452.821	3417.21
453.027	3482.74
453.233	3875.95
453.44	3769.46
453.646	4134
453.852	4230.25
454.058	4383.85
454.264	4455.53
454.47	4924.51
454.676	4901.98
454.882	5332.06
455.088	4932.7
455.294	5471.32
455.5	5741.65
455.705	6024.27
455.911	5850.19
456.117	6134.86
456.323	6360.14
456.529	6397
456.735	6978.62
456.941	7287.87
457.147	7431.23
457.352	7437.37
457.558	7896.11
457.764	8424.49
457.97	8571.94
458.176	8887.33
458.381	9239.58
458.587	9550.87
458.793	9942.03
458.999	10007.57
459.204	10990.59
459.41	11377.66
459.616	11363.33
459.821	12372.97
460.027	12467.18
460.233	13274.08
460.438	13401.05
460.644	13966.29
460.85	14152.66
461.055	14463.95
461.261	15532.99
461.466	15061.96
461.672	15526.85
461.878	17277.86
462.083	16757.67
462.289	17521.57
462.494	17910.68
462.7	18297.75
462.905	18246.55
463.111	20114.3
463.316	20992.87
463.522	21519.2
463.727	22240.09
463.932	22881.1
464.138	23505.73
464.343	24515.38
464.549	24650.55
464.754	26622.74
464.959	26757.91
465.165	27497.22
465.37	27220.75
465.575	27259.66
465.781	29158.13
465.986	29930.21
466.191	29846.24
466.397	30042.85
466.602	29203.18
466.807	30771.93
467.012	31367.88
467.218	31804.1
467.423	32117.44
467.628	33508.01
467.833	34853.53
468.038	34175.65
468.244	33473.2
468.449	35162.77
468.654	34636.44
468.859	34370.21
469.064	34368.16
469.269	33977
469.474	33735.34
469.679	34683.55
469.885	34017.96
470.09	34298.53
470.295	34624.15
470.5	33884.84
470.705	34267.81
470.91	33278.64
471.115	32651.96
471.32	33505.96
471.525	33514.16
471.73	32393.92
471.935	31959.75
472.139	30952.15
472.344	31046.35
472.549	30448.35
472.754	29919.97
472.959	29758.18
473.164	28427
473.369	28175.1
473.574	28732.15
473.778	28480.25
473.983	27882.24
474.188	27595.53
474.393	25832.22
474.598	26161.95
474.802	25377.58
475.007	24963.89
475.212	24630.07
475.417	23939.9
475.621	23921.47
475.826	23487.3
476.031	22840.14
476.235	22420.31
476.44	22326.1
476.645	22023
476.849	21754.72
477.054	21199.72
477.259	20712.3
477.463	20568.94
477.668	20102.01
477.872	19927.93
478.077	19774.33
478.282	18899.85
478.486	18711.44
478.691	18899.85
478.895	18656.14
479.1	18523.02
479.304	18213.78
479.509	17691.55
479.713	17884.06
479.918	17419.17
480.122	17040.29
480.326	17284
480.531	17163.17
480.735	17107.88
480.94	16657.32
481.144	17132.45
481.348	16411.57
481.553	16923.56
481.757	16118.71
481.961	16053.17
482.166	16346.03
482.37	16112.56
482.574	15516.61
482.778	15508.41
482.983	15948.73
483.187	15317.95
483.391	15571.9
483.595	15307.71
483.8	14961.61
484.004	15072.2
484.208	14799.82
484.412	14769.1
484.616	14750.67
484.821	14445.52
485.025	14085.08
485.229	14326.74
485.433	13790.17
485.637	13923.29
485.841	13401.05
486.045	13360.09
486.249	13442.01
486.453	12950.5
486.657	12948.45
486.861	12950.5
487.065	12391.41
487.269	12432.36
487.473	11842.55
487.677	12207.09
487.881	12082.16
488.085	11715.58
488.289	11627.51
488.493	11021.31
488.697	11250.69
488.901	10742.79
489.105	10537.99
489.309	10521.61
489.512	10449.93
489.716	10413.07
489.92	9927.7
490.124	9532.44
490.328	10050.58
490.531	9245.73
490.735	9485.34
490.939	9219.1
491.143	8916
491.346	8946.72
491.55	8719.4
491.754	8485.93
491.958	8399.91
492.161	8295.47
492.365	8109.1
492.569	8037.42
492.772	7912.5
492.976	7932.98
493.18	7560.25
493.383	7789.62
493.587	7599.16
493.79	7617.59
493.994	7287.87
494.197	7412.79
494.401	7386.17
494.605	7029.82
494.808	7097.41
495.012	6904.9
495.215	7023.68
495.419	7085.12
495.622	6753.35
495.825	6736.96
496.029	6659.14
496.232	6739.01
496.436	6591.56
496.639	6947.9
496.843	6708.29
497.046	6431.82
497.249	6763.59
497.453	6636.61
497.656	6483.02
497.859	6679.62
498.063	6636.61
498.266	6591.56
498.469	6603.85
498.673	6835.27
498.876	6679.62
499.079	6808.64
499.282	6777.92
499.485	6851.65
499.689	6804.55
499.892	6929.47
500.095	6700.1
500.298	6913.09
500.501	6962.24
500.705	7191.61
500.908	7158.85
501.111	7197.76
501.314	7048.26
501.517	7461.94
501.72	7240.76
501.923	7382.07
502.126	7271.48
502.329	7584.82
502.532	7545.91
502.735	7529.53
502.938	7947.31
503.141	8098.86
503.344	7851.06
503.547	8283.18
503.75	8193.07
503.953	8264.75
504.156	8377.39
504.359	8510.5
504.562	8465.45
504.765	8893.47
504.968	9053.22
505.17	8739.88
505.373	9122.85
505.576	9376.8
505.779	9348.12
505.982	9358.36
506.185	9694.23
506.387	9841.68
506.59	10064.91
506.793	10171.41
506.996	10316.81
507.198	10533.9
507.401	10603.53
507.604	11084.8
507.807	11197.44
508.009	11340.8
508.212	11633.66
508.415	12078.07
508.617	11891.7
508.82	12219.38
509.022	12348.4
509.225	12719.08
509.428	12973.03
509.63	13171.68
509.833	13214.69
510.035	13874.13
510.238	14011.35
510.44	14244.82
510.643	14648.27
510.845	15174.6
511.048	15281.09
511.25	15467.45
511.453	15764.41
511.655	16534.45
511.858	16841.64
512.06	17038.25
512.262	17243.04
512.465	17468.32
512.667	18138.01
512.87	18527.12
513.072	18733.96
513.274	19286.92
513.477	19626.88
513.679	20378.48
513.881	20583.28
514.084	21242.73
514.286	21250.92
514.488	21930.84
514.69	22717.26
514.893	23059.27
515.095	23300.94
515.297	23718.72
515.499	24341.3
515.701	24914.73
515.904	25379.62
516.106	25879.33
516.308	26471.19
516.51	26811.15
516.712	27190.03
516.914	27851.52
517.116	28465.91
517.318	28709.62
517.52	29387.5
517.722	30104.29
517.925	30583.51
518.127	31056.59
518.329	31517.39
518.531	31800.01
518.733	32516.79
518.935	33217.2
519.136	34110.11
519.338	34357.92
519.54	34742.94
519.742	35459.73
519.944	35881.61
520.146	36403.84
520.348	36838.01
520.55	37053.05
520.752	37261.94
520.954	38113.89
521.155	38541.92
521.357	39379.54
521.559	39588.43
521.761	40442.43
521.963	40094.28
522.164	41034.3
522.366	40862.27
522.568	41318.96
522.77	41273.91
522.971	42158.63
523.173	41972.27
523.375	42918.43
523.576	42220.07
523.778	42433.06
523.98	43373.08
524.181	43164.18
524.383	43508.24
524.584	44073.48
524.786	43612.69
524.988	43676.18
525.189	44163.59
525.391	44063.24
525.592	44382.73
525.794	44231.18
525.995	44249.61
526.197	44352.01
526.398	44460.55
526.6	44118.54
526.801	44024.33
527.003	44069.39
527.204	43991.56
527.406	44139.02
527.607	43108.89
527.808	43495.95
528.01	42529.31
528.211	42938.91
528.412	43063.83
528.614	42603.04
528.815	42365.48
529.016	42768.93
529.218	41361.97
529.419	41101.88
529.62	41136.69
529.822	40370.75
530.023	40493.63
530.224	39604.81
530.425	39189.08
530.626	38828.63
530.828	38625.89
531.029	39111.25
531.23	37702.25
531.431	37237.36
531.632	37266.03
531.833	36862.58
532.035	36256.39
532.236	35838.6
532.437	35697.29
532.638	34980.5
532.839	34644.63
533.04	34714.26
533.241	33628.84
533.442	33757.86
533.643	32848.57
533.844	32766.65
534.045	32107.2
534.246	31552.2
534.447	31533.77
534.648	30784.21
534.849	30603.99
535.05	29668.07
535.251	29778.66
535.451	29248.24
535.652	28828.4
535.853	28396.28
536.054	28089.09
536.255	27953.92
536.456	27282.19
536.657	27364.11
536.857	26862.35
537.058	26266.39
537.259	25883.42
537.46	25830.18
537.66	25066.28
537.861	24677.17
538.062	24322.87
538.263	24621.87
538.463	24007.48
538.664	23802.69
538.865	23251.78
539.065	23163.72
539.266	22569.81
539.466	22901.58
539.667	22047.58
539.868	22276.95
540.068	21810.01
540.269	21394.28
540.469	21316.45
540.67	20796.27
540.87	20867.95
541.071	20503.41
541.271	20407.16
541.472	20167.54
541.672	19747.71
541.873	19547.01
542.073	19542.91
542.274	19215.24
542.474	18942.86
542.675	18553.74
542.875	18410.39
543.075	18260.88
543.276	17933.21
543.476	17707.93
543.676	17650.59
543.877	17533.86
544.077	17296.29
544.277	16952.23
544.478	16946.09
544.678	16694.19
544.878	16694.19
545.078	16561.07
545.279	16135.09
545.479	15696.83
545.679	15655.87
545.879	15627.2
546.079	15369.15
546.28	15102.92
546.48	15090.63
546.68	14955.46
546.88	14769.1
547.08	14582.73
547.28	14414.8
547.48	14054.36
547.68	14281.68
547.88	13646.81
548.081	13683.67
548.281	13351.9
548.481	13425.63
548.681	13157.35
548.881	12993.51
549.081	12631.02
549.28	12596.2
549.48	12809.19
549.68	12395.5
549.88	12436.46
550.08	11944.95
550.28	12037.11
550.48	11719.67
550.68	11719.67
550.88	11443.2
551.08	11138.05
551.279	11332.61
551.479	11039.75
551.679	10947.59
551.879	10634.25
552.079	10492.94
552.278	10363.92
552.478	10257.42
552.678	10030.1
552.878	9825.3
553.077	9778.2
553.277	9575.45
553.477	9651.22
553.676	9585.69
553.876	9239.58
554.076	8950.82
554.275	8827.94
554.475	8678.44
554.674	8684.58
554.874	8383.53
555.074	8281.13
555.273	8043.57
555.473	7984.18
555.672	7922.74
555.872	7664.69
556.071	7740.47
556.271	7693.37
556.47	7588.92
556.67	7234.62
556.869	7132.22
557.068	7007.3
557.268	6915.14
557.467	6718.53
557.667	6868.03
557.866	6474.82
558.065	6454.34
558.265	6489.16
558.464	6270.03
558.663	6227.02
558.863	6077.52
559.062	6196.3
559.261	5956.69
559.461	5968.98
559.66	5710.93
559.859	5540.95
560.058	5508.18
560.258	5323.87
560.457	5330.01
560.656	5487.7
560.855	5149.79
561.054	5057.63
561.253	4998.24
561.453	5008.48
561.652	4906.08
561.851	4992.09
562.05	4779.11
562.249	4533.35
562.448	4682.85
562.647	4400.23
562.846	4433
563.045	4516.97
563.244	4289.64
563.443	4375.66
563.642	4230.25
563.841	4174.95
564.04	3957.87
564.239	4213.87
564.438	4074.6
564.637	3837.04
564.836	3839.09
565.035	3722.35
565.234	3810.42
565.432	3703.92
565.631	3771.51
565.83	3748.98
566.029	3460.21
566.228	3400.82
566.427	3542.13
566.625	3247.23
566.824	3312.76
567.023	3306.62
567.222	3228.79
567.42	3116.16
567.619	3249.27
567.818	3079.29
568.016	3288.18
568.215	3087.48
568.414	3058.81
568.612	2911.36
568.811	2811.01
569.01	3001.47
569.208	2860.16
569.407	2995.32
569.605	2813.06
569.804	2667.65
570.002	2600.07
570.201	2536.58
570.4	2595.97
570.598	2466.95
570.797	2514.05
570.995	2430.09
571.193	2438.28
571.392	2454.66
571.59	2299.02
571.789	2391.17
571.987	2296.97
572.186	2319.5
572.384	2290.82
572.582	2233.48
572.781	2221.19
572.979	2081.93
573.177	2102.41
573.376	2040.97
573.574	2157.71
573.772	2022.54
573.971	1981.58
574.169	1936.53
574.367	1948.81
574.565	1850.51
574.763	1799.31
574.962	1795.22
575.16	1735.82
575.358	1746.06
575.556	1750.16
575.754	1768.59
575.952	1658
576.151	1750.16
576.349	1682.58
576.547	1502.36
576.745	1600.66
576.943	1713.3
577.141	1633.43
577.339	1391.77
577.537	1434.77
577.735	1457.3
577.933	1600.66
578.131	1420.44
578.329	1514.64
578.527	1440.92
578.725	1418.39
578.923	1266.84
579.121	1408.15
579.319	1256.6
579.516	1133.72
579.714	1494.16
579.912	1322.13
580.11	1166.49
580.308	1164.44
580.506	1086.62
580.704	1014.94
580.901	1105.05
581.099	1201.3
581.297	1148.06
581.495	1043.61
581.692	1178.78
581.89	1207.45
582.088	1041.56
582.285	1057.95
582.483	980.12
582.681	922.78
582.878	1037.47
583.076	961.69
583.274	1078.43
583.471	1215.64
583.669	990.36
583.866	857.25
584.064	922.78
584.262	799.9
584.459	797.85
584.657	941.21
584.854	945.31
585.052	951.45
585.249	910.49
585.447	910.49
585.644	799.9
585.841	890.01
586.039	890.01
586.236	961.69
586.434	820.38
586.631	738.46
586.828	738.46
587.026	660.64
587.223	648.35
587.42	656.54
587.618	736.42
587.815	849.05
588.012	781.47
588.21	607.39
588.407	763.04
588.604	783.52
588.801	638.11
588.999	728.22
589.196	758.94
589.393	588.96
589.59	724.13
589.787	642.21
589.984	728.22
590.182	613.54
590.379	652.45
590.576	638.11
590.773	631.97
590.97	652.45
591.167	683.17
591.364	660.64
591.561	578.72
591.758	711.84
591.955	677.02
592.152	541.86
592.349	605.35
592.546	543.91
592.743	574.63
592.94	642.21
593.137	570.53
593.334	660.64
593.531	634.02
593.727	681.12
593.924	627.87
594.121	644.26
594.318	574.63
594.515	685.22
594.712	724.13
594.908	715.94
595.105	496.8
595.302	650.4
595.499	648.35
595.696	769.18
595.892	662.69
596.089	820.38
596.286	631.97
596.482	830.62
596.679	760.99
596.876	742.56
597.072	746.66
597.269	664.74
597.466	801.95
597.662	812.19
597.859	840.86
598.055	883.87
598.252	930.97
598.448	939.16
598.645	1043.61
598.841	1016.99
599.038	1184.92
599.234	1213.59
599.431	1131.67
599.627	1031.32
599.824	1215.64
600.02	1264.79
600.217	1315.99
600.413	1383.57
600.609	1270.94
600.806	1551.51
601.002	1492.12
601.198	1469.59
601.395	1627.28
601.591	1651.86
601.787	1619.09
601.984	1729.68
602.18	1866.89
602.376	1846.41
602.572	1924.24
602.769	2069.64
602.965	2069.64
603.161	2157.71
603.357	2223.24
603.553	2380.93
603.75	2305.16
603.946	2452.61
604.142	2520.2
604.338	2698.37
604.534	2821.25
604.73	2858.11
604.926	2874.49
605.122	3062.91
605.318	3128.44
605.514	3185.79
605.71	3282.04
605.906	3386.49
606.102	3456.12
606.298	3636.34
606.494	3771.51
606.69	3804.27
606.886	3708.02
607.082	3937.39
607.278	4148.33
607.474	4232.3
607.67	4430.95
607.866	4439.14
608.062	4822.11
608.257	4826.21
608.453	4899.94
608.649	5125.21
608.845	5061.73
609.041	5164.12
609.236	5479.51
609.432	5729.36
609.628	5860.43
609.824	5917.78
610.019	6093.9
610.215	6048.85
610.411	6382.67
610.606	6466.63
610.802	6603.85
610.998	6698.05
611.193	7285.82
611.389	7035.97
611.584	7193.66
611.78	7470.14
611.976	7705.65
612.171	8195.12
612.367	8143.92
612.562	8373.29
612.758	8602.66
612.953	8655.91
613.149	9065.5
613.344	9274.4
613.539	9554.97
613.735	9677.85
613.93	10054.67
614.126	10091.54
614.321	10492.94
614.517	11103.23
614.712	11258.88
614.907	11471.87
615.103	11852.79
615.298	11578.36
615.493	12338.16
615.688	12405.74
615.884	13005.8
616.079	12727.27
616.274	13571.04
616.47	13788.12
616.665	14306.26
616.86	14482.38
617.055	14787.53
617.25	15250.37
617.445	15748.03
617.641	15825.85
617.836	16608.17
618.031	16712.62
618.226	17376.16
618.421	17716.12
618.616	18111.38
618.811	18258.84
619.006	18967.43
619.201	19106.7
619.396	19725.18
619.591	19794.81
619.786	20685.68
619.981	21013.35
620.176	21289.83
620.371	21607.26
620.566	22569.81
620.761	22747.98
620.956	23173.96
621.151	23370.57
621.346	23919.42
621.541	24216.38
621.735	25432.87
621.93	25355.05
622.125	26018.59
622.32	26131.23
622.515	26680.08
622.709	27198.22
622.904	27618.05
623.099	28193.53
623.294	28959.47
623.488	28994.29
623.683	29825.76
623.878	30114.53
624.072	30884.56
624.267	31134.42
624.462	31503.05
624.656	31777.48
624.851	32590.52
625.046	32998.07
625.24	33495.72
625.435	33723.05
625.629	34454.17
625.824	34781.85
626.018	35383.95
626.213	35132.05
626.407	35811.98
626.602	36004.49
626.796	37071.48
626.991	37149.3
627.185	37354.1
627.38	37116.53
627.574	37806.7
627.768	37939.82
627.963	38191.72
628.157	38285.92
628.352	38955.61
628.546	38206.05
628.74	39017.05
628.935	38322.79
629.129	38476.38
629.323	38281.83
629.517	38437.47
629.712	37843.56
629.906	37843.56
630.1	37214.83
630.294	37182.07
630.489	36659.84
630.683	36625.02
630.877	35383.95
631.071	35222.16
631.265	34742.94
631.459	34194.08
631.653	33133.23
631.848	32340.67
632.042	31871.68
632.236	30989.01
632.43	30462.68
632.624	29229.8
632.818	28979.95
633.012	27747.08
633.206	26874.64
633.4	26409.75
633.594	25094.96
633.788	24552.24
633.982	23616.32
634.176	22942.54
634.369	21945.18
634.563	21381.99
634.757	20188.02
634.951	19747.71
635.145	18973.58
635.339	18027.42
635.533	17333.15
635.726	16729
635.92	15772.6
636.114	15207.36
636.308	14322.64
636.501	14367.7
636.695	13714.39
636.889	12743.66
637.083	12502
637.276	11787.25
637.47	11473.92
637.664	10916.87
637.857	10605.58
638.051	10152.98
638.244	9675.8
638.438	9301.02
638.632	9139.23
638.825	8639.53
639.019	8471.59
639.212	7984.18
639.406	7535.67
639.599	7269.44
639.793	7218.24
639.986	6859.84
640.18	6413.38
640.373	6390.86
640.567	6245.45
640.76	5882.96
640.954	5602.39
641.147	5233.75
641.34	5198.94
641.534	5006.43
641.727	4867.17
641.92	4557.93
642.114	4510.82
642.307	4129.9
642.5	4179.05
642.694	3898.48
642.887	3859.57
643.08	3785.84
643.273	3622
643.467	3331.19
643.66	3226.75
643.853	3028.09
644.046	2942.08
644.239	2864.25
644.432	2735.23
644.626	2706.56
644.819	2550.92
645.012	2481.28
645.205	2442.37
645.398	2438.28
645.591	2227.34
645.784	1973.39
645.977	1924.24
646.17	1995.92
646.363	1897.61
646.556	1776.78
646.749	1764.5
646.942	1600.66
647.135	1614.99
647.328	1410.2
647.521	1582.23
647.714	1494.16
647.907	1481.88
648.099	1264.79
648.292	1330.33
648.485	1328.28
648.678	1209.5
648.871	1107.1
649.064	1143.96
649.256	1064.09
649.449	961.69
649.642	908.44
649.835	912.54
650.027	908.44
650.22	943.26
650.413	799.9
650.605	740.51
650.798	777.37
650.991	785.57
651.183	795.81
651.376	748.7
651.568	840.86
651.761	656.54
651.954	634.02
652.146	713.89
652.339	693.41
652.531	738.46
652.724	560.29
652.916	574.63
653.109	449.7
653.301	517.28
653.494	519.33
653.686	441.51
653.879	638.11
654.071	564.39
654.263	464.04
654.456	394.4
654.648	468.13
654.84	461.99
655.033	353.45
655.225	527.52
655.417	277.67
655.61	504.99
655.802	367.78
655.994	459.94
656.186	310.44
656.379	461.99
656.571	337.06
656.763	292.01
656.955	324.77
657.148	292.01
657.34	402.6
657.532	357.54
657.724	337.06
657.916	357.54
658.108	378.02
658.3	314.53
658.492	289.96
658.684	240.81
658.876	308.39
659.068	167.08
659.26	136.36
659.452	246.95
659.644	228.52
659.836	423.08
660.028	232.62
660.22	179.37
660.412	257.19
660.604	208.04
660.796	216.23
660.988	384.16
661.18	203.94
661.372	193.7
661.563	257.19
661.755	251.05
661.947	132.26
662.139	132.26
662.331	191.66
662.522	224.42
662.714	119.98
662.906	91.31
663.097	156.84
663.289	126.12
663.481	46.25
663.673	218.28
663.864	156.84
664.056	193.7
664.247	146.6
664.439	220.33
664.631	177.32
664.822	232.62
665.014	122.02
665.205	122.02
665.397	76.97
665.588	191.66
665.78	148.65
665.971	234.66
666.163	193.7
666.354	201.9
666.546	105.64
666.737	158.89
666.929	124.07
667.12	107.69
667.311	189.61
667.503	119.98
667.694	101.55
667.885	205.99
668.077	177.32
668.268	46.25
668.459	136.36
668.651	126.12
668.842	142.5
669.033	64.68
669.224	103.59
669.416	328.87
669.607	134.31
669.798	83.11
669.989	177.32
670.18	150.7
670.371	134.31
670.563	36.01
670.754	199.85
670.945	222.38
671.136	218.28
671.327	56.49
671.518	199.85
671.709	287.91
671.9	197.8
672.091	261.29
672.282	216.23
672.473	103.59
672.664	56.49
672.855	160.94
673.046	162.98
673.237	179.37
673.428	177.32
673.619	181.42
673.809	62.63
674	232.62
674.191	244.9
674.382	42.15
674.573	136.36
674.764	93.35
674.954	183.46
675.145	115.88
675.336	54.44
675.527	91.31
675.717	162.98
675.908	87.21
676.099	81.07
676.289	177.32
676.48	-21.33
676.671	140.46
676.861	156.84
677.052	214.18
677.243	154.79
677.433	128.17
677.624	158.89
677.814	177.32
678.005	148.65
678.195	306.34
678.386	76.97
678.576	193.7
678.767	74.92
678.957	171.18
679.148	162.98
679.338	232.62
679.529	218.28
679.719	177.32
679.909	240.81
680.1	156.84
680.29	289.96
680.481	74.92
680.671	249
680.861	218.28
681.052	236.71
681.242	117.93
681.432	277.67
681.622	156.84
681.813	122.02
682.003	220.33
682.193	150.7
682.383	279.72
682.573	179.37
682.764	181.42
682.954	189.61
683.144	232.62
683.334	171.18
683.524	154.79
683.714	124.07
683.904	173.22
684.094	162.98
684.284	199.85
684.474	210.09
684.664	244.9
684.854	232.62
685.044	191.66
685.234	199.85
685.424	224.42
685.614	122.02
685.804	314.53
685.994	226.47
686.184	197.8
686.374	263.33
686.564	234.66
686.753	146.6
686.943	91.31
687.133	97.45
687.323	246.95
687.513	292.01
687.702	199.85
687.892	214.18
688.082	236.71
688.272	222.38
688.461	169.13
688.651	382.12
688.841	296.1
689.03	195.75
689.22	177.32
689.41	246.95
689.599	185.51
689.789	238.76
689.979	320.68
690.168	212.14
690.358	255.14
690.547	144.55
690.737	261.29
690.926	195.75
691.116	285.86
691.305	216.23
691.495	257.19
691.684	150.7
691.874	173.22
692.063	230.57
692.252	234.66
692.442	189.61
692.631	183.46
692.82	119.98
693.01	222.38
693.199	208.04
693.388	189.61
693.578	218.28
693.767	255.14
693.956	285.86
694.146	253.09
694.335	234.66
694.524	130.22
694.713	277.67
694.902	165.03
695.092	126.12
695.281	195.75
695.47	165.03
695.659	228.52
695.848	234.66
696.037	136.36
696.226	292.01
696.415	177.32
696.604	294.05
696.793	222.38
696.982	136.36
697.171	283.81
697.36	156.84
697.549	244.9
697.738	31.91
697.927	216.23
698.116	132.26
698.305	232.62
698.494	162.98
698.683	218.28
698.872	337.06
699.061	263.33
699.25	152.74
699.438	257.19
699.627	128.17
699.816	330.92
700.005	113.83
700.193	144.55
700.382	240.81
700.571	273.57
700.76	173.22
700.948	165.03
701.137	216.23
701.326	273.57
701.514	156.84
701.703	205.99
701.892	171.18
702.08	343.21
702.269	138.41
702.457	160.94
702.646	208.04
702.834	142.5
703.023	285.86
703.212	222.38
703.4	205.99
703.589	171.18
703.777	148.65
703.965	119.98
704.154	160.94
704.342	183.46
704.531	222.38
704.719	218.28
704.907	238.76
705.096	117.93
705.284	115.88
705.472	191.66
705.661	267.43
705.849	251.05
706.037	251.05
706.226	242.85
706.414	265.38
706.602	162.98
706.79	218.28
706.979	130.22
707.167	183.46
707.355	89.26
707.543	193.7
707.731	185.51
707.919	171.18
708.107	165.03
708.296	175.27
708.484	103.59
708.672	197.8
708.86	187.56
709.048	162.98
709.236	97.45
709.424	193.7
709.612	277.67
709.8	136.36
709.988	197.8
710.176	273.57
710.364	199.85
710.551	167.08
710.739	226.47
710.927	169.13
711.115	220.33
711.303	232.62
711.491	212.14
711.679	134.31
711.866	261.29
712.054	173.22
712.242	199.85
712.43	224.42
712.617	130.22
712.805	281.77
712.993	109.74
713.181	128.17
713.368	281.77
713.556	187.56
713.744	138.41
713.931	316.58
714.119	251.05
714.306	158.89
714.494	136.36
714.682	193.7
714.869	134.31
715.057	136.36
715.244	158.89
715.432	179.37
715.619	156.84
715.807	195.75
715.994	171.18
716.182	189.61
716.369	210.09
716.556	253.09
716.744	115.88
716.931	97.45
717.119	226.47
717.306	199.85
717.493	201.9
717.681	119.98
717.868	144.55
718.055	197.8
718.242	187.56
718.43	156.84
718.617	316.58
718.804	122.02
718.991	271.53
719.179	142.5
719.366	257.19
719.553	205.99
719.74	236.71
719.927	203.94
720.114	251.05
720.301	169.13
720.488	99.5
720.676	140.46
720.863	384.16
721.05	404.64
721.237	201.9
721.424	253.09
721.611	193.7
721.798	195.75
721.985	169.13
722.172	193.7
722.358	210.09
722.545	230.57
722.732	261.29
722.919	228.52
723.106	228.52
723.293	175.27
723.48	195.75
723.667	224.42
723.853	271.53
724.04	263.33
724.227	189.61
724.414	292.01
724.6	273.57
724.787	289.96
724.974	312.49
725.161	201.9
725.347	126.12
725.534	292.01
725.72	269.48
725.907	281.77
726.094	238.76
726.28	169.13
726.467	203.94
726.653	187.56
726.84	339.11
727.027	347.3
727.213	255.14
727.4	265.38
727.586	201.9
727.773	203.94
727.959	265.38
728.145	210.09
728.332	296.1
728.518	165.03
728.705	310.44
728.891	205.99
729.077	236.71
729.264	251.05
729.45	134.31
729.636	300.2
729.823	193.7
730.009	298.15
730.195	294.05
730.382	289.96
730.568	214.18
730.754	220.33
730.94	165.03
731.126	236.71
731.313	212.14
731.499	249
731.685	275.62
731.871	263.33
732.057	328.87
732.243	312.49
732.429	228.52
732.615	365.73
732.801	283.81
732.987	230.57
733.173	314.53
733.359	201.9
733.545	214.18
733.731	126.12
733.917	296.1
734.103	347.3
734.289	238.76
734.475	156.84
734.661	400.55
734.847	238.76
735.033	281.77
735.219	353.45
735.404	214.18
735.59	162.98
735.776	212.14
735.962	249
736.148	236.71
736.333	443.56
736.519	195.75
736.705	285.86
736.89	292.01
737.076	253.09
737.262	169.13
737.447	185.51
737.633	273.57
737.819	384.16
738.004	230.57
738.19	259.24
738.375	300.2
738.561	412.84
738.747	277.67
738.932	171.18
739.118	283.81
739.303	332.97
739.489	373.92
739.674	187.56
739.859	253.09
740.045	304.29
740.23	208.04
740.416	224.42
740.601	251.05
740.786	281.77
740.972	140.46
741.157	257.19
741.342	136.36
741.528	89.26
741.713	304.29
741.898	201.9
742.084	292.01
742.269	212.14
742.454	269.48
742.639	244.9
742.824	195.75
743.01	330.92
743.195	355.49
743.38	203.94
743.565	226.47
743.75	187.56
743.935	246.95
744.12	312.49
744.305	144.55
744.49	246.95
744.675	322.73
744.86	203.94
745.045	220.33
745.23	234.66
745.415	308.39
745.6	378.02
745.785	205.99
745.97	308.39
746.155	165.03
746.34	347.3
746.525	230.57
746.71	398.5
746.895	81.07
747.079	181.42
747.264	152.74
747.449	332.97
747.634	314.53
747.819	246.95
748.003	167.08
748.188	234.66
748.373	246.95
748.557	246.95
748.742	181.42
748.927	191.66
749.111	203.94
749.296	199.85
749.481	308.39
749.665	271.53
749.85	201.9
750.034	253.09
750.219	193.7
750.404	203.94
750.588	189.61
750.773	175.27
750.957	119.98
751.141	158.89
751.326	265.38
751.51	101.55
751.695	195.75
751.879	167.08
752.064	341.16
752.248	165.03
752.432	373.92
752.617	246.95
752.801	218.28
752.985	187.56
753.17	255.14
753.354	214.18
753.538	246.95
753.722	122.02
753.907	193.7
754.091	87.21
754.275	273.57
754.459	70.83
754.643	191.66
754.828	212.14
755.012	140.46
755.196	97.45
755.38	140.46
755.564	76.97
755.748	238.76
755.932	222.38
756.116	205.99
756.3	148.65
756.484	134.31
756.668	205.99
756.852	91.31
757.036	187.56
757.22	142.5
757.404	146.6
757.588	146.6
757.772	210.09
757.956	193.7
758.14	244.9
758.323	111.78
758.507	187.56
758.691	93.35
758.875	220.33
759.059	226.47
759.242	83.11
759.426	162.98
759.61	91.31
759.794	48.3
759.977	259.24
760.161	339.11
760.345	251.05
760.528	253.09
760.712	162.98
760.895	228.52
761.079	97.45
761.263	7.34
761.446	27.82
761.63	134.31
761.813	177.32
761.997	76.97
762.18	64.68
762.364	119.98
762.547	31.91
762.731	138.41
762.914	136.36
763.098	62.63
763.281	44.2
763.464	7.34
763.648	146.6
763.831	122.02
764.015	36.01
764.198	162.98
764.381	66.73
764.564	-21.33
764.748	148.65
764.931	105.64
765.114	85.16
765.297	132.26
765.481	70.83
765.664	109.74
765.847	-19.29
766.03	210.09
766.213	115.88
766.397	54.44
766.58	150.7
766.763	66.73
766.946	50.35
767.129	52.39
767.312	-7
767.495	103.59
767.678	109.74
767.861	83.11
768.044	93.35
768.227	68.78
768.41	117.93
768.593	111.78
768.776	95.4
768.959	140.46
769.142	187.56
769.324	52.39
769.507	150.7
769.69	13.48
769.873	138.41
770.056	226.47
770.239	79.02
770.421	140.46
770.604	122.02
770.787	70.83
770.97	95.4
771.152	46.25
771.335	126.12
771.518	87.21
771.7	156.84
771.883	199.85
772.066	140.46
772.248	95.4
772.431	193.7
772.613	126.12
772.796	48.3
772.978	130.22
773.161	158.89
773.343	64.68
773.526	-41.81
773.708	-95.06
773.891	17.58
774.073	89.26
774.256	7.34
774.438	185.51
774.621	33.96
774.803	132.26
774.985	50.35
775.168	83.11
775.35	54.44
775.532	119.98
775.715	40.11
775.897	66.73
776.079	21.67
776.261	74.92
776.444	21.67
776.626	70.83
776.808	83.11
776.99	-35.67
777.173	27.82
777.355	81.07
777.537	-0.85
777.719	87.21
777.901	38.06
778.083	72.87
778.265	-88.92
778.447	142.5
778.629	85.16
778.811	76.97
778.993	81.07
779.175	97.45
779.357	62.63
779.539	-29.52
779.721	130.22
779.903	138.41
780.085	33.96
780.267	64.68
780.449	126.12
780.631	87.21
780.812	154.79
780.994	66.73
781.176	17.58
781.358	25.77
781.54	48.3
781.721	76.97
781.903	109.74
782.085	52.39
782.267	238.76
782.448	-7
782.63	13.48
782.812	70.83
782.993	27.82
783.175	97.45
783.357	29.87
783.538	99.5
783.72	27.82
783.901	81.07
784.083	95.4
784.264	48.3
784.446	-90.96
784.627	-11.09
784.809	83.11
784.99	83.11
785.172	144.55
785.353	17.58
785.535	109.74
785.716	-39.76
785.897	29.87
786.079	56.49
786.26	87.21
786.441	117.93
786.623	-70.48
786.804	-39.76
786.985	38.06
787.167	50.35
787.348	107.69
787.529	101.55
787.71	101.55
787.891	50.35
788.073	-23.38
788.254	-21.33
788.435	169.13
788.616	46.25
788.797	-2.9
788.978	-15.19
789.159	-21.33
789.34	72.87
789.522	-13.14
789.703	-19.29
789.884	72.87
790.065	13.48
790.246	103.59
790.427	40.11
790.607	60.59
790.788	64.68
790.969	-78.68
791.15	19.63
791.331	56.49
791.512	31.91
791.693	-66.39
791.874	81.07
792.054	179.37
792.235	187.56
792.416	-31.57
792.597	29.87
792.778	81.07
792.958	19.63
793.139	-21.33
793.32	13.48
793.5	44.2
793.681	25.77
793.862	38.06
794.042	11.43
794.223	-117.59
794.404	-19.29
794.584	-113.49
794.765	5.29
794.945	23.72
795.126	-7
795.306	134.31
795.487	17.58
795.667	-29.52
795.848	115.88
796.028	15.53
796.209	38.06
796.389	87.21
796.57	31.91
796.75	11.43
796.93	17.58
797.111	50.35
797.291	29.87
797.471	33.96
797.652	-27.48
797.832	19.63
798.012	31.91
798.192	-13.14
798.373	-84.82
798.553	-41.81
798.733	31.91
798.913	7.34
799.093	44.2
799.274	66.73
799.454	42.15
799.634	64.68
799.814	191.66
799.994	62.63
800.174	72.87
800.354	-9.05
800.534	-37.72
800.714	60.59
800.894	5.29
801.074	21.67
801.254	3.24
801.434	68.78
801.614	-9.05
801.794	3.24
801.974	1438.87
802.154	-56.15
802.334	74.92
802.514	-2.9
802.693	9.39
802.873	42.15
803.053	132.26
803.233	56.49
803.413	-70.48
803.592	-35.67
803.772	-58.2
803.952	-99.16
804.131	-27.48
804.311	126.12
804.491	76.97
804.67	-41.81
804.85	7.34
805.03	89.26
805.209	33.96
805.389	-2.9
805.568	72.87
805.748	-56.15
805.928	38.06
806.107	70.83
806.287	21.67
806.466	97.45
806.646	27.82
806.825	58.54
807.004	29.87
807.184	5.29
807.363	70.83
807.543	1.19
807.722	-113.49
807.901	97.45
808.081	48.3
808.26	-78.68
808.439	95.4
808.619	1.19
808.798	-15.19
808.977	17.58
809.156	126.12
809.336	87.21
809.515	119.98
809.694	-84.82
809.873	-43.86
810.052	60.59
810.231	115.88
810.411	11.43
810.59	83.11
810.769	-60.24
810.948	27.82
811.127	-168.79
811.306	-25.43
811.485	-17.24
811.664	144.55
811.843	-29.52
812.022	60.59
812.201	-11.09
812.38	-4.95
812.559	-66.39
812.737	1.19
812.916	-131.92
813.095	-33.62
813.274	19.63
813.453	-52.05
813.632	31.91
813.811	25.77
813.989	-62.29
814.168	44.2
814.347	-50
814.526	-41.81
814.704	76.97
814.883	89.26
815.062	-72.53
815.24	29.87
815.419	-47.96
815.598	101.55
815.776	-150.36
815.955	40.11
816.133	-4.95
816.312	58.54
816.49	-19.29
816.669	31.91
816.847	7.34
817.026	-23.38
817.204	-2.9
817.383	-17.24
817.561	-68.44
817.74	56.49
817.918	-33.62
818.097	-19.29
818.275	-23.38
818.453	46.25
818.632	48.3
818.81	-56.15
818.988	-97.11
819.167	11.43
819.345	-31.57
819.523	-9.05
819.701	-52.05
819.879	29.87
820.058	-86.87
820.236	46.25
820.414	-19.29
820.592	-15.19
820.77	5.29
820.948	15.53
821.127	-82.77
821.305	19.63
821.483	-27.48
821.661	54.44
821.839	48.3
822.017	3.24
822.195	-4.95
822.373	48.3
822.551	25.77
822.729	81.07
822.907	-62.29
823.085	56.49
823.262	-29.52
823.44	-31.57
823.618	1.19
823.796	42.15
823.974	-33.62
824.152	-39.76
824.329	-50
824.507	29.87
824.685	107.69
824.863	13.48
825.04	33.96
825.218	17.58
825.396	25.77
825.574	46.25
825.751	13.48
825.929	7.34
826.107	-154.45
826.284	1.19
826.462	31.91
826.639	-64.34
826.817	-29.52
826.994	25.77
827.172	-82.77
827.349	56.49
827.527	56.49
827.704	5.29
827.882	70.83
828.059	11.43
828.237	-35.67
828.414	1.19
828.591	-66.39
828.769	9.39
828.946	-107.35
829.124	74.92
829.301	31.91
829.478	54.44
829.655	40.11
829.833	31.91
830.01	-74.58
830.187	42.15
830.364	-52.05
830.542	17.58
830.719	89.26
830.896	56.49
831.073	27.82
831.25	-27.48
831.427	40.11
831.604	-31.57
831.782	21.67
831.959	9.39
832.136	-39.76
832.313	40.11
832.49	40.11
832.667	36.01
832.844	-88.92
833.021	144.55
833.198	-19.29
833.374	15.53
833.551	70.83
833.728	44.2
833.905	89.26
834.082	-127.83
834.259	-31.57
834.436	99.5
834.612	-29.52
834.789	-2.9
834.966	56.49
835.143	44.2
835.319	-19.29
835.496	85.16
835.673	38.06
835.85	156.84
836.026	21.67
836.203	103.59
836.38	-35.67
836.556	-64.34
836.733	-25.43
836.909	126.12
837.086	-17.24
837.262	-111.44
837.439	-25.43
837.616	-23.38
837.792	-27.48
837.968	-41.81
838.145	-136.02
838.321	-0.85
838.498	-41.81
838.674	162.98
838.851	60.59
839.027	17.58
839.203	-17.24
839.38	42.15
839.556	-19.29
839.732	42.15
839.909	46.25
840.085	79.02
840.261	-64.34
840.437	-11.09
840.614	-9.05
840.79	103.59
840.966	33.96
841.142	38.06
841.318	-45.91
841.494	68.78
841.671	130.22
841.847	-66.39
842.023	-99.16
842.199	7.34
842.375	46.25
842.551	-86.87
842.727	-82.77
842.903	111.78
843.079	-101.2
843.255	76.97
843.431	-9.05
843.607	130.22
843.783	-43.86
843.959	-9.05
844.134	13.48
844.31	23.72
844.486	-125.78
844.662	-9.05
844.838	33.96
845.013	-21.33
845.189	50.35
845.365	29.87
845.541	-19.29
845.716	-31.57
845.892	56.49
846.068	-45.91
846.244	-105.3
846.419	31.91
846.595	-97.11
846.77	-37.72
846.946	97.45
847.122	-29.52
847.297	-56.15
847.473	154.79
847.648	-93.01
847.824	-29.52
847.999	-72.53
848.175	36.01
848.35	27.82
848.526	11.43
848.701	38.06
848.876	19.63
849.052	44.2
849.227	-2.9
849.403	-45.91
849.578	40.11
849.753	-13.14
849.929	85.16
850.104	-97.11
850.279	5.29
850.454	40.11
850.63	42.15
850.805	-9.05
850.98	-31.57
851.155	68.78
851.33	46.25
851.505	-56.15
851.681	70.83
851.856	1.19
852.031	36.01
852.206	-50
852.381	-90.96
852.556	7.34
852.731	58.54
852.906	76.97
853.081	38.06
853.256	38.06
853.431	-39.76
853.606	-41.81
853.781	15.53
853.956	-43.86
854.131	15.53
854.305	-19.29
854.48	-15.19
854.655	-58.2
854.83	-35.67
855.005	64.68
855.18	5.29
855.354	66.73
855.529	58.54
855.704	-72.53
855.879	29.87
856.053	-76.63
856.228	7.34
856.403	-35.67
856.577	42.15
856.752	-123.73
856.926	-9.05
857.101	122.02
857.276	-35.67
857.45	-7
857.625	21.67
857.799	9.39
857.974	-13.14
858.148	-123.73
858.323	-0.85
858.497	-88.92
858.672	-2.9
858.846	-4.95
859.02	62.63
859.195	-60.24
859.369	-29.52
859.543	-15.19
859.718	76.97
859.892	-23.38
860.066	93.35
860.241	-19.29
860.415	-103.25
860.589	-0.85
860.763	-15.19
860.938	11.43
861.112	42.15
861.286	-19.29
861.46	42.15
861.634	27.82
861.808	97.45
861.982	-29.52
862.157	-70.48
862.331	-15.19
862.505	-84.82
862.679	-103.25
862.853	42.15
863.027	-31.57
863.201	179.37
863.375	-43.86
863.549	21.67
863.722	-0.85
863.896	185.51
864.07	-29.52
864.244	21.67
864.418	11.43
864.592	60.59
864.766	66.73
864.939	-13.14
865.113	-68.44
865.287	107.69
865.461	-25.43
865.634	31.91
865.808	-29.52
865.982	-86.87
866.156	-43.86
866.329	-109.4
866.503	36.01
866.676	27.82
866.85	-21.33
867.024	-33.62
867.197	17.58
867.371	72.87
867.544	-37.72
867.718	-21.33
867.891	9.39
868.065	-70.48
868.238	3.24
868.412	25.77
868.585	11.43
868.759	-31.57
868.932	7.34
869.105	-107.35
869.279	13.48
869.452	-39.76
869.625	27.82
869.799	-41.81
869.972	-105.3
870.145	-52.05
870.319	36.01
870.492	-9.05
870.665	-43.86
870.838	-93.01
871.011	-187.22
871.185	-7
871.358	-25.43
871.531	91.31
871.704	-29.52
871.877	13.48
872.05	-47.96
872.223	-70.48
872.396	62.63
872.569	23.72
872.742	-52.05
872.915	54.44
873.088	21.67
873.261	-105.3
873.434	113.83
873.607	-74.58
873.78	156.84
873.953	-62.29
874.126	46.25
874.299	-68.44
874.471	-72.53
874.644	-7
874.817	31.91
874.99	179.37
875.163	-17.24
875.335	136.36
875.508	9.39
875.681	142.5
875.853	-4.95
876.026	7.34
876.199	13.48
876.371	-37.72
876.544	99.5
876.717	7.34
876.889	-99.16
877.062	60.59
877.234	-52.05
877.407	-47.96
877.579	23.72
877.752	-19.29
877.924	64.68
878.097	79.02
878.269	-21.33
878.442	5.29
878.614	83.11
878.786	23.72
878.959	5.29
879.131	40.11
879.303	-119.64
879.476	-7
879.648	56.49
879.82	-11.09
879.993	-72.53
880.165	-37.72
880.337	-160.59
880.509	33.96
880.681	-144.21
880.854	46.25
881.026	54.44
881.198	132.26
881.37	7.34
881.542	-21.33
881.714	-52.05
881.886	-15.19
882.058	11.43
882.23	5.29
882.402	-4.95
882.574	40.11
882.746	56.49
882.918	117.93
883.09	11.43
883.262	-9.05
883.434	124.07
883.606	-113.49
883.778	17.58
883.95	72.87
884.122	-17.24
884.293	54.44
884.465	44.2
884.637	115.88
884.809	1.19
884.98	60.59
885.152	60.59
885.324	-27.48
885.496	-27.48
885.667	15.53
885.839	-70.48
886.011	97.45
886.182	-15.19
886.354	64.68
886.525	7.34
886.697	21.67
886.869	-82.77
887.04	-84.82
887.212	21.67
887.383	187.56
887.555	33.96
887.726	-60.24
887.897	50.35
888.069	11.43
888.24	83.11
888.412	-31.57
888.583	1.19
888.754	-86.87
888.926	-47.96
889.097	36.01
889.268	-78.68
889.44	44.2
889.611	-60.24
889.782	-17.24
889.953	-121.68
890.125	85.16
890.296	-80.72
890.467	-66.39
890.638	-37.72
890.809	-27.48
890.98	-35.67
891.151	64.68
891.323	115.88
891.494	27.82
891.665	-2.9
891.836	-62.29
892.007	-17.24
892.178	-27.48
892.349	33.96
892.52	-43.86
892.691	-9.05
892.862	-11.09
893.032	-50
893.203	-13.14
893.374	40.11
893.545	46.25
893.716	-68.44
893.887	44.2
894.057	-52.05
894.228	29.87
894.399	-13.14
894.57	44.2
894.74	64.68
894.911	-19.29
895.082	-4.95
895.253	-78.68
895.423	-62.29
895.594	62.63
895.764	3.24
895.935	5.29
896.106	-31.57
896.276	38.06
896.447	-0.85
896.617	-105.3
896.788	-78.68
896.958	-4.95
897.129	-33.62
897.299	-103.25
897.47	13.48
897.64	79.02
897.81	-0.85
897.981	29.87
898.151	-60.24
898.322	101.55
898.492	15.53
898.662	-27.48
898.832	-52.05
899.003	-58.2
899.173	9.39
899.343	-125.78
899.513	-68.44
