Data from USB4F104151__208__11-05-43-629.txt Node

Date: Wed Feb 26 11:05:43 EST 2025
User: louis
Spectrometer: USB4F10415
Trigger mode: 4
Integration Time (sec): 1.000000E-1
Scans to average: 1
Electric dark correction enabled: true
Nonlinearity correction enabled: false
Boxcar width: 0
XAxis mode: Wavelengths
Number of Pixels in Spectrum: 3648
>>>>>Begin Spectral Data<<<<<
178.204	-365.39
178.424	-365.39
178.644	-365.39
178.864	-521.04
179.084	-398.16
179.304	-80.72
179.524	46.25
179.744	-23.38
179.964	76.97
180.184	-58.2
180.404	11.43
180.624	1.19
180.844	56.49
181.064	-86.87
181.283	25.77
181.503	50.35
181.723	-19.29
181.943	-142.16
182.163	109.74
182.383	-50
182.602	31.91
182.822	142.5
183.042	124.07
183.262	91.31
183.482	-17.24
183.701	-64.34
183.921	60.59
184.141	-19.29
184.361	58.54
184.58	27.82
184.8	31.91
185.02	-45.91
185.239	115.88
185.459	85.16
185.679	97.45
185.898	-121.68
186.118	40.11
186.338	40.11
186.557	138.41
186.777	-60.24
186.997	40.11
187.216	15.53
187.436	167.08
187.655	72.87
187.875	148.65
188.095	54.44
188.314	58.54
188.534	158.89
188.753	-29.52
188.973	44.2
189.192	109.74
189.412	54.44
189.631	52.39
189.851	83.11
190.07	187.56
190.29	-25.43
190.509	3.24
190.729	25.77
190.948	191.66
191.168	320.68
191.387	5.29
191.607	-17.24
191.826	-4.95
192.045	19.63
192.265	-21.33
192.484	48.3
192.704	66.73
192.923	-103.25
193.142	87.21
193.362	58.54
193.581	140.46
193.8	130.22
194.02	122.02
194.239	76.97
194.458	56.49
194.678	5.29
194.897	15.53
195.116	1.19
195.335	62.63
195.555	68.78
195.774	-29.52
195.993	142.5
196.212	42.15
196.432	9.39
196.651	122.02
196.87	21.67
197.089	263.33
197.308	95.4
197.528	97.45
197.747	-127.83
197.966	89.26
198.185	64.68
198.404	-27.48
198.623	27.82
198.842	154.79
199.062	142.5
199.281	138.41
199.5	76.97
199.719	72.87
199.938	21.67
200.157	44.2
200.376	97.45
200.595	25.77
200.814	169.13
201.033	-56.15
201.252	134.31
201.471	103.59
201.69	91.31
201.909	15.53
202.128	83.11
202.347	74.92
202.566	11.43
202.785	-82.77
203.004	17.58
203.223	199.85
203.442	83.11
203.661	-9.05
203.879	105.64
204.098	138.41
204.317	-19.29
204.536	50.35
204.755	70.83
204.974	124.07
205.193	-80.72
205.411	142.5
205.63	119.98
205.849	101.55
206.068	-4.95
206.287	-56.15
206.505	126.12
206.724	60.59
206.943	40.11
207.162	-21.33
207.381	36.01
207.599	29.87
207.818	-9.05
208.037	-31.57
208.255	-7
208.474	99.5
208.693	76.97
208.911	33.96
209.13	15.53
209.349	7.34
209.567	56.49
209.786	60.59
210.005	138.41
210.223	23.72
210.442	-140.12
210.661	-19.29
210.879	85.16
211.098	36.01
211.316	31.91
211.535	56.49
211.753	5.29
211.972	64.68
212.191	31.91
212.409	13.48
212.628	134.31
212.846	-17.24
213.065	23.72
213.283	183.46
213.502	79.02
213.72	162.98
213.938	-2.9
214.157	-9.05
214.375	99.5
214.594	83.11
214.812	-17.24
215.031	25.77
215.249	93.35
215.467	72.87
215.686	11.43
215.904	-11.09
216.122	40.11
216.341	183.46
216.559	50.35
216.778	81.07
216.996	142.5
217.214	-7
217.432	62.63
217.651	-4.95
217.869	66.73
218.087	74.92
218.306	7.34
218.524	52.39
218.742	66.73
218.96	119.98
219.179	-58.2
219.397	31.91
219.615	283.81
219.833	132.26
220.051	-95.06
220.27	167.08
220.488	85.16
220.706	83.11
220.924	-45.91
221.142	40.11
221.36	58.54
221.578	31.91
221.796	44.2
222.015	17.58
222.233	99.5
222.451	187.56
222.669	7.34
222.887	48.3
223.105	-17.24
223.323	29.87
223.541	31.91
223.759	15.53
223.977	70.83
224.195	140.46
224.413	124.07
224.631	17.58
224.849	107.69
225.067	175.27
225.285	-43.86
225.503	11.43
225.721	-82.77
225.939	42.15
226.157	23.72
226.375	259.24
226.592	23.72
226.81	21.67
227.028	91.31
227.246	140.46
227.464	64.68
227.682	66.73
227.9	128.17
228.117	58.54
228.335	105.64
228.553	48.3
228.771	19.63
228.989	27.82
229.206	109.74
229.424	9.39
229.642	-90.96
229.86	-95.06
230.077	68.78
230.295	44.2
230.513	154.79
230.731	175.27
230.948	158.89
231.166	152.74
231.384	46.25
231.601	-11.09
231.819	156.84
232.037	-7
232.254	-9.05
232.472	1.19
232.689	40.11
232.907	85.16
233.125	9.39
233.342	33.96
233.56	-41.81
233.777	-64.34
233.995	-45.91
234.213	130.22
234.43	189.61
234.648	60.59
234.865	11.43
235.083	21.67
235.3	1.19
235.518	7.34
235.735	44.2
235.953	83.11
236.17	74.92
236.388	15.53
236.605	31.91
236.822	81.07
237.04	93.35
237.257	50.35
237.475	-41.81
237.692	-0.85
237.909	62.63
238.127	-27.48
238.344	136.36
238.562	58.54
238.779	-21.33
238.996	-70.48
239.214	48.3
239.431	122.02
239.648	7.34
239.865	187.56
240.083	113.83
240.3	13.48
240.517	7.34
240.735	52.39
240.952	85.16
241.169	122.02
241.386	68.78
241.603	-29.52
241.821	5.29
242.038	76.97
242.255	58.54
242.472	-2.9
242.689	68.78
242.907	89.26
243.124	97.45
243.341	23.72
243.558	-56.15
243.775	-37.72
243.992	-88.92
244.209	91.31
244.426	220.33
244.643	25.77
244.86	70.83
245.078	19.63
245.295	109.74
245.512	36.01
245.729	-4.95
245.946	109.74
246.163	36.01
246.38	107.69
246.597	76.97
246.814	70.83
247.031	-39.76
247.248	-11.09
247.464	99.5
247.681	87.21
247.898	48.3
248.115	70.83
248.332	17.58
248.549	107.69
248.766	89.26
248.983	103.59
249.2	103.59
249.417	56.49
249.633	31.91
249.85	124.07
250.067	-2.9
250.284	42.15
250.501	79.02
250.717	126.12
250.934	-13.14
251.151	-11.09
251.368	119.98
251.585	31.91
251.801	52.39
252.018	-25.43
252.235	107.69
252.451	-13.14
252.668	-37.72
252.885	76.97
253.102	36.01
253.318	-101.2
253.535	-29.52
253.752	-78.68
253.968	-39.76
254.185	-70.48
254.401	99.5
254.618	68.78
254.835	36.01
255.051	91.31
255.268	117.93
255.484	115.88
255.701	-52.05
255.917	68.78
256.134	-29.52
256.351	64.68
256.567	-43.86
256.784	48.3
257	-31.57
257.217	105.64
257.433	134.31
257.65	60.59
257.866	122.02
258.082	-113.49
258.299	-64.34
258.515	36.01
258.732	-29.52
258.948	23.72
259.165	7.34
259.381	-33.62
259.597	54.44
259.814	-11.09
260.03	-2.9
260.246	23.72
260.463	56.49
260.679	162.98
260.895	13.48
261.112	-21.33
261.328	64.68
261.544	-4.95
261.761	212.14
261.977	-13.14
262.193	-56.15
262.409	122.02
262.626	3.24
262.842	13.48
263.058	-39.76
263.274	122.02
263.49	7.34
263.707	93.35
263.923	103.59
264.139	-60.24
264.355	101.55
264.571	81.07
264.787	70.83
265.004	81.07
265.22	19.63
265.436	-37.72
265.652	56.49
265.868	52.39
266.084	-7
266.3	54.44
266.516	-15.19
266.732	46.25
266.948	-9.05
267.164	-33.62
267.38	36.01
267.596	117.93
267.812	187.56
268.028	64.68
268.244	66.73
268.46	-7
268.676	-23.38
268.892	64.68
269.108	-19.29
269.324	1.19
269.54	3.24
269.756	36.01
269.972	-43.86
270.188	33.96
270.403	-50
270.619	38.06
270.835	105.64
271.051	-43.86
271.267	56.49
271.483	-17.24
271.698	124.07
271.914	148.65
272.13	5.29
272.346	13.48
272.562	46.25
272.777	146.6
272.993	60.59
273.209	17.58
273.425	142.5
273.64	-70.48
273.856	91.31
274.072	-23.38
274.287	44.2
274.503	101.55
274.719	19.63
274.934	23.72
275.15	-15.19
275.366	95.4
275.581	52.39
275.797	-9.05
276.012	79.02
276.228	50.35
276.444	5.29
276.659	136.36
276.875	-0.85
277.09	27.82
277.306	38.06
277.521	111.78
277.737	-9.05
277.952	109.74
278.168	56.49
278.383	99.5
278.599	9.39
278.814	99.5
279.03	-11.09
279.245	79.02
279.461	58.54
279.676	76.97
279.892	-52.05
280.107	-86.87
280.322	-15.19
280.538	23.72
280.753	5.29
280.969	40.11
281.184	64.68
281.399	126.12
281.615	-9.05
281.83	66.73
282.045	-93.01
282.26	17.58
282.476	-19.29
282.691	76.97
282.906	1.19
283.122	-11.09
283.337	29.87
283.552	-21.33
283.767	66.73
283.983	148.65
284.198	17.58
284.413	115.88
284.628	-45.91
284.843	81.07
285.058	124.07
285.274	38.06
285.489	23.72
285.704	165.03
285.919	-58.2
286.134	54.44
286.349	25.77
286.564	11.43
286.779	132.26
286.995	-19.29
287.21	-84.82
287.425	58.54
287.64	-9.05
287.855	-7
288.07	-76.63
288.285	148.65
288.5	93.35
288.715	93.35
288.93	3.24
289.145	-27.48
289.36	99.5
289.575	21.67
289.79	103.59
290.004	103.59
290.219	150.7
290.434	-13.14
290.649	-2.9
290.864	-21.33
291.079	-27.48
291.294	42.15
291.509	56.49
291.724	62.63
291.938	-37.72
292.153	-33.62
292.368	11.43
292.583	44.2
292.798	87.21
293.012	76.97
293.227	50.35
293.442	64.68
293.657	126.12
293.871	105.64
294.086	56.49
294.301	210.09
294.516	113.83
294.73	95.4
294.945	-54.1
295.16	-0.85
295.374	60.59
295.589	81.07
295.804	70.83
296.018	38.06
296.233	134.31
296.447	97.45
296.662	27.82
296.877	66.73
297.091	74.92
297.306	52.39
297.52	3.24
297.735	83.11
297.949	76.97
298.164	44.2
298.378	5.29
298.593	1.19
298.807	-37.72
299.022	126.12
299.236	195.75
299.451	-19.29
299.665	5.29
299.88	11.43
300.094	64.68
300.309	79.02
300.523	-47.96
300.737	-43.86
300.952	38.06
301.166	158.89
301.381	-19.29
301.595	38.06
301.809	87.21
302.024	-17.24
302.238	25.77
302.452	109.74
302.667	9.39
302.881	109.74
303.095	7.34
303.309	29.87
303.524	9.39
303.738	76.97
303.952	33.96
304.166	68.78
304.381	-19.29
304.595	62.63
304.809	-62.29
305.023	54.44
305.237	27.82
305.452	25.77
305.666	50.35
305.88	85.16
306.094	111.78
306.308	56.49
306.522	105.64
306.736	15.53
306.95	128.17
307.164	27.82
307.379	3.24
307.593	122.02
307.807	56.49
308.021	44.2
308.235	21.67
308.449	-95.06
308.663	1.19
308.877	212.14
309.091	56.49
309.305	93.35
309.519	-76.63
309.733	132.26
309.947	-7
310.161	56.49
310.374	107.69
310.588	87.21
310.802	-29.52
311.016	-45.91
311.23	48.3
311.444	-43.86
311.658	5.29
311.872	128.17
312.085	103.59
312.299	167.08
312.513	99.5
312.727	-41.81
312.941	3.24
313.154	83.11
313.368	27.82
313.582	54.44
313.796	117.93
314.009	7.34
314.223	134.31
314.437	150.7
314.651	95.4
314.864	9.39
315.078	19.63
315.292	-86.87
315.505	33.96
315.719	46.25
315.933	40.11
316.146	-19.29
316.36	-58.2
316.573	60.59
316.787	115.88
317.001	81.07
317.214	13.48
317.428	109.74
317.641	-0.85
317.855	1.19
318.068	11.43
318.282	70.83
318.495	167.08
318.709	27.82
318.922	-21.33
319.136	189.61
319.349	117.93
319.563	-52.05
319.776	109.74
319.99	-70.48
320.203	79.02
320.417	25.77
320.63	83.11
320.843	230.57
321.057	83.11
321.27	31.91
321.483	-4.95
321.697	165.03
321.91	60.59
322.124	9.39
322.337	119.98
322.55	19.63
322.763	7.34
322.977	97.45
323.19	-39.76
323.403	48.3
323.617	95.4
323.83	48.3
324.043	42.15
324.256	-4.95
324.469	-82.77
324.683	126.12
324.896	70.83
325.109	54.44
325.322	11.43
325.535	140.46
325.748	126.12
325.962	33.96
326.175	13.48
326.388	-2.9
326.601	169.13
326.814	-41.81
327.027	64.68
327.24	68.78
327.453	7.34
327.666	50.35
327.879	109.74
328.092	64.68
328.305	33.96
328.518	85.16
328.731	-43.86
328.944	93.35
329.157	124.07
329.37	-33.62
329.583	154.79
329.796	158.89
330.009	-31.57
330.222	113.83
330.435	79.02
330.648	79.02
330.861	76.97
331.073	7.34
331.286	85.16
331.499	58.54
331.712	17.58
331.925	36.01
332.138	40.11
332.35	107.69
332.563	-58.2
332.776	83.11
332.989	13.48
333.202	-11.09
333.414	58.54
333.627	44.2
333.84	-43.86
334.053	74.92
334.265	11.43
334.478	-23.38
334.691	29.87
334.903	76.97
335.116	5.29
335.329	11.43
335.541	95.4
335.754	177.32
335.966	-23.38
336.179	23.72
336.392	64.68
336.604	-4.95
336.817	89.26
337.029	58.54
337.242	5.29
337.454	91.31
337.667	81.07
337.88	199.85
338.092	87.21
338.305	60.59
338.517	66.73
338.729	158.89
338.942	115.88
339.154	-19.29
339.367	-56.15
339.579	64.68
339.792	-84.82
340.004	54.44
340.217	38.06
340.429	19.63
340.641	-70.48
340.854	-31.57
341.066	5.29
341.278	193.7
341.491	210.09
341.703	19.63
341.915	-43.86
342.128	113.83
342.34	74.92
342.552	-13.14
342.764	50.35
342.977	36.01
343.189	81.07
343.401	97.45
343.613	-58.2
343.826	31.91
344.038	-54.1
344.25	66.73
344.462	33.96
344.674	111.78
344.886	54.44
345.099	101.55
345.311	62.63
345.523	36.01
345.735	-150.36
345.947	11.43
346.159	76.97
346.371	-29.52
346.583	1.19
346.795	60.59
347.007	-33.62
347.219	52.39
347.431	23.72
347.643	99.5
347.855	11.43
348.067	130.22
348.279	-41.81
348.491	-9.05
348.703	62.63
348.915	5.29
349.127	19.63
349.339	79.02
349.551	-21.33
349.763	132.26
349.975	56.49
350.187	130.22
350.399	154.79
350.61	-0.85
350.822	11.43
351.034	89.26
351.246	60.59
351.458	-13.14
351.669	87.21
351.881	93.35
352.093	183.46
352.305	171.18
352.517	68.78
352.728	81.07
352.94	9.39
353.152	68.78
353.363	-0.85
353.575	74.92
353.787	208.04
353.999	36.01
354.21	107.69
354.422	-37.72
354.633	3.24
354.845	124.07
355.057	23.72
355.268	42.15
355.48	68.78
355.692	13.48
355.903	19.63
356.115	-0.85
356.326	-78.68
356.538	154.79
356.749	60.59
356.961	132.26
357.172	15.53
357.384	3.24
357.595	212.14
357.807	-31.57
358.018	-17.24
358.23	44.2
358.441	162.98
358.653	60.59
358.864	-47.96
359.075	42.15
359.287	72.87
359.498	74.92
359.709	76.97
359.921	1.19
360.132	70.83
360.344	27.82
360.555	27.82
360.766	87.21
360.977	-9.05
361.189	56.49
361.4	38.06
361.611	181.42
361.823	185.51
362.034	42.15
362.245	-78.68
362.456	5.29
362.667	140.46
362.879	-27.48
363.09	9.39
363.301	40.11
363.512	50.35
363.723	-17.24
363.935	64.68
364.146	89.26
364.357	19.63
364.568	97.45
364.779	-60.24
364.99	140.46
365.201	-66.39
365.412	122.02
365.623	-37.72
365.834	54.44
366.045	124.07
366.256	101.55
366.467	142.5
366.678	19.63
366.889	27.82
367.1	-25.43
367.311	58.54
367.522	-41.81
367.733	50.35
367.944	48.3
368.155	-76.63
368.366	111.78
368.577	62.63
368.788	144.55
368.999	-2.9
369.209	52.39
369.42	177.32
369.631	191.66
369.842	48.3
370.053	23.72
370.264	122.02
370.474	-84.82
370.685	46.25
370.896	54.44
371.107	154.79
371.317	58.54
371.528	132.26
371.739	66.73
371.95	83.11
372.16	9.39
372.371	-37.72
372.582	-7
372.792	99.5
373.003	21.67
373.214	103.59
373.424	146.6
373.635	-103.25
373.846	169.13
374.056	81.07
374.267	64.68
374.477	95.4
374.688	31.91
374.898	85.16
375.109	48.3
375.319	23.72
375.53	126.12
375.74	29.87
375.951	50.35
376.161	74.92
376.372	160.94
376.582	-56.15
376.793	68.78
377.003	3.24
377.214	-7
377.424	62.63
377.635	93.35
377.845	60.59
378.055	185.51
378.266	-17.24
378.476	29.87
378.686	74.92
378.897	25.77
379.107	109.74
379.317	62.63
379.528	66.73
379.738	185.51
379.948	-56.15
380.158	17.58
380.369	44.2
380.579	79.02
380.789	31.91
380.999	58.54
381.21	89.26
381.42	205.99
381.63	95.4
381.84	132.26
382.05	117.93
382.261	148.65
382.471	87.21
382.681	-82.77
382.891	167.08
383.101	54.44
383.311	13.48
383.521	5.29
383.731	72.87
383.941	101.55
384.151	107.69
384.361	79.02
384.571	56.49
384.781	50.35
384.991	191.66
385.201	107.69
385.411	42.15
385.621	95.4
385.831	-33.62
386.041	33.96
386.251	89.26
386.461	160.94
386.671	-39.76
386.881	54.44
387.091	27.82
387.301	117.93
387.511	3.24
387.72	79.02
387.93	76.97
388.14	-56.15
388.35	95.4
388.56	173.22
388.769	218.28
388.979	5.29
389.189	9.39
389.399	105.64
389.609	134.31
389.818	122.02
390.028	105.64
390.238	42.15
390.447	36.01
390.657	25.77
390.867	85.16
391.076	-29.52
391.286	-2.9
391.496	25.77
391.705	7.34
391.915	115.88
392.125	124.07
392.334	64.68
392.544	156.84
392.753	23.72
392.963	-43.86
393.172	-17.24
393.382	27.82
393.591	142.5
393.801	48.3
394.01	150.7
394.22	93.35
394.429	-35.67
394.639	3.24
394.848	31.91
395.058	31.91
395.267	1.19
395.477	38.06
395.686	99.5
395.895	265.38
396.105	267.43
396.314	60.59
396.524	107.69
396.733	79.02
396.942	183.46
397.152	113.83
397.361	111.78
397.57	68.78
397.78	27.82
397.989	38.06
398.198	234.66
398.407	93.35
398.617	9.39
398.826	117.93
399.035	9.39
399.244	81.07
399.453	7.34
399.663	87.21
399.872	46.25
400.081	-11.09
400.29	150.7
400.499	-13.14
400.708	48.3
400.917	25.77
401.127	74.92
401.336	-29.52
401.545	119.98
401.754	105.64
401.963	115.88
402.172	-4.95
402.381	-19.29
402.59	5.29
402.799	62.63
403.008	68.78
403.217	99.5
403.426	46.25
403.635	-80.72
403.844	1.19
404.053	-0.85
404.262	13.48
404.471	99.5
404.68	105.64
404.888	93.35
405.097	42.15
405.306	54.44
405.515	152.74
405.724	27.82
405.933	183.46
406.142	130.22
406.35	142.5
406.559	-0.85
406.768	134.31
406.977	103.59
407.185	-27.48
407.394	136.36
407.603	-33.62
407.812	83.11
408.02	208.04
408.229	42.15
408.438	36.01
408.646	-74.58
408.855	25.77
409.064	46.25
409.272	60.59
409.481	91.31
409.69	17.58
409.898	42.15
410.107	85.16
410.315	38.06
410.524	36.01
410.733	9.39
410.941	-7
411.15	60.59
411.358	119.98
411.567	91.31
411.775	99.5
411.984	21.67
412.192	-11.09
412.401	21.67
412.609	169.13
412.818	193.7
413.026	89.26
413.234	64.68
413.443	42.15
413.651	19.63
413.86	54.44
414.068	197.8
414.276	138.41
414.485	13.48
414.693	169.13
414.901	175.27
415.11	58.54
415.318	83.11
415.526	5.29
415.734	91.31
415.943	74.92
416.151	158.89
416.359	-9.05
416.567	66.73
416.776	113.83
416.984	83.11
417.192	103.59
417.4	19.63
417.608	-47.96
417.817	48.3
418.025	181.42
418.233	130.22
418.441	-4.95
418.649	-27.48
418.857	3.24
419.065	140.46
419.273	23.72
419.481	38.06
419.689	25.77
419.897	44.2
420.105	-58.2
420.313	128.17
420.521	181.42
420.729	115.88
420.937	5.29
421.145	-33.62
421.353	138.41
421.561	128.17
421.769	195.75
421.977	15.53
422.185	216.23
422.393	-0.85
422.601	171.18
422.809	87.21
423.017	60.59
423.224	97.45
423.432	158.89
423.64	52.39
423.848	103.59
424.056	-47.96
424.263	113.83
424.471	5.29
424.679	158.89
424.887	-9.05
425.094	144.55
425.302	122.02
425.51	68.78
425.718	103.59
425.925	64.68
426.133	38.06
426.341	228.52
426.548	113.83
426.756	103.59
426.964	109.74
427.171	97.45
427.379	119.98
427.586	126.12
427.794	181.42
428.001	142.5
428.209	148.65
428.417	173.22
428.624	150.7
428.832	113.83
429.039	105.64
429.247	-29.52
429.454	152.74
429.662	187.56
429.869	126.12
430.076	246.95
430.284	156.84
430.491	285.86
430.699	46.25
430.906	214.18
431.114	132.26
431.321	142.5
431.528	109.74
431.736	236.71
431.943	193.7
432.15	242.85
432.358	191.66
432.565	300.2
432.772	52.39
432.979	197.8
433.187	79.02
433.394	208.04
433.601	103.59
433.808	240.81
434.016	294.05
434.223	244.9
434.43	261.29
434.637	210.09
434.844	244.9
435.052	232.62
435.259	263.33
435.466	259.24
435.673	292.01
435.88	359.59
436.087	257.19
436.294	304.29
436.501	269.48
436.708	314.53
436.915	322.73
437.122	394.4
437.329	234.66
437.537	316.58
437.743	445.6
437.95	548
438.157	369.83
438.364	337.06
438.571	478.37
438.778	443.56
438.985	472.23
439.192	498.85
439.399	433.32
439.606	474.28
439.813	613.54
440.02	578.72
440.227	627.87
440.433	652.45
440.64	586.91
440.847	586.91
441.054	580.77
441.261	748.7
441.467	650.4
441.674	634.02
441.881	801.95
442.088	681.12
442.294	795.81
442.501	763.04
442.708	844.96
442.914	879.77
443.121	816.29
443.328	873.63
443.534	1002.65
443.741	1000.6
443.948	912.54
444.154	1029.27
444.361	1236.12
444.568	1080.47
444.774	1131.67
444.981	1080.47
445.187	1193.11
445.394	1330.33
445.6	1133.72
445.807	1436.82
446.013	1379.48
446.22	1299.61
446.426	1469.59
446.633	1485.97
446.839	1830.03
447.046	1404.05
447.252	1823.89
447.459	1631.38
447.665	1827.98
447.871	1944.72
448.078	2043.02
448.284	1963.15
448.491	2210.95
448.697	2229.38
448.903	2243.72
449.11	2319.5
449.316	2270.34
449.522	2544.77
449.728	2579.59
449.935	2575.49
450.141	2595.97
450.347	2946.17
450.553	2727.04
450.76	2940.03
450.966	3062.91
451.172	3118.2
451.378	3279.99
451.584	3298.42
451.791	3648.63
451.997	3662.96
452.203	3646.58
452.409	4146.28
452.615	4109.42
452.821	3955.82
453.027	4138.09
453.233	4443.24
453.44	4291.69
453.646	4703.33
453.852	4815.97
454.058	5119.07
454.264	5137.5
454.47	5614.68
454.676	5590.1
454.882	5966.93
455.088	5919.82
455.294	6163.53
455.5	6542.41
455.705	7019.58
455.911	6995.01
456.117	7091.26
456.323	7279.68
456.529	7310.4
456.735	8088.62
456.941	8301.61
457.147	8434.73
457.352	8883.24
457.558	9159.71
457.764	9571.35
457.97	9903.12
458.176	10011.67
458.381	10705.93
458.587	11107.33
458.793	11363.33
458.999	11439.1
459.204	12690.41
459.41	13061.09
459.616	13011.94
459.821	14015.44
460.027	14539.72
460.233	15303.62
460.438	15127.49
460.644	16186.29
460.85	16014.26
461.055	16880.55
461.261	17669.02
461.466	17439.65
461.672	17671.07
461.878	19909.5
462.083	19270.53
462.289	19774.33
462.494	20747.12
462.7	20747.12
462.905	21349.22
463.111	23036.75
463.316	24097.59
463.522	24474.42
463.727	25322.28
463.932	26114.84
464.138	26981.13
464.343	28158.72
464.549	27951.87
464.754	30241.5
464.959	30825.17
465.165	31564.49
465.37	31517.39
465.575	31146.7
465.781	33559.21
465.986	34419.36
466.191	33884.84
466.397	34384.54
466.602	33637.03
466.807	35609.23
467.012	36225.67
467.218	36457.09
467.423	36665.98
467.628	37360.24
467.833	39549.52
468.038	38707.8
468.244	38023.78
468.449	40284.74
468.654	39455.31
468.859	39223.89
469.064	39111.25
469.269	38249.06
469.474	38492.77
469.679	39791.18
469.885	38531.68
470.09	39146.07
470.295	39072.34
470.5	38261.35
470.705	38687.32
470.91	37589.61
471.115	37253.75
471.32	38144.61
471.525	37030.52
471.73	36579.96
471.935	36196.99
472.139	34767.51
472.344	34874.01
472.549	34405.02
472.754	33780.39
472.959	33071.79
473.164	32225.98
473.369	31308.49
473.574	32449.21
473.778	31853.25
473.983	31668.94
474.188	30593.75
474.393	29274.86
474.598	29270.76
474.802	28764.92
475.007	28429.05
475.212	27632.39
475.417	26710.8
475.621	26745.62
475.826	26082.08
476.031	25508.65
476.235	25248.55
476.44	25154.35
476.645	24390.45
476.849	24163.13
477.054	24113.98
477.259	22831.95
477.463	23399.24
477.668	22385.49
477.872	22747.98
478.077	21691.23
478.282	21265.25
478.486	21031.79
478.691	20874.09
478.895	20640.62
479.1	20570.99
479.304	20579.18
479.509	19798.91
479.713	20274.04
479.918	19381.12
480.122	19151.75
480.326	19268.48
480.531	19344.26
480.735	18930.57
480.94	18684.81
481.144	19368.84
481.348	18410.39
481.553	18457.49
481.757	17677.21
481.961	18389.91
482.166	18250.64
482.37	18008.98
482.574	17628.06
482.778	17451.94
482.983	17652.64
483.187	17537.95
483.391	17271.72
483.595	17034.15
483.8	16884.65
484.004	16898.98
484.208	16798.63
484.412	16546.73
484.616	16563.12
484.821	16169.91
485.025	15596.48
485.229	15922.1
485.433	15676.35
485.637	15446.97
485.841	15098.82
486.045	14939.08
486.249	14750.67
486.453	14515.15
486.657	14400.46
486.861	14177.23
487.065	13622.23
487.269	13491.16
487.473	13153.25
487.677	13171.68
487.881	13276.13
488.085	12794.86
488.289	12784.62
488.493	12252.14
488.697	12493.8
488.901	12375.02
489.105	11940.85
489.309	11772.92
489.512	11584.51
489.716	11158.53
489.92	10992.64
490.124	10839.05
490.328	10925.06
490.531	10480.65
490.735	10529.8
490.939	10218.51
491.143	9798.68
491.346	9647.13
491.55	9731.09
491.754	9380.89
491.958	9436.19
492.161	9317.4
492.365	9045.02
492.569	8829.99
492.772	8934.43
492.976	8920.1
493.18	8617
493.383	8526.89
493.587	8600.62
493.79	8404.01
493.994	8168.49
494.197	8137.77
494.401	7957.55
494.605	7949.36
494.808	7912.5
495.012	7867.44
495.215	7846.96
495.419	8127.53
495.622	7523.38
495.825	7552.06
496.029	7656.5
496.232	7691.32
496.436	7687.22
496.639	7711.8
496.843	7521.34
497.046	7574.58
497.249	7623.73
497.453	7511.1
497.656	7494.71
497.859	7621.69
498.063	7580.73
498.266	7521.34
498.469	7449.66
498.673	7517.24
498.876	7676.98
499.079	7758.9
499.282	7699.51
499.485	7928.88
499.689	7879.73
499.892	7971.89
500.095	7814.2
500.298	7978.03
500.501	7912.5
500.705	8246.32
500.908	8121.39
501.111	8139.82
501.314	8213.55
501.517	8459.31
501.72	8358.96
501.923	8580.14
502.126	8612.9
502.329	8809.51
502.532	8811.56
502.735	8989.73
502.938	9049.12
503.141	9010.21
503.344	9350.17
503.547	9358.36
503.75	9438.23
503.953	9759.77
504.156	9690.13
504.359	9917.46
504.562	9946.13
504.765	10265.61
504.968	10333.2
505.17	10443.79
505.373	10675.21
505.576	11006.98
505.779	11070.47
505.982	11043.84
506.185	11430.91
506.387	11736.06
506.59	11744.25
506.793	12018.68
506.996	12325.87
507.198	12784.62
507.401	12817.38
507.604	12987.36
507.807	13384.67
508.009	13317.09
508.212	13652.95
508.415	13974.49
508.617	14101.46
508.82	14359.5
509.022	14650.32
509.225	15184.83
509.428	15424.45
509.63	15821.75
509.833	15772.6
510.035	16647.08
510.238	16630.7
510.44	17169.32
510.643	17679.26
510.845	17941.4
511.048	18097.05
511.25	18531.22
511.453	18830.22
511.655	19532.67
511.858	20095.86
512.06	20421.49
512.262	20845.42
512.465	21283.69
512.667	21533.54
512.87	22170.46
513.072	22313.81
513.274	23102.28
513.477	23855.93
513.679	24068.92
513.881	24775.47
514.084	25309.99
514.286	25717.54
514.488	26190.62
514.69	27536.13
514.893	27706.12
515.095	28107.52
515.297	28615.41
515.499	29084.4
515.701	29919.97
515.904	30563.03
516.106	31468.23
516.308	31713.99
516.51	32211.65
516.712	32930.48
516.914	33620.65
517.116	34865.81
517.318	34831
517.52	35230.35
517.722	36027.01
517.925	36795
518.127	37450.35
518.329	38543.97
518.531	37892.71
518.733	39545.42
518.935	40227.4
519.136	40337.99
519.338	41486.9
519.54	42074.66
519.742	42510.88
519.944	43192.86
520.146	43760.14
520.348	44327.43
520.55	45015.55
520.752	45560.31
520.954	45935.09
521.155	46379.49
521.357	47092.19
521.559	47401.43
521.761	48052.69
521.963	48437.7
522.164	49158.59
522.366	49107.39
522.568	49689.01
522.77	50166.19
522.971	50481.58
523.173	50221.48
523.375	50831.78
523.576	50839.97
523.778	51497.37
523.98	52078.99
524.181	52310.41
524.383	51970.45
524.584	52502.92
524.786	52617.61
524.988	52089.23
525.189	52631.94
525.391	53062.02
525.592	52732.29
525.794	52873.6
525.995	52562.31
526.197	52576.65
526.398	52310.41
526.6	52666.76
526.801	52369.8
527.003	52296.08
527.204	52134.29
527.406	52365.71
527.607	51777.94
527.808	52009.36
528.01	50786.72
528.211	51130.78
528.412	51634.58
528.614	50799.01
528.815	50471.34
529.016	50368.94
529.218	49813.94
529.419	49367.48
529.62	48976.32
529.822	48638.4
530.023	48030.16
530.224	47679.96
530.425	47026.65
530.626	46313.96
530.828	45742.58
531.029	46393.83
531.23	45326.84
531.431	44444.16
531.632	44280.33
531.833	43737.62
532.035	42971.67
532.236	42287.65
532.437	42398.24
532.638	41558.58
532.839	40944.19
533.04	40905.27
533.241	39647.82
533.442	40159.81
533.643	39348.82
533.844	38662.75
534.045	38558.3
534.246	37761.64
534.447	37343.86
534.648	36399.74
534.849	36430.46
535.05	35506.83
535.251	35316.37
535.451	34996.88
535.652	34579.1
535.853	33768.1
536.054	33671.85
536.255	33395.37
536.456	32381.63
536.657	32572.09
536.857	31236.81
537.058	30872.28
537.259	30806.74
537.46	30393.05
537.66	29844.2
537.861	29680.36
538.062	29121.26
538.263	29139.69
538.463	28283.64
538.664	28171
538.865	27769.6
539.065	27869.95
539.266	26823.44
539.466	26979.09
539.667	26413.85
539.868	26448.66
540.068	25918.24
540.269	25598.76
540.469	25279.27
540.67	24841.01
540.87	24482.61
541.071	23944
541.271	23896.89
541.472	23737.15
541.672	23458.63
541.873	23182.15
542.073	22727.5
542.274	23169.87
542.474	22424.4
542.675	22086.49
542.875	21934.94
543.075	21775.2
543.276	21214.05
543.476	21283.69
543.676	20978.54
543.877	20669.3
544.077	20401.01
544.277	20358
544.478	19905.4
544.678	19821.44
544.878	19557.25
545.078	19401.6
545.279	19067.78
545.479	18533.26
545.679	18617.23
545.879	18250.64
546.079	18303.89
546.28	17888.15
546.48	17572.77
546.68	17738.65
546.88	17343.39
547.08	17281.95
547.28	17030.05
547.48	16653.23
547.68	16581.55
547.88	16376.75
548.081	16255.92
548.281	15967.16
548.481	15649.72
548.681	15619
548.881	15475.65
549.081	15410.11
549.28	15008.71
549.48	14867.4
549.68	14705.61
549.88	14396.37
550.08	14074.84
550.28	14076.88
550.48	13714.39
550.68	13814.74
550.88	13593.56
551.08	13312.99
551.279	13446.11
551.479	12674.03
551.679	12815.34
551.879	12487.66
552.079	12250.1
552.278	12188.66
552.478	12366.83
552.678	11817.97
552.878	11635.71
553.077	11490.3
553.277	11054.08
553.477	11418.62
553.676	11004.93
553.876	10923.01
554.076	10425.36
554.275	10630.15
554.475	10148.88
554.674	10159.12
554.874	10030.1
555.074	9655.32
555.273	9833.49
555.473	9444.38
555.672	9192.48
555.872	9135.14
556.071	9128.99
556.271	9018.4
556.47	8813.6
556.67	8541.22
556.869	8391.72
557.068	8248.36
557.268	8055.86
557.467	8105.01
557.667	7885.87
557.866	7756.85
558.065	7625.78
558.265	7601.21
558.464	7287.87
558.663	7468.09
558.863	7171.13
559.062	7304.25
559.261	6952
559.461	7183.42
559.66	6749.25
559.859	6384.71
560.058	6491.21
560.258	6284.36
560.457	6276.17
560.656	6384.71
560.855	6001.74
561.054	6214.73
561.253	5938.26
561.453	5977.17
561.652	5813.33
561.851	5903.44
562.05	5471.32
562.249	5348.44
562.448	5452.89
562.647	5102.68
562.846	5309.53
563.045	5211.23
563.244	5084.25
563.443	5061.73
563.642	4881.5
563.841	4967.52
564.04	4674.66
564.239	4711.52
564.438	4617.32
564.637	4488.29
564.836	4463.72
565.035	4435.05
565.234	4453.48
565.432	4330.6
565.631	4279.4
565.83	4195.43
566.029	4168.81
566.228	4195.43
566.427	4117.61
566.625	3945.58
566.824	3880.05
567.023	3832.94
567.222	3808.37
567.42	3779.7
567.619	3634.29
567.818	3669.11
568.016	3734.64
568.215	3595.38
568.414	3619.96
568.612	3492.98
568.811	3355.77
569.01	3298.42
569.208	3155.07
569.407	3431.54
569.605	3175.55
569.804	3296.38
570.002	3249.27
570.201	3024
570.4	3001.47
570.598	2954.37
570.797	2942.08
570.995	2790.53
571.193	2864.25
571.392	2890.88
571.59	2727.04
571.789	2716.8
571.987	2823.3
572.186	2827.39
572.384	2575.49
572.582	2602.11
572.781	2675.84
572.979	2417.8
573.177	2483.33
573.376	2411.65
573.574	2495.62
573.772	2360.45
573.971	2167.95
574.169	2186.38
574.367	2296.97
574.565	2219.14
574.763	2114.7
574.962	2110.6
575.16	2112.65
575.358	2020.49
575.556	2163.85
575.754	2100.36
575.952	1957
576.151	1979.53
576.349	2024.59
576.547	1817.74
576.745	1727.63
576.943	1885.33
577.141	1772.69
577.339	1668.24
577.537	1739.92
577.735	1746.06
577.933	1649.81
578.131	1590.42
578.329	1674.39
578.527	1543.32
578.725	1567.89
578.923	1461.4
579.121	1662.1
579.319	1426.58
579.516	1324.18
579.714	1614.99
579.912	1539.22
580.11	1297.56
580.308	1436.82
580.506	1326.23
580.704	1258.65
580.901	1295.51
581.099	1420.44
581.297	1260.7
581.495	1264.79
581.692	1295.51
581.89	1352.85
582.088	1203.35
582.285	1195.16
582.483	1150.11
582.681	1039.51
582.878	1234.07
583.076	1121.43
583.274	1103
583.471	1244.31
583.669	1146.01
583.866	894.11
584.064	1014.94
584.262	879.77
584.459	994.46
584.657	982.17
584.854	1041.56
585.052	976.03
585.249	928.92
585.447	912.54
585.644	855.2
585.841	1035.42
586.039	904.35
586.236	1064.09
586.434	887.97
586.631	867.49
586.828	812.19
587.026	847.01
587.223	801.95
587.42	781.47
587.618	863.39
587.815	865.44
588.012	847.01
588.21	791.71
588.407	926.88
588.604	767.13
588.801	746.66
588.999	695.46
589.196	781.47
589.393	701.6
589.59	730.27
589.787	783.52
589.984	785.57
590.182	779.42
590.379	650.4
590.576	689.31
590.773	777.37
590.97	656.54
591.167	726.18
591.364	666.78
591.561	677.02
591.758	871.58
591.955	765.09
592.152	670.88
592.349	619.68
592.546	672.93
592.743	599.2
592.94	713.89
593.137	709.79
593.334	679.07
593.531	744.61
593.727	681.12
593.924	720.03
594.121	545.95
594.318	674.98
594.515	832.67
594.712	767.13
594.908	763.04
595.105	578.72
595.302	715.94
595.499	621.73
595.696	926.88
595.892	715.94
596.089	844.96
596.286	752.8
596.482	902.3
596.679	797.85
596.876	748.7
597.072	933.02
597.269	855.2
597.466	1004.7
597.662	871.58
597.859	777.37
598.055	916.64
598.252	961.69
598.448	1043.61
598.645	1143.96
598.841	1105.05
599.038	1070.23
599.234	1209.5
599.431	1240.22
599.627	1299.61
599.824	1361.05
600.02	1305.75
600.217	1287.32
600.413	1436.82
600.609	1457.3
600.806	1631.38
601.002	1619.09
601.198	1686.67
601.395	1692.82
601.591	1815.69
601.787	1768.59
601.984	2016.4
602.18	2028.68
602.376	2032.78
602.572	2262.15
602.769	2215.05
602.965	2339.97
603.161	2411.65
603.357	2524.29
603.553	2675.84
603.75	2534.53
603.946	2657.41
604.142	2761.86
604.338	3007.61
604.534	2995.32
604.73	3128.44
604.926	3191.93
605.122	3226.75
605.318	3279.99
605.514	3515.51
605.71	3482.74
605.906	3548.28
606.102	3695.73
606.298	4058.22
606.494	4074.6
606.69	4179.05
606.886	4123.76
607.082	4295.79
607.278	4361.32
607.474	4582.5
607.67	4820.07
607.866	4707.43
608.062	4992.09
608.257	5053.53
608.453	5223.51
608.649	5321.82
608.845	5450.84
609.041	5495.89
609.236	5680.21
609.432	5878.86
609.628	6263.88
609.824	6313.03
610.019	6358.09
610.215	6556.74
610.411	6808.64
610.606	6882.37
610.802	7011.39
610.998	7531.58
611.193	7500.86
611.389	7730.23
611.584	8023.09
611.78	7861.3
611.976	8377.39
612.171	8670.25
612.367	9038.88
612.562	8973.35
612.758	9286.68
612.953	9294.88
613.149	9794.58
613.344	9663.51
613.539	10241.04
613.735	10431.5
613.93	10767.37
614.126	10841.09
614.321	11420.67
614.517	11645.94
614.712	11844.6
614.907	12184.56
615.103	12495.85
615.298	12753.9
615.493	13054.95
615.688	13222.88
615.884	13687.77
616.079	13786.07
616.274	14590.92
616.47	14810.06
616.665	15031.24
616.86	15565.76
617.055	15754.17
617.25	16245.68
617.445	16735.15
617.641	16946.09
617.836	17519.52
618.031	17646.49
618.226	18402.19
618.421	18604.94
618.616	19276.68
618.811	19409.79
619.006	20374.39
619.201	20128.63
619.396	20874.09
619.591	20953.96
619.786	22014.81
619.981	21953.37
620.176	23063.37
620.371	23204.68
620.566	23434.05
620.761	24048.44
620.956	24681.27
621.151	25152.3
621.346	25668.39
621.541	25662.24
621.735	26712.85
621.93	26651.41
622.125	27419.4
622.32	27446.02
622.515	28410.62
622.709	28797.68
622.904	29586.15
623.099	29881.06
623.294	30794.45
623.488	30591.7
623.683	31482.57
623.878	31533.77
624.072	32512.7
624.267	32670.39
624.462	33450.67
624.656	33434.28
624.851	33995.43
625.046	34587.29
625.24	35140.24
625.435	35609.23
625.629	35951.24
625.824	36395.65
626.018	37104.24
626.213	36917.88
626.407	37683.82
626.602	37978.73
626.796	38537.82
626.991	38894.17
627.185	38955.61
627.38	39162.45
627.574	39533.14
627.768	39250.52
627.963	39928.39
628.157	39666.25
628.352	40151.62
628.546	39799.37
628.74	40280.64
628.935	39932.49
629.129	39965.26
629.323	39244.37
629.517	39443.02
629.712	39256.66
629.906	38881.88
630.1	38470.24
630.294	38007.4
630.489	37481.07
630.683	37325.43
630.877	36586.11
631.071	35992.2
631.265	35359.38
631.459	34695.83
631.653	33522.35
631.848	33374.89
632.042	32219.84
632.236	31605.45
632.43	30663.38
632.624	29809.38
632.818	28875.51
633.012	27894.53
633.206	26927.89
633.4	26622.74
633.594	25078.57
633.788	24748.85
633.982	23667.52
634.176	23305.03
634.369	22045.53
634.563	21193.58
634.757	20194.17
634.951	19846.01
635.145	18981.77
635.339	18037.66
635.533	17406.88
635.726	16745.39
635.92	15829.95
636.114	15272.9
636.308	14672.84
636.501	14156.75
636.695	13716.44
636.889	13106.15
637.083	12467.18
637.276	12092.4
637.47	11463.68
637.664	10963.97
637.857	10517.51
638.051	10023.95
638.244	9593.88
638.438	9471
638.632	9036.83
638.825	8324.14
639.019	8487.98
639.212	7853.11
639.406	7640.12
639.599	7369.79
639.793	7070.78
639.986	6644.81
640.18	6554.69
640.373	6175.82
640.567	5983.31
640.76	5735.51
640.954	5612.63
641.147	5344.35
641.34	5055.58
641.534	5074.01
641.727	4981.85
641.92	4553.83
642.114	4465.77
642.307	4170.86
642.5	3937.39
642.694	3734.64
642.887	3757.17
643.08	3722.35
643.273	3425.4
643.467	3300.47
643.66	3255.42
643.853	3052.67
644.046	3034.24
644.239	2944.13
644.432	2786.43
644.626	2530.44
644.819	2479.24
645.012	2434.18
645.205	2514.05
645.398	2413.7
645.591	2208.9
645.784	2030.73
645.977	1928.33
646.17	2024.59
646.363	1830.03
646.556	1731.73
646.749	1713.3
646.942	1707.15
647.135	1637.52
647.328	1510.55
647.521	1518.74
647.714	1377.43
647.907	1375.38
648.099	1311.89
648.292	1248.41
648.485	1234.07
648.678	1258.65
648.871	1176.73
649.064	1105.05
649.256	976.03
649.449	1021.08
649.642	906.4
649.835	922.78
650.027	853.15
650.22	965.79
650.413	871.58
650.605	973.98
650.798	791.71
650.991	822.43
651.183	717.98
651.376	838.81
651.568	707.74
651.761	705.7
651.954	638.11
652.146	599.2
652.339	591.01
652.531	705.7
652.724	441.51
652.916	507.04
653.109	396.45
653.301	638.11
653.494	494.76
653.686	439.46
653.879	591.01
654.071	500.9
654.263	470.18
654.456	335.01
654.648	484.52
654.84	455.84
655.033	414.88
655.225	373.92
655.417	300.2
655.61	486.56
655.802	468.13
655.994	421.03
656.186	226.47
656.379	468.13
656.571	347.3
656.763	251.05
656.955	314.53
657.148	316.58
657.34	339.11
657.532	259.24
657.724	255.14
657.916	228.52
658.108	431.27
658.3	283.81
658.492	367.78
658.684	304.29
658.876	349.35
659.068	212.14
659.26	156.84
659.452	228.52
659.644	253.09
659.836	337.06
660.028	281.77
660.22	128.17
660.412	234.66
660.604	197.8
660.796	208.04
660.988	220.33
661.18	197.8
661.372	240.81
661.563	218.28
661.755	175.27
661.947	134.31
662.139	109.74
662.331	224.42
662.522	169.13
662.714	220.33
662.906	70.83
663.097	226.47
663.289	140.46
663.481	79.02
663.673	148.65
663.864	203.94
664.056	183.46
664.247	128.17
664.439	226.47
664.631	208.04
664.822	107.69
665.014	134.31
665.205	103.59
665.397	136.36
665.588	156.84
665.78	101.55
665.971	126.12
666.163	81.07
666.354	185.51
666.546	105.64
666.737	109.74
666.929	68.78
667.12	91.31
667.311	160.94
667.503	134.31
667.694	222.38
667.885	60.59
668.077	203.94
668.268	54.44
668.459	142.5
668.651	119.98
668.842	101.55
669.033	23.72
669.224	89.26
669.416	273.57
669.607	58.54
669.798	-0.85
669.989	197.8
670.18	9.39
670.371	134.31
670.563	111.78
670.754	218.28
670.945	150.7
671.136	162.98
671.327	83.11
671.518	175.27
671.709	249
671.9	255.14
672.091	277.67
672.282	124.07
672.473	158.89
672.664	25.77
672.855	105.64
673.046	238.76
673.237	183.46
673.428	95.4
673.619	187.56
673.809	85.16
674	115.88
674.191	142.5
674.382	105.64
674.573	105.64
674.764	76.97
674.954	203.94
675.145	68.78
675.336	70.83
675.527	140.46
675.717	85.16
675.908	119.98
676.099	87.21
676.289	148.65
676.48	83.11
676.671	91.31
676.861	146.6
677.052	134.31
677.243	144.55
677.433	62.63
677.624	148.65
677.814	189.61
678.005	113.83
678.195	228.52
678.386	144.55
678.576	156.84
678.767	-7
678.957	132.26
679.148	152.74
679.338	208.04
679.529	152.74
679.719	130.22
679.909	281.77
680.1	191.66
680.29	179.37
680.481	107.69
680.671	162.98
680.861	156.84
681.052	93.35
681.242	152.74
681.432	199.85
681.622	173.22
681.813	74.92
682.003	117.93
682.193	48.3
682.383	93.35
682.573	185.51
682.764	89.26
682.954	183.46
683.144	181.42
683.334	210.09
683.524	177.32
683.714	208.04
683.904	105.64
684.094	156.84
684.284	150.7
684.474	251.05
684.664	177.32
684.854	122.02
685.044	160.94
685.234	154.79
685.424	138.41
685.614	158.89
685.804	279.72
685.994	175.27
686.184	214.18
686.374	126.12
686.564	216.23
686.753	140.46
686.943	70.83
687.133	132.26
687.323	177.32
687.513	195.75
687.702	150.7
687.892	156.84
688.082	255.14
688.272	234.66
688.461	214.18
688.651	312.49
688.841	158.89
689.03	189.61
689.22	140.46
689.41	218.28
689.599	210.09
689.789	93.35
689.979	263.33
690.168	142.5
690.358	158.89
690.547	171.18
690.737	160.94
690.926	132.26
691.116	210.09
691.305	205.99
691.495	259.24
691.684	117.93
691.874	124.07
692.063	220.33
692.252	189.61
692.442	251.05
692.631	150.7
692.82	140.46
693.01	191.66
693.199	111.78
693.388	177.32
693.578	238.76
693.767	160.94
693.956	109.74
694.146	197.8
694.335	210.09
694.524	105.64
694.713	228.52
694.902	74.92
695.092	195.75
695.281	281.77
695.47	83.11
695.659	68.78
695.848	181.42
696.037	165.03
696.226	238.76
696.415	226.47
696.604	255.14
696.793	197.8
696.982	142.5
697.171	269.48
697.36	205.99
697.549	117.93
697.738	103.59
697.927	134.31
698.116	107.69
698.305	128.17
698.494	93.35
698.683	119.98
698.872	361.64
699.061	130.22
699.25	115.88
699.438	158.89
699.627	105.64
699.816	298.15
700.005	109.74
700.193	132.26
700.382	224.42
700.571	249
700.76	132.26
700.948	285.86
701.137	216.23
701.326	253.09
701.514	87.21
701.703	224.42
701.892	177.32
702.08	310.44
702.269	210.09
702.457	150.7
702.646	148.65
702.834	140.46
703.023	251.05
703.212	244.9
703.4	214.18
703.589	146.6
703.777	156.84
703.965	99.5
704.154	189.61
704.342	19.63
704.531	130.22
704.719	150.7
704.907	283.81
705.096	68.78
705.284	150.7
705.472	154.79
705.661	203.94
705.849	292.01
706.037	222.38
706.226	165.03
706.414	150.7
706.602	154.79
706.79	263.33
706.979	175.27
707.167	199.85
707.355	64.68
707.543	195.75
707.731	238.76
707.919	146.6
708.107	169.13
708.296	103.59
708.484	124.07
708.672	226.47
708.86	195.75
709.048	232.62
709.236	111.78
709.424	205.99
709.612	144.55
709.8	33.96
709.988	107.69
710.176	218.28
710.364	279.72
710.551	160.94
710.739	140.46
710.927	74.92
711.115	117.93
711.303	222.38
711.491	300.2
711.679	234.66
711.866	222.38
712.054	138.41
712.242	150.7
712.43	265.38
712.617	140.46
712.805	246.95
712.993	169.13
713.181	36.01
713.368	244.9
713.556	130.22
713.744	62.63
713.931	304.29
714.119	255.14
714.306	136.36
714.494	160.94
714.682	181.42
714.869	89.26
715.057	175.27
715.244	87.21
715.432	189.61
715.619	36.01
715.807	128.17
715.994	208.04
716.182	175.27
716.369	265.38
716.556	269.48
716.744	89.26
716.931	122.02
717.119	203.94
717.306	146.6
717.493	197.8
717.681	72.87
717.868	214.18
718.055	246.95
718.242	201.9
718.43	150.7
718.617	224.42
718.804	169.13
718.991	236.71
719.179	249
719.366	179.37
719.553	240.81
719.74	128.17
719.927	173.22
720.114	234.66
720.301	113.83
720.488	126.12
720.676	134.31
720.863	310.44
721.05	255.14
721.237	220.33
721.424	228.52
721.611	310.44
721.798	165.03
721.985	156.84
722.172	199.85
722.358	185.51
722.545	279.72
722.732	232.62
722.919	265.38
723.106	203.94
723.293	226.47
723.48	203.94
723.667	234.66
723.853	335.01
724.04	296.1
724.227	267.43
724.414	130.22
724.6	253.09
724.787	324.77
724.974	378.02
725.161	144.55
725.347	101.55
725.534	138.41
725.72	251.05
725.907	261.29
726.094	216.23
726.28	154.79
726.467	228.52
726.653	134.31
726.84	216.23
727.027	351.4
727.213	218.28
727.4	294.05
727.586	187.56
727.773	212.14
727.959	177.32
728.145	179.37
728.332	185.51
728.518	160.94
728.705	277.67
728.891	240.81
729.077	242.85
729.264	99.5
729.45	187.56
729.636	339.11
729.823	269.48
730.009	277.67
730.195	265.38
730.382	287.91
730.568	158.89
730.754	228.52
730.94	236.71
731.126	191.66
731.313	269.48
731.499	238.76
731.685	269.48
731.871	187.56
732.057	195.75
732.243	271.53
732.429	220.33
732.615	330.92
732.801	195.75
732.987	281.77
733.173	216.23
733.359	181.42
733.545	181.42
733.731	117.93
733.917	261.29
734.103	255.14
734.289	328.87
734.475	210.09
734.661	292.01
734.847	269.48
735.033	275.62
735.219	298.15
735.404	115.88
735.59	146.6
735.776	257.19
735.962	263.33
736.148	285.86
736.333	316.58
736.519	236.71
736.705	165.03
736.89	220.33
737.076	234.66
737.262	240.81
737.447	152.74
737.633	265.38
737.819	273.57
738.004	201.9
738.19	236.71
738.375	253.09
738.561	259.24
738.747	263.33
738.932	185.51
739.118	324.77
739.303	312.49
739.489	238.76
739.674	185.51
739.859	187.56
740.045	224.42
740.23	244.9
740.416	132.26
740.601	263.33
740.786	205.99
740.972	154.79
741.157	269.48
741.342	181.42
741.528	150.7
741.713	269.48
741.898	214.18
742.084	183.46
742.269	191.66
742.454	210.09
742.639	273.57
742.824	179.37
743.01	212.14
743.195	418.98
743.38	177.32
743.565	189.61
743.75	257.19
743.935	259.24
744.12	261.29
744.305	119.98
744.49	167.08
744.675	201.9
744.86	203.94
745.045	173.22
745.23	234.66
745.415	216.23
745.6	337.06
745.785	185.51
745.97	238.76
746.155	271.53
746.34	238.76
746.525	271.53
746.71	298.15
746.895	136.36
747.079	201.9
747.264	265.38
747.449	253.09
747.634	251.05
747.819	205.99
748.003	230.57
748.188	162.98
748.373	214.18
748.557	162.98
748.742	232.62
748.927	103.59
749.111	150.7
749.296	175.27
749.481	240.81
749.665	199.85
749.85	148.65
750.034	185.51
750.219	199.85
750.404	165.03
750.588	162.98
750.773	115.88
750.957	142.5
751.141	122.02
751.326	310.44
751.51	179.37
751.695	140.46
751.879	197.8
752.064	312.49
752.248	165.03
752.432	259.24
752.617	283.81
752.801	271.53
752.985	218.28
753.17	289.96
753.354	146.6
753.538	183.46
753.722	185.51
753.907	64.68
754.091	93.35
754.275	289.96
754.459	93.35
754.643	74.92
754.828	183.46
755.012	234.66
755.196	72.87
755.38	148.65
755.564	64.68
755.748	205.99
755.932	203.94
756.116	179.37
756.3	214.18
756.484	132.26
756.668	179.37
756.852	3.24
757.036	160.94
757.22	113.83
757.404	105.64
757.588	101.55
757.772	152.74
757.956	81.07
758.14	253.09
758.323	72.87
758.507	183.46
758.691	175.27
758.875	91.31
759.059	244.9
759.242	64.68
759.426	191.66
759.61	208.04
759.794	54.44
759.977	197.8
760.161	332.97
760.345	199.85
760.528	244.9
760.712	44.2
760.895	79.02
761.079	119.98
761.263	48.3
761.446	62.63
761.63	3.24
761.813	193.7
761.997	72.87
762.18	103.59
762.364	91.31
762.547	83.11
762.731	85.16
762.914	111.78
763.098	97.45
763.281	21.67
763.464	109.74
763.648	152.74
763.831	136.36
764.015	33.96
764.198	189.61
764.381	7.34
764.564	83.11
764.748	119.98
764.931	93.35
765.114	50.35
765.297	115.88
765.481	-21.33
765.664	85.16
765.847	68.78
766.03	175.27
766.213	89.26
766.397	42.15
766.58	25.77
766.763	56.49
766.946	-0.85
767.129	29.87
767.312	-11.09
767.495	91.31
767.678	13.48
767.861	105.64
768.044	101.55
768.227	87.21
768.41	91.31
768.593	99.5
768.776	105.64
768.959	48.3
769.142	234.66
769.324	-0.85
769.507	111.78
769.69	66.73
769.873	132.26
770.056	330.92
770.239	97.45
770.421	107.69
770.604	126.12
770.787	89.26
770.97	122.02
771.152	105.64
771.335	126.12
771.518	99.5
771.7	113.83
771.883	107.69
772.066	130.22
772.248	113.83
772.431	197.8
772.613	115.88
772.796	9.39
772.978	97.45
773.161	160.94
773.343	-0.85
773.526	105.64
773.708	-76.63
773.891	23.72
774.073	52.39
774.256	33.96
774.438	154.79
774.621	70.83
774.803	76.97
774.985	7.34
775.168	138.41
775.35	85.16
775.532	154.79
775.715	-33.62
775.897	70.83
776.079	36.01
776.261	105.64
776.444	38.06
776.626	21.67
776.808	17.58
776.99	19.63
777.173	48.3
777.355	76.97
777.537	7.34
777.719	79.02
777.901	42.15
778.083	79.02
778.265	-62.29
778.447	97.45
778.629	72.87
778.811	152.74
778.993	113.83
779.175	122.02
779.357	29.87
779.539	3.24
779.721	89.26
779.903	99.5
780.085	-4.95
780.267	52.39
780.449	40.11
780.631	156.84
780.812	181.42
780.994	42.15
781.176	-58.2
781.358	83.11
781.54	83.11
781.721	128.17
781.903	109.74
782.085	46.25
782.267	156.84
782.448	48.3
782.63	-27.48
782.812	31.91
782.993	81.07
783.175	95.4
783.357	103.59
783.538	81.07
783.72	1.19
783.901	27.82
784.083	142.5
784.264	66.73
784.446	-131.92
784.627	-54.1
784.809	156.84
784.99	-41.81
785.172	54.44
785.353	9.39
785.535	21.67
785.716	-45.91
785.897	-39.76
786.079	46.25
786.26	85.16
786.441	1.19
786.623	-41.81
786.804	-58.2
786.985	-11.09
787.167	81.07
787.348	21.67
787.529	33.96
787.71	154.79
787.891	97.45
788.073	13.48
788.254	11.43
788.435	140.46
788.616	-25.43
788.797	-33.62
788.978	76.97
789.159	46.25
789.34	130.22
789.522	25.77
789.703	46.25
789.884	-27.48
790.065	81.07
790.246	79.02
790.427	-45.91
790.607	189.61
790.788	214.18
790.969	-62.29
791.15	-15.19
791.331	-58.2
791.512	1.19
791.693	-127.83
791.874	-23.38
792.054	236.71
792.235	52.39
792.416	-37.72
792.597	27.82
792.778	124.07
792.958	95.4
793.139	-27.48
793.32	-13.14
793.5	-66.39
793.681	58.54
793.862	95.4
794.042	-37.72
794.223	-113.49
794.404	-47.96
794.584	-88.92
794.765	-43.86
794.945	9.39
795.126	48.3
795.306	87.21
795.487	21.67
795.667	-27.48
795.848	21.67
796.028	36.01
796.209	74.92
796.389	27.82
796.57	25.77
796.75	-52.05
796.93	-41.81
797.111	11.43
797.291	-13.14
797.471	95.4
797.652	-17.24
797.832	-29.52
798.012	50.35
798.192	-64.34
798.373	-95.06
798.553	-37.72
798.733	136.36
798.913	-41.81
799.093	-52.05
799.274	-62.29
799.454	48.3
799.634	81.07
799.814	11.43
799.994	52.39
800.174	40.11
800.354	-9.05
800.534	-88.92
800.714	68.78
800.894	-99.16
801.074	-50
801.254	-78.68
801.434	99.5
801.614	15.53
801.794	-52.05
801.974	1701.01
802.154	9.39
802.334	68.78
802.514	-11.09
802.693	33.96
802.873	-43.86
803.053	-15.19
803.233	113.83
803.413	23.72
803.592	-19.29
803.772	-52.05
803.952	38.06
804.131	-62.29
804.311	40.11
804.491	52.39
804.67	-82.77
804.85	13.48
805.03	105.64
805.209	66.73
805.389	-4.95
805.568	-88.92
805.748	-29.52
805.928	15.53
806.107	93.35
806.287	29.87
806.466	27.82
806.646	-45.91
806.825	-0.85
807.004	-2.9
807.184	27.82
807.363	64.68
807.543	64.68
807.722	-13.14
807.901	72.87
808.081	97.45
808.26	-140.12
808.439	60.59
808.619	-84.82
808.798	-4.95
808.977	50.35
809.156	113.83
809.336	15.53
809.515	93.35
809.694	-21.33
809.873	17.58
810.052	1.19
810.231	142.5
810.411	19.63
810.59	87.21
810.769	21.67
810.948	46.25
811.127	3.24
811.306	-25.43
811.485	29.87
811.664	140.46
811.843	7.34
812.022	-29.52
812.201	-25.43
812.38	38.06
812.559	-80.72
812.737	52.39
812.916	-117.59
813.095	-60.24
813.274	124.07
813.453	-19.29
813.632	52.39
813.811	95.4
813.989	-25.43
814.168	11.43
814.347	-86.87
814.526	31.91
814.704	138.41
814.883	85.16
815.062	-84.82
815.24	89.26
815.419	-58.2
815.598	99.5
815.776	-113.49
815.955	50.35
816.133	-95.06
816.312	-17.24
816.49	-64.34
816.669	-52.05
816.847	17.58
817.026	52.39
817.204	-0.85
817.383	-64.34
817.561	-41.81
817.74	-11.09
817.918	52.39
818.097	-88.92
818.275	-72.53
818.453	19.63
818.632	-13.14
818.81	33.96
818.988	-25.43
819.167	-50
819.345	-17.24
819.523	-33.62
819.701	11.43
819.879	79.02
820.058	56.49
820.236	-0.85
820.414	52.39
820.592	-9.05
820.77	15.53
820.948	17.58
821.127	-15.19
821.305	19.63
821.483	-27.48
821.661	52.39
821.839	-17.24
822.017	-45.91
822.195	48.3
822.373	144.55
822.551	33.96
822.729	212.14
822.907	-9.05
823.085	105.64
823.262	-11.09
823.44	-4.95
823.618	-21.33
823.796	60.59
823.974	-9.05
824.152	-0.85
824.329	13.48
824.507	60.59
824.685	38.06
824.863	-17.24
825.04	29.87
825.218	-4.95
825.396	-33.62
825.574	-60.24
825.751	87.21
825.929	97.45
826.107	31.91
826.284	-9.05
826.462	-23.38
826.639	-27.48
826.817	-90.96
826.994	3.24
827.172	-72.53
827.349	119.98
827.527	38.06
827.704	9.39
827.882	156.84
828.059	50.35
828.237	-17.24
828.414	89.26
828.591	-127.83
828.769	42.15
828.946	-17.24
829.124	25.77
829.301	119.98
829.478	25.77
829.655	40.11
829.833	68.78
830.01	-123.73
830.187	52.39
830.364	-13.14
830.542	11.43
830.719	185.51
830.896	19.63
831.073	62.63
831.25	-17.24
831.427	97.45
831.604	1.19
831.782	-52.05
831.959	40.11
832.136	-21.33
832.313	29.87
832.49	-19.29
832.667	-11.09
832.844	-47.96
833.021	99.5
833.198	-4.95
833.374	9.39
833.551	-35.67
833.728	1.19
833.905	44.2
834.082	-113.49
834.259	1.19
834.436	-2.9
834.612	-86.87
834.789	97.45
834.966	17.58
835.143	-33.62
835.319	-39.76
835.496	52.39
835.673	64.68
835.85	64.68
836.026	29.87
836.203	50.35
836.38	-54.1
836.556	-35.67
836.733	50.35
836.909	109.74
837.086	17.58
837.262	-119.64
837.439	-7
837.616	-50
837.792	21.67
837.968	-23.38
838.145	-127.83
838.321	25.77
838.498	72.87
838.674	89.26
838.851	50.35
839.027	-39.76
839.203	-43.86
839.38	29.87
839.556	-58.2
839.732	132.26
839.909	-17.24
840.085	-66.39
840.261	15.53
840.437	36.01
840.614	-93.01
840.79	42.15
840.966	1.19
841.142	-35.67
841.318	-43.86
841.494	44.2
841.671	95.4
841.847	-109.4
842.023	-43.86
842.199	-11.09
842.375	19.63
842.551	-70.48
842.727	-121.68
842.903	158.89
843.079	-95.06
843.255	81.07
843.431	21.67
843.607	46.25
843.783	-105.3
843.959	81.07
844.134	-93.01
844.31	115.88
844.486	7.34
844.662	-52.05
844.838	60.59
845.013	66.73
845.189	19.63
845.365	19.63
845.541	-52.05
845.716	-64.34
845.892	9.39
846.068	9.39
846.244	-35.67
846.419	11.43
846.595	-103.25
846.77	-64.34
846.946	134.31
847.122	-27.48
847.297	-35.67
847.473	134.31
847.648	-111.44
847.824	-25.43
847.999	-50
848.175	-45.91
848.35	93.35
848.526	132.26
848.701	111.78
848.876	52.39
849.052	15.53
849.227	7.34
849.403	15.53
849.578	1.19
849.753	19.63
849.929	54.44
850.104	-119.64
850.279	-7
850.454	13.48
850.63	74.92
850.805	9.39
850.98	40.11
851.155	31.91
851.33	-4.95
851.505	-25.43
851.681	99.5
851.856	-17.24
852.031	-43.86
852.206	44.2
852.381	-74.58
852.556	19.63
852.731	-35.67
852.906	25.77
853.081	33.96
853.256	113.83
853.431	36.01
853.606	-23.38
853.781	-88.92
853.956	-64.34
854.131	33.96
854.305	-17.24
854.48	-50
854.655	-39.76
854.83	-74.58
855.005	-9.05
855.18	-17.24
855.354	54.44
855.529	-11.09
855.704	15.53
855.879	54.44
856.053	-50
856.228	17.58
856.403	-86.87
856.577	36.01
856.752	-152.4
856.926	-54.1
857.101	89.26
857.276	-74.58
857.45	-15.19
857.625	64.68
857.799	-21.33
857.974	-31.57
858.148	-72.53
858.323	50.35
858.497	36.01
858.672	-35.67
858.846	-84.82
859.02	5.29
859.195	-152.4
859.369	-33.62
859.543	83.11
859.718	13.48
859.892	36.01
860.066	25.77
860.241	-7
860.415	-76.63
860.589	-39.76
860.763	-4.95
860.938	13.48
861.112	9.39
861.286	-105.3
861.46	-25.43
861.634	-25.43
861.808	91.31
861.982	-93.01
862.157	-103.25
862.331	-41.81
862.505	-88.92
862.679	-47.96
862.853	-0.85
863.027	-29.52
863.201	160.94
863.375	-68.44
863.549	7.34
863.722	-39.76
863.896	144.55
864.07	-99.16
864.244	7.34
864.418	50.35
864.592	-9.05
864.766	-4.95
864.939	7.34
865.113	-37.72
865.287	79.02
865.461	-99.16
865.634	42.15
865.808	-9.05
865.982	7.34
866.156	-138.07
866.329	-99.16
866.503	52.39
866.676	52.39
866.85	-13.14
867.024	-103.25
867.197	-13.14
867.371	21.67
867.544	-11.09
867.718	-80.72
867.891	122.02
868.065	-136.02
868.238	-2.9
868.412	83.11
868.585	33.96
868.759	-113.49
868.932	-4.95
869.105	-99.16
869.279	46.25
869.452	-21.33
869.625	95.4
869.799	-45.91
869.972	-43.86
870.145	-84.82
870.319	97.45
870.492	-35.67
870.665	-21.33
870.838	-9.05
871.011	-64.34
871.185	17.58
871.358	-37.72
871.531	-11.09
871.704	-52.05
871.877	42.15
872.05	-37.72
872.223	15.53
872.396	3.24
872.569	31.91
872.742	-70.48
872.915	-33.62
873.088	-58.2
873.261	-50
873.434	48.3
873.607	-45.91
873.78	72.87
873.953	-136.02
874.126	-29.52
874.299	68.78
874.471	-103.25
874.644	1.19
874.817	5.29
874.99	97.45
875.163	-74.58
875.335	68.78
875.508	-50
875.681	40.11
875.853	-45.91
876.026	3.24
876.199	31.91
876.371	-39.76
876.544	-21.33
876.717	-37.72
876.889	-15.19
877.062	-4.95
877.234	-58.2
877.407	-66.39
877.579	11.43
877.752	1.19
877.924	48.3
878.097	50.35
878.269	31.91
878.442	9.39
878.614	21.67
878.786	11.43
878.959	-21.33
879.131	1.19
879.303	-154.45
879.476	-43.86
879.648	72.87
879.82	19.63
879.993	-39.76
880.165	7.34
880.337	-60.24
880.509	-11.09
880.681	-97.11
880.854	-7
881.026	42.15
881.198	48.3
881.37	-7
881.542	-45.91
881.714	-25.43
881.886	-33.62
882.058	3.24
882.23	15.53
882.402	-25.43
882.574	-7
882.746	85.16
882.918	95.4
883.09	58.54
883.262	-27.48
883.434	54.44
883.606	-109.4
883.778	-9.05
883.95	62.63
884.122	-72.53
884.293	33.96
884.465	21.67
884.637	56.49
884.809	-95.06
884.98	11.43
885.152	27.82
885.324	68.78
885.496	-37.72
885.667	-31.57
885.839	-9.05
886.011	54.44
886.182	-7
886.354	64.68
886.525	-29.52
886.697	36.01
886.869	21.67
887.04	-58.2
887.212	97.45
887.383	81.07
887.555	60.59
887.726	-74.58
887.897	-54.1
888.069	-50
888.24	-21.33
888.412	-47.96
888.583	-23.38
888.754	29.87
888.926	-70.48
889.097	-47.96
889.268	-88.92
889.44	66.73
889.611	-172.88
889.782	-21.33
889.953	-109.4
890.125	81.07
890.296	-2.9
890.467	-60.24
890.638	-2.9
890.809	-29.52
890.98	11.43
891.151	66.73
891.323	124.07
891.494	7.34
891.665	-11.09
891.836	-21.33
892.007	-11.09
892.178	50.35
892.349	5.29
892.52	-33.62
892.691	-0.85
892.862	-88.92
893.032	-111.44
893.203	-54.1
893.374	3.24
893.545	40.11
893.716	-23.38
893.887	54.44
894.057	-27.48
894.228	-13.14
894.399	-131.92
894.57	74.92
894.74	-4.95
894.911	44.2
895.082	-52.05
895.253	-17.24
895.423	-72.53
895.594	44.2
895.764	-43.86
895.935	-140.12
896.106	-4.95
896.276	-43.86
896.447	17.58
896.617	-21.33
896.788	-88.92
896.958	-41.81
897.129	-95.06
897.299	31.91
897.47	101.55
897.64	62.63
897.81	-58.2
897.981	-19.29
898.151	-54.1
898.322	11.43
898.492	40.11
898.662	-50
898.832	-19.29
899.003	-4.95
899.173	56.49
899.343	-76.63
899.513	-43.86
