Data from USB4F104151__256__11-20-10-734.txt Node

Date: Wed Feb 26 11:20:10 EST 2025
User: louis
Spectrometer: USB4F10415
Trigger mode: 4
Integration Time (sec): 1.000000E-1
Scans to average: 1
Electric dark correction enabled: true
Nonlinearity correction enabled: false
Boxcar width: 0
XAxis mode: Wavelengths
Number of Pixels in Spectrum: 3648
>>>>>Begin Spectral Data<<<<<
178.204	-444.58
178.424	-444.58
178.644	-444.58
178.864	-434.34
179.084	-377
179.304	-2.22
179.524	-26.79
179.744	67.41
179.964	-6.31
180.184	-16.55
180.404	48.98
180.624	14.17
180.844	-61.61
181.064	-65.71
181.283	38.74
181.503	-24.75
181.723	34.64
181.943	-53.42
182.163	243.54
182.383	-8.36
182.602	126.8
182.822	143.19
183.042	63.32
183.262	38.74
183.482	-10.41
183.701	46.93
183.921	100.18
184.141	-77.99
184.361	178
184.58	38.74
184.8	3.93
185.02	-30.89
185.239	116.56
185.459	53.08
185.679	163.67
185.898	-12.46
186.118	65.36
186.338	67.41
186.557	149.33
186.777	-8.36
186.997	-65.71
187.216	79.7
187.436	157.52
187.655	108.37
187.875	44.88
188.095	53.08
188.314	120.66
188.534	116.56
188.753	-55.47
188.973	192.34
189.192	223.06
189.412	-57.51
189.631	108.37
189.851	81.75
190.07	137.04
190.29	-67.75
190.509	-32.94
190.729	91.99
190.948	149.33
191.168	233.3
191.387	126.8
191.607	16.21
191.826	96.08
192.045	-0.17
192.265	51.03
192.484	122.71
192.704	16.21
192.923	-57.51
193.142	243.54
193.362	186.19
193.581	214.87
193.8	79.7
194.02	20.31
194.239	14.17
194.458	100.18
194.678	-4.27
194.897	-14.51
195.116	28.5
195.335	94.04
195.555	51.03
195.774	36.69
195.993	108.37
196.212	30.55
196.432	-32.94
196.651	-57.51
196.87	20.31
197.089	186.19
197.308	63.32
197.528	130.9
197.747	-30.89
197.966	51.03
198.185	118.61
198.404	-4.27
198.623	102.23
198.842	151.38
199.062	116.56
199.281	106.32
199.5	59.22
199.719	85.84
199.938	61.27
200.157	28.5
200.376	91.99
200.595	110.42
200.814	8.02
201.033	-18.6
201.252	110.42
201.471	61.27
201.69	42.84
201.909	28.5
202.128	153.43
202.347	75.6
202.566	1.88
202.785	-12.46
203.004	-6.31
203.223	194.39
203.442	-10.41
203.661	-34.99
203.879	104.28
204.098	106.32
204.317	-4.27
204.536	51.03
204.755	157.52
204.974	188.24
205.193	8.02
205.411	108.37
205.63	81.75
205.849	48.98
206.068	-45.23
206.287	8.02
206.505	128.85
206.724	14.17
206.943	1.88
207.162	-2.22
207.381	75.6
207.599	46.93
207.818	48.98
208.037	-22.7
208.255	22.36
208.474	36.69
208.693	75.6
208.911	55.12
209.13	96.08
209.349	98.13
209.567	40.79
209.786	77.65
210.005	48.98
210.223	46.93
210.442	-65.71
210.661	61.27
210.879	85.84
211.098	-12.46
211.316	24.4
211.535	85.84
211.753	30.55
211.972	34.64
212.191	-22.7
212.409	16.21
212.628	30.55
212.846	34.64
213.065	8.02
213.283	186.19
213.502	73.56
213.72	-4.27
213.938	59.22
214.157	16.21
214.375	73.56
214.594	42.84
214.812	145.24
215.031	-32.94
215.249	-2.22
215.467	32.6
215.686	100.18
215.904	83.8
216.122	120.66
216.341	216.91
216.559	67.41
216.778	61.27
216.996	153.43
217.214	69.46
217.432	-28.84
217.651	-18.6
217.869	77.65
218.087	85.84
218.306	38.74
218.524	-26.79
218.742	12.12
218.96	120.66
219.179	1.88
219.397	46.93
219.615	247.63
219.833	135
220.051	-0.17
220.27	34.64
220.488	118.61
220.706	79.7
220.924	-4.27
221.142	5.97
221.36	38.74
221.578	71.51
221.796	55.12
222.015	14.17
222.233	192.34
222.451	196.43
222.669	-30.89
222.887	67.41
223.105	-30.89
223.323	51.03
223.541	-71.85
223.759	30.55
223.977	75.6
224.195	163.67
224.413	22.36
224.631	132.95
224.849	106.32
225.067	178
225.285	22.36
225.503	48.98
225.721	-106.67
225.939	34.64
226.157	63.32
226.375	229.2
226.592	-12.46
226.81	34.64
227.028	51.03
227.246	77.65
227.464	51.03
227.682	38.74
227.9	104.28
228.117	46.93
228.335	128.85
228.553	-2.22
228.771	44.88
228.989	30.55
229.206	102.23
229.424	16.21
229.642	75.6
229.86	34.64
230.077	135
230.295	98.13
230.513	147.28
230.731	112.47
230.948	225.11
231.166	227.15
231.384	-26.79
231.601	48.98
231.819	120.66
232.037	28.5
232.254	-8.36
232.472	24.4
232.689	46.93
232.907	165.71
233.125	26.45
233.342	46.93
233.56	48.98
233.777	34.64
233.995	98.13
234.213	34.64
234.43	87.89
234.648	3.93
234.865	67.41
235.083	79.7
235.3	53.08
235.518	24.4
235.735	198.48
235.953	67.41
236.17	36.69
236.388	-24.75
236.605	32.6
236.822	94.04
237.04	48.98
237.257	-2.22
237.475	10.07
237.692	40.79
237.909	120.66
238.127	-20.65
238.344	96.08
238.562	87.89
238.779	-80.04
238.996	-94.38
239.214	-32.94
239.431	32.6
239.648	-10.41
239.865	65.36
240.083	135
240.3	102.23
240.517	-20.65
240.735	55.12
240.952	137.04
241.169	89.94
241.386	38.74
241.603	100.18
241.821	32.6
242.038	96.08
242.255	139.09
242.472	-2.22
242.689	38.74
242.907	61.27
243.124	40.79
243.341	28.5
243.558	44.88
243.775	-0.17
243.992	55.12
244.209	110.42
244.426	141.14
244.643	63.32
244.86	-37.03
245.078	124.76
245.295	126.8
245.512	51.03
245.729	-75.95
245.946	165.71
246.163	120.66
246.38	-51.37
246.597	3.93
246.814	124.76
247.031	94.04
247.248	55.12
247.464	71.51
247.681	12.12
247.898	155.47
248.115	59.22
248.332	18.26
248.549	159.57
248.766	102.23
248.983	100.18
249.2	110.42
249.417	104.28
249.633	32.6
249.85	87.89
250.067	83.8
250.284	79.7
250.501	28.5
250.717	87.89
250.934	87.89
251.151	30.55
251.368	26.45
251.585	38.74
251.801	14.17
252.018	-61.61
252.235	46.93
252.451	-69.8
252.668	-6.31
252.885	75.6
253.102	83.8
253.318	26.45
253.535	-8.36
253.752	32.6
253.968	40.79
254.185	-39.08
254.401	53.08
254.618	24.4
254.835	-6.31
255.051	57.17
255.268	118.61
255.484	38.74
255.701	32.6
255.917	87.89
256.134	-30.89
256.351	22.36
256.567	-34.99
256.784	44.88
257	-51.37
257.217	122.71
257.433	167.76
257.65	67.41
257.866	128.85
258.082	12.12
258.299	36.69
258.515	51.03
258.732	53.08
258.948	12.12
259.165	79.7
259.381	-32.94
259.597	96.08
259.814	-14.51
260.03	40.79
260.246	1.88
260.463	67.41
260.679	42.84
260.895	77.65
261.112	171.86
261.328	26.45
261.544	-96.43
261.761	126.8
261.977	-18.6
262.193	8.02
262.409	137.04
262.626	48.98
262.842	59.22
263.058	22.36
263.274	91.99
263.49	89.94
263.707	59.22
263.923	71.51
264.139	-55.47
264.355	38.74
264.571	55.12
264.787	112.47
265.004	157.52
265.22	30.55
265.436	-41.13
265.652	51.03
265.868	-10.41
266.084	-61.61
266.3	48.98
266.516	-2.22
266.732	46.93
266.948	59.22
267.164	22.36
267.38	61.27
267.596	110.42
267.812	145.24
268.028	46.93
268.244	38.74
268.46	137.04
268.676	53.08
268.892	-2.22
269.108	32.6
269.324	-86.19
269.54	1.88
269.756	153.43
269.972	-18.6
270.188	61.27
270.403	-65.71
270.619	8.02
270.835	94.04
271.051	139.09
271.267	18.26
271.483	75.6
271.698	141.14
271.914	96.08
272.13	32.6
272.346	18.26
272.562	63.32
272.777	128.85
272.993	-14.51
273.209	-12.46
273.425	77.65
273.64	-98.47
273.856	145.24
274.072	-90.28
274.287	8.02
274.503	69.46
274.719	46.93
274.934	24.4
275.15	5.97
275.366	-16.55
275.581	-18.6
275.797	51.03
276.012	73.56
276.228	-16.55
276.444	46.93
276.659	110.42
276.875	-49.32
277.09	18.26
277.306	18.26
277.521	-20.65
277.737	3.93
277.952	135
278.168	69.46
278.383	59.22
278.599	36.69
278.814	44.88
279.03	28.5
279.245	71.51
279.461	-45.23
279.676	124.76
279.892	-20.65
280.107	-30.89
280.322	-39.08
280.538	20.31
280.753	-37.03
280.969	100.18
281.184	-18.6
281.399	135
281.615	96.08
281.83	32.6
282.045	-30.89
282.26	32.6
282.476	24.4
282.691	155.47
282.906	57.17
283.122	38.74
283.337	-30.89
283.552	153.43
283.767	-18.6
283.983	118.61
284.198	48.98
284.413	71.51
284.628	-65.71
284.843	147.28
285.058	178
285.274	48.98
285.489	-26.79
285.704	161.62
285.919	-37.03
286.134	14.17
286.349	24.4
286.564	24.4
286.779	155.47
286.995	55.12
287.21	32.6
287.425	102.23
287.64	24.4
287.855	63.32
288.07	26.45
288.285	147.28
288.5	149.33
288.715	79.7
288.93	26.45
289.145	-14.51
289.36	118.61
289.575	38.74
289.79	81.75
290.004	-24.75
290.219	163.67
290.434	-37.03
290.649	75.6
290.864	26.45
291.079	1.88
291.294	-10.41
291.509	34.64
291.724	24.4
291.938	32.6
292.153	120.66
292.368	-65.71
292.583	51.03
292.798	26.45
293.012	65.36
293.227	53.08
293.442	20.31
293.657	61.27
293.871	124.76
294.086	100.18
294.301	169.81
294.516	79.7
294.73	34.64
294.945	-43.18
295.16	63.32
295.374	135
295.589	67.41
295.804	-26.79
296.018	51.03
296.233	98.13
296.447	132.95
296.662	5.97
296.877	155.47
297.091	73.56
297.306	59.22
297.52	44.88
297.735	48.98
297.949	20.31
298.164	8.02
298.378	57.17
298.593	-34.99
298.807	1.88
299.022	77.65
299.236	151.38
299.451	-22.7
299.665	26.45
299.88	36.69
300.094	106.32
300.309	24.4
300.523	14.17
300.737	10.07
300.952	-8.36
301.166	-14.51
301.381	-0.17
301.595	-32.94
301.809	10.07
302.024	-32.94
302.238	1.88
302.452	124.76
302.667	38.74
302.881	147.28
303.095	106.32
303.309	-16.55
303.524	8.02
303.738	57.17
303.952	-61.61
304.166	-0.17
304.381	-94.38
304.595	155.47
304.809	-20.65
305.023	48.98
305.237	-63.66
305.452	18.26
305.666	94.04
305.88	157.52
306.094	51.03
306.308	87.89
306.522	110.42
306.736	44.88
306.95	110.42
307.164	3.93
307.379	12.12
307.593	147.28
307.807	79.7
308.021	130.9
308.235	75.6
308.449	24.4
308.663	-12.46
308.877	147.28
309.091	87.89
309.305	85.84
309.519	3.93
309.733	124.76
309.947	-43.18
310.161	8.02
310.374	32.6
310.588	130.9
310.802	-125.1
311.016	20.31
311.23	114.52
311.444	28.5
311.658	128.85
311.872	122.71
312.085	165.71
312.299	178
312.513	202.58
312.727	-10.41
312.941	-20.65
313.154	67.41
313.368	55.12
313.582	-43.18
313.796	116.56
314.009	46.93
314.223	132.95
314.437	26.45
314.651	108.37
314.864	-28.84
315.078	36.69
315.292	-43.18
315.505	-45.23
315.719	77.65
315.933	83.8
316.146	-59.56
316.36	5.97
316.573	167.76
316.787	26.45
317.001	67.41
317.214	26.45
317.428	20.31
317.641	-45.23
317.855	-32.94
318.068	-0.17
318.282	100.18
318.495	196.43
318.709	67.41
318.922	-57.51
319.136	135
319.349	73.56
319.563	-0.17
319.776	34.64
319.99	-2.22
320.203	137.04
320.417	34.64
320.63	135
320.843	137.04
321.057	12.12
321.27	-2.22
321.483	112.47
321.697	114.52
321.91	1.88
322.124	104.28
322.337	126.8
322.55	-18.6
322.763	61.27
322.977	71.51
323.19	-26.79
323.403	73.56
323.617	51.03
323.83	145.24
324.043	-34.99
324.256	118.61
324.469	22.36
324.683	128.85
324.896	-16.55
325.109	163.67
325.322	-0.17
325.535	120.66
325.748	36.69
325.962	48.98
326.175	81.75
326.388	110.42
326.601	126.8
326.814	8.02
327.027	89.94
327.24	137.04
327.453	-57.51
327.666	169.81
327.879	116.56
328.092	85.84
328.305	79.7
328.518	-14.51
328.731	36.69
328.944	40.79
329.157	83.8
329.37	-2.22
329.583	130.9
329.796	155.47
330.009	5.97
330.222	48.98
330.435	89.94
330.648	1.88
330.861	73.56
331.073	100.18
331.286	100.18
331.499	38.74
331.712	55.12
331.925	26.45
332.138	55.12
332.35	106.32
332.563	5.97
332.776	73.56
332.989	53.08
333.202	-22.7
333.414	12.12
333.627	96.08
333.84	-10.41
334.053	69.46
334.265	30.55
334.478	-84.14
334.691	22.36
334.903	40.79
335.116	-6.31
335.329	91.99
335.541	212.82
335.754	141.14
335.966	-2.22
336.179	48.98
336.392	-18.6
336.604	-92.33
336.817	126.8
337.029	81.75
337.242	124.76
337.454	98.13
337.667	42.84
337.88	178
338.092	91.99
338.305	159.57
338.517	-71.85
338.729	114.52
338.942	161.62
339.154	-41.13
339.367	-26.79
339.579	71.51
339.792	-4.27
340.004	94.04
340.217	22.36
340.429	-6.31
340.641	-114.86
340.854	44.88
341.066	22.36
341.278	106.32
341.491	186.19
341.703	132.95
341.915	44.88
342.128	18.26
342.34	77.65
342.552	-18.6
342.764	46.93
342.977	-34.99
343.189	65.36
343.401	67.41
343.613	-55.47
343.826	143.19
344.038	-39.08
344.25	81.75
344.462	-26.79
344.674	128.85
344.886	-28.84
345.099	-6.31
345.311	44.88
345.523	-22.7
345.735	-112.81
345.947	61.27
346.159	30.55
346.371	30.55
346.583	-6.31
346.795	221.01
347.007	24.4
347.219	77.65
347.431	22.36
347.643	202.58
347.855	-28.84
348.067	165.71
348.279	-28.84
348.491	14.17
348.703	147.28
348.915	18.26
349.127	28.5
349.339	63.32
349.551	-2.22
349.763	42.84
349.975	67.41
350.187	79.7
350.399	108.37
350.61	44.88
350.822	26.45
351.034	87.89
351.246	104.28
351.458	83.8
351.669	98.13
351.881	71.51
352.093	139.09
352.305	175.95
352.517	194.39
352.728	147.28
352.94	16.21
353.152	98.13
353.363	-0.17
353.575	85.84
353.787	218.96
353.999	5.97
354.21	186.19
354.422	-14.51
354.633	87.89
354.845	75.6
355.057	120.66
355.268	100.18
355.48	59.22
355.692	-63.66
355.903	63.32
356.115	38.74
356.326	-94.38
356.538	137.04
356.749	55.12
356.961	147.28
357.172	44.88
357.384	44.88
357.595	167.76
357.807	-24.75
358.018	-73.9
358.23	-14.51
358.441	159.57
358.653	124.76
358.864	65.36
359.075	26.45
359.287	51.03
359.498	32.6
359.709	1.88
359.921	20.31
360.132	-14.51
360.344	38.74
360.555	-37.03
360.766	75.6
360.977	-12.46
361.189	102.23
361.4	-0.17
361.611	167.76
361.823	112.47
362.034	67.41
362.245	-26.79
362.456	83.8
362.667	163.67
362.879	-30.89
363.09	67.41
363.301	118.61
363.512	24.4
363.723	-63.66
363.935	-24.75
364.146	116.56
364.357	-59.56
364.568	118.61
364.779	-6.31
364.99	147.28
365.201	5.97
365.412	155.47
365.623	-12.46
365.834	40.79
366.045	63.32
366.256	91.99
366.467	114.52
366.678	-12.46
366.889	69.46
367.1	-18.6
367.311	75.6
367.522	16.21
367.733	-24.75
367.944	75.6
368.155	-2.22
368.366	36.69
368.577	87.89
368.788	20.31
368.999	-8.36
369.209	30.55
369.42	190.29
369.631	237.39
369.842	153.43
370.053	-0.17
370.264	91.99
370.474	16.21
370.685	108.37
370.896	-24.75
371.107	75.6
371.317	100.18
371.528	22.36
371.739	155.47
371.95	30.55
372.16	173.91
372.371	-51.37
372.582	36.69
372.792	126.8
373.003	42.84
373.214	30.55
373.424	20.31
373.635	-6.31
373.846	159.57
374.056	57.17
374.267	132.95
374.477	132.95
374.688	-32.94
374.898	55.12
375.109	89.94
375.319	32.6
375.53	126.8
375.74	102.23
375.951	34.64
376.161	57.17
376.372	104.28
376.582	100.18
376.793	65.36
377.003	-51.37
377.214	100.18
377.424	130.9
377.635	-0.17
377.845	-43.18
378.055	120.66
378.266	3.93
378.476	14.17
378.686	42.84
378.897	120.66
379.107	67.41
379.317	87.89
379.528	-4.27
379.738	180.05
379.948	-37.03
380.158	46.93
380.369	94.04
380.579	116.56
380.789	94.04
380.999	67.41
381.21	114.52
381.42	286.54
381.63	-59.56
381.84	59.22
382.05	114.52
382.261	108.37
382.471	145.24
382.681	5.97
382.891	167.76
383.101	124.76
383.311	-10.41
383.521	22.36
383.731	71.51
383.941	42.84
384.151	22.36
384.361	-8.36
384.571	8.02
384.781	96.08
384.991	175.95
385.201	196.43
385.411	157.52
385.621	-4.27
385.831	91.99
386.041	-0.17
386.251	55.12
386.461	100.18
386.671	-28.84
386.881	116.56
387.091	38.74
387.301	106.32
387.511	22.36
387.72	100.18
387.93	118.61
388.14	-51.37
388.35	89.94
388.56	122.71
388.769	122.71
388.979	108.37
389.189	-59.56
389.399	46.93
389.609	59.22
389.818	130.9
390.028	32.6
390.238	63.32
390.447	-18.6
390.657	104.28
390.867	53.08
391.076	-75.95
391.286	83.8
391.496	110.42
391.705	100.18
391.915	116.56
392.125	79.7
392.334	-41.13
392.544	180.05
392.753	100.18
392.963	30.55
393.172	32.6
393.382	8.02
393.591	194.39
393.801	5.97
394.01	171.86
394.22	106.32
394.429	-4.27
394.639	63.32
394.848	128.85
395.058	75.6
395.267	42.84
395.477	48.98
395.686	89.94
395.895	114.52
396.105	235.35
396.314	71.51
396.524	30.55
396.733	73.56
396.942	112.47
397.152	91.99
397.361	126.8
397.57	94.04
397.78	26.45
397.989	147.28
398.198	186.19
398.407	-51.37
398.617	79.7
398.826	18.26
399.035	-14.51
399.244	114.52
399.453	102.23
399.663	67.41
399.872	71.51
400.081	-4.27
400.29	163.67
400.499	-73.9
400.708	91.99
400.917	73.56
401.127	10.07
401.336	-53.42
401.545	192.34
401.754	151.38
401.963	104.28
402.172	85.84
402.381	-24.75
402.59	28.5
402.799	-4.27
403.008	110.42
403.217	110.42
403.426	91.99
403.635	-57.51
403.844	40.79
404.053	-2.22
404.262	104.28
404.471	175.95
404.68	-4.27
404.888	1.88
405.097	-49.32
405.306	85.84
405.515	110.42
405.724	5.97
405.933	159.57
406.142	63.32
406.35	141.14
406.559	44.88
406.768	26.45
406.977	175.95
407.185	55.12
407.394	51.03
407.603	-92.33
407.812	59.22
408.02	137.04
408.229	106.32
408.438	122.71
408.646	-37.03
408.855	42.84
409.064	71.51
409.272	61.27
409.481	38.74
409.69	44.88
409.898	-106.67
410.107	79.7
410.315	118.61
410.524	-34.99
410.733	48.98
410.941	48.98
411.15	65.36
411.358	151.38
411.567	143.19
411.775	38.74
411.984	67.41
412.192	71.51
412.401	22.36
412.609	151.38
412.818	165.71
413.026	159.57
413.234	100.18
413.443	-4.27
413.651	48.98
413.86	94.04
414.068	132.95
414.276	253.78
414.485	34.64
414.693	145.24
414.901	221.01
415.11	73.56
415.318	61.27
415.526	34.64
415.734	126.8
415.943	83.8
416.151	128.85
416.359	-34.99
416.567	75.6
416.776	132.95
416.984	180.05
417.192	264.02
417.4	87.89
417.608	79.7
417.817	-73.9
418.025	128.85
418.233	165.71
418.441	5.97
418.649	96.08
418.857	3.93
419.065	145.24
419.273	12.12
419.481	22.36
419.689	42.84
419.897	12.12
420.105	-55.47
420.313	159.57
420.521	135
420.729	128.85
420.937	-30.89
421.145	3.93
421.353	124.76
421.561	120.66
421.769	114.52
421.977	20.31
422.185	94.04
422.393	77.65
422.601	143.19
422.809	75.6
423.017	16.21
423.224	130.9
423.432	139.09
423.64	130.9
423.848	106.32
424.056	-14.51
424.263	167.76
424.471	5.97
424.679	130.9
424.887	-20.65
425.094	71.51
425.302	167.76
425.51	87.89
425.718	124.76
425.925	83.8
426.133	83.8
426.341	130.9
426.548	18.26
426.756	79.7
426.964	124.76
427.171	-30.89
427.379	106.32
427.586	83.8
427.794	71.51
428.001	135
428.209	108.37
428.417	173.91
428.624	67.41
428.832	120.66
429.039	153.43
429.247	116.56
429.454	143.19
429.662	208.72
429.869	147.28
430.076	83.8
430.284	221.01
430.491	167.76
430.699	159.57
430.906	221.01
431.114	161.62
431.321	135
431.528	175.95
431.736	171.86
431.943	198.48
432.15	155.47
432.358	149.33
432.565	313.17
432.772	48.98
432.979	268.11
433.187	171.86
433.394	194.39
433.601	159.57
433.808	253.78
434.016	223.06
434.223	276.31
434.43	192.34
434.637	194.39
434.844	294.74
435.052	229.2
435.259	208.72
435.466	374.61
435.673	249.68
435.88	296.78
436.087	329.55
436.294	372.56
436.501	286.54
436.708	302.93
436.915	300.88
437.122	317.26
437.329	294.74
437.537	247.63
437.743	251.73
437.95	462.67
438.157	319.31
438.364	292.69
438.571	317.26
438.778	423.76
438.985	327.5
439.192	499.53
439.399	448.33
439.606	446.29
439.813	526.16
440.02	515.92
440.227	577.36
440.433	530.25
440.64	499.53
440.847	425.81
441.054	587.6
441.261	700.23
441.467	593.74
441.674	618.32
441.881	671.56
442.088	501.58
442.294	714.57
442.501	790.35
442.708	841.54
442.914	782.15
443.121	780.11
443.328	859.98
443.534	876.36
443.741	882.5
443.948	804.68
444.154	1046.34
444.361	1107.78
444.568	989
444.774	1081.16
444.981	859.98
445.187	1087.3
445.394	1187.65
445.6	1085.25
445.807	1355.58
446.013	1281.86
446.22	1154.88
446.426	1277.76
446.633	1410.88
446.839	1609.53
447.046	1453.89
447.252	1576.77
447.459	1650.49
447.665	1550.14
447.871	1804.09
448.078	1738.55
448.284	1879.86
448.491	1926.97
448.697	1787.71
448.903	2066.23
449.11	2144.05
449.316	2152.24
449.522	2352.95
449.728	2324.27
449.935	2402.1
450.141	2471.73
450.347	2694.96
450.553	2533.17
450.76	2752.3
450.966	2864.94
451.172	2885.42
451.378	2940.71
451.584	2991.91
451.791	3333.92
451.997	3231.52
452.203	3360.55
452.409	3675.93
452.615	3761.95
452.821	3577.63
453.027	3759.9
453.233	4118.29
453.44	4212.5
453.646	4290.32
453.852	4394.77
454.058	4626.19
454.264	4740.88
454.47	5109.51
454.676	5158.66
454.882	5670.65
455.088	5449.47
455.294	5535.49
455.5	6018.81
455.705	6297.33
455.911	6393.59
456.117	6510.32
456.323	6694.64
456.529	6696.69
456.735	7214.82
456.941	7624.42
457.147	7802.59
457.352	8070.87
457.558	8384.21
457.764	8711.89
457.97	8916.69
458.176	9191.11
458.381	9856.7
458.587	9727.68
458.793	10454.71
458.999	10446.52
459.204	11794.08
459.41	12234.39
459.616	11832.99
459.821	12639.89
460.027	13172.36
460.233	13690.5
460.438	13772.42
460.644	14763.64
460.85	14741.11
461.055	15425.13
461.261	16408.15
461.466	15648.36
461.672	16156.25
461.878	18030.15
462.083	18042.43
462.289	18099.78
462.494	19019.32
462.7	19248.69
462.905	19230.26
463.111	20958.74
463.316	21751.31
463.522	22482.43
463.727	23309.81
463.932	23606.77
464.138	24823.26
464.343	25673.17
464.549	25763.28
464.754	27602.35
464.959	28147.11
465.165	28831.13
465.37	28677.54
465.575	28896.67
465.781	30860.67
465.986	31450.49
466.191	30973.31
466.397	31040.89
466.602	30942.59
466.807	32503.14
467.012	32777.57
467.218	33412.44
467.423	33621.33
467.628	34798.91
467.833	36209.96
468.038	35712.31
468.244	34874.69
468.449	36773.16
468.654	36441.39
468.859	36060.46
469.064	36097.33
469.269	35370.3
469.474	35558.71
469.679	36525.35
469.885	35448.12
470.09	36123.95
470.295	36330.79
470.5	35247.42
470.705	35378.49
470.91	34688.32
471.115	34147.66
471.32	35130.69
471.525	34553.16
471.73	33813.84
471.935	33391.96
472.139	32451.94
472.344	32400.74
472.549	32349.54
472.754	31440.25
472.959	30997.88
473.164	29889.93
473.369	29396.37
473.574	30152.07
473.778	29629.84
473.983	28718.5
474.188	28960.16
474.393	27110.84
474.598	27219.38
474.802	26312.13
475.007	26293.7
475.212	25630.16
475.417	25058.77
475.621	24903.13
475.826	24497.63
476.031	23705.07
476.235	23361.01
476.44	23371.25
476.645	22801.91
476.849	22480.38
477.054	22400.51
477.259	21659.15
477.463	21605.9
477.668	21204.5
477.872	20913.69
478.077	20383.26
478.282	19803.69
478.486	19854.89
478.691	19531.31
478.895	19422.76
479.1	19234.35
479.304	19220.02
479.509	18331.2
479.713	18638.39
479.918	18224.7
480.122	18046.53
480.326	17913.41
480.531	18054.72
480.735	17546.83
480.94	17276.49
481.144	17968.71
481.348	17243.73
481.553	17047.12
481.757	16574.04
481.961	17049.17
482.166	16674.39
482.37	16881.24
482.574	16227.93
482.778	16164.45
482.983	16690.77
483.187	16166.49
483.391	16168.54
483.595	15816.29
483.8	15539.82
484.004	15777.38
484.208	15679.08
484.412	15509.1
484.616	15292.01
484.821	14960.24
485.025	14661.24
485.229	14855.79
485.433	14380.67
485.637	14456.44
485.841	14112.38
486.045	14003.84
486.249	13993.6
486.453	13432.46
486.657	13514.38
486.861	13256.33
487.065	12662.42
487.269	12832.4
487.473	12502.68
487.677	12465.82
487.881	12510.87
488.085	11912.86
488.289	12097.18
488.493	11531.94
488.697	11728.55
488.901	11579.04
489.105	11148.97
489.309	11065
489.512	10997.42
489.716	10452.66
489.92	10485.43
490.124	10159.8
490.328	10249.91
490.531	9709.25
490.735	9811.65
490.939	9514.69
491.143	9363.14
491.346	9162.44
491.55	8980.17
491.754	8920.78
491.958	8912.59
492.161	8677.07
492.365	8562.39
492.569	8306.39
492.772	8361.69
492.976	8154.84
493.18	8060.63
493.383	8154.84
493.587	7888.6
493.79	7784.16
493.994	7718.62
494.197	7470.82
494.401	7581.41
494.605	7560.93
494.808	7341.8
495.012	7333.61
495.215	7370.47
495.419	7272.17
495.622	7134.95
495.825	7120.62
496.029	7028.46
496.232	7194.34
496.436	6975.21
496.639	7304.93
496.843	6872.81
497.046	6938.35
497.249	7261.93
497.453	7161.58
497.656	7089.9
497.859	7044.84
498.063	7012.07
498.266	7212.78
498.469	6993.64
498.673	7038.7
498.876	7159.53
499.079	7055.08
499.282	7116.52
499.485	7286.5
499.689	7274.21
499.892	7233.25
500.095	7368.42
500.298	7591.65
500.501	7270.12
500.705	7663.33
500.908	7620.32
501.111	7458.53
501.314	7718.62
501.517	7780.06
501.72	7939.8
501.923	7677.66
502.126	7958.24
502.329	8328.92
502.532	8189.66
502.735	8394.45
502.938	8255.19
503.141	8376.02
503.344	8541.91
503.547	8457.94
503.75	8507.09
503.953	8797.9
504.156	9105.1
504.359	9082.57
504.562	9117.39
504.765	9164.49
504.968	9469.64
505.17	9598.66
505.373	9766.59
505.576	9811.65
505.779	10030.78
505.982	10061.5
506.185	10485.43
506.387	10538.68
506.59	10856.11
506.793	10901.17
506.996	11028.14
507.198	11554.47
507.401	11425.45
507.604	11691.68
507.807	12215.96
508.009	12334.75
508.212	12349.08
508.415	12598.93
508.617	12859.03
508.82	13428.36
509.022	13491.85
509.225	13987.46
509.428	14108.29
509.63	14225.02
509.833	14460.54
510.035	15148.65
510.238	15214.19
510.44	15552.1
510.643	16215.65
510.845	16193.12
511.048	16541.27
511.25	16834.13
511.453	17368.65
511.655	17921.6
511.858	18259.52
512.06	18671.16
512.262	19220.02
512.465	19136.05
512.667	19713.58
512.87	20184.61
513.072	20747.8
513.274	21491.21
513.477	21659.15
513.679	22435.33
513.881	22416.9
514.084	23123.44
514.286	23574
514.488	23899.62
514.69	24677.85
514.893	25089.49
515.095	25454.03
515.297	26299.84
515.499	26590.66
515.701	27155.89
515.904	28145.06
516.106	28904.86
516.308	29156.76
516.51	29937.04
516.712	30143.88
516.914	30698.88
517.116	31403.38
517.318	31569.27
517.52	32161.13
517.722	32796
517.925	33660.24
518.127	34549.06
518.329	34960.7
518.531	34942.27
518.733	35982.64
518.935	36504.87
519.136	37338.4
519.338	37913.87
519.54	38591.75
519.742	39099.65
519.944	39171.33
520.146	40066.29
520.348	40666.34
520.55	41610.46
520.752	41299.17
520.954	42237.14
521.155	42652.87
521.357	43197.63
521.559	43629.76
521.761	44919.98
521.963	44657.84
522.164	45155.49
522.366	45092.01
522.568	46124.18
522.77	45567.13
522.971	46726.28
523.173	46668.94
523.375	47393.92
523.576	46976.14
523.778	47340.67
523.98	47588.48
524.181	47840.38
524.383	48071.8
524.584	48669.81
524.786	48329.84
524.988	48254.07
525.189	48921.71
525.391	48680.05
525.592	48997.48
525.794	48682.09
525.995	49032.3
526.197	48753.77
526.398	48878.7
526.6	48880.75
526.801	48641.14
527.003	48839.79
527.204	48630.9
527.406	48561.26
527.607	48182.39
527.808	48182.39
528.01	47168.65
528.211	47117.45
528.412	47377.54
528.614	47076.49
528.815	46996.62
529.016	46916.75
529.218	45636.76
529.419	45905.05
529.62	44993.7
529.822	44985.51
530.023	44248.24
530.224	44035.25
530.425	43779.26
530.626	43039.94
530.828	42413.26
531.029	42855.62
531.23	42108.11
531.431	41485.53
531.632	41319.65
531.833	40738.02
532.035	40336.62
532.236	39759.09
532.437	39273.73
532.638	38819.08
532.839	38380.81
533.04	38040.85
533.241	36914.47
533.442	37491.99
533.643	36699.43
533.844	35917.11
534.045	35548.47
534.246	34903.36
534.447	34671.94
534.648	34149.71
534.849	33938.77
535.05	33252.7
535.251	32902.5
535.451	32322.92
535.652	31991.15
535.853	31356.28
536.054	31384.95
536.255	30801.28
536.456	29953.42
536.657	30285.19
536.857	29238.68
537.058	29230.49
537.259	29009.31
537.46	28767.65
537.66	27624.88
537.861	27315.64
538.062	27366.84
538.263	26654.14
538.463	26129.86
538.664	26090.95
538.865	26062.28
539.065	25476.56
539.266	25085.4
539.466	25040.34
539.667	24491.49
539.868	24440.29
540.068	23721.45
540.269	23625.2
540.469	23580.14
540.67	23297.52
540.87	22765.05
541.071	22521.34
541.271	22496.77
541.472	22052.36
541.672	21954.05
541.873	21751.31
542.073	20966.93
542.274	21141.01
542.474	20946.45
542.675	20864.53
542.875	20504.09
543.075	20270.62
543.276	19803.69
543.476	20022.82
543.676	19686.95
543.877	19256.88
544.077	19490.35
544.277	18716.22
544.478	18472.51
544.678	18677.3
544.878	18193.98
545.078	18314.81
545.279	17839.69
545.479	17524.3
545.679	17483.34
545.879	17026.64
546.079	16948.82
546.28	16893.52
546.48	16678.49
546.68	16516.7
546.88	16330.33
547.08	16260.7
547.28	15834.72
547.48	15531.62
547.68	15521.38
547.88	15357.55
548.081	15365.74
548.281	14831.22
548.481	14571.13
548.681	14610.04
548.881	14272.12
549.081	14253.69
549.28	13903.49
549.48	13760.13
549.68	13895.3
549.88	13581.96
550.08	12977.81
550.28	13051.53
550.48	13055.63
550.68	13043.34
550.88	12437.14
551.08	12379.8
551.279	12324.51
551.479	11919.01
551.679	12011.17
551.879	11751.07
552.079	11517.61
552.278	11241.13
552.478	11366.06
552.678	11003.57
552.878	10972.85
553.077	10720.95
553.277	10475.19
553.477	10524.34
553.676	10297.02
553.876	9989.82
554.076	9920.19
554.275	9713.35
554.475	9592.51
554.674	9459.4
554.874	9336.52
555.074	9115.34
555.273	8863.44
555.473	8937.16
555.672	8599.25
555.872	8597.2
556.071	8396.5
556.271	8388.31
556.47	8169.18
556.67	8064.73
556.869	7812.83
557.068	7689.95
557.268	7706.34
557.467	7624.42
557.667	7495.39
557.866	7235.3
558.065	7290.6
558.265	7196.39
558.464	6749.93
558.663	6846.19
558.863	6694.64
559.062	6801.13
559.261	6508.27
559.461	6627.06
559.66	6303.48
559.859	6283
560.058	6004.47
560.258	6123.26
560.457	5771.01
560.656	5897.98
560.855	5738.24
561.054	5656.32
561.253	5646.08
561.453	5535.49
561.652	5289.73
561.851	5451.52
562.05	5140.23
562.249	5097.22
562.448	5117.7
562.647	4953.87
562.846	4917
563.045	4962.06
563.244	4654.86
563.443	4716.3
563.642	4714.25
563.841	4814.6
564.04	4484.88
564.239	4615.95
564.438	4462.35
564.637	4249.36
564.836	4136.73
565.035	4181.78
565.234	4132.63
565.432	3874.59
565.631	4085.53
565.83	4022.04
566.029	3884.83
566.228	3843.87
566.427	4001.56
566.625	3727.13
566.824	3649.31
567.023	3626.78
567.222	3364.64
567.42	3569.44
567.619	3559.2
567.818	3540.77
568.016	3563.29
568.215	3268.39
568.414	3284.77
568.612	3301.15
568.811	3266.34
569.01	3145.51
569.208	3141.41
569.407	3178.28
569.605	3053.35
569.804	2934.57
570.002	2953
570.201	2783.02
570.4	2905.9
570.598	2797.35
570.797	2746.16
570.995	2721.58
571.193	2703.15
571.392	2717.48
571.59	2606.89
571.789	2570.03
571.987	2582.32
572.186	2557.74
572.384	2486.06
572.582	2416.43
572.781	2549.55
572.979	2352.95
573.177	2191.16
573.376	2303.79
573.574	2223.92
573.772	2168.63
573.971	2160.44
574.169	2033.46
574.367	2221.88
574.565	2096.95
574.763	2027.32
574.962	2078.52
575.16	2002.74
575.358	1883.96
575.556	1881.91
575.754	1922.87
575.952	1918.78
576.151	1910.58
576.349	1843
576.547	1793.85
576.745	1834.81
576.943	1703.74
577.141	1812.28
577.339	1494.85
577.537	1726.27
577.735	1761.08
577.933	1670.97
578.131	1591.1
578.329	1652.54
578.527	1519.42
578.725	1537.85
578.923	1437.5
579.121	1498.94
579.319	1314.63
579.516	1367.87
579.714	1650.49
579.912	1369.92
580.11	1261.38
580.308	1218.37
580.506	1310.53
580.704	1173.32
580.901	1230.66
581.099	1263.43
581.297	1191.75
581.495	1318.72
581.692	1275.71
581.89	1304.39
582.088	1095.49
582.285	1163.08
582.483	1097.54
582.681	1032.01
582.878	1050.44
583.076	1132.36
583.274	1158.98
583.471	1177.41
583.669	997.19
583.866	898.89
584.064	964.42
584.262	948.04
584.459	911.18
584.657	937.8
584.854	964.42
585.052	962.37
585.249	995.14
585.447	864.07
585.644	819.02
585.841	1062.73
586.039	939.85
586.236	880.46
586.434	841.54
586.631	796.49
586.828	831.3
587.026	810.82
587.223	724.81
587.42	681.8
587.618	804.68
587.815	808.78
588.012	808.78
588.21	782.15
588.407	759.63
588.604	794.44
588.801	685.9
588.999	724.81
589.196	823.11
589.393	591.69
589.59	673.61
589.787	851.78
589.984	687.95
590.182	710.47
590.379	638.8
590.576	655.18
590.773	644.94
590.97	659.28
591.167	675.66
591.364	677.71
591.561	642.89
591.758	679.75
591.955	698.19
592.152	694.09
592.349	616.27
592.546	624.46
592.743	589.64
592.94	710.47
593.137	689.99
593.334	677.71
593.531	749.39
593.727	759.63
593.924	689.99
594.121	620.36
594.318	679.75
594.515	606.03
594.712	730.95
594.908	880.46
595.105	554.83
595.302	712.52
595.499	743.24
595.696	839.5
595.892	704.33
596.089	831.3
596.286	692.04
596.482	843.59
596.679	821.06
596.876	780.11
597.072	857.93
597.269	802.63
597.466	847.69
597.662	923.46
597.859	839.5
598.055	886.6
598.252	935.75
598.448	1077.06
598.645	1021.77
598.841	1077.06
599.038	1240.9
599.234	1134.4
599.431	1124.16
599.627	1187.65
599.824	1322.82
600.02	1249.09
600.217	1281.86
600.413	1470.27
600.609	1429.31
600.806	1730.36
601.002	1589.05
601.198	1498.94
601.395	1644.35
601.591	1750.84
601.787	1804.09
601.984	1920.82
602.18	2008.89
602.376	2021.17
602.572	2185.01
602.769	2318.13
602.965	2205.49
603.161	2314.03
603.357	2445.1
603.553	2500.4
603.75	2354.99
603.946	2680.62
604.142	2668.33
604.338	2993.96
604.534	2967.34
604.73	2965.29
604.926	3129.13
605.122	3221.28
605.318	3168.04
605.514	3411.75
605.71	3569.44
605.906	3686.17
606.102	3534.62
606.298	3880.73
606.494	3995.42
606.69	4161.3
606.886	4177.69
607.082	4284.18
607.278	4380.43
607.474	4423.44
607.67	4613.9
607.866	4611.85
608.062	4986.63
608.257	4998.92
608.453	5080.84
608.649	5293.83
608.845	5289.73
609.041	5422.85
609.236	5709.57
609.432	6000.38
609.628	6067.96
609.824	6237.94
610.019	6291.19
610.215	6551.28
610.411	6661.87
610.606	6903.53
610.802	6960.88
610.998	7460.58
611.193	7378.66
611.389	7415.52
611.584	7696.1
611.78	7890.65
611.976	8263.38
612.171	8609.49
612.367	8685.26
612.562	8791.76
612.758	9053.9
612.953	9160.39
613.149	9418.44
613.344	9510.6
613.539	10151.61
613.735	10020.54
613.93	10843.82
614.126	10630.84
614.321	11026.09
614.517	11288.23
614.712	11693.73
614.907	11933.34
615.103	12455.58
615.298	12535.45
615.493	12803.73
615.688	12891.79
615.884	13768.32
616.079	13782.66
616.274	14347.9
616.47	14530.17
616.665	14843.51
616.86	15292.01
617.055	15541.86
617.25	16178.78
617.445	16801.36
617.641	16619.1
617.836	17405.52
618.031	17651.27
618.226	17956.42
618.421	18562.62
618.616	18949.68
618.811	19021.36
619.006	19852.84
619.201	20053.54
619.396	20747.8
619.591	20874.77
619.786	21485.07
619.981	21818.89
620.176	22455.81
620.371	22642.17
620.566	23496.17
620.761	23850.47
620.956	24464.86
621.151	24692.19
621.346	25265.62
621.541	25529.81
621.735	26338.76
621.93	26553.79
622.125	26942.91
622.32	26998.2
622.515	28059.05
622.709	28462.5
622.904	29277.59
623.099	29709.71
623.294	30285.19
623.488	30737.79
623.683	31292.79
623.878	30997.88
624.072	32337.26
624.267	32335.21
624.462	33029.47
624.656	33103.2
624.851	34049.36
625.046	34098.51
625.24	34880.83
625.435	35372.35
625.629	35820.85
625.824	36150.57
626.018	37162.27
626.213	36609.32
626.407	37891.35
626.602	37772.56
626.796	38624.52
626.991	38761.73
627.185	38688.01
627.38	39191.81
627.574	39402.75
627.768	39552.25
627.963	39458.04
628.157	39578.87
628.352	40602.86
628.546	39937.27
628.74	40885.48
628.935	40000.75
629.129	40041.71
629.323	39857.4
629.517	39453.95
629.712	39318.78
629.906	39548.15
630.1	38741.25
630.294	38739.21
630.489	38145.3
630.683	38075.66
630.877	36810.02
631.071	36183.34
631.265	36029.74
631.459	35294.52
631.653	34385.22
631.848	33811.79
632.042	32929.12
632.236	32499.05
632.43	31249.78
632.624	30598.53
632.818	29623.7
633.012	28681.63
633.206	27694.51
633.4	27043.26
633.594	26097.1
633.788	25503.18
633.982	24645.09
634.176	23852.52
634.369	22629.88
634.563	22150.66
634.757	20715.03
634.951	20463.13
635.145	19576.36
635.339	18908.72
635.533	17884.74
635.726	17454.67
635.92	16215.65
636.114	15894.11
636.308	14923.38
636.501	14681.72
636.695	14139.01
636.889	13407.88
637.083	12828.31
637.276	12183.2
637.47	11966.11
637.664	11269.8
637.857	10909.36
638.051	10585.78
638.244	10092.22
638.438	9633.47
638.632	9492.16
638.825	9058
639.019	8619.73
639.212	7995.1
639.406	7868.13
639.599	7360.23
639.793	7243.49
639.986	7024.36
640.18	6821.61
640.373	6559.47
640.567	6219.51
640.76	6012.67
640.954	5625.6
641.147	5482.24
641.34	5316.36
641.534	5109.51
641.727	5091.08
641.92	4712.21
642.114	4599.57
642.307	4429.59
642.5	4355.86
642.694	4046.62
642.887	3925.79
643.08	3862.3
643.273	3583.77
643.467	3534.62
643.66	3321.63
643.853	3125.03
644.046	3125.03
644.239	2920.23
644.432	2803.5
644.626	2619.18
644.819	2651.95
645.012	2584.37
645.205	2617.13
645.398	2443.06
645.591	2248.5
645.784	2117.43
645.977	2025.27
646.17	2070.33
646.363	1853.24
646.556	1961.78
646.749	1748.79
646.942	1736.51
647.135	1742.65
647.328	1572.67
647.521	1630.01
647.714	1480.51
647.907	1455.94
648.099	1292.1
648.292	1445.7
648.485	1314.63
648.678	1326.91
648.871	1175.36
649.064	1120.07
649.256	1029.96
649.449	1017.67
649.642	966.47
649.835	950.09
650.027	921.42
650.22	980.81
650.413	784.2
650.605	823.11
650.798	902.98
650.991	806.73
651.183	788.3
651.376	765.77
651.568	788.3
651.761	735.05
651.954	724.81
652.146	620.36
652.339	745.29
652.531	687.95
652.724	470.86
652.916	567.12
653.109	401.23
653.301	593.74
653.494	552.78
653.686	524.11
653.879	530.25
654.071	575.31
654.263	434
654.456	401.23
654.648	565.07
654.84	501.58
655.033	472.91
655.225	540.49
655.417	268.11
655.61	497.49
655.802	415.57
655.994	505.68
656.186	397.14
656.379	434
656.571	272.21
656.763	274.26
656.955	218.96
657.148	253.78
657.34	362.32
657.532	225.11
657.724	282.45
657.916	313.17
658.108	376.66
658.3	405.33
658.492	261.97
658.684	259.92
658.876	329.55
659.068	141.14
659.26	233.3
659.452	198.48
659.644	264.02
659.836	335.7
660.028	233.3
660.22	145.24
660.412	225.11
660.604	218.96
660.796	257.87
660.988	204.63
661.18	202.58
661.372	221.01
661.563	106.32
661.755	180.05
661.947	120.66
662.139	132.95
662.331	251.73
662.522	214.87
662.714	169.81
662.906	155.47
663.097	112.47
663.289	147.28
663.481	18.26
663.673	229.2
663.864	161.62
664.056	223.06
664.247	100.18
664.439	239.44
664.631	245.59
664.822	231.25
665.014	180.05
665.205	153.43
665.397	139.09
665.588	171.86
665.78	169.81
665.971	221.01
666.163	120.66
666.354	75.6
666.546	116.56
666.737	149.33
666.929	32.6
667.12	145.24
667.311	165.71
667.503	192.34
667.694	225.11
667.885	180.05
668.077	190.29
668.268	36.69
668.459	137.04
668.651	143.19
668.842	116.56
669.033	71.51
669.224	12.12
669.416	317.26
669.607	128.85
669.798	114.52
669.989	253.78
670.18	116.56
670.371	155.47
670.563	-8.36
670.754	163.67
670.945	108.37
671.136	120.66
671.327	61.27
671.518	235.35
671.709	196.43
671.9	194.39
672.091	178
672.282	153.43
672.473	102.23
672.664	8.02
672.855	79.7
673.046	126.8
673.237	221.01
673.428	186.19
673.619	249.68
673.809	98.13
674	235.35
674.191	161.62
674.382	175.95
674.573	126.8
674.764	194.39
674.954	268.11
675.145	112.47
675.336	10.07
675.527	24.4
675.717	46.93
675.908	91.99
676.099	147.28
676.289	223.06
676.48	3.93
676.671	112.47
676.861	81.75
677.052	124.76
677.243	130.9
677.433	106.32
677.624	34.64
677.814	175.95
678.005	89.94
678.195	280.4
678.386	14.17
678.576	149.33
678.767	81.75
678.957	188.24
679.148	243.54
679.338	264.02
679.529	182.1
679.719	163.67
679.909	210.77
680.1	251.73
680.29	196.43
680.481	22.36
680.671	192.34
680.861	184.15
681.052	169.81
681.242	83.8
681.432	243.54
681.622	171.86
681.813	38.74
682.003	145.24
682.193	77.65
682.383	212.82
682.573	159.57
682.764	194.39
682.954	124.76
683.144	233.3
683.334	28.5
683.524	239.44
683.714	110.42
683.904	155.47
684.094	130.9
684.284	194.39
684.474	302.93
684.664	196.43
684.854	94.04
685.044	147.28
685.234	200.53
685.424	192.34
685.614	155.47
685.804	313.17
685.994	178
686.184	208.72
686.374	190.29
686.564	194.39
686.753	173.91
686.943	89.94
687.133	71.51
687.323	161.62
687.513	208.72
687.702	157.52
687.892	110.42
688.082	292.69
688.272	241.49
688.461	132.95
688.651	298.83
688.841	188.24
689.03	161.62
689.22	132.95
689.41	194.39
689.599	202.58
689.789	120.66
689.979	266.07
690.168	157.52
690.358	147.28
690.547	202.58
690.737	198.48
690.926	208.72
691.116	339.79
691.305	270.16
691.495	255.83
691.684	147.28
691.874	157.52
692.063	120.66
692.252	247.63
692.442	313.17
692.631	120.66
692.82	143.19
693.01	126.8
693.199	196.43
693.388	167.76
693.578	186.19
693.767	233.3
693.956	261.97
694.146	106.32
694.335	186.19
694.524	171.86
694.713	188.24
694.902	171.86
695.092	159.57
695.281	216.91
695.47	210.77
695.659	188.24
695.848	190.29
696.037	145.24
696.226	253.78
696.415	190.29
696.604	276.31
696.793	225.11
696.982	218.96
697.171	235.35
697.36	198.48
697.549	194.39
697.738	32.6
697.927	96.08
698.116	73.56
698.305	253.78
698.494	159.57
698.683	208.72
698.872	335.7
699.061	157.52
699.25	89.94
699.438	188.24
699.627	141.14
699.816	196.43
700.005	96.08
700.193	104.28
700.382	227.15
700.571	163.67
700.76	91.99
700.948	186.19
701.137	243.54
701.326	237.39
701.514	57.17
701.703	161.62
701.892	214.87
702.08	347.98
702.269	184.15
702.457	147.28
702.646	130.9
702.834	157.52
703.023	276.31
703.212	190.29
703.4	163.67
703.589	216.91
703.777	126.8
703.965	124.76
704.154	87.89
704.342	116.56
704.531	190.29
704.719	171.86
704.907	251.73
705.096	69.46
705.284	57.17
705.472	65.36
705.661	175.95
705.849	276.31
706.037	247.63
706.226	184.15
706.414	190.29
706.602	159.57
706.79	157.52
706.979	120.66
707.167	196.43
707.355	40.79
707.543	155.47
707.731	218.96
707.919	161.62
708.107	130.9
708.296	126.8
708.484	169.81
708.672	102.23
708.86	169.81
709.048	196.43
709.236	57.17
709.424	218.96
709.612	184.15
709.8	112.47
709.988	61.27
710.176	175.95
710.364	237.39
710.551	182.1
710.739	167.76
710.927	102.23
711.115	237.39
711.303	251.73
711.491	182.1
711.679	108.37
711.866	239.44
712.054	128.85
712.242	202.58
712.43	186.19
712.617	161.62
712.805	135
712.993	159.57
713.181	124.76
713.368	163.67
713.556	214.87
713.744	157.52
713.931	313.17
714.119	202.58
714.306	175.95
714.494	57.17
714.682	247.63
714.869	34.64
715.057	206.67
715.244	57.17
715.432	223.06
715.619	100.18
715.807	120.66
715.994	36.69
716.182	198.48
716.369	280.4
716.556	261.97
716.744	44.88
716.931	116.56
717.119	110.42
717.306	124.76
717.493	221.01
717.681	151.38
717.868	126.8
718.055	259.92
718.242	165.71
718.43	173.91
718.617	247.63
718.804	161.62
718.991	243.54
719.179	225.11
719.366	161.62
719.553	171.86
719.74	139.09
719.927	175.95
720.114	194.39
720.301	87.89
720.488	106.32
720.676	112.47
720.863	247.63
721.05	309.07
721.237	249.68
721.424	255.83
721.611	182.1
721.798	106.32
721.985	91.99
722.172	169.81
722.358	159.57
722.545	264.02
722.732	227.15
722.919	225.11
723.106	247.63
723.293	165.71
723.48	137.04
723.667	132.95
723.853	249.68
724.04	243.54
724.227	229.2
724.414	87.89
724.6	282.45
724.787	307.02
724.974	302.93
725.161	110.42
725.347	206.67
725.534	155.47
725.72	296.78
725.907	196.43
726.094	210.77
726.28	171.86
726.467	259.92
726.653	79.7
726.84	372.56
727.027	315.22
727.213	157.52
727.4	257.87
727.586	247.63
727.773	218.96
727.959	204.63
728.145	243.54
728.332	247.63
728.518	169.81
728.705	231.25
728.891	180.05
729.077	266.07
729.264	159.57
729.45	130.9
729.636	229.2
729.823	231.25
730.009	335.7
730.195	165.71
730.382	257.87
730.568	147.28
730.754	196.43
730.94	202.58
731.126	143.19
731.313	212.82
731.499	155.47
731.685	229.2
731.871	204.63
732.057	155.47
732.243	253.78
732.429	257.87
732.615	331.6
732.801	259.92
732.987	178
733.173	206.67
733.359	208.72
733.545	210.77
733.731	194.39
733.917	331.6
734.103	253.78
734.289	218.96
734.475	206.67
734.661	288.59
734.847	272.21
735.033	180.05
735.219	280.4
735.404	126.8
735.59	173.91
735.776	223.06
735.962	261.97
736.148	274.26
736.333	300.88
736.519	261.97
736.705	302.93
736.89	204.63
737.076	171.86
737.262	208.72
737.447	145.24
737.633	188.24
737.819	376.66
738.004	182.1
738.19	268.11
738.375	223.06
738.561	272.21
738.747	243.54
738.932	71.51
739.118	327.5
739.303	241.49
739.489	202.58
739.674	175.95
739.859	143.19
740.045	216.91
740.23	196.43
740.416	22.36
740.601	192.34
740.786	182.1
740.972	184.15
741.157	229.2
741.342	110.42
741.528	106.32
741.713	319.31
741.898	143.19
742.084	202.58
742.269	165.71
742.454	169.81
742.639	153.43
742.824	169.81
743.01	304.98
743.195	347.98
743.38	227.15
743.565	178
743.75	280.4
743.935	178
744.12	288.59
744.305	180.05
744.49	206.67
744.675	255.83
744.86	145.24
745.045	274.26
745.23	159.57
745.415	182.1
745.6	302.93
745.785	149.33
745.97	311.12
746.155	155.47
746.34	141.14
746.525	132.95
746.71	335.7
746.895	112.47
747.079	110.42
747.264	153.43
747.449	188.24
747.634	198.48
747.819	135
748.003	143.19
748.188	147.28
748.373	229.2
748.557	178
748.742	100.18
748.927	188.24
749.111	175.95
749.296	159.57
749.481	198.48
749.665	231.25
749.85	147.28
750.034	180.05
750.219	180.05
750.404	169.81
750.588	221.01
750.773	143.19
750.957	241.49
751.141	173.91
751.326	200.53
751.51	71.51
751.695	175.95
751.879	167.76
752.064	212.82
752.248	96.08
752.432	331.6
752.617	192.34
752.801	198.48
752.985	44.88
753.17	243.54
753.354	198.48
753.538	130.9
753.722	120.66
753.907	155.47
754.091	130.9
754.275	286.54
754.459	194.39
754.643	126.8
754.828	196.43
755.012	202.58
755.196	108.37
755.38	91.99
755.564	112.47
755.748	145.24
755.932	221.01
756.116	169.81
756.3	96.08
756.484	65.36
756.668	200.53
756.852	79.7
757.036	96.08
757.22	153.43
757.404	112.47
757.588	126.8
757.772	216.91
757.956	71.51
758.14	304.98
758.323	51.03
758.507	151.38
758.691	108.37
758.875	175.95
759.059	155.47
759.242	24.4
759.426	155.47
759.61	182.1
759.794	104.28
759.977	157.52
760.161	317.26
760.345	153.43
760.528	169.81
760.712	192.34
760.895	116.56
761.079	89.94
761.263	-12.46
761.446	83.8
761.63	108.37
761.813	227.15
761.997	34.64
762.18	71.51
762.364	87.89
762.547	-22.7
762.731	163.67
762.914	147.28
763.098	53.08
763.281	71.51
763.464	126.8
763.648	192.34
763.831	110.42
764.015	96.08
764.198	192.34
764.381	124.76
764.564	116.56
764.748	116.56
764.931	143.19
765.114	124.76
765.297	159.57
765.481	-6.31
765.664	91.99
765.847	114.52
766.03	161.62
766.213	91.99
766.397	85.84
766.58	3.93
766.763	100.18
766.946	63.32
767.129	26.45
767.312	61.27
767.495	40.79
767.678	-0.17
767.861	114.52
768.044	118.61
768.227	110.42
768.41	44.88
768.593	48.98
768.776	75.6
768.959	71.51
769.142	198.48
769.324	-22.7
769.507	124.76
769.69	79.7
769.873	71.51
770.056	233.3
770.239	69.46
770.421	130.9
770.604	100.18
770.787	46.93
770.97	94.04
771.152	8.02
771.335	91.99
771.518	-96.43
771.7	65.36
771.883	135
772.066	112.47
772.248	77.65
772.431	239.44
772.613	132.95
772.796	114.52
772.978	10.07
773.161	141.14
773.343	77.65
773.526	42.84
773.708	-26.79
773.891	-51.37
774.073	26.45
774.256	-32.94
774.438	137.04
774.621	30.55
774.803	48.98
774.985	3.93
775.168	69.46
775.35	-10.41
775.532	100.18
775.715	-51.37
775.897	61.27
776.079	-26.79
776.261	116.56
776.444	110.42
776.626	59.22
776.808	83.8
776.99	-47.27
777.173	-8.36
777.355	87.89
777.537	30.55
777.719	57.17
777.901	-10.41
778.083	-12.46
778.265	-14.51
778.447	55.12
778.629	30.55
778.811	46.93
778.993	100.18
779.175	102.23
779.357	63.32
779.539	-14.51
779.721	-6.31
779.903	130.9
780.085	3.93
780.267	79.7
780.449	-2.22
780.631	83.8
780.812	200.53
780.994	24.4
781.176	28.5
781.358	-12.46
781.54	-0.17
781.721	102.23
781.903	132.95
782.085	26.45
782.267	89.94
782.448	-0.17
782.63	-22.7
782.812	151.38
782.993	139.09
783.175	96.08
783.357	-47.27
783.538	126.8
783.72	34.64
783.901	42.84
784.083	198.48
784.264	77.65
784.446	-86.19
784.627	-96.43
784.809	67.41
784.99	-2.22
785.172	89.94
785.353	3.93
785.535	63.32
785.716	-16.55
785.897	-14.51
786.079	-16.55
786.26	-45.23
786.441	38.74
786.623	-82.09
786.804	-6.31
786.985	22.36
787.167	65.36
787.348	69.46
787.529	10.07
787.71	178
787.891	75.6
788.073	-75.95
788.254	-41.13
788.435	159.57
788.616	42.84
788.797	-34.99
788.978	-34.99
789.159	-28.84
789.34	44.88
789.522	112.47
789.703	18.26
789.884	-32.94
790.065	38.74
790.246	182.1
790.427	38.74
790.607	108.37
790.788	100.18
790.969	-32.94
791.15	102.23
791.331	16.21
791.512	34.64
791.693	-8.36
791.874	26.45
792.054	206.67
792.235	57.17
792.416	-63.66
792.597	-37.03
792.778	48.98
792.958	30.55
793.139	81.75
793.32	36.69
793.5	14.17
793.681	87.89
793.862	71.51
794.042	34.64
794.223	-88.23
794.404	42.84
794.584	-75.95
794.765	1.88
794.945	32.6
795.126	130.9
795.306	83.8
795.487	-2.22
795.667	-37.03
795.848	20.31
796.028	-16.55
796.209	102.23
796.389	130.9
796.57	-14.51
796.75	-18.6
796.93	34.64
797.111	-51.37
797.291	20.31
797.471	188.24
797.652	46.93
797.832	24.4
798.012	91.99
798.192	-16.55
798.373	3.93
798.553	1.88
798.733	79.7
798.913	-34.99
799.093	-12.46
799.274	71.51
799.454	94.04
799.634	71.51
799.814	79.7
799.994	53.08
800.174	104.28
800.354	26.45
800.534	-32.94
800.714	46.93
800.894	-57.51
801.074	-71.85
801.254	53.08
801.434	55.12
801.614	-16.55
801.794	-123.05
801.974	1754.94
802.154	-4.27
802.334	67.41
802.514	16.21
802.693	28.5
802.873	-43.18
803.053	106.32
803.233	44.88
803.413	-14.51
803.592	-6.31
803.772	57.17
803.952	75.6
804.131	-67.75
804.311	77.65
804.491	57.17
804.67	-8.36
804.85	-80.04
805.03	85.84
805.209	141.14
805.389	-49.32
805.568	-2.22
805.748	-22.7
805.928	55.12
806.107	135
806.287	63.32
806.466	-12.46
806.646	1.88
806.825	-18.6
807.004	-4.27
807.184	14.17
807.363	89.94
807.543	51.03
807.722	-57.51
807.901	67.41
808.081	57.17
808.26	-129.19
808.439	-20.65
808.619	16.21
808.798	44.88
808.977	108.37
809.156	59.22
809.336	12.12
809.515	63.32
809.694	-84.14
809.873	-41.13
810.052	16.21
810.231	110.42
810.411	-67.75
810.59	87.89
810.769	63.32
810.948	22.36
811.127	-26.79
811.306	40.79
811.485	26.45
811.664	102.23
811.843	69.46
812.022	69.46
812.201	-20.65
812.38	14.17
812.559	-4.27
812.737	89.94
812.916	-59.56
813.095	-114.86
813.274	51.03
813.453	-45.23
813.632	12.12
813.811	139.09
813.989	-82.09
814.168	22.36
814.347	-34.99
814.526	3.93
814.704	73.56
814.883	143.19
815.062	-65.71
815.24	5.97
815.419	-28.84
815.598	65.36
815.776	-69.8
815.955	-10.41
816.133	-96.43
816.312	89.94
816.49	-34.99
816.669	-75.95
816.847	-20.65
817.026	26.45
817.204	-16.55
817.383	-32.94
817.561	1.88
817.74	63.32
817.918	65.36
818.097	-73.9
818.275	89.94
818.453	51.03
818.632	75.6
818.81	-10.41
818.988	16.21
819.167	55.12
819.345	55.12
819.523	22.36
819.701	67.41
819.879	55.12
820.058	-6.31
820.236	-0.17
820.414	53.08
820.592	-49.32
820.77	-4.27
820.948	-22.7
821.127	28.5
821.305	75.6
821.483	-108.71
821.661	-8.36
821.839	-20.65
822.017	18.26
822.195	36.69
822.373	71.51
822.551	51.03
822.729	110.42
822.907	51.03
823.085	63.32
823.262	26.45
823.44	-12.46
823.618	-4.27
823.796	38.74
823.974	-41.13
824.152	-172.2
824.329	-24.75
824.507	46.93
824.685	106.32
824.863	-30.89
825.04	30.55
825.218	120.66
825.396	8.02
825.574	12.12
825.751	-18.6
825.929	83.8
826.107	-100.52
826.284	28.5
826.462	1.88
826.639	-43.18
826.817	-137.38
826.994	-14.51
827.172	-10.41
827.349	83.8
827.527	26.45
827.704	-55.47
827.882	46.93
828.059	5.97
828.237	-53.42
828.414	34.64
828.591	-211.11
828.769	14.17
828.946	-88.23
829.124	83.8
829.301	89.94
829.478	12.12
829.655	63.32
829.833	-16.55
830.01	-108.71
830.187	-20.65
830.364	83.8
830.542	-24.75
830.719	139.09
830.896	12.12
831.073	53.08
831.25	51.03
831.427	38.74
831.604	36.69
831.782	-8.36
831.959	-0.17
832.136	-63.66
832.313	-8.36
832.49	-84.14
832.667	63.32
832.844	26.45
833.021	24.4
833.198	22.36
833.374	40.79
833.551	34.64
833.728	-0.17
833.905	69.46
834.082	-43.18
834.259	34.64
834.436	36.69
834.612	-86.19
834.789	96.08
834.966	30.55
835.143	8.02
835.319	-26.79
835.496	-22.7
835.673	71.51
835.85	104.28
836.026	34.64
836.203	20.31
836.38	-90.28
836.556	16.21
836.733	-8.36
836.909	190.29
837.086	-114.86
837.262	-94.38
837.439	69.46
837.616	-22.7
837.792	-16.55
837.968	3.93
838.145	-104.62
838.321	20.31
838.498	34.64
838.674	120.66
838.851	-2.22
839.027	-10.41
839.203	77.65
839.38	22.36
839.556	-28.84
839.732	135
839.909	28.5
840.085	-12.46
840.261	-59.56
840.437	10.07
840.614	-71.85
840.79	30.55
840.966	106.32
841.142	-71.85
841.318	-6.31
841.494	14.17
841.671	71.51
841.847	-14.51
842.023	-61.61
842.199	110.42
842.375	102.23
842.551	-147.62
842.727	-16.55
842.903	120.66
843.079	-116.9
843.255	114.52
843.431	-37.03
843.607	110.42
843.783	-94.38
843.959	182.1
844.134	-32.94
844.31	141.14
844.486	-22.7
844.662	-41.13
844.838	-28.84
845.013	-18.6
845.189	24.4
845.365	1.88
845.541	5.97
845.716	3.93
845.892	81.75
846.068	-18.6
846.244	-47.27
846.419	44.88
846.595	-65.71
846.77	-71.85
846.946	32.6
847.122	-63.66
847.297	-24.75
847.473	128.85
847.648	-65.71
847.824	-43.18
847.999	-49.32
848.175	-0.17
848.35	14.17
848.526	91.99
848.701	57.17
848.876	48.98
849.052	104.28
849.227	87.89
849.403	-30.89
849.578	57.17
849.753	53.08
849.929	71.51
850.104	8.02
850.279	-2.22
850.454	16.21
850.63	-22.7
850.805	110.42
850.98	34.64
851.155	-45.23
851.33	-47.27
851.505	-4.27
851.681	110.42
851.856	-8.36
852.031	-22.7
852.206	26.45
852.381	42.84
852.556	12.12
852.731	91.99
852.906	59.22
853.081	5.97
853.256	130.9
853.431	-28.84
853.606	-65.71
853.781	-98.47
853.956	-110.76
854.131	8.02
854.305	-75.95
854.48	-26.79
854.655	-34.99
854.83	-26.79
855.005	-0.17
855.18	53.08
855.354	-14.51
855.529	116.56
855.704	-80.04
855.879	57.17
856.053	-121
856.228	-6.31
856.403	-108.71
856.577	-2.22
856.752	-37.03
856.926	-26.79
857.101	87.89
857.276	-57.51
857.45	-39.08
857.625	51.03
857.799	14.17
857.974	-41.13
858.148	-43.18
858.323	59.22
858.497	-86.19
858.672	-6.31
858.846	-2.22
859.02	18.26
859.195	-98.47
859.369	-71.85
859.543	18.26
859.718	34.64
859.892	-24.75
860.066	-20.65
860.241	-20.65
860.415	3.93
860.589	-10.41
860.763	8.02
860.938	-30.89
861.112	36.69
861.286	-26.79
861.46	34.64
861.634	-75.95
861.808	73.56
861.982	-39.08
862.157	-166.06
862.331	-55.47
862.505	-151.72
862.679	-82.09
862.853	-22.7
863.027	-28.84
863.201	171.86
863.375	-45.23
863.549	46.93
863.722	89.94
863.896	53.08
864.07	-98.47
864.244	26.45
864.418	69.46
864.592	-16.55
864.766	-6.31
864.939	24.4
865.113	-75.95
865.287	116.56
865.461	-6.31
865.634	46.93
865.808	30.55
865.982	-30.89
866.156	-80.04
866.329	-102.57
866.503	40.79
866.676	71.51
866.85	-106.67
867.024	-57.51
867.197	32.6
867.371	79.7
867.544	28.5
867.718	-155.82
867.891	20.31
868.065	-55.47
868.238	1.88
868.412	32.6
868.585	96.08
868.759	-32.94
868.932	-14.51
869.105	-88.23
869.279	110.42
869.452	-67.75
869.625	-4.27
869.799	-18.6
869.972	-125.1
870.145	-24.75
870.319	44.88
870.492	-123.05
870.665	34.64
870.838	-53.42
871.011	-82.09
871.185	-71.85
871.358	-16.55
871.531	81.75
871.704	-57.51
871.877	67.41
872.05	-82.09
872.223	-65.71
872.396	-24.75
872.569	28.5
872.742	-90.28
872.915	18.26
873.088	-10.41
873.261	-6.31
873.434	100.18
873.607	-18.6
873.78	59.22
873.953	-49.32
874.126	5.97
874.299	-24.75
874.471	-12.46
874.644	-26.79
874.817	3.93
874.99	100.18
875.163	3.93
875.335	-10.41
875.508	-43.18
875.681	143.19
875.853	-59.56
876.026	-12.46
876.199	61.27
876.371	-8.36
876.544	-43.18
876.717	40.79
876.889	-0.17
877.062	12.12
877.234	-80.04
877.407	18.26
877.579	61.27
877.752	34.64
877.924	3.93
878.097	30.55
878.269	5.97
878.442	96.08
878.614	71.51
878.786	8.02
878.959	40.79
879.131	14.17
879.303	-168.1
879.476	-49.32
879.648	71.51
879.82	-47.27
879.993	-102.57
880.165	-65.71
880.337	-80.04
880.509	3.93
880.681	-90.28
880.854	-47.27
881.026	61.27
881.198	167.76
881.37	-22.7
881.542	-39.08
881.714	-65.71
881.886	24.4
882.058	-61.61
882.23	-51.37
882.402	-30.89
882.574	38.74
882.746	8.02
882.918	61.27
883.09	55.12
883.262	-49.32
883.434	30.55
883.606	-28.84
883.778	28.5
883.95	130.9
884.122	-51.37
884.293	-28.84
884.465	26.45
884.637	96.08
884.809	-71.85
884.98	26.45
885.152	12.12
885.324	38.74
885.496	-63.66
885.667	-49.32
885.839	-22.7
886.011	61.27
886.182	94.04
886.354	61.27
886.525	116.56
886.697	18.26
886.869	-30.89
887.04	-14.51
887.212	87.89
887.383	79.7
887.555	-16.55
887.726	-112.81
887.897	-20.65
888.069	-14.51
888.24	73.56
888.412	26.45
888.583	12.12
888.754	-39.08
888.926	-100.52
889.097	-34.99
889.268	-80.04
889.44	51.03
889.611	-26.79
889.782	-102.57
889.953	-4.27
890.125	67.41
890.296	-43.18
890.467	40.79
890.638	-65.71
890.809	36.69
890.98	-8.36
891.151	-0.17
891.323	36.69
891.494	-4.27
891.665	18.26
891.836	-49.32
892.007	1.88
892.178	34.64
892.349	-90.28
892.52	-67.75
892.691	73.56
892.862	-88.23
893.032	-73.9
893.203	-37.03
893.374	-86.19
893.545	75.6
893.716	-67.75
893.887	-34.99
894.057	24.4
894.228	3.93
894.399	-2.22
894.57	38.74
894.74	-18.6
894.911	20.31
895.082	-0.17
895.253	-96.43
895.423	-57.51
895.594	132.95
895.764	12.12
895.935	-71.85
896.106	-0.17
896.276	-28.84
896.447	-8.36
896.617	-57.51
896.788	-28.84
896.958	16.21
897.129	-37.03
897.299	-104.62
897.47	40.79
897.64	-65.71
897.81	-10.41
897.981	-26.79
898.151	3.93
898.322	-6.31
898.492	69.46
898.662	-73.9
898.832	-55.47
899.003	-14.51
899.173	-22.7
899.343	-51.37
899.513	-100.52
