Data from USB4F104151__121__10-46-14-758.txt Node

Date: Wed Feb 26 10:46:14 EST 2025
User: louis
Spectrometer: USB4F10415
Trigger mode: 4
Integration Time (sec): 1.000000E-1
Scans to average: 1
Electric dark correction enabled: true
Nonlinearity correction enabled: false
Boxcar width: 0
XAxis mode: Wavelengths
Number of Pixels in Spectrum: 3648
>>>>>Begin Spectral Data<<<<<
178.204	-376.48
178.424	-376.48
178.644	-376.48
178.864	-431.78
179.084	-396.96
179.304	41.3
179.524	-48.81
179.744	47.44
179.964	65.88
180.184	-9.9
180.404	-20.14
180.624	-38.57
180.844	29.01
181.064	-190.12
181.283	29.01
181.503	-34.47
181.723	129.36
181.943	-71.34
182.163	166.23
182.383	-5.8
182.602	51.54
182.822	164.18
183.042	41.3
183.262	16.73
183.482	76.12
183.701	-32.43
183.921	82.26
184.141	-69.29
184.361	31.06
184.58	-1.71
184.8	55.64
185.02	8.53
185.239	110.93
185.459	108.88
185.679	160.08
185.898	-138.92
186.118	65.88
186.338	100.69
186.557	41.3
186.777	-81.58
186.997	47.44
187.216	-77.48
187.436	155.99
187.655	-5.8
187.875	14.68
188.095	39.25
188.314	106.84
188.534	92.5
188.753	-38.57
188.973	55.64
189.192	141.65
189.412	14.68
189.631	67.92
189.851	55.64
190.07	147.8
190.29	-13.99
190.509	2.39
190.729	12.63
190.948	115.03
191.168	248.15
191.387	65.88
191.607	14.68
191.826	22.87
192.045	80.21
192.265	4.44
192.484	131.41
192.704	65.88
192.923	-59.05
193.142	225.62
193.362	131.41
193.581	213.33
193.8	76.12
194.02	110.93
194.239	29.01
194.458	94.55
194.678	104.79
194.897	98.64
195.116	26.96
195.335	65.88
195.555	69.97
195.774	-65.19
195.993	106.84
196.212	24.92
196.432	-9.9
196.651	-20.14
196.87	-13.99
197.089	188.75
197.308	31.06
197.528	59.73
197.747	-95.91
197.966	80.21
198.185	186.71
198.404	10.58
198.623	106.84
198.842	121.17
199.062	92.5
199.281	76.12
199.5	63.83
199.719	78.16
199.938	65.88
200.157	12.63
200.376	135.51
200.595	129.36
200.814	86.36
201.033	29.01
201.252	143.7
201.471	74.07
201.69	102.74
201.909	55.64
202.128	151.89
202.347	76.12
202.566	26.96
202.785	-54.95
203.004	76.12
203.223	223.57
203.442	76.12
203.661	-102.06
203.879	63.83
204.098	110.93
204.317	-54.95
204.536	139.6
204.755	43.35
204.974	104.79
205.193	-34.47
205.411	82.26
205.63	196.95
205.849	84.31
206.068	33.11
206.287	-44.71
206.505	104.79
206.724	31.06
206.943	2.39
207.162	-61.1
207.381	67.92
207.599	74.07
207.818	39.25
208.037	-42.67
208.255	35.16
208.474	61.78
208.693	20.82
208.911	39.25
209.13	100.69
209.349	88.4
209.567	123.22
209.786	53.59
210.005	133.46
210.223	86.36
210.442	-42.67
210.661	35.16
210.879	39.25
211.098	49.49
211.316	65.88
211.535	131.41
211.753	57.68
211.972	112.98
212.191	33.11
212.409	12.63
212.628	96.6
212.846	-30.38
213.065	80.21
213.283	96.6
213.502	37.2
213.72	33.11
213.938	51.54
214.157	12.63
214.375	102.74
214.594	8.53
214.812	-34.47
215.031	-18.09
215.249	16.73
215.467	35.16
215.686	-9.9
215.904	59.73
216.122	16.73
216.341	233.81
216.559	76.12
216.778	110.93
216.996	184.66
217.214	45.4
217.432	35.16
217.651	-52.91
217.869	-38.57
218.087	8.53
218.306	-54.95
218.524	41.3
218.742	33.11
218.96	31.06
219.179	-11.95
219.397	39.25
219.615	153.94
219.833	131.41
220.051	-52.91
220.27	74.07
220.488	96.6
220.706	39.25
220.924	14.68
221.142	-63.15
221.36	33.11
221.578	94.55
221.796	78.16
222.015	51.54
222.233	112.98
222.451	217.43
222.669	-42.67
222.887	117.08
223.105	0.34
223.323	41.3
223.541	-16.04
223.759	51.54
223.977	108.88
224.195	127.32
224.413	149.84
224.631	133.46
224.849	67.92
225.067	137.56
225.285	-57
225.503	-16.04
225.721	-97.96
225.939	31.06
226.157	-1.71
226.375	221.52
226.592	-3.75
226.81	-5.8
227.028	84.31
227.246	166.23
227.464	24.92
227.682	57.68
227.9	45.4
228.117	112.98
228.335	67.92
228.553	29.01
228.771	72.02
228.989	18.77
229.206	100.69
229.424	0.34
229.642	4.44
229.86	-3.75
230.077	106.84
230.295	33.11
230.513	14.68
230.731	133.46
230.948	84.31
231.166	162.13
231.384	-36.52
231.601	-5.8
231.819	182.61
232.037	55.64
232.254	-128.68
232.472	12.63
232.689	-46.76
232.907	158.03
233.125	26.96
233.342	35.16
233.56	16.73
233.777	26.96
233.995	39.25
234.213	78.16
234.43	49.49
234.648	59.73
234.865	-36.52
235.083	61.78
235.3	63.83
235.518	117.08
235.735	88.4
235.953	102.74
236.17	24.92
236.388	49.49
236.605	41.3
236.822	117.08
237.04	96.6
237.257	-65.19
237.475	-79.53
237.692	37.2
237.909	94.55
238.127	-46.76
238.344	49.49
238.562	72.02
238.779	-30.38
238.996	-22.19
239.214	20.82
239.431	61.78
239.648	-3.75
239.865	59.73
240.083	49.49
240.3	-24.23
240.517	-34.47
240.735	-5.8
240.952	117.08
241.169	88.4
241.386	69.97
241.603	-32.43
241.821	-46.76
242.038	31.06
242.255	119.12
242.472	10.58
242.689	43.35
242.907	72.02
243.124	78.16
243.341	31.06
243.558	43.35
243.775	-85.67
243.992	-50.86
244.209	98.64
244.426	92.5
244.643	24.92
244.86	41.3
245.078	155.99
245.295	82.26
245.512	45.4
245.729	2.39
245.946	47.44
246.163	72.02
246.38	80.21
246.597	170.32
246.814	31.06
247.031	41.3
247.248	16.73
247.464	121.17
247.681	41.3
247.898	12.63
248.115	20.82
248.332	-46.76
248.549	72.02
248.766	158.03
248.983	57.68
249.2	61.78
249.417	104.79
249.633	-32.43
249.85	135.51
250.067	2.39
250.284	67.92
250.501	61.78
250.717	67.92
250.934	-54.95
251.151	102.74
251.368	100.69
251.585	35.16
251.801	12.63
252.018	-69.29
252.235	133.46
252.451	-30.38
252.668	-1.71
252.885	92.5
253.102	67.92
253.318	6.49
253.535	-44.71
253.752	16.73
253.968	74.07
254.185	4.44
254.401	16.73
254.618	149.84
254.835	4.44
255.051	20.82
255.268	51.54
255.484	49.49
255.701	61.78
255.917	76.12
256.134	-22.19
256.351	74.07
256.567	-42.67
256.784	63.83
257	-57
257.217	176.47
257.433	139.6
257.65	16.73
257.866	186.71
258.082	-40.62
258.299	2.39
258.515	88.4
258.732	-1.71
258.948	-67.24
259.165	43.35
259.381	-87.72
259.597	76.12
259.814	-7.85
260.03	35.16
260.246	-32.43
260.463	90.45
260.679	190.8
260.895	78.16
261.112	57.68
261.328	53.59
261.544	12.63
261.761	110.93
261.977	-73.39
262.193	-50.86
262.409	72.02
262.626	80.21
262.842	26.96
263.058	8.53
263.274	80.21
263.49	55.64
263.707	80.21
263.923	47.44
264.139	-38.57
264.355	63.83
264.571	135.51
264.787	112.98
265.004	158.03
265.22	49.49
265.436	-9.9
265.652	-30.38
265.868	125.27
266.084	-26.28
266.3	57.68
266.516	8.53
266.732	78.16
266.948	49.49
267.164	45.4
267.38	43.35
267.596	76.12
267.812	131.41
268.028	26.96
268.244	47.44
268.46	-5.8
268.676	18.77
268.892	63.83
269.108	0.34
269.324	-81.58
269.54	-40.62
269.756	65.88
269.972	-69.29
270.188	10.58
270.403	-7.85
270.619	0.34
270.835	88.4
271.051	78.16
271.267	-1.71
271.483	-69.29
271.698	96.6
271.914	14.68
272.13	53.59
272.346	6.49
272.562	67.92
272.777	98.64
272.993	-1.71
273.209	-9.9
273.425	102.74
273.64	69.97
273.856	188.75
274.072	-24.23
274.287	-18.09
274.503	86.36
274.719	94.55
274.934	51.54
275.15	-59.05
275.366	18.77
275.581	24.92
275.797	115.03
276.012	69.97
276.228	-16.04
276.444	10.58
276.659	123.22
276.875	-11.95
277.09	35.16
277.306	-7.85
277.521	31.06
277.737	55.64
277.952	100.69
278.168	55.64
278.383	10.58
278.599	53.59
278.814	10.58
279.03	33.11
279.245	65.88
279.461	-18.09
279.676	65.88
279.892	-38.57
280.107	14.68
280.322	-3.75
280.538	80.21
280.753	6.49
280.969	65.88
281.184	47.44
281.399	182.61
281.615	33.11
281.83	108.88
282.045	-20.14
282.26	-24.23
282.476	49.49
282.691	57.68
282.906	115.03
283.122	39.25
283.337	20.82
283.552	39.25
283.767	26.96
283.983	59.73
284.198	82.26
284.413	86.36
284.628	24.92
284.843	57.68
285.058	102.74
285.274	35.16
285.489	-77.48
285.704	53.59
285.919	2.39
286.134	-5.8
286.349	41.3
286.564	12.63
286.779	141.65
286.995	16.73
287.21	-48.81
287.425	16.73
287.64	10.58
287.855	82.26
288.07	-65.19
288.285	174.42
288.5	117.08
288.715	51.54
288.93	20.82
289.145	45.4
289.36	84.31
289.575	33.11
289.79	59.73
290.004	41.3
290.219	141.65
290.434	14.68
290.649	37.2
290.864	-48.81
291.079	53.59
291.294	26.96
291.509	53.59
291.724	55.64
291.938	14.68
292.153	80.21
292.368	-7.85
292.583	80.21
292.798	88.4
293.012	63.83
293.227	65.88
293.442	-73.39
293.657	41.3
293.871	121.17
294.086	74.07
294.301	213.33
294.516	49.49
294.73	16.73
294.945	18.77
295.16	57.68
295.374	110.93
295.589	127.32
295.804	8.53
296.018	-18.09
296.233	84.31
296.447	-16.04
296.662	22.87
296.877	92.5
297.091	106.84
297.306	-32.43
297.52	18.77
297.735	45.4
297.949	29.01
298.164	67.92
298.378	8.53
298.593	-34.47
298.807	6.49
299.022	41.3
299.236	180.56
299.451	-16.04
299.665	-34.47
299.88	4.44
300.094	94.55
300.309	18.77
300.523	39.25
300.737	57.68
300.952	82.26
301.166	117.08
301.381	-34.47
301.595	-28.33
301.809	-13.99
302.024	123.22
302.238	-13.99
302.452	108.88
302.667	84.31
302.881	133.46
303.095	78.16
303.309	-9.9
303.524	-9.9
303.738	22.87
303.952	65.88
304.166	96.6
304.381	-104.11
304.595	147.8
304.809	8.53
305.023	43.35
305.237	45.4
305.452	12.63
305.666	33.11
305.88	129.36
306.094	145.75
306.308	43.35
306.522	65.88
306.736	4.44
306.95	123.22
307.164	-1.71
307.379	0.34
307.593	184.66
307.807	63.83
308.021	65.88
308.235	98.64
308.449	-79.53
308.663	29.01
308.877	164.18
309.091	39.25
309.305	43.35
309.519	-112.3
309.733	108.88
309.947	-116.39
310.161	45.4
310.374	106.84
310.588	106.84
310.802	-32.43
311.016	24.92
311.23	123.22
311.444	-13.99
311.658	55.64
311.872	115.03
312.085	117.08
312.299	108.88
312.513	147.8
312.727	102.74
312.941	4.44
313.154	45.4
313.368	0.34
313.582	59.73
313.796	6.49
314.009	51.54
314.223	67.92
314.437	92.5
314.651	43.35
314.864	-38.57
315.078	0.34
315.292	-42.67
315.505	24.92
315.719	57.68
315.933	69.97
316.146	31.06
316.36	-54.95
316.573	125.27
316.787	-38.57
317.001	39.25
317.214	-34.47
317.428	10.58
317.641	10.58
317.855	-7.85
318.068	45.4
318.282	8.53
318.495	170.32
318.709	108.88
318.922	57.68
319.136	141.65
319.349	41.3
319.563	-69.29
319.776	57.68
319.99	-91.82
320.203	133.46
320.417	47.44
320.63	92.5
320.843	119.12
321.057	76.12
321.27	35.16
321.483	149.84
321.697	123.22
321.91	-3.75
322.124	61.78
322.337	22.87
322.55	-1.71
322.763	61.78
322.977	-20.14
323.19	-11.95
323.403	16.73
323.617	55.64
323.83	115.03
324.043	8.53
324.256	76.12
324.469	0.34
324.683	141.65
324.896	0.34
325.109	69.97
325.322	-26.28
325.535	67.92
325.748	76.12
325.962	26.96
326.175	129.36
326.388	49.49
326.601	98.64
326.814	-38.57
327.027	49.49
327.24	223.57
327.453	-75.43
327.666	57.68
327.879	53.59
328.092	35.16
328.305	155.99
328.518	-7.85
328.731	-13.99
328.944	18.77
329.157	72.02
329.37	26.96
329.583	149.84
329.796	104.79
330.009	-22.19
330.222	88.4
330.435	147.8
330.648	76.12
330.861	39.25
331.073	96.6
331.286	82.26
331.499	74.07
331.712	-20.14
331.925	94.55
332.138	-69.29
332.35	123.22
332.563	-11.95
332.776	100.69
332.989	-63.15
333.202	0.34
333.414	18.77
333.627	-9.9
333.84	-44.71
334.053	78.16
334.265	10.58
334.478	55.64
334.691	-18.09
334.903	57.68
335.116	-59.05
335.329	57.68
335.541	88.4
335.754	82.26
335.966	26.96
336.179	20.82
336.392	51.54
336.604	-71.34
336.817	55.64
337.029	80.21
337.242	18.77
337.454	117.08
337.667	131.41
337.88	180.56
338.092	29.01
338.305	43.35
338.517	-50.86
338.729	153.94
338.942	158.03
339.154	-20.14
339.367	-40.62
339.579	72.02
339.792	-13.99
340.004	135.51
340.217	57.68
340.429	61.78
340.641	-1.71
340.854	31.06
341.066	-57
341.278	63.83
341.491	147.8
341.703	76.12
341.915	-16.04
342.128	147.8
342.34	69.97
342.552	8.53
342.764	76.12
342.977	26.96
343.189	61.78
343.401	80.21
343.613	-67.24
343.826	31.06
344.038	-132.78
344.25	24.92
344.462	-3.75
344.674	94.55
344.886	14.68
345.099	57.68
345.311	24.92
345.523	8.53
345.735	-106.15
345.947	55.64
346.159	14.68
346.371	84.31
346.583	-63.15
346.795	164.18
347.007	-1.71
347.219	-24.23
347.431	-3.75
347.643	57.68
347.855	-1.71
348.067	67.92
348.279	14.68
348.491	92.5
348.703	86.36
348.915	6.49
349.127	-34.47
349.339	59.73
349.551	-50.86
349.763	92.5
349.975	35.16
350.187	162.13
350.399	94.55
350.61	102.74
350.822	53.59
351.034	65.88
351.246	39.25
351.458	76.12
351.669	43.35
351.881	115.03
352.093	151.89
352.305	117.08
352.517	47.44
352.728	174.42
352.94	74.07
353.152	74.07
353.363	20.82
353.575	78.16
353.787	162.13
353.999	59.73
354.21	213.33
354.422	31.06
354.633	-46.76
354.845	37.2
355.057	10.58
355.268	84.31
355.48	108.88
355.692	-52.91
355.903	33.11
356.115	12.63
356.326	-91.82
356.538	106.84
356.749	69.97
356.961	162.13
357.172	37.2
357.384	-32.43
357.595	252.24
357.807	-28.33
358.018	14.68
358.23	24.92
358.441	133.46
358.653	67.92
358.864	12.63
359.075	-38.57
359.287	-32.43
359.498	55.64
359.709	96.6
359.921	8.53
360.132	145.75
360.344	74.07
360.555	51.54
360.766	2.39
360.977	-7.85
361.189	129.36
361.4	65.88
361.611	63.83
361.823	96.6
362.034	6.49
362.245	8.53
362.456	18.77
362.667	84.31
362.879	-48.81
363.09	29.01
363.301	6.49
363.512	26.96
363.723	18.77
363.935	43.35
364.146	151.89
364.357	57.68
364.568	100.69
364.779	-73.39
364.99	141.65
365.201	67.92
365.412	102.74
365.623	-71.34
365.834	24.92
366.045	6.49
366.256	92.5
366.467	149.84
366.678	26.96
366.889	53.59
367.1	-11.95
367.311	151.89
367.522	-18.09
367.733	74.07
367.944	149.84
368.155	14.68
368.366	129.36
368.577	125.27
368.788	90.45
368.999	14.68
369.209	-1.71
369.42	221.52
369.631	297.3
369.842	129.36
370.053	-5.8
370.264	119.12
370.474	-3.75
370.685	0.34
370.896	57.68
371.107	137.56
371.317	106.84
371.528	33.11
371.739	90.45
371.95	-1.71
372.16	158.03
372.371	-52.91
372.582	39.25
372.792	131.41
373.003	51.54
373.214	82.26
373.424	74.07
373.635	-57
373.846	74.07
374.056	-26.28
374.267	12.63
374.477	65.88
374.688	18.77
374.898	121.17
375.109	-1.71
375.319	-24.23
375.53	55.64
375.74	117.08
375.951	6.49
376.161	69.97
376.372	133.46
376.582	-40.62
376.793	45.4
377.003	-89.77
377.214	76.12
377.424	149.84
377.635	8.53
377.845	35.16
378.055	123.22
378.266	12.63
378.476	57.68
378.686	119.12
378.897	74.07
379.107	92.5
379.317	106.84
379.528	72.02
379.738	164.18
379.948	-18.09
380.158	108.88
380.369	88.4
380.579	65.88
380.789	-24.23
380.999	162.13
381.21	131.41
381.42	176.47
381.63	76.12
381.84	33.11
382.05	92.5
382.261	37.2
382.471	90.45
382.681	90.45
382.891	145.75
383.101	12.63
383.311	-69.29
383.521	24.92
383.731	55.64
383.941	67.92
384.151	76.12
384.361	26.96
384.571	86.36
384.781	61.78
384.991	96.6
385.201	194.9
385.411	43.35
385.621	80.21
385.831	57.68
386.041	14.68
386.251	47.44
386.461	141.65
386.671	29.01
386.881	96.6
387.091	-46.76
387.301	151.89
387.511	74.07
387.72	86.36
387.93	86.36
388.14	-85.67
388.35	98.64
388.56	110.93
388.769	170.32
388.979	41.3
389.189	-30.38
389.399	24.92
389.609	100.69
389.818	137.56
390.028	72.02
390.238	59.73
390.447	20.82
390.657	47.44
390.867	12.63
391.076	-26.28
391.286	39.25
391.496	53.59
391.705	37.2
391.915	194.9
392.125	104.79
392.334	8.53
392.544	125.27
392.753	63.83
392.963	-50.86
393.172	59.73
393.382	-63.15
393.591	168.27
393.801	-1.71
394.01	205.14
394.22	141.65
394.429	14.68
394.639	74.07
394.848	74.07
395.058	69.97
395.267	18.77
395.477	209.23
395.686	67.92
395.895	141.65
396.105	205.14
396.314	55.64
396.524	43.35
396.733	6.49
396.942	133.46
397.152	63.83
397.361	106.84
397.57	53.59
397.78	29.01
397.989	86.36
398.198	194.9
398.407	49.49
398.617	45.4
398.826	63.83
399.035	59.73
399.244	147.8
399.453	43.35
399.663	121.17
399.872	121.17
400.081	-61.1
400.29	180.56
400.499	51.54
400.708	147.8
400.917	57.68
401.127	35.16
401.336	-42.67
401.545	219.47
401.754	112.98
401.963	139.6
402.172	35.16
402.381	-22.19
402.59	8.53
402.799	-3.75
403.008	65.88
403.217	29.01
403.426	76.12
403.635	-93.87
403.844	102.74
404.053	35.16
404.262	35.16
404.471	158.03
404.68	31.06
404.888	104.79
405.097	65.88
405.306	78.16
405.515	106.84
405.724	51.54
405.933	86.36
406.142	67.92
406.35	61.78
406.559	49.49
406.768	63.83
406.977	209.23
407.185	121.17
407.394	65.88
407.603	-75.43
407.812	55.64
408.02	158.03
408.229	47.44
408.438	43.35
408.646	-42.67
408.855	84.31
409.064	55.64
409.272	82.26
409.481	88.4
409.69	-3.75
409.898	-13.99
410.107	0.34
410.315	92.5
410.524	35.16
410.733	88.4
410.941	41.3
411.15	96.6
411.358	49.49
411.567	106.84
411.775	-34.47
411.984	16.73
412.192	94.55
412.401	-54.95
412.609	164.18
412.818	108.88
413.026	72.02
413.234	14.68
413.443	37.2
413.651	-26.28
413.86	78.16
414.068	100.69
414.276	178.51
414.485	18.77
414.693	186.71
414.901	297.3
415.11	61.78
415.318	22.87
415.526	121.17
415.734	12.63
415.943	57.68
416.151	155.99
416.359	72.02
416.567	53.59
416.776	108.88
416.984	47.44
417.192	153.94
417.4	24.92
417.608	6.49
417.817	4.44
418.025	115.03
418.233	155.99
418.441	-9.9
418.649	-28.33
418.857	88.4
419.065	168.27
419.273	-26.28
419.481	18.77
419.689	143.7
419.897	26.96
420.105	14.68
420.313	147.8
420.521	104.79
420.729	151.89
420.937	20.82
421.145	0.34
421.353	110.93
421.561	198.99
421.769	47.44
421.977	29.01
422.185	43.35
422.393	-3.75
422.601	149.84
422.809	86.36
423.017	72.02
423.224	29.01
423.432	55.64
423.64	106.84
423.848	123.22
424.056	-28.33
424.263	106.84
424.471	96.6
424.679	151.89
424.887	61.78
425.094	123.22
425.302	59.73
425.51	94.55
425.718	69.97
425.925	29.01
426.133	-24.23
426.341	264.53
426.548	14.68
426.756	29.01
426.964	45.4
427.171	-36.52
427.379	51.54
427.586	41.3
427.794	53.59
428.001	121.17
428.209	76.12
428.417	182.61
428.624	237.91
428.832	131.41
429.039	29.01
429.247	110.93
429.454	137.56
429.662	127.32
429.869	205.14
430.076	61.78
430.284	239.95
430.491	219.47
430.699	149.84
430.906	297.3
431.114	178.51
431.321	141.65
431.528	129.36
431.736	180.56
431.943	205.14
432.15	190.8
432.358	178.51
432.565	250.19
432.772	-1.71
432.979	104.79
433.187	51.54
433.394	254.29
433.601	110.93
433.808	219.47
434.016	194.9
434.223	242
434.43	248.15
434.637	338.26
434.844	244.05
435.052	268.63
435.259	321.87
435.466	217.43
435.673	182.61
435.88	258.39
436.087	336.21
436.294	424.27
436.501	340.3
436.708	375.12
436.915	270.67
437.122	328.02
437.329	272.72
437.537	385.36
437.743	432.46
437.95	448.85
438.157	358.74
438.364	418.13
438.571	465.23
438.778	438.61
438.985	405.84
439.192	457.04
439.399	520.53
439.606	495.95
439.813	596.3
440.02	553.29
440.227	575.82
440.433	579.92
440.64	557.39
440.847	545.1
441.054	575.82
441.261	813.38
441.467	629.07
441.674	643.4
441.881	762.19
442.088	700.75
442.294	821.58
442.501	823.62
442.708	852.3
442.914	751.95
443.121	911.69
443.328	915.78
443.534	975.17
443.741	903.5
443.948	895.3
444.154	1057.09
444.361	1139.01
444.568	1055.05
444.774	1096
444.981	1075.52
445.187	1218.88
445.394	1222.98
445.6	1188.16
445.807	1352
446.013	1284.42
446.22	1227.07
446.426	1352
446.633	1638.72
446.839	1651
447.046	1417.54
447.252	1671.48
447.459	1646.91
447.665	1753.4
447.871	1872.18
448.078	2048.31
448.284	1947.96
448.491	2115.89
448.697	2113.85
448.903	2273.59
449.11	2249.01
449.316	2271.54
449.522	2418.99
449.728	2593.07
449.935	2638.13
450.141	2603.31
450.347	2914.6
450.553	2787.63
450.76	2902.31
450.966	2978.09
451.172	3060.01
451.378	3215.65
451.584	3262.76
451.791	3674.4
451.997	3744.03
452.203	3821.85
452.409	4057.37
452.615	4108.57
452.821	4026.65
453.027	4067.61
453.233	4485.39
453.44	4264.21
453.646	4536.59
453.852	4671.76
454.058	4894.99
454.264	5044.49
454.47	5452.03
454.676	5415.17
454.882	5959.93
455.088	5810.43
455.294	5880.06
455.5	6420.72
455.705	6768.88
455.911	6969.58
456.117	6971.63
456.323	7217.38
456.529	7305.45
456.735	7899.36
456.941	8026.33
457.147	8413.4
457.352	8536.28
457.558	8820.94
457.764	9232.58
457.97	9547.97
458.176	10107.07
458.381	10594.48
458.587	10803.38
458.793	11153.58
458.999	11464.87
459.204	12683.41
459.41	13133.96
459.616	12689.56
459.821	13811.84
460.027	14160
460.233	15100.01
460.438	14915.7
460.644	15890.53
460.85	15820.9
461.055	16506.97
461.261	17395.79
461.466	17059.92
461.672	17156.18
461.878	19370.03
462.083	19028.02
462.289	19714.09
462.494	20398.11
462.7	20590.62
462.905	20770.84
463.111	22421.5
463.316	23459.82
463.522	23980.01
463.727	24555.49
463.932	25372.63
464.138	26425.28
464.343	27555.76
464.549	27983.79
464.754	29720.46
464.959	30562.18
465.165	31199.1
465.37	30691.2
465.575	30832.51
465.781	32718.69
465.986	34221.9
466.191	33294.17
466.397	33988.43
466.602	32941.92
466.807	35063.61
467.012	34998.08
467.218	35764.02
467.423	35774.26
467.628	36871.97
467.833	38971.14
468.038	38231.82
468.244	37287.71
468.449	39321.34
468.654	38240.01
468.859	38502.15
469.064	38422.28
469.269	37463.83
469.474	38039.31
469.679	39012.1
469.885	38092.56
470.09	38301.45
470.295	38608.65
470.5	37840.66
470.705	37867.28
470.91	37087.01
471.115	36677.41
471.32	37359.39
471.525	37142.3
471.73	35987.25
471.935	35618.61
472.139	34297.67
472.344	34625.35
472.549	34492.23
472.754	33294.17
472.959	32866.14
473.164	31946.61
473.369	31395.7
473.574	32106.35
473.778	31637.36
473.983	31018.88
474.188	30861.18
474.393	29022.11
474.598	28970.91
474.802	28047.27
475.007	27996.07
475.212	27615.15
475.417	26529.73
475.621	26357.7
475.826	26075.08
476.031	25458.64
476.235	24928.22
476.44	24909.79
476.645	24233.96
476.849	23914.47
477.054	23896.04
477.259	23115.76
477.463	23005.17
477.668	22310.91
477.872	22515.71
478.077	22011.91
478.282	21137.43
478.486	21078.04
478.691	20844.57
478.895	20441.12
479.1	20465.69
479.304	20140.07
479.509	19585.07
479.713	19884.07
479.918	19585.07
480.122	18939.96
480.326	19167.28
480.531	19058.74
480.735	19009.59
480.94	18583.61
481.144	19349.55
481.348	18233.41
481.553	18571.32
481.757	17471.56
481.961	17909.83
482.166	18069.57
482.37	17875.01
482.574	17266.77
482.778	17309.77
482.983	17676.36
483.187	17336.4
483.391	17076.3
483.595	16867.41
483.8	16451.67
484.004	16525.4
484.208	16633.94
484.412	16390.24
484.616	16212.06
484.821	15898.72
485.025	15579.24
485.229	16033.89
485.433	15503.46
485.637	15306.86
485.841	14794.87
486.045	14760.05
486.249	14678.13
486.453	14465.14
486.657	14311.55
486.861	14026.88
487.065	13535.37
487.269	13541.51
487.473	13009.04
487.677	13422.73
487.881	13029.52
488.085	12730.52
488.289	12834.96
488.493	12460.18
488.697	12302.49
488.901	12232.86
489.105	11960.48
489.309	11696.29
489.512	11415.72
489.716	11208.87
489.92	10746.03
490.124	10711.22
490.328	10885.3
490.531	10467.51
490.735	10371.26
490.939	10162.36
491.143	9859.26
491.346	9713.86
491.55	9484.48
491.754	9531.59
491.958	9437.38
492.161	9076.94
492.365	9124.04
492.569	8818.89
492.772	8818.89
492.976	8755.41
493.18	8440.02
493.383	8429.78
493.587	8466.64
493.79	8511.7
493.994	8059.1
494.197	7999.71
494.401	8130.78
494.605	7799.01
494.808	7858.4
495.012	7823.58
495.215	7696.61
495.419	7739.62
495.622	7465.19
495.825	7739.62
496.029	7586.02
496.232	7389.41
496.436	7635.17
496.639	7579.87
496.843	7387.36
497.046	7364.84
497.249	7555.3
497.453	7545.06
497.656	7231.72
497.859	7436.52
498.063	7489.76
498.266	7674.08
498.469	7409.89
498.673	7401.7
498.876	7538.91
499.079	7583.97
499.282	7397.6
499.485	8012
499.689	7626.98
499.892	7776.48
500.095	7715.04
500.298	7995.61
500.501	7862.49
500.705	8032.47
500.908	7989.47
501.111	8136.92
501.314	8497.36
501.517	8306.9
501.72	8255.7
501.923	8259.8
502.126	8515.8
502.329	8749.26
502.532	8653.01
502.735	8800.46
502.938	9040.08
503.141	9074.89
503.344	9238.73
503.547	9289.93
503.75	9267.4
503.953	9326.79
504.156	9535.68
504.359	9773.25
504.562	9980.09
504.765	9916.61
504.968	10197.18
505.17	10463.41
505.373	10410.17
505.576	10768.56
505.779	10752.18
505.982	10789.04
506.185	11221.16
506.387	11434.15
506.59	11628.71
506.793	11837.6
506.996	11929.76
507.198	12454.04
507.401	12474.52
507.604	12689.56
507.807	12970.13
508.009	13281.42
508.212	13305.99
508.415	13594.76
508.617	13904
508.82	14110.85
509.022	14225.53
509.225	14893.17
509.428	15159.41
509.63	15257.71
509.833	15655.01
510.035	16189.53
510.238	16603.22
510.44	16597.08
510.643	17403.98
510.845	17537.1
511.048	17596.49
511.25	18167.87
511.453	18542.65
511.655	19468.33
511.858	19490.86
512.06	19957.8
512.262	20559.9
512.465	20783.13
512.667	21338.13
512.87	21942.28
513.072	22497.28
513.274	22876.15
513.477	23308.27
513.679	23951.34
513.881	24492
514.084	24887.26
514.286	25376.72
514.488	25790.41
514.69	27131.83
514.893	27254.71
515.095	27248.57
515.297	28327.85
515.499	28643.23
515.701	29427.6
515.904	30160.78
516.106	31018.88
516.308	31502.2
516.51	32266.09
516.712	32464.74
516.914	33304.41
517.116	34363.21
517.318	34506.57
517.52	35258.17
517.722	35800.88
517.925	36306.73
518.127	37375.77
518.329	37881.62
518.531	38197.01
518.733	39196.42
518.935	39692.02
519.136	39986.93
519.338	41283.3
519.54	41393.89
519.742	42458.83
519.944	42833.61
520.146	43585.21
520.348	43828.92
520.55	44338.86
520.752	44916.39
520.954	46272.15
521.155	45713.05
521.357	46685.84
521.559	47505.02
521.761	48277.11
521.963	48213.62
522.164	48823.92
522.366	49247.85
522.568	49968.73
522.77	49802.85
522.971	50716.24
523.173	50237.01
523.375	51179.08
523.576	50884.17
523.778	51537.47
523.98	52010.56
524.181	52129.34
524.383	52268.6
524.584	52848.17
524.786	52985.39
524.988	52833.84
525.189	53292.58
525.391	52923.95
525.592	53544.48
525.794	53454.37
525.995	53337.64
526.197	53020.2
526.398	53077.55
526.6	53163.56
526.801	52878.89
527.003	52866.61
527.204	52643.38
527.406	52649.52
527.607	52626.99
527.808	52477.49
528.01	51455.56
528.211	51764.8
528.412	52160.06
528.614	50890.32
528.815	51099.21
529.016	50904.65
529.218	50089.56
529.419	49927.77
529.62	49430.12
529.822	49192.55
530.023	48449.14
530.224	48180.85
530.425	47892.09
530.626	47189.64
530.828	46392.98
531.029	47009.42
531.23	46251.67
531.431	45237.92
531.632	45317.79
531.833	44502.7
532.035	43968.18
532.236	43841.21
532.437	43261.63
532.638	42211.03
532.839	42479.31
533.04	41854.68
533.241	41144.03
533.442	40978.15
533.643	39925.49
533.844	39380.73
534.045	39282.43
534.246	37945.11
534.447	37998.35
534.648	37304.09
534.849	37383.96
535.05	36050.74
535.251	36020.02
535.451	35667.77
535.652	34731.84
535.853	34664.26
536.054	34398.02
536.255	33728.34
536.456	33015.65
536.657	33136.48
536.857	32876.38
537.058	31895.41
537.259	31713.14
537.46	31422.33
537.66	30498.69
537.861	30556.04
538.062	29937.55
538.263	29706.13
538.463	28934.04
538.664	28534.69
538.865	28444.58
539.065	28395.43
539.266	27727.79
539.466	27719.6
539.667	26795.96
539.868	27017.15
540.068	26111.94
540.269	26142.66
540.469	26023.88
540.67	25534.42
540.87	25083.86
541.071	24940.5
541.271	24807.39
541.472	24266.72
541.672	24344.55
541.873	23734.25
542.073	23132.15
542.274	23437.3
542.474	23134.2
542.675	22652.92
542.875	22802.43
543.075	22276.1
543.276	21819.4
543.476	21878.79
543.676	21760.01
543.877	21499.92
544.077	21067.8
544.277	20758.55
544.478	20690.97
544.678	20531.23
544.878	19963.94
545.078	20019.24
545.279	19492.91
545.479	19386.41
545.679	19353.65
545.879	19361.84
546.079	18737.21
546.28	18468.92
546.48	18069.57
546.68	18198.59
546.88	17954.88
547.08	17866.82
547.28	17426.51
547.48	17096.78
547.68	17254.48
547.88	16793.69
548.081	16916.56
548.281	16220.25
548.481	16115.81
548.681	16308.32
548.881	15720.55
549.081	15806.56
549.28	15605.86
549.48	15302.76
549.68	15063.15
549.88	14948.47
550.08	14579.83
550.28	14655.61
550.48	14323.83
550.68	14162.05
550.88	13949.06
551.08	13791.36
551.279	13467.78
551.479	13109.39
551.679	13228.17
551.879	12638.36
552.079	12918.93
552.278	12495
552.478	12540.05
552.678	12075.17
552.878	12189.85
553.077	12028.06
553.277	11600.04
553.477	11579.56
553.676	11454.63
553.876	11110.57
554.076	11061.42
554.275	10784.94
554.475	10375.35
554.674	10854.58
554.874	10320.06
555.074	10070.2
555.273	10010.81
555.473	9756.86
555.672	9683.14
555.872	9492.68
556.071	9408.71
556.271	9324.74
556.47	8992.97
556.67	8945.87
556.869	8528.08
557.068	8610
557.268	8241.37
557.467	8329.43
557.667	8317.14
557.866	7921.88
558.065	7891.16
558.265	7653.6
558.464	7551.2
558.663	7567.59
558.863	7452.9
559.062	7475.43
559.261	7180.52
559.461	7184.62
559.66	7000.3
559.859	6852.84
560.058	6668.53
560.258	6492.4
560.457	6531.31
560.656	6562.03
560.855	6158.58
561.054	6408.44
561.253	6228.21
561.453	6084.86
561.652	5970.17
561.851	5953.79
562.05	5636.35
562.249	5607.68
562.448	5652.74
562.647	5349.64
562.846	5331.2
563.045	5343.49
563.244	5286.15
563.443	5273.86
563.642	5097.74
563.841	5017.86
564.04	4962.57
564.239	4786.44
564.438	4747.53
564.637	4626.7
564.836	4749.58
565.035	4432.15
565.234	4489.49
565.432	4366.61
565.631	4569.36
565.83	4499.73
566.029	4227.35
566.228	4213.01
566.427	4165.91
566.625	4059.42
566.824	4135.19
567.023	3926.3
567.222	3797.28
567.42	3850.52
567.619	3856.67
567.818	3776.8
568.016	3784.99
568.215	3692.83
568.414	3598.62
568.612	3670.3
568.811	3518.75
569.01	3389.73
569.208	3318.05
569.407	3406.11
569.605	3354.91
569.804	3109.16
570.002	3205.41
570.201	3041.57
570.4	3178.79
570.598	2922.79
570.797	2965.8
570.995	2840.87
571.193	2804.01
571.392	2867.5
571.59	2601.26
571.789	2777.39
571.987	2752.81
572.186	2836.78
572.384	2558.25
572.582	2525.49
572.781	2603.31
572.979	2521.39
573.177	2392.37
573.376	2500.91
573.574	2488.62
573.772	2480.43
573.971	2306.35
574.169	2349.36
574.367	2158.9
574.565	2150.71
574.763	2197.81
574.962	2214.2
575.16	2050.36
575.358	1960.25
575.556	2005.3
575.754	1952.06
575.952	2027.83
576.151	1968.44
576.349	1984.82
576.547	1896.76
576.745	1853.75
576.943	1919.29
577.141	1843.51
577.339	1763.64
577.537	1788.22
577.735	1698.11
577.933	1714.49
578.131	1579.33
578.329	1698.11
578.527	1593.66
578.725	1587.52
578.923	1505.6
579.121	1538.37
579.319	1435.97
579.516	1560.89
579.714	1685.82
579.912	1384.77
580.11	1259.84
580.308	1354.05
580.506	1419.58
580.704	1169.73
580.901	1276.23
581.099	1354.05
581.297	1331.52
581.495	1335.62
581.692	1272.13
581.89	1419.58
582.088	1186.12
582.285	1335.62
582.483	1118.53
582.681	1122.63
582.878	1085.76
583.076	1143.11
583.274	1182.02
583.471	1325.38
583.669	1044.81
583.866	966.98
584.064	962.89
584.262	919.88
584.459	835.91
584.657	1005.89
584.854	1151.3
585.052	1007.94
585.249	1007.94
585.447	837.96
585.644	848.2
585.841	977.22
586.039	1001.8
586.236	1057.09
586.434	889.16
586.631	854.34
586.828	821.58
587.026	837.96
587.223	790.86
587.42	784.71
587.618	870.73
587.815	893.26
588.012	823.62
588.21	710.99
588.407	840.01
588.604	807.24
588.801	713.03
588.999	745.8
589.196	928.07
589.393	641.36
589.59	766.28
589.787	760.14
589.984	688.46
590.182	880.97
590.379	688.46
590.576	655.69
590.773	700.75
590.97	629.07
591.167	797
591.364	706.89
591.561	731.47
591.758	743.75
591.955	700.75
592.152	665.93
592.349	602.44
592.546	594.25
592.743	665.93
592.94	729.42
593.137	702.79
593.334	862.54
593.531	803.15
593.727	743.75
593.924	672.08
594.121	680.27
594.318	645.45
594.515	641.36
594.712	813.38
594.908	729.42
595.105	661.84
595.302	788.81
595.499	719.18
595.696	805.19
595.892	719.18
596.089	770.38
596.286	657.74
596.482	940.36
596.679	860.49
596.876	794.95
597.072	889.16
597.269	940.36
597.466	792.91
597.662	917.83
597.859	899.4
598.055	887.11
598.252	934.22
598.448	1030.47
598.645	1126.72
598.841	1087.81
599.038	1222.98
599.234	1229.12
599.431	1198.4
599.627	1360.19
599.824	1354.05
600.02	1495.36
600.217	1438.02
600.413	1438.02
600.609	1419.58
600.806	1765.69
601.002	1655.1
601.198	1687.87
601.395	1823.03
601.591	1927.48
601.787	1823.03
601.984	1943.86
602.18	1986.87
602.376	2031.93
602.572	2216.24
602.769	2294.07
602.965	2390.32
603.161	2384.18
603.357	2431.28
603.553	2638.13
603.75	2586.93
603.946	2672.94
604.142	2851.11
604.338	2879.79
604.534	2996.52
604.73	3137.83
604.926	3160.36
605.122	3318.05
605.318	3152.17
605.514	3504.42
605.71	3551.52
605.906	3768.6
606.102	3678.49
606.298	4008.22
606.494	3979.54
606.69	4174.1
606.886	4284.69
607.082	4219.16
607.278	4354.32
607.474	4638.99
607.67	4800.78
607.866	4933.9
608.062	4976.91
608.257	5058.82
608.453	5132.55
608.649	5419.27
608.845	5490.95
609.041	5538.05
609.236	5976.31
609.432	6115.58
609.628	6398.2
609.824	6347
610.019	6355.19
610.215	6699.25
610.411	6789.36
610.606	7024.87
610.802	7135.46
610.998	7248.1
611.193	7737.57
611.389	7725.28
611.584	8100.06
611.78	8134.87
611.976	8341.72
612.171	8802.51
612.367	8872.14
612.562	9011.4
612.758	9224.39
612.953	9330.89
613.149	9861.31
613.344	9859.26
613.539	10383.54
613.735	10424.5
613.93	10881.2
614.126	11032.75
614.321	11385
614.517	11901.09
614.712	11880.61
614.907	12165.28
615.103	12449.94
615.298	12681.36
615.493	13023.37
615.688	13082.77
615.884	13916.29
616.079	14016.64
616.274	14532.73
616.47	14643.32
616.665	15292.52
616.86	15556.71
617.055	15962.21
617.25	16371.8
617.445	16717.91
617.641	16947.28
617.836	17424.46
618.031	17737.8
618.226	18640.95
618.421	18739.26
618.616	19216.43
618.811	19537.96
619.006	20228.13
619.201	19953.7
619.396	21024.79
619.591	21237.78
619.786	22200.32
619.981	22165.51
620.176	22933.5
620.371	23132.15
620.566	23476.21
620.761	24088.55
620.956	25042.9
621.151	24932.31
621.346	25597.9
621.541	26091.46
621.735	26808.25
621.93	26585.02
622.125	27652.02
622.32	27885.48
622.515	28417.96
622.709	28766.11
622.904	29919.12
623.099	29908.88
623.294	30625.67
623.488	30945.15
623.683	31596.4
623.878	31659.89
624.072	32630.63
624.267	32960.35
624.462	33202.01
624.656	33488.73
624.851	35022.65
625.046	34950.98
625.24	35622.71
625.435	35739.44
625.629	36249.39
625.824	36790.05
626.018	37347.1
626.213	37363.48
626.407	38162.19
626.602	38027.03
626.796	38493.96
626.991	39620.34
627.185	39104.26
627.38	39706.36
627.574	40126.19
627.768	40201.97
627.963	40146.67
628.157	40122.1
628.352	40593.13
628.546	40443.63
628.74	40914.66
628.935	40691.43
629.129	40994.53
629.323	40230.64
629.517	40169.2
629.712	40109.81
629.906	39675.64
630.1	39008
630.294	39087.87
630.489	38469.39
630.683	38344.46
630.877	36982.56
631.071	36642.6
631.265	36243.24
631.459	35557.17
631.653	34658.12
631.848	34367.3
632.042	33144.67
632.236	32884.58
632.43	31547.25
632.624	31041.4
632.818	30105.48
633.012	29022.11
633.206	28131.24
633.4	27340.72
633.594	26222.53
633.788	25497.55
633.982	24864.73
634.176	24129.51
634.369	22996.98
634.563	22173.7
634.757	21106.71
634.951	20758.55
635.145	20013.09
635.339	19075.12
635.533	18401.34
635.726	17412.17
635.92	16638.04
636.114	15902.82
636.308	15482.99
636.501	14641.27
636.695	14237.82
636.889	13447.3
637.083	13230.22
637.276	12445.85
637.47	12017.82
637.664	11548.84
637.857	11018.41
638.051	10846.38
638.244	10293.43
638.438	9754.82
638.632	9660.61
638.825	9052.36
639.019	8589.52
639.212	8192.22
639.406	8165.59
639.599	7526.63
639.793	7151.85
639.986	6891.76
640.18	6973.67
640.373	6627.57
640.567	6152.44
640.76	6050.04
640.954	5746.94
641.147	5542.14
641.34	5302.53
641.534	5130.5
641.727	4997.39
641.92	4813.07
642.114	4602.13
642.307	4655.37
642.5	4366.61
642.694	4040.98
642.887	3981.59
643.08	3969.3
643.273	3649.82
643.467	3518.75
643.66	3330.34
643.853	3240.23
644.046	3270.95
644.239	2885.93
644.432	2674.99
644.626	2656.56
644.819	2658.6
645.012	2771.24
645.205	2591.02
645.398	2494.77
645.591	2304.31
645.784	2064.69
645.977	1999.16
646.17	2048.31
646.363	1907
646.556	1882.42
646.749	1712.44
646.942	1806.65
647.135	1796.41
647.328	1608
647.521	1538.37
647.714	1521.98
647.907	1466.69
648.099	1352
648.292	1397.06
648.485	1311.04
648.678	1282.37
648.871	1171.78
649.064	1120.58
649.256	1014.09
649.449	1077.57
649.642	903.5
649.835	897.35
650.027	930.12
650.22	960.84
650.413	985.41
650.605	854.34
650.798	794.95
650.991	819.53
651.183	756.04
651.376	790.86
651.568	811.34
651.761	690.51
651.954	770.38
652.146	661.84
652.339	690.51
652.531	692.55
652.724	600.4
652.916	553.29
653.109	436.56
653.301	670.03
653.494	528.72
653.686	489.81
653.879	606.54
654.071	645.45
654.263	465.23
654.456	428.37
654.648	549.2
654.84	481.61
655.033	436.56
655.225	500.05
655.417	325.97
655.61	561.48
655.802	469.33
655.994	541.01
656.186	336.21
656.379	506.19
656.571	319.82
656.763	295.25
656.955	278.87
657.148	274.77
657.34	383.31
657.532	297.3
657.724	285.01
657.916	352.59
658.108	381.26
658.3	309.58
658.492	260.43
658.684	266.58
658.876	373.07
659.068	188.75
659.26	237.91
659.452	264.53
659.644	254.29
659.836	395.6
660.028	213.33
660.22	201.04
660.412	254.29
660.604	190.8
660.796	188.75
660.988	307.54
661.18	198.99
661.372	229.71
661.563	207.19
661.755	291.15
661.947	190.8
662.139	188.75
662.331	201.04
662.522	295.25
662.714	186.71
662.906	115.03
663.097	276.82
663.289	182.61
663.481	74.07
663.673	262.48
663.864	194.9
664.056	194.9
664.247	119.12
664.439	260.43
664.631	217.43
664.822	229.71
665.014	162.13
665.205	106.84
665.397	180.56
665.588	188.75
665.78	166.23
665.971	219.47
666.163	219.47
666.354	248.15
666.546	131.41
666.737	123.22
666.929	98.64
667.12	104.79
667.311	229.71
667.503	133.46
667.694	112.98
667.885	194.9
668.077	219.47
668.268	6.49
668.459	147.8
668.651	319.82
668.842	155.99
669.033	94.55
669.224	45.4
669.416	260.43
669.607	88.4
669.798	35.16
669.989	334.16
670.18	145.75
670.371	211.28
670.563	69.97
670.754	231.76
670.945	252.24
671.136	219.47
671.327	141.65
671.518	237.91
671.709	227.67
671.9	190.8
672.091	264.53
672.282	186.71
672.473	219.47
672.664	170.32
672.855	164.18
673.046	239.95
673.237	246.1
673.428	170.32
673.619	360.78
673.809	88.4
674	266.58
674.191	233.81
674.382	198.99
674.573	106.84
674.764	223.57
674.954	270.67
675.145	76.12
675.336	90.45
675.527	147.8
675.717	117.08
675.908	65.88
676.099	129.36
676.289	168.27
676.48	201.04
676.671	203.09
676.861	174.42
677.052	182.61
677.243	301.39
677.433	170.32
677.624	237.91
677.814	205.14
678.005	160.08
678.195	352.59
678.386	162.13
678.576	143.7
678.767	182.61
678.957	305.49
679.148	205.14
679.338	350.54
679.529	244.05
679.719	242
679.909	250.19
680.1	295.25
680.29	368.98
680.481	192.85
680.671	344.4
680.861	264.53
681.052	248.15
681.242	186.71
681.432	260.43
681.622	287.06
681.813	252.24
682.003	252.24
682.193	244.05
682.383	295.25
682.573	291.15
682.764	256.34
682.954	301.39
683.144	346.45
683.334	219.47
683.524	332.11
683.714	360.78
683.904	272.72
684.094	260.43
684.284	248.15
684.474	448.85
684.664	385.36
684.854	356.69
685.044	276.82
685.234	342.35
685.424	280.91
685.614	270.67
685.804	436.56
685.994	385.36
686.184	254.29
686.374	338.26
686.564	289.1
686.753	295.25
686.943	317.78
687.133	229.71
687.323	344.4
687.513	368.98
687.702	258.39
687.892	221.52
688.082	405.84
688.272	409.94
688.461	287.06
688.651	401.74
688.841	285.01
689.03	246.1
689.22	358.74
689.41	303.44
689.599	364.88
689.789	237.91
689.979	452.94
690.168	227.67
690.358	342.35
690.547	309.58
690.737	250.19
690.926	264.53
691.116	323.92
691.305	321.87
691.495	299.34
691.684	272.72
691.874	254.29
692.063	293.2
692.252	348.5
692.442	258.39
692.631	223.57
692.82	258.39
693.01	229.71
693.199	239.95
693.388	289.1
693.578	250.19
693.767	293.2
693.956	317.78
694.146	205.14
694.335	258.39
694.524	272.72
694.713	368.98
694.902	231.76
695.092	248.15
695.281	301.39
695.47	209.23
695.659	250.19
695.848	209.23
696.037	258.39
696.226	309.58
696.415	194.9
696.604	401.74
696.793	272.72
696.982	229.71
697.171	342.35
697.36	231.76
697.549	237.91
697.738	131.41
697.927	180.56
698.116	235.86
698.305	276.82
698.494	192.85
698.683	311.63
698.872	309.58
699.061	160.08
699.25	180.56
699.438	198.99
699.627	176.47
699.816	409.94
700.005	137.56
700.193	194.9
700.382	235.86
700.571	209.23
700.76	219.47
700.948	321.87
701.137	266.58
701.326	289.1
701.514	141.65
701.703	248.15
701.892	225.62
702.08	407.89
702.269	174.42
702.457	182.61
702.646	297.3
702.834	221.52
703.023	350.54
703.212	254.29
703.4	262.48
703.589	182.61
703.777	186.71
703.965	170.32
704.154	203.09
704.342	112.98
704.531	170.32
704.719	213.33
704.907	266.58
705.096	158.03
705.284	129.36
705.472	285.01
705.661	252.24
705.849	323.92
706.037	319.82
706.226	186.71
706.414	305.49
706.602	172.37
706.79	184.66
706.979	221.52
707.167	223.57
707.355	164.18
707.543	242
707.731	285.01
707.919	207.19
708.107	225.62
708.296	106.84
708.484	90.45
708.672	287.06
708.86	160.08
709.048	299.34
709.236	147.8
709.424	293.2
709.612	242
709.8	61.78
709.988	213.33
710.176	235.86
710.364	340.3
710.551	192.85
710.739	190.8
710.927	205.14
711.115	276.82
711.303	289.1
711.491	346.45
711.679	145.75
711.866	280.91
712.054	227.67
712.242	239.95
712.43	297.3
712.617	256.34
712.805	307.54
712.993	221.52
713.181	223.57
713.368	299.34
713.556	242
713.744	260.43
713.931	463.18
714.119	354.64
714.306	209.23
714.494	153.94
714.682	194.9
714.869	125.27
715.057	217.43
715.244	137.56
715.432	182.61
715.619	225.62
715.807	182.61
715.994	268.63
716.182	194.9
716.369	299.34
716.556	325.97
716.744	86.36
716.931	151.89
717.119	237.91
717.306	242
717.493	258.39
717.681	264.53
717.868	182.61
718.055	276.82
718.242	209.23
718.43	225.62
718.617	436.56
718.804	258.39
718.991	305.49
719.179	282.96
719.366	203.09
719.553	325.97
719.74	278.87
719.927	235.86
720.114	194.9
720.301	198.99
720.488	235.86
720.676	108.88
720.863	321.87
721.05	344.4
721.237	354.64
721.424	252.24
721.611	235.86
721.798	217.43
721.985	219.47
722.172	205.14
722.358	192.85
722.545	340.3
722.732	334.16
722.919	280.91
723.106	280.91
723.293	299.34
723.48	135.51
723.667	213.33
723.853	307.54
724.04	289.1
724.227	395.6
724.414	215.38
724.6	336.21
724.787	407.89
724.974	448.85
725.161	305.49
725.347	231.76
725.534	256.34
725.72	299.34
725.907	305.49
726.094	307.54
726.28	250.19
726.467	280.91
726.653	215.38
726.84	368.98
727.027	399.7
727.213	301.39
727.4	293.2
727.586	309.58
727.773	315.73
727.959	295.25
728.145	321.87
728.332	268.63
728.518	219.47
728.705	233.81
728.891	289.1
729.077	295.25
729.264	180.56
729.45	242
729.636	278.87
729.823	209.23
730.009	405.84
730.195	323.92
730.382	368.98
730.568	188.75
730.754	301.39
730.94	176.47
731.126	244.05
731.313	379.22
731.499	260.43
731.685	344.4
731.871	242
732.057	285.01
732.243	377.17
732.429	291.15
732.615	424.27
732.801	299.34
732.987	198.99
733.173	287.06
733.359	221.52
733.545	313.68
733.731	321.87
733.917	338.26
734.103	272.72
734.289	311.63
734.475	280.91
734.661	420.17
734.847	297.3
735.033	373.07
735.219	276.82
735.404	260.43
735.59	289.1
735.776	246.1
735.962	305.49
736.148	350.54
736.333	393.55
736.519	301.39
736.705	342.35
736.89	282.96
737.076	268.63
737.262	373.07
737.447	282.96
737.633	276.82
737.819	368.98
738.004	354.64
738.19	366.93
738.375	305.49
738.561	424.27
738.747	307.54
738.932	260.43
739.118	414.03
739.303	340.3
739.489	424.27
739.674	260.43
739.859	211.28
740.045	371.02
740.23	319.82
740.416	198.99
740.601	311.63
740.786	307.54
740.972	203.09
741.157	260.43
741.342	198.99
741.528	244.05
741.713	364.88
741.898	258.39
742.084	231.76
742.269	325.97
742.454	391.5
742.639	391.5
742.824	252.24
743.01	330.06
743.195	457.04
743.38	242
743.565	358.74
743.75	258.39
743.935	342.35
744.12	321.87
744.305	242
744.49	260.43
744.675	301.39
744.86	217.43
745.045	303.44
745.23	176.47
745.415	287.06
745.6	334.16
745.785	315.73
745.97	313.68
746.155	227.67
746.34	409.94
746.525	219.47
746.71	426.32
746.895	127.32
747.079	201.04
747.264	291.15
747.449	342.35
747.634	307.54
747.819	317.78
748.003	221.52
748.188	201.04
748.373	332.11
748.557	276.82
748.742	252.24
748.927	250.19
749.111	272.72
749.296	280.91
749.481	262.48
749.665	262.48
749.85	233.81
750.034	272.72
750.219	242
750.404	194.9
750.588	328.02
750.773	219.47
750.957	223.57
751.141	258.39
751.326	325.97
751.51	119.12
751.695	256.34
751.879	153.94
752.064	317.78
752.248	231.76
752.432	268.63
752.617	262.48
752.801	362.83
752.985	203.09
753.17	276.82
753.354	219.47
753.538	307.54
753.722	196.95
753.907	186.71
754.091	86.36
754.275	352.59
754.459	53.59
754.643	158.03
754.828	266.58
755.012	254.29
755.196	129.36
755.38	250.19
755.564	162.13
755.748	125.27
755.932	323.92
756.116	184.66
756.3	246.1
756.484	59.73
756.668	119.12
756.852	106.84
757.036	196.95
757.22	215.38
757.404	125.27
757.588	162.13
757.772	242
757.956	137.56
758.14	252.24
758.323	155.99
758.507	164.18
758.691	33.11
758.875	293.2
759.059	256.34
759.242	104.79
759.426	133.46
759.61	112.98
759.794	125.27
759.977	244.05
760.161	305.49
760.345	219.47
760.528	221.52
760.712	153.94
760.895	133.46
761.079	162.13
761.263	57.68
761.446	151.89
761.63	164.18
761.813	182.61
761.997	39.25
762.18	88.4
762.364	158.03
762.547	-36.52
762.731	133.46
762.914	82.26
763.098	20.82
763.281	94.55
763.464	26.96
763.648	129.36
763.831	127.32
764.015	31.06
764.198	141.65
764.381	51.54
764.564	102.74
764.748	180.56
764.931	209.23
765.114	84.31
765.297	186.71
765.481	47.44
765.664	121.17
765.847	123.22
766.03	254.29
766.213	115.03
766.397	112.98
766.58	45.4
766.763	166.23
766.946	45.4
767.129	45.4
767.312	59.73
767.495	59.73
767.678	100.69
767.861	139.6
768.044	147.8
768.227	110.93
768.41	69.97
768.593	86.36
768.776	92.5
768.959	49.49
769.142	186.71
769.324	145.75
769.507	65.88
769.69	-16.04
769.873	53.59
770.056	305.49
770.239	129.36
770.421	117.08
770.604	182.61
770.787	112.98
770.97	164.18
771.152	37.2
771.335	24.92
771.518	-18.09
771.7	164.18
771.883	190.8
772.066	110.93
772.248	72.02
772.431	198.99
772.613	151.89
772.796	96.6
772.978	149.84
773.161	215.38
773.343	84.31
773.526	55.64
773.708	-48.81
773.891	-24.23
774.073	37.2
774.256	67.92
774.438	227.67
774.621	10.58
774.803	88.4
774.985	35.16
775.168	125.27
775.35	102.74
775.532	88.4
775.715	29.01
775.897	86.36
776.079	8.53
776.261	100.69
776.444	53.59
776.626	55.64
776.808	29.01
776.99	-18.09
777.173	76.12
777.355	110.93
777.537	12.63
777.719	35.16
777.901	76.12
778.083	39.25
778.265	55.64
778.447	160.08
778.629	29.01
778.811	112.98
778.993	41.3
779.175	155.99
779.357	59.73
779.539	104.79
779.721	22.87
779.903	94.55
780.085	45.4
780.267	80.21
780.449	45.4
780.631	160.08
780.812	170.32
780.994	63.83
781.176	72.02
781.358	45.4
781.54	45.4
781.721	131.41
781.903	147.8
782.085	39.25
782.267	127.32
782.448	-71.34
782.63	-1.71
782.812	129.36
782.993	76.12
783.175	145.75
783.357	18.77
783.538	55.64
783.72	-13.99
783.901	49.49
784.083	147.8
784.264	110.93
784.446	-87.72
784.627	-34.47
784.809	88.4
784.99	-18.09
785.172	94.55
785.353	39.25
785.535	72.02
785.716	-63.15
785.897	45.4
786.079	35.16
786.26	53.59
786.441	147.8
786.623	-89.77
786.804	-28.33
786.985	-1.71
787.167	133.46
787.348	24.92
787.529	-24.23
787.71	117.08
787.891	141.65
788.073	-13.99
788.254	-69.29
788.435	227.67
788.616	10.58
788.797	-30.38
788.978	-22.19
789.159	100.69
789.34	0.34
789.522	43.35
789.703	16.73
789.884	141.65
790.065	-22.19
790.246	141.65
790.427	67.92
790.607	155.99
790.788	125.27
790.969	-9.9
791.15	24.92
791.331	2.39
791.512	-32.43
791.693	-30.38
791.874	26.96
792.054	137.56
792.235	133.46
792.416	26.96
792.597	-69.29
792.778	35.16
792.958	67.92
793.139	24.92
793.32	45.4
793.5	-28.33
793.681	110.93
793.862	53.59
794.042	16.73
794.223	-93.87
794.404	-34.47
794.584	-97.96
794.765	-1.71
794.945	22.87
795.126	24.92
795.306	72.02
795.487	33.11
795.667	-5.8
795.848	26.96
796.028	57.68
796.209	100.69
796.389	98.64
796.57	-11.95
796.75	-83.63
796.93	57.68
797.111	12.63
797.291	12.63
797.471	76.12
797.652	26.96
797.832	-38.57
798.012	110.93
798.192	-36.52
798.373	-155.3
798.553	20.82
798.733	88.4
798.913	-5.8
799.093	8.53
799.274	29.01
799.454	69.97
799.634	57.68
799.814	90.45
799.994	127.32
800.174	39.25
800.354	43.35
800.534	-79.53
800.714	57.68
800.894	-79.53
801.074	-130.73
801.254	18.77
801.434	43.35
801.614	-83.63
801.794	-54.95
801.974	1663.29
802.154	-63.15
802.334	69.97
802.514	-22.19
802.693	-9.9
802.873	12.63
803.053	37.2
803.233	74.07
803.413	35.16
803.592	8.53
803.772	-9.9
803.952	10.58
804.131	-52.91
804.311	10.58
804.491	84.31
804.67	-77.48
804.85	-91.82
805.03	65.88
805.209	65.88
805.389	33.11
805.568	-20.14
805.748	-63.15
805.928	69.97
806.107	72.02
806.287	88.4
806.466	67.92
806.646	-36.52
806.825	18.77
807.004	-73.39
807.184	35.16
807.363	67.92
807.543	22.87
807.722	0.34
807.901	51.54
808.081	51.54
808.26	-134.82
808.439	10.58
808.619	26.96
808.798	18.77
808.977	-20.14
809.156	96.6
809.336	-52.91
809.515	35.16
809.694	24.92
809.873	-69.29
810.052	12.63
810.231	127.32
810.411	2.39
810.59	2.39
810.769	-44.71
810.948	76.12
811.127	-157.35
811.306	0.34
811.485	35.16
811.664	141.65
811.843	127.32
812.022	45.4
812.201	-16.04
812.38	-16.04
812.559	-42.67
812.737	45.4
812.916	-61.1
813.095	-81.58
813.274	16.73
813.453	8.53
813.632	12.63
813.811	35.16
813.989	-54.95
814.168	-18.09
814.347	-100.01
814.526	-52.91
814.704	127.32
814.883	133.46
815.062	-34.47
815.24	12.63
815.419	-83.63
815.598	-11.95
815.776	-87.72
815.955	53.59
816.133	-104.11
816.312	-50.86
816.49	-50.86
816.669	29.01
816.847	-38.57
817.026	49.49
817.204	47.44
817.383	14.68
817.561	-73.39
817.74	51.54
817.918	37.2
818.097	-54.95
818.275	-28.33
818.453	8.53
818.632	41.3
818.81	-7.85
818.988	-61.1
819.167	-7.85
819.345	-7.85
819.523	-110.25
819.701	-11.95
819.879	-9.9
820.058	31.06
820.236	-24.23
820.414	-38.57
820.592	-24.23
820.77	-26.28
820.948	-16.04
821.127	-54.95
821.305	20.82
821.483	-124.58
821.661	67.92
821.839	90.45
822.017	-91.82
822.195	-44.71
822.373	37.2
822.551	10.58
822.729	43.35
822.907	16.73
823.085	18.77
823.262	-3.75
823.44	-36.52
823.618	-50.86
823.796	26.96
823.974	-22.19
824.152	-40.62
824.329	-65.19
824.507	41.3
824.685	100.69
824.863	-34.47
825.04	-11.95
825.218	55.64
825.396	-9.9
825.574	26.96
825.751	-7.85
825.929	45.4
826.107	-34.47
826.284	6.49
826.462	10.58
826.639	-106.15
826.817	-151.21
826.994	-50.86
827.172	-18.09
827.349	160.08
827.527	-26.28
827.704	-46.76
827.882	6.49
828.059	-18.09
828.237	31.06
828.414	39.25
828.591	-126.63
828.769	-9.9
828.946	-46.76
829.124	45.4
829.301	74.07
829.478	65.88
829.655	22.87
829.833	-32.43
830.01	-118.44
830.187	35.16
830.364	6.49
830.542	-40.62
830.719	88.4
830.896	22.87
831.073	22.87
831.25	22.87
831.427	49.49
831.604	26.96
831.782	-30.38
831.959	-13.99
832.136	53.59
832.313	-1.71
832.49	12.63
832.667	24.92
832.844	-46.76
833.021	47.44
833.198	12.63
833.374	74.07
833.551	39.25
833.728	0.34
833.905	-36.52
834.082	-75.43
834.259	63.83
834.436	123.22
834.612	-26.28
834.789	61.78
834.966	-48.81
835.143	-3.75
835.319	-40.62
835.496	49.49
835.673	-46.76
835.85	82.26
836.026	-9.9
836.203	18.77
836.38	10.58
836.556	-28.33
836.733	-67.24
836.909	82.26
837.086	-50.86
837.262	-83.63
837.439	-34.47
837.616	-46.76
837.792	-3.75
837.968	-26.28
838.145	-145.06
838.321	-5.8
838.498	6.49
838.674	-13.99
838.851	20.82
839.027	-69.29
839.203	12.63
839.38	84.31
839.556	-67.24
839.732	41.3
839.909	29.01
840.085	8.53
840.261	-48.81
840.437	-1.71
840.614	41.3
840.79	106.84
840.966	-9.9
841.142	74.07
841.318	-50.86
841.494	-46.76
841.671	51.54
841.847	-22.19
842.023	-48.81
842.199	-5.8
842.375	115.03
842.551	-97.96
842.727	-59.05
842.903	100.69
843.079	-42.67
843.255	37.2
843.431	-24.23
843.607	-36.52
843.783	-192.17
843.959	16.73
844.134	-3.75
844.31	82.26
844.486	-77.48
844.662	-54.95
844.838	41.3
845.013	51.54
845.189	18.77
845.365	12.63
845.541	41.3
845.716	-36.52
845.892	104.79
846.068	-67.24
846.244	-61.1
846.419	-50.86
846.595	-50.86
846.77	-140.97
846.946	94.55
847.122	-61.1
847.297	-3.75
847.473	129.36
847.648	-108.2
847.824	-63.15
847.999	-85.67
848.175	-32.43
848.35	0.34
848.526	112.98
848.701	82.26
848.876	49.49
849.052	76.12
849.227	72.02
849.403	20.82
849.578	45.4
849.753	26.96
849.929	110.93
850.104	-91.82
850.279	-11.95
850.454	26.96
850.63	6.49
850.805	18.77
850.98	67.92
851.155	-42.67
851.33	45.4
851.505	-87.72
851.681	110.93
851.856	-79.53
852.031	0.34
852.206	-5.8
852.381	-54.95
852.556	-18.09
852.731	8.53
852.906	47.44
853.081	2.39
853.256	162.13
853.431	-75.43
853.606	-126.63
853.781	-79.53
853.956	-71.34
854.131	22.87
854.305	10.58
854.48	-18.09
854.655	-59.05
854.83	-9.9
855.005	-13.99
855.18	53.59
855.354	-48.81
855.529	31.06
855.704	-5.8
855.879	69.97
856.053	-46.76
856.228	-28.33
856.403	14.68
856.577	16.73
856.752	-89.77
856.926	-9.9
857.101	22.87
857.276	-16.04
857.45	2.39
857.625	47.44
857.799	133.46
857.974	4.44
858.148	-57
858.323	24.92
858.497	-46.76
858.672	39.25
858.846	16.73
859.02	-18.09
859.195	-28.33
859.369	-54.95
859.543	-32.43
859.718	-32.43
859.892	20.82
860.066	14.68
860.241	-40.62
860.415	-32.43
860.589	-87.72
860.763	-38.57
860.938	-48.81
861.112	37.2
861.286	14.68
861.46	-5.8
861.634	-52.91
861.808	41.3
861.982	-26.28
862.157	-128.68
862.331	-28.33
862.505	-61.1
862.679	-126.63
862.853	-7.85
863.027	-42.67
863.201	162.13
863.375	-48.81
863.549	37.2
863.722	2.39
863.896	82.26
864.07	-61.1
864.244	29.01
864.418	53.59
864.592	-42.67
864.766	-36.52
864.939	45.4
865.113	-57
865.287	53.59
865.461	-22.19
865.634	-1.71
865.808	10.58
865.982	-32.43
866.156	-128.68
866.329	-112.3
866.503	51.54
866.676	4.44
866.85	-22.19
867.024	-11.95
867.197	88.4
867.371	51.54
867.544	39.25
867.718	-48.81
867.891	47.44
868.065	-100.01
868.238	8.53
868.412	72.02
868.585	37.2
868.759	-50.86
868.932	-83.63
869.105	12.63
869.279	-24.23
869.452	-52.91
869.625	55.64
869.799	2.39
869.972	-73.39
870.145	26.96
870.319	82.26
870.492	22.87
870.665	16.73
870.838	-61.1
871.011	-167.59
871.185	49.49
871.358	-26.28
871.531	108.88
871.704	-5.8
871.877	14.68
872.05	-13.99
872.223	-102.06
872.396	10.58
872.569	24.92
872.742	-106.15
872.915	49.49
873.088	-20.14
873.261	-89.77
873.434	37.2
873.607	-75.43
873.78	92.5
873.953	-42.67
874.126	6.49
874.299	22.87
874.471	-30.38
874.644	-44.71
874.817	20.82
874.99	80.21
875.163	35.16
875.335	-5.8
875.508	35.16
875.681	18.77
875.853	-7.85
876.026	-3.75
876.199	31.06
876.371	108.88
876.544	-44.71
876.717	-57
876.889	-13.99
877.062	-7.85
877.234	-116.39
877.407	-30.38
877.579	-36.52
877.752	-67.24
877.924	-18.09
878.097	80.21
878.269	59.73
878.442	-50.86
878.614	106.84
878.786	0.34
878.959	16.73
879.131	-7.85
879.303	-120.49
879.476	-20.14
879.648	39.25
879.82	39.25
879.993	-106.15
880.165	-120.49
880.337	-87.72
880.509	12.63
880.681	-192.17
880.854	-77.48
881.026	45.4
881.198	170.32
881.37	35.16
881.542	-48.81
881.714	-24.23
881.886	-57
882.058	14.68
882.23	47.44
882.402	10.58
882.574	-77.48
882.746	33.11
882.918	123.22
883.09	-3.75
883.262	-13.99
883.434	31.06
883.606	-169.64
883.778	-20.14
883.95	117.08
884.122	-122.54
884.293	22.87
884.465	-48.81
884.637	43.35
884.809	-18.09
884.98	14.68
885.152	0.34
885.324	29.01
885.496	-140.97
885.667	-65.19
885.839	-18.09
886.011	65.88
886.182	0.34
886.354	94.55
886.525	-18.09
886.697	-36.52
886.869	-7.85
887.04	-69.29
887.212	88.4
887.383	90.45
887.555	-9.9
887.726	-20.14
887.897	-16.04
888.069	-61.1
888.24	59.73
888.412	35.16
888.583	4.44
888.754	-65.19
888.926	-93.87
889.097	14.68
889.268	-93.87
889.44	-9.9
889.611	-9.9
889.782	-124.58
889.953	0.34
890.125	112.98
890.296	-104.11
890.467	-36.52
890.638	-52.91
890.809	-50.86
890.98	-87.72
891.151	112.98
891.323	53.59
891.494	12.63
891.665	-20.14
891.836	20.82
892.007	-104.11
892.178	80.21
892.349	22.87
892.52	-42.67
892.691	39.25
892.862	-48.81
893.032	-120.49
893.203	-52.91
893.374	53.59
893.545	2.39
893.716	-46.76
893.887	51.54
894.057	22.87
894.228	-11.95
894.399	-124.58
894.57	76.12
894.74	39.25
894.911	39.25
895.082	-48.81
895.253	-61.1
895.423	-11.95
895.594	53.59
895.764	63.83
895.935	-132.78
896.106	-36.52
896.276	41.3
896.447	74.07
896.617	-44.71
896.788	-71.34
896.958	-16.04
897.129	-54.95
897.299	-93.87
897.47	141.65
897.64	51.54
897.81	20.82
897.981	-5.8
898.151	-116.39
898.322	2.39
898.492	18.77
898.662	-44.71
898.832	-50.86
899.003	-63.15
899.173	35.16
899.343	-13.99
899.513	-114.34
