Data from USB4F104151__118__10-46-05-459.txt Node

Date: Wed Feb 26 10:46:05 EST 2025
User: louis
Spectrometer: USB4F10415
Trigger mode: 4
Integration Time (sec): 1.000000E-1
Scans to average: 1
Electric dark correction enabled: true
Nonlinearity correction enabled: false
Boxcar width: 0
XAxis mode: Wavelengths
Number of Pixels in Spectrum: 3648
>>>>>Begin Spectral Data<<<<<
178.204	-354.13
178.424	-354.13
178.644	-354.13
178.864	-450.38
179.084	-327.5
179.304	20.65
179.524	16.55
179.744	45.23
179.964	-18.26
180.184	-38.74
180.404	102.57
180.624	-14.17
180.844	-36.69
181.064	-71.51
181.283	28.84
181.503	-77.65
181.723	43.18
181.943	-145.24
182.163	217.26
182.383	-40.79
182.602	28.84
182.822	116.9
183.042	28.84
183.262	-57.17
183.482	39.08
183.701	16.55
183.921	65.71
184.141	-71.51
184.361	102.57
184.58	57.51
184.8	20.65
185.02	10.41
185.239	110.76
185.459	71.85
185.679	170.15
185.898	-42.84
186.118	28.84
186.338	102.57
186.557	77.99
186.777	-5.97
186.997	-53.08
187.216	61.61
187.436	153.77
187.655	84.14
187.875	137.38
188.095	18.6
188.314	133.29
188.534	63.66
188.753	-51.03
188.973	114.86
189.192	129.19
189.412	12.46
189.631	39.08
189.851	178.34
190.07	166.06
190.29	-20.31
190.509	20.65
190.729	41.13
190.948	127.14
191.168	243.88
191.387	51.37
191.607	45.23
191.826	75.95
192.045	-44.88
192.265	57.51
192.484	98.47
192.704	67.75
192.923	-51.03
193.142	157.86
193.362	114.86
193.581	65.71
193.8	47.27
194.02	26.79
194.239	-8.02
194.458	43.18
194.678	118.95
194.897	80.04
195.116	71.85
195.335	75.95
195.555	102.57
195.774	-30.55
195.993	39.08
196.212	43.18
196.432	20.65
196.651	49.32
196.87	59.56
197.089	241.83
197.308	57.51
197.528	34.99
197.747	-34.64
197.966	77.99
198.185	186.54
198.404	-75.6
198.623	118.95
198.842	75.95
199.062	186.54
199.281	75.95
199.5	65.71
199.719	39.08
199.938	129.19
200.157	73.9
200.376	123.05
200.595	155.82
200.814	112.81
201.033	8.36
201.252	182.44
201.471	80.04
201.69	110.76
201.909	43.18
202.128	172.2
202.347	121
202.566	45.23
202.785	-65.36
203.004	10.41
203.223	219.3
203.442	106.67
203.661	8.36
203.879	45.23
204.098	194.73
204.317	26.79
204.536	106.67
204.755	16.55
204.974	90.28
205.193	43.18
205.411	73.9
205.63	110.76
205.849	20.65
206.068	57.51
206.287	-34.64
206.505	104.62
206.724	-18.26
206.943	57.51
207.162	24.75
207.381	53.42
207.599	73.9
207.818	73.9
208.037	-42.84
208.255	8.36
208.474	108.71
208.693	84.14
208.911	24.75
209.13	80.04
209.349	45.23
209.567	92.33
209.786	139.43
210.005	121
210.223	24.75
210.442	-184.15
210.661	53.42
210.879	96.43
211.098	53.42
211.316	-24.4
211.535	61.61
211.753	-10.07
211.972	49.32
212.191	-57.17
212.409	-51.03
212.628	53.42
212.846	-59.22
213.065	73.9
213.283	92.33
213.502	-10.07
213.72	86.19
213.938	59.56
214.157	2.22
214.375	186.54
214.594	-3.93
214.812	84.14
215.031	73.9
215.249	-5.97
215.467	104.62
215.686	26.79
215.904	121
216.122	32.94
216.341	225.45
216.559	80.04
216.778	125.1
216.996	153.77
217.214	28.84
217.432	-30.55
217.651	-46.93
217.869	88.23
218.087	30.89
218.306	-22.36
218.524	-10.07
218.742	69.8
218.96	20.65
219.179	86.19
219.397	18.6
219.615	237.74
219.833	69.8
220.051	-5.97
220.27	131.24
220.488	26.79
220.706	104.62
220.924	16.55
221.142	16.55
221.36	32.94
221.578	39.08
221.796	57.51
222.015	65.71
222.233	118.95
222.451	204.97
222.669	43.18
222.887	80.04
223.105	28.84
223.323	80.04
223.541	-28.5
223.759	53.42
223.977	26.79
224.195	209.06
224.413	92.33
224.631	80.04
224.849	53.42
225.067	200.87
225.285	-1.88
225.503	12.46
225.721	-3.93
225.939	26.79
226.157	12.46
226.375	176.3
226.592	22.7
226.81	30.89
227.028	94.38
227.246	137.38
227.464	98.47
227.682	98.47
227.9	106.67
228.117	92.33
228.335	90.28
228.553	-18.26
228.771	55.47
228.989	12.46
229.206	90.28
229.424	-18.26
229.642	2.22
229.86	82.09
230.077	37.03
230.295	32.94
230.513	172.2
230.731	112.81
230.948	102.57
231.166	159.91
231.384	4.27
231.601	-51.03
231.819	123.05
232.037	30.89
232.254	-77.65
232.472	22.7
232.689	22.7
232.907	161.96
233.125	18.6
233.342	8.36
233.56	-69.46
233.777	43.18
233.995	51.37
234.213	94.38
234.43	49.32
234.648	55.47
234.865	-18.26
235.083	39.08
235.3	71.85
235.518	94.38
235.735	116.9
235.953	131.24
236.17	59.56
236.388	41.13
236.605	71.85
236.822	159.91
237.04	149.67
237.257	43.18
237.475	-89.94
237.692	98.47
237.909	75.95
238.127	-22.36
238.344	80.04
238.562	94.38
238.779	-20.31
238.996	-48.98
239.214	39.08
239.431	4.27
239.648	10.41
239.865	96.43
240.083	65.71
240.3	28.84
240.517	6.31
240.735	12.46
240.952	141.48
241.169	71.85
241.386	80.04
241.603	28.84
241.821	-44.88
242.038	88.23
242.255	98.47
242.472	-44.88
242.689	61.61
242.907	63.66
243.124	63.66
243.341	55.47
243.558	8.36
243.775	-102.23
243.992	-59.22
244.209	147.62
244.426	155.82
244.643	92.33
244.86	-63.32
245.078	149.67
245.295	10.41
245.512	80.04
245.729	4.27
245.946	108.71
246.163	18.6
246.38	22.7
246.597	102.57
246.814	88.23
247.031	34.99
247.248	39.08
247.464	92.33
247.681	32.94
247.898	92.33
248.115	77.99
248.332	0.17
248.549	139.43
248.766	82.09
248.983	123.05
249.2	45.23
249.417	141.48
249.633	0.17
249.85	-28.5
250.067	94.38
250.284	88.23
250.501	63.66
250.717	73.9
250.934	-30.55
251.151	2.22
251.368	28.84
251.585	28.84
251.801	88.23
252.018	-48.98
252.235	102.57
252.451	-44.88
252.668	-16.21
252.885	41.13
253.102	59.56
253.318	88.23
253.535	-20.31
253.752	16.55
253.968	-91.99
254.185	-51.03
254.401	57.51
254.618	-12.12
254.835	30.89
255.051	123.05
255.268	0.17
255.484	8.36
255.701	53.42
255.917	43.18
256.134	-34.64
256.351	30.89
256.567	-51.03
256.784	-14.17
257	-48.98
257.217	57.51
257.433	55.47
257.65	73.9
257.866	135.34
258.082	-55.12
258.299	2.22
258.515	41.13
258.732	47.27
258.948	24.75
259.165	6.31
259.381	-30.55
259.597	-5.97
259.814	10.41
260.03	-8.02
260.246	-87.89
260.463	182.44
260.679	65.71
260.895	80.04
261.112	139.43
261.328	41.13
261.544	59.56
261.761	125.1
261.977	-24.4
262.193	-46.93
262.409	28.84
262.626	43.18
262.842	55.47
263.058	-67.41
263.274	180.39
263.49	53.42
263.707	110.76
263.923	69.8
264.139	20.65
264.355	88.23
264.571	182.44
264.787	57.51
265.004	118.95
265.22	123.05
265.436	-75.6
265.652	0.17
265.868	75.95
266.084	-32.6
266.3	43.18
266.516	12.46
266.732	75.95
266.948	-36.69
267.164	34.99
267.38	155.82
267.596	80.04
267.812	159.91
268.028	82.09
268.244	51.37
268.46	63.66
268.676	22.7
268.892	137.38
269.108	-22.36
269.324	37.03
269.54	-14.17
269.756	108.71
269.972	10.41
270.188	63.66
270.403	0.17
270.619	-26.45
270.835	59.56
271.051	100.52
271.267	51.37
271.483	-10.07
271.698	65.71
271.914	-10.07
272.13	43.18
272.346	45.23
272.562	84.14
272.777	61.61
272.993	28.84
273.209	22.7
273.425	141.48
273.64	16.55
273.856	67.75
274.072	-44.88
274.287	-3.93
274.503	86.19
274.719	47.27
274.934	-26.45
275.15	-81.75
275.366	45.23
275.581	2.22
275.797	-14.17
276.012	-46.93
276.228	6.31
276.444	73.9
276.659	102.57
276.875	-69.46
277.09	-44.88
277.306	28.84
277.521	67.75
277.737	-14.17
277.952	55.47
278.168	-34.64
278.383	61.61
278.599	137.38
278.814	131.24
279.03	82.09
279.245	82.09
279.461	-8.02
279.676	102.57
279.892	-12.12
280.107	-46.93
280.322	-1.88
280.538	133.29
280.753	14.51
280.969	-26.45
281.184	24.75
281.399	118.95
281.615	-12.12
281.83	18.6
282.045	41.13
282.26	-20.31
282.476	73.9
282.691	63.66
282.906	24.75
283.122	16.55
283.337	-5.97
283.552	71.85
283.767	-55.12
283.983	63.66
284.198	6.31
284.413	98.47
284.628	-24.4
284.843	129.19
285.058	51.37
285.274	63.66
285.489	18.6
285.704	125.1
285.919	-59.22
286.134	4.27
286.349	26.79
286.564	-10.07
286.779	157.86
286.995	12.46
287.21	-8.02
287.425	149.67
287.64	32.94
287.855	8.36
288.07	-53.08
288.285	155.82
288.5	82.09
288.715	112.81
288.93	67.75
289.145	-16.21
289.36	96.43
289.575	-63.32
289.79	75.95
290.004	43.18
290.219	161.96
290.434	-26.45
290.649	-96.08
290.864	0.17
291.079	63.66
291.294	127.14
291.509	59.56
291.724	73.9
291.938	-40.79
292.153	112.81
292.368	20.65
292.583	108.71
292.798	131.24
293.012	-42.84
293.227	14.51
293.442	61.61
293.657	96.43
293.871	102.57
294.086	20.65
294.301	221.35
294.516	131.24
294.73	65.71
294.945	-10.07
295.16	22.7
295.374	143.53
295.589	77.99
295.804	-34.64
296.018	88.23
296.233	135.34
296.447	34.99
296.662	-20.31
296.877	106.67
297.091	67.75
297.306	84.14
297.52	-61.27
297.735	100.52
297.949	24.75
298.164	-3.93
298.378	18.6
298.593	32.94
298.807	45.23
299.022	94.38
299.236	135.34
299.451	-22.36
299.665	80.04
299.88	16.55
300.094	116.9
300.309	4.27
300.523	30.89
300.737	-18.26
300.952	71.85
301.166	88.23
301.381	34.99
301.595	18.6
301.809	2.22
302.024	28.84
302.238	-18.26
302.452	149.67
302.667	18.6
302.881	172.2
303.095	131.24
303.309	4.27
303.524	-8.02
303.738	51.37
303.952	-18.26
304.166	41.13
304.381	-116.56
304.595	170.15
304.809	2.22
305.023	26.79
305.237	-24.4
305.452	67.75
305.666	98.47
305.88	118.95
306.094	137.38
306.308	10.41
306.522	145.58
306.736	108.71
306.95	75.95
307.164	82.09
307.379	26.79
307.593	170.15
307.807	118.95
308.021	129.19
308.235	80.04
308.449	-67.41
308.663	32.94
308.877	272.55
309.091	88.23
309.305	47.27
309.519	-53.08
309.733	133.29
309.947	-32.6
310.161	8.36
310.374	77.99
310.588	188.58
310.802	-65.36
311.016	16.55
311.23	0.17
311.444	-14.17
311.658	43.18
311.872	86.19
312.085	172.2
312.299	112.81
312.513	96.43
312.727	43.18
312.941	-22.36
313.154	8.36
313.368	55.47
313.582	14.51
313.796	188.58
314.009	53.42
314.223	149.67
314.437	118.95
314.651	102.57
314.864	30.89
315.078	10.41
315.292	37.03
315.505	51.37
315.719	121
315.933	82.09
316.146	-16.21
316.36	-10.07
316.573	151.72
316.787	137.38
317.001	61.61
317.214	4.27
317.428	67.75
317.641	-10.07
317.855	12.46
318.068	45.23
318.282	61.61
318.495	194.73
318.709	45.23
318.922	32.94
319.136	121
319.349	63.66
319.563	-38.74
319.776	55.47
319.99	-67.41
320.203	77.99
320.417	0.17
320.63	104.62
320.843	147.62
321.057	82.09
321.27	84.14
321.483	65.71
321.697	180.39
321.91	39.08
322.124	45.23
322.337	51.37
322.55	-24.4
322.763	18.6
322.977	-20.31
323.19	39.08
323.403	94.38
323.617	26.79
323.83	129.19
324.043	96.43
324.256	159.91
324.469	-18.26
324.683	137.38
324.896	94.38
325.109	59.56
325.322	18.6
325.535	82.09
325.748	84.14
325.962	0.17
326.175	59.56
326.388	100.52
326.601	131.24
326.814	-30.55
327.027	0.17
327.24	196.78
327.453	-79.7
327.666	51.37
327.879	145.58
328.092	100.52
328.305	49.32
328.518	-28.5
328.731	0.17
328.944	104.62
329.157	34.99
329.37	22.7
329.583	65.71
329.796	86.19
330.009	-1.88
330.222	73.9
330.435	43.18
330.648	96.43
330.861	4.27
331.073	-10.07
331.286	47.27
331.499	71.85
331.712	-18.26
331.925	32.94
332.138	-32.6
332.35	94.38
332.563	-30.55
332.776	174.25
332.989	-36.69
333.202	28.84
333.414	73.9
333.627	123.05
333.84	-1.88
334.053	22.7
334.265	-12.12
334.478	-10.07
334.691	-1.88
334.903	28.84
335.116	88.23
335.329	14.51
335.541	57.51
335.754	190.63
335.966	-12.12
336.179	49.32
336.392	71.85
336.604	-30.55
336.817	88.23
337.029	80.04
337.242	37.03
337.454	114.86
337.667	22.7
337.88	73.9
338.092	45.23
338.305	164.01
338.517	-34.64
338.729	102.57
338.942	121
339.154	-96.08
339.367	-63.32
339.579	102.57
339.792	-16.21
340.004	82.09
340.217	20.65
340.429	112.81
340.641	-38.74
340.854	22.7
341.066	59.56
341.278	194.73
341.491	186.54
341.703	67.75
341.915	-48.98
342.128	147.62
342.34	34.99
342.552	-40.79
342.764	-5.97
342.977	26.79
343.189	4.27
343.401	-16.21
343.613	-85.84
343.826	-20.31
344.038	-114.52
344.25	96.43
344.462	2.22
344.674	45.23
344.886	8.36
345.099	112.81
345.311	71.85
345.523	22.7
345.735	-108.37
345.947	43.18
346.159	86.19
346.371	30.89
346.583	-63.32
346.795	227.5
347.007	59.56
347.219	67.75
347.431	34.99
347.643	127.14
347.855	-40.79
348.067	94.38
348.279	-30.55
348.491	28.84
348.703	77.99
348.915	6.31
349.127	-12.12
349.339	47.27
349.551	49.32
349.763	73.9
349.975	32.94
350.187	94.38
350.399	131.24
350.61	75.95
350.822	-67.41
351.034	92.33
351.246	4.27
351.458	71.85
351.669	104.62
351.881	155.82
352.093	118.95
352.305	174.25
352.517	80.04
352.728	129.19
352.94	67.75
353.152	45.23
353.363	45.23
353.575	96.43
353.787	145.58
353.999	88.23
354.21	178.34
354.422	-3.93
354.633	51.37
354.845	24.75
355.057	18.6
355.268	34.99
355.48	96.43
355.692	-73.56
355.903	100.52
356.115	12.46
356.326	-100.18
356.538	104.62
356.749	88.23
356.961	98.47
357.172	0.17
357.384	-28.5
357.595	186.54
357.807	-3.93
358.018	-20.31
358.23	45.23
358.441	176.3
358.653	139.43
358.864	75.95
359.075	-18.26
359.287	34.99
359.498	94.38
359.709	114.86
359.921	-20.31
360.132	88.23
360.344	22.7
360.555	59.56
360.766	57.51
360.977	73.9
361.189	147.62
361.4	28.84
361.611	200.87
361.823	127.14
362.034	30.89
362.245	-59.22
362.456	12.46
362.667	96.43
362.879	-3.93
363.09	34.99
363.301	100.52
363.512	-51.03
363.723	-1.88
363.935	0.17
364.146	96.43
364.357	-34.64
364.568	73.9
364.779	-51.03
364.99	102.57
365.201	37.03
365.412	14.51
365.623	-75.6
365.834	92.33
366.045	129.19
366.256	90.28
366.467	106.67
366.678	12.46
366.889	102.57
367.1	-16.21
367.311	67.75
367.522	-3.93
367.733	92.33
367.944	24.75
368.155	-8.02
368.366	65.71
368.577	121
368.788	151.72
368.999	-5.97
369.209	34.99
369.42	155.82
369.631	239.78
369.842	127.14
370.053	-24.4
370.264	100.52
370.474	-3.93
370.685	137.38
370.896	45.23
371.107	92.33
371.317	94.38
371.528	26.79
371.739	114.86
371.95	77.99
372.16	51.37
372.371	34.99
372.582	80.04
372.792	86.19
373.003	30.89
373.214	37.03
373.424	30.89
373.635	-28.5
373.846	151.72
374.056	26.79
374.267	51.37
374.477	110.76
374.688	28.84
374.898	137.38
375.109	53.42
375.319	59.56
375.53	121
375.74	67.75
375.951	67.75
376.161	82.09
376.372	118.95
376.582	20.65
376.793	45.23
377.003	-18.26
377.214	65.71
377.424	32.94
377.635	39.08
377.845	39.08
378.055	198.82
378.266	-61.27
378.476	14.51
378.686	141.48
378.897	51.37
379.107	92.33
379.317	-14.17
379.528	14.51
379.738	98.47
379.948	-85.84
380.158	86.19
380.369	61.61
380.579	69.8
380.789	55.47
380.999	30.89
381.21	108.71
381.42	219.3
381.63	20.65
381.84	59.56
382.05	37.03
382.261	110.76
382.471	178.34
382.681	10.41
382.891	170.15
383.101	49.32
383.311	-22.36
383.521	67.75
383.731	86.19
383.941	125.1
384.151	114.86
384.361	92.33
384.571	41.13
384.781	61.61
384.991	198.82
385.201	161.96
385.411	127.14
385.621	59.56
385.831	112.81
386.041	37.03
386.251	67.75
386.461	104.62
386.671	37.03
386.881	34.99
387.091	32.94
387.301	55.47
387.511	2.22
387.72	69.8
387.93	65.71
388.14	-55.12
388.35	55.47
388.56	180.39
388.769	94.38
388.979	20.65
389.189	-16.21
389.399	49.32
389.609	39.08
389.818	80.04
390.028	41.13
390.238	108.71
390.447	28.84
390.657	84.14
390.867	24.75
391.076	-46.93
391.286	88.23
391.496	53.42
391.705	-1.88
391.915	106.67
392.125	159.91
392.334	6.31
392.544	227.5
392.753	30.89
392.963	-12.12
393.172	-57.17
393.382	18.6
393.591	207.02
393.801	47.27
394.01	268.45
394.22	90.28
394.429	39.08
394.639	43.18
394.848	108.71
395.058	24.75
395.267	55.47
395.477	125.1
395.686	92.33
395.895	202.92
396.105	147.62
396.314	106.67
396.524	6.31
396.733	67.75
396.942	125.1
397.152	51.37
397.361	77.99
397.57	77.99
397.78	92.33
397.989	22.7
398.198	209.06
398.407	-1.88
398.617	-28.5
398.826	75.95
399.035	55.47
399.244	73.9
399.453	82.09
399.663	18.6
399.872	69.8
400.081	0.17
400.29	143.53
400.499	-44.88
400.708	77.99
400.917	-1.88
401.127	75.95
401.336	8.36
401.545	153.77
401.754	157.86
401.963	182.44
402.172	8.36
402.381	63.66
402.59	16.55
402.799	84.14
403.008	131.24
403.217	121
403.426	127.14
403.635	-77.65
403.844	-20.31
404.053	10.41
404.262	65.71
404.471	143.53
404.68	49.32
404.888	77.99
405.097	69.8
405.306	43.18
405.515	80.04
405.724	-16.21
405.933	94.38
406.142	65.71
406.35	133.29
406.559	14.51
406.768	24.75
406.977	118.95
407.185	106.67
407.394	155.82
407.603	0.17
407.812	73.9
408.02	121
408.229	49.32
408.438	47.27
408.646	-61.27
408.855	84.14
409.064	86.19
409.272	75.95
409.481	65.71
409.69	-8.02
409.898	20.65
410.107	71.85
410.315	200.87
410.524	47.27
410.733	139.43
410.941	28.84
411.15	104.62
411.358	71.85
411.567	180.39
411.775	43.18
411.984	49.32
412.192	155.82
412.401	20.65
412.609	133.29
412.818	151.72
413.026	92.33
413.234	51.37
413.443	86.19
413.651	12.46
413.86	-12.12
414.068	151.72
414.276	196.78
414.485	59.56
414.693	184.49
414.901	252.07
415.11	96.43
415.318	20.65
415.526	61.61
415.734	143.53
415.943	116.9
416.151	164.01
416.359	65.71
416.567	131.24
416.776	73.9
416.984	73.9
417.192	225.45
417.4	-22.36
417.608	55.47
417.817	45.23
418.025	233.64
418.233	112.81
418.441	0.17
418.649	6.31
418.857	53.42
419.065	104.62
419.273	-32.6
419.481	118.95
419.689	51.37
419.897	12.46
420.105	18.6
420.313	92.33
420.521	164.01
420.729	209.06
420.937	-1.88
421.145	-5.97
421.353	98.47
421.561	147.62
421.769	92.33
421.977	110.76
422.185	114.86
422.393	57.51
422.601	139.43
422.809	71.85
423.017	73.9
423.224	116.9
423.432	139.43
423.64	43.18
423.848	161.96
424.056	53.42
424.263	102.57
424.471	75.95
424.679	145.58
424.887	49.32
425.094	155.82
425.302	102.57
425.51	4.27
425.718	114.86
425.925	155.82
426.133	4.27
426.341	188.58
426.548	90.28
426.756	114.86
426.964	96.43
427.171	73.9
427.379	108.71
427.586	75.95
427.794	147.62
428.001	145.58
428.209	88.23
428.417	221.35
428.624	100.52
428.832	266.41
429.039	92.33
429.247	143.53
429.454	166.06
429.662	215.21
429.869	131.24
430.076	223.4
430.284	194.73
430.491	286.89
430.699	116.9
430.906	207.02
431.114	102.57
431.321	198.82
431.528	151.72
431.736	215.21
431.943	170.15
432.15	268.45
432.358	184.49
432.565	325.8
432.772	92.33
432.979	194.73
433.187	209.06
433.394	223.4
433.601	215.21
433.808	307.37
434.016	299.17
434.223	282.79
434.43	252.07
434.637	313.51
434.844	280.74
435.052	247.97
435.259	372.9
435.466	319.65
435.673	313.51
435.88	403.62
436.087	407.72
436.294	442.53
436.501	364.71
436.708	385.19
436.915	397.48
437.122	442.53
437.329	297.13
437.537	430.24
437.743	448.68
437.95	503.97
438.157	503.97
438.364	442.53
438.571	514.21
438.778	555.17
438.985	606.37
439.192	637.09
439.399	555.17
439.606	555.17
439.813	782.49
440.02	704.67
440.227	796.83
440.433	682.14
440.64	620.71
440.847	710.82
441.054	688.29
441.261	923.8
441.467	831.65
441.674	753.82
441.881	907.42
442.088	807.07
442.294	915.61
442.501	1036.44
442.708	972.96
442.914	979.1
443.121	1040.54
443.328	1144.99
443.534	1183.9
443.741	1138.84
443.948	1058.97
444.154	1224.86
444.361	1441.94
444.568	1319.06
444.774	1353.88
444.981	1198.23
445.187	1484.95
445.394	1523.86
445.6	1491.09
445.807	1665.17
446.013	1554.58
446.22	1634.45
446.426	1898.64
446.633	1939.6
446.839	2117.77
447.046	1943.69
447.252	2103.43
447.459	2035.85
447.665	2113.67
447.871	2252.94
448.078	2617.47
448.284	2474.12
448.491	2611.33
448.697	2687.11
448.903	2869.37
449.11	2896
449.316	2795.65
449.522	3129.47
449.728	3199.1
449.935	3289.21
450.141	3211.39
450.347	3633.27
450.553	3498.1
450.76	3672.18
450.966	3866.74
451.172	3999.85
451.378	4202.6
451.584	4137.07
451.791	4448.36
451.997	4489.32
452.203	4722.79
452.409	4849.76
452.615	5109.85
452.821	4925.54
453.027	4968.54
453.233	5685.33
453.44	5529.69
453.646	5838.93
453.852	5982.29
454.058	6297.67
454.264	6391.88
454.47	6953.02
454.676	6991.94
454.882	7544.89
455.088	7247.93
455.294	7444.54
455.5	8173.61
455.705	8607.78
455.911	8654.89
456.117	8880.16
456.323	9144.35
456.529	9244.7
456.735	9992.21
456.941	10248.21
457.147	10555.4
457.352	11016.19
457.558	11194.37
457.764	11976.69
457.97	12201.97
458.176	12664.81
458.381	13404.13
458.587	13602.78
458.793	14200.79
458.999	14190.55
459.204	15955.9
459.41	16695.21
459.616	16035.77
459.821	17162.15
460.027	17846.17
460.233	18818.96
460.438	18714.51
460.644	19959.67
460.85	20244.34
461.055	20764.53
461.261	22009.69
461.466	21575.52
461.672	21905.24
461.878	24401.72
462.083	24401.72
462.289	24715.06
462.494	25798.43
462.7	25978.65
462.905	26140.44
463.111	28380.92
463.316	29558.5
463.522	30324.44
463.727	31440.59
463.932	32368.32
464.138	33566.38
464.343	34647.71
464.549	35067.54
464.754	37441.14
464.959	38708.83
465.165	39112.28
465.37	38547.04
465.575	38858.33
465.781	40930.87
465.986	42444.32
466.191	41684.53
466.397	42534.43
466.602	40977.98
466.807	43871.76
467.012	44107.27
467.218	45317.62
467.423	45051.39
467.628	46605.8
467.833	48825.79
468.038	48008.65
468.244	46982.62
468.449	49444.28
468.654	48682.44
468.859	48426.44
469.064	48479.69
469.269	47187.42
469.474	47846.86
469.679	48860.61
469.885	47275.48
470.09	48299.47
470.295	48434.63
470.5	47590.87
470.705	47820.24
470.91	46155.24
471.115	46247.4
471.32	46679.52
471.525	46816.74
471.73	44979.71
471.935	44951.04
472.139	43445.78
472.344	43204.12
472.549	43200.02
472.754	42321.44
472.959	41342.52
473.164	40197.7
473.369	39538.26
473.574	39974.47
473.778	39599.69
473.983	38964.82
474.188	38151.78
474.393	36621.95
474.598	36513.41
474.802	35493.52
475.007	34709.15
475.212	34614.94
475.417	33244.85
475.621	33246.9
475.826	32935.6
476.031	32091.84
476.235	31583.94
476.44	31686.34
476.645	30654.17
476.849	30256.86
477.054	29697.77
477.259	28972.78
477.463	28931.83
477.668	28010.24
477.872	28409.59
478.077	27299.59
478.282	26588.95
478.486	26527.51
478.691	26203.93
478.895	25872.16
479.1	25947.93
479.304	25825.06
479.509	24649.52
479.713	25048.88
479.918	24457.01
480.122	24063.8
480.326	24682.29
480.531	24352.57
480.735	23736.13
480.94	23752.51
481.144	24254.26
481.348	22945.61
481.553	23121.74
481.757	22452.05
481.961	22984.52
482.166	23007.05
482.37	22753.1
482.574	22030.17
482.778	21991.26
482.983	22204.25
483.187	21714.78
483.391	21651.3
483.595	21262.18
483.8	21237.61
484.004	20997.99
484.208	21311.33
484.412	20946.8
484.616	20694.89
484.821	20561.78
485.025	19576.7
485.229	19730.3
485.433	19396.48
485.637	19087.24
485.841	18861.96
486.045	18632.59
486.249	18644.88
486.453	18020.25
486.657	18173.85
486.861	17768.35
487.065	17125.29
487.269	17317.79
487.473	16953.26
487.677	16826.28
487.881	16748.46
488.085	16117.68
488.289	15900.6
488.493	15300.55
488.697	15345.6
488.901	15429.57
489.105	14614.48
489.309	14766.03
489.512	14542.8
489.716	14432.21
489.92	13787.1
490.124	13875.16
490.328	13555.68
490.531	13096.93
490.735	12822.5
490.939	12654.57
491.143	12294.13
491.346	12120.05
491.55	12056.56
491.754	11771.9
491.958	11747.32
492.161	11497.47
492.365	11401.21
492.569	11089.92
492.772	10878.98
492.976	11005.95
493.18	10733.57
493.383	10620.94
493.587	10709
493.79	10690.57
493.994	10067.99
494.197	10139.66
494.401	10067.99
494.605	9992.21
494.808	9910.29
495.012	9793.56
495.215	9637.91
495.419	9891.86
495.622	9562.14
495.825	9437.21
496.029	9308.19
496.232	9390.11
496.436	9211.93
496.639	9254.94
496.843	9156.64
497.046	9285.66
497.249	9242.65
497.453	9275.42
497.656	9351.2
497.859	9218.08
498.063	9426.97
498.266	9490.46
498.469	9478.17
498.673	9228.32
498.876	9453.59
499.079	9441.31
499.282	9347.1
499.485	9793.56
499.689	9795.61
499.892	9658.39
500.095	9713.69
500.298	9701.4
500.501	9551.9
500.705	10264.59
500.908	9947.15
501.111	10119.18
501.314	10197.01
501.517	10162.19
501.72	10201.1
501.923	10500.11
502.126	10397.71
502.329	10831.88
502.532	10772.49
502.735	11098.11
502.938	10926.08
503.141	11325.44
503.344	11360.25
503.547	11429.88
503.75	11419.64
503.953	11847.67
504.156	11853.81
504.359	12052.47
504.562	12052.47
504.765	12273.65
504.968	12644.33
505.17	12662.76
505.373	12722.15
505.576	13191.14
505.779	13293.54
505.982	13305.82
506.185	14000.09
506.387	13891.54
506.59	14135.25
506.793	14575.56
506.996	14405.58
507.198	15224.77
507.401	15132.61
507.604	15402.94
507.807	15929.27
508.009	16265.14
508.212	16531.37
508.415	16949.16
508.617	16936.87
508.82	17495.97
509.022	17450.91
509.225	18349.97
509.428	18485.14
509.63	19072.9
509.833	19109.77
510.035	19984.25
510.238	20039.54
510.44	20555.63
510.643	20944.75
510.845	21532.51
511.048	21657.44
511.25	22196.06
511.453	22550.35
511.655	23854.91
511.858	24012.6
512.06	24434.49
512.262	24964.91
512.465	25392.94
512.667	26117.92
512.87	26666.77
513.072	27002.64
513.274	27967.23
513.477	28239.61
513.679	28888.82
513.881	29988.58
514.084	30056.16
514.286	30582.49
514.488	31225.55
514.69	32511.67
514.893	33341.1
515.095	33445.55
515.297	33885.86
515.499	34799.26
515.701	35839.62
515.904	36138.63
516.106	37662.32
516.308	37856.87
516.51	38915.67
516.712	39204.44
516.914	39896.65
517.116	41272.88
517.318	41307.7
517.52	42456.61
517.722	42618.4
517.925	44006.92
518.127	44508.68
518.329	45585.91
518.531	45374.97
518.733	46667.23
518.935	47490.52
519.136	48324.04
519.338	48852.42
519.54	49610.17
519.742	50195.88
519.944	50673.06
520.146	51848.6
520.348	52383.12
520.55	52807.04
520.752	53337.47
520.954	54498.67
521.155	54367.6
521.357	55647.58
521.559	55754.07
521.761	56954.18
521.963	56634.7
522.164	57548.09
522.366	58113.33
522.568	58447.15
522.77	58625.32
522.971	59936.02
523.173	59254.05
523.375	59594.01
523.576	59974.94
523.778	60116.25
523.98	60777.74
524.181	60980.49
524.383	60806.41
524.584	61691.13
524.786	61562.11
524.988	60968.2
525.189	62037.24
525.391	61758.72
525.592	62192.89
525.794	61885.69
525.995	62190.84
526.197	61900.03
526.398	62000.38
526.6	61877.5
526.801	61449.47
527.003	61519.1
527.204	61304.07
527.406	61123.85
527.607	61179.14
527.808	61025.54
528.01	59753.75
528.211	60439.82
528.412	60579.09
528.614	59626.78
528.815	59299.11
529.016	59485.47
529.218	58035.51
529.419	58412.34
529.62	57359.68
529.822	57118.02
530.023	56622.41
530.224	56104.27
530.425	55518.56
530.626	54607.21
530.828	54115.7
531.029	55045.47
531.23	53368.19
531.431	52807.04
531.632	52440.46
531.833	51889.55
532.035	51314.08
532.236	50740.64
532.437	50261.42
532.638	49417.66
532.839	48942.53
533.04	48680.39
533.241	47801.81
533.442	47779.28
533.643	46890.46
533.844	46231.02
534.045	45368.82
534.246	44660.23
534.447	44133.9
534.648	43601.43
534.849	43052.57
535.05	42425.89
535.251	42245.67
535.451	41430.58
535.652	41066.04
535.853	40269.38
536.054	39919.18
536.255	39458.38
536.456	38137.44
536.657	38915.67
536.857	37838.44
537.058	37369.46
537.259	36927.1
537.46	36339.33
537.66	35894.92
537.861	35520.14
538.062	35135.12
538.263	34150.05
538.463	33781.42
538.664	33238.7
538.865	33287.85
539.065	33283.76
539.266	32427.71
539.466	32351.93
539.667	31469.26
539.868	31614.66
540.068	31000.27
540.269	30703.32
540.469	30445.27
540.67	30064.35
540.87	29535.98
541.071	29134.57
541.271	29015.79
541.472	28208.89
541.672	28393.21
541.873	27717.38
542.073	27121.42
542.274	27297.55
542.474	26707.73
542.675	26402.58
542.875	26441.5
543.075	26091.29
543.276	25646.88
543.476	25542.44
543.676	24944.43
543.877	24661.81
544.077	24819.5
544.277	24360.76
544.478	24188.73
544.678	24307.51
544.878	23504.71
545.078	23295.82
545.279	22900.56
545.479	22355.8
545.679	22382.42
545.879	22130.52
546.079	22054.75
546.28	21557.09
546.48	21286.76
546.68	21374.82
546.88	21034.86
547.08	20639.6
547.28	20578.16
547.48	20127.61
547.68	20039.54
547.88	19670.91
548.081	19943.29
548.281	19101.58
548.481	18929.55
548.681	18972.55
548.881	18515.86
549.081	17985.43
549.28	18229.14
549.48	17905.56
549.68	17737.63
549.88	17483.68
550.08	16951.21
550.28	16908.2
550.48	16701.36
550.68	16578.48
550.88	16236.47
551.08	16043.96
551.279	15720.38
551.479	15359.94
551.679	15484.86
551.879	15189.95
552.079	14794.7
552.278	14763.98
552.478	14641.1
552.678	14223.31
552.878	14137.3
553.077	13539.29
553.277	13379.55
553.477	13475.81
553.676	13230.05
553.876	12994.53
554.076	12754.92
554.275	12599.27
554.475	12324.85
554.674	12455.92
554.874	12079.09
555.074	11782.13
555.273	11524.09
555.473	11431.93
555.672	11055.11
555.872	10960.9
556.071	10944.52
556.271	10784.77
556.47	10471.43
556.67	10328.08
556.869	9984.02
557.068	9977.87
557.268	9783.32
557.467	9480.22
557.667	9830.42
557.866	9463.83
558.065	9111.58
558.265	9062.43
558.464	8982.56
558.663	8990.75
558.863	8542.25
559.062	8785.96
559.261	8349.74
559.461	8306.73
559.66	7993.39
559.859	8071.22
560.058	7940.15
560.258	7579.7
560.457	7702.58
560.656	7757.88
560.855	7340.09
561.054	7243.84
561.253	7192.64
561.453	7215.16
561.652	6907.97
561.851	6895.68
562.05	6776.9
562.249	6473.8
562.448	6443.08
562.647	6348.87
562.846	6418.5
563.045	6275.15
563.244	6039.63
563.443	6375.5
563.642	5947.47
563.841	5834.83
564.04	5634.13
564.239	5834.83
564.438	5707.86
564.637	5668.95
564.836	5521.49
565.035	5380.18
565.234	5279.83
565.432	5185.63
565.631	5144.67
565.83	5142.62
566.029	5099.61
566.228	4892.77
566.427	5023.84
566.625	4825.19
566.824	4726.88
567.023	4661.35
567.222	4493.41
567.42	4489.32
567.619	4470.89
567.818	4448.36
568.016	4540.52
568.215	4300.91
568.414	4325.48
568.612	4218.99
568.811	4096.11
569.01	4044.91
569.208	4081.77
569.407	4102.25
569.605	3862.64
569.804	3817.58
570.002	3799.15
570.201	3614.84
570.4	3725.43
570.598	3571.83
570.797	3575.92
570.995	3477.62
571.193	3407.99
571.392	3367.03
571.59	3238.01
571.789	3186.81
571.987	3379.32
572.186	3283.06
572.384	3199.1
572.582	3010.68
572.781	3100.8
572.979	2820.22
573.177	2910.33
573.376	2896
573.574	2812.03
573.772	2762.88
573.971	2701.44
574.169	2717.83
574.367	2697.35
574.565	2599.04
574.763	2732.16
574.962	2650.24
575.16	2515.08
575.358	2414.73
575.556	2386.05
575.754	2504.84
575.952	2418.82
576.151	2316.42
576.349	2293.9
576.547	2201.74
576.745	2347.14
576.943	2244.74
577.141	2164.87
577.339	2121.87
577.537	2103.43
577.735	2150.54
577.933	2087.05
578.131	1937.55
578.329	2046.09
578.527	1982.6
578.725	1976.46
578.923	1763.47
579.121	1896.59
579.319	1732.75
579.516	1728.66
579.714	2074.76
579.912	1810.58
580.11	1611.92
580.308	1712.27
580.506	1751.18
580.704	1511.57
580.901	1613.97
581.099	1728.66
581.297	1482.9
581.495	1583.25
581.692	1384.6
581.89	1669.27
582.088	1593.49
582.285	1478.8
582.483	1333.4
582.681	1468.56
582.878	1423.51
583.076	1431.7
583.274	1304.73
583.471	1546.39
583.669	1298.58
583.866	1169.56
584.064	1269.91
584.262	1151.13
584.459	1124.51
584.657	1214.62
584.854	1233.05
585.052	1257.62
585.249	1142.94
585.447	1112.22
585.644	1093.79
585.841	1198.23
586.039	1183.9
586.236	1149.08
586.434	1038.49
586.631	1091.74
586.828	1007.77
587.026	983.2
587.223	983.2
587.42	934.04
587.618	1058.97
587.815	1042.59
588.012	1005.72
588.21	958.62
588.407	997.53
588.604	958.62
588.801	735.39
588.999	878.75
589.196	1018.01
589.393	893.09
589.59	884.89
589.787	1058.97
589.984	907.42
590.182	919.71
590.379	751.78
590.576	837.79
590.773	774.3
590.97	774.3
591.167	766.11
591.364	985.24
591.561	823.45
591.758	966.81
591.955	907.42
592.152	850.08
592.349	792.73
592.546	829.6
592.743	753.82
592.94	745.63
593.137	874.65
593.334	815.26
593.531	899.23
593.727	829.6
593.924	762.02
594.121	776.35
594.318	915.61
594.515	854.17
594.712	975
594.908	1011.87
595.105	692.38
595.302	958.62
595.499	878.75
595.696	983.2
595.892	833.69
596.089	934.04
596.286	850.08
596.482	1073.31
596.679	1020.06
596.876	962.72
597.072	1114.27
597.269	1112.22
597.466	1085.59
597.662	1091.74
597.859	975
598.055	1196.18
598.252	1243.29
598.448	1304.73
598.645	1296.53
598.841	1357.97
599.038	1575.06
599.234	1570.96
599.431	1497.24
599.627	1372.31
599.824	1552.53
600.02	1673.36
600.217	1681.55
600.413	1616.02
600.609	1775.76
600.806	2107.53
601.002	1929.36
601.198	1861.77
601.395	2230.41
601.591	2154.63
601.787	2302.09
601.984	2410.63
602.18	2492.55
602.376	2496.64
602.572	2635.91
602.769	2709.63
602.965	2742.4
603.161	2932.86
603.357	2926.72
603.553	3057.79
603.75	3047.55
603.946	3412.09
604.142	3471.48
604.338	3549.3
604.534	3598.45
604.73	3623.03
604.926	3721.33
605.122	4079.72
605.318	4016.24
605.514	4241.51
605.71	4366.44
605.906	4489.32
606.102	4585.57
606.298	4659.3
606.494	4935.78
606.69	4982.88
606.886	5234.78
607.082	5433.43
607.278	5328.99
607.474	5697.62
607.67	5867.6
607.866	5804.11
608.062	6246.48
608.257	6285.39
608.453	6408.26
608.649	6613.06
608.845	6604.87
609.041	6971.46
609.236	7211.07
609.432	7303.23
609.628	7643.19
609.824	7673.91
610.019	7624.76
610.215	8044.59
610.411	8327.21
610.606	8419.37
610.802	8648.74
610.998	8794.15
611.193	9226.27
611.389	9390.11
611.584	9574.42
611.78	9811.99
611.976	10127.38
612.171	10778.63
612.367	10622.98
612.562	10911.75
612.758	11096.07
612.953	11356.16
613.149	11775.99
613.344	12118
613.539	12474.35
613.735	13006.82
613.93	13107.17
614.126	13191.14
614.321	13858.78
614.517	14243.79
614.712	14456.78
614.907	15013.83
615.103	15226.82
615.298	15536.06
615.493	15763.39
615.688	16215.99
615.884	16971.69
616.079	17039.27
616.274	17751.96
616.47	18108.31
616.665	18814.86
616.86	19001.22
617.055	19414.91
617.25	19627.9
617.445	20359.03
617.641	20840.3
617.836	21221.22
618.031	21548.9
618.226	22667.09
618.421	22845.26
618.616	23398.21
618.811	23543.62
619.006	24686.39
619.201	24874.8
619.396	25642.79
619.591	25808.67
619.786	26941.2
619.981	27027.21
620.176	27973.38
620.371	28026.62
620.566	28876.53
620.761	29560.55
620.956	30191.33
621.151	30678.74
621.346	31409.87
621.541	31420.11
621.735	32681.66
621.93	32741.05
622.125	33496.75
622.32	34064.03
622.515	34770.58
622.709	35217.04
622.904	36398.72
623.099	36540.03
623.294	37363.31
623.488	37713.52
623.683	38207.08
623.878	38702.68
624.072	39439.95
624.267	40031.82
624.462	40869.44
624.656	41315.89
624.851	42436.13
625.046	42544.67
625.24	43179.54
625.435	43826.7
625.629	44002.83
625.824	44570.11
626.018	45245.94
626.213	45309.43
626.407	46546.4
626.602	46310.89
626.796	47566.29
626.991	47744.47
627.185	48266.7
627.38	47793.62
627.574	48369.1
627.768	48637.38
627.963	49122.75
628.157	49126.85
628.352	49663.41
628.546	49118.65
628.74	49943.98
628.935	48981.44
629.129	49475
629.323	48983.49
629.517	48491.97
629.712	48672.2
629.906	48303.56
630.1	47480.28
630.294	47422.94
630.489	46566.88
630.683	46681.57
630.877	45510.13
631.071	45149.69
631.265	44387.85
631.459	43376.15
631.653	42409.51
631.848	41856.56
632.042	41094.71
632.236	39827.02
632.43	38319.71
632.624	37850.73
632.818	36785.79
633.012	35333.78
633.206	34573.98
633.4	33765.03
633.594	32335.55
633.788	31340.24
633.982	30398.17
634.176	29267.69
634.369	27852.55
634.563	26885.9
634.757	25816.86
634.951	25243.43
635.145	24272.7
635.339	23359.3
635.533	22175.58
635.726	21555.04
635.92	20502.39
636.114	19855.23
636.308	18878.35
636.501	18493.33
636.695	17199.01
636.889	16682.92
637.083	15824.83
637.276	15198.15
637.47	14720.97
637.664	14049.24
637.857	13600.73
638.051	13094.88
638.244	12548.08
638.438	12318.7
638.632	11550.71
638.825	10940.42
639.019	10737.67
639.212	10092.56
639.406	9895.96
639.599	9392.16
639.793	8925.22
639.986	8706.09
640.18	8292.4
640.373	8200.24
640.567	7698.49
640.76	7465.02
640.954	7053.38
641.147	6848.58
641.34	6662.21
641.534	6400.07
641.727	6119.5
641.92	5900.37
642.114	5679.19
642.307	5406.81
642.5	5263.45
642.694	5017.69
642.887	4860
643.08	4739.17
643.273	4515.94
643.467	4223.08
643.66	4073.58
643.853	3938.41
644.046	3917.93
644.239	3741.81
644.432	3436.66
644.626	3479.67
644.819	3293.3
645.012	3162.23
645.205	3215.48
645.398	3057.79
645.591	2824.32
645.784	2687.11
645.977	2523.27
646.17	2580.61
646.363	2474.12
646.556	2384.01
646.749	2058.38
646.942	2140.3
647.135	2080.91
647.328	2031.76
647.521	1917.07
647.714	1892.49
647.907	1878.16
648.099	1691.79
648.292	1607.83
648.485	1628.31
648.678	1540.24
648.871	1394.84
649.064	1450.13
649.256	1251.48
649.449	1314.97
649.642	1169.56
649.835	1163.42
650.027	1120.41
650.22	1159.32
650.413	1015.96
650.605	1056.92
650.798	1056.92
650.991	983.2
651.183	893.09
651.376	993.44
651.568	970.91
651.761	800.93
651.954	905.37
652.146	790.69
652.339	905.37
652.531	850.08
652.724	782.49
652.916	723.1
653.109	565.41
653.301	723.1
653.494	721.06
653.686	622.75
653.879	772.25
654.071	581.79
654.263	571.55
654.456	522.4
654.648	608.42
654.84	561.31
655.033	516.26
655.225	618.66
655.417	409.76
655.61	524.45
655.802	551.07
655.994	596.13
656.186	352.42
656.379	450.72
656.571	448.68
656.763	411.81
656.955	303.27
657.148	366.76
657.34	495.78
657.532	354.47
657.724	303.27
657.916	358.57
658.108	440.48
658.3	319.65
658.492	381.09
658.684	309.41
658.876	444.58
659.068	264.36
659.26	247.97
659.452	321.7
659.644	360.61
659.836	317.61
660.028	256.17
660.22	256.17
660.412	295.08
660.604	264.36
660.796	262.31
660.988	360.61
661.18	342.18
661.372	299.17
661.563	299.17
661.755	250.02
661.947	241.83
662.139	231.59
662.331	256.17
662.522	241.83
662.714	268.45
662.906	168.1
663.097	194.73
663.289	190.63
663.481	118.95
663.673	260.26
663.864	178.34
664.056	247.97
664.247	229.54
664.439	301.22
664.631	157.86
664.822	207.02
665.014	174.25
665.205	116.9
665.397	190.63
665.588	194.73
665.78	192.68
665.971	256.17
666.163	141.48
666.354	258.21
666.546	141.48
666.737	194.73
666.929	114.86
667.12	71.85
667.311	186.54
667.503	172.2
667.694	145.58
667.885	202.92
668.077	256.17
668.268	110.76
668.459	123.05
668.651	125.1
668.842	172.2
669.033	114.86
669.224	82.09
669.416	325.8
669.607	145.58
669.798	28.84
669.989	190.63
670.18	131.24
670.371	250.02
670.563	84.14
670.754	258.21
670.945	196.78
671.136	211.11
671.327	123.05
671.518	207.02
671.709	315.56
671.9	288.93
672.091	329.89
672.282	204.97
672.473	196.78
672.664	39.08
672.855	168.1
673.046	153.77
673.237	194.73
673.428	92.33
673.619	268.45
673.809	32.94
674	297.13
674.191	168.1
674.382	98.47
674.573	96.43
674.764	102.57
674.954	282.79
675.145	14.51
675.336	116.9
675.527	172.2
675.717	252.07
675.908	100.52
676.099	65.71
676.289	139.43
676.48	75.95
676.671	225.45
676.861	145.58
677.052	174.25
677.243	168.1
677.433	184.49
677.624	227.5
677.814	178.34
678.005	108.71
678.195	336.04
678.386	84.14
678.576	121
678.767	198.82
678.957	217.26
679.148	157.86
679.338	313.51
679.529	268.45
679.719	164.01
679.909	176.3
680.1	272.55
680.29	231.59
680.481	135.34
680.671	288.93
680.861	227.5
681.052	301.22
681.242	125.1
681.432	204.97
681.622	233.64
681.813	92.33
682.003	215.21
682.193	182.44
682.383	250.02
682.573	149.67
682.764	143.53
682.954	217.26
683.144	299.17
683.334	168.1
683.524	221.35
683.714	192.68
683.904	196.78
684.094	174.25
684.284	176.3
684.474	256.17
684.664	254.12
684.854	219.3
685.044	164.01
685.234	174.25
685.424	280.74
685.614	204.97
685.804	268.45
685.994	225.45
686.184	164.01
686.374	186.54
686.564	172.2
686.753	186.54
686.943	121
687.133	141.48
687.323	233.64
687.513	272.55
687.702	192.68
687.892	215.21
688.082	215.21
688.272	284.84
688.461	143.53
688.651	286.89
688.841	202.92
689.03	229.54
689.22	198.82
689.41	311.46
689.599	211.11
689.789	151.72
689.979	254.12
690.168	164.01
690.358	293.03
690.547	311.46
690.737	245.93
690.926	192.68
691.116	311.46
691.305	317.61
691.495	309.41
691.684	129.19
691.874	137.38
692.063	145.58
692.252	305.32
692.442	227.5
692.631	153.77
692.82	243.88
693.01	188.58
693.199	186.54
693.388	241.83
693.578	178.34
693.767	245.93
693.956	243.88
694.146	196.78
694.335	268.45
694.524	151.72
694.713	276.65
694.902	188.58
695.092	204.97
695.281	174.25
695.47	217.26
695.659	213.16
695.848	145.58
696.037	149.67
696.226	311.46
696.415	217.26
696.604	342.18
696.793	229.54
696.982	176.3
697.171	315.56
697.36	159.91
697.549	235.69
697.738	49.32
697.927	141.48
698.116	200.87
698.305	250.02
698.494	155.82
698.683	121
698.872	284.84
699.061	145.58
699.25	250.02
699.438	174.25
699.627	170.15
699.816	348.33
700.005	196.78
700.193	90.28
700.382	237.74
700.571	229.54
700.76	223.4
700.948	209.06
701.137	256.17
701.326	293.03
701.514	127.14
701.703	280.74
701.892	247.97
702.08	348.33
702.269	231.59
702.457	135.34
702.646	188.58
702.834	88.23
703.023	313.51
703.212	290.98
703.4	231.59
703.589	190.63
703.777	192.68
703.965	145.58
704.154	129.19
704.342	147.62
704.531	90.28
704.719	231.59
704.907	305.32
705.096	88.23
705.284	139.43
705.472	178.34
705.661	170.15
705.849	247.97
706.037	258.21
706.226	159.91
706.414	256.17
706.602	131.24
706.79	141.48
706.979	118.95
707.167	104.62
707.355	98.47
707.543	149.67
707.731	211.11
707.919	190.63
708.107	276.65
708.296	170.15
708.484	227.5
708.672	282.79
708.86	266.41
709.048	118.95
709.236	102.57
709.424	202.92
709.612	184.49
709.8	112.81
709.988	137.38
710.176	172.2
710.364	338.09
710.551	202.92
710.739	63.66
710.927	84.14
711.115	258.21
711.303	254.12
711.491	377
711.679	172.2
711.866	247.97
712.054	161.96
712.242	243.88
712.43	268.45
712.617	194.73
712.805	313.51
712.993	190.63
713.181	71.85
713.368	256.17
713.556	213.16
713.744	204.97
713.931	417.96
714.119	303.27
714.306	207.02
714.494	215.21
714.682	114.86
714.869	92.33
715.057	143.53
715.244	63.66
715.432	301.22
715.619	159.91
715.807	192.68
715.994	123.05
716.182	241.83
716.369	252.07
716.556	182.44
716.744	69.8
716.931	135.34
717.119	247.97
717.306	161.96
717.493	243.88
717.681	176.3
717.868	198.82
718.055	243.88
718.242	159.91
718.43	227.5
718.617	327.85
718.804	90.28
718.991	278.69
719.179	295.08
719.366	190.63
719.553	295.08
719.74	256.17
719.927	196.78
720.114	200.87
720.301	149.67
720.488	180.39
720.676	116.9
720.863	311.46
721.05	344.23
721.237	262.31
721.424	231.59
721.611	243.88
721.798	155.82
721.985	151.72
722.172	188.58
722.358	213.16
722.545	303.27
722.732	233.64
722.919	307.37
723.106	221.35
723.293	131.24
723.48	196.78
723.667	174.25
723.853	331.94
724.04	239.78
724.227	245.93
724.414	247.97
724.6	196.78
724.787	276.65
724.974	303.27
725.161	178.34
725.347	186.54
725.534	184.49
725.72	211.11
725.907	282.79
726.094	290.98
726.28	225.45
726.467	270.5
726.653	182.44
726.84	307.37
727.027	266.41
727.213	202.92
727.4	186.54
727.586	231.59
727.773	190.63
727.959	293.03
728.145	256.17
728.332	274.6
728.518	178.34
728.705	243.88
728.891	243.88
729.077	266.41
729.264	209.06
729.45	178.34
729.636	233.64
729.823	190.63
730.009	254.12
730.195	338.09
730.382	354.47
730.568	131.24
730.754	188.58
730.94	209.06
731.126	270.5
731.313	395.43
731.499	276.65
731.685	319.65
731.871	174.25
732.057	209.06
732.243	303.27
732.429	278.69
732.615	393.38
732.801	329.89
732.987	188.58
733.173	243.88
733.359	252.07
733.545	256.17
733.731	284.84
733.917	301.22
734.103	272.55
734.289	229.54
734.475	170.15
734.661	374.95
734.847	274.6
735.033	250.02
735.219	311.46
735.404	211.11
735.59	198.82
735.776	278.69
735.962	247.97
736.148	282.79
736.333	325.8
736.519	239.78
736.705	225.45
736.89	266.41
737.076	280.74
737.262	147.62
737.447	217.26
737.633	209.06
737.819	290.98
738.004	211.11
738.19	176.3
738.375	338.09
738.561	305.32
738.747	256.17
738.932	200.87
739.118	358.57
739.303	305.32
739.489	303.27
739.674	243.88
739.859	247.97
740.045	305.32
740.23	227.5
740.416	139.43
740.601	256.17
740.786	229.54
740.972	186.54
741.157	213.16
741.342	200.87
741.528	143.53
741.713	264.36
741.898	207.02
742.084	221.35
742.269	215.21
742.454	256.17
742.639	383.14
742.824	254.12
743.01	321.7
743.195	438.44
743.38	352.42
743.565	229.54
743.75	241.83
743.935	262.31
744.12	325.8
744.305	219.3
744.49	200.87
744.675	192.68
744.86	168.1
745.045	264.36
745.23	196.78
745.415	180.39
745.6	305.32
745.785	217.26
745.97	290.98
746.155	247.97
746.34	284.84
746.525	182.44
746.71	389.28
746.895	178.34
747.079	164.01
747.264	200.87
747.449	256.17
747.634	311.46
747.819	252.07
748.003	221.35
748.188	200.87
748.373	274.6
748.557	260.26
748.742	288.93
748.927	207.02
749.111	184.49
749.296	174.25
749.481	225.45
749.665	139.43
749.85	153.77
750.034	241.83
750.219	145.58
750.404	145.58
750.588	161.96
750.773	168.1
750.957	280.74
751.141	174.25
751.326	192.68
751.51	125.1
751.695	166.06
751.879	198.82
752.064	258.21
752.248	276.65
752.432	278.69
752.617	252.07
752.801	268.45
752.985	166.06
753.17	299.17
753.354	204.97
753.538	176.3
753.722	73.9
753.907	98.47
754.091	102.57
754.275	215.21
754.459	102.57
754.643	94.38
754.828	198.82
755.012	170.15
755.196	100.52
755.38	137.38
755.564	143.53
755.748	149.67
755.932	174.25
756.116	211.11
756.3	198.82
756.484	143.53
756.668	196.78
756.852	90.28
757.036	121
757.22	164.01
757.404	166.06
757.588	143.53
757.772	211.11
757.956	133.29
758.14	254.12
758.323	53.42
758.507	194.73
758.691	153.77
758.875	211.11
759.059	241.83
759.242	121
759.426	118.95
759.61	178.34
759.794	129.19
759.977	250.02
760.161	430.24
760.345	217.26
760.528	217.26
760.712	131.24
760.895	200.87
761.079	121
761.263	77.99
761.446	127.14
761.63	92.33
761.813	55.47
761.997	39.08
762.18	53.42
762.364	153.77
762.547	-10.07
762.731	39.08
762.914	114.86
763.098	129.19
763.281	141.48
763.464	77.99
763.648	114.86
763.831	102.57
764.015	22.7
764.198	151.72
764.381	65.71
764.564	112.81
764.748	151.72
764.931	155.82
765.114	131.24
765.297	131.24
765.481	55.47
765.664	69.8
765.847	104.62
766.03	147.62
766.213	80.04
766.397	65.71
766.58	96.43
766.763	114.86
766.946	129.19
767.129	116.9
767.312	53.42
767.495	71.85
767.678	-18.26
767.861	102.57
768.044	143.53
768.227	-10.07
768.41	90.28
768.593	121
768.776	116.9
768.959	104.62
769.142	198.82
769.324	129.19
769.507	104.62
769.69	65.71
769.873	18.6
770.056	204.97
770.239	65.71
770.421	118.95
770.604	59.56
770.787	110.76
770.97	102.57
771.152	6.31
771.335	184.49
771.518	2.22
771.7	157.86
771.883	112.81
772.066	32.94
772.248	219.3
772.431	204.97
772.613	245.93
772.796	67.75
772.978	151.72
773.161	161.96
773.343	75.95
773.526	65.71
773.708	-5.97
773.891	-57.17
774.073	12.46
774.256	39.08
774.438	194.73
774.621	92.33
774.803	118.95
774.985	47.27
775.168	98.47
775.35	86.19
775.532	57.51
775.715	65.71
775.897	123.05
776.079	104.62
776.261	112.81
776.444	65.71
776.626	6.31
776.808	14.51
776.99	-3.93
777.173	20.65
777.355	37.03
777.537	32.94
777.719	57.51
777.901	-16.21
778.083	10.41
778.265	-1.88
778.447	174.25
778.629	-18.26
778.811	141.48
778.993	71.85
779.175	94.38
779.357	-42.84
779.539	-73.56
779.721	129.19
779.903	112.81
780.085	59.56
780.267	69.8
780.449	10.41
780.631	106.67
780.812	75.95
780.994	88.23
781.176	82.09
781.358	49.32
781.54	26.79
781.721	75.95
781.903	137.38
782.085	34.99
782.267	106.67
782.448	16.55
782.63	45.23
782.812	22.7
782.993	47.27
783.175	100.52
783.357	51.37
783.538	71.85
783.72	-10.07
783.901	28.84
784.083	88.23
784.264	43.18
784.446	-28.5
784.627	-10.07
784.809	116.9
784.99	-57.17
785.172	110.76
785.353	8.36
785.535	80.04
785.716	-24.4
785.897	-16.21
786.079	4.27
786.26	102.57
786.441	4.27
786.623	-42.84
786.804	75.95
786.985	82.09
787.167	86.19
787.348	14.51
787.529	-8.02
787.71	164.01
787.891	73.9
788.073	55.47
788.254	-143.19
788.435	147.62
788.616	14.51
788.797	-12.12
788.978	-18.26
789.159	-3.93
789.34	147.62
789.522	34.99
789.703	-38.74
789.884	4.27
790.065	61.61
790.246	231.59
790.427	39.08
790.607	133.29
790.788	90.28
790.969	-42.84
791.15	90.28
791.331	-5.97
791.512	47.27
791.693	-22.36
791.874	-36.69
792.054	243.88
792.235	86.19
792.416	-65.36
792.597	-26.45
792.778	112.81
792.958	53.42
793.139	121
793.32	30.89
793.5	-44.88
793.681	118.95
793.862	51.37
794.042	10.41
794.223	-24.4
794.404	0.17
794.584	-20.31
794.765	43.18
794.945	4.27
795.126	131.24
795.306	55.47
795.487	-3.93
795.667	-59.22
795.848	0.17
796.028	-20.31
796.209	41.13
796.389	55.47
796.57	-24.4
796.75	-67.41
796.93	-32.6
797.111	24.75
797.291	16.55
797.471	41.13
797.652	10.41
797.832	-34.64
798.012	53.42
798.192	-22.36
798.373	-130.9
798.553	18.6
798.733	77.99
798.913	32.94
799.093	-14.17
799.274	16.55
799.454	92.33
799.634	82.09
799.814	63.66
799.994	30.89
800.174	61.61
800.354	-14.17
800.534	-75.6
800.714	77.99
800.894	-14.17
801.074	-22.36
801.254	-102.23
801.434	168.1
801.614	28.84
801.794	-67.41
801.974	1742.99
802.154	-46.93
802.334	-40.79
802.514	-5.97
802.693	2.22
802.873	-20.31
803.053	90.28
803.233	30.89
803.413	34.99
803.592	-40.79
803.772	-112.47
803.952	43.18
804.131	-100.18
804.311	114.86
804.491	84.14
804.67	10.41
804.85	-59.22
805.03	49.32
805.209	106.67
805.389	-36.69
805.568	0.17
805.748	-46.93
805.928	45.23
806.107	86.19
806.287	37.03
806.466	106.67
806.646	-14.17
806.825	55.47
807.004	4.27
807.184	73.9
807.363	84.14
807.543	75.95
807.722	63.66
807.901	61.61
808.081	75.95
808.26	-141.14
808.439	57.51
808.619	30.89
808.798	47.27
808.977	102.57
809.156	137.38
809.336	45.23
809.515	129.19
809.694	-12.12
809.873	-112.47
810.052	55.47
810.231	112.81
810.411	112.81
810.59	114.86
810.769	34.99
810.948	45.23
811.127	-81.75
811.306	-18.26
811.485	-3.93
811.664	180.39
811.843	37.03
812.022	12.46
812.201	18.6
812.38	61.61
812.559	-42.84
812.737	88.23
812.916	4.27
813.095	-91.99
813.274	92.33
813.453	34.99
813.632	53.42
813.811	34.99
813.989	-89.94
814.168	-10.07
814.347	-38.74
814.526	0.17
814.704	75.95
814.883	114.86
815.062	-26.45
815.24	34.99
815.419	-42.84
815.598	49.32
815.776	-139.09
815.955	28.84
816.133	-51.03
816.312	-12.12
816.49	-79.7
816.669	26.79
816.847	-24.4
817.026	57.51
817.204	-10.07
817.383	-1.88
817.561	14.51
817.74	61.61
817.918	32.94
818.097	-10.07
818.275	-48.98
818.453	49.32
818.632	14.51
818.81	-57.17
818.988	-8.02
819.167	2.22
819.345	63.66
819.523	-51.03
819.701	39.08
819.879	22.7
820.058	-38.74
820.236	59.56
820.414	12.46
820.592	-67.41
820.77	108.71
820.948	-67.41
821.127	0.17
821.305	84.14
821.483	-51.03
821.661	114.86
821.839	59.56
822.017	-94.04
822.195	-79.7
822.373	75.95
822.551	20.65
822.729	90.28
822.907	-38.74
823.085	45.23
823.262	47.27
823.44	57.51
823.618	32.94
823.796	37.03
823.974	-59.22
824.152	-102.23
824.329	-59.22
824.507	59.56
824.685	34.99
824.863	-57.17
825.04	-34.64
825.218	110.76
825.396	0.17
825.574	20.65
825.751	-55.12
825.929	92.33
826.107	-63.32
826.284	47.27
826.462	96.43
826.639	-48.98
826.817	-61.27
826.994	47.27
827.172	-30.55
827.349	110.76
827.527	34.99
827.704	51.37
827.882	92.33
828.059	8.36
828.237	24.75
828.414	63.66
828.591	-98.13
828.769	8.36
828.946	-36.69
829.124	82.09
829.301	73.9
829.478	-16.21
829.655	57.51
829.833	121
830.01	-120.66
830.187	24.75
830.364	41.13
830.542	-71.51
830.719	100.52
830.896	43.18
831.073	-18.26
831.25	-18.26
831.427	12.46
831.604	20.65
831.782	-67.41
831.959	49.32
832.136	-32.6
832.313	-10.07
832.49	-28.5
832.667	39.08
832.844	-10.07
833.021	159.91
833.198	20.65
833.374	26.79
833.551	-20.31
833.728	24.75
833.905	39.08
834.082	-128.85
834.259	71.85
834.436	39.08
834.612	-112.47
834.789	164.01
834.966	4.27
835.143	75.95
835.319	-79.7
835.496	-32.6
835.673	51.37
835.85	100.52
836.026	14.51
836.203	92.33
836.38	-8.02
836.556	-26.45
836.733	-114.52
836.909	114.86
837.086	-57.17
837.262	-77.65
837.439	4.27
837.616	2.22
837.792	-42.84
837.968	6.31
838.145	-122.71
838.321	10.41
838.498	30.89
838.674	41.13
838.851	75.95
839.027	-42.84
839.203	127.14
839.38	37.03
839.556	-38.74
839.732	94.38
839.909	28.84
840.085	39.08
840.261	-53.08
840.437	-22.36
840.614	-18.26
840.79	104.62
840.966	63.66
841.142	8.36
841.318	-87.89
841.494	-48.98
841.671	16.55
841.847	-22.36
842.023	-100.18
842.199	53.42
842.375	131.24
842.551	-8.02
842.727	-91.99
842.903	147.62
843.079	-143.19
843.255	121
843.431	-10.07
843.607	12.46
843.783	-165.71
843.959	98.47
844.134	-5.97
844.31	125.1
844.486	-10.07
844.662	-36.69
844.838	-53.08
845.013	6.31
845.189	118.95
845.365	4.27
845.541	-55.12
845.716	28.84
845.892	61.61
846.068	45.23
846.244	-75.6
846.419	22.7
846.595	-53.08
846.77	-120.66
846.946	67.75
847.122	-75.6
847.297	10.41
847.473	131.24
847.648	-57.17
847.824	-14.17
847.999	-79.7
848.175	28.84
848.35	61.61
848.526	43.18
848.701	121
848.876	4.27
849.052	71.85
849.227	16.55
849.403	-63.32
849.578	-48.98
849.753	61.61
849.929	71.85
850.104	-85.84
850.279	-40.79
850.454	-12.12
850.63	4.27
850.805	10.41
850.98	26.79
851.155	0.17
851.33	22.7
851.505	-149.33
851.681	190.63
851.856	-61.27
852.031	84.14
852.206	8.36
852.381	-77.65
852.556	12.46
852.731	37.03
852.906	6.31
853.081	-18.26
853.256	53.42
853.431	10.41
853.606	-71.51
853.781	-46.93
853.956	-139.09
854.131	22.7
854.305	-108.37
854.48	41.13
854.655	-53.08
854.83	-55.12
855.005	10.41
855.18	55.47
855.354	-59.22
855.529	-5.97
855.704	-24.4
855.879	-14.17
856.053	-55.12
856.228	47.27
856.403	-94.04
856.577	24.75
856.752	-120.66
856.926	-18.26
857.101	59.56
857.276	-137.04
857.45	0.17
857.625	118.95
857.799	65.71
857.974	90.28
858.148	-85.84
858.323	32.94
858.497	-102.23
858.672	-61.27
858.846	-69.46
859.02	6.31
859.195	-116.56
859.369	12.46
859.543	51.37
859.718	-12.12
859.892	32.94
860.066	-12.12
860.241	30.89
860.415	-96.08
860.589	-38.74
860.763	20.65
860.938	-10.07
861.112	57.51
861.286	-83.8
861.46	0.17
861.634	-20.31
861.808	22.7
861.982	-1.88
862.157	-122.71
862.331	-102.23
862.505	-53.08
862.679	-55.12
862.853	-55.12
863.027	-20.31
863.201	84.14
863.375	-57.17
863.549	8.36
863.722	100.52
863.896	108.71
864.07	-32.6
864.244	0.17
864.418	-1.88
864.592	10.41
864.766	4.27
864.939	12.46
865.113	-73.56
865.287	104.62
865.461	-59.22
865.634	-28.5
865.808	-16.21
865.982	-59.22
866.156	-1.88
866.329	-81.75
866.503	0.17
866.676	92.33
866.85	26.79
867.024	-28.5
867.197	125.1
867.371	47.27
867.544	20.65
867.718	-71.51
867.891	84.14
868.065	-75.6
868.238	-34.64
868.412	92.33
868.585	-63.32
868.759	-85.84
868.932	-20.31
869.105	-77.65
869.279	2.22
869.452	-57.17
869.625	-36.69
869.799	-63.32
869.972	-106.32
870.145	-36.69
870.319	32.94
870.492	-55.12
870.665	10.41
870.838	-57.17
871.011	-73.56
871.185	-71.51
871.358	-91.99
871.531	-10.07
871.704	-135
871.877	86.19
872.05	-3.93
872.223	-65.36
872.396	-10.07
872.569	80.04
872.742	-89.94
872.915	-16.21
873.088	-69.46
873.261	-14.17
873.434	118.95
873.607	-3.93
873.78	30.89
873.953	-67.41
874.126	-5.97
874.299	-44.88
874.471	-79.7
874.644	12.46
874.817	34.99
874.99	125.1
875.163	-48.98
875.335	59.56
875.508	-16.21
875.681	94.38
875.853	-75.6
876.026	0.17
876.199	69.8
876.371	49.32
876.544	-24.4
876.717	12.46
876.889	-1.88
877.062	28.84
877.234	-83.8
877.407	-116.56
877.579	-12.12
877.752	16.55
877.924	32.94
878.097	-8.02
878.269	37.03
878.442	12.46
878.614	-63.32
878.786	-8.02
878.959	-3.93
879.131	-5.97
879.303	-155.47
879.476	-36.69
879.648	77.99
879.82	-44.88
879.993	-79.7
880.165	-77.65
880.337	-89.94
880.509	-81.75
880.681	-132.95
880.854	-1.88
881.026	18.6
881.198	151.72
881.37	-1.88
881.542	4.27
881.714	6.31
881.886	-44.88
882.058	-46.93
882.23	61.61
882.402	18.6
882.574	53.42
882.746	73.9
882.918	61.61
883.09	37.03
883.262	-12.12
883.434	16.55
883.606	-59.22
883.778	18.6
883.95	114.86
884.122	-12.12
884.293	102.57
884.465	4.27
884.637	96.43
884.809	26.79
884.98	63.66
885.152	-63.32
885.324	90.28
885.496	-20.31
885.667	0.17
885.839	-26.45
886.011	92.33
886.182	37.03
886.354	67.75
886.525	-3.93
886.697	20.65
886.869	-30.55
887.04	-36.69
887.212	61.61
887.383	131.24
887.555	-42.84
887.726	12.46
887.897	-40.79
888.069	55.47
888.24	-5.97
888.412	-85.84
888.583	-85.84
888.754	47.27
888.926	-149.33
889.097	-16.21
889.268	-151.38
889.44	4.27
889.611	-73.56
889.782	-51.03
889.953	-102.23
890.125	75.95
890.296	-94.04
890.467	-44.88
890.638	-122.71
890.809	-46.93
890.98	-30.55
891.151	-67.41
891.323	114.86
891.494	-44.88
891.665	-34.64
891.836	10.41
892.007	92.33
892.178	-87.89
892.349	-14.17
892.52	-32.6
892.691	-18.26
892.862	-48.98
893.032	-112.47
893.203	-18.26
893.374	18.6
893.545	129.19
893.716	-122.71
893.887	65.71
894.057	-14.17
894.228	-18.26
894.399	-51.03
894.57	71.85
894.74	-75.6
894.911	-16.21
895.082	-42.84
895.253	26.79
895.423	-22.36
895.594	88.23
895.764	20.65
895.935	-94.04
896.106	2.22
896.276	-46.93
896.447	-55.12
896.617	-69.46
896.788	-34.64
896.958	55.47
897.129	-167.76
897.299	-104.28
897.47	127.14
897.64	121
897.81	-44.88
897.981	-22.36
898.151	-100.18
898.322	14.51
898.492	12.46
898.662	-100.18
898.832	-24.4
899.003	-8.02
899.173	20.65
899.343	-96.08
899.513	-18.26
