Data from USB4F104151__10__10-41-24-089.txt Node

Date: Wed Feb 26 10:41:24 EST 2025
User: louis
Spectrometer: USB4F10415
Trigger mode: 4
Integration Time (sec): 1.000000E-1
Scans to average: 1
Electric dark correction enabled: true
Nonlinearity correction enabled: false
Boxcar width: 0
XAxis mode: Wavelengths
Number of Pixels in Spectrum: 3648
>>>>>Begin Spectral Data<<<<<
178.204	-424.27
178.424	-424.27
178.644	-424.27
178.864	-397.65
179.084	-356.69
179.304	1.71
179.524	-65.88
179.744	44.71
179.964	34.47
180.184	-20.82
180.404	89.77
180.624	-69.97
180.844	34.47
181.064	-90.45
181.283	-14.68
181.503	-33.11
181.723	89.77
181.943	-162.13
182.163	263.85
182.383	-55.64
182.602	81.58
182.822	75.43
183.042	32.43
183.262	1.71
183.482	48.81
183.701	61.1
183.921	79.53
184.141	11.95
184.361	93.87
184.58	63.15
184.8	73.39
185.02	110.25
185.239	54.95
185.459	108.2
185.679	97.96
185.898	-33.11
186.118	71.34
186.338	87.72
186.557	130.73
186.777	9.9
186.997	81.58
187.216	46.76
187.436	212.65
187.655	42.67
187.875	136.87
188.095	71.34
188.314	220.84
188.534	132.78
188.753	54.95
188.973	110.25
189.192	226.98
189.412	63.15
189.631	13.99
189.851	83.63
190.07	196.26
190.29	13.99
190.509	136.87
190.729	-2.39
190.948	110.25
191.168	282.28
191.387	110.25
191.607	102.06
191.826	32.43
192.045	-8.53
192.265	28.33
192.484	61.1
192.704	73.39
192.923	-72.02
193.142	177.83
193.362	59.05
193.581	130.73
193.8	122.54
194.02	183.98
194.239	7.85
194.458	52.91
194.678	-4.44
194.897	-8.53
195.116	32.43
195.335	61.1
195.555	50.86
195.774	-8.53
195.993	130.73
196.212	11.95
196.432	26.28
196.651	-18.77
196.87	28.33
197.089	192.17
197.308	69.29
197.528	100.01
197.747	44.71
197.966	71.34
198.185	151.21
198.404	26.28
198.623	163.5
198.842	130.73
199.062	147.11
199.281	54.95
199.5	52.91
199.719	175.78
199.938	59.05
200.157	130.73
200.376	97.96
200.595	106.15
200.814	36.52
201.033	-47.44
201.252	186.02
201.471	63.15
201.69	138.92
201.909	5.8
202.128	106.15
202.347	196.26
202.566	40.62
202.785	-59.73
203.004	81.58
203.223	233.13
203.442	77.48
203.661	-98.64
203.879	71.34
204.098	136.87
204.317	52.91
204.536	110.25
204.755	122.54
204.974	26.28
205.193	3.75
205.411	161.45
205.63	81.58
205.849	81.58
206.068	5.8
206.287	-33.11
206.505	188.07
206.724	16.04
206.943	-49.49
207.162	24.23
207.381	126.63
207.599	32.43
207.818	28.33
208.037	28.33
208.255	63.15
208.474	69.29
208.693	126.63
208.911	30.38
209.13	44.71
209.349	140.97
209.567	79.53
209.786	126.63
210.005	24.23
210.223	-0.34
210.442	-53.59
210.661	22.19
210.879	24.23
211.098	130.73
211.316	13.99
211.535	102.06
211.753	65.19
211.972	54.95
212.191	93.87
212.409	48.81
212.628	120.49
212.846	16.04
213.065	57
213.283	126.63
213.502	71.34
213.72	36.52
213.938	42.67
214.157	24.23
214.375	165.54
214.594	36.52
214.812	57
215.031	-0.34
215.249	61.1
215.467	50.86
215.686	32.43
215.904	165.54
216.122	-47.44
216.341	155.3
216.559	120.49
216.778	106.15
216.996	106.15
217.214	34.47
217.432	20.14
217.651	-18.77
217.869	85.67
218.087	18.09
218.306	71.34
218.524	114.34
218.742	61.1
218.96	77.48
219.179	42.67
219.397	24.23
219.615	222.89
219.833	130.73
220.051	-8.53
220.27	155.3
220.488	134.82
220.706	102.06
220.924	36.52
221.142	-69.97
221.36	120.49
221.578	126.63
221.796	57
222.015	104.11
222.233	73.39
222.451	130.73
222.669	-10.58
222.887	81.58
223.105	-8.53
223.323	46.76
223.541	-14.68
223.759	28.33
223.977	63.15
224.195	40.62
224.413	69.29
224.631	71.34
224.849	112.3
225.067	253.61
225.285	-0.34
225.503	57
225.721	-63.83
225.939	50.86
226.157	44.71
226.375	276.13
226.592	13.99
226.81	30.38
227.028	120.49
227.246	169.64
227.464	75.43
227.682	69.29
227.9	110.25
228.117	122.54
228.335	136.87
228.553	36.52
228.771	40.62
228.989	36.52
229.206	122.54
229.424	67.24
229.642	-41.3
229.86	-31.06
230.077	75.43
230.295	69.29
230.513	130.73
230.731	54.95
230.948	179.88
231.166	165.54
231.384	-18.77
231.601	-37.2
231.819	179.88
232.037	13.99
232.254	5.8
232.472	46.76
232.689	11.95
232.907	147.11
233.125	44.71
233.342	24.23
233.56	-8.53
233.777	73.39
233.995	-8.53
234.213	155.3
234.43	83.63
234.648	54.95
234.865	28.33
235.083	65.19
235.3	54.95
235.518	100.01
235.735	106.15
235.953	104.11
236.17	7.85
236.388	95.91
236.605	77.48
236.822	81.58
237.04	85.67
237.257	77.48
237.475	-12.63
237.692	20.14
237.909	134.82
238.127	-18.77
238.344	124.58
238.562	77.48
238.779	-45.4
238.996	-29.01
239.214	28.33
239.431	102.06
239.648	5.8
239.865	52.91
240.083	67.24
240.3	69.29
240.517	-4.44
240.735	-0.34
240.952	149.16
241.169	110.25
241.386	87.72
241.603	7.85
241.821	-35.16
242.038	102.06
242.255	194.22
242.472	28.33
242.689	124.58
242.907	93.87
243.124	-2.39
243.341	85.67
243.558	18.09
243.775	3.75
243.992	13.99
244.209	69.29
244.426	163.5
244.643	97.96
244.86	28.33
245.078	130.73
245.295	48.81
245.512	93.87
245.729	16.04
245.946	114.34
246.163	34.47
246.38	46.76
246.597	83.63
246.814	75.43
247.031	36.52
247.248	50.86
247.464	67.24
247.681	81.58
247.898	32.43
248.115	30.38
248.332	-2.39
248.549	167.59
248.766	134.82
248.983	134.82
249.2	116.39
249.417	110.25
249.633	-78.16
249.85	110.25
250.067	114.34
250.284	65.19
250.501	181.93
250.717	114.34
250.934	13.99
251.151	24.23
251.368	48.81
251.585	32.43
251.801	91.82
252.018	28.33
252.235	163.5
252.451	-80.21
252.668	16.04
252.885	108.2
253.102	118.44
253.318	61.1
253.535	67.24
253.752	7.85
253.968	5.8
254.185	-26.96
254.401	48.81
254.618	104.11
254.835	20.14
255.051	79.53
255.268	61.1
255.484	36.52
255.701	46.76
255.917	46.76
256.134	46.76
256.351	63.15
256.567	-55.64
256.784	44.71
257	-35.16
257.217	52.91
257.433	95.91
257.65	34.47
257.866	122.54
258.082	-8.53
258.299	5.8
258.515	104.11
258.732	9.9
258.948	-65.88
259.165	67.24
259.381	-80.21
259.597	112.3
259.814	61.1
260.03	-8.53
260.246	38.57
260.463	147.11
260.679	200.36
260.895	54.95
261.112	118.44
261.328	36.52
261.544	22.19
261.761	192.17
261.977	48.81
262.193	-67.92
262.409	126.63
262.626	-26.96
262.842	-39.25
263.058	44.71
263.274	157.35
263.49	36.52
263.707	9.9
263.923	77.48
264.139	-53.59
264.355	20.14
264.571	108.2
264.787	85.67
265.004	54.95
265.22	61.1
265.436	-6.49
265.652	36.52
265.868	110.25
266.084	18.09
266.3	132.78
266.516	22.19
266.732	13.99
266.948	59.05
267.164	11.95
267.38	69.29
267.596	9.9
267.812	231.08
268.028	106.15
268.244	22.19
268.46	9.9
268.676	-59.73
268.892	100.01
269.108	-22.87
269.324	-35.16
269.54	-2.39
269.756	5.8
269.972	-86.36
270.188	-14.68
270.403	3.75
270.619	28.33
270.835	69.29
271.051	7.85
271.267	1.71
271.483	28.33
271.698	83.63
271.914	108.2
272.13	57
272.346	91.82
272.562	46.76
272.777	161.45
272.993	-16.73
273.209	7.85
273.425	95.91
273.64	-29.01
273.856	85.67
274.072	-4.44
274.287	24.23
274.503	120.49
274.719	100.01
274.934	13.99
275.15	-53.59
275.366	22.19
275.581	42.67
275.797	102.06
276.012	122.54
276.228	7.85
276.444	95.91
276.659	95.91
276.875	-59.73
277.09	16.04
277.306	11.95
277.521	114.34
277.737	132.78
277.952	85.67
278.168	34.47
278.383	52.91
278.599	46.76
278.814	59.05
279.03	-12.63
279.245	155.3
279.461	65.19
279.676	145.06
279.892	-82.26
280.107	-45.4
280.322	-18.77
280.538	65.19
280.753	-51.54
280.969	30.38
281.184	73.39
281.399	177.83
281.615	-0.34
281.83	73.39
282.045	-12.63
282.26	-0.34
282.476	63.15
282.691	140.97
282.906	50.86
283.122	106.15
283.337	59.05
283.552	75.43
283.767	63.15
283.983	132.78
284.198	7.85
284.413	48.81
284.628	40.62
284.843	102.06
285.058	79.53
285.274	93.87
285.489	-18.77
285.704	104.11
285.919	5.8
286.134	-39.25
286.349	77.48
286.564	87.72
286.779	147.11
286.995	50.86
287.21	-61.78
287.425	-4.44
287.64	13.99
287.855	52.91
288.07	22.19
288.285	91.82
288.5	140.97
288.715	-12.63
288.93	75.43
289.145	3.75
289.36	97.96
289.575	59.05
289.79	42.67
290.004	-8.53
290.219	104.11
290.434	65.19
290.649	-41.3
290.864	34.47
291.079	54.95
291.294	102.06
291.509	122.54
291.724	71.34
291.938	57
292.153	102.06
292.368	24.23
292.583	93.87
292.798	75.43
293.012	3.75
293.227	102.06
293.442	16.04
293.657	85.67
293.871	100.01
294.086	44.71
294.301	179.88
294.516	100.01
294.73	122.54
294.945	-26.96
295.16	83.63
295.374	120.49
295.589	69.29
295.804	3.75
296.018	132.78
296.233	159.4
296.447	32.43
296.662	-18.77
296.877	114.34
297.091	71.34
297.306	59.05
297.52	-10.58
297.735	52.91
297.949	26.28
298.164	102.06
298.378	24.23
298.593	-92.5
298.807	7.85
299.022	-10.58
299.236	171.69
299.451	16.04
299.665	36.52
299.88	18.09
300.094	69.29
300.309	73.39
300.523	83.63
300.737	-14.68
300.952	71.34
301.166	59.05
301.381	-82.26
301.595	16.04
301.809	24.23
302.024	40.62
302.238	5.8
302.452	155.3
302.667	-2.39
302.881	140.97
303.095	128.68
303.309	63.15
303.524	-33.11
303.738	28.33
303.952	13.99
304.166	69.29
304.381	-92.5
304.595	120.49
304.809	48.81
305.023	100.01
305.237	-33.11
305.452	40.62
305.666	155.3
305.88	143.02
306.094	110.25
306.308	112.3
306.522	190.12
306.736	3.75
306.95	120.49
307.164	54.95
307.379	3.75
307.593	108.2
307.807	75.43
308.021	81.58
308.235	116.39
308.449	-33.11
308.663	69.29
308.877	257.7
309.091	59.05
309.305	145.06
309.519	-37.2
309.733	153.26
309.947	-139.6
310.161	85.67
310.374	128.68
310.588	145.06
310.802	-94.55
311.016	50.86
311.23	140.97
311.444	-43.35
311.658	85.67
311.872	97.96
312.085	73.39
312.299	147.11
312.513	106.15
312.727	36.52
312.941	16.04
313.154	97.96
313.368	50.86
313.582	44.71
313.796	71.34
314.009	36.52
314.223	132.78
314.437	87.72
314.651	93.87
314.864	13.99
315.078	26.28
315.292	18.09
315.505	3.75
315.719	120.49
315.933	61.1
316.146	36.52
316.36	30.38
316.573	57
316.787	186.02
317.001	48.81
317.214	-31.06
317.428	13.99
317.641	-61.78
317.855	32.43
318.068	30.38
318.282	79.53
318.495	200.36
318.709	83.63
318.922	59.05
319.136	122.54
319.349	44.71
319.563	81.58
319.776	128.68
319.99	-65.88
320.203	93.87
320.417	71.34
320.63	77.48
320.843	188.07
321.057	63.15
321.27	52.91
321.483	61.1
321.697	147.11
321.91	91.82
322.124	-2.39
322.337	65.19
322.55	-0.34
322.763	-45.4
322.977	16.04
323.19	48.81
323.403	83.63
323.617	190.12
323.83	128.68
324.043	44.71
324.256	110.25
324.469	-45.4
324.683	114.34
324.896	79.53
325.109	108.2
325.322	-4.44
325.535	132.78
325.748	46.76
325.962	28.33
326.175	36.52
326.388	112.3
326.601	194.22
326.814	54.95
327.027	18.09
327.24	63.15
327.453	-0.34
327.666	77.48
327.879	67.24
328.092	75.43
328.305	67.24
328.518	28.33
328.731	-29.01
328.944	69.29
329.157	75.43
329.37	1.71
329.583	198.31
329.796	126.63
330.009	3.75
330.222	134.82
330.435	120.49
330.648	28.33
330.861	57
331.073	112.3
331.286	112.3
331.499	81.58
331.712	-16.73
331.925	18.09
332.138	57
332.35	61.1
332.563	5.8
332.776	151.21
332.989	26.28
333.202	44.71
333.414	138.92
333.627	48.81
333.84	20.14
334.053	46.76
334.265	67.24
334.478	67.24
334.691	38.57
334.903	75.43
335.116	11.95
335.329	61.1
335.541	118.44
335.754	208.55
335.966	24.23
336.179	44.71
336.392	63.15
336.604	40.62
336.817	87.72
337.029	71.34
337.242	-39.25
337.454	69.29
337.667	102.06
337.88	179.88
338.092	85.67
338.305	-29.01
338.517	46.76
338.729	128.68
338.942	136.87
339.154	34.47
339.367	11.95
339.579	122.54
339.792	-55.64
340.004	61.1
340.217	36.52
340.429	155.3
340.641	-14.68
340.854	-33.11
341.066	-4.44
341.278	87.72
341.491	212.65
341.703	89.77
341.915	9.9
342.128	130.73
342.34	28.33
342.552	61.1
342.764	93.87
342.977	54.95
343.189	24.23
343.401	79.53
343.613	-29.01
343.826	13.99
344.038	1.71
344.25	67.24
344.462	3.75
344.674	61.1
344.886	57
345.099	22.19
345.311	91.82
345.523	-0.34
345.735	-18.77
345.947	81.58
346.159	18.09
346.371	85.67
346.583	-24.92
346.795	237.22
347.007	110.25
347.219	40.62
347.431	95.91
347.643	130.73
347.855	-29.01
348.067	79.53
348.279	13.99
348.491	-24.92
348.703	134.82
348.915	89.77
349.127	-16.73
349.339	73.39
349.551	-51.54
349.763	69.29
349.975	46.76
350.187	85.67
350.399	157.35
350.61	118.44
350.822	26.28
351.034	81.58
351.246	57
351.458	112.3
351.669	79.53
351.881	102.06
352.093	130.73
352.305	30.38
352.517	22.19
352.728	157.35
352.94	83.63
353.152	85.67
353.363	-47.44
353.575	93.87
353.787	143.02
353.999	65.19
354.21	151.21
354.422	16.04
354.633	28.33
354.845	65.19
355.057	69.29
355.268	73.39
355.48	124.58
355.692	-18.77
355.903	50.86
356.115	28.33
356.326	18.09
356.538	118.44
356.749	-2.39
356.961	145.06
357.172	-14.68
357.384	57
357.595	143.02
357.807	28.33
358.018	34.47
358.23	24.23
358.441	214.7
358.653	102.06
358.864	24.23
359.075	79.53
359.287	93.87
359.498	163.5
359.709	132.78
359.921	100.01
360.132	112.3
360.344	18.09
360.555	40.62
360.766	65.19
360.977	130.73
361.189	220.84
361.4	57
361.611	120.49
361.823	112.3
362.034	42.67
362.245	-33.11
362.456	120.49
362.667	69.29
362.879	18.09
363.09	61.1
363.301	3.75
363.512	102.06
363.723	36.52
363.935	11.95
364.146	97.96
364.357	50.86
364.568	104.11
364.779	-74.07
364.99	155.3
365.201	-43.35
365.412	89.77
365.623	-39.25
365.834	69.29
366.045	-41.3
366.256	87.72
366.467	73.39
366.678	136.87
366.889	73.39
367.1	65.19
367.311	124.58
367.522	-4.44
367.733	13.99
367.944	130.73
368.155	3.75
368.366	124.58
368.577	175.78
368.788	42.67
368.999	59.05
369.209	77.48
369.42	269.99
369.631	251.56
369.842	52.91
370.053	22.19
370.264	157.35
370.474	-2.39
370.685	102.06
370.896	71.34
371.107	69.29
371.317	34.47
371.528	46.76
371.739	112.3
371.95	59.05
372.16	118.44
372.371	-86.36
372.582	32.43
372.792	97.96
373.003	167.59
373.214	71.34
373.424	95.91
373.635	44.71
373.846	134.82
374.056	73.39
374.267	106.15
374.477	87.72
374.688	5.8
374.898	59.05
375.109	118.44
375.319	-6.49
375.53	138.92
375.74	130.73
375.951	42.67
376.161	69.29
376.372	73.39
376.582	32.43
376.793	71.34
377.003	13.99
377.214	34.47
377.424	126.63
377.635	40.62
377.845	38.57
378.055	161.45
378.266	24.23
378.476	52.91
378.686	118.44
378.897	77.48
379.107	89.77
379.317	28.33
379.528	13.99
379.738	85.67
379.948	-39.25
380.158	126.63
380.369	73.39
380.579	59.05
380.789	77.48
380.999	75.43
381.21	177.83
381.42	222.89
381.63	61.1
381.84	192.17
382.05	75.43
382.261	173.74
382.471	65.19
382.681	-8.53
382.891	134.82
383.101	114.34
383.311	38.57
383.521	24.23
383.731	30.38
383.941	30.38
384.151	63.15
384.361	7.85
384.571	-10.58
384.781	75.43
384.991	198.31
385.201	181.93
385.411	175.78
385.621	104.11
385.831	89.77
386.041	73.39
386.251	28.33
386.461	136.87
386.671	71.34
386.881	30.38
387.091	-43.35
387.301	151.21
387.511	122.54
387.72	28.33
387.93	116.39
388.14	24.23
388.35	48.81
388.56	112.3
388.769	83.63
388.979	65.19
389.189	30.38
389.399	112.3
389.609	71.34
389.818	106.15
390.028	65.19
390.238	130.73
390.447	11.95
390.657	44.71
390.867	38.57
391.076	-10.58
391.286	61.1
391.496	85.67
391.705	9.9
391.915	155.3
392.125	38.57
392.334	13.99
392.544	214.7
392.753	85.67
392.963	-6.49
393.172	32.43
393.382	59.05
393.591	143.02
393.801	-35.16
394.01	151.21
394.22	132.78
394.429	124.58
394.639	36.52
394.848	50.86
395.058	91.82
395.267	95.91
395.477	106.15
395.686	132.78
395.895	226.98
396.105	183.98
396.314	87.72
396.524	32.43
396.733	61.1
396.942	93.87
397.152	95.91
397.361	100.01
397.57	134.82
397.78	54.95
397.989	44.71
398.198	214.7
398.407	44.71
398.617	65.19
398.826	52.91
399.035	28.33
399.244	161.45
399.453	81.58
399.663	112.3
399.872	71.34
400.081	30.38
400.29	116.39
400.499	3.75
400.708	143.02
400.917	5.8
401.127	-24.92
401.336	-31.06
401.545	210.6
401.754	91.82
401.963	50.86
402.172	-10.58
402.381	9.9
402.59	-14.68
402.799	54.95
403.008	112.3
403.217	44.71
403.426	57
403.635	-31.06
403.844	48.81
404.053	52.91
404.262	18.09
404.471	200.36
404.68	102.06
404.888	40.62
405.097	61.1
405.306	18.09
405.515	93.87
405.724	85.67
405.933	140.97
406.142	126.63
406.35	87.72
406.559	77.48
406.768	7.85
406.977	186.02
407.185	126.63
407.394	87.72
407.603	52.91
407.812	136.87
408.02	194.22
408.229	34.47
408.438	83.63
408.646	-6.49
408.855	79.53
409.064	97.96
409.272	11.95
409.481	83.63
409.69	-18.77
409.898	-63.83
410.107	24.23
410.315	116.39
410.524	85.67
410.733	67.24
410.941	143.02
411.15	130.73
411.358	124.58
411.567	138.92
411.775	57
411.984	89.77
412.192	163.5
412.401	-14.68
412.609	224.94
412.818	112.3
413.026	83.63
413.234	7.85
413.443	87.72
413.651	-14.68
413.86	81.58
414.068	163.5
414.276	159.4
414.485	67.24
414.693	175.78
414.901	257.7
415.11	171.69
415.318	128.68
415.526	81.58
415.734	183.98
415.943	85.67
416.151	233.13
416.359	126.63
416.567	87.72
416.776	73.39
416.984	40.62
417.192	226.98
417.4	63.15
417.608	46.76
417.817	40.62
418.025	61.1
418.233	255.65
418.441	46.76
418.649	46.76
418.857	71.34
419.065	124.58
419.273	38.57
419.481	57
419.689	52.91
419.897	140.97
420.105	5.8
420.313	143.02
420.521	138.92
420.729	222.89
420.937	69.29
421.145	-24.92
421.353	126.63
421.561	226.98
421.769	89.77
421.977	116.39
422.185	63.15
422.393	-49.49
422.601	102.06
422.809	147.11
423.017	63.15
423.224	40.62
423.432	71.34
423.64	54.95
423.848	169.64
424.056	77.48
424.263	128.68
424.471	26.28
424.679	253.61
424.887	40.62
425.094	192.17
425.302	120.49
425.51	155.3
425.718	151.21
425.925	126.63
426.133	7.85
426.341	249.51
426.548	69.29
426.756	120.49
426.964	163.5
427.171	-43.35
427.379	108.2
427.586	57
427.794	126.63
428.001	118.44
428.209	114.34
428.417	130.73
428.624	157.35
428.832	159.4
429.039	52.91
429.247	126.63
429.454	134.82
429.662	284.33
429.869	173.74
430.076	89.77
430.284	235.18
430.491	136.87
430.699	192.17
430.906	288.42
431.114	118.44
431.321	206.5
431.528	165.54
431.736	165.54
431.943	233.13
432.15	274.09
432.358	202.41
432.565	325.29
432.772	16.04
432.979	243.37
433.187	177.83
433.394	200.36
433.601	153.26
433.808	263.85
434.016	329.38
434.223	308.9
434.43	274.09
434.637	224.94
434.844	364.2
435.052	296.61
435.259	288.42
435.466	331.43
435.673	298.66
435.88	351.91
436.087	396.96
436.294	386.72
436.501	358.05
436.708	284.33
436.915	313
437.122	417.44
437.329	288.42
437.537	351.91
437.743	431.78
437.95	521.89
438.157	452.26
438.364	505.51
438.571	454.31
438.778	495.27
438.985	546.47
439.192	466.6
439.399	499.36
439.606	513.7
439.813	655.01
440.02	687.78
440.227	667.3
440.433	634.53
440.64	597.67
440.847	646.82
441.054	665.25
441.261	804.51
441.467	679.58
441.674	612
441.881	847.52
442.088	689.82
442.294	896.67
442.501	925.34
442.708	913.05
442.914	915.1
443.121	968.35
443.328	968.35
443.534	1160.86
443.741	1058.46
443.948	913.05
444.154	1160.86
444.361	1324.69
444.568	1113.75
444.774	1257.11
444.981	1146.52
445.187	1398.42
445.394	1398.42
445.6	1420.95
445.807	1496.72
446.013	1470.1
446.22	1388.18
446.426	1625.75
446.633	1752.72
446.839	1805.97
447.046	1775.25
447.252	1934.99
447.459	1851.02
447.665	1947.28
447.871	2113.16
448.078	2371.21
448.284	2154.12
448.491	2291.34
448.697	2459.27
448.903	2522.76
449.11	2582.15
449.316	2588.29
449.522	2788.99
449.728	2745.98
449.935	2936.45
450.141	2930.3
450.347	3212.92
450.553	3245.69
450.76	3274.36
450.966	3415.67
451.172	3368.57
451.378	3683.95
451.584	3731.06
451.791	3866.22
451.997	3942
452.203	4200.04
452.409	4474.47
452.615	4564.58
452.821	4390.5
453.027	4644.45
453.233	5097.05
453.44	4861.54
453.646	5127.77
453.852	5475.93
454.058	5557.85
454.264	5635.67
454.47	6217.29
454.676	6217.29
454.882	6608.45
455.088	6452.81
455.294	6688.32
455.5	7134.78
455.705	7691.83
455.911	7601.72
456.117	7870
456.323	8089.14
456.529	8304.17
456.735	9020.96
456.941	8971.81
457.147	9387.55
457.352	9690.65
457.558	9956.88
457.764	10556.94
457.97	10849.8
458.176	11343.36
458.381	11726.33
458.587	12310
458.793	12582.38
458.999	12565.99
459.204	14259.67
459.41	14804.42
459.616	14480.85
459.821	15269.31
460.027	16115.12
460.233	16727.47
460.438	17016.23
460.644	17976.73
460.85	17931.67
461.055	18822.54
461.261	19737.98
461.466	19443.07
461.672	19330.44
461.878	22068.57
462.083	21591.39
462.289	21937.5
462.494	22975.82
462.7	23153.99
462.905	23121.23
463.111	25144.62
463.316	26592.53
463.522	27071.76
463.727	27839.75
463.932	29091.05
464.138	29738.21
464.343	31356.11
464.549	31599.82
464.754	33707.18
464.959	34618.52
465.165	35026.07
465.37	34776.22
465.575	34501.79
465.781	37014.65
465.986	37913.7
466.191	37555.31
466.397	37772.39
466.602	36965.49
466.807	39261.27
467.012	40012.87
467.218	40723.52
467.423	40236.1
467.628	41806.89
467.833	43615.25
468.038	42939.42
468.244	42568.74
468.449	44448.77
468.654	43779.09
468.859	43336.73
469.064	43584.53
469.269	42546.21
469.474	43267.09
469.679	44069.9
469.885	43316.25
470.09	43475.99
470.295	44104.71
470.5	42929.18
470.705	42546.21
470.91	41997.35
471.115	41468.98
471.32	42234.92
471.525	42300.45
471.73	40590.4
471.935	40029.26
472.139	38591.58
472.344	39072.85
472.549	38726.75
472.754	38175.84
472.959	37074.04
473.164	36097.16
473.369	35525.77
473.574	36549.76
473.778	35515.53
473.983	35427.47
474.188	34632.86
474.393	33166.51
474.598	32562.36
474.802	32468.16
475.007	31630.54
475.212	31440.07
475.417	30190.81
475.621	29629.67
475.826	29850.85
476.031	28542.2
476.235	28060.93
476.44	28335.35
476.645	27694.34
476.849	27245.83
477.054	27002.13
477.259	26266.91
477.463	26307.87
477.668	25666.85
477.872	25294.12
478.077	24739.12
478.282	24169.79
478.486	24024.38
478.691	23496
478.895	23496
479.1	23403.85
479.304	23262.54
479.509	22478.16
479.713	22732.11
479.918	22056.28
480.122	21693.79
480.326	21800.29
480.531	21736.8
480.735	21601.63
480.94	21077.35
481.144	21929.31
481.348	20723.05
481.553	21091.69
481.757	20344.18
481.961	20551.03
482.166	20501.87
482.37	20352.37
482.574	20065.66
482.778	19783.04
482.983	20508.02
483.187	19873.15
483.391	19580.29
483.595	19312
483.8	19002.76
484.004	18992.52
484.208	19150.21
484.412	18660.75
484.616	18660.75
484.821	18242.96
485.025	17786.27
485.229	18159
485.433	17493.41
485.637	17319.33
485.841	17194.4
486.045	16786.86
486.249	17010.09
486.453	16539.05
486.657	16559.53
486.861	16094.65
487.065	15642.04
487.269	15545.79
487.473	15027.65
487.677	15359.42
487.881	15267.27
488.085	14783.95
488.289	14505.42
488.493	14306.77
488.697	14409.17
488.901	13774.3
489.105	13483.48
489.309	13295.07
489.512	13014.5
489.716	13098.47
489.92	12742.12
490.124	12543.47
490.328	12381.68
490.531	12041.71
490.735	11970.04
490.939	11640.31
491.143	11507.2
491.346	11230.72
491.55	11085.31
491.754	11093.51
491.958	10784.26
492.161	10511.88
492.365	10415.63
492.569	10216.97
492.772	10018.32
492.976	9924.12
493.18	9717.27
493.383	9848.34
493.587	9641.5
493.79	9786.9
493.994	9254.43
494.197	9289.24
494.401	9270.81
494.605	9004.58
494.808	9217.57
495.012	9154.08
495.215	9104.93
495.419	8943.14
495.622	8846.88
495.825	8922.66
496.029	8631.85
496.232	8900.13
496.436	8660.52
496.639	8658.47
496.843	8521.26
497.046	8703.53
497.249	8945.19
497.453	8687.14
497.656	8654.37
497.859	8760.87
498.063	8910.37
498.266	8891.94
498.469	8588.84
498.673	8535.59
498.876	8906.27
499.079	8867.36
499.282	9059.87
499.485	9168.41
499.689	8906.27
499.892	9236
500.095	8986.15
500.298	9313.82
500.501	9176.61
500.705	9369.12
500.908	9539.1
501.111	9446.94
501.314	9631.26
501.517	9782.81
501.72	9862.68
501.923	9991.7
502.126	9838.1
502.329	10163.73
502.532	10188.3
502.735	10382.86
502.938	10649.1
503.141	10432.01
503.344	10782.21
503.547	10896.9
503.75	10823.17
503.953	11185.66
504.156	11337.21
504.359	11259.39
504.562	11671.03
504.765	11722.23
504.968	11996.66
505.17	12230.13
505.373	12303.85
505.576	12637.67
505.779	12639.72
505.982	12897.77
506.185	13045.22
506.387	13331.94
506.59	13596.12
506.793	14005.72
506.996	13850.07
507.198	14757.32
507.401	14448.08
507.604	15039.94
507.807	15490.49
508.009	15781.31
508.212	15859.13
508.415	15883.7
508.617	16399.79
508.82	16850.35
509.022	16893.35
509.225	17526.18
509.428	17624.48
509.63	18195.86
509.833	18359.7
510.035	19162.5
510.238	19438.98
510.44	19869.05
510.643	20129.14
510.845	20868.46
511.048	20876.65
511.25	21914.97
511.453	21910.88
511.655	23061.83
511.858	23213.38
512.06	23596.35
512.262	24169.79
512.465	24343.86
512.667	25326.89
512.87	25582.88
513.072	26230.04
513.274	26842.39
513.477	27479.3
513.679	27542.79
513.881	28945.65
514.084	29310.19
514.286	29770.98
514.488	30483.67
514.69	31575.24
514.893	32099.52
515.095	32531.64
515.297	33234.1
515.499	33846.44
515.701	34682.01
515.904	35497.1
516.106	36410.5
516.308	36768.89
516.51	37633.13
516.712	38327.39
516.914	38884.44
517.116	40043.59
517.318	40391.75
517.52	41325.62
517.722	41810.99
517.925	42581.02
518.127	43541.52
518.329	44432.39
518.531	44807.17
518.733	45919.21
518.935	46736.35
519.136	46685.15
519.338	47922.13
519.54	48718.79
519.742	49439.67
519.944	49943.47
520.146	50912.16
520.348	51381.15
520.55	52274.06
520.752	52605.83
520.954	53420.92
521.155	53459.83
521.357	54551.4
521.559	55288.67
521.761	55901.01
521.963	55800.66
522.164	56490.83
522.366	56703.82
522.568	57824.06
522.77	58071.86
522.971	58733.35
523.173	58088.24
523.375	59257.63
523.576	59245.35
523.778	59472.67
523.98	60052.25
524.181	60056.34
524.383	60418.83
524.584	60664.59
524.786	60248.85
524.988	60875.53
525.189	61154.05
525.391	60986.12
525.592	61494.02
525.794	61100.81
525.995	60967.69
526.197	60836.62
526.398	60998.41
526.6	60840.71
526.801	60965.64
527.003	60773.13
527.204	60789.52
527.406	60644.11
527.607	59953.94
527.808	60597.01
528.01	58899.24
528.211	59654.94
528.412	59814.68
528.614	59355.94
528.815	58563.37
529.016	58692.4
529.218	57553.72
529.419	57742.14
529.62	56826.7
529.822	56488.78
530.023	55681.88
530.224	55739.22
530.425	55100.26
530.626	53967.73
530.828	53588.86
531.029	54248.3
531.23	52564.87
531.431	52239.25
531.632	51585.94
531.833	51618.71
532.035	50197.42
532.236	50013.1
532.437	49767.35
532.638	48657.35
532.839	48737.22
533.04	48374.73
533.241	46861.28
533.442	47123.42
533.643	46363.62
533.844	45097.98
534.045	45249.53
534.246	44461.06
534.447	43889.68
534.648	43459.6
534.849	43004.95
535.05	41858.09
535.251	41452.59
535.451	41038.9
535.652	40301.64
535.853	39851.08
536.054	39601.23
536.255	39124.05
536.456	38059.11
536.657	38274.15
536.857	37481.58
537.058	36674.68
537.259	36818.04
537.46	36252.8
537.66	35673.23
537.861	35257.49
538.062	34946.2
538.263	34180.26
538.463	33563.82
538.664	33649.83
538.865	32883.89
539.065	32847.03
539.266	31868.1
539.466	31827.14
539.667	31317.2
539.868	31517.9
540.068	30885.08
540.269	30301.4
540.469	30082.27
540.67	29734.12
540.87	29582.57
541.071	28945.65
541.271	28703.99
541.472	28488.95
541.672	27972.86
541.873	27268.36
542.073	26926.35
542.274	26924.3
542.474	26789.14
542.675	26316.06
542.875	26154.27
543.075	25492.77
543.276	25158.95
543.476	25564.45
543.676	24745.27
543.877	24898.86
544.077	24458.55
544.277	24546.61
544.478	23706.94
544.678	23508.29
544.878	23274.82
545.078	23188.81
545.279	22594.9
545.479	22351.19
545.679	22048.09
545.879	22031.71
546.079	21837.15
546.28	21452.13
546.48	21239.14
546.68	21233
546.88	21077.35
547.08	20540.79
547.28	20274.55
547.48	19740.03
547.68	19723.65
547.88	19656.06
548.081	19682.69
548.281	19002.76
548.481	18754.96
548.681	18689.42
548.881	18503.06
549.081	18369.94
549.28	17835.42
549.48	17685.92
549.68	17483.17
549.88	17575.33
550.08	16772.52
550.28	16686.51
550.48	16555.44
550.68	16358.83
550.88	16356.79
551.08	15719.87
551.279	15812.03
551.479	15234.5
551.679	15308.23
551.879	15095.24
552.079	14824.9
552.278	14480.85
552.478	14454.22
552.678	14140.88
552.878	14198.23
553.077	13841.88
553.277	13182.43
553.477	13376.99
553.676	13374.94
553.876	12848.61
554.076	12666.35
554.275	12387.82
554.475	12051.95
554.674	12195.31
554.874	11988.47
555.074	11734.52
555.273	11537.91
555.473	11501.05
555.672	11249.15
555.872	11195.9
556.071	10698.25
556.271	10970.63
556.47	10286.61
556.67	10192.4
556.869	10094.1
557.068	10018.32
557.268	9704.98
557.467	9694.74
557.667	9702.93
557.866	9319.96
558.065	9207.33
558.265	9125.41
558.464	8902.18
558.663	9047.58
558.863	8615.46
559.062	8650.28
559.261	8336.94
559.461	8437.29
559.66	8164.91
559.859	7843.38
560.058	7968.31
560.258	7693.88
560.457	7599.67
560.656	7720.5
560.855	7263.8
561.054	7339.58
561.253	7097.92
561.453	7196.22
561.652	7106.11
561.851	6915.65
562.05	6628.93
562.249	6559.3
562.448	6651.46
562.647	6399.56
562.846	6461
563.045	6301.26
563.244	6272.59
563.443	6286.92
563.642	5969.49
563.841	5881.42
564.04	5813.84
564.239	5697.11
564.438	5690.96
564.637	5449.3
564.836	5555.8
565.035	5133.92
565.234	5293.66
565.432	5181.02
565.631	5088.86
565.83	5193.31
566.029	5066.33
566.228	5002.85
566.427	5109.34
566.625	4730.47
566.824	4773.47
567.023	4623.97
567.222	4673.12
567.42	4603.49
567.619	4470.37
567.818	4410.98
568.016	4566.63
568.215	4421.22
568.414	4226.67
568.612	4169.32
568.811	4095.6
569.01	3960.43
569.208	4011.63
569.407	4015.73
569.605	3868.27
569.804	3698.29
570.002	3880.56
570.201	3720.82
570.4	3569.27
570.598	3710.58
570.797	3528.31
570.995	3505.78
571.193	3444.34
571.392	3526.26
571.59	3206.78
571.789	3395.19
571.987	3292.79
572.186	3335.8
572.384	3020.41
572.582	3186.3
572.781	3247.74
572.979	2850.43
573.177	2973.31
573.376	2821.76
573.574	2864.77
573.772	2860.67
573.971	2807.42
574.169	2748.03
574.367	2883.2
574.565	2729.6
574.763	2584.2
574.962	2518.66
575.16	2598.53
575.358	2508.42
575.556	2510.47
575.754	2469.51
575.952	2475.65
576.151	2455.17
576.349	2375.3
576.547	2305.67
576.745	2307.72
576.943	2227.85
577.141	2068.11
577.339	2037.39
577.537	2061.96
577.735	2166.41
577.933	2084.49
578.131	1994.38
578.329	2041.48
578.527	1898.13
578.725	1928.85
578.923	1683.09
579.121	1937.04
579.319	1791.63
579.516	1795.73
579.714	2098.83
579.912	1748.62
580.11	1586.83
580.308	1654.42
580.506	1754.77
580.704	1603.22
580.901	1623.7
581.099	1681.04
581.297	1504.92
581.495	1523.35
581.692	1595.03
581.89	1662.61
582.088	1584.79
582.285	1547.92
582.483	1373.85
582.681	1406.61
582.878	1418.9
583.076	1404.57
583.274	1322.65
583.471	1513.11
583.669	1377.94
583.866	1359.51
584.064	1404.57
584.262	1232.54
584.459	1296.02
584.657	1275.54
584.854	1220.25
585.052	1154.71
585.249	1216.15
585.447	1253.02
585.644	1138.33
585.841	1328.79
586.039	1175.19
586.236	1150.62
586.434	1099.42
586.631	1015.45
586.828	997.02
587.026	1121.95
587.223	1056.41
587.42	1091.23
587.618	921.24
587.815	1164.95
588.012	999.07
588.21	999.07
588.407	972.44
588.604	947.87
588.801	888.48
588.999	958.11
589.196	994.97
589.393	951.96
589.59	919.2
589.787	935.58
589.984	947.87
590.182	941.72
590.379	853.66
590.576	915.1
590.773	949.92
590.97	839.33
591.167	904.86
591.364	945.82
591.561	831.13
591.758	890.53
591.955	853.66
592.152	923.29
592.349	794.27
592.546	726.69
592.743	868
592.94	810.65
593.137	966.3
593.334	906.91
593.531	896.67
593.727	943.77
593.924	908.96
594.121	880.29
594.318	868
594.515	802.46
594.712	986.78
594.908	935.58
595.105	892.57
595.302	868
595.499	927.39
595.696	1003.16
595.892	847.52
596.089	1013.4
596.286	872.09
596.482	978.59
596.679	1085.08
596.876	962.2
597.072	1056.41
597.269	1130.14
597.466	1113.75
597.662	1173.14
597.859	1083.03
598.055	1152.67
598.252	1261.21
598.448	1316.5
598.645	1406.61
598.841	1306.26
599.038	1556.11
599.234	1502.87
599.431	1660.56
599.627	1613.46
599.824	1660.56
600.02	1775.25
600.217	1752.72
600.413	1793.68
600.609	1908.37
600.806	2082.44
601.002	2027.15
601.198	1967.76
601.395	2262.66
601.591	2174.6
601.787	2371.21
601.984	2475.65
602.18	2467.46
602.376	2567.81
602.572	2678.4
602.769	2938.49
602.965	2788.99
603.161	3038.84
603.357	3122.81
603.553	3405.43
603.75	3155.58
603.946	3419.77
604.142	3477.11
604.338	3753.59
604.534	3722.87
604.73	3860.08
604.926	3995.25
605.122	4275.82
605.318	4154.99
605.514	4527.72
605.71	4480.61
605.906	4597.35
606.102	4796
606.298	5039.71
606.494	5068.38
606.69	5344.86
606.886	5293.66
607.082	5574.23
607.278	5809.75
607.474	5938.77
607.67	6207.05
607.866	6065.74
608.062	6495.82
608.257	6700.61
608.453	6577.73
608.649	6995.52
608.845	7218.75
609.041	7298.62
609.236	7593.53
609.432	7761.46
609.628	8021.55
609.824	8228.4
610.019	8275.5
610.215	8500.78
610.411	8945.19
610.606	9158.17
610.802	9268.77
610.998	9621.02
611.193	9913.88
611.389	10071.57
611.584	10472.97
611.78	10364.43
611.976	10792.45
612.171	11214.34
612.367	11451.9
612.562	11562.49
612.758	11853.3
612.953	12051.95
613.149	12443.12
613.344	12639.72
613.539	13358.56
613.735	13626.84
613.93	13975
614.126	14247.38
614.321	14626.25
614.517	15201.73
614.712	15545.79
614.907	15777.21
615.103	16250.29
615.298	16729.52
615.493	17110.44
615.688	17233.32
615.884	18355.6
616.079	18345.36
616.274	18896.27
616.47	19309.96
616.665	19809.66
616.86	20374.9
617.055	20745.58
617.25	21118.31
617.445	22046.04
617.641	22375.77
617.836	23000.4
618.031	23158.09
618.226	24319.29
618.421	24784.18
618.616	25298.22
618.811	25519.4
619.006	26412.31
619.201	26445.08
619.396	27440.39
619.591	27688.2
619.786	28988.66
619.981	28902.64
620.176	29965.54
620.371	30258.4
620.566	31327.44
620.761	31507.66
620.956	32576.7
621.151	32881.84
621.346	33895.59
621.541	33946.79
621.735	35159.19
621.93	35349.65
622.125	36082.82
622.32	36512.89
622.515	37399.66
622.709	37934.18
622.904	38882.39
623.099	39296.08
623.294	40023.11
623.488	40481.86
623.683	41477.17
623.878	41567.28
624.072	43037.72
624.267	43000.86
624.462	43680.78
624.656	44246.02
624.851	45638.64
625.046	45904.88
625.24	46351.34
625.435	46658.53
625.629	47623.12
625.824	48002
626.018	48681.92
626.213	48724.93
626.407	49839.03
626.602	49615.8
626.796	50977.7
626.991	51430.3
627.185	51872.66
627.38	51633.05
627.574	52382.6
627.768	52347.79
627.963	52609.93
628.157	52319.12
628.352	53277.57
628.546	52810.63
628.74	53728.12
628.935	52802.44
629.129	53146.5
629.323	52179.85
629.517	52384.65
629.712	52358.03
629.906	51821.46
630.1	51307.42
630.294	51151.77
630.489	50260.91
630.683	50146.22
630.877	48909.25
631.071	48174.03
631.265	47887.31
631.459	46506.98
631.653	45976.56
631.848	44909.57
632.042	43709.46
632.236	42968.09
632.43	41038.9
632.624	40508.48
632.818	39265.36
633.012	38657.12
633.206	37100.66
633.4	36250.75
633.594	34784.41
633.788	34051.24
633.982	32644.28
634.176	31532.23
634.369	30061.79
634.563	28851.44
634.757	27919.62
634.951	26987.79
635.145	25824.54
635.339	24810.8
635.533	23915.84
635.726	23223.62
635.92	21974.36
636.114	21128.55
636.308	20368.76
636.501	19686.78
636.695	18906.51
636.889	18103.7
637.083	17266.08
637.276	16731.56
637.47	15760.83
637.664	14978.5
637.857	14765.51
638.051	14032.34
638.244	13485.53
638.438	12887.53
638.632	12518.89
638.825	11863.54
639.019	11417.08
639.212	10814.98
639.406	10788.36
639.599	10040.85
639.793	9831.96
639.986	9377.31
640.18	9070.11
640.373	8658.47
640.567	8316.46
640.76	7894.58
640.954	7534.14
641.147	7241.28
641.34	7132.73
641.534	6827.59
641.727	6696.52
641.92	6305.35
642.114	6059.6
642.307	5797.46
642.5	5695.06
642.694	5252.7
642.887	5256.79
643.08	5221.98
643.273	4841.06
643.467	4675.17
643.66	4415.08
643.853	4400.74
644.046	4269.67
644.239	3819.12
644.432	3745.39
644.626	3599.99
644.819	3614.32
645.012	3354.23
645.205	3260.02
645.398	3169.91
645.591	2999.93
645.784	2961.02
645.977	2721.41
646.17	2700.93
646.363	2604.67
646.556	2311.82
646.749	2281.1
646.942	2354.82
647.135	2358.92
647.328	1971.85
647.521	2068.11
647.714	2074.25
647.907	1967.76
648.099	1758.86
648.292	1932.94
648.485	1730.19
648.678	1654.42
648.871	1701.52
649.064	1543.83
649.256	1478.29
649.449	1398.42
649.642	1341.08
649.835	1384.09
650.027	1308.31
650.22	1205.91
650.413	1189.53
650.605	1142.43
650.798	1107.61
650.991	1113.75
651.183	958.11
651.376	1048.22
651.568	925.34
651.761	882.33
651.954	943.77
652.146	878.24
652.339	1025.69
652.531	968.35
652.724	814.75
652.916	841.37
653.109	714.4
653.301	833.18
653.494	796.32
653.686	726.69
653.879	734.88
654.071	685.73
654.263	628.39
654.456	560.8
654.648	728.74
654.84	634.53
655.033	556.71
655.225	788.13
655.417	468.64
655.61	593.57
655.802	605.86
655.994	603.81
656.186	444.07
656.379	536.23
656.571	450.21
656.763	419.49
656.955	519.84
657.148	472.74
657.34	546.47
657.532	525.99
657.724	464.55
657.916	525.99
658.108	513.7
658.3	399.01
658.492	470.69
658.684	267.94
658.876	468.64
659.068	356.01
659.26	274.09
659.452	341.67
659.644	472.74
659.836	423.59
660.028	413.35
660.22	251.56
660.412	304.81
660.604	323.24
660.796	376.48
660.988	396.96
661.18	284.33
661.372	368.29
661.563	347.81
661.755	272.04
661.947	257.7
662.139	278.18
662.331	343.72
662.522	302.76
662.714	216.74
662.906	224.94
663.097	200.36
663.289	294.57
663.481	188.07
663.673	269.99
663.864	327.33
664.056	306.85
664.247	229.03
664.439	310.95
664.631	249.51
664.822	323.24
665.014	233.13
665.205	237.22
665.397	247.46
665.588	255.65
665.78	304.81
665.971	294.57
666.163	155.3
666.354	300.71
666.546	276.13
666.737	218.79
666.929	265.89
667.12	245.41
667.311	286.37
667.503	204.46
667.694	265.89
667.885	253.61
668.077	372.39
668.268	247.46
668.459	216.74
668.651	276.13
668.842	231.08
669.033	177.83
669.224	177.83
669.416	425.64
669.607	183.98
669.798	173.74
669.989	282.28
670.18	183.98
670.371	396.96
670.563	224.94
670.754	335.53
670.945	382.63
671.136	310.95
671.327	290.47
671.518	437.92
671.709	411.3
671.9	345.77
672.091	341.67
672.282	306.85
672.473	327.33
672.664	179.88
672.855	302.76
673.046	257.7
673.237	362.15
673.428	341.67
673.619	349.86
673.809	280.23
674	421.54
674.191	409.25
674.382	321.19
674.573	288.42
674.764	349.86
674.954	384.68
675.145	306.85
675.336	276.13
675.527	300.71
675.717	360.1
675.908	280.23
676.099	325.29
676.289	409.25
676.48	259.75
676.671	425.64
676.861	308.9
677.052	425.64
677.243	427.68
677.433	337.57
677.624	394.92
677.814	335.53
678.005	491.17
678.195	452.26
678.386	358.05
678.576	331.43
678.767	288.42
678.957	319.14
679.148	507.55
679.338	495.27
679.529	429.73
679.719	450.21
679.909	489.12
680.1	472.74
680.29	564.9
680.481	366.25
680.671	491.17
680.861	446.12
681.052	558.75
681.242	317.09
681.432	519.84
681.622	468.64
681.813	487.08
682.003	442.02
682.193	372.39
682.383	513.7
682.573	462.5
682.764	534.18
682.954	507.55
683.144	646.82
683.334	532.13
683.524	579.23
683.714	568.99
683.904	503.46
684.094	538.27
684.284	566.95
684.474	587.43
684.664	554.66
684.854	585.38
685.044	528.03
685.234	525.99
685.424	521.89
685.614	528.03
685.804	626.34
685.994	525.99
686.184	534.18
686.374	587.43
686.564	544.42
686.753	509.6
686.943	474.79
687.133	474.79
687.323	470.69
687.513	573.09
687.702	597.67
687.892	444.07
688.082	644.77
688.272	673.44
688.461	493.22
688.651	571.04
688.841	564.9
689.03	564.9
689.22	612
689.41	593.57
689.599	548.51
689.789	476.84
689.979	638.62
690.168	513.7
690.358	605.86
690.547	536.23
690.737	540.32
690.926	554.66
691.116	530.08
691.305	538.27
691.495	550.56
691.684	472.74
691.874	448.16
692.063	470.69
692.252	532.13
692.442	560.8
692.631	421.54
692.82	429.73
693.01	579.23
693.199	474.79
693.388	534.18
693.578	456.36
693.767	509.6
693.956	499.36
694.146	423.59
694.335	540.32
694.524	476.84
694.713	460.45
694.902	505.51
695.092	454.31
695.281	439.97
695.47	505.51
695.659	437.92
695.848	437.92
696.037	433.83
696.226	491.17
696.415	464.55
696.604	622.24
696.793	487.08
696.982	456.36
697.171	607.91
697.36	401.06
697.549	480.93
697.738	302.76
697.927	409.25
698.116	495.27
698.305	452.26
698.494	417.44
698.683	376.48
698.872	564.9
699.061	480.93
699.25	421.54
699.438	362.15
699.627	417.44
699.816	562.85
700.005	306.85
700.193	403.11
700.382	464.55
700.571	493.22
700.76	450.21
700.948	505.51
701.137	480.93
701.326	497.32
701.514	327.33
701.703	415.4
701.892	409.25
702.08	517.79
702.269	382.63
702.457	325.29
702.646	360.1
702.834	417.44
703.023	411.3
703.212	435.88
703.4	450.21
703.589	372.39
703.777	378.53
703.965	337.57
704.154	421.54
704.342	356.01
704.531	405.16
704.719	417.44
704.907	472.74
705.096	343.72
705.284	284.33
705.472	435.88
705.661	487.08
705.849	448.16
706.037	630.43
706.226	394.92
706.414	456.36
706.602	335.53
706.79	501.41
706.979	452.26
707.167	413.35
707.355	351.91
707.543	370.34
707.731	386.72
707.919	423.59
708.107	335.53
708.296	298.66
708.484	300.71
708.672	407.2
708.86	417.44
709.048	378.53
709.236	304.81
709.424	466.6
709.612	433.83
709.8	315.05
709.988	374.44
710.176	452.26
710.364	554.66
710.551	405.16
710.739	343.72
710.927	362.15
711.115	401.06
711.303	472.74
711.491	560.8
711.679	362.15
711.866	521.89
712.054	333.48
712.242	491.17
712.43	521.89
712.617	407.2
712.805	456.36
712.993	386.72
713.181	315.05
713.368	560.8
713.556	435.88
713.744	472.74
713.931	460.45
714.119	476.84
714.306	370.34
714.494	425.64
714.682	378.53
714.869	347.81
715.057	421.54
715.244	327.33
715.432	413.35
715.619	298.66
715.807	380.58
715.994	382.63
716.182	497.32
716.369	476.84
716.556	487.08
716.744	292.52
716.931	339.62
717.119	532.13
717.306	437.92
717.493	489.12
717.681	421.54
717.868	413.35
718.055	384.68
718.242	491.17
718.43	417.44
718.617	435.88
718.804	476.84
718.991	528.03
719.179	450.21
719.366	548.51
719.553	480.93
719.74	476.84
719.927	464.55
720.114	417.44
720.301	482.98
720.488	415.4
720.676	304.81
720.863	546.47
721.05	599.71
721.237	409.25
721.424	509.6
721.611	458.4
721.798	298.66
721.985	392.87
722.172	458.4
722.358	462.5
722.545	417.44
722.732	491.17
722.919	648.86
723.106	622.24
723.293	480.93
723.48	425.64
723.667	466.6
723.853	456.36
724.04	456.36
724.227	503.46
724.414	446.12
724.6	517.79
724.787	509.6
724.974	630.43
725.161	442.02
725.347	419.49
725.534	495.27
725.72	485.03
725.907	509.6
726.094	456.36
726.28	433.83
726.467	362.15
726.653	474.79
726.84	458.4
727.027	597.67
727.213	450.21
727.4	513.7
727.586	458.4
727.773	476.84
727.959	489.12
728.145	480.93
728.332	474.79
728.518	386.72
728.705	607.91
728.891	556.71
729.077	583.33
729.264	370.34
729.45	468.64
729.636	583.33
729.823	564.9
730.009	517.79
730.195	550.56
730.382	448.16
730.568	394.92
730.754	446.12
730.94	399.01
731.126	519.84
731.313	589.47
731.499	507.55
731.685	532.13
731.871	452.26
732.057	403.11
732.243	583.33
732.429	552.61
732.615	622.24
732.801	521.89
732.987	427.68
733.173	456.36
733.359	485.03
733.545	552.61
733.731	525.99
733.917	568.99
734.103	530.08
734.289	587.43
734.475	464.55
734.661	667.3
734.847	489.12
735.033	460.45
735.219	583.33
735.404	415.4
735.59	427.68
735.776	507.55
735.962	583.33
736.148	599.71
736.333	648.86
736.519	575.14
736.705	564.9
736.89	431.78
737.076	548.51
737.262	403.11
737.447	437.92
737.633	482.98
737.819	571.04
738.004	501.41
738.19	503.46
738.375	472.74
738.561	560.8
738.747	534.18
738.932	507.55
739.118	552.61
739.303	491.17
739.489	507.55
739.674	517.79
739.859	431.78
740.045	583.33
740.23	487.08
740.416	409.25
740.601	480.93
740.786	515.75
740.972	392.87
741.157	417.44
741.342	462.5
741.528	439.97
741.713	585.38
741.898	452.26
742.084	564.9
742.269	493.22
742.454	503.46
742.639	544.42
742.824	507.55
743.01	476.84
743.195	564.9
743.38	482.98
743.565	433.83
743.75	482.98
743.935	507.55
744.12	532.13
744.305	366.25
744.49	536.23
744.675	415.4
744.86	480.93
745.045	495.27
745.23	493.22
745.415	525.99
745.6	595.62
745.785	450.21
745.97	579.23
746.155	493.22
746.34	534.18
746.525	509.6
746.71	566.95
746.895	415.4
747.079	388.77
747.264	421.54
747.449	501.41
747.634	546.47
747.819	419.49
748.003	370.34
748.188	372.39
748.373	472.74
748.557	528.03
748.742	474.79
748.927	489.12
749.111	376.48
749.296	415.4
749.481	489.12
749.665	433.83
749.85	394.92
750.034	429.73
750.219	399.01
750.404	388.77
750.588	485.03
750.773	313
750.957	394.92
751.141	331.43
751.326	462.5
751.51	265.89
751.695	403.11
751.879	413.35
752.064	519.84
752.248	372.39
752.432	452.26
752.617	446.12
752.801	462.5
752.985	259.75
753.17	401.06
753.354	392.87
753.538	323.24
753.722	313
753.907	343.72
754.091	253.61
754.275	358.05
754.459	278.18
754.643	304.81
754.828	378.53
755.012	403.11
755.196	169.64
755.38	298.66
755.564	331.43
755.748	302.76
755.932	317.09
756.116	384.68
756.3	351.91
756.484	313
756.668	337.57
756.852	186.02
757.036	298.66
757.22	310.95
757.404	319.14
757.588	294.57
757.772	356.01
757.956	319.14
758.14	390.82
758.323	204.46
758.507	364.2
758.691	237.22
758.875	284.33
759.059	327.33
759.242	210.6
759.426	290.47
759.61	255.65
759.794	313
759.977	294.57
760.161	470.69
760.345	386.72
760.528	304.81
760.712	306.85
760.895	364.2
761.079	317.09
761.263	233.13
761.446	229.03
761.63	235.18
761.813	298.66
761.997	151.21
762.18	208.55
762.364	278.18
762.547	167.59
762.731	188.07
762.914	206.5
763.098	161.45
763.281	241.32
763.464	173.74
763.648	233.13
763.831	218.79
764.015	239.27
764.198	204.46
764.381	224.94
764.564	181.93
764.748	249.51
764.931	276.13
765.114	200.36
765.297	257.7
765.481	210.6
765.664	210.6
765.847	218.79
766.03	296.61
766.213	210.6
766.397	231.08
766.58	104.11
766.763	206.5
766.946	206.5
767.129	143.02
767.312	181.93
767.495	229.03
767.678	161.45
767.861	237.22
768.044	208.55
768.227	198.31
768.41	175.78
768.593	175.78
768.776	173.74
768.959	140.97
769.142	245.41
769.324	116.39
769.507	206.5
769.69	116.39
769.873	239.27
770.056	374.44
770.239	140.97
770.421	237.22
770.604	175.78
770.787	212.65
770.97	118.44
771.152	132.78
771.335	200.36
771.518	91.82
771.7	210.6
771.883	263.85
772.066	97.96
772.248	181.93
772.431	204.46
772.613	159.4
772.796	173.74
772.978	210.6
773.161	267.94
773.343	71.34
773.526	122.54
773.708	42.67
773.891	44.71
774.073	147.11
774.256	65.19
774.438	292.52
774.621	77.48
774.803	140.97
774.985	93.87
775.168	188.07
775.35	136.87
775.532	159.4
775.715	120.49
775.897	186.02
776.079	190.12
776.261	69.29
776.444	224.94
776.626	120.49
776.808	100.01
776.99	83.63
777.173	122.54
777.355	112.3
777.537	132.78
777.719	171.69
777.901	106.15
778.083	59.05
778.265	30.38
778.447	169.64
778.629	77.48
778.811	26.28
778.993	171.69
779.175	175.78
779.357	73.39
779.539	34.47
779.721	147.11
779.903	120.49
780.085	79.53
780.267	155.3
780.449	159.4
780.631	132.78
780.812	241.32
780.994	122.54
781.176	40.62
781.358	85.67
781.54	102.06
781.721	134.82
781.903	112.3
782.085	63.15
782.267	226.98
782.448	59.05
782.63	63.15
782.812	128.68
782.993	114.34
783.175	140.97
783.357	145.06
783.538	24.23
783.72	75.43
783.901	104.11
784.083	120.49
784.264	85.67
784.446	1.71
784.627	30.38
784.809	163.5
784.99	59.05
785.172	93.87
785.353	18.09
785.535	95.91
785.716	89.77
785.897	54.95
786.079	69.29
786.26	169.64
786.441	106.15
786.623	1.71
786.804	-63.83
786.985	159.4
787.167	104.11
787.348	48.81
787.529	11.95
787.71	226.98
787.891	59.05
788.073	16.04
788.254	-57.68
788.435	226.98
788.616	104.11
788.797	-16.73
788.978	44.71
789.159	-18.77
789.34	48.81
789.522	42.67
789.703	18.09
789.884	3.75
790.065	112.3
790.246	161.45
790.427	81.58
790.607	147.11
790.788	183.98
790.969	38.57
791.15	155.3
791.331	36.52
791.512	67.24
791.693	-31.06
791.874	38.57
792.054	317.09
792.235	147.11
792.416	-26.96
792.597	-72.02
792.778	118.44
792.958	61.1
793.139	34.47
793.32	52.91
793.5	-51.54
793.681	237.22
793.862	110.25
794.042	24.23
794.223	-16.73
794.404	-51.54
794.584	7.85
794.765	69.29
794.945	16.04
795.126	102.06
795.306	120.49
795.487	83.63
795.667	40.62
795.848	57
796.028	61.1
796.209	44.71
796.389	79.53
796.57	40.62
796.75	7.85
796.93	81.58
797.111	-14.68
797.291	77.48
797.471	134.82
797.652	7.85
797.832	-4.44
798.012	71.34
798.192	108.2
798.373	-49.49
798.553	32.43
798.733	114.34
798.913	3.75
799.093	48.81
799.274	114.34
799.454	122.54
799.634	71.34
799.814	77.48
799.994	204.46
800.174	91.82
800.354	-16.73
800.534	7.85
800.714	69.29
800.894	-0.34
801.074	18.09
801.254	22.19
801.434	126.63
801.614	83.63
801.794	-14.68
801.974	1816.21
802.154	30.38
802.334	83.63
802.514	-10.58
802.693	46.76
802.873	30.38
803.053	145.06
803.233	75.43
803.413	22.19
803.592	34.47
803.772	28.33
803.952	28.33
804.131	-10.58
804.311	122.54
804.491	122.54
804.67	20.14
804.85	-37.2
805.03	81.58
805.209	231.08
805.389	-24.92
805.568	-14.68
805.748	69.29
805.928	81.58
806.107	63.15
806.287	63.15
806.466	140.97
806.646	65.19
806.825	48.81
807.004	-26.96
807.184	5.8
807.363	50.86
807.543	22.19
807.722	5.8
807.901	81.58
808.081	91.82
808.26	-127.32
808.439	-0.34
808.619	75.43
808.798	-59.73
808.977	50.86
809.156	81.58
809.336	38.57
809.515	124.58
809.694	-74.07
809.873	-35.16
810.052	61.1
810.231	13.99
810.411	71.34
810.59	71.34
810.769	7.85
810.948	54.95
811.127	-110.93
811.306	-41.3
811.485	48.81
811.664	79.53
811.843	-4.44
812.022	104.11
812.201	-61.78
812.38	-4.44
812.559	13.99
812.737	151.21
812.916	-2.39
813.095	-59.73
813.274	57
813.453	20.14
813.632	16.04
813.811	22.19
813.989	-20.82
814.168	104.11
814.347	-49.49
814.526	-16.73
814.704	128.68
814.883	149.16
815.062	42.67
815.24	83.63
815.419	-80.21
815.598	138.92
815.776	-29.01
815.955	24.23
816.133	-129.36
816.312	52.91
816.49	-20.82
816.669	-2.39
816.847	-57.68
817.026	30.38
817.204	-29.01
817.383	71.34
817.561	-102.74
817.74	13.99
817.918	57
818.097	-45.4
818.275	5.8
818.453	65.19
818.632	34.47
818.81	32.43
818.988	-22.87
819.167	-8.53
819.345	44.71
819.523	-41.3
819.701	79.53
819.879	50.86
820.058	46.76
820.236	93.87
820.414	32.43
820.592	50.86
820.77	-0.34
820.948	-39.25
821.127	9.9
821.305	79.53
821.483	-61.78
821.661	22.19
821.839	40.62
822.017	-43.35
822.195	48.81
822.373	75.43
822.551	32.43
822.729	32.43
822.907	-2.39
823.085	83.63
823.262	40.62
823.44	-55.64
823.618	-8.53
823.796	-33.11
823.974	-10.58
824.152	-80.21
824.329	-0.34
824.507	85.67
824.685	85.67
824.863	59.05
825.04	-14.68
825.218	143.02
825.396	-22.87
825.574	-43.35
825.751	54.95
825.929	71.34
826.107	-20.82
826.284	-74.07
826.462	48.81
826.639	-39.25
826.817	-45.4
826.994	11.95
827.172	-6.49
827.349	165.54
827.527	22.19
827.704	1.71
827.882	108.2
828.059	-22.87
828.237	-43.35
828.414	73.39
828.591	-117.08
828.769	-57.68
828.946	16.04
829.124	24.23
829.301	126.63
829.478	-80.21
829.655	61.1
829.833	-26.96
830.01	-31.06
830.187	13.99
830.364	-2.39
830.542	89.77
830.719	13.99
830.896	124.58
831.073	71.34
831.25	48.81
831.427	91.82
831.604	52.91
831.782	-35.16
831.959	73.39
832.136	73.39
832.313	54.95
832.49	-41.3
832.667	44.71
832.844	-69.97
833.021	165.54
833.198	13.99
833.374	44.71
833.551	46.76
833.728	75.43
833.905	67.24
834.082	-133.46
834.259	32.43
834.436	108.2
834.612	3.75
834.789	40.62
834.966	38.57
835.143	34.47
835.319	-4.44
835.496	34.47
835.673	46.76
835.85	114.34
836.026	-14.68
836.203	11.95
836.38	-82.26
836.556	-29.01
836.733	-57.68
836.909	124.58
837.086	-67.92
837.262	-43.35
837.439	-0.34
837.616	-0.34
837.792	-18.77
837.968	83.63
838.145	-51.54
838.321	13.99
838.498	97.96
838.674	79.53
838.851	44.71
839.027	-20.82
839.203	-47.44
839.38	54.95
839.556	67.24
839.732	42.67
839.909	-65.88
840.085	65.19
840.261	34.47
840.437	11.95
840.614	-33.11
840.79	48.81
840.966	106.15
841.142	79.53
841.318	11.95
841.494	-2.39
841.671	-2.39
841.847	-14.68
842.023	11.95
842.199	83.63
842.375	110.25
842.551	-67.92
842.727	-61.78
842.903	171.69
843.079	-72.02
843.255	190.12
843.431	20.14
843.607	69.29
843.783	-141.65
843.959	-4.44
844.134	-0.34
844.31	89.77
844.486	-98.64
844.662	-72.02
844.838	13.99
845.013	-18.77
845.189	102.06
845.365	100.01
845.541	32.43
845.716	-18.77
845.892	106.15
846.068	28.33
846.244	-47.44
846.419	-4.44
846.595	-86.36
846.77	-33.11
846.946	16.04
847.122	34.47
847.297	63.15
847.473	97.96
847.648	-69.97
847.824	1.71
847.999	-108.88
848.175	63.15
848.35	50.86
848.526	124.58
848.701	77.48
848.876	67.24
849.052	128.68
849.227	16.04
849.403	57
849.578	18.09
849.753	-6.49
849.929	69.29
850.104	-78.16
850.279	-14.68
850.454	3.75
850.63	42.67
850.805	-2.39
850.98	7.85
851.155	9.9
851.33	-8.53
851.505	-102.74
851.681	124.58
851.856	-67.92
852.031	63.15
852.206	24.23
852.381	-61.78
852.556	22.19
852.731	24.23
852.906	-4.44
853.081	26.28
853.256	100.01
853.431	-37.2
853.606	-12.63
853.781	-90.45
853.956	-119.12
854.131	69.29
854.305	-141.65
854.48	-29.01
854.655	-29.01
854.83	-72.02
855.005	-2.39
855.18	7.85
855.354	-29.01
855.529	40.62
855.704	-4.44
855.879	69.29
856.053	-33.11
856.228	-10.58
856.403	-131.41
856.577	32.43
856.752	-41.3
856.926	16.04
857.101	40.62
857.276	-29.01
857.45	-16.73
857.625	52.91
857.799	26.28
857.974	54.95
858.148	-37.2
858.323	71.34
858.497	-53.59
858.672	9.9
858.846	-8.53
859.02	28.33
859.195	-20.82
859.369	42.67
859.543	-4.44
859.718	30.38
859.892	22.19
860.066	71.34
860.241	-31.06
860.415	-26.96
860.589	-31.06
860.763	-4.44
860.938	-31.06
861.112	89.77
861.286	-45.4
861.46	-26.96
861.634	-20.82
861.808	-0.34
861.982	-51.54
862.157	-74.07
862.331	-6.49
862.505	1.71
862.679	-76.12
862.853	-82.26
863.027	30.38
863.201	110.25
863.375	-22.87
863.549	-14.68
863.722	46.76
863.896	91.82
864.07	11.95
864.244	-2.39
864.418	-51.54
864.592	46.76
864.766	54.95
864.939	22.19
865.113	-31.06
865.287	52.91
865.461	-117.08
865.634	-10.58
865.808	3.75
865.982	-22.87
866.156	-53.59
866.329	-86.36
866.503	36.52
866.676	24.23
866.85	-4.44
867.024	-67.92
867.197	65.19
867.371	5.8
867.544	-6.49
867.718	-57.68
867.891	97.96
868.065	-115.03
868.238	-39.25
868.412	71.34
868.585	32.43
868.759	-20.82
868.932	18.09
869.105	-74.07
869.279	50.86
869.452	-129.36
869.625	83.63
869.799	9.9
869.972	-49.49
870.145	-127.32
870.319	30.38
870.492	-31.06
870.665	65.19
870.838	-53.59
871.011	-184.66
871.185	-26.96
871.358	-115.03
871.531	104.11
871.704	-35.16
871.877	-22.87
872.05	-24.92
872.223	-10.58
872.396	69.29
872.569	16.04
872.742	-39.25
872.915	54.95
873.088	28.33
873.261	-39.25
873.434	50.86
873.607	-39.25
873.78	26.28
873.953	-49.49
874.126	-33.11
874.299	75.43
874.471	3.75
874.644	42.67
874.817	122.54
874.99	132.78
875.163	-2.39
875.335	-37.2
875.508	24.23
875.681	67.24
875.853	16.04
876.026	-59.73
876.199	61.1
876.371	79.53
876.544	-47.44
876.717	83.63
876.889	7.85
877.062	61.1
877.234	11.95
877.407	-14.68
877.579	9.9
877.752	13.99
877.924	97.96
878.097	24.23
878.269	9.9
878.442	-8.53
878.614	85.67
878.786	-51.54
878.959	48.81
879.131	24.23
879.303	-65.88
879.476	11.95
879.648	57
879.82	40.62
879.993	-45.4
880.165	13.99
880.337	-59.73
880.509	-78.16
880.681	-63.83
880.854	-39.25
881.026	63.15
881.198	124.58
881.37	-18.77
881.542	3.75
881.714	-16.73
881.886	-37.2
882.058	-8.53
882.23	44.71
882.402	-72.02
882.574	9.9
882.746	89.77
882.918	104.11
883.09	93.87
883.262	-24.92
883.434	24.23
883.606	-49.49
883.778	-22.87
883.95	89.77
884.122	-8.53
884.293	59.05
884.465	40.62
884.637	11.95
884.809	-139.6
884.98	5.8
885.152	54.95
885.324	97.96
885.496	-76.12
885.667	-0.34
885.839	5.8
886.011	214.7
886.182	151.21
886.354	69.29
886.525	73.39
886.697	77.48
886.869	-57.68
887.04	-24.92
887.212	93.87
887.383	118.44
887.555	-53.59
887.726	20.14
887.897	-4.44
888.069	-16.73
888.24	26.28
888.412	18.09
888.583	-8.53
888.754	-24.92
888.926	-143.7
889.097	-63.83
889.268	-125.27
889.44	-0.34
889.611	-162.13
889.782	-108.88
889.953	-51.54
890.125	106.15
890.296	-65.88
890.467	-61.78
890.638	-53.59
890.809	16.04
890.98	-61.78
891.151	-16.73
891.323	77.48
891.494	5.8
891.665	75.43
891.836	-18.77
892.007	11.95
892.178	5.8
892.349	69.29
892.52	-90.45
892.691	32.43
892.862	-18.77
893.032	-20.82
893.203	7.85
893.374	57
893.545	65.19
893.716	-80.21
893.887	65.19
894.057	11.95
894.228	-51.54
894.399	-35.16
894.57	20.14
894.74	18.09
894.911	7.85
895.082	-20.82
895.253	-78.16
895.423	-18.77
895.594	3.75
895.764	67.24
895.935	-33.11
896.106	26.28
896.276	-10.58
896.447	-47.44
896.617	-78.16
896.788	-53.59
896.958	-98.64
897.129	26.28
897.299	-115.03
897.47	159.4
897.64	18.09
897.81	-2.39
897.981	30.38
898.151	-39.25
898.322	-29.01
898.492	24.23
898.662	-90.45
898.832	-69.97
899.003	-18.77
899.173	16.04
899.343	-18.77
899.513	-8.53
