Data from USB4F104151__200__11-05-31-830.txt Node

Date: Wed Feb 26 11:05:31 EST 2025
User: louis
Spectrometer: USB4F10415
Trigger mode: 4
Integration Time (sec): 1.000000E-1
Scans to average: 1
Electric dark correction enabled: true
Nonlinearity correction enabled: false
Boxcar width: 0
XAxis mode: Wavelengths
Number of Pixels in Spectrum: 3648
>>>>>Begin Spectral Data<<<<<
178.204	-345.25
178.424	-345.25
178.644	-345.25
178.864	-380.07
179.084	-429.22
179.304	-89.26
179.524	9.05
179.744	101.2
179.964	2.9
180.184	19.29
180.404	-13.48
180.624	-50.35
180.844	33.62
181.064	-85.16
181.283	-23.72
181.503	19.29
181.723	76.63
181.943	-140.46
182.163	195.41
182.383	-54.44
182.602	99.16
182.822	158.55
183.042	21.33
183.262	-46.25
183.482	-11.43
183.701	43.86
183.921	86.87
184.141	31.57
184.361	62.29
184.58	127.83
184.8	-9.39
185.02	-44.2
185.239	72.53
185.459	136.02
185.679	99.16
185.898	-70.83
186.118	33.62
186.338	-9.39
186.557	62.29
186.777	27.48
186.997	50
187.216	74.58
187.436	187.22
187.655	-9.39
187.875	127.83
188.095	66.39
188.314	121.68
188.534	50
188.753	4.95
188.973	150.36
189.192	185.17
189.412	-31.91
189.631	4.95
189.851	76.63
190.07	140.12
190.29	-66.73
190.509	-15.53
190.729	56.15
190.948	78.68
191.168	191.31
191.387	142.16
191.607	-17.58
191.826	54.1
192.045	-81.07
192.265	13.14
192.484	60.24
192.704	-25.77
192.923	21.33
193.142	138.07
193.362	117.59
193.581	90.96
193.8	58.2
194.02	136.02
194.239	45.91
194.458	37.72
194.678	2.9
194.897	56.15
195.116	52.05
195.335	37.72
195.555	39.76
195.774	52.05
195.993	109.4
196.212	70.48
196.432	25.43
196.651	-19.63
196.87	-68.78
197.089	236.37
197.308	97.11
197.528	84.82
197.747	-87.21
197.966	131.92
198.185	76.63
198.404	-93.35
198.623	78.68
198.842	43.86
199.062	136.02
199.281	76.63
199.5	35.67
199.719	52.05
199.938	-17.58
200.157	174.93
200.376	152.4
200.595	78.68
200.814	60.24
201.033	27.48
201.252	127.83
201.471	27.48
201.69	13.14
201.909	103.25
202.128	105.3
202.347	43.86
202.566	-25.77
202.785	-72.87
203.004	-44.2
203.223	226.13
203.442	4.95
203.661	-36.01
203.879	54.1
204.098	131.92
204.317	-87.21
204.536	142.16
204.755	41.81
204.974	62.29
205.193	84.82
205.411	109.4
205.63	99.16
205.849	80.72
206.068	23.38
206.287	0.85
206.505	123.73
206.724	2.9
206.943	-5.29
207.162	-101.55
207.381	90.96
207.599	-50.35
207.818	72.53
208.037	-31.91
208.255	-7.34
208.474	27.48
208.693	56.15
208.911	-1.19
209.13	111.44
209.349	29.52
209.567	90.96
209.786	27.48
210.005	111.44
210.223	11.09
210.442	-117.93
210.661	66.39
210.879	9.05
211.098	33.62
211.316	64.34
211.535	80.72
211.753	37.72
211.972	23.38
212.191	101.2
212.409	-7.34
212.628	70.48
212.846	-3.24
213.065	60.24
213.283	47.96
213.502	39.76
213.72	4.95
213.938	62.29
214.157	-29.87
214.375	133.97
214.594	19.29
214.812	133.97
215.031	2.9
215.249	27.48
215.467	78.68
215.686	45.91
215.904	50
216.122	2.9
216.341	127.83
216.559	131.92
216.778	56.15
216.996	201.55
217.214	-31.91
217.432	-25.77
217.651	-36.01
217.869	7
218.087	21.33
218.306	35.67
218.524	60.24
218.742	-9.39
218.96	41.81
219.179	-19.63
219.397	-19.63
219.615	232.27
219.833	138.07
220.051	-56.49
220.27	191.31
220.488	117.59
220.706	95.06
220.924	25.43
221.142	-70.83
221.36	62.29
221.578	41.81
221.796	99.16
222.015	35.67
222.233	64.34
222.451	78.68
222.669	-62.63
222.887	82.77
223.105	19.29
223.323	17.24
223.541	-62.63
223.759	-50.35
223.977	84.82
224.195	86.87
224.413	90.96
224.631	39.76
224.849	95.06
225.067	125.78
225.285	-31.91
225.503	-3.24
225.721	-91.31
225.939	47.96
226.157	99.16
226.375	164.69
226.592	-25.77
226.81	50
227.028	60.24
227.246	90.96
227.464	27.48
227.682	70.48
227.9	101.2
228.117	56.15
228.335	88.92
228.553	13.14
228.771	56.15
228.989	76.63
229.206	25.43
229.424	52.05
229.642	74.58
229.86	2.9
230.077	183.12
230.295	0.85
230.513	152.4
230.731	66.39
230.948	113.49
231.166	168.79
231.384	37.72
231.601	-50.35
231.819	115.54
232.037	-21.67
232.254	-23.72
232.472	-52.39
232.689	43.86
232.907	88.92
233.125	-11.43
233.342	-19.63
233.56	15.19
233.777	7
233.995	68.44
234.213	90.96
234.43	13.14
234.648	21.33
234.865	37.72
235.083	41.81
235.3	74.58
235.518	25.43
235.735	105.3
235.953	101.2
236.17	43.86
236.388	21.33
236.605	11.09
236.822	56.15
237.04	84.82
237.257	43.86
237.475	-44.2
237.692	15.19
237.909	62.29
238.127	-5.29
238.344	56.15
238.562	0.85
238.779	-72.87
238.996	-52.39
239.214	60.24
239.431	56.15
239.648	-1.19
239.865	117.59
240.083	97.11
240.3	-31.91
240.517	-40.11
240.735	-33.96
240.952	25.43
241.169	52.05
241.386	-11.43
241.603	72.53
241.821	-64.68
242.038	54.1
242.255	90.96
242.472	-5.29
242.689	76.63
242.907	72.53
243.124	23.38
243.341	17.24
243.558	-72.87
243.775	-52.39
243.992	-58.54
244.209	66.39
244.426	187.22
244.643	23.38
244.86	-11.43
245.078	76.63
245.295	105.3
245.512	66.39
245.729	50
245.946	119.64
246.163	86.87
246.38	111.44
246.597	-1.19
246.814	76.63
247.031	7
247.248	19.29
247.464	29.52
247.681	54.1
247.898	-9.39
248.115	27.48
248.332	-11.43
248.549	140.12
248.766	129.88
248.983	90.96
249.2	60.24
249.417	80.72
249.633	-31.91
249.85	56.15
250.067	-17.58
250.284	17.24
250.501	101.2
250.717	117.59
250.934	-38.06
251.151	43.86
251.368	70.48
251.585	60.24
251.801	117.59
252.018	-66.73
252.235	129.88
252.451	35.67
252.668	64.34
252.885	172.88
253.102	80.72
253.318	-31.91
253.535	-21.67
253.752	93.01
253.968	-19.63
254.185	-103.59
254.401	31.57
254.618	52.05
254.835	-60.59
255.051	109.4
255.268	121.68
255.484	-19.63
255.701	47.96
255.917	56.15
256.134	9.05
256.351	76.63
256.567	-83.11
256.784	-36.01
257	-40.11
257.217	54.1
257.433	125.78
257.65	29.52
257.866	179.03
258.082	-66.73
258.299	-48.3
258.515	-9.39
258.732	-52.39
258.948	-36.01
259.165	60.24
259.381	-44.2
259.597	93.01
259.814	2.9
260.03	39.76
260.246	7
260.463	23.38
260.679	117.59
260.895	-25.77
261.112	76.63
261.328	45.91
261.544	31.57
261.761	150.36
261.977	-11.43
262.193	-21.67
262.409	33.62
262.626	43.86
262.842	66.39
263.058	7
263.274	50
263.49	-7.34
263.707	131.92
263.923	23.38
264.139	-21.67
264.355	11.09
264.571	56.15
264.787	84.82
265.004	78.68
265.22	11.09
265.436	-54.44
265.652	4.95
265.868	11.09
266.084	-52.39
266.3	-36.01
266.516	-56.49
266.732	23.38
266.948	0.85
267.164	43.86
267.38	27.48
267.596	183.12
267.812	127.83
268.028	101.2
268.244	-3.24
268.46	11.09
268.676	-58.54
268.892	31.57
269.108	-50.35
269.324	-115.88
269.54	-27.82
269.756	50
269.972	-54.44
270.188	4.95
270.403	-93.35
270.619	-1.19
270.835	78.68
271.051	31.57
271.267	-23.72
271.483	-54.44
271.698	50
271.914	58.2
272.13	60.24
272.346	4.95
272.562	0.85
272.777	93.01
272.993	68.44
273.209	-15.53
273.425	50
273.64	-36.01
273.856	99.16
274.072	-3.24
274.287	7
274.503	162.64
274.719	90.96
274.934	-17.58
275.15	-74.92
275.366	4.95
275.581	35.67
275.797	95.06
276.012	-27.82
276.228	-7.34
276.444	35.67
276.659	107.35
276.875	-38.06
277.09	66.39
277.306	-15.53
277.521	25.43
277.737	-54.44
277.952	45.91
278.168	-36.01
278.383	33.62
278.599	-15.53
278.814	-46.25
279.03	29.52
279.245	148.31
279.461	-19.63
279.676	133.97
279.892	-109.74
280.107	-60.59
280.322	19.29
280.538	99.16
280.753	-21.67
280.969	78.68
281.184	21.33
281.399	95.06
281.615	37.72
281.83	-5.29
282.045	-46.25
282.26	-13.48
282.476	0.85
282.691	60.24
282.906	54.1
283.122	35.67
283.337	-21.67
283.552	43.86
283.767	13.14
283.983	21.33
284.198	78.68
284.413	19.29
284.628	-115.88
284.843	54.1
285.058	43.86
285.274	23.38
285.489	2.9
285.704	-1.19
285.919	-29.87
286.134	37.72
286.349	50
286.564	-42.15
286.779	97.11
286.995	37.72
287.21	-154.79
287.425	27.48
287.64	-66.73
287.855	39.76
288.07	-27.82
288.285	101.2
288.5	64.34
288.715	33.62
288.93	33.62
289.145	17.24
289.36	123.73
289.575	-83.11
289.79	166.74
290.004	-58.54
290.219	45.91
290.434	25.43
290.649	41.81
290.864	2.9
291.079	72.53
291.294	64.34
291.509	129.88
291.724	13.14
291.938	-21.67
292.153	19.29
292.368	54.1
292.583	25.43
292.798	131.92
293.012	43.86
293.227	31.57
293.442	-62.63
293.657	133.97
293.871	101.2
294.086	138.07
294.301	152.4
294.516	103.25
294.73	27.48
294.945	68.44
295.16	-23.72
295.374	90.96
295.589	113.49
295.804	-21.67
296.018	-5.29
296.233	138.07
296.447	152.4
296.662	66.39
296.877	127.83
297.091	119.64
297.306	7
297.52	35.67
297.735	-19.63
297.949	52.05
298.164	-9.39
298.378	33.62
298.593	-70.83
298.807	-79.02
299.022	-31.91
299.236	76.63
299.451	2.9
299.665	9.05
299.88	23.38
300.094	41.81
300.309	103.25
300.523	-15.53
300.737	15.19
300.952	78.68
301.166	37.72
301.381	-19.63
301.595	45.91
301.809	45.91
302.024	-21.67
302.238	-27.82
302.452	162.64
302.667	39.76
302.881	99.16
303.095	99.16
303.309	45.91
303.524	-58.54
303.738	33.62
303.952	-54.44
304.166	56.15
304.381	-160.94
304.595	76.63
304.809	-21.67
305.023	39.76
305.237	-31.91
305.452	-42.15
305.666	58.2
305.88	56.15
306.094	226.13
306.308	43.86
306.522	133.97
306.736	127.83
306.95	111.44
307.164	-40.11
307.379	37.72
307.593	125.78
307.807	125.78
308.021	82.77
308.235	47.96
308.449	-101.55
308.663	39.76
308.877	160.59
309.091	60.24
309.305	66.39
309.519	-50.35
309.733	72.53
309.947	-83.11
310.161	103.25
310.374	66.39
310.588	150.36
310.802	-29.87
311.016	58.2
311.23	50
311.444	-25.77
311.658	29.52
311.872	93.01
312.085	41.81
312.299	66.39
312.513	166.74
312.727	41.81
312.941	27.48
313.154	33.62
313.368	-29.87
313.582	43.86
313.796	2.9
314.009	-17.58
314.223	54.1
314.437	43.86
314.651	19.29
314.864	43.86
315.078	78.68
315.292	-46.25
315.505	33.62
315.719	25.43
315.933	17.24
316.146	-13.48
316.36	-33.96
316.573	164.69
316.787	0.85
317.001	0.85
317.214	7
317.428	125.78
317.641	-109.74
317.855	-1.19
318.068	-33.96
318.282	121.68
318.495	86.87
318.709	60.24
318.922	27.48
319.136	131.92
319.349	103.25
319.563	82.77
319.776	78.68
319.99	-148.65
320.203	43.86
320.417	7
320.63	105.3
320.843	170.83
321.057	103.25
321.27	56.15
321.483	27.48
321.697	154.45
321.91	45.91
322.124	39.76
322.337	35.67
322.55	15.19
322.763	-5.29
322.977	58.2
323.19	9.05
323.403	62.29
323.617	93.01
323.83	93.01
324.043	52.05
324.256	-13.48
324.469	-79.02
324.683	66.39
324.896	45.91
325.109	29.52
325.322	-91.31
325.535	13.14
325.748	84.82
325.962	31.57
326.175	86.87
326.388	82.77
326.601	144.21
326.814	-9.39
327.027	72.53
327.24	160.59
327.453	11.09
327.666	29.52
327.879	103.25
328.092	88.92
328.305	142.16
328.518	21.33
328.731	-23.72
328.944	-3.24
329.157	109.4
329.37	72.53
329.583	131.92
329.796	142.16
330.009	-31.91
330.222	45.91
330.435	66.39
330.648	60.24
330.861	41.81
331.073	62.29
331.286	86.87
331.499	64.34
331.712	-56.49
331.925	54.1
332.138	50
332.35	62.29
332.563	41.81
332.776	82.77
332.989	-29.87
333.202	2.9
333.414	25.43
333.627	29.52
333.84	-17.58
334.053	11.09
334.265	9.05
334.478	-13.48
334.691	-48.3
334.903	31.57
335.116	-54.44
335.329	-62.63
335.541	64.34
335.754	101.2
335.966	-83.11
336.179	-21.67
336.392	-46.25
336.604	-11.43
336.817	82.77
337.029	-11.43
337.242	-42.15
337.454	4.95
337.667	88.92
337.88	140.12
338.092	125.78
338.305	62.29
338.517	47.96
338.729	58.2
338.942	103.25
339.154	-13.48
339.367	-21.67
339.579	66.39
339.792	35.67
340.004	146.26
340.217	21.33
340.429	58.2
340.641	2.9
340.854	-48.3
341.066	-11.43
341.278	99.16
341.491	164.69
341.703	33.62
341.915	-40.11
342.128	31.57
342.34	-1.19
342.552	-54.44
342.764	19.29
342.977	-17.58
343.189	95.06
343.401	50
343.613	9.05
343.826	29.52
344.038	-46.25
344.25	-31.91
344.462	-54.44
344.674	107.35
344.886	31.57
345.099	125.78
345.311	47.96
345.523	15.19
345.735	-87.21
345.947	23.38
346.159	37.72
346.371	-15.53
346.583	23.38
346.795	117.59
347.007	-101.55
347.219	78.68
347.431	-17.58
347.643	133.97
347.855	-3.24
348.067	90.96
348.279	-66.73
348.491	-13.48
348.703	93.01
348.915	29.52
349.127	-5.29
349.339	82.77
349.551	50
349.763	47.96
349.975	88.92
350.187	25.43
350.399	144.21
350.61	111.44
350.822	-5.29
351.034	19.29
351.246	162.64
351.458	90.96
351.669	54.1
351.881	86.87
352.093	136.02
352.305	80.72
352.517	93.01
352.728	90.96
352.94	68.44
353.152	25.43
353.363	-56.49
353.575	72.53
353.787	189.27
353.999	-1.19
354.21	119.64
354.422	-40.11
354.633	41.81
354.845	64.34
355.057	62.29
355.268	43.86
355.48	56.15
355.692	-44.2
355.903	-1.19
356.115	2.9
356.326	-95.4
356.538	19.29
356.749	11.09
356.961	133.97
357.172	90.96
357.384	-29.87
357.595	138.07
357.807	33.62
358.018	35.67
358.23	-7.34
358.441	138.07
358.653	142.16
358.864	136.02
359.075	-29.87
359.287	21.33
359.498	62.29
359.709	17.24
359.921	-42.15
360.132	84.82
360.344	35.67
360.555	39.76
360.766	121.68
360.977	-52.39
361.189	140.12
361.4	-56.49
361.611	35.67
361.823	52.05
362.034	25.43
362.245	-52.39
362.456	11.09
362.667	-3.24
362.879	25.43
363.09	60.24
363.301	45.91
363.512	11.09
363.723	-38.06
363.935	-31.91
364.146	66.39
364.357	-9.39
364.568	95.06
364.779	17.24
364.99	19.29
365.201	31.57
365.412	131.92
365.623	-66.73
365.834	15.19
366.045	21.33
366.256	78.68
366.467	121.68
366.678	56.15
366.889	27.48
367.1	15.19
367.311	160.59
367.522	0.85
367.733	62.29
367.944	125.78
368.155	45.91
368.366	43.86
368.577	117.59
368.788	103.25
368.999	-15.53
369.209	33.62
369.42	164.69
369.631	224.08
369.842	101.2
370.053	23.38
370.264	68.44
370.474	-1.19
370.685	2.9
370.896	-23.72
371.107	207.7
371.317	52.05
371.528	-9.39
371.739	76.63
371.95	131.92
372.16	60.24
372.371	-54.44
372.582	-5.29
372.792	66.39
373.003	37.72
373.214	43.86
373.424	113.49
373.635	21.33
373.846	41.81
374.056	45.91
374.267	25.43
374.477	31.57
374.688	0.85
374.898	45.91
375.109	41.81
375.319	29.52
375.53	131.92
375.74	158.55
375.951	-15.53
376.161	72.53
376.372	56.15
376.582	4.95
376.793	56.15
377.003	41.81
377.214	-68.78
377.424	103.25
377.635	15.19
377.845	2.9
378.055	189.27
378.266	-56.49
378.476	19.29
378.686	41.81
378.897	76.63
379.107	133.97
379.317	54.1
379.528	-42.15
379.738	93.01
379.948	-56.49
380.158	86.87
380.369	-48.3
380.579	29.52
380.789	45.91
380.999	19.29
381.21	41.81
381.42	187.22
381.63	4.95
381.84	117.59
382.05	119.64
382.261	140.12
382.471	84.82
382.681	-87.21
382.891	70.48
383.101	33.62
383.311	-15.53
383.521	-29.87
383.731	127.83
383.941	191.31
384.151	-19.63
384.361	60.24
384.571	64.34
384.781	2.9
384.991	215.89
385.201	222.03
385.411	125.78
385.621	-1.19
385.831	60.24
386.041	11.09
386.251	17.24
386.461	105.3
386.671	82.77
386.881	-3.24
387.091	62.29
387.301	41.81
387.511	47.96
387.72	82.77
387.93	86.87
388.14	-68.78
388.35	103.25
388.56	95.06
388.769	138.07
388.979	82.77
389.189	-11.43
389.399	13.14
389.609	86.87
389.818	70.48
390.028	68.44
390.238	-7.34
390.447	-15.53
390.657	39.76
390.867	54.1
391.076	-44.2
391.286	95.06
391.496	45.91
391.705	60.24
391.915	146.26
392.125	54.1
392.334	-85.16
392.544	127.83
392.753	19.29
392.963	-1.19
393.172	45.91
393.382	-70.83
393.591	144.21
393.801	-5.29
394.01	195.41
394.22	88.92
394.429	-5.29
394.639	52.05
394.848	93.01
395.058	58.2
395.267	64.34
395.477	56.15
395.686	78.68
395.895	170.83
396.105	152.4
396.314	23.38
396.524	33.62
396.733	68.44
396.942	105.3
397.152	13.14
397.361	146.26
397.57	117.59
397.78	95.06
397.989	90.96
398.198	207.7
398.407	66.39
398.617	54.1
398.826	4.95
399.035	23.38
399.244	33.62
399.453	43.86
399.663	41.81
399.872	60.24
400.081	-11.43
400.29	47.96
400.499	-11.43
400.708	86.87
400.917	35.67
401.127	56.15
401.336	72.53
401.545	111.44
401.754	197.46
401.963	109.4
402.172	-9.39
402.381	-64.68
402.59	47.96
402.799	21.33
403.008	68.44
403.217	62.29
403.426	113.49
403.635	-52.39
403.844	-1.19
404.053	7
404.262	99.16
404.471	52.05
404.68	60.24
404.888	-1.19
405.097	-9.39
405.306	-1.19
405.515	31.57
405.724	-31.91
405.933	117.59
406.142	33.62
406.35	138.07
406.559	9.05
406.768	47.96
406.977	129.88
407.185	74.58
407.394	72.53
407.603	-85.16
407.812	64.34
408.02	226.13
408.229	-38.06
408.438	41.81
408.646	-13.48
408.855	76.63
409.064	78.68
409.272	76.63
409.481	76.63
409.69	72.53
409.898	-42.15
410.107	119.64
410.315	123.73
410.524	-29.87
410.733	27.48
410.941	82.77
411.15	97.11
411.358	31.57
411.567	107.35
411.775	97.11
411.984	76.63
412.192	84.82
412.401	66.39
412.609	207.7
412.818	129.88
413.026	140.12
413.234	7
413.443	105.3
413.651	33.62
413.86	31.57
414.068	172.88
414.276	197.46
414.485	21.33
414.693	168.79
414.901	195.41
415.11	72.53
415.318	43.86
415.526	31.57
415.734	64.34
415.943	72.53
416.151	113.49
416.359	113.49
416.567	101.2
416.776	54.1
416.984	152.4
417.192	101.2
417.4	-3.24
417.608	19.29
417.817	-62.63
418.025	115.54
418.233	162.64
418.441	-46.25
418.649	-91.31
418.857	84.82
419.065	113.49
419.273	-3.24
419.481	58.2
419.689	17.24
419.897	56.15
420.105	-33.96
420.313	115.54
420.521	86.87
420.729	183.12
420.937	37.72
421.145	-66.73
421.353	103.25
421.561	209.75
421.769	90.96
421.977	31.57
422.185	107.35
422.393	35.67
422.601	121.68
422.809	54.1
423.017	146.26
423.224	76.63
423.432	136.02
423.64	90.96
423.848	41.81
424.056	-56.49
424.263	66.39
424.471	45.91
424.679	90.96
424.887	29.52
425.094	109.4
425.302	117.59
425.51	19.29
425.718	117.59
425.925	105.3
426.133	35.67
426.341	162.64
426.548	33.62
426.756	88.92
426.964	136.02
427.171	13.14
427.379	64.34
427.586	56.15
427.794	121.68
428.001	168.79
428.209	93.01
428.417	121.68
428.624	113.49
428.832	23.38
429.039	107.35
429.247	117.59
429.454	80.72
429.662	256.85
429.869	60.24
430.076	52.05
430.284	154.45
430.491	176.98
430.699	131.92
430.906	201.55
431.114	109.4
431.321	115.54
431.528	172.88
431.736	121.68
431.943	201.55
432.15	150.36
432.358	129.88
432.565	217.94
432.772	-15.53
432.979	230.23
433.187	131.92
433.394	265.04
433.601	115.54
433.808	291.66
434.016	244.56
434.223	271.19
434.43	131.92
434.637	211.79
434.844	318.29
435.052	207.7
435.259	269.14
435.466	248.66
435.673	277.33
435.88	250.71
436.087	377.68
436.294	269.14
436.501	353.1
436.708	297.81
436.915	336.72
437.122	402.26
437.329	203.6
437.537	355.15
437.743	318.29
437.95	445.26
438.157	357.2
438.364	459.6
438.571	367.44
438.778	525.13
438.985	447.31
439.192	557.9
439.399	410.45
439.606	435.02
439.813	424.78
440.02	658.25
440.227	650.06
440.433	529.23
440.64	598.86
440.847	555.85
441.054	605
441.261	701.26
441.467	596.81
441.674	596.81
441.881	762.7
442.088	682.83
442.294	684.87
442.501	799.56
442.708	873.29
442.914	828.23
443.121	879.43
443.328	899.91
443.534	996.17
443.741	1028.93
443.948	820.04
444.154	1033.03
444.361	1205.06
444.568	1110.85
444.774	1145.67
444.981	1012.55
445.187	1375.04
445.394	1205.06
445.6	1209.15
445.807	1499.97
446.013	1391.42
446.22	1299.27
446.426	1606.46
446.633	1456.96
446.839	1747.77
447.046	1524.54
447.252	1776.44
447.459	1686.33
447.665	1796.92
447.871	1841.98
448.078	2038.58
448.284	2001.72
448.491	2038.58
448.697	2202.42
448.903	2280.24
449.11	2308.91
449.316	2380.59
449.522	2640.69
449.728	2636.59
449.935	2738.99
450.141	2685.74
450.347	2925.35
450.553	2781.99
450.76	2812.71
450.966	2994.98
451.172	3107.62
451.378	3283.75
451.584	3357.47
451.791	3650.33
451.997	3672.86
452.203	3793.69
452.409	3926.81
452.615	4248.34
452.821	4188.95
453.027	4221.72
453.233	4719.37
453.44	4498.19
453.646	4770.57
453.852	4895.5
454.058	4973.32
454.264	5282.56
454.47	5667.58
454.676	5735.17
454.882	6150.9
455.088	5847.8
455.294	6077.18
455.5	6623.98
455.705	6974.19
455.911	7023.34
456.117	7181.03
456.323	7428.84
456.529	7551.71
456.735	7987.93
456.941	8344.28
457.147	8655.57
457.352	8792.78
457.558	9130.7
457.764	9700.03
457.97	10021.56
458.176	10250.94
458.381	10805.94
458.587	11008.69
458.793	11586.21
458.999	11535.01
459.204	12847.76
459.41	13320.84
459.616	13347.47
459.821	13963.9
460.027	14596.73
460.233	15340.14
460.438	15311.47
460.644	16476.76
460.85	16382.56
461.055	16986.71
461.261	17918.53
461.466	17316.43
461.672	17764.93
461.878	19827.24
462.083	19821.09
462.289	19903.01
462.494	21084.69
462.7	20974.1
462.905	21254.67
463.111	23060.98
463.316	24064.49
463.522	24519.14
463.727	25420.24
463.932	26376.64
464.138	27466.16
464.343	28051.88
464.549	28590.5
464.754	30675.33
464.959	31152.51
465.165	31682.93
465.37	31697.27
465.575	31482.23
465.781	33734.99
465.986	34949.44
466.191	34146.64
466.397	34554.18
466.602	33718.61
466.807	35551.54
467.012	36550.95
467.218	36573.48
467.423	36987.17
467.628	37781.78
467.833	39801.08
468.038	38770.95
468.244	38058.26
468.449	40548.59
468.654	39403.77
468.859	39241.98
469.064	39264.51
469.269	38232.33
469.474	38979.84
469.679	39747.83
469.885	38627.59
470.09	39450.88
470.295	39409.92
470.5	38615.3
470.705	38607.11
470.91	37628.18
471.115	37251.36
471.32	38025.49
471.525	37771.54
471.73	36534.57
471.935	36446.51
472.139	34783.55
472.344	35494.2
472.549	34916.67
472.754	34173.26
472.959	33644.88
473.164	32342.38
473.369	31764.85
473.574	32751.97
473.778	31857.01
473.983	31279.48
474.188	30849.41
474.393	29598.1
474.598	29346.2
474.802	28576.16
475.007	28266.92
475.212	27906.48
475.417	27058.62
475.621	26819
475.826	26730.94
476.031	25786.83
476.235	25047.51
476.44	25197.01
476.645	24613.34
476.849	24551.9
477.054	23943.66
477.259	23351.79
477.463	23235.06
477.668	22567.42
477.872	22868.47
478.077	22166.02
478.282	21283.34
478.486	21582.35
478.691	20812.31
478.895	20980.25
479.1	20658.71
479.304	20468.25
479.509	19773.99
479.713	20128.29
479.918	19581.48
480.122	19167.79
480.326	19415.6
480.531	19522.09
480.735	19104.31
480.94	18899.51
481.144	19339.82
481.348	18440.76
481.553	18432.57
481.757	17783.37
481.961	18164.29
482.166	18250.3
482.37	17965.64
482.574	17799.75
482.778	17500.75
482.983	17904.2
483.187	17504.84
483.391	17293.9
483.595	17230.41
483.8	16652.89
484.004	16822.87
484.208	17148.5
484.412	16634.46
484.616	16253.53
484.821	15893.09
485.025	15655.53
485.229	15911.52
485.433	15643.24
485.637	15338.09
485.841	15086.19
486.045	15094.38
486.249	14840.43
486.453	14588.53
486.657	14471.8
486.861	14213.76
487.065	13699.72
487.269	13828.74
487.473	13408.9
487.677	13630.09
487.881	13464.2
488.085	12917.39
488.289	12796.56
488.493	12585.62
488.697	12602.01
488.901	12186.27
489.105	11743.91
489.309	11788.96
489.512	11561.64
489.716	11254.44
489.92	11133.61
490.124	10928.81
490.328	10951.34
490.531	10635.96
490.735	10666.67
490.939	10318.52
491.143	9859.77
491.346	9902.78
491.55	9775.81
491.754	9601.73
491.958	9419.46
492.161	9083.59
492.365	9257.67
492.569	8932.05
492.772	8667.86
492.976	9050.83
493.18	8639.19
493.383	8719.06
493.587	8409.81
493.79	8411.86
493.994	8104.67
494.197	8227.54
494.401	8127.19
494.605	8030.94
494.808	8026.84
495.012	7750.37
495.215	8037.08
495.419	7789.28
495.622	7635.68
495.825	7754.46
496.029	7752.42
496.232	7686.88
496.436	7482.08
496.639	7746.27
496.843	7457.51
497.046	7625.44
497.249	7625.44
497.453	7658.21
497.656	7690.98
497.859	7486.18
498.063	7721.7
498.266	7824.09
498.469	7723.74
498.673	7695.07
498.876	7756.51
499.079	7529.19
499.282	7527.14
499.485	8082.14
499.689	7895.77
499.892	8073.95
500.095	7938.78
500.298	8135.39
500.501	8069.85
500.705	8248.02
500.908	8309.46
501.111	8338.13
501.314	8499.92
501.517	8587.99
501.72	8420.05
501.923	8692.43
502.126	8710.86
502.329	8936.14
502.532	8821.45
502.735	9224.9
502.938	9388.74
503.141	9155.27
503.344	9390.79
503.547	9433.8
503.75	9611.97
503.953	9595.59
504.156	9941.69
504.359	9968.32
504.562	10146.49
504.765	10148.54
504.968	10484.41
505.17	10693.3
505.373	10805.94
505.576	11127.47
505.779	11254.44
505.982	11227.82
506.185	11502.25
506.387	11874.98
506.59	12044.96
506.793	12196.51
506.996	12323.48
507.198	12614.29
507.401	12858
507.604	13470.34
507.807	13472.39
508.009	13580.93
508.212	13757.06
508.415	14123.65
508.617	14275.2
508.82	14641.78
509.022	14658.17
509.225	15344.24
509.428	15503.98
509.63	15964.77
509.833	16085.6
510.035	16659.03
510.238	16747.09
510.44	17314.38
510.643	17764.93
510.845	18248.25
511.048	18502.2
511.25	19112.5
511.453	19186.22
511.655	20148.77
511.858	19814.95
512.06	21037.59
512.262	20900.37
512.465	21496.33
512.667	22049.28
512.87	22708.73
513.072	22581.76
513.274	23529.97
513.477	23796.2
513.679	24451.55
513.881	25313.75
514.084	26120.65
514.286	25999.82
514.488	26552.77
514.69	27697.58
514.893	27939.24
515.095	28531.11
515.297	29305.24
515.499	29424.02
515.701	30167.43
515.904	31027.58
516.106	31760.75
516.308	31949.17
516.51	33171.8
516.712	33526.1
516.914	34050.38
517.116	35000.64
517.318	35588.41
517.52	36030.77
517.722	36684.07
517.925	37302.56
518.127	37679.38
518.329	38535.43
518.531	38439.18
518.733	39764.21
518.935	40941.8
519.136	41240.8
519.338	41849.05
519.54	42377.42
519.742	43401.41
519.944	43161.79
520.146	44212.4
520.348	44921
520.55	45246.63
520.752	45815.96
520.954	46983.3
521.155	46579.85
521.357	47900.79
521.559	48390.26
521.761	48633.97
521.963	48717.93
522.164	49299.56
522.366	49616.99
522.568	50374.74
522.77	50468.95
522.971	51257.42
523.173	50919.5
523.375	51396.68
523.576	51652.67
523.778	51843.13
523.98	52506.68
524.181	52781.1
524.383	53084.2
524.584	53157.93
524.786	53354.54
524.988	53100.59
525.189	53209.13
525.391	53420.07
525.592	53499.94
525.794	53387.3
525.995	53534.76
526.197	53141.55
526.398	53596.2
526.6	53297.19
526.801	53157.93
527.003	53184.55
527.204	52977.71
527.406	53123.11
527.607	52703.28
527.808	52394.04
528.01	51576.9
528.211	51454.02
528.412	52015.16
528.614	51085.39
528.815	50978.89
529.016	51204.17
529.218	49872.99
529.419	50163.8
529.62	49537.12
529.822	48619.63
530.023	48093.3
530.224	48064.63
530.425	47896.7
530.626	46672.01
530.828	46190.74
531.029	46919.82
531.23	45494.43
531.431	44902.57
531.632	44941.48
531.833	44376.24
532.035	43548.86
532.236	43432.13
532.437	42852.55
532.638	42000.6
532.839	41818.33
533.04	41191.65
533.241	40339.69
533.442	40569.07
533.643	39717.11
533.844	39123.2
534.045	38942.98
534.246	37878.04
534.447	37749.01
534.648	36933.92
534.849	36471.08
535.05	35875.12
535.251	35610.93
535.451	35127.61
535.652	35057.98
535.853	34038.09
536.054	33902.93
536.255	33683.8
536.456	32665.95
536.657	32721.25
536.857	31846.77
537.058	31457.65
537.259	31469.94
537.46	30648.71
537.66	30220.68
537.861	29917.58
538.062	29581.71
538.263	29254.04
538.463	28742.05
538.664	28514.72
538.865	28049.83
539.065	28031.4
539.266	27136.44
539.466	27101.62
539.667	26421.7
539.868	26790.33
540.068	26024.39
540.269	25815.5
540.469	25692.62
540.67	25258.45
540.87	25119.19
541.071	24551.9
541.271	24281.57
541.472	24201.7
541.672	23972.33
541.873	23454.19
542.073	23042.55
542.274	22964.73
542.474	22987.25
542.675	22579.71
542.875	22370.82
543.075	21953.03
543.276	21342.74
543.476	21606.92
543.676	21137.94
543.877	20931.09
544.077	20691.48
544.277	20648.47
544.478	20036.13
544.678	20056.61
544.878	19763.75
545.078	19876.39
545.279	19470.89
545.479	18805.3
545.679	19028.53
545.879	18367.04
546.079	18709.05
546.28	18135.62
546.48	17783.37
546.68	18014.79
546.88	17506.89
547.08	17754.69
547.28	17162.83
547.48	16753.24
547.68	17046.1
547.88	16640.6
548.081	16446.04
548.281	15872.61
548.481	15764.07
548.681	16081.5
548.881	15710.82
549.081	15491.69
549.28	15200.88
549.48	14961.27
549.68	14854.77
549.88	14871.15
550.08	14246.52
550.28	13939.33
550.48	13836.93
550.68	13992.58
550.88	13564.55
551.08	13320.84
551.279	13288.07
551.479	12825.23
551.679	12913.3
551.879	12628.63
552.079	12454.55
552.278	12358.3
552.478	12151.45
552.678	12067.49
552.878	11571.88
553.077	11504.29
553.277	11319.98
553.477	11336.36
553.676	10850.99
553.876	10984.11
554.076	10595
554.275	10777.26
554.475	10279.61
554.674	10269.37
554.874	10076.86
555.074	9642.69
555.273	9784
555.473	9679.55
555.672	9640.64
555.872	9265.86
556.071	9028.3
556.271	9022.16
556.47	8893.13
556.67	8669.91
556.869	8393.43
557.068	8684.24
557.268	8266.46
557.467	8047.32
557.667	8137.43
557.866	7930.59
558.065	7733.98
558.265	7639.78
558.464	7512.8
558.663	7484.13
558.863	7129.83
559.062	7359.21
559.261	7097.07
559.461	7062.25
559.66	6841.07
559.859	6601.46
560.058	6605.55
560.258	6507.25
560.457	6380.28
560.656	6279.93
560.855	5958.39
561.054	6206.2
561.253	6048.51
561.453	6046.46
561.652	5847.8
561.851	5778.17
562.05	5522.18
562.249	5442.31
562.448	5464.83
562.647	5225.22
562.846	5333.76
563.045	5311.24
563.244	5092.1
563.443	5159.69
563.642	4797.2
563.841	5026.57
564.04	4913.93
564.239	4948.75
564.438	4739.85
564.637	4457.23
564.836	4645.65
565.035	4416.27
565.234	4391.7
565.432	4432.66
565.631	4295.44
565.83	4217.62
566.029	4039.45
566.228	4119.32
566.427	4125.46
566.625	3832.6
566.824	3935
567.023	3777.31
567.222	3812.12
567.42	3592.99
567.619	3986.2
567.818	3822.36
568.016	3797.79
568.215	3627.81
568.414	3672.86
568.612	3476.26
568.811	3416.87
569.01	3437.34
569.208	3363.62
569.407	3416.87
569.605	3398.43
569.804	3197.73
570.002	3173.16
570.201	3177.25
570.4	3126.05
570.598	3013.42
570.797	3017.51
570.995	2804.52
571.193	2966.31
571.392	2843.43
571.59	2769.71
571.789	2847.53
571.987	2790.19
572.186	2870.06
572.384	2552.62
572.582	2591.53
572.781	2628.4
572.979	2429.74
573.177	2329.39
573.376	2411.31
573.574	2556.72
573.772	2308.91
573.971	2325.3
574.169	2085.69
574.367	2286.39
574.565	2265.91
574.763	2208.56
574.962	2186.04
575.16	2153.27
575.358	2044.73
575.556	2063.16
575.754	1968.95
575.952	1829.69
576.151	1919.8
576.349	1889.08
576.547	1839.93
576.745	1921.85
576.943	1825.59
577.141	1811.26
577.339	1743.67
577.537	1747.77
577.735	1874.74
577.933	1755.96
578.131	1571.65
578.329	1676.09
578.527	1604.41
578.725	1655.61
578.923	1477.44
579.121	1575.74
579.319	1479.49
579.516	1526.59
579.714	1635.13
579.912	1411.9
580.11	1270.59
580.308	1284.93
580.506	1280.83
580.704	1252.16
580.901	1372.99
581.099	1354.56
581.297	1366.85
581.495	1280.83
581.692	1231.68
581.89	1358.66
582.088	1274.69
582.285	1284.93
582.483	1127.24
582.681	1129.28
582.878	1088.32
583.076	1125.19
583.274	1188.68
583.471	1246.02
583.669	1110.85
583.866	1024.84
584.064	1053.51
584.262	1016.65
584.459	897.86
584.657	1022.79
584.854	1084.23
585.052	985.93
585.249	1004.36
585.447	975.69
585.644	846.66
585.841	979.78
586.039	1035.08
586.236	928.58
586.434	955.21
586.631	817.99
586.828	807.75
587.026	852.81
587.223	756.55
587.42	738.12
587.618	842.57
587.815	910.15
588.012	871.24
588.21	713.55
588.407	820.04
588.604	764.75
588.801	707.4
588.999	760.65
589.196	787.27
589.393	662.35
589.59	789.32
589.787	691.02
589.984	744.27
590.182	785.23
590.379	703.31
590.576	609.1
590.773	668.49
590.97	627.53
591.167	736.07
591.364	785.23
591.561	652.11
591.758	805.71
591.955	652.11
592.152	691.02
592.349	641.87
592.546	568.14
592.743	645.96
592.94	613.2
593.137	699.21
593.334	731.98
593.531	609.1
593.727	740.17
593.924	668.49
594.121	627.53
594.318	682.83
594.515	703.31
594.712	856.9
594.908	777.03
595.105	631.63
595.302	770.89
595.499	744.27
595.696	834.38
595.892	748.36
596.089	869.19
596.286	785.23
596.482	875.34
596.679	779.08
596.876	746.31
597.072	873.29
597.269	803.66
597.466	897.86
597.662	858.95
597.859	953.16
598.055	957.25
598.252	1047.37
598.448	1051.46
598.645	1184.58
598.841	1108.8
599.038	1311.55
599.234	1262.4
599.431	1258.31
599.627	1397.57
599.824	1323.84
600.02	1327.94
600.217	1418.05
600.413	1485.63
600.609	1440.58
600.806	1841.98
601.002	1637.18
601.198	1669.95
601.395	1786.68
601.591	1618.75
601.787	1884.98
601.984	1852.22
602.18	2065.21
602.376	2034.49
602.572	2204.47
602.769	2302.77
602.965	2374.45
603.161	2421.55
603.357	2614.06
603.553	2505.52
603.75	2566.96
603.946	2652.97
604.142	3013.42
604.338	3140.39
604.534	2921.26
604.73	3091.24
604.926	3003.18
605.122	3431.2
605.318	3236.64
605.514	3545.89
605.71	3533.6
605.906	3808.03
606.102	3846.94
606.298	4129.56
606.494	4055.83
606.69	4287.25
606.886	4344.6
607.082	4332.31
607.278	4381.46
607.474	4453.14
607.67	4682.51
607.866	4748.04
608.062	5079.82
608.257	5075.72
608.453	5270.28
608.649	5382.92
608.845	5563.14
609.041	5509.89
609.236	5886.72
609.432	6023.93
609.628	6142.71
609.824	6474.48
610.019	6599.41
610.215	6677.23
610.411	7015.15
610.606	7023.34
610.802	7265
610.998	7496.42
611.193	7879.39
611.389	7564
611.584	7992.03
611.78	8100.57
611.976	8282.84
612.171	8737.49
612.367	9032.4
612.562	9118.41
612.758	9384.65
612.953	9423.56
613.149	9972.41
613.344	9831.1
613.539	10166.97
613.735	10644.15
613.93	10959.53
614.126	11082.41
614.321	11459.24
614.517	11672.23
614.712	11963.04
614.907	12503.7
615.103	12620.44
615.298	12888.72
615.493	13216.4
615.688	13576.84
615.884	14234.24
616.079	14215.8
616.274	14533.24
616.47	14897.78
616.665	15258.22
616.86	15546.98
617.055	16009.83
617.25	16400.99
617.445	17048.15
617.641	16857.68
617.836	17656.39
618.031	17889.86
618.226	18547.26
618.421	18891.32
618.616	19462.7
618.811	19692.07
619.006	20677.15
619.201	20361.76
619.396	21006.87
619.591	21109.27
619.786	22137.35
619.981	22321.66
620.176	22948.34
620.371	23286.26
620.566	23990.76
620.761	24326.63
620.956	25127.38
621.151	25117.14
621.346	25772.49
621.541	26018.25
621.735	26882.49
621.93	27087.29
622.125	27539.89
622.32	28125.61
622.515	28623.26
622.709	29350.29
622.904	29421.97
623.099	30101.9
623.294	30931.33
623.488	31134.07
623.683	31875.44
623.878	31703.41
624.072	33032.54
624.267	33538.39
624.462	33577.3
624.656	33888.59
624.851	34281.8
625.046	35027.26
625.24	35361.08
625.435	35574.07
625.629	36727.08
625.824	37044.51
626.018	37427.48
626.213	37173.53
626.407	38170.89
626.602	38050.06
626.796	39074.05
626.991	39248.13
627.185	39317.76
627.38	39540.99
627.574	39641.34
627.768	40321.26
627.963	39936.24
628.157	39985.4
628.352	40513.77
628.546	39756.02
628.74	40349.93
628.935	40546.54
629.129	40427.76
629.323	39891.19
629.517	39839.99
629.712	39663.86
629.906	39338.24
630.1	38686.98
630.294	38805.77
630.489	37906.71
630.683	37802.26
630.877	36288.81
631.071	35991.86
631.265	35983.66
631.459	34955.58
631.653	34126.16
631.848	33304.92
632.042	32444.77
632.236	31791.47
632.43	30949.76
632.624	30157.19
632.818	29133.21
633.012	28025.26
633.206	27400.63
633.4	26581.44
633.594	25608.65
633.788	24672.73
633.982	23968.23
634.176	23448.05
634.369	22061.57
634.563	21336.59
634.757	20374.05
634.951	19759.66
635.145	18862.65
635.339	18104.9
635.533	17226.32
635.726	17066.58
635.92	16013.92
636.114	15536.74
636.308	14729.84
636.501	14432.89
636.695	13709.96
636.889	13126.29
637.083	12429.98
637.276	11993.76
637.47	11559.59
637.664	10910.38
637.857	10545.84
638.051	10281.66
638.244	9745.09
638.438	9249.48
638.632	9069.26
638.825	8479.44
639.019	8178.39
639.212	7949.02
639.406	7887.58
639.599	7373.54
639.793	7009
639.986	6849.26
640.18	6580.98
640.373	6046.46
640.567	5964.54
640.76	5812.99
640.954	5618.43
641.147	5362.44
641.34	5159.69
641.534	4952.84
641.727	4702.99
641.92	4506.38
642.114	4471.57
642.307	4154.13
642.5	4154.13
642.694	3891.99
642.887	3744.54
643.08	3803.93
643.273	3574.56
643.467	3402.53
643.66	3140.39
643.853	2992.94
644.046	3003.18
644.239	2956.07
644.432	2773.8
644.626	2585.39
644.819	2534.19
645.012	2462.51
645.205	2343.73
645.398	2376.5
645.591	2212.66
645.784	2071.35
645.977	2050.87
646.17	1971
646.363	1784.63
646.556	1696.57
646.749	1680.19
646.942	1794.87
647.135	1672
647.328	1491.77
647.521	1608.51
647.714	1516.35
647.907	1442.62
648.099	1293.12
648.292	1444.67
648.485	1217.35
648.678	1254.21
648.871	1084.23
649.064	1166.15
649.256	1033.03
649.449	1008.45
649.642	955.21
649.835	996.17
650.027	924.49
650.22	1049.41
650.413	869.19
650.605	846.66
650.798	760.65
650.991	734.03
651.183	703.31
651.376	709.45
651.568	746.31
651.761	627.53
651.954	756.55
652.146	570.19
652.339	682.83
652.531	695.11
652.724	555.85
652.916	586.57
653.109	424.78
653.301	668.49
653.494	594.76
653.686	492.37
653.879	564.04
654.071	461.65
654.263	392.02
654.456	404.3
654.648	521.04
654.84	496.46
655.033	332.62
655.225	512.85
655.417	338.77
655.61	527.18
655.802	533.33
655.994	482.13
656.186	312.14
656.379	428.88
656.571	312.14
656.763	373.58
656.955	277.33
657.148	332.62
657.34	375.63
657.532	160.59
657.724	271.19
657.916	297.81
658.108	322.38
658.3	287.57
658.492	365.39
658.684	219.99
658.876	385.87
659.068	254.8
659.26	119.64
659.452	84.82
659.644	195.41
659.836	392.02
660.028	240.47
660.22	226.13
660.412	289.62
660.604	144.21
660.796	199.51
660.988	228.18
661.18	162.64
661.372	246.61
661.563	205.65
661.755	213.84
661.947	125.78
662.139	148.31
662.331	172.88
662.522	191.31
662.714	138.07
662.906	125.78
663.097	103.25
663.289	105.3
663.481	82.77
663.673	174.93
663.864	209.75
664.056	129.88
664.247	72.53
664.439	222.03
664.631	199.51
664.822	170.83
665.014	201.55
665.205	76.63
665.397	121.68
665.588	127.83
665.78	174.93
665.971	172.88
666.163	123.73
666.354	240.47
666.546	31.57
666.737	72.53
666.929	162.64
667.12	88.92
667.311	203.6
667.503	101.2
667.694	146.26
667.885	131.92
668.077	191.31
668.268	-15.53
668.459	111.44
668.651	164.69
668.842	228.18
669.033	84.82
669.224	101.2
669.416	256.85
669.607	99.16
669.798	107.35
669.989	215.89
670.18	181.07
670.371	129.88
670.563	35.67
670.754	222.03
670.945	133.97
671.136	113.49
671.327	19.29
671.518	217.94
671.709	189.27
671.9	166.74
672.091	172.88
672.282	74.58
672.473	109.4
672.664	52.05
672.855	123.73
673.046	183.12
673.237	164.69
673.428	123.73
673.619	133.97
673.809	25.43
674	232.27
674.191	117.59
674.382	152.4
674.573	66.39
674.764	109.4
674.954	183.12
675.145	-9.39
675.336	113.49
675.527	117.59
675.717	54.1
675.908	58.2
676.099	56.15
676.289	60.24
676.48	-3.24
676.671	181.07
676.861	127.83
677.052	109.4
677.243	129.88
677.433	62.29
677.624	191.31
677.814	127.83
678.005	93.01
678.195	293.71
678.386	78.68
678.576	226.13
678.767	4.95
678.957	168.79
679.148	236.37
679.338	222.03
679.529	172.88
679.719	-3.24
679.909	303.95
680.1	129.88
680.29	191.31
680.481	125.78
680.671	203.6
680.861	187.22
681.052	166.74
681.242	140.12
681.432	133.97
681.622	252.75
681.813	119.64
682.003	154.45
682.193	101.2
682.383	162.64
682.573	162.64
682.764	140.12
682.954	215.89
683.144	297.81
683.334	179.03
683.524	170.83
683.714	154.45
683.904	248.66
684.094	193.36
684.284	146.26
684.474	207.7
684.664	187.22
684.854	164.69
685.044	207.7
685.234	224.08
685.424	199.51
685.614	140.12
685.804	224.08
685.994	172.88
686.184	222.03
686.374	234.32
686.564	166.74
686.753	144.21
686.943	146.26
687.133	125.78
687.323	207.7
687.513	197.46
687.702	191.31
687.892	176.98
688.082	246.61
688.272	228.18
688.461	201.55
688.651	334.67
688.841	195.41
689.03	121.68
689.22	47.96
689.41	189.27
689.599	285.52
689.789	105.3
689.979	308.05
690.168	146.26
690.358	199.51
690.547	170.83
690.737	168.79
690.926	164.69
691.116	224.08
691.305	269.14
691.495	219.99
691.684	33.62
691.874	105.3
692.063	224.08
692.252	281.43
692.442	234.32
692.631	74.58
692.82	60.24
693.01	166.74
693.199	107.35
693.388	250.71
693.578	129.88
693.767	211.79
693.956	271.19
694.146	103.25
694.335	209.75
694.524	82.77
694.713	244.56
694.902	164.69
695.092	60.24
695.281	248.66
695.47	158.55
695.659	99.16
695.848	146.26
696.037	146.26
696.226	267.09
696.415	121.68
696.604	238.42
696.793	181.07
696.982	152.4
697.171	293.71
697.36	105.3
697.549	113.49
697.738	0.85
697.927	148.31
698.116	154.45
698.305	250.71
698.494	138.07
698.683	181.07
698.872	287.57
699.061	164.69
699.25	179.03
699.438	123.73
699.627	50
699.816	246.61
700.005	66.39
700.193	123.73
700.382	242.51
700.571	211.79
700.76	191.31
700.948	166.74
701.137	201.55
701.326	258.9
701.514	131.92
701.703	277.33
701.892	213.84
702.08	277.33
702.269	201.55
702.457	127.83
702.646	238.42
702.834	140.12
703.023	240.47
703.212	193.36
703.4	105.3
703.589	133.97
703.777	185.17
703.965	150.36
704.154	78.68
704.342	117.59
704.531	191.31
704.719	181.07
704.907	215.89
705.096	66.39
705.284	107.35
705.472	168.79
705.661	193.36
705.849	254.8
706.037	275.28
706.226	199.51
706.414	230.23
706.602	152.4
706.79	176.98
706.979	131.92
707.167	205.65
707.355	33.62
707.543	170.83
707.731	222.03
707.919	146.26
708.107	183.12
708.296	160.59
708.484	62.29
708.672	176.98
708.86	93.01
709.048	60.24
709.236	52.05
709.424	152.4
709.612	176.98
709.8	29.52
709.988	187.22
710.176	211.79
710.364	258.9
710.551	136.02
710.739	179.03
710.927	125.78
711.115	230.23
711.303	269.14
711.491	215.89
711.679	152.4
711.866	267.09
712.054	125.78
712.242	226.13
712.43	240.47
712.617	146.26
712.805	262.99
712.993	166.74
713.181	64.34
713.368	150.36
713.556	166.74
713.744	158.55
713.931	332.62
714.119	295.76
714.306	129.88
714.494	144.21
714.682	72.53
714.869	84.82
715.057	213.84
715.244	54.1
715.432	164.69
715.619	166.74
715.807	176.98
715.994	148.31
716.182	168.79
716.369	193.36
716.556	205.65
716.744	93.01
716.931	138.07
717.119	125.78
717.306	199.51
717.493	199.51
717.681	136.02
717.868	88.92
718.055	203.6
718.242	179.03
718.43	219.99
718.617	172.88
718.804	117.59
718.991	320.34
719.179	201.55
719.366	166.74
719.553	258.9
719.74	174.93
719.927	187.22
720.114	189.27
720.301	181.07
720.488	179.03
720.676	172.88
720.863	213.84
721.05	351.06
721.237	215.89
721.424	224.08
721.611	254.8
721.798	142.16
721.985	154.45
722.172	99.16
722.358	166.74
722.545	207.7
722.732	183.12
722.919	310.1
723.106	248.66
723.293	131.92
723.48	209.75
723.667	105.3
723.853	279.38
724.04	230.23
724.227	181.07
724.414	222.03
724.6	238.42
724.787	353.1
724.974	324.43
725.161	127.83
725.347	224.08
725.534	197.46
725.72	230.23
725.907	183.12
726.094	267.09
726.28	203.6
726.467	183.12
726.653	117.59
726.84	293.71
727.027	389.97
727.213	176.98
727.4	176.98
727.586	217.94
727.773	246.61
727.959	185.17
728.145	246.61
728.332	205.65
728.518	144.21
728.705	258.9
728.891	209.75
729.077	244.56
729.264	179.03
729.45	164.69
729.636	277.33
729.823	281.43
730.009	285.52
730.195	230.23
730.382	207.7
730.568	121.68
730.754	240.47
730.94	265.04
731.126	297.81
731.313	219.99
731.499	176.98
731.685	258.9
731.871	267.09
732.057	230.23
732.243	279.38
732.429	191.31
732.615	344.91
732.801	232.27
732.987	219.99
733.173	246.61
733.359	99.16
733.545	211.79
733.731	301.9
733.917	273.23
734.103	314.19
734.289	254.8
734.475	224.08
734.661	346.96
734.847	185.17
735.033	226.13
735.219	234.32
735.404	176.98
735.59	213.84
735.776	234.32
735.962	232.27
736.148	265.04
736.333	365.39
736.519	279.38
736.705	189.27
736.89	242.51
737.076	367.44
737.262	131.92
737.447	205.65
737.633	228.18
737.819	236.37
738.004	181.07
738.19	213.84
738.375	195.41
738.561	295.76
738.747	193.36
738.932	207.7
739.118	379.73
739.303	197.46
739.489	342.86
739.674	215.89
739.859	113.49
740.045	240.47
740.23	258.9
740.416	82.77
740.601	242.51
740.786	254.8
740.972	148.31
741.157	189.27
741.342	160.59
741.528	181.07
741.713	369.49
741.898	248.66
742.084	224.08
742.269	207.7
742.454	265.04
742.639	301.9
742.824	297.81
743.01	258.9
743.195	326.48
743.38	258.9
743.565	189.27
743.75	172.88
743.935	256.85
744.12	326.48
744.305	185.17
744.49	138.07
744.675	250.71
744.86	211.79
745.045	273.23
745.23	191.31
745.415	199.51
745.6	314.19
745.785	123.73
745.97	303.95
746.155	238.42
746.34	228.18
746.525	295.76
746.71	252.75
746.895	164.69
747.079	80.72
747.264	131.92
747.449	281.43
747.634	252.75
747.819	213.84
748.003	95.06
748.188	115.54
748.373	289.62
748.557	140.12
748.742	174.93
748.927	217.94
749.111	181.07
749.296	201.55
749.481	303.95
749.665	193.36
749.85	185.17
750.034	224.08
750.219	191.31
750.404	150.36
750.588	158.55
750.773	84.82
750.957	224.08
751.141	156.5
751.326	279.38
751.51	142.16
751.695	166.74
751.879	217.94
752.064	303.95
752.248	152.4
752.432	267.09
752.617	260.95
752.801	281.43
752.985	111.44
753.17	299.86
753.354	215.89
753.538	140.12
753.722	133.97
753.907	123.73
754.091	146.26
754.275	142.16
754.459	43.86
754.643	119.64
754.828	199.51
755.012	193.36
755.196	4.95
755.38	150.36
755.564	43.86
755.748	201.55
755.932	201.55
756.116	168.79
756.3	219.99
756.484	140.12
756.668	211.79
756.852	52.05
757.036	84.82
757.22	148.31
757.404	103.25
757.588	107.35
757.772	70.48
757.956	33.62
758.14	248.66
758.323	76.63
758.507	205.65
758.691	158.55
758.875	127.83
759.059	306
759.242	117.59
759.426	76.63
759.61	33.62
759.794	158.55
759.977	193.36
760.161	320.34
760.345	242.51
760.528	201.55
760.712	109.4
760.895	158.55
761.079	156.5
761.263	27.48
761.446	66.39
761.63	97.11
761.813	144.21
761.997	47.96
762.18	76.63
762.364	152.4
762.547	-25.77
762.731	90.96
762.914	107.35
763.098	33.62
763.281	11.09
763.464	74.58
763.648	103.25
763.831	99.16
764.015	76.63
764.198	133.97
764.381	93.01
764.564	109.4
764.748	72.53
764.931	99.16
765.114	88.92
765.297	109.4
765.481	11.09
765.664	17.24
765.847	64.34
766.03	172.88
766.213	2.9
766.397	117.59
766.58	19.29
766.763	158.55
766.946	107.35
767.129	25.43
767.312	74.58
767.495	82.77
767.678	41.81
767.861	189.27
768.044	-11.43
768.227	88.92
768.41	68.44
768.593	-3.24
768.776	164.69
768.959	31.57
769.142	230.23
769.324	119.64
769.507	37.72
769.69	11.09
769.873	23.38
770.056	312.14
770.239	58.2
770.421	152.4
770.604	136.02
770.787	66.39
770.97	117.59
771.152	13.14
771.335	183.12
771.518	0.85
771.7	107.35
771.883	176.98
772.066	-3.24
772.248	97.11
772.431	170.83
772.613	93.01
772.796	101.2
772.978	142.16
773.161	123.73
773.343	117.59
773.526	80.72
773.708	-52.39
773.891	-66.73
774.073	27.48
774.256	-25.77
774.438	230.23
774.621	9.05
774.803	74.58
774.985	-23.72
775.168	60.24
775.35	111.44
775.532	111.44
775.715	15.19
775.897	68.44
776.079	0.85
776.261	174.93
776.444	176.98
776.626	50
776.808	-58.54
776.99	37.72
777.173	99.16
777.355	60.24
777.537	47.96
777.719	72.53
777.901	19.29
778.083	-19.63
778.265	-11.43
778.447	78.68
778.629	80.72
778.811	-3.24
778.993	144.21
779.175	84.82
779.357	-11.43
779.539	-23.72
779.721	50
779.903	133.97
780.085	7
780.267	29.52
780.449	-25.77
780.631	111.44
780.812	150.36
780.994	68.44
781.176	45.91
781.358	11.09
781.54	-50.35
781.721	9.05
781.903	176.98
782.085	-48.3
782.267	95.06
782.448	-21.67
782.63	4.95
782.812	86.87
782.993	93.01
783.175	107.35
783.357	80.72
783.538	54.1
783.72	-1.19
783.901	39.76
784.083	84.82
784.264	62.29
784.446	-33.96
784.627	-40.11
784.809	25.43
784.99	54.1
785.172	47.96
785.353	25.43
785.535	76.63
785.716	-70.83
785.897	-42.15
786.079	-29.87
786.26	35.67
786.441	97.11
786.623	-74.92
786.804	35.67
786.985	37.72
787.167	101.2
787.348	-33.96
787.529	62.29
787.71	72.53
787.891	50
788.073	-21.67
788.254	-109.74
788.435	144.21
788.616	13.14
788.797	-42.15
788.978	-72.87
789.159	60.24
789.34	56.15
789.522	37.72
789.703	-38.06
789.884	19.29
790.065	21.33
790.246	113.49
790.427	-23.72
790.607	107.35
790.788	45.91
790.969	-54.44
791.15	86.87
791.331	15.19
791.512	-66.73
791.693	-52.39
791.874	-3.24
792.054	207.7
792.235	64.34
792.416	-19.63
792.597	-11.43
792.778	33.62
792.958	52.05
793.139	25.43
793.32	-13.48
793.5	-13.48
793.681	174.93
793.862	25.43
794.042	90.96
794.223	-58.54
794.404	-9.39
794.584	-36.01
794.765	-1.19
794.945	47.96
795.126	80.72
795.306	129.88
795.487	27.48
795.667	41.81
795.848	86.87
796.028	9.05
796.209	19.29
796.389	113.49
796.57	-76.97
796.75	0.85
796.93	23.38
797.111	-132.26
797.291	-13.48
797.471	70.48
797.652	-1.19
797.832	15.19
798.012	64.34
798.192	-52.39
798.373	-160.94
798.553	76.63
798.733	80.72
798.913	-46.25
799.093	74.58
799.274	43.86
799.454	68.44
799.634	181.07
799.814	88.92
799.994	72.53
800.174	56.15
800.354	7
800.534	-74.92
800.714	43.86
800.894	-13.48
801.074	-115.88
801.254	-83.11
801.434	76.63
801.614	-44.2
801.794	-54.44
801.974	2042.68
802.154	0.85
802.334	90.96
802.514	-13.48
802.693	-17.58
802.873	60.24
803.053	29.52
803.233	21.33
803.413	21.33
803.592	-117.93
803.772	-29.87
803.952	-13.48
804.131	-54.44
804.311	144.21
804.491	127.83
804.67	-68.78
804.85	-134.31
805.03	-17.58
805.209	109.4
805.389	25.43
805.568	-48.3
805.748	-62.63
805.928	-1.19
806.107	103.25
806.287	39.76
806.466	4.95
806.646	-38.06
806.825	-48.3
807.004	62.29
807.184	0.85
807.363	107.35
807.543	-38.06
807.722	-76.97
807.901	60.24
808.081	66.39
808.26	-148.65
808.439	47.96
808.619	43.86
808.798	7
808.977	-27.82
809.156	35.67
809.336	68.44
809.515	105.3
809.694	-44.2
809.873	64.34
810.052	45.91
810.231	-17.58
810.411	2.9
810.59	62.29
810.769	11.09
810.948	138.07
811.127	-119.98
811.306	-70.83
811.485	-33.96
811.664	148.31
811.843	2.9
812.022	23.38
812.201	-17.58
812.38	4.95
812.559	-7.34
812.737	27.48
812.916	-177.32
813.095	-54.44
813.274	115.54
813.453	-21.67
813.632	15.19
813.811	0.85
813.989	-115.88
814.168	-31.91
814.347	-66.73
814.526	-44.2
814.704	68.44
814.883	105.3
815.062	-79.02
815.24	60.24
815.419	-38.06
815.598	82.77
815.776	-134.31
815.955	17.24
816.133	-48.3
816.312	43.86
816.49	-1.19
816.669	2.9
816.847	-5.29
817.026	-13.48
817.204	-64.68
817.383	-54.44
817.561	-66.73
817.74	-29.87
817.918	4.95
818.097	0.85
818.275	41.81
818.453	52.05
818.632	97.11
818.81	-66.73
818.988	-46.25
819.167	-42.15
819.345	33.62
819.523	-119.98
819.701	-17.58
819.879	90.96
820.058	84.82
820.236	9.05
820.414	-85.16
820.592	-31.91
820.77	29.52
820.948	-23.72
821.127	-31.91
821.305	56.15
821.483	-91.31
821.661	88.92
821.839	25.43
822.017	-33.96
822.195	-9.39
822.373	47.96
822.551	-56.49
822.729	84.82
822.907	-27.82
823.085	13.14
823.262	21.33
823.44	-36.01
823.618	-128.17
823.796	-93.35
823.974	25.43
824.152	-70.83
824.329	-64.68
824.507	13.14
824.685	-23.72
824.863	4.95
825.04	-7.34
825.218	-15.53
825.396	-21.67
825.574	41.81
825.751	31.57
825.929	95.06
826.107	-93.35
826.284	15.19
826.462	-29.87
826.639	-72.87
826.817	-91.31
826.994	-38.06
827.172	-36.01
827.349	164.69
827.527	23.38
827.704	-21.67
827.882	29.52
828.059	-68.78
828.237	-56.49
828.414	35.67
828.591	-179.37
828.769	-76.97
828.946	-17.58
829.124	47.96
829.301	-11.43
829.478	-23.72
829.655	138.07
829.833	21.33
830.01	-154.79
830.187	-17.58
830.364	-9.39
830.542	-19.63
830.719	86.87
830.896	58.2
831.073	25.43
831.25	17.24
831.427	31.57
831.604	19.29
831.782	-42.15
831.959	64.34
832.136	-13.48
832.313	43.86
832.49	29.52
832.667	19.29
832.844	-44.2
833.021	19.29
833.198	-42.15
833.374	-44.2
833.551	66.39
833.728	0.85
833.905	11.09
834.082	-128.17
834.259	37.72
834.436	-11.43
834.612	-60.59
834.789	74.58
834.966	25.43
835.143	70.48
835.319	-113.83
835.496	64.34
835.673	2.9
835.85	86.87
836.026	15.19
836.203	-9.39
836.38	-40.11
836.556	-74.92
836.733	-103.59
836.909	129.88
837.086	-72.87
837.262	-107.69
837.439	-23.72
837.616	-29.87
837.792	-27.82
837.968	25.43
838.145	-54.44
838.321	-21.67
838.498	-21.67
838.674	76.63
838.851	13.14
839.027	-48.3
839.203	54.1
839.38	82.77
839.556	-15.53
839.732	33.62
839.909	-66.73
840.085	37.72
840.261	-44.2
840.437	7
840.614	-50.35
840.79	37.72
840.966	47.96
841.142	-42.15
841.318	-58.54
841.494	9.05
841.671	80.72
841.847	-11.43
842.023	-19.63
842.199	54.1
842.375	66.39
842.551	-117.93
842.727	-31.91
842.903	52.05
843.079	-74.92
843.255	90.96
843.431	117.59
843.607	68.44
843.783	-203.94
843.959	62.29
844.134	-113.83
844.31	52.05
844.486	-48.3
844.662	-70.83
844.838	-58.54
845.013	4.95
845.189	72.53
845.365	4.95
845.541	-27.82
845.716	47.96
845.892	60.24
846.068	2.9
846.244	-9.39
846.419	64.34
846.595	-85.16
846.77	-95.4
846.946	35.67
847.122	-44.2
847.297	-44.2
847.473	97.11
847.648	-91.31
847.824	-25.77
847.999	-122.02
848.175	-23.72
848.35	60.24
848.526	72.53
848.701	27.48
848.876	115.54
849.052	52.05
849.227	-25.77
849.403	-109.74
849.578	-79.02
849.753	13.14
849.929	4.95
850.104	-50.35
850.279	-15.53
850.454	-15.53
850.63	2.9
850.805	15.19
850.98	78.68
851.155	-48.3
851.33	13.14
851.505	-52.39
851.681	88.92
851.856	-62.63
852.031	50
852.206	58.2
852.381	-25.77
852.556	54.1
852.731	-11.43
852.906	21.33
853.081	21.33
853.256	115.54
853.431	35.67
853.606	-83.11
853.781	7
853.956	-126.12
854.131	-29.87
854.305	-36.01
854.48	17.24
854.655	-62.63
854.83	-70.83
855.005	-11.43
855.18	0.85
855.354	11.09
855.529	13.14
855.704	37.72
855.879	54.1
856.053	-124.07
856.228	-15.53
856.403	-97.45
856.577	109.4
856.752	-117.93
856.926	99.16
857.101	54.1
857.276	-128.17
857.45	11.09
857.625	15.19
857.799	35.67
857.974	-60.59
858.148	-70.83
858.323	19.29
858.497	-64.68
858.672	-40.11
858.846	-70.83
859.02	-5.29
859.195	-107.69
859.369	-15.53
859.543	-33.96
859.718	4.95
859.892	-36.01
860.066	-25.77
860.241	-70.83
860.415	-44.2
860.589	33.62
860.763	0.85
860.938	-64.68
861.112	23.38
861.286	-33.96
861.46	7
861.634	-56.49
861.808	41.81
861.982	-38.06
862.157	-107.69
862.331	-29.87
862.505	-101.55
862.679	-144.55
862.853	-11.43
863.027	-48.3
863.201	97.11
863.375	-50.35
863.549	66.39
863.722	23.38
863.896	47.96
864.07	9.05
864.244	43.86
864.418	15.19
864.592	-9.39
864.766	-5.29
864.939	-54.44
865.113	-11.43
865.287	31.57
865.461	-56.49
865.634	11.09
865.808	-83.11
865.982	7
866.156	-58.54
866.329	-97.45
866.503	15.19
866.676	113.49
866.85	99.16
867.024	-5.29
867.197	109.4
867.371	-9.39
867.544	-38.06
867.718	-74.92
867.891	-15.53
868.065	-128.17
868.238	-21.67
868.412	-3.24
868.585	-68.78
868.759	-56.49
868.932	-25.77
869.105	-99.5
869.279	-15.53
869.452	-15.53
869.625	45.91
869.799	-13.48
869.972	-150.7
870.145	-68.78
870.319	7
870.492	-5.29
870.665	-97.45
870.838	-79.02
871.011	-124.07
871.185	-21.67
871.358	-70.83
871.531	72.53
871.704	-13.48
871.877	64.34
872.05	-111.78
872.223	-160.94
872.396	66.39
872.569	33.62
872.742	-169.13
872.915	37.72
873.088	-148.65
873.261	-115.88
873.434	-3.24
873.607	-62.63
873.78	-36.01
873.953	-7.34
874.126	43.86
874.299	58.2
874.471	25.43
874.644	-105.64
874.817	64.34
874.99	187.22
875.163	-136.36
875.335	-11.43
875.508	-11.43
875.681	103.25
875.853	-119.98
876.026	9.05
876.199	74.58
876.371	-38.06
876.544	-66.73
876.717	0.85
876.889	-107.69
877.062	136.02
877.234	-25.77
877.407	-46.25
877.579	25.43
877.752	-52.39
877.924	113.49
878.097	25.43
878.269	39.76
878.442	-17.58
878.614	-11.43
878.786	19.29
878.959	-21.67
879.131	-5.29
879.303	-142.5
879.476	-62.63
879.648	35.67
879.82	33.62
879.993	2.9
880.165	-15.53
880.337	-113.83
880.509	37.72
880.681	-56.49
880.854	-79.02
881.026	62.29
881.198	181.07
881.37	-54.44
881.542	-27.82
881.714	-58.54
881.886	-68.78
882.058	-7.34
882.23	47.96
882.402	-95.4
882.574	-23.72
882.746	72.53
882.918	68.44
883.09	47.96
883.262	-29.87
883.434	-29.87
883.606	-58.54
883.778	-60.59
883.95	103.25
884.122	-95.4
884.293	19.29
884.465	-17.58
884.637	70.48
884.809	-136.36
884.98	-56.49
885.152	-17.58
885.324	82.77
885.496	-122.02
885.667	-58.54
885.839	-33.96
886.011	41.81
886.182	39.76
886.354	-19.63
886.525	21.33
886.697	-60.59
886.869	-19.63
887.04	19.29
887.212	103.25
887.383	58.2
887.555	17.24
887.726	-38.06
887.897	-36.01
888.069	-7.34
888.24	9.05
888.412	13.14
888.583	-105.64
888.754	-70.83
888.926	-68.78
889.097	-109.74
889.268	-99.5
889.44	-15.53
889.611	-15.53
889.782	-89.26
889.953	-72.87
890.125	37.72
890.296	-79.02
890.467	11.09
890.638	-138.41
890.809	-83.11
890.98	-128.17
891.151	-7.34
891.323	80.72
891.494	37.72
891.665	4.95
891.836	9.05
892.007	-79.02
892.178	-27.82
892.349	52.05
892.52	-72.87
892.691	-7.34
892.862	-72.87
893.032	-142.5
893.203	-103.59
893.374	-62.63
893.545	117.59
893.716	-128.17
893.887	0.85
894.057	-25.77
894.228	13.14
894.399	-117.93
894.57	101.2
894.74	-46.25
894.911	19.29
895.082	-68.78
895.253	-97.45
895.423	23.38
895.594	4.95
895.764	0.85
895.935	-93.35
896.106	-56.49
896.276	-93.35
896.447	-7.34
896.617	-128.17
896.788	-36.01
896.958	-1.19
897.129	-79.02
897.299	-23.72
897.47	93.01
897.64	-33.96
897.81	-85.16
897.981	39.76
898.151	-54.44
898.322	-5.29
898.492	47.96
898.662	-62.63
898.832	-58.54
899.003	-44.2
899.173	23.38
899.343	-58.54
899.513	-62.63
