Data from USB4F104151__50__10-43-23-077.txt Node

Date: Wed Feb 26 10:43:23 EST 2025
User: louis
Spectrometer: USB4F10415
Trigger mode: 4
Integration Time (sec): 1.000000E-1
Scans to average: 1
Electric dark correction enabled: true
Nonlinearity correction enabled: false
Boxcar width: 0
XAxis mode: Wavelengths
Number of Pixels in Spectrum: 3648
>>>>>Begin Spectral Data<<<<<
178.204	-404.64
178.424	-404.64
178.644	-404.64
178.864	-369.83
179.084	-365.73
179.304	-1.19
179.524	-54.44
179.744	-17.58
179.964	105.3
180.184	74.58
180.404	41.81
180.624	-44.2
180.844	-42.15
181.064	-33.96
181.283	9.05
181.503	-103.59
181.723	66.39
181.943	-29.87
182.163	187.22
182.383	29.52
182.602	101.2
182.822	133.97
183.042	162.64
183.262	-105.64
183.482	33.62
183.701	4.95
183.921	76.63
184.141	-27.82
184.361	109.4
184.58	86.87
184.8	-33.96
185.02	-23.72
185.239	142.16
185.459	160.59
185.679	127.83
185.898	-97.45
186.118	66.39
186.338	86.87
186.557	176.98
186.777	-27.82
186.997	31.57
187.216	131.92
187.436	183.12
187.655	107.35
187.875	47.96
188.095	17.24
188.314	199.51
188.534	129.88
188.753	-33.96
188.973	176.98
189.192	101.2
189.412	29.52
189.631	7
189.851	39.76
190.07	240.47
190.29	-13.48
190.509	-1.19
190.729	78.68
190.948	166.74
191.168	277.33
191.387	111.44
191.607	31.57
191.826	35.67
192.045	47.96
192.265	-3.24
192.484	99.16
192.704	27.48
192.923	-5.29
193.142	203.6
193.362	131.92
193.581	156.5
193.8	25.43
194.02	31.57
194.239	21.33
194.458	138.07
194.678	93.01
194.897	27.48
195.116	80.72
195.335	41.81
195.555	52.05
195.774	2.9
195.993	123.73
196.212	90.96
196.432	27.48
196.651	13.14
196.87	66.39
197.089	262.99
197.308	0.85
197.528	66.39
197.747	11.09
197.966	64.34
198.185	201.55
198.404	43.86
198.623	146.26
198.842	68.44
199.062	41.81
199.281	125.78
199.5	70.48
199.719	37.72
199.938	43.86
200.157	7
200.376	105.3
200.595	168.79
200.814	93.01
201.033	56.15
201.252	162.64
201.471	93.01
201.69	131.92
201.909	78.68
202.128	50
202.347	133.97
202.566	54.1
202.785	-31.91
203.004	13.14
203.223	234.32
203.442	25.43
203.661	39.76
203.879	103.25
204.098	109.4
204.317	-19.63
204.536	125.78
204.755	93.01
204.974	70.48
205.193	21.33
205.411	115.54
205.63	105.3
205.849	103.25
206.068	47.96
206.287	-5.29
206.505	146.26
206.724	52.05
206.943	7
207.162	-3.24
207.381	103.25
207.599	70.48
207.818	105.3
208.037	29.52
208.255	-3.24
208.474	29.52
208.693	107.35
208.911	-13.48
209.13	160.59
209.349	80.72
209.567	93.01
209.786	160.59
210.005	80.72
210.223	66.39
210.442	-74.92
210.661	70.48
210.879	97.11
211.098	52.05
211.316	-19.63
211.535	78.68
211.753	136.02
211.972	127.83
212.191	-11.43
212.409	23.38
212.628	31.57
212.846	45.91
213.065	95.06
213.283	136.02
213.502	60.24
213.72	13.14
213.938	74.58
214.157	-19.63
214.375	131.92
214.594	-1.19
214.812	150.36
215.031	-17.58
215.249	27.48
215.467	68.44
215.686	99.16
215.904	113.49
216.122	127.83
216.341	131.92
216.559	86.87
216.778	68.44
216.996	158.55
217.214	86.87
217.432	56.15
217.651	-56.49
217.869	70.48
218.087	37.72
218.306	-5.29
218.524	17.24
218.742	-9.39
218.96	97.11
219.179	25.43
219.397	-7.34
219.615	244.56
219.833	70.48
220.051	-7.34
220.27	99.16
220.488	74.58
220.706	136.02
220.924	21.33
221.142	17.24
221.36	95.06
221.578	86.87
221.796	111.44
222.015	19.29
222.233	82.77
222.451	230.23
222.669	-42.15
222.887	82.77
223.105	-103.59
223.323	68.44
223.541	11.09
223.759	68.44
223.977	45.91
224.195	164.69
224.413	95.06
224.631	17.24
224.849	88.92
225.067	215.89
225.285	127.83
225.503	-64.68
225.721	-58.54
225.939	23.38
226.157	56.15
226.375	224.08
226.592	25.43
226.81	-9.39
227.028	119.64
227.246	179.03
227.464	142.16
227.682	142.16
227.9	78.68
228.117	64.34
228.335	62.29
228.553	45.91
228.771	45.91
228.989	39.76
229.206	76.63
229.424	39.76
229.642	11.09
229.86	-7.34
230.077	133.97
230.295	72.53
230.513	164.69
230.731	62.29
230.948	295.76
231.166	156.5
231.384	107.35
231.601	-62.63
231.819	258.9
232.037	27.48
232.254	-60.59
232.472	45.91
232.689	45.91
232.907	80.72
233.125	33.62
233.342	-5.29
233.56	58.2
233.777	11.09
233.995	60.24
234.213	172.88
234.43	123.73
234.648	76.63
234.865	27.48
235.083	113.49
235.3	13.14
235.518	150.36
235.735	156.5
235.953	158.55
236.17	80.72
236.388	52.05
236.605	54.1
236.822	105.3
237.04	119.64
237.257	101.2
237.475	-36.01
237.692	62.29
237.909	125.78
238.127	-27.82
238.344	62.29
238.562	138.07
238.779	-31.91
238.996	-42.15
239.214	39.76
239.431	181.07
239.648	-31.91
239.865	97.11
240.083	62.29
240.3	-40.11
240.517	50
240.735	78.68
240.952	107.35
241.169	105.3
241.386	176.98
241.603	-5.29
241.821	-62.63
242.038	72.53
242.255	154.45
242.472	-7.34
242.689	113.49
242.907	136.02
243.124	62.29
243.341	113.49
243.558	33.62
243.775	-33.96
243.992	11.09
244.209	70.48
244.426	197.46
244.643	64.34
244.86	-36.01
245.078	131.92
245.295	80.72
245.512	70.48
245.729	-9.39
245.946	86.87
246.163	58.2
246.38	-21.67
246.597	90.96
246.814	-1.19
247.031	82.77
247.248	103.25
247.464	127.83
247.681	50
247.898	82.77
248.115	127.83
248.332	84.82
248.549	205.65
248.766	158.55
248.983	142.16
249.2	148.31
249.417	82.77
249.633	35.67
249.85	101.2
250.067	13.14
250.284	103.25
250.501	76.63
250.717	62.29
250.934	-50.35
251.151	-15.53
251.368	66.39
251.585	99.16
251.801	72.53
252.018	-79.02
252.235	78.68
252.451	-27.82
252.668	-13.48
252.885	70.48
253.102	93.01
253.318	13.14
253.535	37.72
253.752	-27.82
253.968	-36.01
254.185	-36.01
254.401	37.72
254.618	72.53
254.835	15.19
255.051	207.7
255.268	84.82
255.484	62.29
255.701	103.25
255.917	39.76
256.134	-13.48
256.351	-15.53
256.567	-33.96
256.784	88.92
257	-62.63
257.217	95.06
257.433	74.58
257.65	-17.58
257.866	179.03
258.082	21.33
258.299	4.95
258.515	88.92
258.732	-25.77
258.948	52.05
259.165	80.72
259.381	-11.43
259.597	56.15
259.814	78.68
260.03	68.44
260.246	84.82
260.463	172.88
260.679	162.64
260.895	33.62
261.112	82.77
261.328	47.96
261.544	-56.49
261.761	166.74
261.977	21.33
262.193	-111.78
262.409	62.29
262.626	43.86
262.842	99.16
263.058	15.19
263.274	43.86
263.49	82.77
263.707	60.24
263.923	115.54
264.139	-9.39
264.355	70.48
264.571	119.64
264.787	88.92
265.004	90.96
265.22	45.91
265.436	66.39
265.652	47.96
265.868	9.05
266.084	0.85
266.3	84.82
266.516	-13.48
266.732	41.81
266.948	78.68
267.164	-5.29
267.38	103.25
267.596	101.2
267.812	232.27
268.028	19.29
268.244	86.87
268.46	191.31
268.676	-13.48
268.892	90.96
269.108	54.1
269.324	-48.3
269.54	78.68
269.756	97.11
269.972	-17.58
270.188	29.52
270.403	9.05
270.619	13.14
270.835	121.68
271.051	129.88
271.267	23.38
271.483	58.2
271.698	86.87
271.914	115.54
272.13	41.81
272.346	11.09
272.562	-3.24
272.777	136.02
272.993	0.85
273.209	33.62
273.425	86.87
273.64	-38.06
273.856	136.02
274.072	23.38
274.287	-48.3
274.503	101.2
274.719	123.73
274.934	27.48
275.15	-74.92
275.366	37.72
275.581	11.09
275.797	-3.24
276.012	52.05
276.228	82.77
276.444	82.77
276.659	119.64
276.875	-15.53
277.09	54.1
277.306	45.91
277.521	41.81
277.737	7
277.952	142.16
278.168	33.62
278.383	37.72
278.599	84.82
278.814	78.68
279.03	90.96
279.245	201.55
279.461	35.67
279.676	140.12
279.892	-50.35
280.107	31.57
280.322	31.57
280.538	74.58
280.753	-85.16
280.969	127.83
281.184	117.59
281.399	203.6
281.615	31.57
281.83	25.43
282.045	19.29
282.26	70.48
282.476	103.25
282.691	123.73
282.906	80.72
283.122	66.39
283.337	-36.01
283.552	131.92
283.767	33.62
283.983	187.22
284.198	76.63
284.413	144.21
284.628	-25.77
284.843	166.74
285.058	107.35
285.274	37.72
285.489	41.81
285.704	125.78
285.919	-25.77
286.134	52.05
286.349	78.68
286.564	-27.82
286.779	162.64
286.995	54.1
287.21	4.95
287.425	68.44
287.64	7
287.855	133.97
288.07	-13.48
288.285	97.11
288.5	47.96
288.715	99.16
288.93	43.86
289.145	-15.53
289.36	62.29
289.575	-7.34
289.79	54.1
290.004	43.86
290.219	93.01
290.434	2.9
290.649	-25.77
290.864	0.85
291.079	31.57
291.294	64.34
291.509	166.74
291.724	-40.11
291.938	25.43
292.153	54.1
292.368	11.09
292.583	43.86
292.798	86.87
293.012	82.77
293.227	66.39
293.442	0.85
293.657	45.91
293.871	99.16
294.086	78.68
294.301	160.59
294.516	82.77
294.73	41.81
294.945	-40.11
295.16	21.33
295.374	78.68
295.589	240.47
295.804	-13.48
296.018	29.52
296.233	142.16
296.447	43.86
296.662	-23.72
296.877	179.03
297.091	66.39
297.306	7
297.52	56.15
297.735	95.06
297.949	150.36
298.164	50
298.378	54.1
298.593	-3.24
298.807	47.96
299.022	103.25
299.236	125.78
299.451	17.24
299.665	9.05
299.88	60.24
300.094	66.39
300.309	68.44
300.523	54.1
300.737	66.39
300.952	9.05
301.166	56.15
301.381	-1.19
301.595	17.24
301.809	-5.29
302.024	31.57
302.238	-31.91
302.452	148.31
302.667	33.62
302.881	131.92
303.095	31.57
303.309	43.86
303.524	39.76
303.738	86.87
303.952	33.62
304.166	142.16
304.381	-76.97
304.595	195.41
304.809	4.95
305.023	7
305.237	4.95
305.452	78.68
305.666	156.5
305.88	133.97
306.094	123.73
306.308	93.01
306.522	119.64
306.736	109.4
306.95	195.41
307.164	43.86
307.379	95.06
307.593	144.21
307.807	172.88
308.021	123.73
308.235	119.64
308.449	-38.06
308.663	86.87
308.877	150.36
309.091	123.73
309.305	72.53
309.519	-48.3
309.733	176.98
309.947	-56.49
310.161	25.43
310.374	154.45
310.588	148.31
310.802	-29.87
311.016	31.57
311.23	78.68
311.444	-29.87
311.658	7
311.872	170.83
312.085	181.07
312.299	103.25
312.513	148.31
312.727	43.86
312.941	-31.91
313.154	64.34
313.368	70.48
313.582	56.15
313.796	50
314.009	82.77
314.223	152.4
314.437	88.92
314.651	111.44
314.864	-44.2
315.078	7
315.292	-79.02
315.505	35.67
315.719	33.62
315.933	54.1
316.146	27.48
316.36	-25.77
316.573	56.15
316.787	109.4
317.001	56.15
317.214	-7.34
317.428	-17.58
317.641	-23.72
317.855	68.44
318.068	17.24
318.282	43.86
318.495	181.07
318.709	113.49
318.922	11.09
319.136	183.12
319.349	93.01
319.563	-42.15
319.776	111.44
319.99	43.86
320.203	84.82
320.417	66.39
320.63	62.29
320.843	232.27
321.057	56.15
321.27	25.43
321.483	160.59
321.697	197.46
321.91	2.9
322.124	160.59
322.337	41.81
322.55	-3.24
322.763	80.72
322.977	11.09
323.19	-1.19
323.403	107.35
323.617	164.69
323.83	181.07
324.043	60.24
324.256	74.58
324.469	15.19
324.683	156.5
324.896	127.83
325.109	17.24
325.322	-29.87
325.535	101.2
325.748	142.16
325.962	101.2
326.175	123.73
326.388	129.88
326.601	172.88
326.814	-5.29
327.027	105.3
327.24	101.2
327.453	-15.53
327.666	39.76
327.879	101.2
328.092	86.87
328.305	95.06
328.518	15.19
328.731	2.9
328.944	-5.29
329.157	86.87
329.37	0.85
329.583	185.17
329.796	148.31
330.009	-81.07
330.222	140.12
330.435	168.79
330.648	109.4
330.861	52.05
331.073	-3.24
331.286	99.16
331.499	33.62
331.712	60.24
331.925	74.58
332.138	17.24
332.35	107.35
332.563	29.52
332.776	115.54
332.989	2.9
333.202	37.72
333.414	82.77
333.627	138.07
333.84	95.06
334.053	88.92
334.265	66.39
334.478	58.2
334.691	140.12
334.903	107.35
335.116	21.33
335.329	13.14
335.541	144.21
335.754	162.64
335.966	54.1
336.179	-52.39
336.392	-7.34
336.604	43.86
336.817	93.01
337.029	148.31
337.242	70.48
337.454	80.72
337.667	47.96
337.88	176.98
338.092	66.39
338.305	164.69
338.517	-19.63
338.729	103.25
338.942	195.41
339.154	-44.2
339.367	-68.78
339.579	35.67
339.792	-7.34
340.004	45.91
340.217	-1.19
340.429	72.53
340.641	43.86
340.854	-46.25
341.066	88.92
341.278	219.99
341.491	201.55
341.703	70.48
341.915	29.52
342.128	119.64
342.34	105.3
342.552	4.95
342.764	80.72
342.977	76.63
343.189	115.54
343.401	125.78
343.613	-42.15
343.826	74.58
344.038	-13.48
344.25	68.44
344.462	-15.53
344.674	90.96
344.886	-7.34
345.099	21.33
345.311	103.25
345.523	107.35
345.735	-36.01
345.947	113.49
346.159	127.83
346.371	15.19
346.583	-56.49
346.795	209.75
347.007	21.33
347.219	41.81
347.431	74.58
347.643	93.01
347.855	54.1
348.067	131.92
348.279	-60.59
348.491	64.34
348.703	88.92
348.915	70.48
349.127	7
349.339	64.34
349.551	43.86
349.763	101.2
349.975	9.05
350.187	113.49
350.399	125.78
350.61	156.5
350.822	39.76
351.034	99.16
351.246	25.43
351.458	11.09
351.669	97.11
351.881	68.44
352.093	181.07
352.305	72.53
352.517	119.64
352.728	150.36
352.94	115.54
353.152	95.06
353.363	88.92
353.575	97.11
353.787	254.8
353.999	27.48
354.21	195.41
354.422	-36.01
354.633	93.01
354.845	31.57
355.057	76.63
355.268	82.77
355.48	125.78
355.692	7
355.903	82.77
356.115	35.67
356.326	-95.4
356.538	127.83
356.749	119.64
356.961	146.26
357.172	4.95
357.384	-83.11
357.595	158.55
357.807	15.19
358.018	64.34
358.23	68.44
358.441	168.79
358.653	131.92
358.864	17.24
359.075	29.52
359.287	25.43
359.498	121.68
359.709	82.77
359.921	58.2
360.132	115.54
360.344	23.38
360.555	33.62
360.766	-40.11
360.977	62.29
361.189	115.54
361.4	62.29
361.611	121.68
361.823	219.99
362.034	52.05
362.245	74.58
362.456	-9.39
362.667	170.83
362.879	-31.91
363.09	66.39
363.301	68.44
363.512	90.96
363.723	0.85
363.935	19.29
364.146	97.11
364.357	105.3
364.568	9.05
364.779	68.44
364.99	111.44
365.201	21.33
365.412	103.25
365.623	-42.15
365.834	152.4
366.045	4.95
366.256	58.2
366.467	88.92
366.678	37.72
366.889	60.24
367.1	37.72
367.311	99.16
367.522	68.44
367.733	193.36
367.944	142.16
368.155	125.78
368.366	127.83
368.577	82.77
368.788	160.59
368.999	39.76
369.209	62.29
369.42	168.79
369.631	258.9
369.842	119.64
370.053	-13.48
370.264	138.07
370.474	23.38
370.685	95.06
370.896	47.96
371.107	164.69
371.317	60.24
371.528	70.48
371.739	168.79
371.95	64.34
372.16	140.12
372.371	-13.48
372.582	21.33
372.792	107.35
373.003	62.29
373.214	97.11
373.424	95.06
373.635	-11.43
373.846	115.54
374.056	62.29
374.267	101.2
374.477	74.58
374.688	39.76
374.898	95.06
375.109	17.24
375.319	70.48
375.53	154.45
375.74	47.96
375.951	-3.24
376.161	66.39
376.372	90.96
376.582	-23.72
376.793	60.24
377.003	-9.39
377.214	-5.29
377.424	80.72
377.635	74.58
377.845	11.09
378.055	154.45
378.266	-70.83
378.476	-25.77
378.686	93.01
378.897	103.25
379.107	193.36
379.317	43.86
379.528	56.15
379.738	160.59
379.948	-29.87
380.158	131.92
380.369	64.34
380.579	9.05
380.789	97.11
380.999	144.21
381.21	86.87
381.42	179.03
381.63	35.67
381.84	156.5
382.05	64.34
382.261	123.73
382.471	97.11
382.681	-50.35
382.891	117.59
383.101	-1.19
383.311	-7.34
383.521	9.05
383.731	115.54
383.941	140.12
384.151	-36.01
384.361	103.25
384.571	117.59
384.781	4.95
384.991	275.28
385.201	230.23
385.411	82.77
385.621	176.98
385.831	19.29
386.041	123.73
386.251	47.96
386.461	97.11
386.671	99.16
386.881	80.72
387.091	29.52
387.301	78.68
387.511	43.86
387.72	213.84
387.93	127.83
388.14	56.15
388.35	93.01
388.56	138.07
388.769	123.73
388.979	76.63
389.189	-50.35
389.399	131.92
389.609	105.3
389.818	54.1
390.028	115.54
390.238	66.39
390.447	-44.2
390.657	125.78
390.867	115.54
391.076	35.67
391.286	93.01
391.496	64.34
391.705	33.62
391.915	111.44
392.125	150.36
392.334	70.48
392.544	199.51
392.753	50
392.963	-19.63
393.172	88.92
393.382	-21.67
393.591	193.36
393.801	15.19
394.01	248.66
394.22	191.31
394.429	103.25
394.639	-13.48
394.848	50
395.058	72.53
395.267	54.1
395.477	127.83
395.686	152.4
395.895	144.21
396.105	244.56
396.314	70.48
396.524	45.91
396.733	101.2
396.942	109.4
397.152	78.68
397.361	136.02
397.57	146.26
397.78	43.86
397.989	80.72
398.198	207.7
398.407	31.57
398.617	31.57
398.826	13.14
399.035	97.11
399.244	115.54
399.453	-15.53
399.663	64.34
399.872	11.09
400.081	-19.63
400.29	115.54
400.499	-48.3
400.708	115.54
400.917	47.96
401.127	37.72
401.336	72.53
401.545	207.7
401.754	174.93
401.963	103.25
402.172	78.68
402.381	-42.15
402.59	74.58
402.799	66.39
403.008	140.12
403.217	35.67
403.426	154.45
403.635	-44.2
403.844	54.1
404.053	7
404.262	17.24
404.471	269.14
404.68	131.92
404.888	29.52
405.097	72.53
405.306	72.53
405.515	244.56
405.724	52.05
405.933	133.97
406.142	50
406.35	72.53
406.559	64.34
406.768	33.62
406.977	166.74
407.185	88.92
407.394	121.68
407.603	-60.59
407.812	39.76
408.02	201.55
408.229	113.49
408.438	103.25
408.646	-89.26
408.855	45.91
409.064	133.97
409.272	56.15
409.481	31.57
409.69	-3.24
409.898	-36.01
410.107	148.31
410.315	140.12
410.524	47.96
410.733	-36.01
410.941	45.91
411.15	138.07
411.358	168.79
411.567	179.03
411.775	25.43
411.984	60.24
412.192	138.07
412.401	43.86
412.609	129.88
412.818	191.31
413.026	93.01
413.234	19.29
413.443	45.91
413.651	33.62
413.86	23.38
414.068	160.59
414.276	187.22
414.485	70.48
414.693	183.12
414.901	183.12
415.11	52.05
415.318	52.05
415.526	70.48
415.734	107.35
415.943	84.82
416.151	150.36
416.359	47.96
416.567	0.85
416.776	176.98
416.984	76.63
417.192	197.46
417.4	-5.29
417.608	62.29
417.817	41.81
418.025	103.25
418.233	193.36
418.441	-42.15
418.649	-38.06
418.857	99.16
419.065	217.94
419.273	17.24
419.481	131.92
419.689	54.1
419.897	-23.72
420.105	-9.39
420.313	162.64
420.521	97.11
420.729	146.26
420.937	37.72
421.145	58.2
421.353	123.73
421.561	164.69
421.769	119.64
421.977	50
422.185	103.25
422.393	50
422.601	140.12
422.809	60.24
423.017	105.3
423.224	97.11
423.432	144.21
423.64	68.44
423.848	158.55
424.056	72.53
424.263	84.82
424.471	2.9
424.679	277.33
424.887	15.19
425.094	205.65
425.302	123.73
425.51	76.63
425.718	95.06
425.925	78.68
426.133	97.11
426.341	191.31
426.548	150.36
426.756	113.49
426.964	131.92
427.171	76.63
427.379	113.49
427.586	146.26
427.794	138.07
428.001	158.55
428.209	142.16
428.417	119.64
428.624	127.83
428.832	156.5
429.039	70.48
429.247	76.63
429.454	156.5
429.662	236.37
429.869	162.64
430.076	181.07
430.284	142.16
430.491	265.04
430.699	207.7
430.906	228.18
431.114	88.92
431.321	154.45
431.528	121.68
431.736	88.92
431.943	148.31
432.15	162.64
432.358	215.89
432.565	299.86
432.772	105.3
432.979	275.28
433.187	133.97
433.394	265.04
433.601	172.88
433.808	213.84
434.016	267.09
434.223	217.94
434.43	195.41
434.637	273.23
434.844	248.66
435.052	289.62
435.259	340.82
435.466	316.24
435.673	336.72
435.88	316.24
436.087	320.34
436.294	455.5
436.501	346.96
436.708	361.3
436.915	324.43
437.122	404.3
437.329	281.43
437.537	338.77
437.743	402.26
437.95	570.19
438.157	443.21
438.364	449.36
438.571	467.79
438.778	549.71
438.985	574.28
439.192	607.05
439.399	469.84
439.606	471.89
439.813	600.91
440.02	742.22
440.227	738.12
440.433	695.11
440.64	674.64
440.847	668.49
441.054	744.27
441.261	744.27
441.467	705.35
441.674	621.39
441.881	770.89
442.088	740.17
442.294	838.47
442.501	936.78
442.708	865.1
442.914	983.88
443.121	967.49
443.328	944.97
443.534	1098.56
443.741	1004.36
443.948	930.63
444.154	1168.2
444.361	1303.36
444.568	1141.57
444.774	1258.31
444.981	1203.01
445.187	1362.75
445.394	1366.85
445.6	1338.18
445.807	1553.21
446.013	1512.25
446.22	1403.71
446.426	1678.14
446.633	1702.72
446.839	1794.87
447.046	1514.3
447.252	1946.42
447.459	1891.13
447.665	1831.74
447.871	2134.84
448.078	2192.18
448.284	2181.94
448.491	2323.25
448.697	2487.09
448.903	2468.66
449.11	2503.47
449.316	2573.1
449.522	2632.49
449.728	2712.36
449.935	3009.32
450.141	2956.07
450.347	3246.88
450.553	3236.64
450.76	3244.84
450.966	3361.57
451.172	3371.81
451.378	3654.43
451.584	3662.62
451.791	3990.3
451.997	4117.27
452.203	4117.27
452.409	4211.48
452.615	4438.8
452.821	4408.08
453.027	4416.27
453.233	5096.2
453.44	4936.46
453.646	5028.62
453.852	5292.8
454.058	5550.85
454.264	5659.39
454.47	6136.57
454.676	6140.66
454.882	6589.17
455.088	6394.61
455.294	6841.07
455.5	7125.74
455.705	7520.99
455.911	7520.99
456.117	7836.38
456.323	8116.95
456.529	7985.88
456.735	9005.77
456.941	8919.76
457.147	9470.66
457.352	9405.13
457.558	9925.31
457.764	10595
457.97	10787.5
458.176	11264.68
458.381	11999.9
458.587	11881.12
458.793	12341.91
458.999	12702.36
459.204	14289.53
459.41	14588.53
459.616	14410.36
459.821	15198.83
460.027	15719.01
460.233	16484.95
460.438	16728.66
460.644	17805.89
460.85	17941.06
461.055	18305.6
461.261	19403.31
461.466	19173.94
461.672	19300.91
461.878	21697.03
462.083	21518.86
462.289	21735.95
462.494	22624.76
462.7	23024.12
462.905	23466.48
463.111	25354.71
463.316	26350.02
463.522	26945.98
463.727	27630
463.932	28903.84
464.138	29516.18
464.343	30753.15
464.549	30886.27
464.754	33106.27
464.959	34015.57
465.165	34650.44
465.37	34554.18
465.575	34369.86
465.781	36825.38
465.986	38148.37
466.191	37318.94
466.397	37695.77
466.602	36694.31
466.807	38961.41
467.012	39526.65
467.218	40339.69
467.423	40024.31
467.628	41367.77
467.833	43329.73
468.038	42598.6
468.244	42006.74
468.449	43686.07
468.654	43014.34
468.859	43200.71
469.064	43161.79
469.269	42254.54
469.474	42543.31
469.679	44060.85
469.885	42891.46
470.09	43159.75
470.295	43507.9
470.5	42268.88
470.705	42617.04
470.91	41545.95
471.115	40943.84
471.32	42129.62
471.525	41642.2
471.73	40671.46
471.935	39987.44
472.139	38578.44
472.344	38760.71
472.549	38742.28
472.754	37591.32
472.959	36708.65
473.164	35916.08
473.369	35225.92
473.574	36131.12
473.778	35535.16
473.983	34756.93
474.188	34650.44
474.393	33028.45
474.598	32958.81
474.802	31791.47
475.007	31207.8
475.212	31271.29
475.417	29923.72
475.621	29751.7
475.826	29440.4
476.031	28647.84
476.235	28012.97
476.44	28141.99
476.645	27423.15
476.849	26966.46
477.054	26868.16
477.259	25977.29
477.463	26145.22
477.668	25307.6
477.872	25569.74
478.077	24449.5
478.282	23880.17
478.486	23724.52
478.691	23497.2
478.895	23321.07
479.1	22999.54
479.304	23073.27
479.509	21991.94
479.713	22577.66
479.918	21889.54
480.122	21492.24
480.326	21740.04
480.531	21768.71
480.735	21189.14
480.94	21078.55
481.144	22129.16
481.348	20748.82
481.553	20738.58
481.757	20064.8
481.961	20109.86
482.166	20230.69
482.37	20042.28
482.574	19685.93
482.778	19431.98
482.983	19907.11
483.187	19372.59
483.391	19266.1
483.595	19026.48
483.8	18707
484.004	18868.79
484.208	18672.18
484.412	18352.7
484.616	18221.63
484.821	17922.63
485.025	17642.06
485.229	17572.43
485.433	17302.09
485.637	17285.71
485.841	16679.51
486.045	16757.33
486.249	16302.68
486.453	16548.44
486.657	16329.31
486.861	15790.69
487.065	15428.2
487.269	15544.94
487.473	14899.83
487.677	15360.62
487.881	15243.88
488.085	14631.54
488.289	14346.87
488.493	13943.42
488.697	14000.77
488.901	13750.92
489.105	13294.22
489.309	13077.13
489.512	12944.02
489.716	12556.95
489.92	12462.74
490.124	12296.86
490.328	12077.73
490.531	11782.82
490.735	11704.99
490.939	11360.94
491.143	11160.24
491.346	10967.73
491.55	10754.74
491.754	10734.26
491.958	10539.7
492.161	10185.4
492.365	10201.79
492.569	9847.49
492.772	9857.73
492.976	9972.41
493.18	9431.75
493.383	9454.28
493.587	9595.59
493.79	9398.98
493.994	9243.34
494.197	9063.12
494.401	9020.11
494.605	8753.87
494.808	8923.85
495.012	8778.45
495.215	8811.21
495.419	8522.45
495.622	8272.6
495.825	8538.84
496.029	8413.91
496.232	8581.84
496.436	8432.34
496.639	8432.34
496.843	8448.72
497.046	8235.74
497.249	8514.26
497.453	8280.79
497.656	8043.23
497.859	7881.44
498.063	8323.8
498.266	8452.82
498.469	8037.08
498.673	8028.89
498.876	8192.73
499.079	8307.41
499.282	8528.6
499.485	8696.53
499.689	8610.51
499.892	8508.12
500.095	8473.3
500.298	8780.5
500.501	8469.2
500.705	8692.43
500.908	8770.26
501.111	8760.02
501.314	9030.35
501.517	9065.16
501.72	9245.38
501.923	9126.6
502.126	9370.31
502.329	9530.05
502.532	9425.61
502.735	9511.62
502.938	9929.41
503.141	9810.62
503.344	9790.14
503.547	9915.07
503.75	10121.91
503.953	10212.03
504.156	10429.11
504.359	10408.63
504.562	10582.71
504.765	10760.88
504.968	11104.94
505.17	11014.83
505.373	11354.79
505.576	11649.7
505.779	11717.28
505.982	11717.28
506.185	12145.31
506.387	12253.85
506.59	12038.81
506.793	12597.91
506.996	12718.74
507.198	13210.25
507.401	13435.53
507.604	13677.19
507.807	13812.35
508.009	13894.27
508.212	14502.52
508.415	14756.47
508.617	14994.03
508.82	15295.08
509.022	15102.57
509.225	15845.99
509.428	16050.78
509.63	16282.2
509.833	16669.27
510.035	17224.27
510.238	17537.61
510.44	17742.41
510.643	18332.22
510.845	18520.63
511.048	18872.89
511.25	19337.77
511.453	19741.22
511.655	20660.76
511.858	21019.16
512.06	21228.05
512.262	21443.09
512.465	22098.44
512.667	22501.89
512.87	23007.73
513.072	23335.41
513.274	24101.35
513.477	25123.29
513.679	25266.64
513.881	25811.4
514.084	26315.2
514.286	26655.17
514.488	27376.05
514.69	28479.91
514.893	28631.46
515.095	29043.1
515.297	29759.89
515.499	30378.37
515.701	31248.76
515.904	31740.27
516.106	32440.68
516.308	33001.82
516.51	33843.54
516.712	34171.21
516.914	35035.45
517.116	35981.62
517.318	36264.24
517.52	37015.84
517.722	37460.25
517.925	37837.08
518.127	39026.95
518.329	39508.22
518.531	40028.4
518.733	40952.04
518.935	42059.99
519.136	41871.57
519.338	43294.91
519.54	43544.76
519.742	44130.48
519.944	44693.68
520.146	45656.22
520.348	45895.83
520.55	46553.23
520.752	46682.25
520.954	48150.65
521.155	47702.14
521.357	49109.1
521.559	49436.77
521.761	49838.17
521.963	50163.8
522.164	50669.65
522.366	50978.89
522.568	51853.37
522.77	51853.37
522.971	52959.28
523.173	52215.86
523.375	53043.24
523.576	53350.44
523.778	53329.96
523.98	54013.98
524.181	54237.21
524.383	54079.52
524.584	54792.21
524.786	54839.31
524.988	54478.87
525.189	54831.12
525.391	55119.88
525.592	55197.71
525.794	55123.98
525.995	55142.41
526.197	55189.52
526.398	55146.51
526.6	55203.85
526.801	54642.71
527.003	54528.02
527.204	54325.27
527.406	54552.6
527.607	54138.91
527.808	54577.17
528.01	53295.14
528.211	53098.54
528.412	53696.55
528.614	53313.58
528.815	52590.64
529.016	52422.71
529.218	51836.99
529.419	51722.3
529.62	50800.72
529.822	50608.21
530.023	50313.3
530.224	49776.73
530.425	49449.06
530.626	48832.62
530.828	48244.85
531.029	48531.57
531.23	47157.38
531.431	46606.48
531.632	46409.87
531.833	45789.34
532.035	45623.45
532.236	44662.96
532.437	44648.62
532.638	43811
532.839	43507.9
533.04	43198.66
533.241	41752.79
533.442	42404.05
533.643	41335.01
533.844	40886.5
534.045	40417.52
534.246	39235.84
534.447	39360.76
534.648	38836.48
534.849	38648.07
535.05	37583.13
535.251	37194.01
535.451	36659.49
535.652	36235.56
535.853	35752.24
536.054	35461.43
536.255	34722.12
536.456	34079.05
536.657	34113.87
536.857	33106.27
537.058	32903.52
537.259	32770.4
537.46	32219.5
537.66	31850.86
537.861	31623.54
538.062	30669.19
538.263	30519.68
538.463	29837.71
538.664	29880.72
538.865	29333.91
539.065	29364.63
539.266	28531.11
539.466	28746.14
539.667	27527.6
539.868	28195.24
540.068	27386.29
540.269	27042.23
540.469	26710.46
540.67	26370.5
540.87	26221
541.071	25539.02
541.271	25485.78
541.472	25119.19
541.672	25133.53
541.873	24343.01
542.073	24254.95
542.274	24527.33
542.474	23806.44
542.675	23706.09
542.875	23529.97
543.075	22761.98
543.276	22315.52
543.476	22602.24
543.676	22315.52
543.877	22417.92
544.077	21713.42
544.277	21748.23
544.478	21162.51
544.678	21199.38
544.878	20824.6
545.078	20488.73
545.279	20138.53
545.479	19972.64
545.679	19890.73
545.879	19563.05
546.079	19468.84
546.28	19223.09
546.48	19051.06
546.68	18917.94
546.88	18778.68
547.08	18367.04
547.28	18158.14
547.48	17771.08
547.68	18004.55
547.88	17611.34
548.081	17566.28
548.281	16616.02
548.481	17037.91
548.681	16656.98
548.881	16538.2
549.081	16380.51
549.28	15907.43
549.48	15749.73
549.68	15731.3
549.88	15370.86
550.08	15276.65
550.28	15049.33
550.48	14817.91
550.68	14690.93
550.88	14600.82
551.08	13990.53
551.279	14064.25
551.479	13605.51
551.679	13822.59
551.879	13615.75
552.079	13271.69
552.278	12890.77
552.478	12862.1
552.678	12671.64
552.878	12561.05
553.077	12194.46
553.277	11776.67
553.477	11911.84
553.676	11629.22
553.876	11590.31
554.076	11459.24
554.275	11197.1
554.475	10701.49
554.674	10871.47
554.874	10664.63
555.074	10377.91
555.273	10281.66
555.473	10277.56
555.672	9990.84
555.872	9927.36
556.071	9702.08
556.271	9837.25
556.47	9454.28
556.67	9245.38
556.869	8880.85
557.068	8925.9
557.268	8731.34
557.467	8714.96
557.667	8639.19
557.866	8254.17
558.065	8198.87
558.265	8094.43
558.464	7928.54
558.663	7946.97
558.863	7611.11
559.062	7695.07
559.261	7334.63
559.461	7557.86
559.66	7283.43
559.859	7146.22
560.058	6791.92
560.258	6812.4
560.457	6879.98
560.656	6912.75
560.855	6472.43
561.054	6679.28
561.253	6406.9
561.453	6302.45
561.652	6359.8
561.851	6175.48
562.05	5995.26
562.249	5786.37
562.448	5915.39
562.647	5686.01
562.846	5542.66
563.045	5700.35
563.244	5475.07
563.443	5245.7
563.642	5423.87
563.841	5448.45
564.04	5151.49
564.239	5159.69
564.438	4862.73
564.637	4842.25
564.836	4866.83
565.035	4641.55
565.234	4721.42
565.432	4582.16
565.631	4690.7
565.83	4494.1
566.029	4490
566.228	4332.31
566.427	4496.14
566.625	4152.09
566.824	4254.48
567.023	4201.24
567.222	4029.21
567.42	4096.79
567.619	4064.02
567.818	3910.43
568.016	3996.44
568.215	3746.59
568.414	3836.7
568.612	3689.25
568.811	3707.68
569.01	3652.38
569.208	3599.13
569.407	3509.02
569.605	3513.12
569.804	3476.26
570.002	3457.82
570.201	3115.81
570.4	3273.51
570.598	3203.88
570.797	3173.16
570.995	3099.43
571.193	3095.33
571.392	3142.44
571.59	2892.59
571.789	2921.26
571.987	2882.35
572.186	3003.18
572.384	2808.62
572.582	2724.65
572.781	2788.14
572.979	2544.43
573.177	2607.92
573.376	2614.06
573.574	2689.84
573.772	2454.32
573.971	2425.65
574.169	2345.78
574.367	2386.74
574.565	2259.76
574.763	2237.24
574.962	2224.95
575.16	2169.65
575.358	2161.46
575.556	2106.17
575.754	2122.55
575.952	2130.74
576.151	2024.25
576.349	2165.56
576.547	1954.62
576.745	2038.58
576.943	2102.07
577.141	1952.57
577.339	1805.11
577.537	1936.18
577.735	1966.9
577.933	1848.12
578.131	1684.28
578.329	1874.74
578.527	1817.4
578.725	1876.79
578.923	1737.53
579.121	1622.84
579.319	1504.06
579.516	1565.5
579.714	1692.48
579.912	1504.06
580.11	1454.91
580.308	1354.56
580.506	1436.48
580.704	1375.04
580.901	1325.89
581.099	1536.83
581.297	1422.14
581.495	1413.95
581.692	1368.9
581.89	1471.29
582.088	1381.18
582.285	1239.87
582.483	1395.52
582.681	1254.21
582.878	1213.25
583.076	1276.74
583.274	1280.83
583.471	1403.71
583.669	1153.86
583.866	1141.57
584.064	1131.33
584.262	1022.79
584.459	1067.85
584.657	1065.8
584.854	1090.37
585.052	985.93
585.249	1121.09
585.447	1133.38
585.644	983.88
585.841	1131.33
586.039	1016.65
586.236	1049.41
586.434	906.06
586.631	867.14
586.828	826.18
587.026	910.15
587.223	822.09
587.42	963.4
587.618	883.53
587.815	957.25
588.012	904.01
588.21	824.14
588.407	967.49
588.604	858.95
588.801	815.94
588.999	799.56
589.196	924.49
589.393	723.79
589.59	867.14
589.787	842.57
589.984	774.99
590.182	820.04
590.379	750.41
590.576	865.1
590.773	766.79
590.97	668.49
591.167	770.89
591.364	881.48
591.561	717.64
591.758	879.43
591.955	787.27
592.152	813.9
592.349	740.17
592.546	703.31
592.743	721.74
592.94	695.11
593.137	760.65
593.334	805.71
593.531	820.04
593.727	742.22
593.924	789.32
594.121	748.36
594.318	643.92
594.515	822.09
594.712	895.82
594.908	844.62
595.105	709.45
595.302	834.38
595.499	797.51
595.696	893.77
595.892	682.83
596.089	842.57
596.286	779.08
596.482	1039.17
596.679	910.15
596.876	840.52
597.072	1014.6
597.269	852.81
597.466	959.3
597.662	1010.5
597.859	949.06
598.055	1033.03
598.252	1162.05
598.448	1141.57
598.645	1200.96
598.841	1219.39
599.038	1350.46
599.234	1338.18
599.431	1297.22
599.627	1467.2
599.824	1413.95
600.02	1514.3
600.217	1399.62
600.413	1624.89
600.609	1694.52
600.806	1956.66
601.002	1844.03
601.198	1729.34
601.395	1880.89
601.591	2038.58
601.787	1927.99
601.984	2143.03
602.18	2255.67
602.376	2235.19
602.572	2431.79
602.769	2566.96
602.965	2501.42
603.161	2781.99
603.357	2831.15
603.553	3044.13
603.75	2880.3
603.946	2984.74
604.142	3203.88
604.338	3406.63
604.534	3312.42
604.73	3253.03
604.926	3537.7
605.122	3824.41
605.318	3627.81
605.514	3908.38
605.71	3885.85
605.906	4219.67
606.102	4180.76
606.298	4418.32
606.494	4522.77
606.69	4598.54
606.886	4793.1
607.082	4811.53
607.278	5016.33
607.474	5188.36
607.67	5374.72
607.866	5352.2
608.062	5733.12
608.257	5925.63
608.453	5829.37
608.649	6066.94
608.845	6097.66
609.041	6220.53
609.236	6511.35
609.432	6828.78
609.628	6966
609.824	7099.11
610.019	7082.73
610.215	7412.45
610.411	7582.43
610.606	7811.81
610.802	7979.74
610.998	8370.9
611.193	8577.75
611.389	8630.99
611.584	9130.7
611.78	8934.09
611.976	9421.51
612.171	9700.03
612.367	9896.64
612.562	10257.08
612.758	10402.49
612.953	10570.42
613.149	11012.78
613.344	11156.14
613.539	11661.99
613.735	11704.99
613.93	12157.6
614.126	12210.84
614.321	12743.31
614.517	13111.95
614.712	13691.52
614.907	13623.94
615.103	14008.96
615.298	14207.61
615.493	14875.25
615.688	14940.79
615.884	15692.39
616.079	15772.26
616.274	16437.85
616.47	16808.53
616.665	16970.32
616.86	17302.09
617.055	17914.44
617.25	18342.46
617.445	19149.36
617.641	19302.96
617.836	19728.94
618.031	20159.01
618.226	20941.33
618.421	21305.87
618.616	21864.97
618.811	21981.7
619.006	22866.42
619.201	22776.31
619.396	23853.55
619.591	23652.84
619.786	24875.48
619.981	25346.51
620.176	25997.77
620.371	25965
620.566	26966.46
620.761	27468.21
620.956	28119.46
621.151	28168.62
621.346	29381.01
621.541	29270.42
621.735	30335.37
621.93	30527.88
622.125	31263.1
622.32	31482.23
622.515	32168.3
622.709	32522.6
622.904	33556.82
623.099	33947.98
623.294	34632
623.488	34965.82
623.683	36124.97
623.878	36223.28
624.072	36942.11
624.267	37708.05
624.462	38263.05
624.656	38166.8
624.851	39465.21
625.046	39207.17
625.24	40282.35
625.435	40657.13
625.629	40868.07
625.824	41322.72
626.018	42352.85
626.213	41754.84
626.407	43200.71
626.602	43751.61
626.796	44214.45
626.991	44394.67
627.185	45189.28
627.38	45082.79
627.574	45396.13
627.768	45760.67
627.963	46057.62
628.157	45881.5
628.352	46547.09
628.546	45736.09
628.74	46782.6
628.935	45801.63
629.129	46792.84
629.323	46043.29
629.517	45471.9
629.712	45234.34
629.906	45093.03
630.1	44636.33
630.294	44705.96
630.489	43595.96
630.683	43800.76
630.877	42680.52
631.071	41959.64
631.265	41808.09
631.459	40589.55
631.653	39700.73
631.848	39377.15
632.042	37820.69
632.236	37228.83
632.43	36079.92
632.624	35664.18
632.818	34316.62
633.012	33106.27
633.206	32469.35
633.4	31263.1
633.594	30171.53
633.788	29395.35
633.982	28774.81
634.176	27490.74
634.369	26329.54
634.563	25389.52
634.757	24304.1
634.951	23677.42
635.145	22567.42
635.339	21477.9
635.533	20949.53
635.726	20281.89
635.92	18946.61
636.114	18620.99
636.308	17711.69
636.501	17033.81
636.695	16472.67
636.889	15712.87
637.083	14850.67
637.276	14604.92
637.47	13943.42
637.664	13044.37
637.857	12892.82
638.051	12309.15
638.244	11653.8
638.438	11272.87
638.632	10926.77
638.825	10357.43
639.019	9839.3
639.212	9581.25
639.406	9151.18
639.599	8694.48
639.793	8467.16
639.986	8063.71
640.18	7854.81
640.373	7469.8
640.567	7117.54
640.76	7027.43
640.954	6824.69
641.147	6163.19
641.34	6050.55
641.534	6032.12
641.727	5784.32
641.92	5626.62
642.114	5231.37
642.307	5108.49
642.5	5077.77
642.694	4606.74
642.887	4516.62
643.08	4389.65
643.273	4252.44
643.467	4023.06
643.66	3828.51
643.853	3717.92
644.046	3617.57
644.239	3523.36
644.432	3248.93
644.626	3185.44
644.819	2951.98
645.012	3058.47
645.205	2945.83
645.398	2878.25
645.591	2724.65
645.784	2650.92
645.977	2421.55
646.17	2356.02
646.363	2351.92
646.556	2100.02
646.749	2097.97
646.942	2114.36
647.135	2085.69
647.328	1688.38
647.521	1856.31
647.714	1741.63
647.907	1663.8
648.099	1602.36
648.292	1667.9
648.485	1522.49
648.678	1510.21
648.871	1325.89
649.064	1282.88
649.256	1272.64
649.449	1153.86
649.642	1145.67
649.835	1217.35
650.027	1094.47
650.22	1139.52
650.413	1016.65
650.605	994.12
650.798	994.12
650.991	871.24
651.183	883.53
651.376	908.1
651.568	938.82
651.761	785.23
651.954	838.47
652.146	754.51
652.339	777.03
652.531	797.51
652.724	723.79
652.916	613.2
653.109	650.06
653.301	760.65
653.494	578.38
653.686	572.24
653.879	650.06
654.071	678.73
654.263	537.42
654.456	527.18
654.648	631.63
654.84	559.95
655.033	463.69
655.225	545.61
655.417	385.87
655.61	598.86
655.802	525.13
655.994	529.23
656.186	396.11
656.379	525.13
656.571	416.59
656.763	392.02
656.955	318.29
657.148	312.14
657.34	529.23
657.532	355.15
657.724	355.15
657.916	404.3
658.108	349.01
658.3	379.73
658.492	392.02
658.684	306
658.876	406.35
659.068	252.75
659.26	209.75
659.452	281.43
659.644	314.19
659.836	443.21
660.028	293.71
660.22	271.19
660.412	316.24
660.604	224.08
660.796	271.19
660.988	308.05
661.18	217.94
661.372	283.47
661.563	199.51
661.755	250.71
661.947	164.69
662.139	127.83
662.331	185.17
662.522	279.38
662.714	181.07
662.906	205.65
663.097	207.7
663.289	148.31
663.481	62.29
663.673	277.33
663.864	166.74
664.056	310.1
664.247	142.16
664.439	217.94
664.631	246.61
664.822	203.6
665.014	105.3
665.205	172.88
665.397	217.94
665.588	131.92
665.78	125.78
665.971	306
666.163	203.6
666.354	217.94
666.546	140.12
666.737	205.65
666.929	203.6
667.12	95.06
667.311	193.36
667.503	54.1
667.694	205.65
667.885	228.18
668.077	193.36
668.268	43.86
668.459	88.92
668.651	162.64
668.842	166.74
669.033	80.72
669.224	23.38
669.416	289.62
669.607	119.64
669.798	95.06
669.989	289.62
670.18	121.68
670.371	215.89
670.563	74.58
670.754	252.75
670.945	179.03
671.136	224.08
671.327	181.07
671.518	187.22
671.709	306
671.9	213.84
672.091	289.62
672.282	144.21
672.473	136.02
672.664	99.16
672.855	109.4
673.046	232.27
673.237	258.9
673.428	136.02
673.619	168.79
673.809	170.83
674	234.32
674.191	170.83
674.382	76.63
674.573	125.78
674.764	158.55
674.954	224.08
675.145	19.29
675.336	90.96
675.527	164.69
675.717	138.07
675.908	133.97
676.099	136.02
676.289	164.69
676.48	82.77
676.671	189.27
676.861	168.79
677.052	174.93
677.243	105.3
677.433	111.44
677.624	228.18
677.814	201.55
678.005	113.49
678.195	185.17
678.386	88.92
678.576	121.68
678.767	115.54
678.957	236.37
679.148	207.7
679.338	308.05
679.529	240.47
679.719	146.26
679.909	265.04
680.1	197.46
680.29	99.16
680.481	95.06
680.671	252.75
680.861	234.32
681.052	246.61
681.242	160.59
681.432	191.31
681.622	133.97
681.813	70.48
682.003	203.6
682.193	172.88
682.383	252.75
682.573	242.51
682.764	148.31
682.954	197.46
683.144	334.67
683.334	152.4
683.524	250.71
683.714	262.99
683.904	236.37
684.094	162.64
684.284	170.83
684.474	256.85
684.664	129.88
684.854	230.23
685.044	195.41
685.234	193.36
685.424	254.8
685.614	172.88
685.804	269.14
685.994	254.8
686.184	244.56
686.374	160.59
686.564	199.51
686.753	136.02
686.943	136.02
687.133	209.75
687.323	183.12
687.513	234.32
687.702	164.69
687.892	265.04
688.082	289.62
688.272	324.43
688.461	176.98
688.651	342.86
688.841	217.94
689.03	228.18
689.22	193.36
689.41	199.51
689.599	172.88
689.789	140.12
689.979	293.71
690.168	176.98
690.358	244.56
690.547	287.57
690.737	258.9
690.926	189.27
691.116	113.49
691.305	279.38
691.495	215.89
691.684	129.88
691.874	189.27
692.063	289.62
692.252	246.61
692.442	181.07
692.631	215.89
692.82	187.22
693.01	244.56
693.199	133.97
693.388	299.86
693.578	183.12
693.767	236.37
693.956	269.14
694.146	146.26
694.335	283.47
694.524	195.41
694.713	273.23
694.902	158.55
695.092	107.35
695.281	207.7
695.47	201.55
695.659	187.22
695.848	203.6
696.037	168.79
696.226	242.51
696.415	123.73
696.604	279.38
696.793	246.61
696.982	217.94
697.171	234.32
697.36	142.16
697.549	203.6
697.738	181.07
697.927	162.64
698.116	189.27
698.305	154.45
698.494	224.08
698.683	160.59
698.872	279.38
699.061	150.36
699.25	238.42
699.438	156.5
699.627	232.27
699.816	303.95
700.005	199.51
700.193	185.17
700.382	289.62
700.571	187.22
700.76	215.89
700.948	224.08
701.137	234.32
701.326	273.23
701.514	152.4
701.703	297.81
701.892	136.02
702.08	428.88
702.269	213.84
702.457	205.65
702.646	215.89
702.834	181.07
703.023	224.08
703.212	301.9
703.4	131.92
703.589	156.5
703.777	138.07
703.965	127.83
704.154	170.83
704.342	146.26
704.531	84.82
704.719	179.03
704.907	217.94
705.096	131.92
705.284	140.12
705.472	156.5
705.661	213.84
705.849	195.41
706.037	295.76
706.226	230.23
706.414	240.47
706.602	152.4
706.79	248.66
706.979	158.55
707.167	168.79
707.355	99.16
707.543	279.38
707.731	189.27
707.919	125.78
708.107	131.92
708.296	115.54
708.484	133.97
708.672	168.79
708.86	170.83
709.048	160.59
709.236	133.97
709.424	238.42
709.612	197.46
709.8	148.31
709.988	146.26
710.176	271.19
710.364	308.05
710.551	267.09
710.739	154.45
710.927	125.78
711.115	170.83
711.303	273.23
711.491	281.43
711.679	148.31
711.866	222.03
712.054	162.64
712.242	181.07
712.43	310.1
712.617	160.59
712.805	215.89
712.993	166.74
713.181	76.63
713.368	265.04
713.556	133.97
713.744	101.2
713.931	334.67
714.119	138.07
714.306	193.36
714.494	217.94
714.682	181.07
714.869	154.45
715.057	162.64
715.244	111.44
715.432	183.12
715.619	219.99
715.807	156.5
715.994	256.85
716.182	162.64
716.369	234.32
716.556	299.86
716.744	95.06
716.931	117.59
717.119	222.03
717.306	252.75
717.493	269.14
717.681	142.16
717.868	111.44
718.055	291.66
718.242	197.46
718.43	183.12
718.617	349.01
718.804	136.02
718.991	219.99
719.179	240.47
719.366	265.04
719.553	238.42
719.74	238.42
719.927	215.89
720.114	197.46
720.301	125.78
720.488	160.59
720.676	146.26
720.863	289.62
721.05	303.95
721.237	197.46
721.424	205.65
721.611	193.36
721.798	129.88
721.985	295.76
722.172	258.9
722.358	203.6
722.545	234.32
722.732	238.42
722.919	234.32
723.106	215.89
723.293	242.51
723.48	164.69
723.667	82.77
723.853	260.95
724.04	246.61
724.227	369.49
724.414	140.12
724.6	213.84
724.787	357.2
724.974	359.25
725.161	187.22
725.347	93.01
725.534	199.51
725.72	181.07
725.907	236.37
726.094	293.71
726.28	170.83
726.467	187.22
726.653	90.96
726.84	336.72
727.027	389.97
727.213	232.27
727.4	279.38
727.586	289.62
727.773	228.18
727.959	265.04
728.145	277.33
728.332	246.61
728.518	187.22
728.705	295.76
728.891	154.45
729.077	262.99
729.264	129.88
729.45	207.7
729.636	230.23
729.823	297.81
730.009	219.99
730.195	242.51
730.382	232.27
730.568	238.42
730.754	342.86
730.94	207.7
731.126	240.47
731.313	344.91
731.499	176.98
731.685	293.71
731.871	213.84
732.057	193.36
732.243	248.66
732.429	316.24
732.615	275.28
732.801	234.32
732.987	191.31
733.173	248.66
733.359	248.66
733.545	248.66
733.731	236.37
733.917	267.09
734.103	224.08
734.289	217.94
734.475	238.42
734.661	369.49
734.847	219.99
735.033	281.43
735.219	324.43
735.404	201.55
735.59	199.51
735.776	273.23
735.962	226.13
736.148	306
736.333	262.99
736.519	195.41
736.705	238.42
736.89	256.85
737.076	238.42
737.262	189.27
737.447	109.4
737.633	123.73
737.819	351.06
738.004	275.28
738.19	217.94
738.375	260.95
738.561	320.34
738.747	344.91
738.932	166.74
739.118	385.87
739.303	217.94
739.489	258.9
739.674	232.27
739.859	156.5
740.045	293.71
740.23	271.19
740.416	88.92
740.601	244.56
740.786	240.47
740.972	228.18
741.157	189.27
741.342	179.03
741.528	140.12
741.713	316.24
741.898	285.52
742.084	240.47
742.269	234.32
742.454	316.24
742.639	273.23
742.824	254.8
743.01	322.38
743.195	375.63
743.38	279.38
743.565	172.88
743.75	209.75
743.935	275.28
744.12	314.19
744.305	80.72
744.49	215.89
744.675	226.13
744.86	246.61
745.045	275.28
745.23	150.36
745.415	306
745.6	334.67
745.785	127.83
745.97	279.38
746.155	219.99
746.34	248.66
746.525	224.08
746.71	346.96
746.895	150.36
747.079	111.44
747.264	187.22
747.449	258.9
747.634	246.61
747.819	187.22
748.003	195.41
748.188	144.21
748.373	279.38
748.557	193.36
748.742	209.75
748.927	228.18
749.111	172.88
749.296	162.64
749.481	271.19
749.665	248.66
749.85	156.5
750.034	211.79
750.219	201.55
750.404	217.94
750.588	144.21
750.773	181.07
750.957	267.09
751.141	252.75
751.326	273.23
751.51	136.02
751.695	78.68
751.879	125.78
752.064	232.27
752.248	99.16
752.432	238.42
752.617	246.61
752.801	258.9
752.985	95.06
753.17	238.42
753.354	240.47
753.538	228.18
753.722	162.64
753.907	148.31
754.091	80.72
754.275	260.95
754.459	74.58
754.643	172.88
754.828	191.31
755.012	226.13
755.196	131.92
755.38	203.6
755.564	41.81
755.748	213.84
755.932	242.51
756.116	193.36
756.3	252.75
756.484	76.63
756.668	236.37
756.852	-5.29
757.036	115.54
757.22	219.99
757.404	142.16
757.588	60.24
757.772	152.4
757.956	152.4
758.14	281.43
758.323	68.44
758.507	125.78
758.691	99.16
758.875	142.16
759.059	181.07
759.242	60.24
759.426	131.92
759.61	66.39
759.794	-17.58
759.977	115.54
760.161	314.19
760.345	166.74
760.528	211.79
760.712	138.07
760.895	170.83
761.079	183.12
761.263	58.2
761.446	142.16
761.63	90.96
761.813	217.94
761.997	68.44
762.18	119.64
762.364	150.36
762.547	27.48
762.731	136.02
762.914	123.73
763.098	45.91
763.281	90.96
763.464	62.29
763.648	199.51
763.831	93.01
764.015	29.52
764.198	129.88
764.381	129.88
764.564	152.4
764.748	152.4
764.931	152.4
765.114	43.86
765.297	176.98
765.481	95.06
765.664	35.67
765.847	107.35
766.03	152.4
766.213	45.91
766.397	164.69
766.58	60.24
766.763	162.64
766.946	-5.29
767.129	54.1
767.312	76.63
767.495	136.02
767.678	60.24
767.861	82.77
768.044	170.83
768.227	66.39
768.41	117.59
768.593	123.73
768.776	105.3
768.959	82.77
769.142	211.79
769.324	25.43
769.507	123.73
769.69	52.05
769.873	25.43
770.056	246.61
770.239	37.72
770.421	105.3
770.604	101.2
770.787	117.59
770.97	76.63
771.152	-33.96
771.335	109.4
771.518	74.58
771.7	211.79
771.883	205.65
772.066	4.95
772.248	127.83
772.431	154.45
772.613	146.26
772.796	58.2
772.978	56.15
773.161	142.16
773.343	37.72
773.526	13.14
773.708	23.38
773.891	-5.29
774.073	31.57
774.256	47.96
774.438	215.89
774.621	93.01
774.803	68.44
774.985	74.58
775.168	103.25
775.35	82.77
775.532	154.45
775.715	88.92
775.897	50
776.079	80.72
776.261	113.49
776.444	64.34
776.626	131.92
776.808	93.01
776.99	-107.69
777.173	58.2
777.355	66.39
777.537	21.33
777.719	111.44
777.901	107.35
778.083	54.1
778.265	7
778.447	45.91
778.629	-27.82
778.811	88.92
778.993	105.3
779.175	113.49
779.357	33.62
779.539	-76.97
779.721	56.15
779.903	35.67
780.085	45.91
780.267	41.81
780.449	35.67
780.631	148.31
780.812	123.73
780.994	84.82
781.176	74.58
781.358	113.49
781.54	88.92
781.721	99.16
781.903	74.58
782.085	47.96
782.267	136.02
782.448	-11.43
782.63	70.48
782.812	25.43
782.993	86.87
783.175	90.96
783.357	-21.67
783.538	133.97
783.72	2.9
783.901	17.24
784.083	117.59
784.264	99.16
784.446	17.24
784.627	-13.48
784.809	64.34
784.99	64.34
785.172	166.74
785.353	4.95
785.535	58.2
785.716	9.05
785.897	52.05
786.079	45.91
786.26	95.06
786.441	56.15
786.623	-13.48
786.804	-29.87
786.985	86.87
787.167	146.26
787.348	66.39
787.529	7
787.71	131.92
787.891	86.87
788.073	41.81
788.254	-87.21
788.435	195.41
788.616	101.2
788.797	33.62
788.978	-25.77
789.159	76.63
789.34	78.68
789.522	88.92
789.703	25.43
789.884	33.62
790.065	25.43
790.246	70.48
790.427	-11.43
790.607	144.21
790.788	189.27
790.969	-38.06
791.15	123.73
791.331	7
791.512	31.57
791.693	0.85
791.874	-11.43
792.054	226.13
792.235	115.54
792.416	13.14
792.597	41.81
792.778	183.12
792.958	76.63
793.139	33.62
793.32	31.57
793.5	-11.43
793.681	54.1
793.862	111.44
794.042	62.29
794.223	-107.69
794.404	-1.19
794.584	-33.96
794.765	76.63
794.945	-46.25
795.126	45.91
795.306	78.68
795.487	58.2
795.667	29.52
795.848	47.96
796.028	21.33
796.209	17.24
796.389	41.81
796.57	148.31
796.75	-36.01
796.93	-15.53
797.111	-101.55
797.291	19.29
797.471	131.92
797.652	-1.19
797.832	-5.29
798.012	58.2
798.192	76.63
798.373	-33.96
798.553	15.19
798.733	76.63
798.913	7
799.093	35.67
799.274	15.19
799.454	64.34
799.634	21.33
799.814	117.59
799.994	103.25
800.174	41.81
800.354	50
800.534	-83.11
800.714	54.1
800.894	-64.68
801.074	-62.63
801.254	-13.48
801.434	66.39
801.614	7
801.794	-52.39
801.974	1835.83
802.154	-38.06
802.334	60.24
802.514	-68.78
802.693	-23.72
802.873	-42.15
803.053	129.88
803.233	115.54
803.413	-48.3
803.592	2.9
803.772	-11.43
803.952	15.19
804.131	-54.44
804.311	-23.72
804.491	72.53
804.67	78.68
804.85	-36.01
805.03	80.72
805.209	64.34
805.389	47.96
805.568	17.24
805.748	11.09
805.928	23.38
806.107	90.96
806.287	33.62
806.466	4.95
806.646	-7.34
806.825	101.2
807.004	54.1
807.184	58.2
807.363	78.68
807.543	43.86
807.722	-74.92
807.901	138.07
808.081	133.97
808.26	-128.17
808.439	17.24
808.619	-66.73
808.798	62.29
808.977	64.34
809.156	217.94
809.336	56.15
809.515	90.96
809.694	33.62
809.873	-62.63
810.052	115.54
810.231	50
810.411	7
810.59	-25.77
810.769	-50.35
810.948	62.29
811.127	-76.97
811.306	-68.78
811.485	-9.39
811.664	136.02
811.843	62.29
812.022	129.88
812.201	19.29
812.38	-15.53
812.559	-21.67
812.737	9.05
812.916	-85.16
813.095	23.38
813.274	39.76
813.453	-17.58
813.632	76.63
813.811	88.92
813.989	-109.74
814.168	19.29
814.347	-79.02
814.526	-33.96
814.704	185.17
814.883	148.31
815.062	13.14
815.24	60.24
815.419	2.9
815.598	50
815.776	-38.06
815.955	84.82
816.133	-101.55
816.312	47.96
816.49	64.34
816.669	62.29
816.847	23.38
817.026	84.82
817.204	62.29
817.383	-25.77
817.561	-36.01
817.74	35.67
817.918	52.05
818.097	72.53
818.275	-11.43
818.453	27.48
818.632	25.43
818.81	15.19
818.988	56.15
819.167	17.24
819.345	35.67
819.523	-81.07
819.701	-15.53
819.879	54.1
820.058	39.76
820.236	-1.19
820.414	-68.78
820.592	2.9
820.77	23.38
820.948	-33.96
821.127	21.33
821.305	7
821.483	-27.82
821.661	31.57
821.839	25.43
822.017	-19.63
822.195	21.33
822.373	162.64
822.551	78.68
822.729	2.9
822.907	115.54
823.085	68.44
823.262	31.57
823.44	-70.83
823.618	21.33
823.796	43.86
823.974	-3.24
824.152	41.81
824.329	-40.11
824.507	82.77
824.685	88.92
824.863	-5.29
825.04	-29.87
825.218	82.77
825.396	11.09
825.574	117.59
825.751	-5.29
825.929	152.4
826.107	-89.26
826.284	11.09
826.462	-11.43
826.639	-48.3
826.817	-89.26
826.994	-38.06
827.172	-21.67
827.349	80.72
827.527	25.43
827.704	-29.87
827.882	154.45
828.059	84.82
828.237	19.29
828.414	113.49
828.591	-146.6
828.769	50
828.946	-103.59
829.124	17.24
829.301	152.4
829.478	-23.72
829.655	50
829.833	-3.24
830.01	-91.31
830.187	45.91
830.364	-21.67
830.542	45.91
830.719	111.44
830.896	21.33
831.073	-21.67
831.25	101.2
831.427	45.91
831.604	56.15
831.782	-21.67
831.959	60.24
832.136	-15.53
832.313	74.58
832.49	-29.87
832.667	72.53
832.844	17.24
833.021	84.82
833.198	58.2
833.374	17.24
833.551	47.96
833.728	-3.24
833.905	76.63
834.082	-83.11
834.259	-23.72
834.436	84.82
834.612	-85.16
834.789	23.38
834.966	50
835.143	-11.43
835.319	25.43
835.496	-33.96
835.673	27.48
835.85	58.2
836.026	52.05
836.203	103.25
836.38	-44.2
836.556	66.39
836.733	-15.53
836.909	201.55
837.086	-46.25
837.262	-126.12
837.439	-70.83
837.616	-5.29
837.792	62.29
837.968	60.24
838.145	-128.17
838.321	17.24
838.498	-9.39
838.674	72.53
838.851	86.87
839.027	9.05
839.203	56.15
839.38	21.33
839.556	-97.45
839.732	109.4
839.909	4.95
840.085	105.3
840.261	-105.64
840.437	21.33
840.614	-60.59
840.79	105.3
840.966	56.15
841.142	-1.19
841.318	33.62
841.494	62.29
841.671	82.77
841.847	-66.73
842.023	-54.44
842.199	-17.58
842.375	176.98
842.551	-146.6
842.727	-50.35
842.903	113.49
843.079	-113.83
843.255	226.13
843.431	-13.48
843.607	86.87
843.783	-169.13
843.959	131.92
844.134	-107.69
844.31	160.59
844.486	-44.2
844.662	-79.02
844.838	-1.19
845.013	-11.43
845.189	35.67
845.365	19.29
845.541	78.68
845.716	43.86
845.892	99.16
846.068	-36.01
846.244	37.72
846.419	78.68
846.595	-144.55
846.77	-54.44
846.946	93.01
847.122	-95.4
847.297	-70.83
847.473	164.69
847.648	-9.39
847.824	15.19
847.999	-126.12
848.175	-25.77
848.35	-46.25
848.526	39.76
848.701	113.49
848.876	21.33
849.052	37.72
849.227	78.68
849.403	7
849.578	7
849.753	-7.34
849.929	62.29
850.104	-103.59
850.279	72.53
850.454	80.72
850.63	90.96
850.805	86.87
850.98	-17.58
851.155	-33.96
851.33	-29.87
851.505	-87.21
851.681	148.31
851.856	39.76
852.031	54.1
852.206	9.05
852.381	-62.63
852.556	37.72
852.731	131.92
852.906	25.43
853.081	45.91
853.256	66.39
853.431	-46.25
853.606	19.29
853.781	-1.19
853.956	-107.69
854.131	82.77
854.305	-15.53
854.48	62.29
854.655	-81.07
854.83	11.09
855.005	9.05
855.18	27.48
855.354	-40.11
855.529	76.63
855.704	-85.16
855.879	31.57
856.053	4.95
856.228	41.81
856.403	-44.2
856.577	-36.01
856.752	-117.93
856.926	13.14
857.101	121.68
857.276	-46.25
857.45	2.9
857.625	-1.19
857.799	70.48
857.974	47.96
858.148	-17.58
858.323	-95.4
858.497	4.95
858.672	-9.39
858.846	-11.43
859.02	80.72
859.195	-113.83
859.369	66.39
859.543	-17.58
859.718	80.72
859.892	39.76
860.066	21.33
860.241	-74.92
860.415	-17.58
860.589	-25.77
860.763	-17.58
860.938	45.91
861.112	99.16
861.286	-52.39
861.46	-9.39
861.634	17.24
861.808	33.62
861.982	-46.25
862.157	-44.2
862.331	86.87
862.505	-93.35
862.679	-50.35
862.853	4.95
863.027	4.95
863.201	97.11
863.375	-72.87
863.549	45.91
863.722	74.58
863.896	95.06
864.07	15.19
864.244	-62.63
864.418	13.14
864.592	37.72
864.766	-21.67
864.939	33.62
865.113	0.85
865.287	103.25
865.461	-74.92
865.634	33.62
865.808	-58.54
865.982	-44.2
866.156	-101.55
866.329	-58.54
866.503	33.62
866.676	56.15
866.85	7
867.024	-33.96
867.197	21.33
867.371	58.2
867.544	-27.82
867.718	-48.3
867.891	158.55
868.065	-99.5
868.238	78.68
868.412	129.88
868.585	33.62
868.759	-7.34
868.932	-15.53
869.105	-76.97
869.279	41.81
869.452	-50.35
869.625	17.24
869.799	41.81
869.972	-124.07
870.145	-58.54
870.319	52.05
870.492	-17.58
870.665	-19.63
870.838	-40.11
871.011	-189.61
871.185	-3.24
871.358	11.09
871.531	76.63
871.704	-85.16
871.877	-25.77
872.05	35.67
872.223	-79.02
872.396	99.16
872.569	117.59
872.742	-74.92
872.915	58.2
873.088	-31.91
873.261	-33.96
873.434	113.49
873.607	17.24
873.78	78.68
873.953	-68.78
874.126	56.15
874.299	68.44
874.471	66.39
874.644	-66.73
874.817	13.14
874.99	142.16
875.163	-44.2
875.335	-7.34
875.508	19.29
875.681	62.29
875.853	-19.63
876.026	19.29
876.199	66.39
876.371	19.29
876.544	-74.92
876.717	2.9
876.889	-70.83
877.062	101.2
877.234	-99.5
877.407	-42.15
877.579	27.48
877.752	-9.39
877.924	131.92
878.097	58.2
878.269	9.05
878.442	121.68
878.614	4.95
878.786	41.81
878.959	-27.82
879.131	84.82
879.303	-74.92
879.476	-31.91
879.648	50
879.82	-13.48
879.993	-89.26
880.165	-115.88
880.337	-79.02
880.509	13.14
880.681	-52.39
880.854	-21.67
881.026	54.1
881.198	166.74
881.37	-15.53
881.542	-17.58
881.714	13.14
881.886	-7.34
882.058	45.91
882.23	-38.06
882.402	37.72
882.574	-38.06
882.746	93.01
882.918	123.73
883.09	11.09
883.262	11.09
883.434	0.85
883.606	-36.01
883.778	15.19
883.95	168.79
884.122	-11.43
884.293	99.16
884.465	7
884.637	113.49
884.809	35.67
884.98	19.29
885.152	33.62
885.324	88.92
885.496	-101.55
885.667	-11.43
885.839	0.85
886.011	72.53
886.182	21.33
886.354	95.06
886.525	84.82
886.697	-11.43
886.869	-17.58
887.04	-52.39
887.212	97.11
887.383	156.5
887.555	-58.54
887.726	-38.06
887.897	4.95
888.069	9.05
888.24	95.06
888.412	37.72
888.583	19.29
888.754	17.24
888.926	-52.39
889.097	-27.82
889.268	-54.44
889.44	45.91
889.611	-99.5
889.782	-1.19
889.953	-1.19
890.125	113.49
890.296	-36.01
890.467	-15.53
890.638	-7.34
890.809	-46.25
890.98	-62.63
891.151	-17.58
891.323	41.81
891.494	15.19
891.665	58.2
891.836	47.96
892.007	33.62
892.178	45.91
892.349	2.9
892.52	-44.2
892.691	21.33
892.862	-25.77
893.032	-83.11
893.203	-13.48
893.374	60.24
893.545	136.02
893.716	-38.06
893.887	9.05
894.057	23.38
894.228	0.85
894.399	-1.19
894.57	101.2
894.74	31.57
894.911	23.38
895.082	-1.19
895.253	-119.98
895.423	127.83
895.594	107.35
895.764	76.63
895.935	-105.64
896.106	78.68
896.276	-85.16
896.447	4.95
896.617	-36.01
896.788	-105.64
896.958	-9.39
897.129	-9.39
897.299	-40.11
897.47	129.88
897.64	66.39
897.81	-48.3
897.981	41.81
898.151	-72.87
898.322	17.24
898.492	-29.87
898.662	-107.69
898.832	-33.96
899.003	-105.64
899.173	19.29
899.343	-9.39
899.513	-87.21
