Data from USB4F104151__232__11-06-23-625.txt Node

Date: Wed Feb 26 11:06:23 EST 2025
User: louis
Spectrometer: USB4F10415
Trigger mode: 4
Integration Time (sec): 1.000000E-1
Scans to average: 1
Electric dark correction enabled: true
Nonlinearity correction enabled: false
Boxcar width: 0
XAxis mode: Wavelengths
Number of Pixels in Spectrum: 3648
>>>>>Begin Spectral Data<<<<<
178.204	-380.24
178.424	-380.24
178.644	-380.24
178.864	-398.67
179.084	-415.05
179.304	-5.46
179.524	-34.13
179.744	4.78
179.964	-11.61
180.184	53.93
180.404	84.65
180.624	-34.13
180.844	23.21
181.064	-34.13
181.283	-17.75
181.503	-77.14
181.723	47.79
181.943	-173.39
182.163	156.33
182.383	-27.99
182.602	17.07
182.822	92.84
183.042	53.93
183.262	-71
183.482	-56.66
183.701	21.16
183.921	90.79
184.141	-109.91
184.361	10.92
184.58	25.26
184.8	19.11
185.02	-11.61
185.239	37.55
185.459	131.75
185.679	90.79
185.898	-99.67
186.118	82.6
186.338	4.78
186.557	154.28
186.777	-68.95
186.997	-27.99
187.216	6.83
187.436	133.8
187.655	-27.99
187.875	105.13
188.095	49.83
188.314	25.26
188.534	115.37
188.753	-21.84
188.973	109.23
189.192	94.89
189.412	43.69
189.631	53.93
189.851	33.45
190.07	76.46
190.29	-114
190.509	0.68
190.729	78.51
190.948	45.74
191.168	201.38
191.387	92.84
191.607	41.64
191.826	68.27
192.045	94.89
192.265	-27.99
192.484	125.61
192.704	10.92
192.923	-25.94
193.142	185
193.362	66.22
193.581	150.18
193.8	37.55
194.02	131.75
194.239	-32.08
194.458	55.98
194.678	-11.61
194.897	33.45
195.116	39.59
195.335	-30.04
195.555	45.74
195.774	-19.8
195.993	170.66
196.212	17.07
196.432	-32.08
196.651	39.59
196.87	0.68
197.089	213.67
197.308	19.11
197.528	25.26
197.747	-7.51
197.966	111.27
198.185	88.75
198.404	-9.56
198.623	125.61
198.842	94.89
199.062	31.4
199.281	101.03
199.5	15.02
199.719	35.5
199.938	4.78
200.157	-38.23
200.376	101.03
200.595	82.6
200.814	76.46
201.033	-42.32
201.252	178.86
201.471	23.21
201.69	125.61
201.909	-7.51
202.128	-25.94
202.347	119.46
202.566	6.83
202.785	-38.23
203.004	-46.42
203.223	271.01
203.442	19.11
203.661	-116.05
203.879	139.94
204.098	98.99
204.317	-46.42
204.536	27.31
204.755	123.56
204.974	109.23
205.193	10.92
205.411	131.75
205.63	139.94
205.849	23.21
206.068	-66.9
206.287	-46.42
206.505	154.28
206.724	-77.14
206.943	39.59
207.162	45.74
207.381	-19.8
207.599	6.83
207.818	39.59
208.037	-15.7
208.255	23.21
208.474	45.74
208.693	39.59
208.911	60.07
209.13	144.04
209.349	82.6
209.567	31.4
209.786	168.62
210.005	78.51
210.223	107.18
210.442	-89.43
210.661	-13.65
210.879	60.07
211.098	49.83
211.316	-71
211.535	55.98
211.753	37.55
211.972	51.88
212.191	-79.19
212.409	35.5
212.628	66.22
212.846	-32.08
213.065	80.55
213.283	98.99
213.502	23.21
213.72	107.18
213.938	47.79
214.157	-1.37
214.375	113.32
214.594	-17.75
214.812	4.78
215.031	0.68
215.249	-19.8
215.467	82.6
215.686	-46.42
215.904	29.35
216.122	92.84
216.341	125.61
216.559	-25.94
216.778	162.47
216.996	96.94
217.214	31.4
217.432	37.55
217.651	-48.47
217.869	78.51
218.087	-60.76
218.306	-42.32
218.524	10.92
218.742	49.83
218.96	96.94
219.179	31.4
219.397	-64.85
219.615	225.96
219.833	105.13
220.051	-75.09
220.27	68.27
220.488	80.55
220.706	29.35
220.924	2.73
221.142	-9.56
221.36	49.83
221.578	4.78
221.796	45.74
222.015	-32.08
222.233	64.17
222.451	111.27
222.669	-32.08
222.887	103.08
223.105	62.12
223.323	27.31
223.541	-42.32
223.759	78.51
223.977	78.51
224.195	135.85
224.413	86.7
224.631	78.51
224.849	41.64
225.067	225.96
225.285	-44.37
225.503	17.07
225.721	-114
225.939	-19.8
226.157	4.78
226.375	217.77
226.592	10.92
226.81	4.78
227.028	107.18
227.246	62.12
227.464	47.79
227.682	-3.41
227.9	86.7
228.117	80.55
228.335	60.07
228.553	55.98
228.771	10.92
228.989	45.74
229.206	-30.04
229.424	-17.75
229.642	6.83
229.86	-46.42
230.077	86.7
230.295	-15.7
230.513	94.89
230.731	15.02
230.948	162.47
231.166	88.75
231.384	105.13
231.601	-79.19
231.819	197.29
232.037	-25.94
232.254	-27.99
232.472	12.97
232.689	43.69
232.907	168.62
233.125	12.97
233.342	-62.8
233.56	4.78
233.777	-5.46
233.995	86.7
234.213	117.42
234.43	55.98
234.648	-27.99
234.865	-68.95
235.083	92.84
235.3	15.02
235.518	86.7
235.735	141.99
235.953	23.21
236.17	80.55
236.388	27.31
236.605	74.41
236.822	92.84
237.04	80.55
237.257	55.98
237.475	-52.56
237.692	-64.85
237.909	45.74
238.127	4.78
238.344	19.11
238.562	37.55
238.779	-79.19
238.996	-62.8
239.214	0.68
239.431	139.94
239.648	84.65
239.865	117.42
240.083	94.89
240.3	4.78
240.517	21.16
240.735	41.64
240.952	139.94
241.169	19.11
241.386	92.84
241.603	105.13
241.821	-30.04
242.038	74.41
242.255	137.9
242.472	49.83
242.689	53.93
242.907	98.99
243.124	-1.37
243.341	72.36
243.558	-66.9
243.775	-60.76
243.992	-38.23
244.209	62.12
244.426	228.01
244.643	82.6
244.86	-27.99
245.078	96.94
245.295	25.26
245.512	166.57
245.729	10.92
245.946	88.75
246.163	135.85
246.38	-75.09
246.597	47.79
246.814	15.02
247.031	53.93
247.248	-3.41
247.464	78.51
247.681	17.07
247.898	105.13
248.115	105.13
248.332	-36.18
248.549	133.8
248.766	170.66
248.983	98.99
249.2	43.69
249.417	174.76
249.633	-7.51
249.85	41.64
250.067	2.73
250.284	19.11
250.501	88.75
250.717	58.03
250.934	-66.9
251.151	8.87
251.368	15.02
251.585	27.31
251.801	88.75
252.018	-64.85
252.235	127.66
252.451	-107.86
252.668	-42.32
252.885	111.27
253.102	62.12
253.318	23.21
253.535	29.35
253.752	45.74
253.968	-19.8
254.185	-71
254.401	109.23
254.618	33.45
254.835	-15.7
255.051	168.62
255.268	101.03
255.484	-44.37
255.701	-52.56
255.917	43.69
256.134	-32.08
256.351	6.83
256.567	-48.47
256.784	76.46
257	-77.14
257.217	86.7
257.433	141.99
257.65	6.83
257.866	117.42
258.082	-64.85
258.299	-27.99
258.515	23.21
258.732	37.55
258.948	21.16
259.165	27.31
259.381	-1.37
259.597	27.31
259.814	41.64
260.03	82.6
260.246	15.02
260.463	125.61
260.679	92.84
260.895	39.59
261.112	96.94
261.328	-36.18
261.544	0.68
261.761	131.75
261.977	-23.89
262.193	-105.81
262.409	92.84
262.626	33.45
262.842	-52.56
263.058	53.93
263.274	55.98
263.49	84.65
263.707	109.23
263.923	88.75
264.139	-71
264.355	15.02
264.571	156.33
264.787	109.23
265.004	172.71
265.22	-13.65
265.436	-56.66
265.652	-9.56
265.868	31.4
266.084	-40.28
266.3	37.55
266.516	-66.9
266.732	-11.61
266.948	49.83
267.164	-34.13
267.38	135.85
267.596	103.08
267.812	131.75
268.028	58.03
268.244	-66.9
268.46	43.69
268.676	10.92
268.892	17.07
269.108	-52.56
269.324	0.68
269.54	-83.28
269.756	66.22
269.972	-54.61
270.188	-44.37
270.403	-71
270.619	29.35
270.835	55.98
271.051	53.93
271.267	-17.75
271.483	-77.14
271.698	160.42
271.914	78.51
272.13	43.69
272.346	-25.94
272.562	27.31
272.777	180.9
272.993	-7.51
273.209	25.26
273.425	29.35
273.64	-25.94
273.856	117.42
274.072	-5.46
274.287	-52.56
274.503	121.51
274.719	109.23
274.934	-1.37
275.15	-54.61
275.366	-40.28
275.581	-91.48
275.797	72.36
276.012	-13.65
276.228	-46.42
276.444	-15.7
276.659	123.56
276.875	-34.13
277.09	23.21
277.306	-25.94
277.521	94.89
277.737	-13.65
277.952	45.74
278.168	27.31
278.383	19.11
278.599	12.97
278.814	96.94
279.03	27.31
279.245	123.56
279.461	107.18
279.676	76.46
279.892	-15.7
280.107	-38.23
280.322	-60.76
280.538	31.4
280.753	-44.37
280.969	29.35
281.184	17.07
281.399	144.04
281.615	47.79
281.83	70.31
282.045	-30.04
282.26	-38.23
282.476	15.02
282.691	68.27
282.906	-11.61
283.122	66.22
283.337	25.26
283.552	31.4
283.767	-38.23
283.983	101.03
284.198	-17.75
284.413	98.99
284.628	-17.75
284.843	58.03
285.058	43.69
285.274	-32.08
285.489	21.16
285.704	51.88
285.919	-23.89
286.134	25.26
286.349	-36.18
286.564	-13.65
286.779	51.88
286.995	-40.28
287.21	-13.65
287.425	33.45
287.64	-25.94
287.855	111.27
288.07	-107.86
288.285	68.27
288.5	35.5
288.715	90.79
288.93	43.69
289.145	12.97
289.36	53.93
289.575	45.74
289.79	139.94
290.004	-34.13
290.219	33.45
290.434	-17.75
290.649	-34.13
290.864	12.97
291.079	47.79
291.294	4.78
291.509	39.59
291.724	-15.7
291.938	55.98
292.153	-1.37
292.368	12.97
292.583	-27.99
292.798	51.88
293.012	70.31
293.227	53.93
293.442	4.78
293.657	64.17
293.871	39.59
294.086	43.69
294.301	162.47
294.516	195.24
294.73	49.83
294.945	-68.95
295.16	45.74
295.374	121.51
295.589	152.23
295.804	-40.28
296.018	47.79
296.233	103.08
296.447	68.27
296.662	-81.24
296.877	109.23
297.091	15.02
297.306	45.74
297.52	19.11
297.735	-40.28
297.949	64.17
298.164	60.07
298.378	37.55
298.593	-3.41
298.807	-66.9
299.022	45.74
299.236	135.85
299.451	-56.66
299.665	-48.47
299.88	6.83
300.094	4.78
300.309	10.92
300.523	25.26
300.737	66.22
300.952	33.45
301.166	-3.41
301.381	-64.85
301.595	-64.85
301.809	76.46
302.024	2.73
302.238	33.45
302.452	86.7
302.667	29.35
302.881	146.09
303.095	125.61
303.309	49.83
303.524	4.78
303.738	47.79
303.952	-71
304.166	84.65
304.381	-83.28
304.595	180.9
304.809	58.03
305.023	12.97
305.237	-54.61
305.452	8.87
305.666	60.07
305.88	113.32
306.094	58.03
306.308	-5.46
306.522	76.46
306.736	64.17
306.95	-15.7
307.164	-5.46
307.379	84.65
307.593	133.8
307.807	84.65
308.021	131.75
308.235	66.22
308.449	-73.04
308.663	-11.61
308.877	217.77
309.091	74.41
309.305	-58.71
309.519	-159.06
309.733	205.48
309.947	-107.86
310.161	88.75
310.374	62.12
310.588	86.7
310.802	-21.84
311.016	12.97
311.23	62.12
311.444	-25.94
311.658	0.68
311.872	115.37
312.085	68.27
312.299	135.85
312.513	152.23
312.727	62.12
312.941	-7.51
313.154	-9.56
313.368	82.6
313.582	90.79
313.796	62.12
314.009	39.59
314.223	129.7
314.437	23.21
314.651	35.5
314.864	33.45
315.078	4.78
315.292	-75.09
315.505	-42.32
315.719	8.87
315.933	58.03
316.146	6.83
316.36	-32.08
316.573	139.94
316.787	125.61
317.001	17.07
317.214	-19.8
317.428	105.13
317.641	-148.82
317.855	-62.8
318.068	109.23
318.282	51.88
318.495	162.47
318.709	88.75
318.922	86.7
319.136	137.9
319.349	117.42
319.563	6.83
319.776	21.16
319.99	-97.62
320.203	109.23
320.417	21.16
320.63	74.41
320.843	78.51
321.057	103.08
321.27	60.07
321.483	131.75
321.697	144.04
321.91	21.16
322.124	137.9
322.337	49.83
322.55	-5.46
322.763	-19.8
322.977	-30.04
323.19	55.98
323.403	-11.61
323.617	31.4
323.83	121.51
324.043	6.83
324.256	37.55
324.469	-68.95
324.683	53.93
324.896	49.83
325.109	-5.46
325.322	-81.24
325.535	27.31
325.748	127.66
325.962	6.83
326.175	45.74
326.388	88.75
326.601	78.51
326.814	17.07
327.027	55.98
327.24	180.9
327.453	-73.04
327.666	105.13
327.879	51.88
328.092	107.18
328.305	47.79
328.518	31.4
328.731	-13.65
328.944	-30.04
329.157	49.83
329.37	-34.13
329.583	189.1
329.796	119.46
330.009	-46.42
330.222	158.38
330.435	72.36
330.648	17.07
330.861	12.97
331.073	51.88
331.286	58.03
331.499	29.35
331.712	-64.85
331.925	-3.41
332.138	58.03
332.35	82.6
332.563	-5.46
332.776	55.98
332.989	-50.52
333.202	-7.51
333.414	29.35
333.627	25.26
333.84	-13.65
334.053	113.32
334.265	-77.14
334.478	-11.61
334.691	41.64
334.903	64.17
335.116	17.07
335.329	68.27
335.541	101.03
335.754	197.29
335.966	17.07
336.179	15.02
336.392	-48.47
336.604	19.11
336.817	-3.41
337.029	25.26
337.242	19.11
337.454	82.6
337.667	-3.41
337.88	141.99
338.092	62.12
338.305	55.98
338.517	-25.94
338.729	58.03
338.942	58.03
339.154	12.97
339.367	-36.18
339.579	92.84
339.792	-48.47
340.004	23.21
340.217	-3.41
340.429	10.92
340.641	-42.32
340.854	-42.32
341.066	12.97
341.278	98.99
341.491	150.18
341.703	60.07
341.915	17.07
342.128	101.03
342.34	0.68
342.552	-7.51
342.764	15.02
342.977	25.26
343.189	19.11
343.401	-1.37
343.613	-66.9
343.826	-5.46
344.038	-32.08
344.25	15.02
344.462	2.73
344.674	-11.61
344.886	37.55
345.099	-1.37
345.311	117.42
345.523	-50.52
345.735	-111.96
345.947	37.55
346.159	101.03
346.371	-5.46
346.583	-15.7
346.795	148.14
347.007	-56.66
347.219	27.31
347.431	33.45
347.643	148.14
347.855	-13.65
348.067	166.57
348.279	-32.08
348.491	27.31
348.703	70.31
348.915	43.69
349.127	-13.65
349.339	84.65
349.551	-13.65
349.763	98.99
349.975	-9.56
350.187	137.9
350.399	195.24
350.61	84.65
350.822	43.69
351.034	31.4
351.246	60.07
351.458	37.55
351.669	70.31
351.881	72.36
352.093	131.75
352.305	80.55
352.517	17.07
352.728	98.99
352.94	47.79
353.152	10.92
353.363	-71
353.575	21.16
353.787	60.07
353.999	115.37
354.21	172.71
354.422	-7.51
354.633	-21.84
354.845	55.98
355.057	92.84
355.268	80.55
355.48	72.36
355.692	-25.94
355.903	37.55
356.115	10.92
356.326	-109.91
356.538	127.66
356.749	41.64
356.961	129.7
357.172	17.07
357.384	-19.8
357.595	240.3
357.807	43.69
358.018	-71
358.23	49.83
358.441	86.7
358.653	68.27
358.864	47.79
359.075	-27.99
359.287	39.59
359.498	98.99
359.709	84.65
359.921	47.79
360.132	74.41
360.344	2.73
360.555	-15.7
360.766	78.51
360.977	78.51
361.189	127.66
361.4	70.31
361.611	86.7
361.823	141.99
362.034	41.64
362.245	-111.96
362.456	86.7
362.667	109.23
362.879	31.4
363.09	62.12
363.301	33.45
363.512	49.83
363.723	12.97
363.935	-3.41
364.146	182.95
364.357	-23.89
364.568	-5.46
364.779	-48.47
364.99	129.7
365.201	27.31
365.412	64.17
365.623	-64.85
365.834	33.45
366.045	70.31
366.256	10.92
366.467	101.03
366.678	6.83
366.889	-1.37
367.1	-27.99
367.311	92.84
367.522	80.55
367.733	146.09
367.944	47.79
368.155	49.83
368.366	29.35
368.577	148.14
368.788	33.45
368.999	-25.94
369.209	90.79
369.42	172.71
369.631	264.87
369.842	170.66
370.053	-17.75
370.264	160.42
370.474	-19.8
370.685	76.46
370.896	41.64
371.107	125.61
371.317	82.6
371.528	-5.46
371.739	150.18
371.95	41.64
372.16	94.89
372.371	17.07
372.582	80.55
372.792	82.6
373.003	191.14
373.214	68.27
373.424	60.07
373.635	2.73
373.846	41.64
374.056	37.55
374.267	60.07
374.477	17.07
374.688	0.68
374.898	62.12
375.109	86.7
375.319	107.18
375.53	92.84
375.74	111.27
375.951	90.79
376.161	31.4
376.372	98.99
376.582	-19.8
376.793	103.08
377.003	-48.47
377.214	17.07
377.424	80.55
377.635	127.66
377.845	19.11
378.055	246.44
378.266	2.73
378.476	66.22
378.686	49.83
378.897	31.4
379.107	88.75
379.317	62.12
379.528	-21.84
379.738	17.07
379.948	12.97
380.158	86.7
380.369	8.87
380.579	101.03
380.789	2.73
380.999	33.45
381.21	88.75
381.42	230.06
381.63	-1.37
381.84	70.31
382.05	72.36
382.261	137.9
382.471	84.65
382.681	4.78
382.891	74.41
383.101	92.84
383.311	-32.08
383.521	25.26
383.731	96.94
383.941	74.41
384.151	107.18
384.361	-15.7
384.571	144.04
384.781	49.83
384.991	168.62
385.201	164.52
385.411	66.22
385.621	43.69
385.831	53.93
386.041	19.11
386.251	-15.7
386.461	80.55
386.671	-30.04
386.881	84.65
387.091	74.41
387.301	168.62
387.511	21.16
387.72	80.55
387.93	72.36
388.14	-50.52
388.35	45.74
388.56	113.32
388.769	117.42
388.979	58.03
389.189	-7.51
389.399	-7.51
389.609	88.75
389.818	27.31
390.028	25.26
390.238	53.93
390.447	4.78
390.657	72.36
390.867	-23.89
391.076	-105.81
391.286	21.16
391.496	-13.65
391.705	4.78
391.915	160.42
392.125	86.7
392.334	2.73
392.544	72.36
392.753	12.97
392.963	101.03
393.172	19.11
393.382	-23.89
393.591	144.04
393.801	37.55
394.01	162.47
394.22	144.04
394.429	35.5
394.639	41.64
394.848	70.31
395.058	39.59
395.267	2.73
395.477	129.7
395.686	58.03
395.895	123.56
396.105	156.33
396.314	109.23
396.524	-5.46
396.733	-40.28
396.942	141.99
397.152	60.07
397.361	55.98
397.57	74.41
397.78	86.7
397.989	90.79
398.198	246.44
398.407	21.16
398.617	107.18
398.826	55.98
399.035	17.07
399.244	195.24
399.453	15.02
399.663	60.07
399.872	58.03
400.081	-66.9
400.29	152.23
400.499	-56.66
400.708	72.36
400.917	2.73
401.127	0.68
401.336	-13.65
401.545	170.66
401.754	72.36
401.963	88.75
402.172	-50.52
402.381	-27.99
402.59	-46.42
402.799	29.35
403.008	127.66
403.217	43.69
403.426	-17.75
403.635	-77.14
403.844	58.03
404.053	64.17
404.262	4.78
404.471	203.43
404.68	-11.61
404.888	-15.7
405.097	86.7
405.306	90.79
405.515	64.17
405.724	-11.61
405.933	86.7
406.142	94.89
406.35	105.13
406.559	47.79
406.768	31.4
406.977	111.27
407.185	12.97
407.394	66.22
407.603	-60.76
407.812	96.94
408.02	185
408.229	15.02
408.438	74.41
408.646	-81.24
408.855	41.64
409.064	-3.41
409.272	12.97
409.481	33.45
409.69	-46.42
409.898	8.87
410.107	66.22
410.315	78.51
410.524	-60.76
410.733	-15.7
410.941	53.93
411.15	170.66
411.358	84.65
411.567	150.18
411.775	98.99
411.984	-3.41
412.192	94.89
412.401	31.4
412.609	146.09
412.818	146.09
413.026	94.89
413.234	109.23
413.443	49.83
413.651	-11.61
413.86	-66.9
414.068	78.51
414.276	150.18
414.485	-1.37
414.693	90.79
414.901	240.3
415.11	113.32
415.318	-13.65
415.526	-13.65
415.734	111.27
415.943	109.23
416.151	113.32
416.359	15.02
416.567	58.03
416.776	90.79
416.984	82.6
417.192	164.52
417.4	21.16
417.608	31.4
417.817	-66.9
418.025	96.94
418.233	150.18
418.441	8.87
418.649	-9.56
418.857	19.11
419.065	162.47
419.273	-38.23
419.481	-3.41
419.689	70.31
419.897	-21.84
420.105	-38.23
420.313	187.05
420.521	115.37
420.729	111.27
420.937	12.97
421.145	-15.7
421.353	139.94
421.561	160.42
421.769	94.89
421.977	23.21
422.185	141.99
422.393	113.32
422.601	127.66
422.809	17.07
423.017	80.55
423.224	55.98
423.432	154.28
423.64	31.4
423.848	137.9
424.056	31.4
424.263	82.6
424.471	125.61
424.679	141.99
424.887	68.27
425.094	125.61
425.302	76.46
425.51	49.83
425.718	94.89
425.925	123.56
426.133	17.07
426.341	225.96
426.548	62.12
426.756	43.69
426.964	117.42
427.171	33.45
427.379	25.26
427.586	148.14
427.794	127.66
428.001	178.86
428.209	125.61
428.417	115.37
428.624	115.37
428.832	121.51
429.039	15.02
429.247	141.99
429.454	98.99
429.662	305.83
429.869	123.56
430.076	164.52
430.284	240.3
430.491	221.86
430.699	137.9
430.906	160.42
431.114	150.18
431.321	137.9
431.528	160.42
431.736	164.52
431.943	174.76
432.15	207.53
432.358	141.99
432.565	246.44
432.772	45.74
432.979	203.43
433.187	125.61
433.394	266.92
433.601	39.59
433.808	236.2
434.016	268.97
434.223	293.54
434.43	191.14
434.637	262.82
434.844	283.3
435.052	279.21
435.259	299.69
435.466	322.21
435.673	209.58
435.88	279.21
436.087	383.65
436.294	365.22
436.501	334.5
436.708	338.6
436.915	279.21
437.122	434.85
437.329	314.02
437.537	330.41
437.743	406.18
437.95	481.96
438.157	455.33
438.364	408.23
438.571	443.04
438.778	459.43
438.985	473.76
439.192	604.83
439.399	504.48
439.606	481.96
439.813	596.64
440.02	635.55
440.227	707.23
440.433	629.41
440.64	578.21
440.847	672.42
441.054	635.55
441.261	807.58
441.467	692.9
441.674	610.98
441.881	748.19
442.088	832.16
442.294	832.16
442.501	807.58
442.708	862.88
442.914	866.97
443.121	944.8
443.328	993.95
443.534	936.6
443.741	1055.39
443.948	987.8
444.154	1118.87
444.361	1239.7
444.568	1137.31
444.774	1241.75
444.981	1176.22
445.187	1475.22
445.394	1360.53
445.6	1241.75
445.807	1598.1
446.013	1577.62
446.22	1432.21
446.426	1600.15
446.633	1680.02
446.839	1829.52
447.046	1616.53
447.252	1843.85
447.459	1784.46
447.665	1780.37
447.871	2046.6
448.078	2130.57
448.284	2175.63
448.491	2304.65
448.697	2392.71
448.903	2488.96
449.11	2478.72
449.316	2493.06
449.522	2769.54
449.728	2802.3
449.935	2880.13
450.141	2923.13
450.347	3228.28
450.553	3113.6
450.76	3150.46
450.966	3365.5
451.172	3465.85
451.378	3525.24
451.584	3676.79
451.791	3863.15
451.997	4115.05
452.203	3914.35
452.409	4233.83
452.615	4465.25
452.821	4252.27
453.027	4448.87
453.233	4903.52
453.44	4739.68
453.646	5100.12
453.852	5280.35
454.058	5554.77
454.264	5608.02
454.47	6203.98
454.676	6171.21
454.882	6568.52
455.088	6298.19
455.294	6568.52
455.5	7176.77
455.705	7424.57
455.911	7483.96
456.117	7846.45
456.323	7922.23
456.529	8055.34
456.735	8639.01
456.941	8954.4
457.147	9333.28
457.352	9603.61
457.558	9910.8
457.764	10535.43
457.97	10807.81
458.176	11166.21
458.381	11794.93
458.587	12091.89
458.793	12655.08
458.999	12599.79
459.204	13818.33
459.41	14729.67
459.616	14383.57
459.821	15221.19
460.027	15921.59
460.233	16474.54
460.438	16640.43
460.644	17600.93
460.85	17719.71
461.055	18506.13
461.261	19249.54
461.466	19290.5
461.672	19308.93
461.878	21490.02
462.083	21449.06
462.289	21907.8
462.494	22561.11
462.7	22833.49
462.905	23494.98
463.111	25063.72
463.316	26163.48
463.522	26474.77
463.727	27482.38
463.932	28782.84
464.138	29763.81
464.343	31064.27
464.549	30806.23
464.754	33231.02
464.959	33978.53
465.165	34521.24
465.37	34076.83
465.575	34191.52
465.781	37013.62
465.986	37759.08
466.191	37230.71
466.397	37687.4
466.602	36923.51
466.807	38660.19
467.012	39663.69
467.218	39698.51
467.423	40147.01
467.628	41134.14
467.833	43128.86
468.038	42645.54
468.244	41914.41
468.449	43921.42
468.654	43210.78
468.859	43057.18
469.064	43180.06
469.269	42180.65
469.474	42170.41
469.679	43567.12
469.885	42391.59
470.09	43440.15
470.295	42983.45
470.5	42367.01
470.705	42528.8
470.91	41408.56
471.115	40982.59
471.32	41756.72
471.525	41197.62
471.73	40638.53
471.935	39848.01
472.139	38733.92
472.344	38711.39
472.549	38369.38
472.754	37601.39
472.959	36675.71
473.164	35512.46
473.369	34973.85
473.574	35821.7
473.778	35143.83
473.983	34609.31
474.188	34175.14
474.393	32420.03
474.598	32663.74
474.802	31500.49
475.007	31523.02
475.212	31080.66
475.417	29649.13
475.621	29182.19
475.826	29157.61
476.031	28709.11
476.235	27801.86
476.44	27787.52
476.645	27212.04
476.849	26945.81
477.054	26249.5
477.259	25712.93
477.463	25839.9
477.668	24959.28
477.872	24955.18
478.077	24398.13
478.282	23755.07
478.486	23779.65
478.691	23157.07
478.895	23097.67
479.1	22686.03
479.304	22925.64
479.509	22202.71
479.713	22237.53
479.918	21778.78
480.122	21465.44
480.326	21637.47
480.531	21649.76
480.735	21467.49
480.94	20711.79
481.144	21684.58
481.348	20435.31
481.553	20517.23
481.757	20076.92
481.961	20461.94
482.166	20543.86
482.37	19874.17
482.574	19814.78
482.778	19601.79
482.983	19726.72
483.187	19270.02
483.391	19317.12
483.595	19038.6
483.8	18667.92
484.004	18770.32
484.208	18786.7
484.412	18598.29
484.616	18459.02
484.821	18203.03
485.025	17510.82
485.229	17775
485.433	17248.68
485.637	17367.46
485.841	17000.87
486.045	16916.9
486.249	16685.48
486.453	16423.34
486.657	16103.86
486.861	16136.63
487.065	15442.37
487.269	15581.63
487.473	14967.24
487.677	15040.97
487.881	15118.79
488.085	14291.41
488.289	14510.54
488.493	14072.28
488.697	13910.49
488.901	13648.35
489.105	13337.06
489.309	13320.67
489.512	13085.15
489.716	13177.31
489.92	12478.96
490.124	12388.85
490.328	12255.73
490.531	11909.62
490.735	12128.75
490.939	11483.64
491.143	11217.41
491.346	11119.1
491.55	11248.13
491.754	10848.77
491.958	10781.19
492.161	10605.06
492.365	10250.77
492.569	10265.1
492.772	10205.71
492.976	9966.1
493.18	10082.83
493.383	9898.52
493.587	9568.79
493.79	9482.78
493.994	9404.96
494.197	9454.11
494.401	9425.43
494.605	9222.69
494.808	9044.51
495.012	8981.03
495.215	8917.54
495.419	9073.18
495.622	8811.04
495.825	8974.88
496.029	8817.19
496.232	8981.03
496.436	8663.59
496.639	8854.05
496.843	8667.69
497.046	8823.33
497.249	8978.98
497.453	8884.77
497.656	8823.33
497.859	8765.99
498.063	8974.88
498.266	8991.27
498.469	8823.33
498.673	8860.2
498.876	9093.66
499.079	9091.62
499.282	9097.76
499.485	9400.86
499.689	9323.04
499.892	9378.33
500.095	9288.22
500.298	9613.85
500.501	9366.04
500.705	9710.1
500.908	9812.5
501.111	9685.53
501.314	9873.94
501.517	10170.9
501.72	10127.89
501.923	10174.99
502.126	10119.7
502.329	10527.24
502.532	10453.52
502.735	10592.78
502.938	10848.77
503.141	10793.48
503.344	11002.37
503.547	11203.07
503.75	11178.5
503.953	11203.07
504.156	11721.21
504.359	11854.33
504.562	11975.16
504.765	12288.5
504.968	12575.21
505.17	12820.97
505.373	12622.31
505.576	13089.25
505.779	13132.26
505.982	13513.18
506.185	13793.75
506.387	13951.45
506.59	14189.01
506.793	14557.64
506.996	14488.01
507.198	15030.73
507.401	15178.18
507.604	15417.79
507.807	15739.32
508.009	16095.67
508.212	16464.3
508.415	16935.34
508.617	17342.88
508.82	17576.35
509.022	17375.65
509.225	18504.08
509.428	18608.53
509.63	18966.92
509.833	19390.85
510.035	19949.95
510.238	20255.09
510.44	20625.78
510.643	21361
510.845	21743.97
511.048	21965.15
511.25	22301.01
511.453	22884.69
511.655	24113.47
511.858	24015.16
512.06	24488.24
512.262	25424.17
512.465	25776.42
512.667	26298.65
512.87	26853.65
513.072	27320.59
513.274	28244.22
513.477	28662.01
513.679	29276.4
513.881	29917.41
514.084	30783.7
514.286	30988.5
514.488	31623.37
514.69	32530.62
514.893	33546.41
515.095	33980.58
515.297	34570.4
515.499	35580.04
515.701	36247.68
515.904	37034.1
516.106	37855.34
516.308	38559.84
516.51	39082.07
516.712	39706.7
516.914	40837.18
517.116	41492.53
517.318	41965.61
517.52	42727.45
517.722	42932.25
517.925	44439.56
518.127	45176.83
518.329	46286.82
518.531	45916.14
518.733	47327.19
518.935	48068.56
519.136	48615.36
519.338	49567.67
519.54	50091.95
519.742	51365.79
519.944	51488.67
520.146	52209.55
520.348	52875.14
520.55	53540.73
520.752	54087.54
520.954	55383.9
521.155	55400.29
521.357	56225.62
521.559	56753.99
521.761	57472.83
521.963	57612.09
522.164	58087.22
522.366	58119.99
522.568	58945.32
522.77	59459.36
522.971	60192.53
523.173	59465.5
523.375	60821.26
523.576	60204.82
523.778	60634.89
523.98	61179.65
524.181	61159.17
524.383	61503.23
524.584	62220.02
524.786	62099.19
524.988	61404.93
525.189	62203.64
525.391	62494.45
525.592	62334.71
525.794	62287.6
525.995	61945.59
526.197	61677.31
526.398	62129.91
526.6	62187.25
526.801	61816.57
527.003	61974.26
527.204	61341.44
527.406	61509.38
527.607	61144.84
527.808	61290.24
528.01	60208.92
528.211	60188.44
528.412	60546.83
528.614	59924.25
528.815	59762.46
529.016	59455.26
529.218	58255.15
529.419	58189.62
529.62	57988.92
529.822	57382.72
530.023	56680.27
530.224	56336.21
530.425	55836.5
530.626	54916.96
530.828	53606.26
531.029	54660.97
531.23	53120.9
531.431	52664.2
531.632	52436.87
531.833	51693.46
532.035	51038.11
532.236	50335.66
532.437	50085.81
532.638	49133.5
532.839	49127.36
533.04	48611.27
533.241	47122.4
533.442	47622.1
533.643	46194.67
533.844	45940.72
534.045	45213.69
534.246	44259.34
534.447	44435.46
534.648	43601.94
534.849	43034.65
535.05	42303.53
535.251	41556.02
535.451	41148.47
535.652	40663.1
535.853	40149.06
536.054	39702.6
536.255	39032.92
536.456	38015.08
536.657	38242.4
536.857	37480.56
537.058	37036.15
537.259	36739.19
537.46	36141.19
537.66	35592.33
537.861	35051.67
538.062	34693.27
538.263	34447.52
538.463	33738.92
538.664	33613.99
538.865	32913.59
539.065	32866.49
539.266	31613.13
539.466	31899.84
539.667	31416.52
539.868	31381.71
540.068	30429.4
540.269	30107.87
540.469	29991.14
540.67	29391.08
540.87	28961.01
541.071	28942.58
541.271	28666.1
541.472	28121.34
541.672	28031.23
541.873	27621.64
542.073	26845.46
542.274	27126.03
542.474	26560.79
542.675	26312.99
542.875	26300.7
543.075	25690.4
543.276	25127.21
543.476	25147.69
543.676	24729.91
543.877	24844.59
544.077	24459.57
544.277	24037.69
544.478	23802.18
544.678	23589.19
544.878	23529.8
545.078	22972.75
545.279	22511.96
545.479	22501.72
545.679	22413.65
545.879	21631.33
546.079	21674.34
546.28	21404
546.48	21100.9
546.68	21352.8
546.88	20771.18
547.08	20529.52
547.28	20207.99
547.48	19751.29
547.68	19888.51
547.88	19614.08
548.081	19532.16
548.281	18751.88
548.481	18831.76
548.681	18465.17
548.881	18438.55
549.081	18051.48
549.28	18071.96
549.48	17611.17
549.68	17471.9
549.88	17396.13
550.08	16918.95
550.28	16540.08
550.48	16576.94
550.68	16482.74
550.88	15872.44
551.08	15595.96
551.279	15737.27
551.479	15161.8
551.679	15235.52
551.879	14778.83
552.079	14629.32
552.278	14369.23
552.478	14352.85
552.678	13996.5
552.878	13902.29
553.077	13644.25
553.277	13193.7
553.477	13375.97
553.676	13144.55
553.876	12947.94
554.076	12493.29
554.275	12431.85
554.475	12147.19
554.674	11950.58
554.874	11739.64
555.074	11524.6
555.273	11352.57
555.473	11426.3
555.672	11115.01
555.872	10932.74
556.071	10684.94
556.271	10830.34
556.47	10517
556.67	10095.12
556.869	9906.71
557.068	9927.19
557.268	9730.58
557.467	9507.35
557.667	9546.26
557.866	9288.22
558.065	9167.39
558.265	8999.46
558.464	8593.96
558.663	8690.21
558.863	8450.6
559.062	8501.8
559.261	8122.93
559.461	8362.54
559.66	8002.1
559.859	7756.34
560.058	7750.2
560.258	7621.17
560.457	7555.64
560.656	7635.51
560.855	7096.89
561.054	7356.99
561.253	7096.89
561.453	6996.54
561.652	6937.15
561.851	6971.97
562.05	6566.47
562.249	6421.06
562.448	6447.69
562.647	6326.86
562.846	6386.25
563.045	6201.93
563.244	6087.25
563.443	6081.1
563.642	5993.04
563.841	5864.02
564.04	5618.26
564.239	5610.07
564.438	5532.25
564.637	5491.29
564.836	5331.55
565.035	5282.39
565.234	5227.1
565.432	5298.78
565.631	4928.1
565.83	5024.35
566.029	4856.42
566.228	4995.68
566.427	4739.68
566.625	4702.82
566.824	4852.32
567.023	4772.45
567.222	4377.19
567.42	4418.15
567.619	4446.82
567.818	4366.95
568.016	4397.67
568.215	4311.66
568.414	4219.5
568.612	4113
568.811	4016.75
569.01	4119.15
569.208	3891.82
569.407	4047.47
569.605	4078.19
569.804	3732.08
570.002	3746.42
570.201	3703.41
570.4	3723.89
570.598	3484.28
570.797	3435.13
570.995	3375.74
571.193	3394.17
571.392	3449.46
571.59	3289.72
571.789	3379.83
571.987	3234.43
572.186	3252.86
572.384	3099.26
572.582	3080.83
572.781	3091.07
572.979	2873.98
573.177	2949.76
573.376	2912.89
573.574	2939.52
573.772	2830.98
573.971	2677.38
574.169	2663.04
574.367	2685.57
574.565	2611.84
574.763	2568.84
574.962	2624.13
575.16	2646.66
575.358	2534.02
575.556	2484.87
575.754	2515.59
575.952	2476.68
576.151	2355.85
576.349	2507.4
576.547	2175.63
576.745	2216.58
576.943	2333.32
577.141	2032.27
577.339	2075.27
577.537	2028.17
577.735	2144.91
577.933	1972.88
578.131	1905.29
578.329	2058.89
578.527	1929.87
578.725	1903.25
578.923	1817.23
579.121	1956.49
579.319	1735.31
579.516	1708.69
579.714	2060.94
579.912	1868.43
580.11	1677.97
580.308	1675.92
580.506	1735.31
580.704	1495.7
580.901	1522.32
581.099	1735.31
581.297	1514.13
581.495	1532.56
581.692	1534.61
581.89	1565.33
582.088	1544.85
582.285	1358.49
582.483	1467.03
582.681	1417.88
582.878	1415.83
583.076	1274.52
583.274	1450.64
583.471	1426.07
583.669	1288.86
583.866	1202.84
584.064	1276.57
584.262	1319.57
584.459	1178.26
584.657	1137.31
584.854	1180.31
585.052	1208.98
585.249	1235.61
585.447	1174.17
585.644	1114.78
585.841	1184.41
586.039	1151.64
586.236	1213.08
586.434	1032.86
586.631	1049.24
586.828	1145.5
587.026	1090.2
587.223	950.94
587.42	973.47
587.618	907.93
587.815	1034.91
588.012	1026.71
588.21	887.45
588.407	1018.52
588.604	1045.15
588.801	860.83
588.999	975.52
589.196	975.52
589.393	791.2
589.59	981.66
589.787	959.13
589.984	952.99
590.182	832.16
590.379	895.65
590.576	869.02
590.773	873.12
590.97	905.88
591.167	903.84
591.364	934.56
591.561	862.88
591.758	965.28
591.955	957.08
592.152	803.49
592.349	864.93
592.546	832.16
592.743	731.81
592.94	801.44
593.137	930.46
593.334	852.64
593.531	928.41
593.727	869.02
593.924	952.99
594.121	864.93
594.318	778.91
594.515	895.65
594.712	981.66
594.908	871.07
595.105	848.54
595.302	914.08
595.499	877.21
595.696	1014.43
595.892	920.22
596.089	1036.95
596.286	1000.09
596.482	1094.3
596.679	1106.59
596.876	955.04
597.072	1116.83
597.269	1137.31
597.466	1147.55
597.662	1110.68
597.859	1100.44
598.055	1176.22
598.252	1225.37
598.448	1295
598.645	1268.38
598.841	1383.06
599.038	1520.28
599.234	1561.23
599.431	1551
599.627	1688.21
599.824	1739.41
600.02	1669.78
600.217	1809.04
600.413	1751.7
600.609	1833.61
600.806	2212.49
601.002	2108.04
601.198	2122.38
601.395	2296.46
601.591	2294.41
601.787	2335.37
601.984	2513.54
602.18	2611.84
602.376	2595.46
602.572	2798.21
602.769	2830.98
602.965	2957.95
603.161	3023.48
603.357	3144.31
603.553	3269.24
603.75	3207.8
603.946	3291.77
604.142	3656.31
604.338	3883.63
604.534	3781.23
604.73	3938.93
604.926	4088.43
605.122	4309.61
605.318	4379.24
605.514	4498.02
605.71	4575.84
605.906	4819.55
606.102	5010.01
606.298	5136.99
606.494	5257.82
606.69	5507.67
606.886	5608.02
607.082	5747.28
607.278	5794.39
607.474	5896.78
607.67	6150.73
607.866	6167.12
608.062	6558.28
608.257	6736.45
608.453	6715.97
608.649	7090.75
608.845	7088.7
609.041	7332.41
609.236	7713.33
609.432	7686.71
609.628	8034.86
609.824	8307.24
610.019	8499.75
610.215	8651.3
610.411	9138.72
610.606	9032.22
610.802	9493.02
610.998	9757.21
611.193	9990.67
611.389	10084.88
611.584	10662.41
611.78	10476.04
611.976	11162.11
612.171	11368.96
612.367	11706.87
612.562	11854.33
612.758	12028.4
612.953	12569.07
613.149	12911.08
613.344	12906.98
613.539	13883.86
613.735	14023.12
613.93	14352.85
614.126	14533.07
614.321	14877.13
614.517	15468.99
614.712	15786.43
614.907	15980.98
615.103	16583.09
615.298	16703.92
615.493	17588.64
615.688	18094.49
615.884	18725.26
616.079	18706.83
616.274	19612.03
616.47	19902.84
616.665	20388.21
616.86	20898.16
617.055	21573.99
617.25	22055.26
617.445	22421.84
617.641	22718.8
617.836	23632.19
618.031	24004.92
618.226	24627.51
618.421	25135.4
618.616	25979.17
618.811	26245.4
619.006	27083.02
619.201	27257.1
619.396	28072.19
619.591	28442.87
619.786	29509.86
619.981	29745.38
620.176	30464.22
620.371	31283.41
620.566	32147.65
620.761	32755.89
620.956	33550.51
621.151	33749.16
621.346	34797.72
621.541	35102.87
621.735	35821.7
621.93	36239.49
622.125	37032.05
622.32	37316.72
622.515	38758.49
622.709	38496.35
622.904	39925.83
623.099	40503.36
623.294	41189.43
623.488	41674.8
623.683	42962.97
623.878	42612.77
624.072	44171.27
624.267	44611.59
624.462	45361.14
624.656	45899.76
624.851	46577.64
625.046	46958.56
625.24	47679.44
625.435	48275.4
625.629	48676.8
625.824	49389.5
626.018	50587.56
626.213	50175.92
626.407	51480.47
626.602	51412.89
626.796	52256.65
626.991	52809.6
627.185	52848.52
627.38	53356.41
627.574	53616.5
627.768	54136.69
627.963	54159.22
628.157	53843.83
628.352	54490.99
628.546	53544.83
628.74	54587.24
628.935	53958.52
629.129	54550.38
629.323	53733.24
629.517	53925.75
629.712	53421.95
629.906	53124.99
630.1	52422.54
630.294	52131.73
630.489	51259.29
630.683	51038.11
630.877	50180.01
631.071	49395.64
631.265	48582.6
631.459	47661.01
631.653	46532.58
631.848	45873.13
632.042	44290.05
632.236	43849.74
632.43	42407.97
632.624	41461.81
632.818	40187.97
633.012	38864.99
633.206	37349.49
633.4	36774.01
633.594	35410.06
633.788	34400.41
633.982	33015.99
634.176	31869.12
634.369	30476.51
634.563	29587.69
634.757	28471.54
634.951	27293.96
635.145	26284.31
635.339	25375.02
635.533	23994.68
635.726	23738.69
635.92	22440.28
636.114	21829.98
636.308	20554.1
636.501	20146.55
636.695	19280.26
636.889	18196.88
637.083	17488.29
637.276	16632.24
637.47	15921.59
637.664	15524.29
637.857	14913.99
638.051	14318.03
638.244	13500.89
638.438	13251.04
638.632	12661.23
638.825	12100.08
639.019	11661.82
639.212	11325.95
639.406	10695.18
639.599	10365.45
639.793	9871.89
639.986	9495.07
640.18	9269.79
640.373	8847.91
640.567	8315.44
640.76	8305.2
640.954	7879.22
641.147	7463.48
641.34	7152.19
641.534	6965.82
641.727	6763.08
641.92	6537.8
642.114	6255.18
642.307	6074.96
642.5	5802.58
642.694	5444.18
642.887	5354.07
643.08	5210.72
643.273	5024.35
643.467	4622.95
643.66	4610.66
643.853	4244.07
644.046	4270.7
644.239	4166.25
644.432	3967.6
644.626	3672.69
644.819	3660.4
645.012	3459.7
645.205	3471.99
645.398	3363.45
645.591	3228.28
645.784	3003
645.977	2775.68
646.17	2781.82
646.363	2646.66
646.556	2450.05
646.749	2464.39
646.942	2364.04
647.135	2335.37
647.328	2273.93
647.521	2161.29
647.714	1966.73
647.907	1991.31
648.099	1852.05
648.292	1784.46
648.485	1768.08
648.678	1626.77
648.871	1567.38
649.064	1602.19
649.256	1460.88
649.449	1338.01
649.642	1286.81
649.835	1327.77
650.027	1251.99
650.22	1358.49
650.413	1163.93
650.605	1131.16
650.798	1073.82
650.991	959.13
651.183	1006.24
651.376	1174.17
651.568	1022.62
651.761	905.88
651.954	932.51
652.146	889.5
652.339	879.26
652.531	869.02
652.724	787.1
652.916	748.19
653.109	600.74
653.301	821.92
653.494	715.42
653.686	713.38
653.879	791.2
654.071	735.9
654.263	576.16
654.456	512.67
654.648	653.98
654.84	621.22
655.033	565.92
655.225	666.27
655.417	520.87
655.61	592.55
655.802	639.65
655.994	588.45
656.186	377.51
656.379	541.35
656.571	395.94
656.763	463.52
656.955	377.51
657.148	496.29
657.34	510.63
657.532	467.62
657.724	359.08
657.916	383.65
658.108	502.44
658.3	443.04
658.492	428.71
658.684	289.45
658.876	373.41
659.068	244.39
659.26	262.82
659.452	166.57
659.644	367.27
659.836	367.27
660.028	320.17
660.22	244.39
660.412	228.01
660.604	225.96
660.796	258.73
660.988	264.87
661.18	285.35
661.372	291.49
661.563	187.05
661.755	254.63
661.947	185
662.139	246.44
662.331	219.82
662.522	305.83
662.714	193.19
662.906	180.9
663.097	266.92
663.289	168.62
663.481	176.81
663.673	234.15
663.864	244.39
664.056	260.77
664.247	158.38
664.439	252.58
664.631	223.91
664.822	238.25
665.014	131.75
665.205	228.01
665.397	174.76
665.588	105.13
665.78	197.29
665.971	217.77
666.163	211.62
666.354	209.58
666.546	154.28
666.737	193.19
666.929	133.8
667.12	133.8
667.311	223.91
667.503	170.66
667.694	187.05
667.885	250.53
668.077	219.82
668.268	105.13
668.459	125.61
668.651	139.94
668.842	307.88
669.033	129.7
669.224	152.23
669.416	287.4
669.607	111.27
669.798	123.56
669.989	246.44
670.18	174.76
670.371	254.63
670.563	90.79
670.754	150.18
670.945	223.91
671.136	187.05
671.327	144.04
671.518	236.2
671.709	334.5
671.9	150.18
672.091	199.34
672.282	117.42
672.473	162.47
672.664	101.03
672.855	178.86
673.046	207.53
673.237	207.53
673.428	39.59
673.619	207.53
673.809	111.27
674	297.64
674.191	303.78
674.382	137.9
674.573	174.76
674.764	156.33
674.954	209.58
675.145	185
675.336	133.8
675.527	174.76
675.717	117.42
675.908	133.8
676.099	90.79
676.289	182.95
676.48	58.03
676.671	242.34
676.861	98.99
677.052	209.58
677.243	117.42
677.433	197.29
677.624	203.43
677.814	252.58
678.005	217.77
678.195	271.01
678.386	72.36
678.576	209.58
678.767	156.33
678.957	201.38
679.148	264.87
679.338	291.49
679.529	197.29
679.719	98.99
679.909	248.49
680.1	234.15
680.29	330.41
680.481	123.56
680.671	189.1
680.861	230.06
681.052	256.68
681.242	72.36
681.432	320.17
681.622	238.25
681.813	103.08
682.003	256.68
682.193	207.53
682.383	205.48
682.573	240.3
682.764	166.57
682.954	217.77
683.144	273.06
683.334	228.01
683.524	228.01
683.714	256.68
683.904	305.83
684.094	182.95
684.284	262.82
684.474	318.12
684.664	365.22
684.854	281.25
685.044	275.11
685.234	332.45
685.424	271.01
685.614	178.86
685.804	369.32
685.994	342.69
686.184	137.9
686.374	209.58
686.564	252.58
686.753	203.43
686.943	256.68
687.133	260.77
687.323	236.2
687.513	295.59
687.702	305.83
687.892	166.57
688.082	305.83
688.272	316.07
688.461	281.25
688.651	385.7
688.841	287.4
689.03	271.01
689.22	223.91
689.41	328.36
689.599	252.58
689.789	201.38
689.979	383.65
690.168	303.78
690.358	238.25
690.547	305.83
690.737	252.58
690.926	354.98
691.116	363.17
691.305	307.88
691.495	303.78
691.684	144.04
691.874	211.62
692.063	271.01
692.252	316.07
692.442	283.3
692.631	281.25
692.82	221.86
693.01	230.06
693.199	262.82
693.388	242.34
693.578	246.44
693.767	156.33
693.956	299.69
694.146	162.47
694.335	242.34
694.524	232.1
694.713	258.73
694.902	174.76
695.092	266.92
695.281	244.39
695.47	244.39
695.659	176.81
695.848	273.06
696.037	131.75
696.226	256.68
696.415	223.91
696.604	230.06
696.793	271.01
696.982	191.14
697.171	336.55
697.36	213.67
697.549	285.35
697.738	98.99
697.927	232.1
698.116	277.16
698.305	268.97
698.494	201.38
698.683	217.77
698.872	354.98
699.061	260.77
699.25	182.95
699.438	207.53
699.627	109.23
699.816	371.37
700.005	129.7
700.193	162.47
700.382	268.97
700.571	291.49
700.76	174.76
700.948	260.77
701.137	289.45
701.326	189.1
701.514	207.53
701.703	201.38
701.892	228.01
702.08	311.97
702.269	178.86
702.457	170.66
702.646	207.53
702.834	135.85
703.023	219.82
703.212	266.92
703.4	170.66
703.589	125.61
703.777	144.04
703.965	82.6
704.154	232.1
704.342	207.53
704.531	207.53
704.719	215.72
704.907	236.2
705.096	162.47
705.284	123.56
705.472	156.33
705.661	174.76
705.849	279.21
706.037	279.21
706.226	213.67
706.414	271.01
706.602	156.33
706.79	279.21
706.979	248.49
707.167	240.3
707.355	76.46
707.543	244.39
707.731	201.38
707.919	182.95
708.107	125.61
708.296	51.88
708.484	242.34
708.672	248.49
708.86	262.82
709.048	271.01
709.236	217.77
709.424	209.58
709.612	242.34
709.8	25.26
709.988	197.29
710.176	287.4
710.364	234.15
710.551	131.75
710.739	219.82
710.927	203.43
711.115	250.53
711.303	332.45
711.491	240.3
711.679	170.66
711.866	230.06
712.054	88.75
712.242	189.1
712.43	256.68
712.617	254.63
712.805	295.59
712.993	230.06
713.181	76.46
713.368	275.11
713.556	172.71
713.744	170.66
713.931	377.51
714.119	289.45
714.306	168.62
714.494	150.18
714.682	264.87
714.869	123.56
715.057	283.3
715.244	109.23
715.432	289.45
715.619	185
715.807	129.7
715.994	152.23
716.182	209.58
716.369	273.06
716.556	283.3
716.744	115.37
716.931	150.18
717.119	225.96
717.306	244.39
717.493	205.48
717.681	150.18
717.868	193.19
718.055	197.29
718.242	146.09
718.43	219.82
718.617	318.12
718.804	176.81
718.991	246.44
719.179	258.73
719.366	305.83
719.553	174.76
719.74	209.58
719.927	279.21
720.114	271.01
720.301	111.27
720.488	168.62
720.676	217.77
720.863	311.97
721.05	406.18
721.237	301.73
721.424	205.48
721.611	219.82
721.798	129.7
721.985	162.47
722.172	185
722.358	266.92
722.545	287.4
722.732	264.87
722.919	238.25
723.106	283.3
723.293	289.45
723.48	213.67
723.667	195.24
723.853	365.22
724.04	238.25
724.227	275.11
724.414	195.24
724.6	242.34
724.787	391.84
724.974	371.37
725.161	273.06
725.347	252.58
725.534	203.43
725.72	230.06
725.907	279.21
726.094	350.89
726.28	238.25
726.467	289.45
726.653	213.67
726.84	348.84
727.027	369.32
727.213	234.15
727.4	258.73
727.586	230.06
727.773	279.21
727.959	262.82
728.145	283.3
728.332	252.58
728.518	121.51
728.705	260.77
728.891	305.83
729.077	185
729.264	213.67
729.45	209.58
729.636	240.3
729.823	309.93
730.009	273.06
730.195	264.87
730.382	316.07
730.568	197.29
730.754	273.06
730.94	258.73
731.126	301.73
731.313	242.34
731.499	207.53
731.685	311.97
731.871	309.93
732.057	328.36
732.243	318.12
732.429	252.58
732.615	438.95
732.801	275.11
732.987	234.15
733.173	240.3
733.359	256.68
733.545	297.64
733.731	232.1
733.917	320.17
734.103	334.5
734.289	285.35
734.475	191.14
734.661	418.47
734.847	291.49
735.033	324.26
735.219	314.02
735.404	232.1
735.59	180.9
735.776	246.44
735.962	311.97
736.148	402.08
736.333	318.12
736.519	262.82
736.705	303.78
736.89	311.97
737.076	283.3
737.262	203.43
737.447	297.64
737.633	320.17
737.819	324.26
738.004	307.88
738.19	201.38
738.375	285.35
738.561	365.22
738.747	332.45
738.932	203.43
739.118	400.04
739.303	381.6
739.489	287.4
739.674	248.49
739.859	301.73
740.045	279.21
740.23	299.69
740.416	144.04
740.601	338.6
740.786	250.53
740.972	260.77
741.157	232.1
741.342	180.9
741.528	185
741.713	338.6
741.898	387.75
742.084	320.17
742.269	281.25
742.454	289.45
742.639	332.45
742.824	240.3
743.01	371.37
743.195	412.32
743.38	264.87
743.565	297.64
743.75	309.93
743.935	402.08
744.12	258.73
744.305	250.53
744.49	182.95
744.675	211.62
744.86	201.38
745.045	350.89
745.23	221.86
745.415	291.49
745.6	342.69
745.785	207.53
745.97	359.08
746.155	365.22
746.34	330.41
746.525	240.3
746.71	363.17
746.895	135.85
747.079	135.85
747.264	254.63
747.449	275.11
747.634	264.87
747.819	350.89
748.003	246.44
748.188	170.66
748.373	213.67
748.557	232.1
748.742	223.91
748.927	242.34
749.111	217.77
749.296	123.56
749.481	277.16
749.665	256.68
749.85	242.34
750.034	195.24
750.219	199.34
750.404	215.72
750.588	258.73
750.773	193.19
750.957	127.66
751.141	133.8
751.326	228.01
751.51	191.14
751.695	266.92
751.879	252.58
752.064	258.73
752.248	264.87
752.432	301.73
752.617	361.13
752.801	336.55
752.985	182.95
753.17	260.77
753.354	201.38
753.538	201.38
753.722	125.61
753.907	141.99
754.091	62.12
754.275	273.06
754.459	98.99
754.643	180.9
754.828	152.23
755.012	262.82
755.196	86.7
755.38	203.43
755.564	187.05
755.748	156.33
755.932	236.2
756.116	228.01
756.3	258.73
756.484	178.86
756.668	133.8
756.852	66.22
757.036	125.61
757.22	137.9
757.404	64.17
757.588	152.23
757.772	199.34
757.956	187.05
758.14	277.16
758.323	166.57
758.507	150.18
758.691	137.9
758.875	232.1
759.059	180.9
759.242	164.52
759.426	180.9
759.61	258.73
759.794	101.03
759.977	250.53
760.161	395.94
760.345	238.25
760.528	135.85
760.712	228.01
760.895	182.95
761.079	176.81
761.263	68.27
761.446	55.98
761.63	70.31
761.813	125.61
761.997	111.27
762.18	86.7
762.364	203.43
762.547	-13.65
762.731	86.7
762.914	121.51
763.098	39.59
763.281	109.23
763.464	88.75
763.648	148.14
763.831	47.79
764.015	19.11
764.198	266.92
764.381	84.65
764.564	172.71
764.748	94.89
764.931	178.86
765.114	72.36
765.297	160.42
765.481	66.22
765.664	127.66
765.847	74.41
766.03	207.53
766.213	60.07
766.397	160.42
766.58	60.07
766.763	164.52
766.946	86.7
767.129	109.23
767.312	113.32
767.495	62.12
767.678	37.55
767.861	156.33
768.044	-7.51
768.227	10.92
768.41	162.47
768.593	144.04
768.776	135.85
768.959	23.21
769.142	117.42
769.324	66.22
769.507	55.98
769.69	49.83
769.873	25.26
770.056	209.58
770.239	-32.08
770.421	199.34
770.604	82.6
770.787	37.55
770.97	109.23
771.152	8.87
771.335	144.04
771.518	101.03
771.7	158.38
771.883	187.05
772.066	70.31
772.248	66.22
772.431	141.99
772.613	72.36
772.796	115.37
772.978	185
773.161	170.66
773.343	25.26
773.526	111.27
773.708	-38.23
773.891	-73.04
774.073	113.32
774.256	66.22
774.438	174.76
774.621	29.35
774.803	88.75
774.985	17.07
775.168	90.79
775.35	31.4
775.532	166.57
775.715	68.27
775.897	125.61
776.079	4.78
776.261	72.36
776.444	25.26
776.626	55.98
776.808	-23.89
776.99	31.4
777.173	-17.75
777.355	-3.41
777.537	111.27
777.719	113.32
777.901	0.68
778.083	43.69
778.265	2.73
778.447	94.89
778.629	8.87
778.811	41.64
778.993	135.85
779.175	133.8
779.357	49.83
779.539	8.87
779.721	129.7
779.903	80.55
780.085	17.07
780.267	86.7
780.449	68.27
780.631	115.37
780.812	180.9
780.994	8.87
781.176	27.31
781.358	-46.42
781.54	82.6
781.721	78.51
781.903	66.22
782.085	66.22
782.267	154.28
782.448	-60.76
782.63	72.36
782.812	55.98
782.993	125.61
783.175	154.28
783.357	37.55
783.538	111.27
783.72	31.4
783.901	-54.61
784.083	8.87
784.264	64.17
784.446	-13.65
784.627	15.02
784.809	53.93
784.99	33.45
785.172	109.23
785.353	-19.8
785.535	-21.84
785.716	-7.51
785.897	-111.96
786.079	-38.23
786.26	80.55
786.441	39.59
786.623	-66.9
786.804	-66.9
786.985	23.21
787.167	55.98
787.348	33.45
787.529	-48.47
787.71	115.37
787.891	43.69
788.073	-15.7
788.254	6.83
788.435	107.18
788.616	0.68
788.797	-15.7
788.978	-17.75
789.159	-5.46
789.34	27.31
789.522	53.93
789.703	45.74
789.884	37.55
790.065	17.07
790.246	133.8
790.427	-1.37
790.607	33.45
790.788	94.89
790.969	-27.99
791.15	51.88
791.331	-58.71
791.512	-15.7
791.693	0.68
791.874	-9.56
792.054	117.42
792.235	148.14
792.416	53.93
792.597	-15.7
792.778	74.41
792.958	101.03
793.139	19.11
793.32	64.17
793.5	-75.09
793.681	123.56
793.862	64.17
794.042	31.4
794.223	-40.28
794.404	-93.52
794.584	-140.63
794.765	51.88
794.945	-64.85
795.126	64.17
795.306	58.03
795.487	23.21
795.667	10.92
795.848	74.41
796.028	-23.89
796.209	-5.46
796.389	84.65
796.57	-32.08
796.75	-71
796.93	12.97
797.111	-13.65
797.291	-68.95
797.471	58.03
797.652	-56.66
797.832	31.4
798.012	92.84
798.192	-27.99
798.373	-25.94
798.553	-64.85
798.733	33.45
798.913	-27.99
799.093	-27.99
799.274	-21.84
799.454	31.4
799.634	76.46
799.814	76.46
799.994	109.23
800.174	105.13
800.354	37.55
800.534	-62.8
800.714	41.64
800.894	-25.94
801.074	-54.61
801.254	-71
801.434	39.59
801.614	-58.71
801.794	-124.24
801.974	1964.68
802.154	4.78
802.334	4.78
802.514	-142.68
802.693	-21.84
802.873	-3.41
803.053	156.33
803.233	-50.52
803.413	-15.7
803.592	-25.94
803.772	-46.42
803.952	76.46
804.131	-163.15
804.311	41.64
804.491	90.79
804.67	-25.94
804.85	-17.75
805.03	66.22
805.209	21.16
805.389	-23.89
805.568	-34.13
805.748	29.35
805.928	-15.7
806.107	66.22
806.287	-13.65
806.466	-17.75
806.646	-21.84
806.825	-48.47
807.004	-130.39
807.184	90.79
807.363	37.55
807.543	-56.66
807.722	-68.95
807.901	62.12
808.081	39.59
808.26	-83.28
808.439	10.92
808.619	31.4
808.798	53.93
808.977	27.31
809.156	41.64
809.336	-7.51
809.515	29.35
809.694	-56.66
809.873	-30.04
810.052	98.99
810.231	35.5
810.411	90.79
810.59	-17.75
810.769	-13.65
810.948	82.6
811.127	10.92
811.306	-66.9
811.485	25.26
811.664	127.66
811.843	10.92
812.022	-38.23
812.201	-60.76
812.38	-7.51
812.559	-42.32
812.737	39.59
812.916	-130.39
813.095	-32.08
813.274	66.22
813.453	-11.61
813.632	4.78
813.811	84.65
813.989	-138.58
814.168	-21.84
814.347	-1.37
814.526	-50.52
814.704	119.46
814.883	47.79
815.062	-38.23
815.24	39.59
815.419	-52.56
815.598	33.45
815.776	-144.72
815.955	-27.99
816.133	-132.44
816.312	6.83
816.49	-11.61
816.669	-36.18
816.847	-56.66
817.026	-7.51
817.204	6.83
817.383	-64.85
817.561	-15.7
817.74	-11.61
817.918	4.78
818.097	-64.85
818.275	-71
818.453	96.94
818.632	-5.46
818.81	-21.84
818.988	-68.95
819.167	-101.72
819.345	-21.84
819.523	-52.56
819.701	-36.18
819.879	45.74
820.058	-42.32
820.236	-19.8
820.414	-52.56
820.592	-17.75
820.77	2.73
820.948	29.35
821.127	-87.38
821.305	31.4
821.483	-101.72
821.661	76.46
821.839	-34.13
822.017	-79.19
822.195	-159.06
822.373	66.22
822.551	76.46
822.729	90.79
822.907	-50.52
823.085	8.87
823.262	17.07
823.44	-34.13
823.618	-21.84
823.796	-32.08
823.974	23.21
824.152	-3.41
824.329	19.11
824.507	6.83
824.685	10.92
824.863	2.73
825.04	-44.37
825.218	55.98
825.396	45.74
825.574	33.45
825.751	-75.09
825.929	25.26
826.107	-91.48
826.284	-48.47
826.462	66.22
826.639	-81.24
826.817	-159.06
826.994	-17.75
827.172	-114
827.349	88.75
827.527	17.07
827.704	90.79
827.882	115.37
828.059	39.59
828.237	-58.71
828.414	72.36
828.591	-116.05
828.769	-19.8
828.946	-101.72
829.124	78.51
829.301	-9.56
829.478	-81.24
829.655	144.04
829.833	-17.75
830.01	-124.24
830.187	-34.13
830.364	43.69
830.542	19.11
830.719	94.89
830.896	-3.41
831.073	4.78
831.25	10.92
831.427	25.26
831.604	-56.66
831.782	-101.72
831.959	45.74
832.136	-77.14
832.313	-3.41
832.49	-54.61
832.667	8.87
832.844	-60.76
833.021	25.26
833.198	29.35
833.374	-42.32
833.551	21.16
833.728	-54.61
833.905	33.45
834.082	8.87
834.259	55.98
834.436	82.6
834.612	-91.48
834.789	-1.37
834.966	41.64
835.143	6.83
835.319	-79.19
835.496	-46.42
835.673	23.21
835.85	25.26
836.026	4.78
836.203	33.45
836.38	-3.41
836.556	-68.95
836.733	-40.28
836.909	174.76
837.086	-116.05
837.262	-73.04
837.439	-42.32
837.616	-77.14
837.792	-71
837.968	25.26
838.145	-71
838.321	-21.84
838.498	-5.46
838.674	-32.08
838.851	-50.52
839.027	-15.7
839.203	-68.95
839.38	-5.46
839.556	-77.14
839.732	64.17
839.909	-40.28
840.085	-13.65
840.261	-38.23
840.437	-54.61
840.614	17.07
840.79	49.83
840.966	49.83
841.142	29.35
841.318	-32.08
841.494	41.64
841.671	-7.51
841.847	-114
842.023	-30.04
842.199	70.31
842.375	60.07
842.551	-122.2
842.727	-46.42
842.903	98.99
843.079	-21.84
843.255	123.56
843.431	-83.28
843.607	8.87
843.783	-144.72
843.959	49.83
844.134	-126.29
844.31	68.27
844.486	-111.96
844.662	-75.09
844.838	25.26
845.013	39.59
845.189	-3.41
845.365	41.64
845.541	37.55
845.716	12.97
845.892	-34.13
846.068	-46.42
846.244	-56.66
846.419	-15.7
846.595	-46.42
846.77	-66.9
846.946	66.22
847.122	-21.84
847.297	8.87
847.473	111.27
847.648	-83.28
847.824	55.98
847.999	-122.2
848.175	101.03
848.35	43.69
848.526	41.64
848.701	86.7
848.876	-42.32
849.052	72.36
849.227	-46.42
849.403	31.4
849.578	-60.76
849.753	-27.99
849.929	41.64
850.104	-85.33
850.279	-5.46
850.454	12.97
850.63	-64.85
850.805	6.83
850.98	2.73
851.155	-48.47
851.33	64.17
851.505	-126.29
851.681	66.22
851.856	-62.8
852.031	-46.42
852.206	-42.32
852.381	-50.52
852.556	-58.71
852.731	25.26
852.906	84.65
853.081	-11.61
853.256	60.07
853.431	21.16
853.606	-17.75
853.781	-48.47
853.956	-130.39
854.131	66.22
854.305	-105.81
854.48	-42.32
854.655	-34.13
854.83	-27.99
855.005	-32.08
855.18	8.87
855.354	-7.51
855.529	45.74
855.704	2.73
855.879	60.07
856.053	-93.52
856.228	-46.42
856.403	-75.09
856.577	0.68
856.752	-122.2
856.926	-54.61
857.101	-7.51
857.276	-73.04
857.45	17.07
857.625	-19.8
857.799	-13.65
857.974	-3.41
858.148	-118.1
858.323	-17.75
858.497	-56.66
858.672	-105.81
858.846	-126.29
859.02	12.97
859.195	-152.91
859.369	-46.42
859.543	-34.13
859.718	62.12
859.892	-3.41
860.066	0.68
860.241	-60.76
860.415	15.02
860.589	-60.76
860.763	-40.28
860.938	-120.15
861.112	10.92
861.286	-23.89
861.46	-3.41
861.634	-32.08
861.808	72.36
861.982	-36.18
862.157	-89.43
862.331	17.07
862.505	-89.43
862.679	-25.94
862.853	-58.71
863.027	12.97
863.201	127.66
863.375	-105.81
863.549	31.4
863.722	43.69
863.896	29.35
864.07	-97.62
864.244	-32.08
864.418	39.59
864.592	-3.41
864.766	-40.28
864.939	-44.37
865.113	-107.86
865.287	29.35
865.461	-75.09
865.634	25.26
865.808	-42.32
865.982	-32.08
866.156	-7.51
866.329	-91.48
866.503	-50.52
866.676	88.75
866.85	-60.76
867.024	-62.8
867.197	53.93
867.371	70.31
867.544	23.21
867.718	-109.91
867.891	45.74
868.065	-32.08
868.238	4.78
868.412	19.11
868.585	4.78
868.759	-60.76
868.932	-5.46
869.105	-97.62
869.279	-13.65
869.452	-109.91
869.625	51.88
869.799	25.26
869.972	-103.76
870.145	-36.18
870.319	53.93
870.492	-71
870.665	-126.29
870.838	-17.75
871.011	-154.96
871.185	-81.24
871.358	-11.61
871.531	-101.72
871.704	-23.89
871.877	-23.89
872.05	-99.67
872.223	-17.75
872.396	76.46
872.569	68.27
872.742	-64.85
872.915	-11.61
873.088	0.68
873.261	-93.52
873.434	82.6
873.607	-5.46
873.78	45.74
873.953	-109.91
874.126	41.64
874.299	15.02
874.471	-81.24
874.644	-75.09
874.817	23.21
874.99	154.28
875.163	-46.42
875.335	-5.46
875.508	-34.13
875.681	80.55
875.853	-32.08
876.026	-30.04
876.199	-19.8
876.371	-93.52
876.544	-34.13
876.717	8.87
876.889	-64.85
877.062	55.98
877.234	-81.24
877.407	-42.32
877.579	31.4
877.752	19.11
877.924	12.97
878.097	53.93
878.269	-3.41
878.442	-58.71
878.614	53.93
878.786	53.93
878.959	15.02
879.131	-77.14
879.303	-120.15
879.476	-56.66
879.648	35.5
879.82	27.31
879.993	-79.19
880.165	-27.99
880.337	-142.68
880.509	-32.08
880.681	-60.76
880.854	-44.37
881.026	49.83
881.198	27.31
881.37	-46.42
881.542	10.92
881.714	-64.85
881.886	-21.84
882.058	-79.19
882.23	29.35
882.402	19.11
882.574	6.83
882.746	37.55
882.918	78.51
883.09	-9.56
883.262	-27.99
883.434	12.97
883.606	-66.9
883.778	-40.28
883.95	84.65
884.122	-126.29
884.293	51.88
884.465	-52.56
884.637	-3.41
884.809	6.83
884.98	37.55
885.152	-23.89
885.324	23.21
885.496	-32.08
885.667	33.45
885.839	35.5
886.011	72.36
886.182	60.07
886.354	39.59
886.525	-19.8
886.697	37.55
886.869	-116.05
887.04	-66.9
887.212	80.55
887.383	125.61
887.555	-48.47
887.726	4.78
887.897	-48.47
888.069	-15.7
888.24	92.84
888.412	-5.46
888.583	-21.84
888.754	-32.08
888.926	-83.28
889.097	-56.66
889.268	-118.1
889.44	4.78
889.611	-85.33
889.782	-95.57
889.953	-60.76
890.125	74.41
890.296	-54.61
890.467	-15.7
890.638	-64.85
890.809	6.83
890.98	-109.91
891.151	-34.13
891.323	29.35
891.494	-11.61
891.665	-44.37
891.836	25.26
892.007	21.16
892.178	8.87
892.349	-7.51
892.52	-116.05
892.691	64.17
892.862	-109.91
893.032	-161.11
893.203	-56.66
893.374	-91.48
893.545	76.46
893.716	-52.56
893.887	51.88
894.057	2.73
894.228	-114
894.399	-17.75
894.57	66.22
894.74	-23.89
894.911	60.07
895.082	0.68
895.253	-27.99
895.423	-21.84
895.594	115.37
895.764	47.79
895.935	-114
896.106	51.88
896.276	-50.52
896.447	8.87
896.617	-50.52
896.788	-136.53
896.958	15.02
897.129	-124.24
897.299	-30.04
897.47	64.17
897.64	12.97
897.81	-126.29
897.981	-3.41
898.151	-87.38
898.322	-32.08
898.492	51.88
898.662	-71
898.832	4.78
899.003	6.83
899.173	-11.61
899.343	-52.56
899.513	-103.76
