Data from USB4F104151__52__10-43-28-976.txt Node

Date: Wed Feb 26 10:43:28 EST 2025
User: louis
Spectrometer: USB4F10415
Trigger mode: 4
Integration Time (sec): 1.000000E-1
Scans to average: 1
Electric dark correction enabled: true
Nonlinearity correction enabled: false
Boxcar width: 0
XAxis mode: Wavelengths
Number of Pixels in Spectrum: 3648
>>>>>Begin Spectral Data<<<<<
178.204	-377.34
178.424	-377.34
178.644	-377.34
178.864	-455.16
179.084	-420.35
179.304	24.06
179.524	-86.53
179.744	42.5
179.964	-31.23
180.184	40.45
180.404	54.78
180.624	11.78
180.844	-8.7
181.064	-49.66
181.283	75.26
181.503	-100.86
181.723	28.16
181.943	-88.57
182.163	235
182.383	-8.7
182.602	19.97
182.822	140.8
183.042	-31.23
183.262	48.64
183.482	-4.61
183.701	44.54
183.921	50.69
184.141	-117.25
184.361	91.65
184.58	54.78
184.8	40.45
185.02	42.5
185.239	56.83
185.459	48.64
185.679	93.69
185.898	-115.2
186.118	22.02
186.338	-66.05
186.557	60.93
186.777	-96.77
186.997	-94.72
187.216	95.74
187.436	110.08
187.655	-0.51
187.875	75.26
188.095	-4.61
188.314	93.69
188.534	95.74
188.753	-55.81
188.973	153.09
189.192	105.98
189.412	-51.71
189.631	62.98
189.851	38.4
190.07	146.94
190.29	-27.14
190.509	-27.14
190.729	9.73
190.948	97.79
191.168	196.09
191.387	151.04
191.607	-12.8
191.826	69.12
192.045	-51.71
192.265	-16.9
192.484	52.74
192.704	114.17
192.923	-74.24
193.142	177.66
193.362	95.74
193.581	99.84
193.8	89.6
194.02	60.93
194.239	-29.18
194.458	65.02
194.678	-6.66
194.897	-27.14
195.116	9.73
195.335	56.83
195.555	46.59
195.774	9.73
195.993	110.08
196.212	19.97
196.432	97.79
196.651	-59.9
196.87	9.73
197.089	226.81
197.308	28.16
197.528	32.26
197.747	-41.47
197.966	17.92
198.185	103.93
198.404	-25.09
198.623	93.69
198.842	38.4
199.062	116.22
199.281	142.85
199.5	30.21
199.719	69.12
199.938	-43.52
200.157	67.07
200.376	89.6
200.595	87.55
200.814	-20.99
201.033	-57.86
201.252	101.89
201.471	91.65
201.69	42.5
201.909	67.07
202.128	110.08
202.347	93.69
202.566	65.02
202.785	-111.1
203.004	-27.14
203.223	249.34
203.442	-27.14
203.661	-2.56
203.879	136.7
204.098	112.13
204.317	-25.09
204.536	60.93
204.755	62.98
204.974	60.93
205.193	-49.66
205.411	155.13
205.63	140.8
205.849	9.73
206.068	56.83
206.287	58.88
206.505	112.13
206.724	40.45
206.943	22.02
207.162	-131.58
207.381	11.78
207.599	34.3
207.818	65.02
208.037	-53.76
208.255	-0.51
208.474	34.3
208.693	40.45
208.911	-39.42
209.13	134.65
209.349	67.07
209.567	73.21
209.786	108.03
210.005	103.93
210.223	101.89
210.442	-119.29
210.661	15.87
210.879	73.21
211.098	32.26
211.316	42.5
211.535	11.78
211.753	50.69
211.972	75.26
212.191	3.58
212.409	-68.09
212.628	93.69
212.846	-72.19
213.065	60.93
213.283	124.41
213.502	40.45
213.72	38.4
213.938	24.06
214.157	32.26
214.375	73.21
214.594	-14.85
214.812	44.54
215.031	3.58
215.249	26.11
215.467	42.5
215.686	-0.51
215.904	77.31
216.122	7.68
216.341	153.09
216.559	42.5
216.778	87.55
216.996	65.02
217.214	3.58
217.432	-6.66
217.651	-29.18
217.869	-2.56
218.087	24.06
218.306	15.87
218.524	44.54
218.742	13.82
218.96	95.74
219.179	5.63
219.397	-41.47
219.615	241.15
219.833	-25.09
220.051	-2.56
220.27	17.92
220.488	120.32
220.706	71.17
220.924	-68.09
221.142	-98.81
221.36	56.83
221.578	99.84
221.796	28.16
222.015	-23.04
222.233	67.07
222.451	124.41
222.669	-25.09
222.887	77.31
223.105	28.16
223.323	75.26
223.541	-23.04
223.759	69.12
223.977	34.3
224.195	167.42
224.413	46.59
224.631	58.88
224.849	81.41
225.067	120.32
225.285	22.02
225.503	-0.51
225.721	-88.57
225.939	32.26
226.157	3.58
226.375	185.85
226.592	-18.94
226.81	-25.09
227.028	1.54
227.246	56.83
227.464	56.83
227.682	159.23
227.9	44.54
228.117	22.02
228.335	50.69
228.553	-37.38
228.771	22.02
228.989	95.74
229.206	103.93
229.424	-10.75
229.642	-35.33
229.86	-6.66
230.077	120.32
230.295	-2.56
230.513	144.89
230.731	85.5
230.948	126.46
231.166	124.41
231.384	-23.04
231.601	24.06
231.819	216.57
232.037	-68.09
232.254	-80.38
232.472	24.06
232.689	40.45
232.907	148.99
233.125	-18.94
233.342	28.16
233.56	-66.05
233.777	28.16
233.995	28.16
234.213	83.45
234.43	48.64
234.648	-0.51
234.865	7.68
235.083	3.58
235.3	112.13
235.518	69.12
235.735	165.37
235.953	93.69
236.17	7.68
236.388	-4.61
236.605	95.74
236.822	87.55
237.04	124.41
237.257	34.3
237.475	-35.33
237.692	34.3
237.909	112.13
238.127	15.87
238.344	56.83
238.562	-41.47
238.779	-76.29
238.996	-45.57
239.214	7.68
239.431	77.31
239.648	-12.8
239.865	5.63
240.083	40.45
240.3	-10.75
240.517	-25.09
240.735	58.88
240.952	83.45
241.169	22.02
241.386	34.3
241.603	34.3
241.821	-68.09
242.038	116.22
242.255	34.3
242.472	-145.92
242.689	95.74
242.907	44.54
243.124	34.3
243.341	-25.09
243.558	-76.29
243.775	46.59
243.992	-51.71
244.209	89.6
244.426	144.89
244.643	89.6
244.86	34.3
245.078	146.94
245.295	26.11
245.512	11.78
245.729	-55.81
245.946	101.89
246.163	56.83
246.38	-14.85
246.597	62.98
246.814	-55.81
247.031	-27.14
247.248	-14.85
247.464	89.6
247.681	48.64
247.898	73.21
248.115	122.37
248.332	-68.09
248.549	77.31
248.766	134.65
248.983	19.97
249.2	128.51
249.417	138.75
249.633	-41.47
249.85	99.84
250.067	32.26
250.284	40.45
250.501	48.64
250.717	112.13
250.934	-80.38
251.151	-47.62
251.368	81.41
251.585	58.88
251.801	40.45
252.018	-6.66
252.235	89.6
252.451	-86.53
252.668	-14.85
252.885	105.98
253.102	85.5
253.318	-10.75
253.535	34.3
253.752	-29.18
253.968	24.06
254.185	-61.95
254.401	22.02
254.618	24.06
254.835	22.02
255.051	132.61
255.268	112.13
255.484	75.26
255.701	30.21
255.917	-20.99
256.134	40.45
256.351	-88.57
256.567	-47.62
256.784	58.88
257	-80.38
257.217	112.13
257.433	95.74
257.65	-8.7
257.866	46.59
258.082	-61.95
258.299	-10.75
258.515	-6.66
258.732	3.58
258.948	-39.42
259.165	71.17
259.381	-25.09
259.597	28.16
259.814	-0.51
260.03	-35.33
260.246	-27.14
260.463	120.32
260.679	130.56
260.895	83.45
261.112	77.31
261.328	146.94
261.544	7.68
261.761	175.61
261.977	58.88
262.193	13.82
262.409	128.51
262.626	13.82
262.842	58.88
263.058	-18.94
263.274	97.79
263.49	34.3
263.707	138.75
263.923	89.6
264.139	-92.67
264.355	83.45
264.571	120.32
264.787	60.93
265.004	87.55
265.22	-2.56
265.436	11.78
265.652	19.97
265.868	32.26
266.084	-49.66
266.3	42.5
266.516	-37.38
266.732	146.94
266.948	28.16
267.164	-43.52
267.38	155.13
267.596	28.16
267.812	148.99
268.028	-33.28
268.244	-35.33
268.46	24.06
268.676	-25.09
268.892	105.98
269.108	-76.29
269.324	-57.86
269.54	7.68
269.756	5.63
269.972	-70.14
270.188	5.63
270.403	-72.19
270.619	101.89
270.835	15.87
271.051	-61.95
271.267	58.88
271.483	52.74
271.698	65.02
271.914	44.54
272.13	-27.14
272.346	36.35
272.562	34.3
272.777	105.98
272.993	-35.33
273.209	-2.56
273.425	116.22
273.64	-66.05
273.856	44.54
274.072	-10.75
274.287	-66.05
274.503	83.45
274.719	-45.57
274.934	-31.23
275.15	-127.49
275.366	-0.51
275.581	-59.9
275.797	28.16
276.012	38.4
276.228	-49.66
276.444	118.27
276.659	97.79
276.875	-96.77
277.09	-6.66
277.306	-6.66
277.521	65.02
277.737	24.06
277.952	13.82
278.168	46.59
278.383	58.88
278.599	83.45
278.814	3.58
279.03	46.59
279.245	142.85
279.461	15.87
279.676	142.85
279.892	-12.8
280.107	-45.57
280.322	79.36
280.538	126.46
280.753	-84.48
280.969	17.92
281.184	50.69
281.399	103.93
281.615	-4.61
281.83	60.93
282.045	-39.42
282.26	-37.38
282.476	71.17
282.691	112.13
282.906	101.89
283.122	87.55
283.337	-25.09
283.552	67.07
283.767	-84.48
283.983	28.16
284.198	87.55
284.413	44.54
284.628	-14.85
284.843	85.5
285.058	77.31
285.274	28.16
285.489	-14.85
285.704	108.03
285.919	-4.61
286.134	-41.47
286.349	11.78
286.564	-16.9
286.779	105.98
286.995	87.55
287.21	-41.47
287.425	46.59
287.64	-53.76
287.855	52.74
288.07	-72.19
288.285	132.61
288.5	103.93
288.715	132.61
288.93	-31.23
289.145	62.98
289.36	163.33
289.575	48.64
289.79	124.41
290.004	-107.01
290.219	36.35
290.434	-8.7
290.649	15.87
290.864	-31.23
291.079	-59.9
291.294	-41.47
291.509	65.02
291.724	-68.09
291.938	-23.04
292.153	42.5
292.368	5.63
292.583	28.16
292.798	110.08
293.012	-6.66
293.227	44.54
293.442	-23.04
293.657	79.36
293.871	108.03
294.086	28.16
294.301	122.37
294.516	161.28
294.73	120.32
294.945	-64
295.16	-6.66
295.374	196.09
295.589	157.18
295.804	-6.66
296.018	58.88
296.233	114.17
296.447	69.12
296.662	-18.94
296.877	62.98
297.091	146.94
297.306	58.88
297.52	46.59
297.735	44.54
297.949	75.26
298.164	19.97
298.378	-2.56
298.593	1.54
298.807	-0.51
299.022	-31.23
299.236	103.93
299.451	-16.9
299.665	-12.8
299.88	-31.23
300.094	56.83
300.309	48.64
300.523	52.74
300.737	-23.04
300.952	54.78
301.166	54.78
301.381	-37.38
301.595	7.68
301.809	17.92
302.024	-10.75
302.238	-55.81
302.452	75.26
302.667	77.31
302.881	138.75
303.095	83.45
303.309	99.84
303.524	-72.19
303.738	56.83
303.952	-43.52
304.166	-8.7
304.381	-14.85
304.595	136.7
304.809	24.06
305.023	-6.66
305.237	-41.47
305.452	-14.85
305.666	62.98
305.88	71.17
306.094	87.55
306.308	67.07
306.522	60.93
306.736	99.84
306.95	103.93
307.164	-12.8
307.379	-27.14
307.593	79.36
307.807	171.52
308.021	99.84
308.235	65.02
308.449	-43.52
308.663	-41.47
308.877	261.63
309.091	19.97
309.305	73.21
309.519	-43.52
309.733	71.17
309.947	52.74
310.161	85.5
310.374	146.94
310.588	146.94
310.802	-25.09
311.016	24.06
311.23	-37.38
311.444	-47.62
311.658	-35.33
311.872	101.89
312.085	120.32
312.299	202.24
312.513	81.41
312.727	17.92
312.941	-76.29
313.154	56.83
313.368	22.02
313.582	3.58
313.796	50.69
314.009	44.54
314.223	120.32
314.437	93.69
314.651	28.16
314.864	-39.42
315.078	48.64
315.292	-53.76
315.505	11.78
315.719	48.64
315.933	87.55
316.146	-8.7
316.36	-25.09
316.573	155.13
316.787	108.03
317.001	28.16
317.214	-68.09
317.428	32.26
317.641	-41.47
317.855	17.92
318.068	-6.66
318.282	19.97
318.495	210.43
318.709	128.51
318.922	71.17
319.136	132.61
319.349	93.69
319.563	77.31
319.776	30.21
319.99	-45.57
320.203	118.27
320.417	11.78
320.63	69.12
320.843	108.03
321.057	36.35
321.27	50.69
321.483	73.21
321.697	155.13
321.91	50.69
322.124	56.83
322.337	42.5
322.55	-8.7
322.763	58.88
322.977	34.3
323.19	-53.76
323.403	19.97
323.617	38.4
323.83	52.74
324.043	118.27
324.256	46.59
324.469	-51.71
324.683	112.13
324.896	-31.23
325.109	-25.09
325.322	-78.33
325.535	122.37
325.748	138.75
325.962	11.78
326.175	54.78
326.388	44.54
326.601	67.07
326.814	-0.51
327.027	48.64
327.24	95.74
327.453	-111.1
327.666	58.88
327.879	148.99
328.092	22.02
328.305	169.47
328.518	69.12
328.731	-74.24
328.944	11.78
329.157	44.54
329.37	-29.18
329.583	124.41
329.796	192
330.009	-25.09
330.222	52.74
330.435	97.79
330.648	3.58
330.861	108.03
331.073	118.27
331.286	114.17
331.499	34.3
331.712	-29.18
331.925	1.54
332.138	48.64
332.35	97.79
332.563	-74.24
332.776	85.5
332.989	-6.66
333.202	50.69
333.414	50.69
333.627	-0.51
333.84	103.93
334.053	58.88
334.265	-31.23
334.478	-39.42
334.691	-10.75
334.903	118.27
335.116	-14.85
335.329	15.87
335.541	52.74
335.754	210.43
335.966	73.21
336.179	62.98
336.392	46.59
336.604	-33.28
336.817	138.75
337.029	1.54
337.242	38.4
337.454	91.65
337.667	34.3
337.88	171.52
338.092	101.89
338.305	52.74
338.517	-10.75
338.729	124.41
338.942	124.41
339.154	11.78
339.367	-92.67
339.579	77.31
339.792	-59.9
340.004	17.92
340.217	-6.66
340.429	32.26
340.641	-33.28
340.854	11.78
341.066	-6.66
341.278	89.6
341.491	151.04
341.703	105.98
341.915	-14.85
342.128	120.32
342.34	140.8
342.552	-43.52
342.764	54.78
342.977	30.21
343.189	89.6
343.401	26.11
343.613	-98.81
343.826	30.21
344.038	-43.52
344.25	91.65
344.462	-10.75
344.674	56.83
344.886	50.69
345.099	105.98
345.311	99.84
345.523	32.26
345.735	-66.05
345.947	69.12
346.159	26.11
346.371	3.58
346.583	77.31
346.795	255.48
347.007	13.82
347.219	54.78
347.431	-0.51
347.643	142.85
347.855	9.73
348.067	105.98
348.279	-0.51
348.491	22.02
348.703	83.45
348.915	5.63
349.127	19.97
349.339	3.58
349.551	24.06
349.763	155.13
349.975	40.45
350.187	17.92
350.399	83.45
350.61	85.5
350.822	-35.33
351.034	114.17
351.246	1.54
351.458	79.36
351.669	60.93
351.881	40.45
352.093	85.5
352.305	181.76
352.517	54.78
352.728	118.27
352.94	54.78
353.152	134.65
353.363	-23.04
353.575	9.73
353.787	153.09
353.999	32.26
354.21	161.28
354.422	-8.7
354.633	28.16
354.845	1.54
355.057	-78.33
355.268	136.7
355.48	69.12
355.692	-51.71
355.903	28.16
356.115	-18.94
356.326	-70.14
356.538	151.04
356.749	118.27
356.961	83.45
357.172	-12.8
357.384	-12.8
357.595	271.87
357.807	-39.42
358.018	77.31
358.23	-74.24
358.441	22.02
358.653	93.69
358.864	54.78
359.075	-10.75
359.287	19.97
359.498	85.5
359.709	85.5
359.921	36.35
360.132	67.07
360.344	26.11
360.555	3.58
360.766	26.11
360.977	-8.7
361.189	22.02
361.4	13.82
361.611	101.89
361.823	91.65
362.034	7.68
362.245	-111.1
362.456	1.54
362.667	50.69
362.879	-39.42
363.09	79.36
363.301	79.36
363.512	-2.56
363.723	-68.09
363.935	48.64
364.146	120.32
364.357	-12.8
364.568	22.02
364.779	-18.94
364.99	103.93
365.201	-53.76
365.412	118.27
365.623	-37.38
365.834	46.59
366.045	5.63
366.256	44.54
366.467	48.64
366.678	19.97
366.889	11.78
367.1	38.4
367.311	97.79
367.522	-53.76
367.733	54.78
367.944	52.74
368.155	22.02
368.366	54.78
368.577	77.31
368.788	71.17
368.999	46.59
369.209	17.92
369.42	146.94
369.631	255.48
369.842	65.02
370.053	34.3
370.264	75.26
370.474	-4.61
370.685	97.79
370.896	1.54
371.107	173.57
371.317	11.78
371.528	9.73
371.739	81.41
371.95	95.74
372.16	-25.09
372.371	-47.62
372.582	-33.28
372.792	54.78
373.003	58.88
373.214	91.65
373.424	46.59
373.635	13.82
373.846	169.47
374.056	5.63
374.267	99.84
374.477	17.92
374.688	-92.67
374.898	87.55
375.109	101.89
375.319	56.83
375.53	142.85
375.74	87.55
375.951	13.82
376.161	5.63
376.372	116.22
376.582	-29.18
376.793	19.97
377.003	34.3
377.214	-10.75
377.424	105.98
377.635	30.21
377.845	9.73
378.055	140.8
378.266	7.68
378.476	11.78
378.686	140.8
378.897	112.13
379.107	89.6
379.317	120.32
379.528	-12.8
379.738	120.32
379.948	-70.14
380.158	75.26
380.369	-8.7
380.579	65.02
380.789	-2.56
380.999	54.78
381.21	44.54
381.42	210.43
381.63	7.68
381.84	93.69
382.05	62.98
382.261	112.13
382.471	173.57
382.681	-27.14
382.891	132.61
383.101	81.41
383.311	-29.18
383.521	-61.95
383.731	146.94
383.941	93.69
384.151	71.17
384.361	30.21
384.571	19.97
384.781	44.54
384.991	220.67
385.201	165.37
385.411	54.78
385.621	71.17
385.831	44.54
386.041	30.21
386.251	9.73
386.461	103.93
386.671	-10.75
386.881	52.74
387.091	-41.47
387.301	11.78
387.511	34.3
387.72	65.02
387.93	42.5
388.14	-78.33
388.35	56.83
388.56	163.33
388.769	108.03
388.979	3.58
389.189	-53.76
389.399	19.97
389.609	116.22
389.818	124.41
390.028	67.07
390.238	105.98
390.447	-41.47
390.657	58.88
390.867	15.87
391.076	-72.19
391.286	11.78
391.496	91.65
391.705	-14.85
391.915	58.88
392.125	46.59
392.334	26.11
392.544	167.42
392.753	5.63
392.963	-33.28
393.172	22.02
393.382	-16.9
393.591	206.33
393.801	-0.51
394.01	136.7
394.22	79.36
394.429	46.59
394.639	11.78
394.848	-0.51
395.058	11.78
395.267	58.88
395.477	140.8
395.686	60.93
395.895	140.8
396.105	110.08
396.314	26.11
396.524	157.18
396.733	71.17
396.942	183.81
397.152	24.06
397.361	79.36
397.57	81.41
397.78	67.07
397.989	69.12
398.198	183.81
398.407	22.02
398.617	54.78
398.826	26.11
399.035	34.3
399.244	126.46
399.453	11.78
399.663	24.06
399.872	58.88
400.081	-68.09
400.29	148.99
400.499	11.78
400.708	114.17
400.917	11.78
401.127	30.21
401.336	-0.51
401.545	175.61
401.754	75.26
401.963	87.55
402.172	22.02
402.381	7.68
402.59	-10.75
402.799	97.79
403.008	122.37
403.217	99.84
403.426	38.4
403.635	-57.86
403.844	24.06
404.053	-23.04
404.262	30.21
404.471	206.33
404.68	24.06
404.888	112.13
405.097	11.78
405.306	77.31
405.515	30.21
405.724	1.54
405.933	159.23
406.142	83.45
406.35	136.7
406.559	19.97
406.768	65.02
406.977	175.61
407.185	108.03
407.394	91.65
407.603	-8.7
407.812	-61.95
408.02	179.71
408.229	69.12
408.438	44.54
408.646	-23.04
408.855	-31.23
409.064	65.02
409.272	-33.28
409.481	32.26
409.69	3.58
409.898	-86.53
410.107	42.5
410.315	60.93
410.524	22.02
410.733	-20.99
410.941	58.88
411.15	79.36
411.358	60.93
411.567	97.79
411.775	-20.99
411.984	32.26
412.192	22.02
412.401	13.82
412.609	194.05
412.818	146.94
413.026	77.31
413.234	67.07
413.443	-20.99
413.651	-41.47
413.86	73.21
414.068	187.9
414.276	200.19
414.485	1.54
414.693	185.85
414.901	239.1
415.11	122.37
415.318	-0.51
415.526	67.07
415.734	93.69
415.943	34.3
416.151	101.89
416.359	42.5
416.567	136.7
416.776	91.65
416.984	130.56
417.192	216.57
417.4	38.4
417.608	22.02
417.817	-74.24
418.025	177.66
418.233	200.19
418.441	-68.09
418.649	-92.67
418.857	40.45
419.065	120.32
419.273	-14.85
419.481	50.69
419.689	36.35
419.897	134.65
420.105	24.06
420.313	128.51
420.521	142.85
420.729	157.18
420.937	1.54
421.145	-31.23
421.353	130.56
421.561	185.85
421.769	89.6
421.977	60.93
422.185	124.41
422.393	169.47
422.601	105.98
422.809	81.41
423.017	142.85
423.224	128.51
423.432	161.28
423.64	67.07
423.848	175.61
424.056	-10.75
424.263	136.7
424.471	110.08
424.679	128.51
424.887	17.92
425.094	144.89
425.302	151.04
425.51	44.54
425.718	142.85
425.925	128.51
426.133	65.02
426.341	202.24
426.548	93.69
426.756	44.54
426.964	99.84
427.171	116.22
427.379	97.79
427.586	48.64
427.794	91.65
428.001	112.13
428.209	81.41
428.417	167.42
428.624	228.86
428.832	83.45
429.039	120.32
429.247	159.23
429.454	95.74
429.662	140.8
429.869	173.57
430.076	81.41
430.284	237.05
430.491	165.37
430.699	212.48
430.906	241.15
431.114	56.83
431.321	200.19
431.528	122.37
431.736	105.98
431.943	148.99
432.15	185.85
432.358	153.09
432.565	333.31
432.772	17.92
432.979	175.61
433.187	136.7
433.394	232.96
433.601	144.89
433.808	294.4
434.016	261.63
434.223	212.48
434.43	267.77
434.637	249.34
434.844	280.06
435.052	302.59
435.259	345.59
435.466	341.5
435.673	220.67
435.88	259.58
436.087	353.79
436.294	325.12
436.501	327.16
436.708	339.45
436.915	366.07
437.122	445.95
437.329	306.68
437.537	253.44
437.743	413.18
437.95	476.66
438.157	407.03
438.364	431.61
438.571	478.71
438.778	570.87
438.985	554.49
439.192	493.05
439.399	484.86
439.606	538.1
439.813	628.21
440.02	656.89
440.227	787.96
440.433	683.51
440.64	716.28
440.847	632.31
441.054	804.34
441.261	767.48
441.467	660.98
441.674	624.12
441.881	798.2
442.088	783.86
442.294	849.4
442.501	970.23
442.708	990.7
442.914	914.93
443.121	1066.48
443.328	1007.09
443.534	1080.82
443.741	1050.1
443.948	1023.47
444.154	1203.69
444.361	1308.14
444.568	1197.55
444.774	1269.23
444.981	1207.79
445.187	1304.04
445.394	1484.27
445.6	1424.87
445.807	1666.53
446.013	1478.12
446.22	1467.88
446.426	1650.15
446.633	1764.84
446.839	2117.09
447.046	1713.64
447.252	2053.6
447.459	1906.15
447.665	2008.55
447.871	2274.78
448.078	2434.52
448.284	2242.01
448.491	2409.95
448.697	2592.22
448.903	2606.55
449.11	2768.34
449.316	2606.55
449.522	2803.16
449.728	2919.89
449.935	3122.64
450.141	3065.3
450.347	3368.4
450.553	3374.54
450.76	3384.78
450.966	3675.59
451.172	3718.6
451.378	4009.41
451.584	3798.47
451.791	4279.74
451.997	4294.08
452.203	4369.85
452.409	4654.52
452.615	4822.45
452.821	4537.79
453.027	4693.43
453.233	5391.79
453.44	5246.38
453.646	5481.9
453.852	5600.68
454.058	6098.34
454.264	6010.28
454.47	6514.08
454.676	6491.55
454.882	7140.76
455.088	6731.16
455.294	7097.75
455.5	7531.92
455.705	8072.58
455.911	8029.57
456.117	8228.23
456.323	8658.3
456.529	8453.5
456.735	9426.29
456.941	9368.95
457.147	10067.3
457.352	10272.1
457.558	10591.58
457.764	11074.9
457.97	11763.02
458.176	12283.2
458.381	12588.35
458.587	12739.9
458.793	13610.29
458.999	13073.72
459.204	14990.62
459.41	15592.72
459.616	15181.08
459.821	16303.37
460.027	16956.67
460.233	17630.45
460.438	17882.35
460.644	18654.44
460.85	18820.32
461.055	19700.95
461.261	20714.69
461.466	20387.02
461.672	20651.2
461.878	23252.13
462.083	22830.24
462.289	23243.93
462.494	24444.04
462.7	24210.57
462.905	24947.84
463.111	26694.76
463.316	28025.94
463.522	28370
463.727	29803.58
463.932	30837.8
464.138	31925.27
464.343	32859.15
464.549	33088.52
464.754	35302.37
464.959	36682.7
465.165	37069.77
465.37	36488.15
465.575	36785.1
465.781	39314.34
465.986	40717.2
466.191	39787.42
466.397	40117.15
466.602	39134.12
466.807	41788.29
467.012	42285.95
467.218	42423.16
467.423	42881.91
467.628	44170.08
467.833	46162.75
468.038	45351.76
468.244	44557.14
468.449	46748.47
468.654	45937.48
468.859	46134.08
469.064	46048.07
469.269	44946.26
469.474	45103.95
469.679	46469.95
469.885	45419.34
470.09	45534.03
470.295	46123.84
470.5	45003.6
470.705	45288.27
470.91	43909.99
471.115	43840.36
471.32	44626.78
471.525	44057.44
471.73	42617.72
471.935	42820.47
472.139	41266.06
472.344	41407.37
472.549	41022.35
472.754	40356.76
472.959	39699.36
473.164	38167.48
473.369	37528.52
473.574	38564.79
473.778	37802.94
473.983	37080.01
474.188	36738
474.393	34800.62
474.598	34317.3
474.802	33670.14
475.007	33500.16
475.212	33027.08
475.417	31939.61
475.621	31564.83
475.826	31298.59
476.031	30422.06
476.235	29912.12
476.44	29770.81
476.645	29029.45
476.849	28642.38
477.054	28705.87
477.259	27563.1
477.463	27698.27
477.668	26686.57
477.872	26647.66
478.077	26309.74
478.282	25748.6
478.486	25056.39
478.691	24773.77
478.895	24716.42
479.1	24405.13
479.304	24472.71
479.509	23563.42
479.713	23864.47
479.918	23205.02
480.122	22975.65
480.326	22885.54
480.531	23010.46
480.735	22660.26
480.94	22273.2
481.144	23028.9
481.348	21773.49
481.553	21685.43
481.757	21492.92
481.961	21390.52
482.166	21724.34
482.37	21062.85
482.574	20892.87
482.778	20901.06
482.983	21259.45
483.187	20694.21
483.391	20688.07
483.595	20104.4
483.8	19864.78
484.004	20090.06
484.208	19903.7
484.412	19719.38
484.616	19438.81
484.821	19334.36
485.025	19168.48
485.229	18783.46
485.433	18738.4
485.637	18291.94
485.841	17906.93
486.045	17667.31
486.249	17743.09
486.453	17259.77
486.657	16983.29
486.861	16956.67
487.065	16323.85
487.269	16321.8
487.473	15774.99
487.677	16028.94
487.881	16078.09
488.085	15369.49
488.289	15283.48
488.493	14738.72
488.697	14759.2
488.901	14390.56
489.105	13972.78
489.309	14036.27
489.512	13706.54
489.716	13415.73
489.92	13202.74
490.124	12834.11
490.328	13110.58
490.531	12627.26
490.735	12451.14
490.939	11912.52
491.143	11935.05
491.346	11617.61
491.55	11533.65
491.754	11271.51
491.958	11228.5
492.161	10831.19
492.365	10689.88
492.569	10489.18
492.772	10569.05
492.976	10272.1
493.18	10110.31
493.383	10212.71
493.587	9956.71
493.79	9778.54
493.994	9520.49
494.197	9616.75
494.401	9569.65
494.605	9117.04
494.808	9358.71
495.012	9074.04
495.215	9143.67
495.419	9305.46
495.622	8772.99
495.825	9049.46
496.029	8748.41
496.232	8949.11
496.436	8762.75
496.639	8746.36
496.843	8813.95
497.046	8813.95
497.249	8930.68
497.453	8789.37
497.656	8834.43
497.859	8740.22
498.063	8586.62
498.266	9002.36
498.469	8738.17
498.673	8828.28
498.876	8732.03
499.079	8887.67
499.282	8686.97
499.485	9274.74
499.689	9008.5
499.892	9026.93
500.095	9018.74
500.298	9184.63
500.501	8934.78
500.705	9215.35
500.908	9215.35
501.111	9297.27
501.314	9336.18
501.517	9723.24
501.72	9805.16
501.923	9731.44
502.126	9889.13
502.329	9925.99
502.532	10265.96
502.735	9964.9
502.938	10151.27
503.141	10313.06
503.344	10497.38
503.547	10480.99
503.75	10759.52
503.953	10995.03
504.156	11033.94
504.359	11128.15
504.562	11316.56
504.765	11531.6
504.968	11672.91
505.17	11748.68
505.373	11840.84
505.576	12234.05
505.779	12234.05
505.982	12488
506.185	12766.53
506.387	12770.62
506.59	12979.51
506.793	13362.48
506.996	13473.07
507.198	13980.97
507.401	13948.2
507.604	14464.29
507.807	14605.6
508.009	14984.48
508.212	15254.81
508.415	15416.6
508.617	15777.04
508.82	15975.69
509.022	15811.85
509.225	16696.58
509.428	16887.04
509.63	17245.43
509.833	17489.14
510.035	18353.38
510.238	18353.38
510.44	18785.51
510.643	19137.76
510.845	19901.65
511.048	19932.37
511.25	20358.35
511.453	20937.92
511.655	21914.8
511.858	21791.92
512.06	22539.43
512.262	22789.28
512.465	23045.28
512.667	23909.52
512.87	24304.78
513.072	24816.77
513.274	25474.17
513.477	25773.17
513.679	26711.14
513.881	27024.48
514.084	27704.41
514.286	28191.83
514.488	28603.47
514.69	29815.87
514.893	30104.63
515.095	30630.96
515.297	31495.2
515.499	31867.93
515.701	32728.08
515.904	32982.02
516.106	34112.5
516.308	34679.79
516.51	35576.8
516.712	35800.03
516.914	36783.05
517.116	37503.94
517.318	37954.49
517.52	38769.58
517.722	39373.74
517.925	40176.54
518.127	40913.81
518.329	41268.11
518.531	42212.22
518.733	42681.2
518.935	43606.89
519.136	43821.92
519.338	45124.43
519.54	45384.52
519.742	46302.01
519.944	46885.68
520.146	47668.01
520.348	48253.73
520.55	48515.87
520.752	48958.23
520.954	50270.98
521.155	50234.11
521.357	50852.6
521.559	51573.49
521.761	52249.31
521.963	52585.18
522.164	53187.28
522.366	53426.9
522.568	54043.34
522.77	54303.43
522.971	55202.49
523.173	54735.55
523.375	55403.19
523.576	55212.73
523.778	55438
523.98	56130.22
524.181	56746.65
524.383	56275.62
524.584	57098.9
524.786	56738.46
524.988	56601.25
525.189	57119.38
525.391	57150.1
525.592	57387.67
525.794	57297.56
525.995	57213.59
526.197	57383.57
526.398	56971.93
526.6	57551.51
526.801	56631.97
527.003	56648.35
527.204	57105.05
527.406	56853.15
527.607	56038.06
527.808	56388.26
528.01	55349.94
528.211	55569.07
528.412	55808.68
528.614	55466.67
528.815	54356.67
529.016	54840
529.218	53570.25
529.419	53279.44
529.62	52656.86
529.822	52597.47
530.023	52255.46
530.224	51725.03
530.425	51221.23
530.626	50563.84
530.828	49888.01
531.029	50336.51
531.23	49371.92
531.431	48401.18
531.632	48386.85
531.833	47715.11
532.035	46846.77
532.236	46342.97
532.437	46152.51
532.638	45450.06
532.839	45015.89
533.04	44643.16
533.241	43535.21
533.442	44024.67
533.643	42746.74
533.844	42371.96
534.045	41943.94
534.246	40922
534.447	40747.92
534.648	40162.2
534.849	39705.51
535.05	38620.08
535.251	38286.26
535.451	37891.01
535.652	37473.22
535.853	37290.95
536.054	36647.89
536.255	36203.48
536.456	35326.95
536.657	35568.61
536.857	34786.29
537.058	34128.89
537.259	33901.56
537.46	33717.25
537.66	32760.84
537.861	32660.49
538.062	31771.68
538.263	31501.34
538.463	31284.26
538.664	31099.94
538.865	30540.85
539.065	30544.94
539.266	29496.38
539.466	29439.04
539.667	28720.2
539.868	28879.94
540.068	28494.93
540.269	27763.8
540.469	27833.43
540.67	27575.39
540.87	27180.13
541.071	26766.44
541.271	26352.75
541.472	26285.17
541.672	25631.86
541.873	25359.49
542.073	24958.08
542.274	25207.94
542.474	24597.64
542.675	24265.87
542.875	23981.2
543.075	23674.01
543.276	23643.29
543.476	23471.26
543.676	23235.74
543.877	22846.63
544.077	22586.54
544.277	22125.74
544.478	22035.63
544.678	22027.44
544.878	21654.71
545.078	21163.2
545.279	21013.7
545.479	20618.44
545.679	20466.89
545.879	20446.41
546.079	20040.91
546.28	19594.45
546.48	19614.93
546.68	19760.34
546.88	19490.01
547.08	19061.98
547.28	19121.37
547.48	18302.18
547.68	18201.83
547.88	18050.28
548.081	18027.76
548.281	17822.96
548.481	17261.82
548.681	17253.62
548.881	17097.98
549.081	16696.58
549.28	16817.41
549.48	16448.77
549.68	16080.14
549.88	16268.55
550.08	15592.72
550.28	15488.28
550.48	15287.57
550.68	14961.95
550.88	14677.28
551.08	14650.66
551.279	14617.89
551.479	14212.39
551.679	14181.67
551.879	13800.75
552.079	13694.26
552.278	13430.07
552.478	13280.57
552.678	12932.41
552.878	13018.43
553.077	12467.52
553.277	12268.87
553.477	12428.61
553.676	12057.93
553.876	11705.68
554.076	11763.02
554.275	11554.13
554.475	10999.13
554.674	11105.62
554.874	10823
555.074	10769.76
555.273	10628.45
555.473	10480.99
555.672	10237.28
555.872	10282.34
556.071	10214.76
556.271	9690.48
556.47	9764.2
556.67	9508.21
556.869	9457.01
557.068	9262.45
557.268	9088.37
557.467	8895.86
557.667	9008.5
557.866	8797.56
558.065	8263.04
558.265	8365.44
558.464	8127.88
558.663	8263.04
558.863	7880.07
559.062	7890.31
559.261	7708.04
559.461	7556.49
559.66	7284.11
559.859	7298.45
560.058	7097.75
560.258	7036.31
560.457	6991.25
560.656	7071.12
560.855	6870.42
561.054	6761.88
561.253	6704.54
561.453	6471.07
561.652	6296.99
561.851	6389.15
562.05	6149.54
562.249	6038.95
562.448	6084
562.647	5954.98
562.846	5909.93
563.045	5627.31
563.244	5574.06
563.443	5385.65
563.642	5524.91
563.841	5277.1
564.04	5322.16
564.239	5236.14
564.438	5029.3
564.637	5125.55
564.836	5096.88
565.035	4914.61
565.234	4785.59
565.432	4836.79
565.631	4861.37
565.83	4711.86
566.029	4562.36
566.228	4453.82
566.427	4611.51
566.625	4285.89
566.824	4259.26
567.023	4312.51
567.222	4042.18
567.42	4253.12
567.619	3982.79
567.818	4048.32
568.016	4232.64
568.215	3962.31
568.414	3952.07
568.612	3769.8
568.811	3747.27
569.01	3784.13
569.208	3540.43
569.407	3730.89
569.605	3575.24
569.804	3460.56
570.002	3565
570.201	3427.79
570.4	3360.2
570.598	3325.39
570.797	3313.1
570.995	3149.26
571.193	3141.07
571.392	3108.3
571.59	2928.08
571.789	3194.32
571.987	2928.08
572.186	3081.68
572.384	2897.36
572.582	2766.29
572.781	2897.36
572.979	2657.75
573.177	2756.05
573.376	2684.38
573.574	2606.55
573.772	2667.99
573.971	2371.04
574.169	2428.38
574.367	2502.11
574.565	2446.81
574.763	2403.8
574.962	2403.8
575.16	2209.25
575.358	2223.58
575.556	2172.38
575.754	2205.15
575.952	2182.62
576.151	2162.14
576.349	2239.97
576.547	1986.02
576.745	2174.43
576.943	2143.71
577.141	1967.59
577.339	1844.71
577.537	1981.92
577.735	1838.56
577.933	1930.72
578.131	1779.17
578.329	1893.86
578.527	1787.36
578.725	1904.1
578.923	1668.58
579.121	1723.88
579.319	1428.97
579.516	1611.24
579.714	1820.13
579.912	1605.1
580.11	1488.36
580.308	1570.28
580.506	1508.84
580.704	1406.44
580.901	1431.02
581.099	1566.18
581.297	1293.8
581.495	1439.21
581.692	1320.43
581.89	1502.7
582.088	1334.76
582.285	1330.67
582.483	1250.8
582.681	1355.24
582.878	1283.56
583.076	1250.8
583.274	1242.61
583.471	1328.62
583.669	1207.79
583.866	1117.68
584.064	1191.41
584.262	1080.82
584.459	1068.53
584.657	1144.3
584.854	1103.34
585.052	1170.93
585.249	1152.49
585.447	1107.44
585.644	1002.99
585.841	1195.5
586.039	1070.58
586.236	1043.95
586.434	1002.99
586.631	933.36
586.828	955.89
587.026	1013.23
587.223	849.4
587.42	925.17
587.618	941.55
587.815	945.65
588.012	878.07
588.21	839.16
588.407	890.35
588.604	902.64
588.801	906.74
588.999	869.87
589.196	867.83
589.393	798.2
589.59	806.39
589.787	787.96
589.984	882.16
590.182	785.91
590.379	775.67
590.576	820.72
590.773	802.29
590.97	779.76
591.167	888.31
591.364	841.2
591.561	777.72
591.758	826.87
591.955	808.44
592.152	828.92
592.349	753.14
592.546	703.99
592.743	724.47
592.94	800.24
593.137	763.38
593.334	792.05
593.531	757.24
593.727	859.63
593.924	804.34
594.121	747
594.318	812.53
594.515	919.03
594.712	925.17
594.908	902.64
595.105	783.86
595.302	863.73
595.499	861.68
595.696	994.8
595.892	820.72
596.089	916.98
596.286	888.31
596.482	914.93
596.679	1002.99
596.876	886.26
597.072	1031.66
597.269	1072.62
597.466	1027.57
597.662	1015.28
597.859	974.32
598.055	1181.17
598.252	1185.26
598.448	1269.23
598.645	1293.8
598.841	1279.47
599.038	1302
599.234	1455.59
599.431	1469.93
599.627	1478.12
599.824	1570.28
600.02	1594.86
600.217	1601
600.413	1721.83
600.609	1760.74
600.806	2035.17
601.002	1953.25
601.198	1846.76
601.395	2129.38
601.591	2014.69
601.787	2244.06
601.984	2303.45
602.18	2354.65
602.376	2442.71
602.572	2422.24
602.769	2762.2
602.965	2622.94
603.161	2782.68
603.357	2960.85
603.553	2971.09
603.75	3081.68
603.946	3155.41
604.142	3366.35
604.338	3417.55
604.534	3573.19
604.73	3616.2
604.926	3716.55
605.122	4009.41
605.318	3972.55
605.514	4273.6
605.71	4281.79
605.906	4425.15
606.102	4554.17
606.298	4631.99
606.494	4830.65
606.69	5029.3
606.886	5041.59
607.082	5301.68
607.278	5240.24
607.474	5508.52
607.67	5793.19
607.866	5723.56
608.062	6112.67
608.257	6323.62
608.453	6190.5
608.649	6423.97
608.845	6608.28
609.041	6796.7
609.236	6985.11
609.432	7159.19
609.628	7509.39
609.824	7468.43
610.019	7732.62
610.215	7939.46
610.411	8263.04
610.606	8594.81
610.802	8707.45
610.998	8887.67
611.193	9145.72
611.389	9155.96
611.584	9678.19
611.78	9563.5
611.976	9799.02
612.171	10415.46
612.367	10515.81
612.562	10861.91
612.758	11216.21
612.953	11363.67
613.149	11785.55
613.344	12105.03
613.539	12442.95
613.735	12879.16
613.93	13184.31
614.126	13272.37
614.321	13890.86
614.517	14097.7
614.712	14343.46
614.907	14873.89
615.103	15281.43
615.298	15547.67
615.493	16184.59
615.688	16082.19
615.884	17030.4
616.079	17097.98
616.274	17747.19
616.47	17673.46
616.665	18484.45
616.86	19148
617.055	19733.71
617.25	19979.47
617.445	20489.42
617.641	20956.35
617.836	21687.48
618.031	21800.12
618.226	22889.63
618.421	23110.82
618.616	23702.68
618.811	23729.3
619.006	24999.04
619.201	24898.69
619.396	25812.09
619.591	25652.34
619.786	26926.18
619.981	27239.52
620.176	28148.82
620.371	28304.46
620.566	29238.34
620.761	29836.34
620.956	30497.84
621.151	30491.69
621.346	31747.1
621.541	31824.92
621.735	32998.41
621.93	32986.12
622.125	33897.47
622.32	34087.93
622.515	34720.75
622.709	35515.36
622.904	36209.62
623.099	36694.99
623.294	37995.45
623.488	37940.16
623.683	39011.24
623.878	39095.21
624.072	40086.43
624.267	40623
624.462	41253.77
624.656	41773.95
624.851	42398.59
625.046	42859.38
625.24	43651.94
625.435	44036.96
625.629	44587.86
625.824	45202.25
626.018	46072.64
626.213	45857.6
626.407	46742.33
626.602	47053.62
626.796	48481.05
626.991	48456.48
627.185	48646.94
627.38	48968.47
627.574	48904.98
627.768	49533.71
627.963	49408.78
628.157	49693.45
628.352	50496.25
628.546	49959.69
628.74	50598.65
628.935	49838.86
629.129	50127.62
629.323	49404.69
629.517	49824.52
629.712	49500.94
629.906	49109.78
630.1	48276.26
630.294	48718.62
630.489	47614.76
630.683	46988.08
630.877	46048.07
631.071	45626.18
631.265	45366.09
631.459	44077.92
631.653	43123.57
631.848	42730.36
632.042	41079.69
632.236	40780.69
632.43	39398.31
632.624	38771.63
632.818	37389.25
633.012	35806.17
633.206	35017.71
633.4	34135.03
633.594	32494.61
633.788	32269.33
633.982	30563.37
634.176	29809.72
634.369	28468.3
634.563	27382.88
634.757	26330.22
634.951	25519.23
635.145	24380.56
635.339	23696.53
635.533	22647.97
635.726	21953.71
635.92	20847.81
636.114	20264.14
636.308	19209.43
636.501	18377.96
636.695	17577.2
636.889	16882.94
637.083	16336.13
637.276	15543.57
637.47	14533.92
637.664	14452
637.857	13841.71
638.051	13346.1
638.244	12897.6
638.438	12264.77
638.632	11951.43
638.825	11130.2
639.019	11013.46
639.212	10241.38
639.406	9917.8
639.599	9389.42
639.793	9086.33
639.986	8859
640.18	8633.72
640.373	8080.77
640.567	7869.83
640.76	7630.22
640.954	7320.98
641.147	6782.36
641.34	6696.35
641.534	6462.88
641.727	6311.33
641.92	5989.8
642.114	5852.58
642.307	5471.66
642.5	5275.06
642.694	5227.95
642.887	4869.56
643.08	4918.71
643.273	4531.64
643.467	4429.24
643.66	4142.53
643.853	4087.23
644.046	3857.86
644.239	3769.8
644.432	3495.37
644.626	3431.88
644.819	3317.2
645.012	3079.63
645.205	3179.98
645.398	3085.78
645.591	2928.08
645.784	2624.98
645.977	2536.92
646.17	2532.83
646.363	2354.65
646.556	2235.87
646.749	2311.64
646.942	2223.58
647.135	2035.17
647.328	1994.21
647.521	2029.03
647.714	1758.69
647.907	1930.72
648.099	1703.4
648.292	1838.56
648.485	1582.57
648.678	1719.78
648.871	1555.94
649.064	1486.31
649.256	1345
649.449	1199.6
649.642	1252.84
649.835	1201.65
650.027	1074.67
650.22	1222.13
650.413	1107.44
650.605	1185.26
650.798	1048.05
650.991	935.41
651.183	947.7
651.376	949.75
651.568	933.36
651.761	810.48
651.954	876.02
652.146	761.33
652.339	919.03
652.531	865.78
652.724	656.89
652.916	687.61
653.109	548.34
653.301	681.46
653.494	691.7
653.686	650.74
653.879	728.56
654.071	650.74
654.263	495.1
654.456	583.16
654.648	624.12
654.84	499.19
655.033	441.85
655.225	609.78
655.417	394.75
655.61	603.64
655.802	501.24
655.994	615.93
656.186	388.6
656.379	511.48
656.571	378.36
656.763	421.37
656.955	359.93
657.148	411.13
657.34	529.91
657.532	343.55
657.724	378.36
657.916	372.22
658.108	419.32
658.3	384.51
658.492	386.55
658.684	196.09
658.876	468.47
659.068	296.44
659.26	198.14
659.452	237.05
659.644	243.2
659.836	357.88
660.028	286.2
660.22	290.3
660.412	323.07
660.604	222.72
660.796	290.3
660.988	378.36
661.18	257.53
661.372	249.34
661.563	216.57
661.755	355.83
661.947	71.17
662.139	122.37
662.331	151.04
662.522	290.3
662.714	169.47
662.906	161.28
663.097	208.38
663.289	89.6
663.481	85.5
663.673	214.52
663.864	171.52
664.056	198.14
664.247	89.6
664.439	275.96
664.631	146.94
664.822	226.81
665.014	243.2
665.205	175.61
665.397	239.1
665.588	151.04
665.78	179.71
665.971	235
666.163	165.37
666.354	208.38
666.546	153.09
666.737	192
666.929	159.23
667.12	136.7
667.311	165.37
667.503	67.07
667.694	220.67
667.885	116.22
668.077	249.34
668.268	46.59
668.459	142.85
668.651	204.28
668.842	151.04
669.033	85.5
669.224	38.4
669.416	294.4
669.607	165.37
669.798	114.17
669.989	179.71
670.18	101.89
670.371	167.42
670.563	19.97
670.754	204.28
670.945	196.09
671.136	138.75
671.327	108.03
671.518	216.57
671.709	292.35
671.9	230.91
672.091	183.81
672.282	126.46
672.473	75.26
672.664	93.69
672.855	60.93
673.046	151.04
673.237	128.51
673.428	126.46
673.619	136.7
673.809	75.26
674	224.76
674.191	185.85
674.382	97.79
674.573	146.94
674.764	105.98
674.954	148.99
675.145	101.89
675.336	140.8
675.527	124.41
675.717	83.45
675.908	87.55
676.099	91.65
676.289	138.75
676.48	60.93
676.671	126.46
676.861	144.89
677.052	159.23
677.243	105.98
677.433	99.84
677.624	110.08
677.814	200.19
678.005	128.51
678.195	249.34
678.386	73.21
678.576	97.79
678.767	-27.14
678.957	132.61
679.148	183.81
679.338	251.39
679.529	183.81
679.719	97.79
679.909	249.34
680.1	237.05
680.29	126.46
680.481	56.83
680.671	159.23
680.861	95.74
681.052	183.81
681.242	132.61
681.432	220.67
681.622	110.08
681.813	120.32
682.003	148.99
682.193	105.98
682.383	97.79
682.573	124.41
682.764	142.85
682.954	144.89
683.144	253.44
683.334	124.41
683.524	169.47
683.714	247.29
683.904	175.61
684.094	101.89
684.284	108.03
684.474	253.44
684.664	192
684.854	112.13
685.044	173.57
685.234	128.51
685.424	181.76
685.614	110.08
685.804	232.96
685.994	210.43
686.184	81.41
686.374	159.23
686.564	128.51
686.753	138.75
686.943	50.69
687.133	163.33
687.323	105.98
687.513	120.32
687.702	144.89
687.892	128.51
688.082	302.59
688.272	296.44
688.461	210.43
688.651	208.38
688.841	153.09
689.03	134.65
689.22	136.7
689.41	284.16
689.599	148.99
689.789	73.21
689.979	275.96
690.168	175.61
690.358	212.48
690.547	146.94
690.737	124.41
690.926	220.67
691.116	202.24
691.305	288.25
691.495	179.71
691.684	122.37
691.874	208.38
692.063	200.19
692.252	263.68
692.442	181.76
692.631	122.37
692.82	222.72
693.01	220.67
693.199	171.52
693.388	142.85
693.578	222.72
693.767	144.89
693.956	163.33
694.146	142.85
694.335	165.37
694.524	155.13
694.713	226.81
694.902	112.13
695.092	120.32
695.281	159.23
695.47	148.99
695.659	136.7
695.848	103.93
696.037	136.7
696.226	294.4
696.415	177.66
696.604	296.44
696.793	218.62
696.982	114.17
697.171	318.97
697.36	120.32
697.549	112.13
697.738	60.93
697.927	99.84
698.116	62.98
698.305	230.91
698.494	165.37
698.683	77.31
698.872	298.49
699.061	183.81
699.25	169.47
699.438	173.57
699.627	46.59
699.816	241.15
700.005	93.69
700.193	60.93
700.382	255.48
700.571	183.81
700.76	114.17
700.948	202.24
701.137	200.19
701.326	267.77
701.514	91.65
701.703	255.48
701.892	103.93
702.08	347.64
702.269	128.51
702.457	167.42
702.646	214.52
702.834	153.09
703.023	175.61
703.212	185.85
703.4	134.65
703.589	169.47
703.777	81.41
703.965	48.64
704.154	161.28
704.342	54.78
704.531	60.93
704.719	151.04
704.907	239.1
705.096	97.79
705.284	93.69
705.472	128.51
705.661	204.28
705.849	173.57
706.037	292.35
706.226	120.32
706.414	185.85
706.602	38.4
706.79	142.85
706.979	118.27
707.167	130.56
707.355	122.37
707.543	187.9
707.731	179.71
707.919	114.17
708.107	77.31
708.296	110.08
708.484	159.23
708.672	261.63
708.86	204.28
709.048	114.17
709.236	87.55
709.424	183.81
709.612	204.28
709.8	79.36
709.988	167.42
710.176	241.15
710.364	220.67
710.551	206.33
710.739	204.28
710.927	163.33
711.115	112.13
711.303	255.48
711.491	181.76
711.679	42.5
711.866	218.62
712.054	87.55
712.242	192
712.43	245.24
712.617	77.31
712.805	259.58
712.993	173.57
713.181	28.16
713.368	142.85
713.556	214.52
713.744	99.84
713.931	298.49
714.119	226.81
714.306	171.52
714.494	161.28
714.682	116.22
714.869	89.6
715.057	118.27
715.244	50.69
715.432	247.29
715.619	46.59
715.807	169.47
715.994	60.93
716.182	114.17
716.369	179.71
716.556	247.29
716.744	99.84
716.931	87.55
717.119	169.47
717.306	108.03
717.493	194.05
717.681	148.99
717.868	122.37
718.055	220.67
718.242	183.81
718.43	155.13
718.617	271.87
718.804	122.37
718.991	196.09
719.179	192
719.366	230.91
719.553	189.95
719.74	151.04
719.927	155.13
720.114	263.68
720.301	112.13
720.488	65.02
720.676	56.83
720.863	196.09
721.05	308.73
721.237	222.72
721.424	232.96
721.611	192
721.798	54.78
721.985	89.6
722.172	226.81
722.358	155.13
722.545	208.38
722.732	132.61
722.919	247.29
723.106	144.89
723.293	198.14
723.48	187.9
723.667	83.45
723.853	251.39
724.04	194.05
724.227	208.38
724.414	134.65
724.6	239.1
724.787	265.72
724.974	282.11
725.161	323.07
725.347	97.79
725.534	214.52
725.72	282.11
725.907	220.67
726.094	257.53
726.28	114.17
726.467	163.33
726.653	165.37
726.84	312.83
727.027	321.02
727.213	134.65
727.4	210.43
727.586	273.92
727.773	171.52
727.959	138.75
728.145	142.85
728.332	120.32
728.518	89.6
728.705	187.9
728.891	249.34
729.077	208.38
729.264	144.89
729.45	171.52
729.636	187.9
729.823	241.15
730.009	263.68
730.195	257.53
730.382	171.52
730.568	148.99
730.754	187.9
730.94	196.09
731.126	126.46
731.313	224.76
731.499	204.28
731.685	261.63
731.871	216.57
732.057	140.8
732.243	247.29
732.429	239.1
732.615	370.17
732.801	253.44
732.987	185.85
733.173	140.8
733.359	157.18
733.545	142.85
733.731	185.85
733.917	312.83
734.103	214.52
734.289	198.14
734.475	159.23
734.661	374.27
734.847	290.3
735.033	153.09
735.219	265.72
735.404	255.48
735.59	189.95
735.776	210.43
735.962	222.72
736.148	208.38
736.333	353.79
736.519	183.81
736.705	265.72
736.89	183.81
737.076	208.38
737.262	77.31
737.447	173.57
737.633	216.57
737.819	187.9
738.004	177.66
738.19	206.33
738.375	212.48
738.561	261.63
738.747	187.9
738.932	134.65
739.118	388.6
739.303	187.9
739.489	241.15
739.674	124.41
739.859	157.18
740.045	261.63
740.23	204.28
740.416	148.99
740.601	185.85
740.786	206.33
740.972	146.94
741.157	194.05
741.342	126.46
741.528	134.65
741.713	341.5
741.898	132.61
742.084	232.96
742.269	218.62
742.454	331.26
742.639	239.1
742.824	153.09
743.01	349.69
743.195	355.83
743.38	224.76
743.565	222.72
743.75	206.33
743.935	204.28
744.12	265.72
744.305	163.33
744.49	122.37
744.675	189.95
744.86	138.75
745.045	316.92
745.23	206.33
745.415	200.19
745.6	230.91
745.785	192
745.97	296.44
746.155	177.66
746.34	267.77
746.525	271.87
746.71	318.97
746.895	142.85
747.079	161.28
747.264	105.98
747.449	273.92
747.634	273.92
747.819	226.81
748.003	228.86
748.188	95.74
748.373	208.38
748.557	292.35
748.742	196.09
748.927	228.86
749.111	218.62
749.296	226.81
749.481	142.85
749.665	187.9
749.85	157.18
750.034	204.28
750.219	230.91
750.404	110.08
750.588	269.82
750.773	116.22
750.957	99.84
751.141	175.61
751.326	146.94
751.51	34.3
751.695	173.57
751.879	142.85
752.064	214.52
752.248	112.13
752.432	255.48
752.617	220.67
752.801	243.2
752.985	132.61
753.17	259.58
753.354	173.57
753.538	185.85
753.722	130.56
753.907	99.84
754.091	75.26
754.275	175.61
754.459	52.74
754.643	95.74
754.828	269.82
755.012	200.19
755.196	-0.51
755.38	97.79
755.564	9.73
755.748	212.48
755.932	126.46
756.116	206.33
756.3	153.09
756.484	110.08
756.668	114.17
756.852	56.83
757.036	112.13
757.22	173.57
757.404	116.22
757.588	67.07
757.772	81.41
757.956	95.74
758.14	241.15
758.323	5.63
758.507	157.18
758.691	93.69
758.875	249.34
759.059	155.13
759.242	5.63
759.426	79.36
759.61	116.22
759.794	91.65
759.977	177.66
760.161	376.31
760.345	196.09
760.528	192
760.712	181.76
760.895	126.46
761.079	204.28
761.263	28.16
761.446	48.64
761.63	69.12
761.813	206.33
761.997	13.82
762.18	30.21
762.364	165.37
762.547	-0.51
762.731	83.45
762.914	122.37
763.098	87.55
763.281	24.06
763.464	44.54
763.648	87.55
763.831	91.65
764.015	50.69
764.198	89.6
764.381	-66.05
764.564	44.54
764.748	138.75
764.931	120.32
765.114	79.36
765.297	192
765.481	28.16
765.664	22.02
765.847	73.21
766.03	208.38
766.213	-4.61
766.397	73.21
766.58	36.35
766.763	120.32
766.946	79.36
767.129	65.02
767.312	60.93
767.495	108.03
767.678	-0.51
767.861	65.02
768.044	122.37
768.227	28.16
768.41	24.06
768.593	108.03
768.776	62.98
768.959	56.83
769.142	163.33
769.324	46.59
769.507	50.69
769.69	-35.33
769.873	89.6
770.056	187.9
770.239	44.54
770.421	101.89
770.604	212.48
770.787	32.26
770.97	110.08
771.152	22.02
771.335	85.5
771.518	65.02
771.7	116.22
771.883	126.46
772.066	40.45
772.248	38.4
772.431	146.94
772.613	126.46
772.796	46.59
772.978	95.74
773.161	179.71
773.343	56.83
773.526	122.37
773.708	17.92
773.891	-20.99
774.073	19.97
774.256	67.07
774.438	153.09
774.621	13.82
774.803	30.21
774.985	34.3
775.168	38.4
775.35	73.21
775.532	50.69
775.715	-8.7
775.897	56.83
776.079	56.83
776.261	95.74
776.444	34.3
776.626	75.26
776.808	24.06
776.99	40.45
777.173	17.92
777.355	73.21
777.537	56.83
777.719	7.68
777.901	15.87
778.083	13.82
778.265	-27.14
778.447	165.37
778.629	-6.66
778.811	-4.61
778.993	130.56
779.175	167.42
779.357	97.79
779.539	-78.33
779.721	22.02
779.903	60.93
780.085	-4.61
780.267	42.5
780.449	87.55
780.631	81.41
780.812	71.17
780.994	40.45
781.176	83.45
781.358	44.54
781.54	-35.33
781.721	48.64
781.903	116.22
782.085	-16.9
782.267	91.65
782.448	-84.48
782.63	17.92
782.812	-10.75
782.993	148.99
783.175	15.87
783.357	1.54
783.538	65.02
783.72	-33.28
783.901	44.54
784.083	101.89
784.264	36.35
784.446	-12.8
784.627	-78.33
784.809	54.78
784.99	-31.23
785.172	34.3
785.353	-6.66
785.535	56.83
785.716	67.07
785.897	-33.28
786.079	11.78
786.26	89.6
786.441	69.12
786.623	-57.86
786.804	-2.56
786.985	-8.7
787.167	17.92
787.348	19.97
787.529	60.93
787.71	132.61
787.891	60.93
788.073	-51.71
788.254	-74.24
788.435	83.45
788.616	32.26
788.797	-162.3
788.978	-23.04
789.159	-10.75
789.34	120.32
789.522	36.35
789.703	-25.09
789.884	-33.28
790.065	-27.14
790.246	148.99
790.427	-49.66
790.607	48.64
790.788	114.17
790.969	-90.62
791.15	175.61
791.331	-23.04
791.512	-31.23
791.693	-37.38
791.874	7.68
792.054	171.52
792.235	36.35
792.416	-76.29
792.597	32.26
792.778	36.35
792.958	44.54
793.139	-23.04
793.32	60.93
793.5	-49.66
793.681	105.98
793.862	101.89
794.042	40.45
794.223	-80.38
794.404	19.97
794.584	-53.76
794.765	22.02
794.945	-16.9
795.126	110.08
795.306	73.21
795.487	-39.42
795.667	30.21
795.848	-20.99
796.028	9.73
796.209	3.58
796.389	28.16
796.57	44.54
796.75	1.54
796.93	-8.7
797.111	-80.38
797.291	-0.51
797.471	81.41
797.652	1.54
797.832	-57.86
798.012	99.84
798.192	-68.09
798.373	-98.81
798.553	32.26
798.733	-8.7
798.913	-29.18
799.093	-14.85
799.274	81.41
799.454	54.78
799.634	54.78
799.814	13.82
799.994	42.5
800.174	153.09
800.354	3.58
800.534	-92.67
800.714	50.69
800.894	-20.99
801.074	-49.66
801.254	-20.99
801.434	77.31
801.614	-8.7
801.794	-107.01
801.974	1721.83
802.154	-41.47
802.334	65.02
802.514	-96.77
802.693	52.74
802.873	30.21
803.053	-16.9
803.233	-2.56
803.413	30.21
803.592	9.73
803.772	15.87
803.952	5.63
804.131	-115.2
804.311	85.5
804.491	-41.47
804.67	-119.29
804.85	-55.81
805.03	32.26
805.209	44.54
805.389	69.12
805.568	-102.91
805.748	-12.8
805.928	-49.66
806.107	99.84
806.287	-6.66
806.466	81.41
806.646	-2.56
806.825	-8.7
807.004	46.59
807.184	38.4
807.363	-33.28
807.543	7.68
807.722	-4.61
807.901	79.36
808.081	54.78
808.26	-158.21
808.439	-16.9
808.619	-53.76
808.798	-49.66
808.977	34.3
809.156	110.08
809.336	26.11
809.515	36.35
809.694	-74.24
809.873	-20.99
810.052	93.69
810.231	114.17
810.411	42.5
810.59	97.79
810.769	-141.82
810.948	-20.99
811.127	-123.39
811.306	-37.38
811.485	-0.51
811.664	116.22
811.843	15.87
812.022	-45.57
812.201	-18.94
812.38	-49.66
812.559	-6.66
812.737	97.79
812.916	-43.52
813.095	-152.06
813.274	19.97
813.453	46.59
813.632	15.87
813.811	99.84
813.989	-57.86
814.168	99.84
814.347	-72.19
814.526	-12.8
814.704	95.74
814.883	50.69
815.062	-23.04
815.24	40.45
815.419	-37.38
815.598	69.12
815.776	-59.9
815.955	-53.76
816.133	-119.29
816.312	-18.94
816.49	-43.52
816.669	-20.99
816.847	26.11
817.026	50.69
817.204	-29.18
817.383	-31.23
817.561	-35.33
817.74	26.11
817.918	38.4
818.097	-25.09
818.275	-94.72
818.453	42.5
818.632	24.06
818.81	-74.24
818.988	-78.33
819.167	-41.47
819.345	-80.38
819.523	-127.49
819.701	48.64
819.879	-8.7
820.058	-14.85
820.236	-37.38
820.414	-45.57
820.592	-20.99
820.77	65.02
820.948	-8.7
821.127	-135.68
821.305	15.87
821.483	-107.01
821.661	83.45
821.839	30.21
822.017	-6.66
822.195	-76.29
822.373	30.21
822.551	-35.33
822.729	56.83
822.907	-14.85
823.085	9.73
823.262	42.5
823.44	1.54
823.618	56.83
823.796	-14.85
823.974	-174.59
824.152	-51.71
824.329	17.92
824.507	-0.51
824.685	52.74
824.863	-107.01
825.04	-12.8
825.218	71.17
825.396	-27.14
825.574	-6.66
825.751	32.26
825.929	83.45
826.107	-47.62
826.284	40.45
826.462	87.55
826.639	-82.43
826.817	-76.29
826.994	-47.62
827.172	-160.25
827.349	130.56
827.527	101.89
827.704	42.5
827.882	69.12
828.059	15.87
828.237	-10.75
828.414	48.64
828.591	-61.95
828.769	5.63
828.946	-33.28
829.124	-0.51
829.301	32.26
829.478	-55.81
829.655	65.02
829.833	-12.8
830.01	-125.44
830.187	85.5
830.364	54.78
830.542	36.35
830.719	101.89
830.896	3.58
831.073	15.87
831.25	-4.61
831.427	1.54
831.604	62.98
831.782	-100.86
831.959	52.74
832.136	-86.53
832.313	3.58
832.49	-100.86
832.667	15.87
832.844	-90.62
833.021	44.54
833.198	56.83
833.374	32.26
833.551	9.73
833.728	-53.76
833.905	85.5
834.082	-57.86
834.259	-66.05
834.436	46.59
834.612	-84.48
834.789	65.02
834.966	85.5
835.143	-29.18
835.319	9.73
835.496	24.06
835.673	-66.05
835.85	95.74
836.026	32.26
836.203	83.45
836.38	15.87
836.556	-41.47
836.733	-74.24
836.909	165.37
837.086	-96.77
837.262	-96.77
837.439	-70.14
837.616	58.88
837.792	9.73
837.968	15.87
838.145	-178.69
838.321	9.73
838.498	30.21
838.674	36.35
838.851	-20.99
839.027	-29.18
839.203	48.64
839.38	56.83
839.556	-43.52
839.732	34.3
839.909	11.78
840.085	-16.9
840.261	-49.66
840.437	15.87
840.614	-6.66
840.79	91.65
840.966	-6.66
841.142	-90.62
841.318	-29.18
841.494	-45.57
841.671	9.73
841.847	-68.09
842.023	-82.43
842.199	38.4
842.375	54.78
842.551	-162.3
842.727	-98.81
842.903	126.46
843.079	-64
843.255	85.5
843.431	38.4
843.607	24.06
843.783	-139.77
843.959	65.02
844.134	-12.8
844.31	142.85
844.486	-70.14
844.662	-16.9
844.838	-49.66
845.013	28.16
845.189	19.97
845.365	60.93
845.541	17.92
845.716	-37.38
845.892	52.74
846.068	-43.52
846.244	-39.42
846.419	-23.04
846.595	-64
846.77	-90.62
846.946	110.08
847.122	-90.62
847.297	22.02
847.473	124.41
847.648	-143.87
847.824	46.59
847.999	-70.14
848.175	-39.42
848.35	-27.14
848.526	89.6
848.701	17.92
848.876	105.98
849.052	89.6
849.227	-39.42
849.403	-51.71
849.578	-31.23
849.753	24.06
849.929	-0.51
850.104	-35.33
850.279	-96.77
850.454	38.4
850.63	56.83
850.805	-29.18
850.98	-68.09
851.155	-82.43
851.33	46.59
851.505	-98.81
851.681	60.93
851.856	-25.09
852.031	38.4
852.206	19.97
852.381	-102.91
852.556	-25.09
852.731	95.74
852.906	77.31
853.081	87.55
853.256	142.85
853.431	-49.66
853.606	-76.29
853.781	9.73
853.956	-154.11
854.131	7.68
854.305	-41.47
854.48	-107.01
854.655	-66.05
854.83	-156.16
855.005	-70.14
855.18	26.11
855.354	-25.09
855.529	-64
855.704	-88.57
855.879	19.97
856.053	-66.05
856.228	-20.99
856.403	-147.97
856.577	-10.75
856.752	-139.77
856.926	-39.42
857.101	-12.8
857.276	-64
857.45	-29.18
857.625	69.12
857.799	-51.71
857.974	-76.29
858.148	-84.48
858.323	-53.76
858.497	-16.9
858.672	-59.9
858.846	-10.75
859.02	-51.71
859.195	-115.2
859.369	-64
859.543	79.36
859.718	-2.56
859.892	71.17
860.066	19.97
860.241	-20.99
860.415	13.82
860.589	-16.9
860.763	-6.66
860.938	81.41
861.112	93.69
861.286	-31.23
861.46	-20.99
861.634	-127.49
861.808	108.03
861.982	1.54
862.157	-100.86
862.331	-68.09
862.505	-123.39
862.679	-66.05
862.853	-4.61
863.027	-25.09
863.201	173.57
863.375	-51.71
863.549	69.12
863.722	17.92
863.896	169.47
864.07	3.58
864.244	-43.52
864.418	22.02
864.592	-33.28
864.766	-31.23
864.939	-41.47
865.113	-57.86
865.287	30.21
865.461	-94.72
865.634	11.78
865.808	-64
865.982	-96.77
866.156	-82.43
866.329	-160.25
866.503	7.68
866.676	28.16
866.85	-6.66
867.024	-16.9
867.197	26.11
867.371	99.84
867.544	-16.9
867.718	-68.09
867.891	44.54
868.065	-66.05
868.238	-55.81
868.412	103.93
868.585	-20.99
868.759	-123.39
868.932	-27.14
869.105	-102.91
869.279	50.69
869.452	-131.58
869.625	34.3
869.799	-86.53
869.972	-115.2
870.145	36.35
870.319	28.16
870.492	-45.57
870.665	-0.51
870.838	-43.52
871.011	-150.01
871.185	-86.53
871.358	-100.86
871.531	-64
871.704	13.82
871.877	19.97
872.05	-2.56
872.223	-150.01
872.396	7.68
872.569	-43.52
872.742	-37.38
872.915	17.92
873.088	-70.14
873.261	-61.95
873.434	-43.52
873.607	-88.57
873.78	89.6
873.953	-53.76
874.126	-0.51
874.299	46.59
874.471	-31.23
874.644	32.26
874.817	81.41
874.99	99.84
875.163	-49.66
875.335	67.07
875.508	-100.86
875.681	128.51
875.853	-141.82
876.026	99.84
876.199	85.5
876.371	-4.61
876.544	7.68
876.717	-29.18
876.889	-88.57
877.062	38.4
877.234	-88.57
877.407	-88.57
877.579	-27.14
877.752	-29.18
877.924	73.21
878.097	34.3
878.269	5.63
878.442	24.06
878.614	-0.51
878.786	-94.72
878.959	-45.57
879.131	-31.23
879.303	-176.64
879.476	-33.28
879.648	22.02
879.82	-76.29
879.993	-23.04
880.165	-31.23
880.337	-72.19
880.509	-45.57
880.681	-111.1
880.854	-23.04
881.026	56.83
881.198	110.08
881.37	-76.29
881.542	26.11
881.714	-20.99
881.886	-25.09
882.058	69.12
882.23	-70.14
882.402	-51.71
882.574	-61.95
882.746	22.02
882.918	46.59
883.09	91.65
883.262	-64
883.434	-23.04
883.606	-123.39
883.778	-35.33
883.95	36.35
884.122	-94.72
884.293	54.78
884.465	-18.94
884.637	58.88
884.809	-37.38
884.98	73.21
885.152	-29.18
885.324	118.27
885.496	-27.14
885.667	-35.33
885.839	-51.71
886.011	79.36
886.182	75.26
886.354	3.58
886.525	7.68
886.697	-37.38
886.869	-80.38
887.04	-20.99
887.212	50.69
887.383	187.9
887.555	-47.62
887.726	-82.43
887.897	-121.34
888.069	-18.94
888.24	26.11
888.412	-72.19
888.583	-27.14
888.754	73.21
888.926	-57.86
889.097	-64
889.268	-147.97
889.44	-16.9
889.611	-104.96
889.782	-94.72
889.953	-55.81
890.125	99.84
890.296	-109.05
890.467	-61.95
890.638	-18.94
890.809	-92.67
890.98	-113.15
891.151	-14.85
891.323	101.89
891.494	-72.19
891.665	7.68
891.836	-66.05
892.007	13.82
892.178	38.4
892.349	11.78
892.52	19.97
892.691	9.73
892.862	-94.72
893.032	-109.05
893.203	-35.33
893.374	11.78
893.545	-27.14
893.716	-70.14
893.887	40.45
894.057	-16.9
894.228	-86.53
894.399	-53.76
894.57	42.5
894.74	-4.61
894.911	34.3
895.082	-57.86
895.253	-45.57
895.423	-33.28
895.594	3.58
895.764	3.58
895.935	-49.66
896.106	-4.61
896.276	-80.38
896.447	-29.18
896.617	-90.62
896.788	-68.09
896.958	-92.67
897.129	1.54
897.299	-64
897.47	36.35
897.64	91.65
897.81	40.45
897.981	91.65
898.151	-14.85
898.322	-14.85
898.492	17.92
898.662	-88.57
898.832	9.73
899.003	-23.04
899.173	13.82
899.343	-92.67
899.513	-137.73
