Data from USB4F104151__301__11-21-37-825.txt Node

Date: Wed Feb 26 11:21:37 EST 2025
User: louis
Spectrometer: USB4F10415
Trigger mode: 4
Integration Time (sec): 1.000000E-1
Scans to average: 1
Electric dark correction enabled: true
Nonlinearity correction enabled: false
Boxcar width: 0
XAxis mode: Wavelengths
Number of Pixels in Spectrum: 3648
>>>>>Begin Spectral Data<<<<<
178.204	-311.46
178.424	-311.46
178.644	-311.46
178.864	-383.14
179.084	-413.86
179.304	-41.13
179.524	-30.89
179.744	-16.55
179.964	8.02
180.184	1.88
180.404	94.04
180.624	-55.47
180.844	-18.6
181.064	3.93
181.283	36.69
181.503	-30.89
181.723	48.98
181.943	-30.89
182.163	225.11
182.383	1.88
182.602	147.28
182.822	184.15
183.042	57.17
183.262	3.93
183.482	-14.51
183.701	-4.27
183.921	24.4
184.141	-4.27
184.361	147.28
184.58	120.66
184.8	163.67
185.02	-20.65
185.239	169.81
185.459	71.51
185.679	59.22
185.898	-12.46
186.118	110.42
186.338	61.27
186.557	192.34
186.777	-80.04
186.997	44.88
187.216	36.69
187.436	241.49
187.655	16.21
187.875	106.32
188.095	24.4
188.314	137.04
188.534	89.94
188.753	-77.99
188.973	118.61
189.192	225.11
189.412	67.41
189.631	-26.79
189.851	94.04
190.07	128.85
190.29	51.03
190.509	10.07
190.729	104.28
190.948	182.1
191.168	257.87
191.387	79.7
191.607	26.45
191.826	96.08
192.045	48.98
192.265	79.7
192.484	126.8
192.704	57.17
192.923	-32.94
193.142	221.01
193.362	120.66
193.581	212.82
193.8	87.89
194.02	14.17
194.239	91.99
194.458	137.04
194.678	12.12
194.897	51.03
195.116	63.32
195.335	3.93
195.555	12.12
195.774	-39.08
195.993	188.24
196.212	108.37
196.432	-47.27
196.651	8.02
196.87	40.79
197.089	261.97
197.308	34.64
197.528	104.28
197.747	-16.55
197.966	132.95
198.185	175.95
198.404	73.56
198.623	124.76
198.842	91.99
199.062	77.65
199.281	69.46
199.5	77.65
199.719	81.75
199.938	104.28
200.157	87.89
200.376	151.38
200.595	200.53
200.814	106.32
201.033	1.88
201.252	163.67
201.471	36.69
201.69	161.62
201.909	48.98
202.128	73.56
202.347	81.75
202.566	-12.46
202.785	-26.79
203.004	10.07
203.223	276.31
203.442	89.94
203.661	-47.27
203.879	98.13
204.098	126.8
204.317	-10.41
204.536	180.05
204.755	77.65
204.974	87.89
205.193	-24.75
205.411	112.47
205.63	57.17
205.849	102.23
206.068	44.88
206.287	-6.31
206.505	48.98
206.724	55.12
206.943	48.98
207.162	-0.17
207.381	38.74
207.599	79.7
207.818	81.75
208.037	22.36
208.255	94.04
208.474	94.04
208.693	83.8
208.911	-8.36
209.13	128.85
209.349	-2.22
209.567	87.89
209.786	65.36
210.005	143.19
210.223	46.93
210.442	-90.28
210.661	91.99
210.879	110.42
211.098	-14.51
211.316	16.21
211.535	120.66
211.753	51.03
211.972	151.38
212.191	-26.79
212.409	3.93
212.628	108.37
212.846	-30.89
213.065	61.27
213.283	141.14
213.502	91.99
213.72	83.8
213.938	61.27
214.157	-6.31
214.375	178
214.594	-6.31
214.812	75.6
215.031	38.74
215.249	53.08
215.467	51.03
215.686	108.37
215.904	30.55
216.122	163.67
216.341	143.19
216.559	32.6
216.778	196.43
216.996	155.47
217.214	63.32
217.432	18.26
217.651	3.93
217.869	77.65
218.087	69.46
218.306	-26.79
218.524	61.27
218.742	30.55
218.96	132.95
219.179	30.55
219.397	-6.31
219.615	206.67
219.833	145.24
220.051	-26.79
220.27	163.67
220.488	75.6
220.706	79.7
220.924	-30.89
221.142	1.88
221.36	71.51
221.578	114.52
221.796	53.08
222.015	22.36
222.233	26.45
222.451	188.24
222.669	-30.89
222.887	42.84
223.105	18.26
223.323	36.69
223.541	-26.79
223.759	77.65
223.977	75.6
224.195	257.87
224.413	118.61
224.631	112.47
224.849	83.8
225.067	212.82
225.285	-14.51
225.503	65.36
225.721	-47.27
225.939	91.99
226.157	16.21
226.375	225.11
226.592	-30.89
226.81	63.32
227.028	151.38
227.246	178
227.464	71.51
227.682	124.76
227.9	51.03
228.117	81.75
228.335	102.23
228.553	69.46
228.771	-8.36
228.989	71.51
229.206	98.13
229.424	40.79
229.642	-2.22
229.86	24.4
230.077	184.15
230.295	94.04
230.513	104.28
230.731	57.17
230.948	235.35
231.166	202.58
231.384	85.84
231.601	32.6
231.819	186.19
232.037	-20.65
232.254	12.12
232.472	3.93
232.689	32.6
232.907	102.23
233.125	1.88
233.342	51.03
233.56	63.32
233.777	120.66
233.995	-24.75
234.213	233.3
234.43	98.13
234.648	18.26
234.865	53.08
235.083	102.23
235.3	100.18
235.518	100.18
235.735	157.52
235.953	141.14
236.17	42.84
236.388	53.08
236.605	3.93
236.822	126.8
237.04	149.33
237.257	71.51
237.475	-6.31
237.692	22.36
237.909	94.04
238.127	5.97
238.344	141.14
238.562	24.4
238.779	-2.22
238.996	-45.23
239.214	85.84
239.431	161.62
239.648	30.55
239.865	53.08
240.083	77.65
240.3	65.36
240.517	5.97
240.735	106.32
240.952	122.71
241.169	116.56
241.386	102.23
241.603	-24.75
241.821	-69.8
242.038	85.84
242.255	149.33
242.472	36.69
242.689	22.36
242.907	135
243.124	102.23
243.341	116.56
243.558	-10.41
243.775	-10.41
243.992	-2.22
244.209	89.94
244.426	163.67
244.643	106.32
244.86	40.79
245.078	91.99
245.295	89.94
245.512	44.88
245.729	-14.51
245.946	53.08
246.163	100.18
246.38	-10.41
246.597	100.18
246.814	51.03
247.031	36.69
247.248	83.8
247.464	79.7
247.681	3.93
247.898	122.71
248.115	81.75
248.332	26.45
248.549	194.39
248.766	159.57
248.983	96.08
249.2	87.89
249.417	124.76
249.633	83.8
249.85	34.64
250.067	38.74
250.284	77.65
250.501	71.51
250.717	114.52
250.934	3.93
251.151	65.36
251.368	38.74
251.585	124.76
251.801	44.88
252.018	-45.23
252.235	83.8
252.451	-43.18
252.668	-12.46
252.885	85.84
253.102	22.36
253.318	22.36
253.535	44.88
253.752	-10.41
253.968	32.6
254.185	-10.41
254.401	128.85
254.618	77.65
254.835	-47.27
255.051	128.85
255.268	130.9
255.484	57.17
255.701	63.32
255.917	83.8
256.134	36.69
256.351	71.51
256.567	-18.6
256.784	81.75
257	-45.23
257.217	130.9
257.433	124.76
257.65	77.65
257.866	137.04
258.082	-37.03
258.299	-16.55
258.515	98.13
258.732	-10.41
258.948	-53.42
259.165	81.75
259.381	-2.22
259.597	91.99
259.814	32.6
260.03	40.79
260.246	118.61
260.463	120.66
260.679	126.8
260.895	24.4
261.112	34.64
261.328	51.03
261.544	5.97
261.761	112.47
261.977	3.93
262.193	20.31
262.409	83.8
262.626	46.93
262.842	44.88
263.058	42.84
263.274	165.71
263.49	100.18
263.707	-0.17
263.923	130.9
264.139	-6.31
264.355	51.03
264.571	173.91
264.787	110.42
265.004	192.34
265.22	18.26
265.436	-16.55
265.652	-22.7
265.868	53.08
266.084	-53.42
266.3	36.69
266.516	-12.46
266.732	89.94
266.948	67.41
267.164	-37.03
267.38	83.8
267.596	106.32
267.812	161.62
268.028	63.32
268.244	51.03
268.46	1.88
268.676	34.64
268.892	-28.84
269.108	-75.95
269.324	-0.17
269.54	8.02
269.756	159.57
269.972	40.79
270.188	-34.99
270.403	-20.65
270.619	3.93
270.835	94.04
271.051	77.65
271.267	48.98
271.483	75.6
271.698	149.33
271.914	106.32
272.13	69.46
272.346	-14.51
272.562	77.65
272.777	122.71
272.993	40.79
273.209	10.07
273.425	89.94
273.64	-65.71
273.856	94.04
274.072	28.5
274.287	-71.85
274.503	100.18
274.719	110.42
274.934	63.32
275.15	-65.71
275.366	112.47
275.581	26.45
275.797	77.65
276.012	98.13
276.228	85.84
276.444	42.84
276.659	110.42
276.875	36.69
277.09	89.94
277.306	-16.55
277.521	48.98
277.737	73.56
277.952	102.23
278.168	61.27
278.383	118.61
278.599	143.19
278.814	67.41
279.03	8.02
279.245	83.8
279.461	3.93
279.676	73.56
279.892	-24.75
280.107	-92.33
280.322	12.12
280.538	51.03
280.753	-43.18
280.969	75.6
281.184	61.27
281.399	81.75
281.615	30.55
281.83	8.02
282.045	-75.95
282.26	10.07
282.476	26.45
282.691	157.52
282.906	67.41
283.122	73.56
283.337	22.36
283.552	96.08
283.767	-12.46
283.983	126.8
284.198	40.79
284.413	106.32
284.628	-104.62
284.843	75.6
285.058	126.8
285.274	100.18
285.489	48.98
285.704	85.84
285.919	-0.17
286.134	69.46
286.349	-10.41
286.564	85.84
286.779	178
286.995	34.64
287.21	24.4
287.425	73.56
287.64	71.51
287.855	118.61
288.07	28.5
288.285	108.37
288.5	159.57
288.715	147.28
288.93	18.26
289.145	-86.19
289.36	73.56
289.575	20.31
289.79	102.23
290.004	28.5
290.219	165.71
290.434	-22.7
290.649	-2.22
290.864	18.26
291.079	-28.84
291.294	40.79
291.509	38.74
291.724	10.07
291.938	26.45
292.153	67.41
292.368	65.36
292.583	77.65
292.798	118.61
293.012	106.32
293.227	55.12
293.442	51.03
293.657	42.84
293.871	8.02
294.086	75.6
294.301	247.63
294.516	145.24
294.73	69.46
294.945	-59.56
295.16	108.37
295.374	40.79
295.589	114.52
295.804	-39.08
296.018	53.08
296.233	159.57
296.447	75.6
296.662	-12.46
296.877	61.27
297.091	130.9
297.306	20.31
297.52	3.93
297.735	46.93
297.949	141.14
298.164	143.19
298.378	65.36
298.593	-0.17
298.807	48.98
299.022	116.56
299.236	48.98
299.451	126.8
299.665	-4.27
299.88	110.42
300.094	106.32
300.309	-45.23
300.523	18.26
300.737	8.02
300.952	130.9
301.166	83.8
301.381	8.02
301.595	10.07
301.809	-8.36
302.024	57.17
302.238	-26.79
302.452	120.66
302.667	-16.55
302.881	167.76
303.095	118.61
303.309	85.84
303.524	40.79
303.738	20.31
303.952	36.69
304.166	65.36
304.381	-94.38
304.595	151.38
304.809	81.75
305.023	34.64
305.237	96.08
305.452	-0.17
305.666	167.76
305.88	71.51
306.094	102.23
306.308	171.86
306.522	155.47
306.736	61.27
306.95	34.64
307.164	20.31
307.379	16.21
307.593	46.93
307.807	231.25
308.021	141.14
308.235	34.64
308.449	-20.65
308.663	3.93
308.877	184.15
309.091	51.03
309.305	51.03
309.519	-22.7
309.733	75.6
309.947	-49.32
310.161	24.4
310.374	137.04
310.588	149.33
310.802	-34.99
311.016	3.93
311.23	30.55
311.444	-82.09
311.658	71.51
311.872	128.85
312.085	104.28
312.299	114.52
312.513	128.85
312.727	85.84
312.941	-55.47
313.154	61.27
313.368	73.56
313.582	75.6
313.796	114.52
314.009	24.4
314.223	130.9
314.437	32.6
314.651	124.76
314.864	59.22
315.078	26.45
315.292	-22.7
315.505	-14.51
315.719	57.17
315.933	139.09
316.146	-61.61
316.36	-12.46
316.573	175.95
316.787	61.27
317.001	5.97
317.214	8.02
317.428	63.32
317.641	42.84
317.855	28.5
318.068	40.79
318.282	22.36
318.495	169.81
318.709	77.65
318.922	14.17
319.136	169.81
319.349	161.62
319.563	-4.27
319.776	108.37
319.99	-61.61
320.203	124.76
320.417	81.75
320.63	89.94
320.843	182.1
321.057	81.75
321.27	-49.32
321.483	163.67
321.697	149.33
321.91	89.94
322.124	73.56
322.337	65.36
322.55	8.02
322.763	100.18
322.977	8.02
323.19	1.88
323.403	110.42
323.617	110.42
323.83	141.14
324.043	12.12
324.256	-10.41
324.469	-30.89
324.683	116.56
324.896	-32.94
325.109	91.99
325.322	-20.65
325.535	108.37
325.748	137.04
325.962	16.21
326.175	85.84
326.388	159.57
326.601	83.8
326.814	48.98
327.027	42.84
327.24	182.1
327.453	-16.55
327.666	130.9
327.879	165.71
328.092	100.18
328.305	40.79
328.518	79.7
328.731	-45.23
328.944	-28.84
329.157	77.65
329.37	85.84
329.583	208.72
329.796	118.61
330.009	48.98
330.222	94.04
330.435	28.5
330.648	63.32
330.861	24.4
331.073	120.66
331.286	98.13
331.499	83.8
331.712	-6.31
331.925	-8.36
332.138	110.42
332.35	112.47
332.563	-57.51
332.776	155.47
332.989	48.98
333.202	48.98
333.414	10.07
333.627	-12.46
333.84	18.26
334.053	106.32
334.265	-4.27
334.478	16.21
334.691	18.26
334.903	120.66
335.116	44.88
335.329	98.13
335.541	130.9
335.754	98.13
335.966	-16.55
336.179	-6.31
336.392	1.88
336.604	83.8
336.817	141.14
337.029	110.42
337.242	1.88
337.454	61.27
337.667	-4.27
337.88	114.52
338.092	102.23
338.305	63.32
338.517	-8.36
338.729	94.04
338.942	159.57
339.154	-102.57
339.367	-37.03
339.579	-4.27
339.792	16.21
340.004	122.71
340.217	89.94
340.429	104.28
340.641	-34.99
340.854	12.12
341.066	114.52
341.278	124.76
341.491	192.34
341.703	75.6
341.915	-30.89
342.128	102.23
342.34	73.56
342.552	-10.41
342.764	42.84
342.977	14.17
343.189	91.99
343.401	65.36
343.613	-8.36
343.826	91.99
344.038	8.02
344.25	-0.17
344.462	-24.75
344.674	77.65
344.886	48.98
345.099	38.74
345.311	-10.41
345.523	1.88
345.735	-80.04
345.947	83.8
346.159	79.7
346.371	14.17
346.583	96.08
346.795	204.63
347.007	-2.22
347.219	96.08
347.431	128.85
347.643	163.67
347.855	-16.55
348.067	155.47
348.279	-16.55
348.491	94.04
348.703	40.79
348.915	77.65
349.127	-18.6
349.339	100.18
349.551	-47.27
349.763	75.6
349.975	67.41
350.187	137.04
350.399	155.47
350.61	120.66
350.822	98.13
351.034	77.65
351.246	75.6
351.458	36.69
351.669	8.02
351.881	180.05
352.093	149.33
352.305	147.28
352.517	135
352.728	180.05
352.94	87.89
353.152	79.7
353.363	-28.84
353.575	149.33
353.787	147.28
353.999	42.84
354.21	186.19
354.422	24.4
354.633	1.88
354.845	108.37
355.057	-4.27
355.268	75.6
355.48	85.84
355.692	53.08
355.903	34.64
356.115	-30.89
356.326	-49.32
356.538	145.24
356.749	104.28
356.961	175.95
357.172	40.79
357.384	-41.13
357.595	225.11
357.807	-4.27
358.018	-26.79
358.23	65.36
358.441	118.61
358.653	110.42
358.864	85.84
359.075	-51.37
359.287	145.24
359.498	161.62
359.709	108.37
359.921	96.08
360.132	-6.31
360.344	71.51
360.555	104.28
360.766	53.08
360.977	48.98
361.189	110.42
361.4	26.45
361.611	126.8
361.823	83.8
362.034	91.99
362.245	-22.7
362.456	-30.89
362.667	157.52
362.879	-4.27
363.09	26.45
363.301	32.6
363.512	61.27
363.723	30.55
363.935	-10.41
364.146	51.03
364.357	73.56
364.568	75.6
364.779	-55.47
364.99	178
365.201	-26.79
365.412	126.8
365.623	-75.95
365.834	108.37
366.045	36.69
366.256	118.61
366.467	67.41
366.678	38.74
366.889	57.17
367.1	16.21
367.311	79.7
367.522	51.03
367.733	184.15
367.944	65.36
368.155	-59.56
368.366	130.9
368.577	153.43
368.788	182.1
368.999	8.02
369.209	26.45
369.42	198.48
369.631	188.24
369.842	48.98
370.053	44.88
370.264	143.19
370.474	32.6
370.685	-0.17
370.896	44.88
371.107	184.15
371.317	63.32
371.528	38.74
371.739	194.39
371.95	65.36
372.16	65.36
372.371	-32.94
372.582	12.12
372.792	75.6
373.003	77.65
373.214	71.51
373.424	91.99
373.635	-18.6
373.846	85.84
374.056	89.94
374.267	67.41
374.477	44.88
374.688	57.17
374.898	30.55
375.109	18.26
375.319	1.88
375.53	200.53
375.74	98.13
375.951	89.94
376.161	65.36
376.372	167.76
376.582	83.8
376.793	26.45
377.003	26.45
377.214	22.36
377.424	114.52
377.635	100.18
377.845	67.41
378.055	53.08
378.266	-84.14
378.476	55.12
378.686	22.36
378.897	116.56
379.107	79.7
379.317	149.33
379.528	65.36
379.738	65.36
379.948	12.12
380.158	112.47
380.369	40.79
380.579	94.04
380.789	48.98
380.999	102.23
381.21	118.61
381.42	200.53
381.63	71.51
381.84	175.95
382.05	87.89
382.261	135
382.471	77.65
382.681	42.84
382.891	87.89
383.101	34.64
383.311	-12.46
383.521	-2.22
383.731	128.85
383.941	126.8
384.151	112.47
384.361	71.51
384.571	143.19
384.781	42.84
384.991	135
385.201	161.62
385.411	73.56
385.621	91.99
385.831	96.08
386.041	32.6
386.251	40.79
386.461	167.76
386.671	67.41
386.881	112.47
387.091	85.84
387.301	175.95
387.511	24.4
387.72	24.4
387.93	114.52
388.14	-0.17
388.35	1.88
388.56	85.84
388.769	67.41
388.979	-10.41
389.189	-45.23
389.399	89.94
389.609	128.85
389.818	53.08
390.028	55.12
390.238	104.28
390.447	14.17
390.657	91.99
390.867	30.55
391.076	69.46
391.286	141.14
391.496	69.46
391.705	89.94
391.915	210.77
392.125	188.24
392.334	42.84
392.544	210.77
392.753	155.47
392.963	34.64
393.172	46.93
393.382	3.93
393.591	204.63
393.801	42.84
394.01	118.61
394.22	61.27
394.429	26.45
394.639	24.4
394.848	51.03
395.058	14.17
395.267	94.04
395.477	102.23
395.686	46.93
395.895	167.76
396.105	212.82
396.314	85.84
396.524	46.93
396.733	87.89
396.942	141.14
397.152	169.81
397.361	32.6
397.57	180.05
397.78	51.03
397.989	145.24
398.198	216.91
398.407	48.98
398.617	59.22
398.826	75.6
399.035	-51.37
399.244	100.18
399.453	100.18
399.663	83.8
399.872	59.22
400.081	59.22
400.29	182.1
400.499	69.46
400.708	106.32
400.917	75.6
401.127	59.22
401.336	46.93
401.545	231.25
401.754	120.66
401.963	126.8
402.172	40.79
402.381	-6.31
402.59	32.6
402.799	51.03
403.008	135
403.217	85.84
403.426	67.41
403.635	-39.08
403.844	36.69
404.053	1.88
404.262	116.56
404.471	216.91
404.68	61.27
404.888	63.32
405.097	48.98
405.306	53.08
405.515	81.75
405.724	3.93
405.933	114.52
406.142	73.56
406.35	163.67
406.559	65.36
406.768	75.6
406.977	94.04
407.185	155.47
407.394	108.37
407.603	-34.99
407.812	73.56
408.02	175.95
408.229	1.88
408.438	73.56
408.646	-45.23
408.855	38.74
409.064	59.22
409.272	157.52
409.481	167.76
409.69	75.6
409.898	-4.27
410.107	87.89
410.315	182.1
410.524	-39.08
410.733	67.41
410.941	100.18
411.15	118.61
411.358	44.88
411.567	120.66
411.775	114.52
411.984	69.46
412.192	141.14
412.401	-24.75
412.609	79.7
412.818	137.04
413.026	108.37
413.234	83.8
413.443	36.69
413.651	36.69
413.86	-39.08
414.068	153.43
414.276	155.47
414.485	-6.31
414.693	241.49
414.901	229.2
415.11	55.12
415.318	-47.27
415.526	91.99
415.734	155.47
415.943	94.04
416.151	143.19
416.359	24.4
416.567	34.64
416.776	126.8
416.984	116.56
417.192	178
417.4	59.22
417.608	20.31
417.817	-20.65
418.025	165.71
418.233	145.24
418.441	-16.55
418.649	-73.9
418.857	79.7
419.065	165.71
419.273	3.93
419.481	59.22
419.689	130.9
419.897	46.93
420.105	-45.23
420.313	91.99
420.521	141.14
420.729	130.9
420.937	18.26
421.145	10.07
421.353	108.37
421.561	147.28
421.769	57.17
421.977	3.93
422.185	122.71
422.393	-14.51
422.601	118.61
422.809	145.24
423.017	87.89
423.224	26.45
423.432	137.04
423.64	89.94
423.848	114.52
424.056	24.4
424.263	120.66
424.471	63.32
424.679	169.81
424.887	-4.27
425.094	143.19
425.302	173.91
425.51	22.36
425.718	81.75
425.925	48.98
426.133	20.31
426.341	255.83
426.548	48.98
426.756	32.6
426.964	143.19
427.171	-10.41
427.379	67.41
427.586	91.99
427.794	102.23
428.001	167.76
428.209	59.22
428.417	218.96
428.624	169.81
428.832	102.23
429.039	40.79
429.247	122.71
429.454	128.85
429.662	159.57
429.869	102.23
430.076	53.08
430.284	161.62
430.491	208.72
430.699	157.52
430.906	229.2
431.114	83.8
431.321	169.81
431.528	135
431.736	128.85
431.943	202.58
432.15	188.24
432.358	225.11
432.565	274.26
432.772	38.74
432.979	171.86
433.187	110.42
433.394	247.63
433.601	153.43
433.808	270.16
434.016	157.52
434.223	311.12
434.43	182.1
434.637	249.68
434.844	276.31
435.052	225.11
435.259	278.35
435.466	284.5
435.673	278.35
435.88	225.11
436.087	284.5
436.294	296.78
436.501	235.35
436.708	210.77
436.915	266.07
437.122	331.6
437.329	311.12
437.537	214.87
437.743	323.41
437.95	479.05
438.157	331.6
438.364	327.5
438.571	409.42
438.778	407.38
438.985	458.57
439.192	493.39
439.399	337.74
439.606	403.28
439.813	497.49
440.02	563.02
440.227	626.51
440.433	585.55
440.64	507.73
440.847	436.05
441.054	509.77
441.261	624.46
441.467	634.7
441.674	565.07
441.881	696.14
442.088	542.54
442.294	683.85
442.501	677.71
442.708	773.96
442.914	673.61
443.121	733
443.328	882.5
443.534	829.26
443.741	821.06
443.948	763.72
444.154	974.66
444.361	1015.62
444.568	907.08
444.774	872.26
444.981	902.98
445.187	1148.74
445.394	962.37
445.6	1042.25
445.807	1226.56
446.013	1220.42
446.22	1085.25
446.426	1265.47
446.633	1353.54
446.839	1529.66
447.046	1326.91
447.252	1523.52
447.459	1509.18
447.665	1494.85
447.871	1673.02
448.078	1769.27
448.284	1799.99
448.491	1830.71
448.697	1906.49
448.903	1935.16
449.11	1980.22
449.316	1994.55
449.522	2172.72
449.728	2217.78
449.935	2354.99
450.141	2285.36
450.347	2527.02
450.553	2441.01
450.76	2580.27
450.966	2617.13
451.172	2764.59
451.378	2926.38
451.584	2869.03
451.791	3065.64
451.997	3178.28
452.203	3290.92
452.409	3354.4
452.615	3440.42
452.821	3514.14
453.027	3524.38
453.233	4038.42
453.44	3878.68
453.646	4038.42
453.852	4089.62
454.058	4312.85
454.264	4431.63
454.47	4673.29
454.676	4792.08
454.882	5095.18
455.088	5005.06
455.294	5392.13
455.5	5658.37
455.705	5840.64
455.911	5854.97
456.117	6229.75
456.323	6201.08
456.529	6412.02
456.735	6852.33
456.941	7075.56
457.147	7220.97
457.352	7499.49
457.558	7745.25
457.764	8206.04
457.97	8347.35
458.176	8625.87
458.381	8922.83
458.587	9447.11
458.793	9766.59
458.999	9828.03
459.204	11114.16
459.41	11607.72
459.616	11290.28
459.821	11980.45
460.027	12056.22
460.233	12965.52
460.438	13020.81
460.644	13643.4
460.85	13758.08
461.055	14335.61
461.261	14863.99
461.466	14884.47
461.672	14950
461.878	16711.25
462.083	16471.64
462.289	17217.1
462.494	17772.1
462.7	17954.37
462.905	17856.07
463.111	19734.06
463.316	20497.95
463.522	20799
463.727	21677.58
463.932	22586.88
464.138	23074.29
464.343	24272.35
464.549	24083.94
464.754	25867.72
464.959	26822.08
465.165	27133.37
465.37	27069.88
465.575	27127.22
465.781	28622.24
465.986	29474.2
466.191	29107.61
466.397	29382.04
466.602	28816.8
466.807	30322.05
467.012	31208.83
467.218	31591.8
467.423	31413.62
467.628	32386.41
467.833	34067.79
468.038	33437.02
468.244	32851.3
468.449	34663.75
468.654	34045.26
468.859	33879.38
469.064	34073.93
469.269	33166.68
469.474	33561.94
469.679	34317.64
469.885	33574.23
470.09	34149.71
470.295	34262.35
470.5	33307.99
470.705	33477.97
470.91	32677.22
471.115	32279.91
471.32	32728.42
471.525	32859.49
471.73	31485.3
471.935	31366.52
472.139	30176.65
472.344	30479.75
472.549	30297.48
472.754	29891.98
472.959	29414.8
473.164	28345.76
473.369	27979.18
473.574	28493.22
473.778	27694.51
473.983	27655.6
474.188	26781.12
474.393	25710.03
474.598	25621.97
474.802	24804.83
475.007	24669.66
475.212	24958.42
475.417	23526.89
475.621	23227.89
475.826	23051.77
476.031	22343.17
476.235	22119.94
476.44	21960.2
476.645	21669.39
476.849	20958.74
477.054	21134.87
477.259	20141.6
477.463	20241.95
477.668	19684.9
477.872	19576.36
478.077	19267.12
478.282	18763.32
478.486	18691.64
478.691	18288.19
478.895	18095.68
479.1	17966.66
479.304	17872.45
479.509	17116.75
479.713	17630.79
479.918	17210.96
480.122	16975.44
480.326	16739.93
480.531	16676.44
480.735	16791.13
480.94	16436.83
481.144	17092.18
481.348	16303.71
481.553	16434.78
481.757	15683.17
481.961	15996.51
482.166	15973.99
482.37	15744.61
482.574	15763.04
482.778	15529.58
482.983	15521.38
483.187	15255.15
483.391	15265.39
483.595	14833.27
483.8	14489.21
484.004	14800.5
484.208	14739.06
484.412	14450.3
484.616	14331.51
484.821	14323.32
485.025	13817.47
485.229	14059.13
485.433	13631.11
485.637	13463.18
485.841	13401.74
486.045	13178.51
486.249	12994.19
486.453	12910.22
486.657	12566.17
486.861	12564.12
487.065	12385.94
487.269	12215.96
487.473	11579.04
487.677	11957.92
487.881	11871.9
488.085	11337.38
488.289	11427.49
488.493	11026.09
488.697	11091.63
488.901	10684.08
489.105	10454.71
489.309	10251.96
489.512	10149.56
489.716	10049.21
489.92	9715.39
490.124	9580.23
490.328	9541.32
490.531	9283.27
490.735	9227.98
490.939	8955.6
491.143	8750.8
491.346	8761.04
491.55	8732.37
491.754	8650.45
491.958	8380.12
492.161	8230.62
492.365	8142.55
492.569	7878.37
492.772	7782.11
492.976	7798.49
493.18	7548.64
493.383	7585.51
493.587	7618.27
493.79	7423.72
493.994	7132.9
494.197	7337.7
494.401	7313.13
494.605	6833.9
494.808	6917.87
495.012	6917.87
495.215	7102.18
495.419	6887.15
495.622	6596.34
495.825	6790.89
496.029	6723.31
496.232	6829.81
496.436	6635.25
496.639	6838
496.843	6635.25
497.046	6729.45
497.249	6835.95
497.453	6684.4
497.656	6565.62
497.859	6655.73
498.063	6551.28
498.266	6633.2
498.469	6668.02
498.673	6592.24
498.876	6860.52
499.079	6649.58
499.282	6672.11
499.485	7083.75
499.689	6872.81
499.892	7053.03
500.095	6842.09
500.298	7042.79
500.501	6846.19
500.705	7053.03
500.908	7268.07
501.111	7259.88
501.314	7352.04
501.517	7481.06
501.72	7599.84
501.923	7311.08
502.126	7636.7
502.329	7884.51
502.532	7638.75
502.735	7732.96
502.938	7907.04
503.141	8062.68
503.344	8077.02
503.547	8066.78
503.75	8077.02
503.953	8414.93
504.156	8482.52
504.359	8572.63
504.562	8599.25
504.765	9004.75
504.968	9025.23
505.17	9080.52
505.373	9502.4
505.576	9465.54
505.779	9473.73
505.982	9492.16
506.185	9844.42
506.387	10038.97
506.59	10243.77
506.793	10577.59
506.996	10389.17
507.198	11013.81
507.401	10907.31
507.604	11069.1
507.807	11349.67
508.009	11503.27
508.212	11693.73
508.415	12019.36
508.617	12148.38
508.82	12687
509.022	12850.83
509.225	13033.1
509.428	13303.43
509.63	13600.39
509.833	13528.71
510.035	14356.09
510.238	14481.02
510.44	14790.26
510.643	15345.26
510.845	15244.91
511.048	15588.97
511.25	15992.42
511.453	16375.39
511.655	16891.48
511.858	17120.85
512.06	17647.18
512.262	18005.57
512.465	18034.24
512.667	18748.98
512.87	19076.66
513.072	19523.12
513.274	19981.86
513.477	20473.37
513.679	20579.87
513.881	21628.43
514.084	21818.89
514.286	22105.6
514.488	22492.67
514.69	23537.13
514.893	23670.25
515.095	24026.6
515.297	24655.33
515.499	25193.94
515.701	25863.63
515.904	26541.5
516.106	26891.71
516.308	27434.42
516.51	28036.52
516.712	28110.25
516.914	29001.11
517.116	29566.35
517.318	30223.75
517.52	30623.11
517.722	30954.88
517.925	31751.54
518.127	32408.93
518.329	33232.22
518.531	32693.6
518.733	33594.71
518.935	34831.68
519.136	34886.98
519.338	35779.89
519.54	36275.5
519.742	36807.97
519.944	37133.6
520.146	38079.76
520.348	38350.09
520.55	39052.55
520.752	39034.11
520.954	40281.33
521.155	40066.29
521.357	40877.29
521.559	41358.56
521.761	41675.99
521.963	41972.95
522.164	42783.94
522.366	43099.33
522.568	43410.62
522.77	43531.45
522.971	44223.67
523.173	44278.96
523.375	44745.9
523.576	44537.01
523.778	44842.15
523.98	45401.25
524.181	45491.36
524.383	45241.51
524.584	45933.72
524.786	46009.5
524.988	45829.27
525.189	46195.86
525.391	46304.4
525.592	46670.99
525.794	46718.09
525.995	46318.74
526.197	46107.8
526.398	46261.4
526.6	46711.95
526.801	46253.2
527.003	46179.48
527.204	46185.62
527.406	46556.3
527.607	46058.65
527.808	45792.41
528.01	45110.44
528.211	45399.2
528.412	45053.09
528.614	44747.95
528.815	44358.83
529.016	44518.57
529.218	43420.86
529.419	43656.38
529.62	42964.17
529.822	42745.03
530.023	42556.62
530.224	42138.83
530.425	41495.77
530.626	40883.43
530.828	40318.19
531.029	40938.72
531.23	39826.68
531.431	39474.43
531.632	38974.72
531.833	39003.39
532.035	38778.12
532.236	37840.15
532.437	37491.99
532.638	36877.6
532.839	36709.67
533.04	36365.61
533.241	35366.2
533.442	35712.31
533.643	34989.38
533.844	34633.03
534.045	34248.01
534.246	32814.43
534.447	33072.48
534.648	32640.36
534.849	32277.86
535.05	31579.51
535.251	31532.4
535.451	31143.29
535.652	30346.63
535.853	30021
536.054	29861.26
536.255	29412.76
536.456	28589.47
536.657	28560.8
536.857	28034.47
537.058	27913.64
537.259	27809.2
537.46	27219.38
537.66	26703.29
537.861	26252.74
538.062	26131.91
538.263	25456.08
538.463	25363.92
538.664	25152.98
538.865	24636.89
539.065	24622.56
539.266	24202.72
539.466	23776.75
539.667	23461.36
539.868	23543.28
540.068	23000.57
540.269	22750.71
540.469	22459.9
540.67	22085.12
540.87	21962.25
541.071	21753.35
541.271	21626.38
541.472	21356.05
541.672	21132.82
541.873	20651.55
542.073	20186.66
542.274	20530.72
542.474	19904.04
542.675	19914.28
542.875	19529.26
543.075	19170.86
543.276	18964.02
543.476	19088.95
543.676	18667.06
543.877	18576.95
544.077	18308.67
544.277	18398.78
544.478	17743.43
544.678	17860.16
544.878	17727.05
545.078	17378.89
545.279	17112.66
545.479	17018.45
545.679	16842.32
545.879	16623.19
546.079	16389.72
546.28	16000.61
546.48	15918.69
546.68	15808.1
546.88	15601.26
547.08	15597.16
547.28	14986.86
547.48	15027.82
547.68	14857.84
547.88	14511.74
548.081	14681.72
548.281	14325.37
548.481	13981.31
548.681	14214.78
548.881	14009.98
549.081	13442.7
549.28	13332.11
549.48	13342.35
549.68	13039.25
549.88	13037.2
550.08	12621.46
550.28	12529.3
550.48	12539.54
550.68	12428.95
550.88	12095.13
551.08	11990.69
551.279	11941.54
551.479	11396.78
551.679	11726.5
551.879	11159.21
552.079	11085.48
552.278	10858.16
552.478	11054.76
552.678	10725.04
552.878	10655.41
553.077	10370.74
553.277	10079.93
553.477	10145.47
553.676	9907.9
553.876	9774.78
554.076	9524.93
554.275	9234.12
554.475	9180.87
554.674	9219.78
554.874	9027.28
555.074	8664.79
555.273	8752.85
555.473	8623.83
555.672	8402.65
555.872	8283.86
556.071	8089.31
556.271	8017.63
556.47	7948
556.67	7753.44
556.869	7728.86
557.068	7444.2
557.268	7425.76
557.467	7200.49
557.667	7251.69
557.866	7206.63
558.065	6807.28
558.265	6772.46
558.464	6665.97
558.663	6696.69
558.863	6678.26
559.062	6459.12
559.261	6199.03
559.461	6311.67
559.66	6174.46
559.859	6008.57
560.058	5885.69
560.258	5766.91
560.457	5611.26
560.656	5893.88
560.855	5496.58
561.054	5549.82
561.253	5490.43
561.453	5486.34
561.652	5252.87
561.851	5166.85
562.05	5015.3
562.249	4939.53
562.448	4890.38
562.647	4665.1
562.846	4919.05
563.045	4771.6
563.244	4755.21
563.443	4544.27
563.642	4515.6
563.841	4476.69
564.04	4400.91
564.239	4370.19
564.438	4210.45
564.637	4153.11
564.836	4153.11
565.035	3970.84
565.234	3901.21
565.432	3872.54
565.631	3850.01
565.83	3989.27
566.029	3645.21
566.228	3727.13
566.427	3782.43
566.625	3522.34
566.824	3626.78
567.023	3524.38
567.222	3329.83
567.42	3381.03
567.619	3485.47
567.818	3403.55
568.016	3594.01
568.215	3204.9
568.414	3274.53
568.612	3075.88
568.811	3157.8
569.01	3135.27
569.208	2940.71
569.407	3071.78
569.605	2907.94
569.804	2836.27
570.002	2813.74
570.201	2780.97
570.4	2877.23
570.598	2686.76
570.797	2756.4
570.995	2619.18
571.193	2447.15
571.392	2531.12
571.59	2402.1
571.789	2535.21
571.987	2522.93
572.186	2463.54
572.384	2322.23
572.582	2219.83
572.781	2332.47
572.979	2185.01
573.177	2203.44
573.376	2258.74
573.574	2162.48
573.772	2088.76
573.971	2035.51
574.169	1888.06
574.367	2035.51
574.565	2041.65
574.763	2035.51
574.962	1926.97
575.16	1974.07
575.358	1820.47
575.556	1789.75
575.754	1972.02
575.952	1789.75
576.151	1820.47
576.349	1808.19
576.547	1623.87
576.745	1601.34
576.943	1738.55
577.141	1593.15
577.339	1564.48
577.537	1570.62
577.735	1675.07
577.933	1627.96
578.131	1478.46
578.329	1535.81
578.527	1451.84
578.725	1482.56
578.923	1382.21
579.121	1417.02
579.319	1312.58
579.516	1314.63
579.714	1482.56
579.912	1392.45
580.11	1292.1
580.308	1333.06
580.506	1150.79
580.704	1169.22
580.901	1232.71
581.099	1308.48
581.297	1218.37
581.495	1240.9
581.692	1118.02
581.89	1169.22
582.088	1072.96
582.285	1087.3
582.483	1077.06
582.681	1095.49
582.878	997.19
583.076	1013.57
583.274	1011.53
583.471	1201.99
583.669	1017.67
583.866	978.76
584.064	972.61
584.262	900.94
584.459	913.22
584.657	1003.33
584.854	892.74
585.052	929.61
585.249	950.09
585.447	909.13
585.644	771.91
585.841	917.32
586.039	925.51
586.236	923.46
586.434	890.7
586.631	794.44
586.828	767.82
587.026	796.49
587.223	646.99
587.42	687.95
587.618	763.72
587.815	886.6
588.012	782.15
588.21	634.7
588.407	802.63
588.604	812.87
588.801	603.98
588.999	745.29
589.196	819.02
589.393	696.14
589.59	636.75
589.787	743.24
589.984	689.99
590.182	663.37
590.379	634.7
590.576	640.84
590.773	556.88
590.97	716.62
591.167	720.71
591.364	612.17
591.561	612.17
591.758	812.87
591.955	767.82
592.152	624.46
592.349	532.3
592.546	618.32
592.743	550.73
592.94	599.88
593.137	687.95
593.334	706.38
593.531	626.51
593.727	685.9
593.924	659.28
594.121	634.7
594.318	556.88
594.515	685.9
594.712	755.53
594.908	720.71
595.105	689.99
595.302	712.52
595.499	638.8
595.696	837.45
595.892	608.08
596.089	792.39
596.286	671.56
596.482	735.05
596.679	741.19
596.876	755.53
597.072	821.06
597.269	790.35
597.466	864.07
597.662	823.11
597.859	745.29
598.055	790.35
598.252	1027.91
598.448	1042.25
598.645	1081.16
598.841	1011.53
599.038	1216.32
599.234	1197.89
599.431	1126.21
599.627	1093.44
599.824	1165.12
600.02	1267.52
600.217	1281.86
600.413	1355.58
600.609	1408.83
600.806	1664.83
601.002	1494.85
601.198	1562.43
601.395	1687.36
601.591	1720.12
601.787	1695.55
601.984	1775.42
602.18	1863.48
602.376	2027.32
602.572	2142
602.769	2166.58
602.965	2068.28
603.161	2254.64
603.357	2320.18
603.553	2428.72
603.75	2428.72
603.946	2438.96
604.142	2639.66
604.338	2801.45
604.534	2875.18
604.73	2877.23
604.926	2918.18
605.122	3225.38
605.318	3165.99
605.514	3213.09
605.71	3415.84
605.906	3417.89
606.102	3540.77
606.298	3743.52
606.494	3831.58
606.69	4032.28
606.886	4009.75
607.082	4097.81
607.278	4136.73
607.474	4366.1
607.67	4491.02
607.866	4413.2
608.062	4931.34
608.257	4837.13
608.453	4822.8
608.649	5107.46
608.845	5173
609.041	5394.18
609.236	5617.41
609.432	5682.94
609.628	5824.25
609.824	5877.5
610.019	6024.95
610.215	6317.81
610.411	6493.94
610.606	6483.7
610.802	6674.16
610.998	6909.68
611.193	7085.8
611.389	7302.89
611.584	7499.49
611.78	7597.79
611.976	7714.53
612.171	8197.85
612.367	8412.88
612.562	8560.34
612.758	8625.87
612.953	8748.75
613.149	9119.43
613.344	9420.49
613.539	9653.95
613.735	9930.43
613.93	10346.17
614.126	10395.32
614.321	10835.63
614.517	11140.78
614.712	11298.47
614.907	11570.85
615.103	11898.53
615.298	11966.11
615.493	12373.66
615.688	12459.67
615.884	13270.67
616.079	13190.8
616.274	13694.6
616.47	13788.8
616.665	14376.57
616.86	14640.76
617.055	15062.64
617.25	15314.54
617.445	15990.37
617.641	16146.01
617.836	16703.06
618.031	16674.39
618.226	17581.64
618.421	17866.31
618.616	18587.19
618.811	18626.11
619.006	19123.76
619.201	19361.33
619.396	19945
619.591	20012.58
619.786	20725.27
619.981	21089.81
620.176	21911.05
620.371	21902.86
620.566	22689.28
620.761	22945.27
620.956	23705.07
621.151	23668.2
621.346	24548.83
621.541	24452.58
621.735	25261.52
621.93	25634.25
622.125	26463.68
622.32	26334.66
622.515	27020.73
622.709	27186.61
622.904	28460.45
623.099	28552.61
623.294	29068.7
623.488	29314.45
623.683	29990.28
623.878	30053.77
624.072	31069.56
624.267	31487.35
624.462	31892.85
624.656	32128.36
624.851	32998.75
625.046	33129.82
625.24	33879.38
625.435	33830.23
625.629	34153.8
625.824	34993.47
626.018	35677.49
626.213	35456.31
626.407	36468.01
626.602	36269.36
626.796	37023.01
626.991	37369.12
627.185	37344.54
627.38	37565.72
627.574	38135.06
627.768	38102.29
627.963	38554.89
628.157	38331.66
628.352	38944
628.546	38544.65
628.74	39269.63
628.935	38647.05
629.129	39243.01
629.323	38554.89
629.517	38475.02
629.712	38423.82
629.906	38143.25
630.1	37479.71
630.294	37719.32
630.489	36898.08
630.683	36848.93
630.877	35884.34
631.071	35579.19
631.265	35450.17
631.459	34475.34
631.653	33527.13
631.848	32615.78
632.042	31683.95
632.236	31645.04
632.43	30420.36
632.624	29767.06
632.818	28794.27
633.012	27936.17
633.206	27211.19
633.4	26465.73
633.594	25415.12
633.788	24514.02
633.982	24192.48
634.176	22978.04
634.369	22248.96
634.563	21124.63
634.757	20289.06
634.951	19756.58
635.145	19150.39
635.339	18228.8
635.533	17538.63
635.726	16985.68
635.92	16025.18
636.114	15418.99
636.308	14927.47
636.501	14382.71
636.695	13952.64
636.889	13006.48
637.083	12459.67
637.276	12091.04
637.47	11509.41
637.664	11118.25
637.857	10757.81
638.051	10294.97
638.244	10016.44
638.438	9498.31
638.632	9193.16
638.825	8517.33
639.019	8419.03
639.212	8046.3
639.406	7704.29
639.599	7483.11
639.793	7143.14
639.986	6756.08
640.18	6674.16
640.373	6319.86
640.567	6108.92
640.76	5879.55
640.954	5701.37
641.147	5482.24
641.34	5271.3
641.534	5048.07
641.727	4808.46
641.92	4841.23
642.114	4460.31
642.307	4304.66
642.5	4267.8
642.694	3870.49
642.887	3813.15
643.08	3710.75
643.273	3534.62
643.467	3555.1
643.66	3157.8
643.853	3096.36
644.046	3073.83
644.239	3049.25
644.432	2760.49
644.626	2748.2
644.819	2719.53
645.012	2639.66
645.205	2500.4
645.398	2420.53
645.591	2244.4
645.784	2090.81
645.977	1961.78
646.17	1998.65
646.363	1875.77
646.556	1761.08
646.749	1697.6
646.942	1728.31
647.135	1814.33
647.328	1535.81
647.521	1544
647.714	1494.85
647.907	1435.46
648.099	1281.86
648.292	1414.98
648.485	1369.92
648.678	1234.75
648.871	1208.13
649.064	1068.87
649.256	1038.15
649.449	1054.53
649.642	950.09
649.835	857.93
650.027	974.66
650.22	1046.34
650.413	823.11
650.605	755.53
650.798	849.74
650.991	749.39
651.183	728.91
651.376	716.62
651.568	722.76
651.761	665.42
651.954	675.66
652.146	673.61
652.339	681.8
652.531	685.9
652.724	542.54
652.916	530.25
653.109	460.62
653.301	671.56
653.494	532.3
653.686	528.21
653.879	593.74
654.071	503.63
654.263	501.58
654.456	440.14
654.648	511.82
654.84	509.77
655.033	407.38
655.225	558.92
655.417	321.36
655.61	503.63
655.802	454.48
655.994	556.88
656.186	323.41
656.379	436.05
656.571	276.31
656.763	292.69
656.955	341.84
657.148	358.22
657.34	401.23
657.532	290.64
657.724	304.98
657.916	292.69
658.108	477.01
658.3	405.33
658.492	288.59
658.684	292.69
658.876	270.16
659.068	237.39
659.26	155.47
659.452	200.53
659.644	327.5
659.836	399.18
660.028	251.73
660.22	196.43
660.412	204.63
660.604	257.87
660.796	180.05
660.988	255.83
661.18	309.07
661.372	286.54
661.563	241.49
661.755	204.63
661.947	218.96
662.139	175.95
662.331	298.83
662.522	280.4
662.714	151.38
662.906	159.57
663.097	145.24
663.289	173.91
663.481	118.61
663.673	173.91
663.864	241.49
664.056	223.06
664.247	186.19
664.439	290.64
664.631	214.87
664.822	282.45
665.014	276.31
665.205	100.18
665.397	214.87
665.588	159.57
665.78	212.82
665.971	200.53
666.163	104.28
666.354	225.11
666.546	120.66
666.737	171.86
666.929	175.95
667.12	155.47
667.311	278.35
667.503	165.71
667.694	225.11
667.885	151.38
668.077	253.78
668.268	-4.27
668.459	221.01
668.651	63.32
668.842	255.83
669.033	112.47
669.224	83.8
669.416	264.02
669.607	184.15
669.798	81.75
669.989	266.07
670.18	91.99
670.371	229.2
670.563	122.71
670.754	243.54
670.945	171.86
671.136	221.01
671.327	106.32
671.518	272.21
671.709	288.59
671.9	167.76
672.091	268.11
672.282	202.58
672.473	192.34
672.664	128.85
672.855	175.95
673.046	153.43
673.237	253.78
673.428	126.8
673.619	182.1
673.809	126.8
674	284.5
674.191	216.91
674.382	218.96
674.573	153.43
674.764	200.53
674.954	180.05
675.145	149.33
675.336	198.48
675.527	192.34
675.717	153.43
675.908	186.19
676.099	147.28
676.289	264.02
676.48	128.85
676.671	206.67
676.861	192.34
677.052	249.68
677.243	163.67
677.433	124.76
677.624	345.94
677.814	173.91
678.005	128.85
678.195	403.28
678.386	210.77
678.576	188.24
678.767	102.23
678.957	180.05
679.148	221.01
679.338	266.07
679.529	208.72
679.719	214.87
679.909	300.88
680.1	218.96
680.29	274.26
680.481	110.42
680.671	292.69
680.861	298.83
681.052	208.72
681.242	206.67
681.432	257.87
681.622	264.02
681.813	151.38
682.003	206.67
682.193	188.24
682.383	235.35
682.573	225.11
682.764	190.29
682.954	356.18
683.144	352.08
683.334	282.45
683.524	356.18
683.714	323.41
683.904	321.36
684.094	178
684.284	292.69
684.474	415.57
684.664	345.94
684.854	290.64
685.044	309.07
685.234	216.91
685.424	315.22
685.614	206.67
685.804	427.85
685.994	284.5
686.184	270.16
686.374	350.03
686.564	327.5
686.753	251.73
686.943	216.91
687.133	241.49
687.323	266.07
687.513	323.41
687.702	266.07
687.892	270.16
688.082	327.5
688.272	251.73
688.461	249.68
688.651	413.52
688.841	372.56
689.03	243.54
689.22	206.67
689.41	362.32
689.599	196.43
689.789	175.95
689.979	446.29
690.168	147.28
690.358	378.7
690.547	210.77
690.737	214.87
690.926	288.59
691.116	261.97
691.305	382.8
691.495	321.36
691.684	212.82
691.874	298.83
692.063	245.59
692.252	374.61
692.442	300.88
692.631	225.11
692.82	145.24
693.01	239.44
693.199	151.38
693.388	292.69
693.578	155.47
693.767	288.59
693.956	343.89
694.146	214.87
694.335	290.64
694.524	210.77
694.713	307.02
694.902	155.47
695.092	204.63
695.281	329.55
695.47	208.72
695.659	184.15
695.848	241.49
696.037	304.98
696.226	296.78
696.415	198.48
696.604	325.46
696.793	266.07
696.982	184.15
697.171	374.61
697.36	253.78
697.549	124.76
697.738	180.05
697.927	225.11
698.116	167.76
698.305	268.11
698.494	186.19
698.683	241.49
698.872	356.18
699.061	261.97
699.25	239.44
699.438	286.54
699.627	206.67
699.816	419.66
700.005	73.56
700.193	253.78
700.382	282.45
700.571	216.91
700.76	253.78
700.948	304.98
701.137	356.18
701.326	270.16
701.514	192.34
701.703	229.2
701.892	278.35
702.08	466.77
702.269	266.07
702.457	143.19
702.646	272.21
702.834	188.24
703.023	268.11
703.212	335.7
703.4	188.24
703.589	218.96
703.777	280.4
703.965	182.1
704.154	173.91
704.342	212.82
704.531	171.86
704.719	237.39
704.907	309.07
705.096	171.86
705.284	178
705.472	229.2
705.661	251.73
705.849	327.5
706.037	257.87
706.226	261.97
706.414	178
706.602	175.95
706.79	307.02
706.979	216.91
707.167	245.59
707.355	149.33
707.543	284.5
707.731	243.54
707.919	225.11
708.107	208.72
708.296	192.34
708.484	141.14
708.672	257.87
708.86	280.4
709.048	200.53
709.236	196.43
709.424	261.97
709.612	247.63
709.8	171.86
709.988	315.22
710.176	329.55
710.364	354.13
710.551	188.24
710.739	257.87
710.927	218.96
711.115	212.82
711.303	190.29
711.491	329.55
711.679	190.29
711.866	368.46
712.054	243.54
712.242	229.2
712.43	245.59
712.617	194.39
712.805	304.98
712.993	227.15
713.181	151.38
713.368	272.21
713.556	229.2
713.744	257.87
713.931	309.07
714.119	280.4
714.306	239.44
714.494	221.01
714.682	311.12
714.869	204.63
715.057	223.06
715.244	182.1
715.432	249.68
715.619	159.57
715.807	253.78
715.994	218.96
716.182	212.82
716.369	280.4
716.556	280.4
716.744	200.53
716.931	169.81
717.119	259.92
717.306	159.57
717.493	229.2
717.681	163.67
717.868	249.68
718.055	356.18
718.242	214.87
718.43	284.5
718.617	352.08
718.804	204.63
718.991	386.9
719.179	253.78
719.366	323.41
719.553	245.59
719.74	280.4
719.927	227.15
720.114	266.07
720.301	229.2
720.488	300.88
720.676	196.43
720.863	450.38
721.05	401.23
721.237	294.74
721.424	345.94
721.611	294.74
721.798	198.48
721.985	214.87
722.172	188.24
722.358	221.01
722.545	282.45
722.732	255.83
722.919	374.61
723.106	274.26
723.293	221.01
723.48	264.02
723.667	171.86
723.853	290.64
724.04	339.79
724.227	315.22
724.414	182.1
724.6	292.69
724.787	376.66
724.974	343.89
725.161	298.83
725.347	245.59
725.534	278.35
725.72	339.79
725.907	393.04
726.094	298.83
726.28	233.3
726.467	278.35
726.653	198.48
726.84	304.98
727.027	356.18
727.213	278.35
727.4	417.61
727.586	298.83
727.773	255.83
727.959	317.26
728.145	233.3
728.332	294.74
728.518	225.11
728.705	335.7
728.891	290.64
729.077	251.73
729.264	194.39
729.45	337.74
729.636	218.96
729.823	296.78
730.009	390.99
730.195	397.14
730.382	352.08
730.568	286.54
730.754	317.26
730.94	284.5
731.126	323.41
731.313	284.5
731.499	229.2
731.685	364.37
731.871	286.54
732.057	335.7
732.243	288.59
732.429	296.78
732.615	378.7
732.801	339.79
732.987	266.07
733.173	257.87
733.359	290.64
733.545	345.94
733.731	294.74
733.917	384.85
734.103	241.49
734.289	292.69
734.475	233.3
734.661	452.43
734.847	343.89
735.033	302.93
735.219	390.99
735.404	274.26
735.59	315.22
735.776	251.73
735.962	335.7
736.148	466.77
736.333	446.29
736.519	323.41
736.705	335.7
736.89	405.33
737.076	296.78
737.262	218.96
737.447	300.88
737.633	296.78
737.819	274.26
738.004	313.17
738.19	315.22
738.375	364.37
738.561	380.75
738.747	362.32
738.932	294.74
739.118	454.48
739.303	309.07
739.489	347.98
739.674	249.68
739.859	190.29
740.045	368.46
740.23	362.32
740.416	204.63
740.601	386.9
740.786	225.11
740.972	307.02
741.157	298.83
741.342	216.91
741.528	225.11
741.713	343.89
741.898	221.01
742.084	339.79
742.269	257.87
742.454	382.8
742.639	444.24
742.824	290.64
743.01	358.22
743.195	427.85
743.38	319.31
743.565	280.4
743.75	309.07
743.935	360.27
744.12	350.03
744.305	241.49
744.49	278.35
744.675	274.26
744.86	186.19
745.045	352.08
745.23	309.07
745.415	307.02
745.6	458.57
745.785	198.48
745.97	393.04
746.155	464.72
746.34	421.71
746.525	264.02
746.71	354.13
746.895	188.24
747.079	182.1
747.264	266.07
747.449	366.42
747.634	329.55
747.819	337.74
748.003	286.54
748.188	270.16
748.373	405.33
748.557	350.03
748.742	296.78
748.927	307.02
749.111	214.87
749.296	266.07
749.481	302.93
749.665	288.59
749.85	210.77
750.034	245.59
750.219	276.31
750.404	247.63
750.588	264.02
750.773	261.97
750.957	216.91
751.141	270.16
751.326	292.69
751.51	126.8
751.695	272.21
751.879	216.91
752.064	386.9
752.248	268.11
752.432	362.32
752.617	315.22
752.801	292.69
752.985	173.91
753.17	343.89
753.354	245.59
753.538	221.01
753.722	249.68
753.907	237.39
754.091	96.08
754.275	282.45
754.459	218.96
754.643	200.53
754.828	237.39
755.012	204.63
755.196	149.33
755.38	214.87
755.564	206.67
755.748	243.54
755.932	257.87
756.116	249.68
756.3	208.72
756.484	120.66
756.668	255.83
756.852	137.04
757.036	186.19
757.22	231.25
757.404	79.7
757.588	147.28
757.772	231.25
757.956	159.57
758.14	325.46
758.323	151.38
758.507	175.95
758.691	132.95
758.875	194.39
759.059	251.73
759.242	159.57
759.426	173.91
759.61	261.97
759.794	120.66
759.977	223.06
760.161	319.31
760.345	216.91
760.528	264.02
760.712	239.44
760.895	157.52
761.079	225.11
761.263	110.42
761.446	96.08
761.63	173.91
761.813	200.53
761.997	91.99
762.18	145.24
762.364	124.76
762.547	98.13
762.731	149.33
762.914	175.95
763.098	118.61
763.281	153.43
763.464	159.57
763.648	202.58
763.831	153.43
764.015	116.56
764.198	169.81
764.381	118.61
764.564	108.37
764.748	175.95
764.931	208.72
765.114	175.95
765.297	79.7
765.481	53.08
765.664	126.8
765.847	112.47
766.03	190.29
766.213	67.41
766.397	204.63
766.58	94.04
766.763	137.04
766.946	167.76
767.129	69.46
767.312	51.03
767.495	141.14
767.678	108.37
767.861	247.63
768.044	173.91
768.227	157.52
768.41	83.8
768.593	122.71
768.776	167.76
768.959	28.5
769.142	208.72
769.324	89.94
769.507	57.17
769.69	73.56
769.873	63.32
770.056	366.42
770.239	106.32
770.421	157.52
770.604	151.38
770.787	85.84
770.97	186.19
771.152	5.97
771.335	106.32
771.518	102.23
771.7	200.53
771.883	243.54
772.066	120.66
772.248	44.88
772.431	198.48
772.613	225.11
772.796	151.38
772.978	161.62
773.161	241.49
773.343	87.89
773.526	75.6
773.708	34.64
773.891	-12.46
774.073	91.99
774.256	28.5
774.438	198.48
774.621	79.7
774.803	106.32
774.985	48.98
775.168	116.56
775.35	149.33
775.532	104.28
775.715	34.64
775.897	114.52
776.079	28.5
776.261	171.86
776.444	30.55
776.626	159.57
776.808	22.36
776.99	34.64
777.173	145.24
777.355	128.85
777.537	157.52
777.719	91.99
777.901	79.7
778.083	89.94
778.265	26.45
778.447	145.24
778.629	46.93
778.811	124.76
778.993	128.85
779.175	143.19
779.357	114.52
779.539	-2.22
779.721	83.8
779.903	184.15
780.085	5.97
780.267	126.8
780.449	51.03
780.631	100.18
780.812	184.15
780.994	38.74
781.176	63.32
781.358	42.84
781.54	79.7
781.721	61.27
781.903	81.75
782.085	44.88
782.267	132.95
782.448	-4.27
782.63	100.18
782.812	51.03
782.993	178
783.175	85.84
783.357	100.18
783.538	118.61
783.72	71.51
783.901	98.13
784.083	135
784.264	59.22
784.446	20.31
784.627	-2.22
784.809	22.36
784.99	-6.31
785.172	57.17
785.353	63.32
785.535	91.99
785.716	26.45
785.897	-47.27
786.079	20.31
786.26	114.52
786.441	94.04
786.623	-82.09
786.804	-10.41
786.985	46.93
787.167	75.6
787.348	42.84
787.529	1.88
787.71	192.34
787.891	96.08
788.073	77.65
788.254	-61.61
788.435	128.85
788.616	71.51
788.797	-28.84
788.978	124.76
789.159	48.98
789.34	110.42
789.522	22.36
789.703	30.55
789.884	38.74
790.065	77.65
790.246	153.43
790.427	85.84
790.607	180.05
790.788	106.32
790.969	-73.9
791.15	83.8
791.331	14.17
791.512	-26.79
791.693	-28.84
791.874	-47.27
792.054	223.06
792.235	139.09
792.416	38.74
792.597	-129.19
792.778	151.38
792.958	96.08
793.139	83.8
793.32	26.45
793.5	-18.6
793.681	75.6
793.862	102.23
794.042	36.69
794.223	-61.61
794.404	22.36
794.584	-49.32
794.765	-34.99
794.945	132.95
795.126	55.12
795.306	59.22
795.487	48.98
795.667	42.84
795.848	94.04
796.028	-10.41
796.209	38.74
796.389	53.08
796.57	42.84
796.75	-20.65
796.93	30.55
797.111	-98.47
797.291	-41.13
797.471	77.65
797.652	26.45
797.832	-2.22
798.012	106.32
798.192	-37.03
798.373	-41.13
798.553	40.79
798.733	38.74
798.913	-121
799.093	51.03
799.274	77.65
799.454	94.04
799.634	104.28
799.814	1.88
799.994	59.22
800.174	83.8
800.354	98.13
800.534	-41.13
800.714	69.46
800.894	-75.95
801.074	-32.94
801.254	30.55
801.434	130.9
801.614	-53.42
801.794	-0.17
801.974	2019.13
802.154	-16.55
802.334	108.37
802.514	-121
802.693	-8.36
802.873	-22.7
803.053	110.42
803.233	48.98
803.413	53.08
803.592	28.5
803.772	-18.6
803.952	61.27
804.131	-10.41
804.311	63.32
804.491	147.28
804.67	63.32
804.85	-28.84
805.03	77.65
805.209	100.18
805.389	8.02
805.568	32.6
805.748	-8.36
805.928	77.65
806.107	94.04
806.287	-20.65
806.466	104.28
806.646	-41.13
806.825	20.31
807.004	-2.22
807.184	-43.18
807.363	108.37
807.543	28.5
807.722	-57.51
807.901	112.47
808.081	69.46
808.26	-90.28
808.439	-20.65
808.619	79.7
808.798	-34.99
808.977	32.6
809.156	126.8
809.336	22.36
809.515	12.12
809.694	-94.38
809.873	1.88
810.052	163.67
810.231	36.69
810.411	-12.46
810.59	63.32
810.769	-45.23
810.948	69.46
811.127	-77.99
811.306	34.64
811.485	-2.22
811.664	157.52
811.843	118.61
812.022	100.18
812.201	-8.36
812.38	-39.08
812.559	-43.18
812.737	59.22
812.916	-65.71
813.095	-45.23
813.274	77.65
813.453	-49.32
813.632	85.84
813.811	98.13
813.989	-49.32
814.168	73.56
814.347	-47.27
814.526	-0.17
814.704	137.04
814.883	114.52
815.062	-49.32
815.24	5.97
815.419	-30.89
815.598	61.27
815.776	-96.43
815.955	-8.36
816.133	-61.61
816.312	8.02
816.49	-75.95
816.669	51.03
816.847	36.69
817.026	30.55
817.204	28.5
817.383	69.46
817.561	-10.41
817.74	26.45
817.918	53.08
818.097	-24.75
818.275	-100.52
818.453	57.17
818.632	18.26
818.81	-49.32
818.988	-67.75
819.167	30.55
819.345	12.12
819.523	73.56
819.701	-2.22
819.879	106.32
820.058	57.17
820.236	34.64
820.414	-10.41
820.592	-10.41
820.77	57.17
820.948	-102.57
821.127	-16.55
821.305	67.41
821.483	-28.84
821.661	65.36
821.839	91.99
822.017	-18.6
822.195	-41.13
822.373	46.93
822.551	-4.27
822.729	118.61
822.907	-41.13
823.085	26.45
823.262	85.84
823.44	-49.32
823.618	16.21
823.796	-20.65
823.974	-14.51
824.152	-34.99
824.329	8.02
824.507	102.23
824.685	65.36
824.863	-59.56
825.04	-2.22
825.218	98.13
825.396	42.84
825.574	85.84
825.751	1.88
825.929	75.6
826.107	30.55
826.284	55.12
826.462	16.21
826.639	-8.36
826.817	-43.18
826.994	42.84
827.172	-53.42
827.349	96.08
827.527	5.97
827.704	53.08
827.882	53.08
828.059	67.41
828.237	32.6
828.414	18.26
828.591	-141.48
828.769	28.5
828.946	16.21
829.124	40.79
829.301	91.99
829.478	-24.75
829.655	22.36
829.833	61.27
830.01	-84.14
830.187	44.88
830.364	-10.41
830.542	12.12
830.719	91.99
830.896	30.55
831.073	42.84
831.25	12.12
831.427	77.65
831.604	48.98
831.782	16.21
831.959	26.45
832.136	1.88
832.313	20.31
832.49	61.27
832.667	12.12
832.844	-80.04
833.021	94.04
833.198	69.46
833.374	-49.32
833.551	59.22
833.728	77.65
833.905	53.08
834.082	-110.76
834.259	-0.17
834.436	36.69
834.612	-49.32
834.789	106.32
834.966	36.69
835.143	100.18
835.319	-100.52
835.496	16.21
835.673	14.17
835.85	120.66
836.026	91.99
836.203	128.85
836.38	12.12
836.556	-14.51
836.733	14.17
836.909	186.19
837.086	-18.6
837.262	-59.56
837.439	10.07
837.616	-75.95
837.792	51.03
837.968	-49.32
838.145	-118.95
838.321	100.18
838.498	-0.17
838.674	89.94
838.851	85.84
839.027	-34.99
839.203	34.64
839.38	48.98
839.556	-12.46
839.732	28.5
839.909	-51.37
840.085	65.36
840.261	-75.95
840.437	48.98
840.614	-32.94
840.79	71.51
840.966	100.18
841.142	98.13
841.318	-43.18
841.494	-8.36
841.671	118.61
841.847	-92.33
842.023	-10.41
842.199	-37.03
842.375	28.5
842.551	-106.67
842.727	14.17
842.903	116.56
843.079	-4.27
843.255	139.09
843.431	28.5
843.607	24.4
843.783	-147.62
843.959	36.69
844.134	-47.27
844.31	73.56
844.486	-80.04
844.662	-96.43
844.838	-41.13
845.013	98.13
845.189	30.55
845.365	-12.46
845.541	61.27
845.716	20.31
845.892	122.71
846.068	-2.22
846.244	53.08
846.419	20.31
846.595	-14.51
846.77	-47.27
846.946	118.61
847.122	69.46
847.297	-0.17
847.473	147.28
847.648	32.6
847.824	-6.31
847.999	-61.61
848.175	3.93
848.35	46.93
848.526	128.85
848.701	116.56
848.876	89.94
849.052	75.6
849.227	-26.79
849.403	59.22
849.578	48.98
849.753	32.6
849.929	65.36
850.104	-73.9
850.279	61.27
850.454	32.6
850.63	69.46
850.805	59.22
850.98	79.7
851.155	46.93
851.33	28.5
851.505	-73.9
851.681	143.19
851.856	-94.38
852.031	59.22
852.206	36.69
852.381	-69.8
852.556	-12.46
852.731	124.76
852.906	126.8
853.081	34.64
853.256	65.36
853.431	-39.08
853.606	-82.09
853.781	-30.89
853.956	-141.48
854.131	57.17
854.305	-18.6
854.48	18.26
854.655	-84.14
854.83	-63.66
855.005	-18.6
855.18	55.12
855.354	-8.36
855.529	32.6
855.704	18.26
855.879	102.23
856.053	-118.95
856.228	36.69
856.403	-20.65
856.577	85.84
856.752	-57.51
856.926	-49.32
857.101	67.41
857.276	-8.36
857.45	16.21
857.625	59.22
857.799	143.19
857.974	8.02
858.148	-51.37
858.323	94.04
858.497	28.5
858.672	-30.89
858.846	-106.67
859.02	30.55
859.195	-75.95
859.369	77.65
859.543	81.75
859.718	28.5
859.892	83.8
860.066	91.99
860.241	-69.8
860.415	-24.75
860.589	26.45
860.763	18.26
860.938	-75.95
861.112	5.97
861.286	28.5
861.46	16.21
861.634	24.4
861.808	24.4
861.982	1.88
862.157	-49.32
862.331	22.36
862.505	-80.04
862.679	-84.14
862.853	-51.37
863.027	75.6
863.201	94.04
863.375	-6.31
863.549	38.74
863.722	38.74
863.896	96.08
864.07	-28.84
864.244	5.97
864.418	67.41
864.592	12.12
864.766	3.93
864.939	-20.65
865.113	-16.55
865.287	122.71
865.461	-100.52
865.634	-2.22
865.808	-55.47
865.982	-37.03
866.156	14.17
866.329	-8.36
866.503	5.97
866.676	126.8
866.85	110.42
867.024	-84.14
867.197	14.17
867.371	-8.36
867.544	46.93
867.718	-96.43
867.891	91.99
868.065	-37.03
868.238	-57.51
868.412	34.64
868.585	3.93
868.759	-80.04
868.932	42.84
869.105	-53.42
869.279	-0.17
869.452	-32.94
869.625	46.93
869.799	-22.7
869.972	-63.66
870.145	28.5
870.319	69.46
870.492	3.93
870.665	-51.37
870.838	12.12
871.011	-123.05
871.185	-24.75
871.358	-96.43
871.531	3.93
871.704	-10.41
871.877	32.6
872.05	-51.37
872.223	-57.51
872.396	34.64
872.569	61.27
872.742	-59.56
872.915	-18.6
873.088	-55.47
873.261	-18.6
873.434	77.65
873.607	-41.13
873.78	46.93
873.953	-73.9
874.126	65.36
874.299	94.04
874.471	16.21
874.644	1.88
874.817	69.46
874.99	120.66
875.163	14.17
875.335	-12.46
875.508	-18.6
875.681	51.03
875.853	-86.19
876.026	-0.17
876.199	118.61
876.371	48.98
876.544	65.36
876.717	18.26
876.889	-69.8
877.062	-45.23
877.234	-20.65
877.407	38.74
877.579	55.12
877.752	112.47
877.924	85.84
878.097	98.13
878.269	-12.46
878.442	65.36
878.614	67.41
878.786	-4.27
878.959	73.56
879.131	34.64
879.303	-67.75
879.476	3.93
879.648	106.32
879.82	5.97
879.993	-39.08
880.165	-12.46
880.337	-88.23
880.509	36.69
880.681	-59.56
880.854	-24.75
881.026	34.64
881.198	218.96
881.37	65.36
881.542	-67.75
881.714	-41.13
881.886	-39.08
882.058	16.21
882.23	16.21
882.402	5.97
882.574	32.6
882.746	75.6
882.918	94.04
883.09	63.32
883.262	18.26
883.434	24.4
883.606	-32.94
883.778	44.88
883.95	110.42
884.122	40.79
884.293	30.55
884.465	44.88
884.637	73.56
884.809	-49.32
884.98	34.64
885.152	-16.55
885.324	-2.22
885.496	-6.31
885.667	3.93
885.839	-59.56
886.011	102.23
886.182	75.6
886.354	10.07
886.525	46.93
886.697	34.64
886.869	32.6
887.04	-71.85
887.212	149.33
887.383	91.99
887.555	61.27
887.726	-41.13
887.897	-45.23
888.069	75.6
888.24	3.93
888.412	-22.7
888.583	20.31
888.754	53.08
888.926	-63.66
889.097	-28.84
889.268	-65.71
889.44	-30.89
889.611	-123.05
889.782	-77.99
889.953	-37.03
890.125	48.98
890.296	-34.99
890.467	8.02
890.638	-16.55
890.809	-41.13
890.98	-53.42
891.151	1.88
891.323	124.76
891.494	36.69
891.665	3.93
891.836	-86.19
892.007	79.7
892.178	57.17
892.349	51.03
892.52	38.74
892.691	36.69
892.862	-41.13
893.032	-133.29
893.203	-20.65
893.374	-18.6
893.545	22.36
893.716	-116.9
893.887	75.6
894.057	14.17
894.228	-0.17
894.399	-67.75
894.57	124.76
894.74	67.41
894.911	-37.03
895.082	10.07
895.253	-90.28
895.423	53.08
895.594	-4.27
895.764	87.89
895.935	-45.23
896.106	28.5
896.276	-63.66
896.447	14.17
896.617	-104.62
896.788	32.6
896.958	46.93
897.129	8.02
897.299	-53.42
897.47	79.7
897.64	79.7
897.81	3.93
897.981	83.8
898.151	-14.51
898.322	137.04
898.492	128.85
898.662	-12.46
898.832	-61.61
899.003	-55.47
899.173	-2.22
899.343	-55.47
899.513	-24.75
