Data from USB4F104151__14__10-41-47-287.txt Node

Date: Wed Feb 26 10:41:47 EST 2025
User: louis
Spectrometer: USB4F10415
Trigger mode: 4
Integration Time (sec): 1.000000E-1
Scans to average: 1
Electric dark correction enabled: true
Nonlinearity correction enabled: false
Boxcar width: 0
XAxis mode: Wavelengths
Number of Pixels in Spectrum: 3648
>>>>>Begin Spectral Data<<<<<
178.204	-474.79
178.424	-474.79
178.644	-474.79
178.864	-474.79
179.084	-429.73
179.304	92.5
179.524	-83.63
179.744	0.34
179.964	55.64
180.184	-13.99
180.404	6.49
180.624	-28.33
180.844	-18.09
181.064	-44.71
181.283	-16.04
181.503	-16.04
181.723	65.88
181.943	-79.53
182.163	162.13
182.383	61.78
182.602	53.59
182.822	119.12
183.042	84.31
183.262	-5.8
183.482	0.34
183.701	10.58
183.921	59.73
184.141	-40.62
184.361	-7.85
184.58	12.63
184.8	43.35
185.02	-30.38
185.239	96.6
185.459	24.92
185.679	117.08
185.898	-83.63
186.118	31.06
186.338	80.21
186.557	29.01
186.777	-61.1
186.997	31.06
187.216	123.22
187.436	147.8
187.655	141.65
187.875	6.49
188.095	-11.95
188.314	213.33
188.534	76.12
188.753	-100.01
188.973	76.12
189.192	145.75
189.412	22.87
189.631	110.93
189.851	92.5
190.07	143.7
190.29	-59.05
190.509	22.87
190.729	43.35
190.948	155.99
191.168	246.1
191.387	69.97
191.607	-13.99
191.826	69.97
192.045	57.68
192.265	39.25
192.484	53.59
192.704	41.3
192.923	-73.39
193.142	123.22
193.362	102.74
193.581	135.51
193.8	133.46
194.02	188.75
194.239	110.93
194.458	29.01
194.678	16.73
194.897	-36.52
195.116	31.06
195.335	53.59
195.555	31.06
195.774	8.53
195.993	141.65
196.212	65.88
196.432	-1.71
196.651	4.44
196.87	10.58
197.089	311.63
197.308	98.64
197.528	153.94
197.747	-67.24
197.966	59.73
198.185	198.99
198.404	-32.43
198.623	141.65
198.842	100.69
199.062	125.27
199.281	76.12
199.5	4.44
199.719	31.06
199.938	59.73
200.157	76.12
200.376	123.22
200.595	145.75
200.814	65.88
201.033	-32.43
201.252	145.75
201.471	145.75
201.69	49.49
201.909	51.54
202.128	135.51
202.347	24.92
202.566	61.78
202.785	0.34
203.004	-59.05
203.223	239.95
203.442	14.68
203.661	-3.75
203.879	92.5
204.098	94.55
204.317	-22.19
204.536	86.36
204.755	131.41
204.974	37.2
205.193	-18.09
205.411	127.32
205.63	51.54
205.849	22.87
206.068	18.77
206.287	-38.57
206.505	147.8
206.724	53.59
206.943	-48.81
207.162	0.34
207.381	59.73
207.599	35.16
207.818	80.21
208.037	-22.19
208.255	24.92
208.474	84.31
208.693	16.73
208.911	47.44
209.13	155.99
209.349	104.79
209.567	112.98
209.786	65.88
210.005	59.73
210.223	-50.86
210.442	-114.34
210.661	33.11
210.879	76.12
211.098	2.39
211.316	4.44
211.535	65.88
211.753	41.3
211.972	80.21
212.191	14.68
212.409	63.83
212.628	119.12
212.846	-18.09
213.065	45.4
213.283	160.08
213.502	6.49
213.72	4.44
213.938	24.92
214.157	43.35
214.375	184.66
214.594	37.2
214.812	84.31
215.031	67.92
215.249	35.16
215.467	47.44
215.686	41.3
215.904	43.35
216.122	104.79
216.341	131.41
216.559	-16.04
216.778	129.36
216.996	106.84
217.214	37.2
217.432	-52.91
217.651	-75.43
217.869	8.53
218.087	76.12
218.306	-13.99
218.524	51.54
218.742	22.87
218.96	119.12
219.179	-13.99
219.397	100.69
219.615	205.14
219.833	117.08
220.051	-16.04
220.27	162.13
220.488	123.22
220.706	4.44
220.924	12.63
221.142	-30.38
221.36	96.6
221.578	67.92
221.796	-9.9
222.015	82.26
222.233	55.64
222.451	149.84
222.669	-79.53
222.887	110.93
223.105	0.34
223.323	4.44
223.541	-13.99
223.759	86.36
223.977	24.92
224.195	190.8
224.413	145.75
224.631	-9.9
224.849	82.26
225.067	242
225.285	-30.38
225.503	22.87
225.721	-87.72
225.939	41.3
226.157	37.2
226.375	278.87
226.592	-5.8
226.81	47.44
227.028	110.93
227.246	72.02
227.464	-24.23
227.682	123.22
227.9	94.55
228.117	65.88
228.335	98.64
228.553	74.07
228.771	-28.33
228.989	20.82
229.206	125.27
229.424	94.55
229.642	-18.09
229.86	-34.47
230.077	168.27
230.295	-16.04
230.513	29.01
230.731	-9.9
230.948	90.45
231.166	145.75
231.384	-1.71
231.601	-9.9
231.819	98.64
232.037	22.87
232.254	-79.53
232.472	-30.38
232.689	-93.87
232.907	65.88
233.125	-16.04
233.342	-46.76
233.56	-30.38
233.777	45.4
233.995	-34.47
234.213	110.93
234.43	47.44
234.648	59.73
234.865	-20.14
235.083	115.03
235.3	119.12
235.518	90.45
235.735	104.79
235.953	20.82
236.17	37.2
236.388	31.06
236.605	63.83
236.822	82.26
237.04	24.92
237.257	63.83
237.475	12.63
237.692	94.55
237.909	131.41
238.127	16.73
238.344	106.84
238.562	53.59
238.779	-71.34
238.996	-42.67
239.214	33.11
239.431	141.65
239.648	0.34
239.865	67.92
240.083	162.13
240.3	-5.8
240.517	18.77
240.735	35.16
240.952	151.89
241.169	108.88
241.386	37.2
241.603	102.74
241.821	-89.77
242.038	55.64
242.255	53.59
242.472	2.39
242.689	41.3
242.907	35.16
243.124	49.49
243.341	90.45
243.558	-13.99
243.775	-44.71
243.992	-102.06
244.209	86.36
244.426	145.75
244.643	127.32
244.86	-32.43
245.078	41.3
245.295	131.41
245.512	49.49
245.729	-28.33
245.946	59.73
246.163	45.4
246.38	33.11
246.597	63.83
246.814	88.4
247.031	26.96
247.248	6.49
247.464	49.49
247.681	29.01
247.898	94.55
248.115	31.06
248.332	-5.8
248.549	112.98
248.766	147.8
248.983	96.6
249.2	69.97
249.417	72.02
249.633	37.2
249.85	86.36
250.067	94.55
250.284	39.25
250.501	125.27
250.717	119.12
250.934	-89.77
251.151	57.68
251.368	-30.38
251.585	57.68
251.801	78.16
252.018	-50.86
252.235	94.55
252.451	-87.72
252.668	123.22
252.885	139.6
253.102	76.12
253.318	100.69
253.535	-3.75
253.752	65.88
253.968	-9.9
254.185	-5.8
254.401	61.78
254.618	16.73
254.835	-24.23
255.051	106.84
255.268	123.22
255.484	112.98
255.701	-9.9
255.917	112.98
256.134	76.12
256.351	74.07
256.567	0.34
256.784	153.94
257	-34.47
257.217	59.73
257.433	106.84
257.65	53.59
257.866	106.84
258.082	41.3
258.299	6.49
258.515	20.82
258.732	2.39
258.948	-38.57
259.165	35.16
259.381	22.87
259.597	74.07
259.814	-20.14
260.03	6.49
260.246	61.78
260.463	41.3
260.679	174.42
260.895	18.77
261.112	88.4
261.328	65.88
261.544	16.73
261.761	127.32
261.977	-11.95
262.193	-34.47
262.409	94.55
262.626	-5.8
262.842	26.96
263.058	-9.9
263.274	55.64
263.49	104.79
263.707	35.16
263.923	84.31
264.139	-69.29
264.355	67.92
264.571	192.85
264.787	61.78
265.004	61.78
265.22	16.73
265.436	-16.04
265.652	24.92
265.868	43.35
266.084	8.53
266.3	67.92
266.516	-59.05
266.732	2.39
266.948	51.54
267.164	-1.71
267.38	16.73
267.596	65.88
267.812	184.66
268.028	6.49
268.244	6.49
268.46	115.03
268.676	-5.8
268.892	-44.71
269.108	-7.85
269.324	-26.28
269.54	-87.72
269.756	153.94
269.972	-67.24
270.188	0.34
270.403	-57
270.619	18.77
270.835	76.12
271.051	59.73
271.267	4.44
271.483	-20.14
271.698	35.16
271.914	108.88
272.13	35.16
272.346	26.96
272.562	98.64
272.777	104.79
272.993	-11.95
273.209	39.25
273.425	96.6
273.64	-32.43
273.856	88.4
274.072	18.77
274.287	-52.91
274.503	162.13
274.719	108.88
274.934	80.21
275.15	35.16
275.366	-42.67
275.581	-3.75
275.797	24.92
276.012	14.68
276.228	29.01
276.444	2.39
276.659	172.37
276.875	33.11
277.09	47.44
277.306	12.63
277.521	-36.52
277.737	10.58
277.952	78.16
278.168	22.87
278.383	100.69
278.599	164.18
278.814	86.36
279.03	86.36
279.245	160.08
279.461	-38.57
279.676	121.17
279.892	-59.05
280.107	22.87
280.322	-61.1
280.538	86.36
280.753	-36.52
280.969	98.64
281.184	92.5
281.399	145.75
281.615	33.11
281.83	88.4
282.045	-26.28
282.26	16.73
282.476	78.16
282.691	82.26
282.906	29.01
283.122	61.78
283.337	-28.33
283.552	22.87
283.767	74.07
283.983	133.46
284.198	88.4
284.413	119.12
284.628	-40.62
284.843	0.34
285.058	72.02
285.274	55.64
285.489	-50.86
285.704	166.23
285.919	57.68
286.134	-7.85
286.349	49.49
286.564	-18.09
286.779	123.22
286.995	53.59
287.21	-11.95
287.425	112.98
287.64	16.73
287.855	24.92
288.07	-77.48
288.285	94.55
288.5	168.27
288.715	22.87
288.93	61.78
289.145	35.16
289.36	31.06
289.575	2.39
289.79	168.27
290.004	26.96
290.219	74.07
290.434	-57
290.649	59.73
290.864	22.87
291.079	0.34
291.294	24.92
291.509	115.03
291.724	10.58
291.938	76.12
292.153	90.45
292.368	20.82
292.583	86.36
292.798	86.36
293.012	-9.9
293.227	53.59
293.442	29.01
293.657	61.78
293.871	115.03
294.086	-16.04
294.301	145.75
294.516	135.51
294.73	57.68
294.945	-30.38
295.16	-7.85
295.374	143.7
295.589	33.11
295.804	0.34
296.018	20.82
296.233	110.93
296.447	108.88
296.662	51.54
296.877	145.75
297.091	76.12
297.306	24.92
297.52	43.35
297.735	80.21
297.949	86.36
298.164	63.83
298.378	-26.28
298.593	-61.1
298.807	-54.95
299.022	110.93
299.236	141.65
299.451	24.92
299.665	49.49
299.88	29.01
300.094	43.35
300.309	22.87
300.523	14.68
300.737	4.44
300.952	67.92
301.166	22.87
301.381	-42.67
301.595	41.3
301.809	53.59
302.024	16.73
302.238	-11.95
302.452	231.76
302.667	84.31
302.881	127.32
303.095	108.88
303.309	106.84
303.524	22.87
303.738	20.82
303.952	-32.43
304.166	65.88
304.381	-44.71
304.595	223.57
304.809	20.82
305.023	6.49
305.237	37.2
305.452	-26.28
305.666	94.55
305.88	110.93
306.094	29.01
306.308	51.54
306.522	133.46
306.736	90.45
306.95	84.31
307.164	-20.14
307.379	65.88
307.593	125.27
307.807	141.65
308.021	65.88
308.235	94.55
308.449	0.34
308.663	37.2
308.877	266.58
309.091	45.4
309.305	133.46
309.519	-50.86
309.733	24.92
309.947	-7.85
310.161	33.11
310.374	162.13
310.588	145.75
310.802	-36.52
311.016	16.73
311.23	106.84
311.444	-16.04
311.658	84.31
311.872	39.25
312.085	117.08
312.299	149.84
312.513	145.75
312.727	26.96
312.941	20.82
313.154	18.77
313.368	24.92
313.582	69.97
313.796	59.73
314.009	57.68
314.223	90.45
314.437	158.03
314.651	86.36
314.864	6.49
315.078	-42.67
315.292	-34.47
315.505	45.4
315.719	53.59
315.933	78.16
316.146	-83.63
316.36	-91.82
316.573	72.02
316.787	31.06
317.001	10.58
317.214	-50.86
317.428	-3.75
317.641	20.82
317.855	53.59
318.068	8.53
318.282	74.07
318.495	143.7
318.709	108.88
318.922	53.59
319.136	115.03
319.349	180.56
319.563	-22.19
319.776	57.68
319.99	-79.53
320.203	4.44
320.417	106.84
320.63	80.21
320.843	252.24
321.057	20.82
321.27	57.68
321.483	76.12
321.697	131.41
321.91	104.79
322.124	14.68
322.337	63.83
322.55	10.58
322.763	110.93
322.977	88.4
323.19	-28.33
323.403	45.4
323.617	-32.43
323.83	63.83
324.043	29.01
324.256	-7.85
324.469	0.34
324.683	139.6
324.896	55.64
325.109	90.45
325.322	-57
325.535	112.98
325.748	155.99
325.962	41.3
326.175	112.98
326.388	82.26
326.601	90.45
326.814	2.39
327.027	-3.75
327.24	121.17
327.453	-57
327.666	88.4
327.879	129.36
328.092	131.41
328.305	43.35
328.518	-40.62
328.731	45.4
328.944	-81.58
329.157	63.83
329.37	-30.38
329.583	143.7
329.796	92.5
330.009	16.73
330.222	82.26
330.435	133.46
330.648	47.44
330.861	94.55
331.073	55.64
331.286	123.22
331.499	-26.28
331.712	45.4
331.925	72.02
332.138	59.73
332.35	143.7
332.563	-38.57
332.776	49.49
332.989	-18.09
333.202	33.11
333.414	24.92
333.627	-59.05
333.84	8.53
334.053	55.64
334.265	-28.33
334.478	-36.52
334.691	24.92
334.903	74.07
335.116	-30.38
335.329	88.4
335.541	51.54
335.754	145.75
335.966	37.2
336.179	-63.15
336.392	31.06
336.604	84.31
336.817	22.87
337.029	8.53
337.242	6.49
337.454	43.35
337.667	0.34
337.88	170.32
338.092	86.36
338.305	137.56
338.517	-54.95
338.729	76.12
338.942	149.84
339.154	-54.95
339.367	-69.29
339.579	53.59
339.792	-13.99
340.004	33.11
340.217	-28.33
340.429	37.2
340.641	-93.87
340.854	-1.71
341.066	-28.33
341.278	65.88
341.491	141.65
341.703	-1.71
341.915	-7.85
342.128	151.89
342.34	47.44
342.552	22.87
342.764	4.44
342.977	6.49
343.189	76.12
343.401	65.88
343.613	-77.48
343.826	92.5
344.038	-20.14
344.25	76.12
344.462	-52.91
344.674	33.11
344.886	-7.85
345.099	31.06
345.311	127.32
345.523	-46.76
345.735	-61.1
345.947	6.49
346.159	-3.75
346.371	37.2
346.583	16.73
346.795	209.23
347.007	24.92
347.219	39.25
347.431	-3.75
347.643	100.69
347.855	-30.38
348.067	104.79
348.279	-79.53
348.491	61.78
348.703	82.26
348.915	129.36
349.127	16.73
349.339	20.82
349.551	-1.71
349.763	106.84
349.975	45.4
350.187	123.22
350.399	141.65
350.61	76.12
350.822	61.78
351.034	166.23
351.246	24.92
351.458	125.27
351.669	135.51
351.881	131.41
352.093	78.16
352.305	188.75
352.517	74.07
352.728	63.83
352.94	-26.28
353.152	121.17
353.363	-38.57
353.575	29.01
353.787	162.13
353.999	22.87
354.21	201.04
354.422	-20.14
354.633	24.92
354.845	84.31
355.057	67.92
355.268	102.74
355.48	166.23
355.692	-134.82
355.903	96.6
356.115	-18.09
356.326	-89.77
356.538	94.55
356.749	100.69
356.961	162.13
357.172	45.4
357.384	-16.04
357.595	246.1
357.807	-3.75
358.018	-26.28
358.23	92.5
358.441	112.98
358.653	100.69
358.864	22.87
359.075	4.44
359.287	47.44
359.498	96.6
359.709	100.69
359.921	47.44
360.132	59.73
360.344	49.49
360.555	33.11
360.766	72.02
360.977	-24.23
361.189	108.88
361.4	-40.62
361.611	127.32
361.823	137.56
362.034	65.88
362.245	-57
362.456	53.59
362.667	94.55
362.879	29.01
363.09	133.46
363.301	33.11
363.512	57.68
363.723	24.92
363.935	10.58
364.146	90.45
364.357	12.63
364.568	88.4
364.779	-52.91
364.99	196.95
365.201	-73.39
365.412	57.68
365.623	-93.87
365.834	43.35
366.045	-16.04
366.256	117.08
366.467	104.79
366.678	2.39
366.889	143.7
367.1	0.34
367.311	119.12
367.522	41.3
367.733	59.73
367.944	24.92
368.155	67.92
368.366	129.36
368.577	227.67
368.788	143.7
368.999	-102.06
369.209	45.4
369.42	194.9
369.631	213.33
369.842	86.36
370.053	16.73
370.264	53.59
370.474	4.44
370.685	49.49
370.896	43.35
371.107	110.93
371.317	143.7
371.528	20.82
371.739	215.38
371.95	82.26
372.16	131.41
372.371	29.01
372.582	20.82
372.792	67.92
373.003	24.92
373.214	72.02
373.424	53.59
373.635	47.44
373.846	213.33
374.056	4.44
374.267	8.53
374.477	86.36
374.688	35.16
374.898	43.35
375.109	37.2
375.319	61.78
375.53	90.45
375.74	98.64
375.951	-1.71
376.161	24.92
376.372	49.49
376.582	-28.33
376.793	39.25
377.003	0.34
377.214	-26.28
377.424	117.08
377.635	-1.71
377.845	29.01
378.055	151.89
378.266	-50.86
378.476	47.44
378.686	119.12
378.897	96.6
379.107	115.03
379.317	41.3
379.528	65.88
379.738	147.8
379.948	-18.09
380.158	96.6
380.369	-7.85
380.579	82.26
380.789	-24.23
380.999	100.69
381.21	123.22
381.42	147.8
381.63	22.87
381.84	61.78
382.05	12.63
382.261	155.99
382.471	155.99
382.681	-18.09
382.891	166.23
383.101	43.35
383.311	-75.43
383.521	-63.15
383.731	69.97
383.941	139.6
384.151	59.73
384.361	-26.28
384.571	84.31
384.781	65.88
384.991	188.75
385.201	174.42
385.411	102.74
385.621	0.34
385.831	33.11
386.041	108.88
386.251	63.83
386.461	108.88
386.671	47.44
386.881	33.11
387.091	137.56
387.301	131.41
387.511	53.59
387.72	74.07
387.93	10.58
388.14	-61.1
388.35	53.59
388.56	47.44
388.769	102.74
388.979	72.02
389.189	-32.43
389.399	-5.8
389.609	110.93
389.818	65.88
390.028	67.92
390.238	84.31
390.447	8.53
390.657	108.88
390.867	49.49
391.076	-38.57
391.286	98.64
391.496	51.54
391.705	69.97
391.915	207.19
392.125	121.17
392.334	29.01
392.544	176.47
392.753	92.5
392.963	4.44
393.172	33.11
393.382	14.68
393.591	151.89
393.801	37.2
394.01	149.84
394.22	84.31
394.429	24.92
394.639	51.54
394.848	55.64
395.058	80.21
395.267	-1.71
395.477	162.13
395.686	74.07
395.895	321.87
396.105	143.7
396.314	98.64
396.524	2.39
396.733	35.16
396.942	119.12
397.152	41.3
397.361	221.52
397.57	155.99
397.78	59.73
397.989	63.83
398.198	250.19
398.407	31.06
398.617	22.87
398.826	12.63
399.035	29.01
399.244	82.26
399.453	117.08
399.663	16.73
399.872	0.34
400.081	-18.09
400.29	74.07
400.499	-20.14
400.708	104.79
400.917	39.25
401.127	112.98
401.336	-22.19
401.545	86.36
401.754	67.92
401.963	80.21
402.172	-16.04
402.381	18.77
402.59	-9.9
402.799	26.96
403.008	63.83
403.217	47.44
403.426	100.69
403.635	4.44
403.844	141.65
404.053	-34.47
404.262	35.16
404.471	252.24
404.68	119.12
404.888	14.68
405.097	67.92
405.306	37.2
405.515	153.94
405.724	26.96
405.933	168.27
406.142	0.34
406.35	104.79
406.559	20.82
406.768	4.44
406.977	262.48
407.185	98.64
407.394	115.03
407.603	-24.23
407.812	108.88
408.02	180.56
408.229	80.21
408.438	108.88
408.646	43.35
408.855	78.16
409.064	90.45
409.272	33.11
409.481	102.74
409.69	88.4
409.898	18.77
410.107	82.26
410.315	123.22
410.524	65.88
410.733	12.63
410.941	61.78
411.15	164.18
411.358	4.44
411.567	217.43
411.775	117.08
411.984	37.2
412.192	55.64
412.401	24.92
412.609	145.75
412.818	194.9
413.026	37.2
413.234	112.98
413.443	63.83
413.651	14.68
413.86	35.16
414.068	147.8
414.276	176.47
414.485	12.63
414.693	145.75
414.901	188.75
415.11	72.02
415.318	69.97
415.526	61.78
415.734	78.16
415.943	90.45
416.151	168.27
416.359	108.88
416.567	18.77
416.776	139.6
416.984	112.98
417.192	151.89
417.4	39.25
417.608	-22.19
417.817	55.64
418.025	117.08
418.233	229.71
418.441	-5.8
418.649	24.92
418.857	104.79
419.065	65.88
419.273	12.63
419.481	76.12
419.689	-11.95
419.897	-5.8
420.105	45.4
420.313	172.37
420.521	164.18
420.729	192.85
420.937	24.92
421.145	55.64
421.353	123.22
421.561	133.46
421.769	84.31
421.977	112.98
422.185	201.04
422.393	-20.14
422.601	74.07
422.809	110.93
423.017	39.25
423.224	127.32
423.432	137.56
423.64	74.07
423.848	172.37
424.056	-1.71
424.263	112.98
424.471	94.55
424.679	184.66
424.887	72.02
425.094	158.03
425.302	98.64
425.51	80.21
425.718	84.31
425.925	57.68
426.133	61.78
426.341	172.37
426.548	84.31
426.756	90.45
426.964	192.85
427.171	112.98
427.379	162.13
427.586	29.01
427.794	88.4
428.001	184.66
428.209	96.6
428.417	121.17
428.624	137.56
428.832	196.95
429.039	41.3
429.247	137.56
429.454	115.03
429.662	264.53
429.869	115.03
430.076	194.9
430.284	211.28
430.491	194.9
430.699	205.14
430.906	244.05
431.114	203.09
431.321	203.09
431.528	153.94
431.736	172.37
431.943	104.79
432.15	256.34
432.358	198.99
432.565	383.31
432.772	16.73
432.979	270.67
433.187	182.61
433.394	338.26
433.601	115.03
433.808	237.91
434.016	278.87
434.223	215.38
434.43	225.62
434.637	371.02
434.844	395.6
435.052	330.06
435.259	350.54
435.466	336.21
435.673	348.5
435.88	373.07
436.087	440.65
436.294	356.69
436.501	305.49
436.708	252.24
436.915	422.22
437.122	401.74
437.329	328.02
437.537	407.89
437.743	452.94
437.95	520.53
438.157	465.23
438.364	424.27
438.571	477.52
438.778	473.42
438.985	487.76
439.192	661.84
439.399	520.53
439.606	651.6
439.813	551.24
440.02	905.54
440.227	831.82
440.433	747.85
440.64	780.62
440.847	702.79
441.054	717.13
441.261	909.64
441.467	868.68
441.674	846.15
441.881	891.21
442.088	817.48
442.294	979.27
442.501	864.58
442.708	1007.94
442.914	973.13
443.121	1155.4
443.328	1091.91
443.534	1124.68
443.741	1214.79
443.948	1108.29
444.154	1239.36
444.361	1401.15
444.568	1417.54
444.774	1300.8
444.981	1319.23
445.187	1399.1
445.394	1468.73
445.6	1560.89
445.807	1743.16
446.013	1630.52
446.22	1648.96
446.426	1800.51
446.633	1923.38
446.839	2036.02
447.046	1868.09
447.252	2179.38
447.459	2136.37
447.665	2130.23
447.871	2314.55
448.078	2476.34
448.284	2429.23
448.491	2599.21
448.697	2795.82
448.903	2732.33
449.11	2842.92
449.316	2789.67
449.522	2937.13
449.728	3221.8
449.935	3244.32
450.141	3254.56
450.347	3549.47
450.553	3492.13
450.76	3496.22
450.966	3862.81
451.172	3924.25
451.378	4143.38
451.584	4096.28
451.791	4286.74
451.997	4638.99
452.203	4722.96
452.409	4966.67
452.615	5067.02
452.821	5005.58
453.027	5179.65
453.233	5775.61
453.44	5570.82
453.646	5935.35
453.852	6017.27
454.058	6232.31
454.264	6625.52
454.47	6955.24
454.676	6906.09
454.882	7432.42
455.088	7205.1
455.294	7618.79
455.5	8194.26
455.705	8665.3
455.911	8487.12
456.117	8816.85
456.323	9175.24
456.529	9089.23
456.735	9947.33
456.941	10129.59
457.147	10703.03
457.352	10801.33
457.558	11227.31
457.764	11905.18
457.97	12300.44
458.176	12734.61
458.381	13349
458.587	13674.63
458.793	14194.81
458.999	14293.12
459.204	15974.5
459.41	16676.95
459.616	16349.28
459.821	17272.91
460.027	18151.49
460.233	19093.55
460.438	18923.57
460.644	20058.15
460.85	20375.58
461.055	20938.77
461.261	22243.33
461.466	21362.7
461.672	21993.48
461.878	24506.34
462.083	24131.56
462.289	24973.27
462.494	26015.69
462.7	26193.86
462.905	26359.75
463.111	28731.29
463.316	30128.01
463.522	30447.49
463.727	31172.47
463.932	32765.79
464.138	33607.51
464.343	35098.43
464.549	35239.74
464.754	37809.94
464.959	38643.46
465.165	38899.46
465.37	39253.76
465.575	39044.87
465.781	41660.12
465.986	42774.22
466.191	42278.61
466.397	42733.26
466.602	41449.18
466.807	44111.54
467.012	44670.64
467.218	45455.01
467.423	45745.82
467.628	46851.72
467.833	49313.38
468.038	48397.94
468.244	47535.74
468.449	49657.44
468.654	48723.57
468.859	49174.12
469.064	48864.88
469.269	47621.76
469.474	48127.61
469.679	49190.5
469.885	47840.89
470.09	49059.43
470.295	48840.3
470.5	47840.89
470.705	48193.14
470.91	46923.4
471.115	46433.94
471.32	47429.25
471.525	46917.26
471.73	45481.63
471.935	45491.87
472.139	43599.55
472.344	43783.87
472.549	43585.21
472.754	42784.46
472.959	42041.04
473.164	40988.39
473.369	39665.4
473.574	40949.48
473.778	40287.98
473.983	39487.23
474.188	38604.55
474.393	36904.74
474.598	36601.64
474.802	36120.37
475.007	35483.45
475.212	35247.93
475.417	33873.74
475.621	33384.28
475.826	33138.52
476.031	32458.6
476.235	32100.2
476.44	31776.62
476.645	31215.48
476.849	30828.41
477.054	30082.95
477.259	29448.08
477.463	29550.48
477.668	28239.78
477.872	28782.49
478.077	27885.48
478.282	27303.86
478.486	26898.36
478.691	26460.1
478.895	26359.75
479.1	26064.84
479.304	25929.67
479.509	24981.46
479.713	25620.43
479.918	25026.52
480.122	24485.86
480.326	24649.69
480.531	24666.08
480.735	24125.41
480.94	23998.44
481.144	24668.12
481.348	22992.89
481.553	23308.27
481.757	22857.72
481.961	23091.19
482.166	23293.94
482.37	22843.38
482.574	22536.19
482.778	22214.66
482.983	22587.39
483.187	22071.3
483.391	21944.33
483.595	21766.15
483.8	21145.62
484.004	21499.92
484.208	21557.26
484.412	20703.26
484.616	21010.45
484.821	20566.04
485.025	19908.65
485.229	20297.76
485.433	19630.12
485.637	19482.67
485.841	18946.1
486.045	19159.09
486.249	18882.61
486.453	18395.2
486.657	18432.06
486.861	17997.89
487.065	17313.87
487.269	17649.74
487.473	16803.92
487.677	17168.46
487.881	17094.74
488.085	16222.3
488.289	16093.28
488.493	15976.55
488.697	16046.18
488.901	15407.21
489.105	15046.77
489.309	14770.29
489.512	14692.47
489.716	14497.91
489.92	13983.87
490.124	13967.49
490.328	13824.13
490.531	13457.54
490.735	13224.08
490.939	13002.89
491.143	12615.83
491.346	12370.07
491.55	12486.81
491.754	12181.66
491.958	12046.49
492.161	11792.55
492.365	11563.17
492.569	11536.55
492.772	10973.36
492.976	11225.26
493.18	10866.86
493.383	10832.05
493.587	10705.07
493.79	10799.28
493.994	10197.18
494.197	10262.71
494.401	10102.97
494.605	10109.12
494.808	10174.65
495.012	9906.37
495.215	9697.47
495.419	9830.59
495.622	9668.8
495.825	9691.33
496.029	9500.87
496.232	9865.41
496.436	9199.82
496.639	9943.23
496.843	9521.35
497.046	9593.03
497.249	9570.5
497.453	9531.59
497.656	9572.55
497.859	9517.25
498.063	9646.27
498.266	9828.54
498.469	9552.07
498.673	9515.2
498.876	9492.68
499.079	9834.69
499.282	9660.61
499.485	10047.68
499.689	9992.38
499.892	10107.07
500.095	9994.43
500.298	10162.36
500.501	9787.58
500.705	10277.05
500.908	10266.81
501.111	10215.61
501.314	10543.28
501.517	10500.28
501.72	10440.89
501.923	10694.83
502.126	10657.97
502.329	11106.48
502.532	11051.18
502.735	11161.77
502.938	11528.36
503.141	11595.94
503.344	11704.48
503.547	11614.37
503.75	11600.04
503.953	11925.66
504.156	12265.63
504.359	12236.95
504.562	12196
504.765	12699.8
504.968	12886.16
505.17	13080.72
505.373	13207.69
505.576	13482.12
505.779	13619.33
505.982	13930.62
506.185	14231.68
506.387	14004.35
506.59	14442.62
506.793	14948.47
506.996	15024.24
507.198	15597.67
507.401	15634.53
507.604	15741.03
507.807	16269.41
508.009	16750.68
508.212	16846.93
508.415	17047.63
508.617	17332.3
508.82	17864.77
509.022	18085.95
509.225	18610.23
509.428	19128.37
509.63	19361.84
509.833	19789.86
510.035	20224.03
510.238	20465.69
510.44	20850.71
510.643	21458.96
510.845	21872.65
511.048	22149.12
511.25	22818.81
511.453	23169.01
511.655	24342.5
511.858	24360.93
512.06	25036.76
512.262	25421.78
512.465	25692.11
512.667	26574.78
512.87	27215.8
513.072	27623.34
513.274	28260.26
513.477	28858.27
513.679	29452.18
513.881	30326.66
514.084	30771.07
514.286	31381.37
514.488	31956.85
514.69	33144.67
514.893	33484.63
515.095	34176.84
515.297	34721.6
515.499	35704.63
515.701	36136.75
515.904	36917.03
516.106	37642.01
516.308	38231.82
516.51	39405.31
516.712	39399.16
516.914	40550.12
517.116	41623.26
517.318	42237.65
517.52	42481.36
517.722	43364.03
517.925	44138.16
518.127	44793.51
518.329	45991.58
518.531	46124.69
518.733	47122.05
518.935	47974.01
519.136	48408.18
519.338	49247.85
519.54	50028.12
519.742	51037.77
519.944	51213.9
520.146	52831.79
520.348	53093.93
520.55	53253.67
520.752	53792.29
520.954	55186.96
521.155	54728.21
521.357	56086.01
521.559	56231.42
521.761	57066.99
521.963	57615.85
522.164	57501.16
522.366	58588.63
522.568	58676.69
522.77	59528.65
522.971	60159.42
523.173	59778.5
523.375	60491.19
523.576	60188.09
523.778	60829.11
523.98	61197.74
524.181	61310.38
524.383	61232.56
524.584	61961.64
524.786	61701.54
524.988	61328.81
525.189	62285.21
525.391	62021.03
525.592	62035.36
525.794	62186.91
525.995	62186.91
526.197	62053.79
526.398	61822.37
526.6	62059.94
526.801	61652.39
527.003	62043.55
527.204	61576.62
527.406	61457.84
527.607	61164.98
527.808	60700.09
528.01	59979.2
528.211	59954.63
528.412	60450.23
528.614	59532.74
528.815	59239.89
529.016	59389.39
529.218	58547.67
529.419	58232.28
529.62	57558.5
529.822	57103.85
530.023	56344.06
530.224	56137.21
530.425	55416.33
530.626	54824.46
530.828	53794.34
531.029	54765.07
531.23	53429.8
531.431	52817.46
531.632	52327.99
531.833	51811.9
532.035	50910.8
532.236	50529.87
532.437	49798.75
532.638	49395.3
532.839	49065.58
533.04	48805.48
533.241	47285.89
533.442	47836.8
533.643	46452.37
533.844	45680.28
534.045	45600.41
534.246	44879.53
534.447	44508.85
534.648	43644.6
534.849	43304.64
535.05	42309.33
535.251	41807.58
535.451	41391.84
535.652	40580.84
535.853	40249.07
536.054	39712.5
536.255	39290.62
536.456	38264.59
536.657	38625.03
536.857	37900.05
537.058	36976.42
537.259	37224.22
537.46	36106.03
537.66	35788.6
537.861	35575.61
538.062	34770.75
538.263	34547.53
538.463	33929.04
538.664	33335.13
538.865	33300.31
539.065	33232.73
539.266	32360.3
539.466	32012.14
539.667	31180.67
539.868	31614.83
540.068	31031.16
540.269	30701.44
540.469	30072.71
540.67	29618.07
540.87	29534.1
541.071	28942.24
541.271	28821.41
541.472	28764.06
541.672	28137.38
541.873	27621.3
542.073	27133.88
542.274	27455.41
542.474	26851.26
542.675	26499.01
542.875	26400.71
543.075	26005.45
543.276	25395.15
543.476	25690.06
543.676	25106.39
543.877	25010.14
544.077	24532.96
544.277	24383.46
544.478	23967.72
544.678	23642.09
544.878	23511.02
545.078	23230.45
545.279	22728.7
545.479	22458.37
545.679	22484.99
545.879	22165.51
546.079	22026.25
546.28	21766.15
546.48	21385.23
546.68	21356.56
546.88	21221.39
547.08	20760.6
547.28	20232.22
547.48	19929.13
547.68	19943.46
547.88	19605.55
548.081	19378.22
548.281	19247.15
548.481	18962.48
548.681	18815.03
548.881	18409.53
549.081	18104.39
549.28	17846.34
549.48	17829.96
549.68	17659.98
549.88	17528.91
550.08	17133.65
550.28	16836.69
550.48	16642.14
550.68	16656.47
550.88	15880.29
551.08	15911.01
551.279	15722.6
551.479	15394.92
551.679	15362.15
551.879	14956.66
552.079	14620.79
552.278	14346.36
552.478	14463.1
552.678	14274.68
552.878	14059.65
553.077	13852.8
553.277	13512.84
553.477	13600.9
553.676	13166.73
553.876	12925.07
554.076	12556.44
554.275	12679.32
554.475	12130.46
554.674	12314.78
554.874	11917.47
555.074	11655.33
555.273	11466.92
555.473	11473.06
555.672	11188.39
555.872	10885.3
556.071	10913.97
556.271	10911.92
556.47	10639.54
556.67	10490.04
556.869	10184.89
557.068	9908.41
557.268	9703.62
557.467	9849.02
557.667	9685.19
557.866	9300.17
558.065	9152.71
558.265	8931.53
558.464	8843.47
558.663	9015.5
558.863	8808.65
559.062	8759.5
559.261	8462.55
559.461	8390.87
559.66	8173.78
559.859	8155.35
560.058	7831.77
560.258	7807.2
560.457	7543.01
560.656	7702.75
560.855	7457
561.054	7624.93
561.253	7383.27
561.453	7071.98
561.652	6965.48
561.851	7076.07
562.05	6559.99
562.249	6646
562.448	6568.18
562.647	6347
562.846	6379.76
563.045	6463.73
563.244	6068.47
563.443	6310.13
563.642	5875.96
563.841	6060.28
564.04	5910.78
564.239	5759.23
564.438	5546.24
564.637	5531.9
564.836	5511.43
565.035	5447.94
565.234	5288.2
565.432	5177.61
565.631	5087.5
565.83	5245.19
566.029	5087.5
566.228	4987.15
566.427	4958.47
566.625	4837.64
566.824	4782.35
567.023	4821.26
567.222	4485.39
567.42	4452.63
567.619	4595.98
567.818	4583.7
568.016	4518.16
568.215	4296.98
568.414	4329.75
568.612	4190.49
568.811	4122.9
569.01	4167.96
569.208	3991.83
569.407	4002.07
569.605	3856.67
569.804	3942.68
570.002	3834.14
570.201	3760.41
570.4	3746.08
570.598	3602.72
570.797	3526.94
570.995	3453.22
571.193	3537.18
571.392	3418.4
571.59	3227.94
571.789	3414.31
571.987	3459.36
572.186	3248.42
572.384	3082.53
572.582	3129.64
572.781	3121.45
572.979	3072.29
573.177	3012.9
573.376	3041.57
573.574	3021.1
573.772	2902.31
573.971	2820.39
574.169	2677.04
574.367	2869.55
574.565	2713.9
574.763	2691.37
574.962	2662.7
575.16	2472.24
575.358	2435.38
575.556	2543.92
575.754	2484.53
575.952	2359.6
576.151	2316.59
576.349	2462
576.547	2150.71
576.745	2265.39
576.943	2257.2
577.141	2087.22
577.339	2195.76
577.537	2220.34
577.735	2105.65
577.933	2095.41
578.131	2083.13
578.329	2011.45
578.527	1968.44
578.725	1960.25
578.923	1788.22
579.121	1890.62
579.319	1685.82
579.516	1763.64
579.714	2029.88
579.912	1843.51
580.11	1712.44
580.308	1634.62
580.506	1827.13
580.704	1513.79
580.901	1612.09
581.099	1665.34
581.297	1691.96
581.495	1556.8
581.692	1474.88
581.89	1632.57
582.088	1515.84
582.285	1511.74
582.483	1499.45
582.681	1435.97
582.878	1466.69
583.076	1456.45
583.274	1364.29
583.471	1528.13
583.669	1274.18
583.866	1243.46
584.064	1292.61
584.262	1184.07
584.459	1179.97
584.657	1190.21
584.854	1280.32
585.052	1202.5
585.249	1335.62
585.447	1218.88
585.644	1122.63
585.841	1208.64
586.039	1245.51
586.236	1206.59
586.434	1104.2
586.631	1065.29
586.828	915.78
587.026	1055.05
587.223	987.46
587.42	999.75
587.618	1091.91
587.815	1116.48
588.012	979.27
588.21	973.13
588.407	1053
588.604	1036.61
588.801	991.56
588.999	993.61
589.196	975.17
589.393	903.5
589.59	913.74
589.787	854.34
589.984	876.87
590.182	952.65
590.379	895.3
590.576	905.54
590.773	827.72
590.97	821.58
591.167	917.83
591.364	1024.33
591.561	803.15
591.758	958.79
591.955	821.58
592.152	909.64
592.349	758.09
592.546	844.1
592.743	921.93
592.94	864.58
593.137	958.79
593.334	883.02
593.531	915.78
593.727	880.97
593.924	913.74
594.121	827.72
594.318	829.77
594.515	915.78
594.712	1007.94
594.908	989.51
595.105	797
595.302	831.82
595.499	956.74
595.696	1096
595.892	860.49
596.089	1032.52
596.286	932.17
596.482	1116.48
596.679	1022.28
596.876	1032.52
597.072	995.65
597.269	1098.05
597.466	1053
597.662	1079.62
597.859	1100.1
598.055	1179.97
598.252	1261.89
598.448	1335.62
598.645	1517.89
598.841	1440.06
599.038	1587.52
599.234	1564.99
599.431	1552.7
599.627	1687.87
599.824	1704.25
600.02	1698.11
600.217	1786.17
600.413	1939.77
600.609	1909.05
600.806	2154.8
601.002	2146.61
601.198	2101.56
601.395	2343.22
601.591	2269.49
601.787	2441.52
601.984	2394.42
602.18	2640.17
602.376	2718
602.572	2799.91
602.769	2951.46
602.965	3055.91
603.161	3143.97
603.357	3322.15
603.553	3449.12
603.75	3410.21
603.946	3498.27
604.142	3748.12
604.338	3846.43
604.534	3778.84
604.73	3989.78
604.926	4065.56
605.122	4227.35
605.318	4440.34
605.514	4651.28
605.71	4653.33
605.906	4907.27
606.102	5085.45
606.298	5243.14
606.494	5302.53
606.69	5597.44
606.886	5654.78
607.082	5699.84
607.278	5921.02
607.474	6119.67
607.67	6134.01
607.866	6220.02
608.062	6719.73
608.257	6707.44
608.453	6967.53
608.649	7061.74
608.845	7276.77
609.041	7307.49
609.236	8038.62
609.432	7848.16
609.628	8280.28
609.824	8497.36
610.019	8454.36
610.215	8855.76
610.411	9365.7
610.606	9281.74
610.802	9556.16
610.998	9842.88
611.193	10072.25
611.389	10320.06
611.584	10754.23
611.78	10936.49
611.976	11200.68
612.171	11708.58
612.367	11825.31
612.562	12150.94
612.758	12333.21
612.953	12660.88
613.149	12955.79
613.344	13164.68
613.539	13932.67
613.735	14155.9
613.93	14628.98
614.126	14710.9
614.321	15239.28
614.517	15683.69
614.712	16083.04
614.907	16289.88
615.103	16984.15
615.298	17416.27
615.493	17858.63
615.688	17920.07
615.884	19269.68
616.079	18896.95
616.274	19773.48
616.47	20080.67
616.665	20658.2
616.86	20840.47
617.055	21690.38
617.25	22063.11
617.445	23109.62
617.641	22902.78
617.836	24186.85
618.031	24238.05
618.226	24967.13
618.421	25571.28
618.616	26124.23
618.811	26449.86
619.006	27635.63
619.201	27842.48
619.396	28802.97
619.591	28809.12
619.786	30154.63
619.981	30070.67
620.176	31104.89
620.371	31528.82
620.566	32442.21
620.761	32853.86
620.956	34076.49
621.151	34297.67
621.346	35333.95
621.541	35168.06
621.735	36773.67
621.93	36706.09
622.125	37949.2
622.32	37906.19
622.515	39055.11
622.709	39606.01
622.904	40617.71
623.099	40730.34
623.294	42411.73
623.488	42243.79
623.683	43730.62
623.878	43454.14
624.072	44734.12
624.267	45440.67
624.462	45909.66
624.656	46388.88
624.851	47283.84
625.046	47767.16
625.24	48365.17
625.435	48989.8
625.629	49583.71
625.824	50343.51
626.018	51074.63
626.213	50681.42
626.407	52192.82
626.602	52196.92
626.796	52930.09
626.991	53773.86
627.185	54298.14
627.38	54140.44
627.574	54638.1
627.768	54767.12
627.963	55010.83
628.157	54742.55
628.352	55903.74
628.546	55027.21
628.74	55602.69
628.935	55477.77
629.129	55698.95
629.323	54849.04
629.517	55031.31
629.712	54906.38
629.906	54722.07
630.1	53620.26
630.294	53136.94
630.489	52815.41
630.683	52561.46
630.877	50859.6
631.071	50421.33
631.265	50300.5
631.459	48756.33
631.653	47857.28
631.848	47011.46
632.042	45647.52
632.236	45387.42
632.43	43325.12
632.624	42927.81
632.818	41334.49
633.012	39866.1
633.206	38954.75
633.4	38158.1
633.594	36503.34
633.788	35645.24
633.982	33963.86
634.176	33341.27
634.369	31823.73
634.563	30457.73
634.757	29317.01
634.951	28587.94
635.145	27473.84
635.339	26388.42
635.533	25563.09
635.726	24236
635.92	22925.3
636.114	22161.41
636.308	21374.99
636.501	20662.3
636.695	19896.36
636.889	18960.44
637.083	18126.91
637.276	17227.85
637.47	16638.04
637.664	15976.55
637.857	15333.48
638.051	14755.96
638.244	13926.53
638.438	13666.44
638.632	13090.96
638.825	12386.46
639.019	12421.27
639.212	11497.64
639.406	11073.71
639.599	10494.13
639.793	10426.55
639.986	9808.06
640.18	9681.09
640.373	8949.96
640.567	8718.54
640.76	8501.46
640.954	8126.68
641.147	7831.77
641.34	7457
641.534	7407.84
641.727	6942.96
641.92	6887.66
642.114	6523.12
642.307	6082.81
642.5	5984.51
642.694	5753.09
642.887	5548.29
643.08	5382.4
643.273	5208.33
643.467	4901.13
643.66	4696.33
643.853	4548.88
644.046	4495.63
644.239	4163.86
644.432	3987.74
644.626	3748.12
644.819	3672.35
645.012	3696.92
645.205	3621.15
645.398	3438.88
645.591	3139.88
645.784	3049.77
645.977	2945.32
646.17	2881.83
646.363	2881.83
646.556	2480.43
646.749	2496.82
646.942	2441.52
647.135	2425.14
647.328	2310.45
647.521	2271.54
647.714	1995.06
647.907	2122.04
648.099	1972.54
648.292	1970.49
648.485	1894.71
648.678	1630.52
648.871	1661.24
649.064	1700.16
649.256	1546.56
649.449	1495.36
649.642	1401.15
649.835	1413.44
650.027	1278.27
650.22	1390.91
650.413	1399.1
650.605	1319.23
650.798	1186.12
650.991	1108.29
651.183	1050.95
651.376	1132.87
651.568	1126.72
651.761	975.17
651.954	1003.85
652.146	928.07
652.339	975.17
652.531	952.65
652.724	878.92
652.916	741.71
653.109	715.08
653.301	868.68
653.494	801.1
653.686	614.73
653.879	788.81
654.071	737.61
654.263	563.53
654.456	708.94
654.648	715.08
654.84	663.88
655.033	557.39
655.225	741.71
655.417	512.33
655.61	639.31
655.802	584.01
655.994	678.22
656.186	487.76
656.379	592.2
656.571	442.7
656.763	379.22
656.955	348.5
657.148	450.89
657.34	508.24
657.532	391.5
657.724	438.61
657.916	387.41
658.108	524.62
658.3	348.5
658.492	424.27
658.684	285.01
658.876	526.67
659.068	385.36
659.26	270.67
659.452	323.92
659.644	371.02
659.836	366.93
660.028	362.83
660.22	256.34
660.412	264.53
660.604	307.54
660.796	323.92
660.988	524.62
661.18	276.82
661.372	307.54
661.563	264.53
661.755	262.48
661.947	190.8
662.139	227.67
662.331	328.02
662.522	336.21
662.714	178.51
662.906	264.53
663.097	246.1
663.289	174.42
663.481	115.03
663.673	293.2
663.864	225.62
664.056	274.77
664.247	135.51
664.439	254.29
664.631	227.67
664.822	250.19
665.014	301.39
665.205	201.04
665.397	188.75
665.588	225.62
665.78	153.94
665.971	203.09
666.163	205.14
666.354	190.8
666.546	61.78
666.737	137.56
666.929	172.37
667.12	205.14
667.311	235.86
667.503	242
667.694	266.58
667.885	170.32
668.077	223.57
668.268	82.26
668.459	170.32
668.651	147.8
668.842	254.29
669.033	135.51
669.224	96.6
669.416	461.13
669.607	84.31
669.798	115.03
669.989	260.43
670.18	186.71
670.371	227.67
670.563	119.12
670.754	205.14
670.945	227.67
671.136	151.89
671.327	135.51
671.518	244.05
671.709	252.24
671.9	215.38
672.091	293.2
672.282	244.05
672.473	272.72
672.664	90.45
672.855	250.19
673.046	244.05
673.237	244.05
673.428	205.14
673.619	295.25
673.809	221.52
674	293.2
674.191	246.1
674.382	162.13
674.573	205.14
674.764	209.23
674.954	260.43
675.145	141.65
675.336	147.8
675.527	182.61
675.717	127.32
675.908	96.6
676.099	231.76
676.289	172.37
676.48	80.21
676.671	242
676.861	237.91
677.052	254.29
677.243	227.67
677.433	233.81
677.624	282.96
677.814	280.91
678.005	201.04
678.195	323.92
678.386	129.36
678.576	172.37
678.767	135.51
678.957	186.71
679.148	340.3
679.338	295.25
679.529	213.33
679.719	166.23
679.909	348.5
680.1	207.19
680.29	317.78
680.481	178.51
680.671	352.59
680.861	291.15
681.052	332.11
681.242	274.77
681.432	346.45
681.622	293.2
681.813	160.08
682.003	282.96
682.193	250.19
682.383	233.81
682.573	289.1
682.764	209.23
682.954	336.21
683.144	424.27
683.334	268.63
683.524	244.05
683.714	311.63
683.904	311.63
684.094	389.46
684.284	270.67
684.474	330.06
684.664	338.26
684.854	244.05
685.044	276.82
685.234	203.09
685.424	342.35
685.614	242
685.804	436.56
685.994	336.21
686.184	319.82
686.374	309.58
686.564	301.39
686.753	289.1
686.943	172.37
687.133	291.15
687.323	293.2
687.513	317.78
687.702	303.44
687.892	213.33
688.082	368.98
688.272	348.5
688.461	321.87
688.651	422.22
688.841	307.54
689.03	209.23
689.22	270.67
689.41	454.99
689.599	254.29
689.789	182.61
689.979	297.3
690.168	272.72
690.358	311.63
690.547	346.45
690.737	368.98
690.926	313.68
691.116	231.76
691.305	434.51
691.495	356.69
691.684	127.32
691.874	287.06
692.063	280.91
692.252	305.49
692.442	373.07
692.631	217.43
692.82	260.43
693.01	270.67
693.199	194.9
693.388	244.05
693.578	180.56
693.767	319.82
693.956	354.64
694.146	280.91
694.335	235.86
694.524	289.1
694.713	229.71
694.902	213.33
695.092	186.71
695.281	377.17
695.47	262.48
695.659	164.18
695.848	264.53
696.037	239.95
696.226	354.64
696.415	272.72
696.604	358.74
696.793	254.29
696.982	160.08
697.171	358.74
697.36	258.39
697.549	258.39
697.738	115.03
697.927	272.72
698.116	188.75
698.305	231.76
698.494	285.01
698.683	180.56
698.872	315.73
699.061	170.32
699.25	262.48
699.438	211.28
699.627	237.91
699.816	360.78
700.005	106.84
700.193	221.52
700.382	336.21
700.571	258.39
700.76	176.47
700.948	307.54
701.137	276.82
701.326	307.54
701.514	170.32
701.703	233.81
701.892	239.95
702.08	362.83
702.269	246.1
702.457	278.87
702.646	317.78
702.834	250.19
703.023	350.54
703.212	303.44
703.4	250.19
703.589	219.47
703.777	147.8
703.965	100.69
704.154	178.51
704.342	223.57
704.531	182.61
704.719	242
704.907	280.91
705.096	166.23
705.284	180.56
705.472	239.95
705.661	295.25
705.849	350.54
706.037	274.77
706.226	215.38
706.414	258.39
706.602	215.38
706.79	285.01
706.979	315.73
707.167	248.15
707.355	110.93
707.543	244.05
707.731	196.95
707.919	282.96
708.107	192.85
708.296	155.99
708.484	127.32
708.672	276.82
708.86	285.01
709.048	227.67
709.236	188.75
709.424	242
709.612	325.97
709.8	151.89
709.988	231.76
710.176	344.4
710.364	328.02
710.551	268.63
710.739	190.8
710.927	252.24
711.115	282.96
711.303	293.2
711.491	282.96
711.679	287.06
711.866	366.93
712.054	223.57
712.242	282.96
712.43	366.93
712.617	190.8
712.805	305.49
712.993	252.24
713.181	213.33
713.368	375.12
713.556	242
713.744	182.61
713.931	364.88
714.119	299.34
714.306	182.61
714.494	186.71
714.682	217.43
714.869	172.37
715.057	233.81
715.244	137.56
715.432	176.47
715.619	221.52
715.807	254.29
715.994	217.43
716.182	274.77
716.369	317.78
716.556	379.22
716.744	221.52
716.931	168.27
717.119	274.77
717.306	321.87
717.493	285.01
717.681	254.29
717.868	155.99
718.055	334.16
718.242	246.1
718.43	289.1
718.617	356.69
718.804	192.85
718.991	428.37
719.179	313.68
719.366	285.01
719.553	248.15
719.74	323.92
719.927	207.19
720.114	252.24
720.301	178.51
720.488	278.87
720.676	264.53
720.863	360.78
721.05	385.36
721.237	362.83
721.424	364.88
721.611	330.06
721.798	244.05
721.985	272.72
722.172	223.57
722.358	227.67
722.545	364.88
722.732	348.5
722.919	371.02
723.106	287.06
723.293	276.82
723.48	340.3
723.667	231.76
723.853	338.26
724.04	346.45
724.227	321.87
724.414	221.52
724.6	360.78
724.787	332.11
724.974	381.26
725.161	270.67
725.347	176.47
725.534	373.07
725.72	307.54
725.907	418.13
726.094	315.73
726.28	299.34
726.467	348.5
726.653	180.56
726.84	278.87
727.027	403.79
727.213	250.19
727.4	438.61
727.586	196.95
727.773	336.21
727.959	280.91
728.145	295.25
728.332	321.87
728.518	305.49
728.705	409.94
728.891	325.97
729.077	387.41
729.264	258.39
729.45	282.96
729.636	330.06
729.823	252.24
730.009	342.35
730.195	287.06
730.382	366.93
730.568	295.25
730.754	317.78
730.94	248.15
731.126	250.19
731.313	373.07
731.499	356.69
731.685	323.92
731.871	403.79
732.057	393.55
732.243	375.12
732.429	270.67
732.615	465.23
732.801	313.68
732.987	289.1
733.173	358.74
733.359	346.45
733.545	377.17
733.731	332.11
733.917	381.26
734.103	358.74
734.289	338.26
734.475	266.58
734.661	424.27
734.847	397.65
735.033	338.26
735.219	403.79
735.404	244.05
735.59	311.63
735.776	299.34
735.962	362.83
736.148	438.61
736.333	477.52
736.519	401.74
736.705	299.34
736.89	313.68
737.076	397.65
737.262	262.48
737.447	352.59
737.633	340.3
737.819	444.75
738.004	239.95
738.19	291.15
738.375	444.75
738.561	516.43
738.747	362.83
738.932	336.21
739.118	434.51
739.303	377.17
739.489	354.64
739.674	330.06
739.859	364.88
740.045	323.92
740.23	373.07
740.416	190.8
740.601	319.82
740.786	340.3
740.972	368.98
741.157	285.01
741.342	207.19
741.528	272.72
741.713	328.02
741.898	305.49
742.084	358.74
742.269	340.3
742.454	389.46
742.639	350.54
742.824	237.91
743.01	461.13
743.195	440.65
743.38	307.54
743.565	338.26
743.75	422.22
743.935	358.74
744.12	440.65
744.305	194.9
744.49	315.73
744.675	276.82
744.86	328.02
745.045	354.64
745.23	362.83
745.415	321.87
745.6	411.98
745.785	235.86
745.97	356.69
746.155	344.4
746.34	352.59
746.525	307.54
746.71	407.89
746.895	196.95
747.079	274.77
747.264	295.25
747.449	242
747.634	377.17
747.819	366.93
748.003	309.58
748.188	180.56
748.373	358.74
748.557	264.53
748.742	323.92
748.927	301.39
749.111	227.67
749.296	274.77
749.481	336.21
749.665	278.87
749.85	242
750.034	280.91
750.219	307.54
750.404	244.05
750.588	328.02
750.773	270.67
750.957	246.1
751.141	293.2
751.326	346.45
751.51	131.41
751.695	268.63
751.879	239.95
752.064	299.34
752.248	295.25
752.432	325.97
752.617	315.73
752.801	411.98
752.985	225.62
753.17	350.54
753.354	233.81
753.538	258.39
753.722	139.6
753.907	205.14
754.091	201.04
754.275	328.02
754.459	164.18
754.643	117.08
754.828	227.67
755.012	207.19
755.196	225.62
755.38	233.81
755.564	164.18
755.748	227.67
755.932	242
756.116	229.71
756.3	211.28
756.484	196.95
756.668	305.49
756.852	194.9
757.036	145.75
757.22	235.86
757.404	135.51
757.588	98.64
757.772	180.56
757.956	164.18
758.14	268.63
758.323	94.55
758.507	153.94
758.691	162.13
758.875	227.67
759.059	270.67
759.242	176.47
759.426	184.66
759.61	280.91
759.794	104.79
759.977	330.06
760.161	368.98
760.345	285.01
760.528	264.53
760.712	151.89
760.895	219.47
761.079	137.56
761.263	82.26
761.446	127.32
761.63	170.32
761.813	217.43
761.997	94.55
762.18	139.6
762.364	213.33
762.547	102.74
762.731	180.56
762.914	119.12
763.098	141.65
763.281	149.84
763.464	104.79
763.648	215.38
763.831	143.7
764.015	88.4
764.198	209.23
764.381	198.99
764.564	125.27
764.748	143.7
764.931	252.24
765.114	74.07
765.297	207.19
765.481	63.83
765.664	153.94
765.847	84.31
766.03	201.04
766.213	65.88
766.397	137.56
766.58	86.36
766.763	104.79
766.946	55.64
767.129	104.79
767.312	80.21
767.495	139.6
767.678	108.88
767.861	74.07
768.044	100.69
768.227	110.93
768.41	112.98
768.593	188.75
768.776	147.8
768.959	112.98
769.142	219.47
769.324	153.94
769.507	147.8
769.69	53.59
769.873	94.55
770.056	250.19
770.239	72.02
770.421	213.33
770.604	205.14
770.787	98.64
770.97	137.56
771.152	72.02
771.335	117.08
771.518	100.69
771.7	160.08
771.883	274.77
772.066	143.7
772.248	174.42
772.431	125.27
772.613	125.27
772.796	168.27
772.978	196.95
773.161	270.67
773.343	135.51
773.526	53.59
773.708	26.96
773.891	82.26
774.073	47.44
774.256	108.88
774.438	186.71
774.621	61.78
774.803	123.22
774.985	63.83
775.168	137.56
775.35	88.4
775.532	69.97
775.715	45.4
775.897	110.93
776.079	0.34
776.261	106.84
776.444	104.79
776.626	145.75
776.808	82.26
776.99	-9.9
777.173	82.26
777.355	69.97
777.537	106.84
777.719	84.31
777.901	26.96
778.083	92.5
778.265	-65.19
778.447	51.54
778.629	26.96
778.811	96.6
778.993	137.56
779.175	166.23
779.357	35.16
779.539	24.92
779.721	63.83
779.903	123.22
780.085	47.44
780.267	133.46
780.449	37.2
780.631	110.93
780.812	170.32
780.994	115.03
781.176	53.59
781.358	12.63
781.54	24.92
781.721	26.96
781.903	131.41
782.085	-13.99
782.267	121.17
782.448	2.39
782.63	0.34
782.812	41.3
782.993	45.4
783.175	76.12
783.357	61.78
783.538	74.07
783.72	104.79
783.901	51.54
784.083	127.32
784.264	143.7
784.446	-44.71
784.627	-71.34
784.809	121.17
784.99	-22.19
785.172	-18.09
785.353	-5.8
785.535	65.88
785.716	-9.9
785.897	-7.85
786.079	-36.52
786.26	49.49
786.441	35.16
786.623	-108.2
786.804	-75.43
786.985	96.6
787.167	96.6
787.348	41.3
787.529	4.44
787.71	125.27
787.891	102.74
788.073	-20.14
788.254	-67.24
788.435	59.73
788.616	0.34
788.797	0.34
788.978	29.01
789.159	82.26
789.34	102.74
789.522	59.73
789.703	24.92
789.884	43.35
790.065	100.69
790.246	174.42
790.427	-36.52
790.607	74.07
790.788	127.32
790.969	-65.19
791.15	69.97
791.331	-46.76
791.512	49.49
791.693	33.11
791.874	-5.8
792.054	164.18
792.235	115.03
792.416	-42.67
792.597	29.01
792.778	100.69
792.958	55.64
793.139	47.44
793.32	82.26
793.5	-91.82
793.681	104.79
793.862	145.75
794.042	-34.47
794.223	6.49
794.404	-52.91
794.584	-57
794.765	0.34
794.945	43.35
795.126	51.54
795.306	201.04
795.487	-61.1
795.667	-71.34
795.848	63.83
796.028	59.73
796.209	33.11
796.389	65.88
796.57	22.87
796.75	-118.44
796.93	98.64
797.111	-93.87
797.291	-34.47
797.471	84.31
797.652	18.77
797.832	-73.39
798.012	108.88
798.192	-7.85
798.373	-116.39
798.553	8.53
798.733	33.11
798.913	-136.87
799.093	-52.91
799.274	-7.85
799.454	4.44
799.634	82.26
799.814	104.79
799.994	84.31
800.174	24.92
800.354	-118.44
800.534	-93.87
800.714	59.73
800.894	-91.82
801.074	-167.59
801.254	12.63
801.434	106.84
801.614	-48.81
801.794	6.49
801.974	1866.04
802.154	102.74
802.334	67.92
802.514	-71.34
802.693	-20.14
802.873	-50.86
803.053	123.22
803.233	131.41
803.413	35.16
803.592	-114.34
803.772	-59.05
803.952	61.78
804.131	-3.75
804.311	2.39
804.491	143.7
804.67	-16.04
804.85	12.63
805.03	90.45
805.209	139.6
805.389	-5.8
805.568	-1.71
805.748	4.44
805.928	96.6
806.107	88.4
806.287	53.59
806.466	18.77
806.646	-38.57
806.825	-5.8
807.004	-124.58
807.184	6.49
807.363	-1.71
807.543	26.96
807.722	2.39
807.901	137.56
808.081	164.18
808.26	-91.82
808.439	16.73
808.619	59.73
808.798	-7.85
808.977	61.78
809.156	53.59
809.336	33.11
809.515	57.68
809.694	-30.38
809.873	6.49
810.052	72.02
810.231	57.68
810.411	18.77
810.59	47.44
810.769	-65.19
810.948	145.75
811.127	-130.73
811.306	-24.23
811.485	-63.15
811.664	72.02
811.843	-9.9
812.022	-28.33
812.201	-46.76
812.38	-18.09
812.559	-1.71
812.737	35.16
812.916	-75.43
813.095	-63.15
813.274	31.06
813.453	12.63
813.632	-44.71
813.811	98.64
813.989	-126.63
814.168	63.83
814.347	-63.15
814.526	6.49
814.704	129.36
814.883	160.08
815.062	26.96
815.24	94.55
815.419	-91.82
815.598	31.06
815.776	-147.11
815.955	-46.76
816.133	-128.68
816.312	16.73
816.49	-93.87
816.669	-32.43
816.847	-22.19
817.026	63.83
817.204	-30.38
817.383	-36.52
817.561	-63.15
817.74	43.35
817.918	-36.52
818.097	-18.09
818.275	-28.33
818.453	6.49
818.632	31.06
818.81	0.34
818.988	12.63
819.167	-81.58
819.345	53.59
819.523	-126.63
819.701	4.44
819.879	43.35
820.058	6.49
820.236	24.92
820.414	-7.85
820.592	-149.16
820.77	26.96
820.948	-46.76
821.127	-40.62
821.305	92.5
821.483	-81.58
821.661	53.59
821.839	45.4
822.017	29.01
822.195	-11.95
822.373	-38.57
822.551	-16.04
822.729	45.4
822.907	0.34
823.085	98.64
823.262	-44.71
823.44	-30.38
823.618	-30.38
823.796	-42.67
823.974	-9.9
824.152	-81.58
824.329	10.58
824.507	-13.99
824.685	22.87
824.863	45.4
825.04	20.82
825.218	-13.99
825.396	63.83
825.574	20.82
825.751	76.12
825.929	53.59
826.107	-67.24
826.284	-46.76
826.462	74.07
826.639	-75.43
826.817	-11.95
826.994	-5.8
827.172	-54.95
827.349	100.69
827.527	86.36
827.704	41.3
827.882	63.83
828.059	-18.09
828.237	-65.19
828.414	41.3
828.591	-16.04
828.769	57.68
828.946	-95.91
829.124	112.98
829.301	102.74
829.478	-30.38
829.655	41.3
829.833	-9.9
830.01	-114.34
830.187	-1.71
830.364	22.87
830.542	-50.86
830.719	96.6
830.896	31.06
831.073	82.26
831.25	2.39
831.427	29.01
831.604	12.63
831.782	-65.19
831.959	98.64
832.136	-61.1
832.313	20.82
832.49	-24.23
832.667	-59.05
832.844	2.39
833.021	80.21
833.198	-11.95
833.374	-44.71
833.551	98.64
833.728	-57
833.905	0.34
834.082	-67.24
834.259	-24.23
834.436	76.12
834.612	-44.71
834.789	10.58
834.966	2.39
835.143	-1.71
835.319	-57
835.496	41.3
835.673	45.4
835.85	84.31
836.026	-22.19
836.203	31.06
836.38	33.11
836.556	-32.43
836.733	-44.71
836.909	82.26
837.086	-77.48
837.262	-32.43
837.439	8.53
837.616	-26.28
837.792	-75.43
837.968	-3.75
838.145	-85.67
838.321	26.96
838.498	10.58
838.674	14.68
838.851	53.59
839.027	-40.62
839.203	-48.81
839.38	112.98
839.556	-73.39
839.732	108.88
839.909	43.35
840.085	-26.28
840.261	-52.91
840.437	37.2
840.614	-52.91
840.79	92.5
840.966	35.16
841.142	86.36
841.318	6.49
841.494	31.06
841.671	80.21
841.847	-54.95
842.023	-48.81
842.199	-71.34
842.375	96.6
842.551	-36.52
842.727	-69.29
842.903	166.23
843.079	-89.77
843.255	108.88
843.431	-9.9
843.607	59.73
843.783	-188.07
843.959	82.26
844.134	-143.02
844.31	133.46
844.486	-63.15
844.662	-59.05
844.838	43.35
845.013	76.12
845.189	14.68
845.365	20.82
845.541	4.44
845.716	-30.38
845.892	110.93
846.068	-104.11
846.244	-87.72
846.419	-7.85
846.595	-97.96
846.77	-42.67
846.946	55.64
847.122	-63.15
847.297	18.77
847.473	112.98
847.648	-87.72
847.824	31.06
847.999	-188.07
848.175	20.82
848.35	-77.48
848.526	39.25
848.701	110.93
848.876	24.92
849.052	65.88
849.227	-69.29
849.403	-42.67
849.578	6.49
849.753	8.53
849.929	76.12
850.104	-77.48
850.279	-73.39
850.454	12.63
850.63	94.55
850.805	-81.58
850.98	53.59
851.155	-89.77
851.33	49.49
851.505	-104.11
851.681	59.73
851.856	-85.67
852.031	49.49
852.206	14.68
852.381	-79.53
852.556	-42.67
852.731	74.07
852.906	94.55
853.081	12.63
853.256	80.21
853.431	6.49
853.606	-100.01
853.781	-85.67
853.956	-69.29
854.131	-7.85
854.305	-22.19
854.48	-7.85
854.655	-83.63
854.83	-102.06
855.005	-1.71
855.18	74.07
855.354	-40.62
855.529	39.25
855.704	-44.71
855.879	41.3
856.053	-77.48
856.228	-24.23
856.403	-83.63
856.577	74.07
856.752	-57
856.926	-73.39
857.101	65.88
857.276	-61.1
857.45	43.35
857.625	117.08
857.799	-13.99
857.974	-28.33
858.148	-114.34
858.323	37.2
858.497	-34.47
858.672	-28.33
858.846	-59.05
859.02	45.4
859.195	-46.76
859.369	-16.04
859.543	4.44
859.718	-22.19
859.892	90.45
860.066	-28.33
860.241	-24.23
860.415	-69.29
860.589	-30.38
860.763	33.11
860.938	-48.81
861.112	37.2
861.286	-36.52
861.46	-32.43
861.634	10.58
861.808	72.02
861.982	-18.09
862.157	-100.01
862.331	0.34
862.505	-128.68
862.679	-108.2
862.853	53.59
863.027	-24.23
863.201	94.55
863.375	-28.33
863.549	-34.47
863.722	12.63
863.896	80.21
864.07	-30.38
864.244	-26.28
864.418	-30.38
864.592	4.44
864.766	26.96
864.939	-11.95
865.113	14.68
865.287	78.16
865.461	-83.63
865.634	-18.09
865.808	-26.28
865.982	-50.86
866.156	-79.53
866.329	-122.54
866.503	-63.15
866.676	-22.19
866.85	14.68
867.024	-26.28
867.197	65.88
867.371	12.63
867.544	-1.71
867.718	-26.28
867.891	92.5
868.065	-73.39
868.238	-50.86
868.412	35.16
868.585	31.06
868.759	-34.47
868.932	-16.04
869.105	-52.91
869.279	-7.85
869.452	-97.96
869.625	74.07
869.799	24.92
869.972	-69.29
870.145	-44.71
870.319	84.31
870.492	-16.04
870.665	-36.52
870.838	-75.43
871.011	-104.11
871.185	4.44
871.358	-69.29
871.531	-9.9
871.704	-57
871.877	-1.71
872.05	-30.38
872.223	-34.47
872.396	78.16
872.569	-1.71
872.742	-73.39
872.915	-38.57
873.088	-57
873.261	-87.72
873.434	80.21
873.607	-83.63
873.78	125.27
873.953	-122.54
874.126	-9.9
874.299	-16.04
874.471	-13.99
874.644	18.77
874.817	59.73
874.99	131.41
875.163	57.68
875.335	26.96
875.508	-7.85
875.681	108.88
875.853	-114.34
876.026	20.82
876.199	33.11
876.371	35.16
876.544	-3.75
876.717	-28.33
876.889	0.34
877.062	74.07
877.234	-79.53
877.407	-87.72
877.579	-5.8
877.752	51.54
877.924	108.88
878.097	-1.71
878.269	55.64
878.442	49.49
878.614	49.49
878.786	4.44
878.959	-18.09
879.131	29.01
879.303	-128.68
879.476	24.92
879.648	123.22
879.82	31.06
879.993	-52.91
880.165	16.73
880.337	-75.43
880.509	-50.86
880.681	-61.1
880.854	-34.47
881.026	16.73
881.198	158.03
881.37	37.2
881.542	-22.19
881.714	-3.75
881.886	-24.23
882.058	-46.76
882.23	-34.47
882.402	8.53
882.574	65.88
882.746	24.92
882.918	35.16
883.09	59.73
883.262	-18.09
883.434	-9.9
883.606	-165.54
883.778	-11.95
883.95	76.12
884.122	-11.95
884.293	-11.95
884.465	-20.14
884.637	41.3
884.809	4.44
884.98	12.63
885.152	47.44
885.324	2.39
885.496	-63.15
885.667	-69.29
885.839	-65.19
886.011	121.17
886.182	96.6
886.354	37.2
886.525	39.25
886.697	14.68
886.869	-46.76
887.04	-95.91
887.212	139.6
887.383	129.36
887.555	78.16
887.726	-71.34
887.897	16.73
888.069	33.11
888.24	33.11
888.412	26.96
888.583	2.39
888.754	-44.71
888.926	-143.02
889.097	-57
889.268	-159.4
889.44	-46.76
889.611	-108.2
889.782	-116.39
889.953	-38.57
890.125	90.45
890.296	-61.1
890.467	-65.19
890.638	-34.47
890.809	-30.38
890.98	-81.58
891.151	39.25
891.323	110.93
891.494	-32.43
891.665	41.3
891.836	35.16
892.007	12.63
892.178	80.21
892.349	8.53
892.52	43.35
892.691	69.97
892.862	-46.76
893.032	-79.53
893.203	-46.76
893.374	18.77
893.545	131.41
893.716	-59.05
893.887	16.73
894.057	-77.48
894.228	-95.91
894.399	-85.67
894.57	0.34
894.74	-97.96
894.911	6.49
895.082	-102.06
895.253	-59.05
895.423	-34.47
895.594	82.26
895.764	53.59
895.935	-50.86
896.106	10.58
896.276	-87.72
896.447	31.06
896.617	-73.39
896.788	-38.57
896.958	-44.71
897.129	-36.52
897.299	-48.81
897.47	16.73
897.64	26.96
897.81	43.35
897.981	18.77
898.151	-46.76
898.322	-5.8
898.492	-3.75
898.662	-69.29
898.832	-22.19
899.003	-57
899.173	0.34
899.343	8.53
899.513	-81.58
