Data from USB4F104151__181__11-05-07-534.txt Node

Date: Wed Feb 26 11:05:07 EST 2025
User: louis
Spectrometer: USB4F10415
Trigger mode: 4
Integration Time (sec): 1.000000E-1
Scans to average: 1
Electric dark correction enabled: true
Nonlinearity correction enabled: false
Boxcar width: 0
XAxis mode: Wavelengths
Number of Pixels in Spectrum: 3648
>>>>>Begin Spectral Data<<<<<
178.204	-417.44
178.424	-417.44
178.644	-417.44
178.864	-394.92
179.084	-360.1
179.304	-38.57
179.524	12.63
179.744	-16.04
179.964	80.21
180.184	-16.04
180.404	-3.75
180.624	2.39
180.844	-18.09
181.064	-81.58
181.283	29.01
181.503	4.44
181.723	45.4
181.943	-65.19
182.163	266.58
182.383	6.49
182.602	39.25
182.822	190.8
183.042	129.36
183.262	39.25
183.482	65.88
183.701	-18.09
183.921	96.6
184.141	-38.57
184.361	137.56
184.58	110.93
184.8	39.25
185.02	2.39
185.239	149.84
185.459	123.22
185.679	141.65
185.898	-71.34
186.118	-3.75
186.338	119.12
186.557	143.7
186.777	-30.38
186.997	-11.95
187.216	74.07
187.436	223.57
187.655	94.55
187.875	125.27
188.095	24.92
188.314	153.94
188.534	151.89
188.753	20.82
188.973	178.51
189.192	133.46
189.412	-73.39
189.631	51.54
189.851	78.16
190.07	192.85
190.29	-36.52
190.509	78.16
190.729	106.84
190.948	133.46
191.168	239.95
191.387	41.3
191.607	0.34
191.826	69.97
192.045	61.78
192.265	37.2
192.484	51.54
192.704	-7.85
192.923	-71.34
193.142	194.9
193.362	166.23
193.581	80.21
193.8	76.12
194.02	151.89
194.239	82.26
194.458	121.17
194.678	10.58
194.897	6.49
195.116	117.08
195.335	69.97
195.555	112.98
195.774	49.49
195.993	182.61
196.212	55.64
196.432	-3.75
196.651	18.77
196.87	127.32
197.089	207.19
197.308	96.6
197.528	190.8
197.747	-57
197.966	37.2
198.185	215.38
198.404	16.73
198.623	57.68
198.842	90.45
199.062	94.55
199.281	12.63
199.5	76.12
199.719	82.26
199.938	104.79
200.157	153.94
200.376	153.94
200.595	108.88
200.814	127.32
201.033	47.44
201.252	221.52
201.471	131.41
201.69	92.5
201.909	72.02
202.128	90.45
202.347	80.21
202.566	-9.9
202.785	-67.24
203.004	6.49
203.223	264.53
203.442	31.06
203.661	-46.76
203.879	78.16
204.098	74.07
204.317	67.92
204.536	129.36
204.755	158.03
204.974	131.41
205.193	-24.23
205.411	133.46
205.63	209.23
205.849	86.36
206.068	45.4
206.287	-9.9
206.505	123.22
206.724	55.64
206.943	-18.09
207.162	55.64
207.381	104.79
207.599	14.68
207.818	-13.99
208.037	61.78
208.255	108.88
208.474	29.01
208.693	155.99
208.911	-32.43
209.13	98.64
209.349	186.71
209.567	84.31
209.786	102.74
210.005	84.31
210.223	178.51
210.442	-63.15
210.661	47.44
210.879	131.41
211.098	41.3
211.316	153.94
211.535	51.54
211.753	65.88
211.972	131.41
212.191	-83.63
212.409	8.53
212.628	149.84
212.846	-73.39
213.065	92.5
213.283	110.93
213.502	-22.19
213.72	43.35
213.938	59.73
214.157	59.73
214.375	49.49
214.594	14.68
214.812	98.64
215.031	-1.71
215.249	22.87
215.467	65.88
215.686	57.68
215.904	162.13
216.122	31.06
216.341	104.79
216.559	98.64
216.778	119.12
216.996	143.7
217.214	-11.95
217.432	53.59
217.651	10.58
217.869	96.6
218.087	45.4
218.306	45.4
218.524	8.53
218.742	90.45
218.96	166.23
219.179	4.44
219.397	31.06
219.615	209.23
219.833	57.68
220.051	37.2
220.27	110.93
220.488	141.65
220.706	141.65
220.924	-44.71
221.142	37.2
221.36	37.2
221.578	133.46
221.796	86.36
222.015	137.56
222.233	49.49
222.451	88.4
222.669	-32.43
222.887	145.75
223.105	4.44
223.323	10.58
223.541	-20.14
223.759	47.44
223.977	106.84
224.195	176.47
224.413	129.36
224.631	39.25
224.849	86.36
225.067	166.23
225.285	49.49
225.503	22.87
225.721	-26.28
225.939	119.12
226.157	72.02
226.375	250.19
226.592	8.53
226.81	139.6
227.028	59.73
227.246	121.17
227.464	76.12
227.682	166.23
227.9	72.02
228.117	53.59
228.335	131.41
228.553	100.69
228.771	22.87
228.989	145.75
229.206	119.12
229.424	61.78
229.642	37.2
229.86	47.44
230.077	182.61
230.295	24.92
230.513	153.94
230.731	110.93
230.948	168.27
231.166	176.47
231.384	61.78
231.601	-52.91
231.819	264.53
232.037	-34.47
232.254	-16.04
232.472	29.01
232.689	26.96
232.907	205.14
233.125	61.78
233.342	-32.43
233.56	74.07
233.777	59.73
233.995	106.84
234.213	160.08
234.43	82.26
234.648	57.68
234.865	14.68
235.083	37.2
235.3	82.26
235.518	166.23
235.735	139.6
235.953	88.4
236.17	-42.67
236.388	22.87
236.605	80.21
236.822	147.8
237.04	137.56
237.257	55.64
237.475	-22.19
237.692	59.73
237.909	100.69
238.127	-7.85
238.344	53.59
238.562	67.92
238.779	-67.24
238.996	14.68
239.214	94.55
239.431	63.83
239.648	96.6
239.865	178.51
240.083	53.59
240.3	110.93
240.517	37.2
240.735	33.11
240.952	119.12
241.169	117.08
241.386	104.79
241.603	6.49
241.821	57.68
242.038	176.47
242.255	147.8
242.472	-73.39
242.689	133.46
242.907	149.84
243.124	84.31
243.341	108.88
243.558	47.44
243.775	72.02
243.992	-81.58
244.209	82.26
244.426	98.64
244.643	82.26
244.86	18.77
245.078	184.66
245.295	67.92
245.512	20.82
245.729	57.68
245.946	168.27
246.163	74.07
246.38	16.73
246.597	123.22
246.814	24.92
247.031	45.4
247.248	39.25
247.464	92.5
247.681	-11.95
247.898	8.53
248.115	84.31
248.332	63.83
248.549	145.75
248.766	129.36
248.983	127.32
249.2	33.11
249.417	88.4
249.633	78.16
249.85	104.79
250.067	49.49
250.284	35.16
250.501	0.34
250.717	72.02
250.934	-16.04
251.151	123.22
251.368	55.64
251.585	121.17
251.801	110.93
252.018	-57
252.235	125.27
252.451	-44.71
252.668	51.54
252.885	196.95
253.102	29.01
253.318	22.87
253.535	-20.14
253.752	80.21
253.968	84.31
254.185	-87.72
254.401	16.73
254.618	57.68
254.835	82.26
255.051	59.73
255.268	153.94
255.484	45.4
255.701	26.96
255.917	131.41
256.134	98.64
256.351	55.64
256.567	41.3
256.784	29.01
257	-126.63
257.217	100.69
257.433	86.36
257.65	47.44
257.866	149.84
258.082	-50.86
258.299	-42.67
258.515	125.27
258.732	39.25
258.948	55.64
259.165	-13.99
259.381	-40.62
259.597	160.08
259.814	31.06
260.03	14.68
260.246	0.34
260.463	115.03
260.679	37.2
260.895	6.49
261.112	94.55
261.328	20.82
261.544	8.53
261.761	96.6
261.977	39.25
262.193	33.11
262.409	127.32
262.626	67.92
262.842	98.64
263.058	-24.23
263.274	190.8
263.49	108.88
263.707	119.12
263.923	115.03
264.139	-77.48
264.355	47.44
264.571	131.41
264.787	100.69
265.004	153.94
265.22	33.11
265.436	78.16
265.652	24.92
265.868	94.55
266.084	-59.05
266.3	10.58
266.516	-40.62
266.732	24.92
266.948	22.87
267.164	0.34
267.38	158.03
267.596	61.78
267.812	176.47
268.028	176.47
268.244	-32.43
268.46	2.39
268.676	-32.43
268.892	96.6
269.108	-108.2
269.324	67.92
269.54	-75.43
269.756	110.93
269.972	-16.04
270.188	6.49
270.403	43.35
270.619	22.87
270.835	92.5
271.051	31.06
271.267	-30.38
271.483	33.11
271.698	158.03
271.914	96.6
272.13	76.12
272.346	0.34
272.562	63.83
272.777	102.74
272.993	10.58
273.209	-46.76
273.425	96.6
273.64	-65.19
273.856	117.08
274.072	-42.67
274.287	-38.57
274.503	86.36
274.719	102.74
274.934	-40.62
275.15	-34.47
275.366	14.68
275.581	-32.43
275.797	47.44
276.012	82.26
276.228	-50.86
276.444	41.3
276.659	117.08
276.875	-30.38
277.09	74.07
277.306	57.68
277.521	141.65
277.737	57.68
277.952	88.4
278.168	57.68
278.383	14.68
278.599	72.02
278.814	65.88
279.03	2.39
279.245	198.99
279.461	67.92
279.676	43.35
279.892	41.3
280.107	-52.91
280.322	20.82
280.538	72.02
280.753	-3.75
280.969	82.26
281.184	125.27
281.399	158.03
281.615	49.49
281.83	59.73
282.045	43.35
282.26	41.3
282.476	80.21
282.691	119.12
282.906	162.13
283.122	67.92
283.337	4.44
283.552	182.61
283.767	-3.75
283.983	155.99
284.198	49.49
284.413	12.63
284.628	-40.62
284.843	84.31
285.058	102.74
285.274	6.49
285.489	-16.04
285.704	88.4
285.919	14.68
286.134	82.26
286.349	74.07
286.564	-50.86
286.779	108.88
286.995	14.68
287.21	16.73
287.425	137.56
287.64	69.97
287.855	31.06
288.07	-65.19
288.285	184.66
288.5	186.71
288.715	84.31
288.93	33.11
289.145	-13.99
289.36	117.08
289.575	8.53
289.79	84.31
290.004	-46.76
290.219	158.03
290.434	29.01
290.649	-24.23
290.864	112.98
291.079	39.25
291.294	18.77
291.509	137.56
291.724	80.21
291.938	-13.99
292.153	96.6
292.368	-30.38
292.583	37.2
292.798	155.99
293.012	74.07
293.227	158.03
293.442	-11.95
293.657	90.45
293.871	80.21
294.086	76.12
294.301	211.28
294.516	96.6
294.73	69.97
294.945	-20.14
295.16	20.82
295.374	74.07
295.589	115.03
295.804	31.06
296.018	65.88
296.233	141.65
296.447	37.2
296.662	29.01
296.877	178.51
297.091	47.44
297.306	131.41
297.52	90.45
297.735	43.35
297.949	41.3
298.164	59.73
298.378	76.12
298.593	8.53
298.807	47.44
299.022	69.97
299.236	110.93
299.451	14.68
299.665	2.39
299.88	115.03
300.094	78.16
300.309	63.83
300.523	98.64
300.737	26.96
300.952	117.08
301.166	65.88
301.381	37.2
301.595	80.21
301.809	69.97
302.024	10.58
302.238	-73.39
302.452	86.36
302.667	137.56
302.881	104.79
303.095	135.51
303.309	117.08
303.524	-7.85
303.738	-44.71
303.952	-7.85
304.166	65.88
304.381	-46.76
304.595	164.18
304.809	67.92
305.023	94.55
305.237	55.64
305.452	31.06
305.666	123.22
305.88	76.12
306.094	217.43
306.308	49.49
306.522	149.84
306.736	94.55
306.95	131.41
307.164	6.49
307.379	43.35
307.593	176.47
307.807	153.94
308.021	33.11
308.235	123.22
308.449	-57
308.663	94.55
308.877	170.32
309.091	100.69
309.305	86.36
309.519	-112.3
309.733	121.17
309.947	-32.43
310.161	76.12
310.374	115.03
310.588	186.71
310.802	-13.99
311.016	14.68
311.23	139.6
311.444	-18.09
311.658	141.65
311.872	108.88
312.085	35.16
312.299	125.27
312.513	145.75
312.727	67.92
312.941	90.45
313.154	119.12
313.368	26.96
313.582	59.73
313.796	72.02
314.009	20.82
314.223	194.9
314.437	74.07
314.651	92.5
314.864	-5.8
315.078	41.3
315.292	-32.43
315.505	88.4
315.719	53.59
315.933	162.13
316.146	10.58
316.36	12.63
316.573	74.07
316.787	88.4
317.001	96.6
317.214	-95.91
317.428	147.8
317.641	10.58
317.855	49.49
318.068	55.64
318.282	78.16
318.495	233.81
318.709	106.84
318.922	55.64
319.136	88.4
319.349	119.12
319.563	0.34
319.776	112.98
319.99	-87.72
320.203	125.27
320.417	86.36
320.63	102.74
320.843	168.27
321.057	43.35
321.27	0.34
321.483	115.03
321.697	139.6
321.91	33.11
322.124	96.6
322.337	135.51
322.55	-24.23
322.763	39.25
322.977	47.44
323.19	-3.75
323.403	-1.71
323.617	135.51
323.83	106.84
324.043	-5.8
324.256	-13.99
324.469	26.96
324.683	168.27
324.896	63.83
325.109	74.07
325.322	-46.76
325.535	162.13
325.748	137.56
325.962	-30.38
326.175	41.3
326.388	100.69
326.601	104.79
326.814	-1.71
327.027	47.44
327.24	35.16
327.453	-26.28
327.666	49.49
327.879	137.56
328.092	115.03
328.305	37.2
328.518	12.63
328.731	18.77
328.944	51.54
329.157	110.93
329.37	61.78
329.583	239.95
329.796	239.95
330.009	-54.95
330.222	145.75
330.435	96.6
330.648	51.54
330.861	72.02
331.073	12.63
331.286	92.5
331.499	67.92
331.712	8.53
331.925	16.73
332.138	0.34
332.35	86.36
332.563	4.44
332.776	119.12
332.989	-24.23
333.202	127.32
333.414	117.08
333.627	-11.95
333.84	10.58
334.053	51.54
334.265	18.77
334.478	-16.04
334.691	6.49
334.903	100.69
335.116	12.63
335.329	59.73
335.541	29.01
335.754	153.94
335.966	-13.99
336.179	51.54
336.392	69.97
336.604	88.4
336.817	180.56
337.029	115.03
337.242	84.31
337.454	147.8
337.667	55.64
337.88	190.8
338.092	92.5
338.305	43.35
338.517	18.77
338.729	84.31
338.942	143.7
339.154	-67.24
339.367	24.92
339.579	45.4
339.792	37.2
340.004	67.92
340.217	-40.62
340.429	178.51
340.641	2.39
340.854	2.39
341.066	12.63
341.278	125.27
341.491	178.51
341.703	-65.19
341.915	-7.85
342.128	182.61
342.34	12.63
342.552	-83.63
342.764	43.35
342.977	14.68
343.189	108.88
343.401	96.6
343.613	-28.33
343.826	-11.95
344.038	-18.09
344.25	92.5
344.462	4.44
344.674	84.31
344.886	18.77
345.099	74.07
345.311	86.36
345.523	12.63
345.735	-34.47
345.947	45.4
346.159	-3.75
346.371	-7.85
346.583	76.12
346.795	180.56
347.007	14.68
347.219	61.78
347.431	106.84
347.643	55.64
347.855	-32.43
348.067	149.84
348.279	-38.57
348.491	69.97
348.703	108.88
348.915	8.53
349.127	-9.9
349.339	41.3
349.551	92.5
349.763	106.84
349.975	88.4
350.187	137.56
350.399	92.5
350.61	178.51
350.822	-22.19
351.034	80.21
351.246	33.11
351.458	127.32
351.669	78.16
351.881	0.34
352.093	129.36
352.305	153.94
352.517	121.17
352.728	162.13
352.94	112.98
353.152	96.6
353.363	-5.8
353.575	76.12
353.787	123.22
353.999	57.68
354.21	125.27
354.422	6.49
354.633	84.31
354.845	67.92
355.057	84.31
355.268	84.31
355.48	117.08
355.692	-57
355.903	129.36
356.115	-7.85
356.326	-79.53
356.538	217.43
356.749	76.12
356.961	231.76
357.172	61.78
357.384	2.39
357.595	174.42
357.807	47.44
358.018	26.96
358.23	86.36
358.441	117.08
358.653	69.97
358.864	125.27
359.075	26.96
359.287	31.06
359.498	127.32
359.709	125.27
359.921	16.73
360.132	121.17
360.344	45.4
360.555	8.53
360.766	24.92
360.977	82.26
361.189	123.22
361.4	67.92
361.611	198.99
361.823	201.04
362.034	98.64
362.245	-13.99
362.456	10.58
362.667	119.12
362.879	-7.85
363.09	80.21
363.301	82.26
363.512	88.4
363.723	51.54
363.935	39.25
364.146	135.51
364.357	82.26
364.568	29.01
364.779	-57
364.99	203.09
365.201	35.16
365.412	153.94
365.623	-54.95
365.834	74.07
366.045	67.92
366.256	112.98
366.467	88.4
366.678	-5.8
366.889	14.68
367.1	72.02
367.311	86.36
367.522	69.97
367.733	90.45
367.944	59.73
368.155	108.88
368.366	196.95
368.577	61.78
368.788	106.84
368.999	4.44
369.209	12.63
369.42	196.95
369.631	170.32
369.842	147.8
370.053	76.12
370.264	100.69
370.474	-73.39
370.685	131.41
370.896	39.25
371.107	119.12
371.317	96.6
371.528	16.73
371.739	92.5
371.95	127.32
372.16	104.79
372.371	-30.38
372.582	22.87
372.792	170.32
373.003	41.3
373.214	65.88
373.424	-13.99
373.635	51.54
373.846	145.75
374.056	-18.09
374.267	100.69
374.477	88.4
374.688	53.59
374.898	80.21
375.109	74.07
375.319	63.83
375.53	139.6
375.74	112.98
375.951	2.39
376.161	-13.99
376.372	145.75
376.582	37.2
376.793	172.37
377.003	63.83
377.214	12.63
377.424	119.12
377.635	137.56
377.845	14.68
378.055	233.81
378.266	49.49
378.476	12.63
378.686	78.16
378.897	90.45
379.107	82.26
379.317	6.49
379.528	43.35
379.738	168.27
379.948	-65.19
380.158	129.36
380.369	72.02
380.579	65.88
380.789	59.73
380.999	123.22
381.21	67.92
381.42	196.95
381.63	31.06
381.84	166.23
382.05	63.83
382.261	112.98
382.471	139.6
382.681	65.88
382.891	174.42
383.101	84.31
383.311	22.87
383.521	-59.05
383.731	112.98
383.941	112.98
384.151	115.03
384.361	29.01
384.571	57.68
384.781	96.6
384.991	164.18
385.201	190.8
385.411	182.61
385.621	119.12
385.831	76.12
386.041	47.44
386.251	24.92
386.461	192.85
386.671	35.16
386.881	22.87
387.091	55.64
387.301	137.56
387.511	-9.9
387.72	106.84
387.93	61.78
388.14	10.58
388.35	92.5
388.56	190.8
388.769	207.19
388.979	82.26
389.189	-11.95
389.399	72.02
389.609	117.08
389.818	153.94
390.028	61.78
390.238	45.4
390.447	-18.09
390.657	41.3
390.867	67.92
391.076	20.82
391.286	117.08
391.496	37.2
391.705	158.03
391.915	170.32
392.125	94.55
392.334	72.02
392.544	209.23
392.753	29.01
392.963	-32.43
393.172	24.92
393.382	4.44
393.591	188.75
393.801	14.68
394.01	237.91
394.22	104.79
394.429	72.02
394.639	78.16
394.848	84.31
395.058	45.4
395.267	24.92
395.477	94.55
395.686	63.83
395.895	172.37
396.105	262.48
396.314	53.59
396.524	61.78
396.733	57.68
396.942	123.22
397.152	41.3
397.361	143.7
397.57	84.31
397.78	35.16
397.989	168.27
398.198	160.08
398.407	88.4
398.617	98.64
398.826	72.02
399.035	69.97
399.244	119.12
399.453	0.34
399.663	14.68
399.872	90.45
400.081	41.3
400.29	135.51
400.499	4.44
400.708	127.32
400.917	84.31
401.127	22.87
401.336	-54.95
401.545	252.24
401.754	141.65
401.963	117.08
402.172	2.39
402.381	-7.85
402.59	10.58
402.799	139.6
403.008	155.99
403.217	26.96
403.426	135.51
403.635	-16.04
403.844	51.54
404.053	78.16
404.262	49.49
404.471	205.14
404.68	39.25
404.888	129.36
405.097	51.54
405.306	39.25
405.515	39.25
405.724	14.68
405.933	180.56
406.142	35.16
406.35	184.66
406.559	61.78
406.768	92.5
406.977	227.67
407.185	129.36
407.394	67.92
407.603	-11.95
407.812	102.74
408.02	112.98
408.229	57.68
408.438	31.06
408.646	67.92
408.855	31.06
409.064	155.99
409.272	18.77
409.481	158.03
409.69	33.11
409.898	22.87
410.107	86.36
410.315	117.08
410.524	-11.95
410.733	86.36
410.941	80.21
411.15	133.46
411.358	88.4
411.567	227.67
411.775	43.35
411.984	112.98
412.192	90.45
412.401	14.68
412.609	158.03
412.818	135.51
413.026	88.4
413.234	104.79
413.443	78.16
413.651	41.3
413.86	10.58
414.068	170.32
414.276	180.56
414.485	65.88
414.693	82.26
414.901	217.43
415.11	92.5
415.318	86.36
415.526	74.07
415.734	117.08
415.943	106.84
416.151	153.94
416.359	72.02
416.567	4.44
416.776	119.12
416.984	96.6
417.192	139.6
417.4	51.54
417.608	20.82
417.817	45.4
418.025	112.98
418.233	172.37
418.441	47.44
418.649	0.34
418.857	67.92
419.065	155.99
419.273	80.21
419.481	6.49
419.689	16.73
419.897	14.68
420.105	49.49
420.313	94.55
420.521	155.99
420.729	194.9
420.937	61.78
421.145	-30.38
421.353	100.69
421.561	160.08
421.769	112.98
421.977	24.92
422.185	135.51
422.393	14.68
422.601	112.98
422.809	47.44
423.017	39.25
423.224	37.2
423.432	121.17
423.64	145.75
423.848	137.56
424.056	84.31
424.263	100.69
424.471	121.17
424.679	239.95
424.887	2.39
425.094	96.6
425.302	96.6
425.51	22.87
425.718	76.12
425.925	90.45
426.133	49.49
426.341	201.04
426.548	96.6
426.756	72.02
426.964	209.23
427.171	61.78
427.379	143.7
427.586	57.68
427.794	141.65
428.001	168.27
428.209	98.64
428.417	190.8
428.624	186.71
428.832	174.42
429.039	143.7
429.247	160.08
429.454	237.91
429.662	239.95
429.869	205.14
430.076	102.74
430.284	239.95
430.491	227.67
430.699	155.99
430.906	192.85
431.114	141.65
431.321	184.66
431.528	80.21
431.736	123.22
431.943	158.03
432.15	155.99
432.358	153.94
432.565	305.49
432.772	47.44
432.979	246.1
433.187	221.52
433.394	248.15
433.601	119.12
433.808	198.99
434.016	311.63
434.223	237.91
434.43	213.33
434.637	272.72
434.844	250.19
435.052	340.3
435.259	352.59
435.466	293.2
435.673	246.1
435.88	342.35
436.087	274.77
436.294	420.17
436.501	352.59
436.708	313.68
436.915	395.6
437.122	411.98
437.329	258.39
437.537	332.11
437.743	354.64
437.95	434.51
438.157	375.12
438.364	440.65
438.571	432.46
438.778	426.32
438.985	528.72
439.192	643.4
439.399	368.98
439.606	424.27
439.813	551.24
440.02	665.93
440.227	670.03
440.433	622.92
440.64	598.35
440.847	520.53
441.054	612.68
441.261	745.8
441.467	620.88
441.674	600.4
441.881	727.37
442.088	633.16
442.294	794.95
442.501	753.99
442.708	903.5
442.914	821.58
443.121	954.69
443.328	801.1
443.534	915.78
443.741	981.32
443.948	897.35
444.154	977.22
444.361	1112.39
444.568	1032.52
444.774	1116.48
444.981	1112.39
445.187	1190.21
445.394	1257.79
445.6	1265.99
445.807	1364.29
446.013	1290.56
446.22	1306.95
446.426	1579.33
446.633	1544.51
446.839	1802.55
447.046	1472.83
447.252	1775.93
447.459	1769.79
447.665	1687.87
447.871	1882.42
448.078	2097.46
448.284	1956.15
448.491	2101.56
448.697	2265.39
448.903	2384.18
449.11	2388.27
449.316	2296.11
449.522	2404.66
449.728	2660.65
449.935	2683.18
450.141	2681.13
450.347	2761
450.553	2816.3
450.76	2793.77
450.966	3141.93
451.172	3225.89
451.378	3322.15
451.584	3346.72
451.791	3594.53
451.997	3764.51
452.203	3922.2
452.409	4012.31
452.615	4075.8
452.821	4104.47
453.027	3918.11
453.233	4618.51
453.44	4415.76
453.646	4665.61
453.852	4796.68
454.058	5132.55
454.264	5181.7
454.47	5591.3
454.676	5728.51
454.882	6025.47
455.088	5779.71
455.294	6134.01
455.5	6441.2
455.705	6869.23
455.911	6822.13
456.117	7110.89
456.323	7463.14
456.529	7352.55
456.735	8220.89
456.941	8267.99
457.147	8499.41
457.352	8872.14
457.558	9244.87
457.764	9484.48
457.97	9820.35
458.176	10318.01
458.381	10866.86
458.587	10965.17
458.793	11743.39
458.999	11587.75
459.204	13131.92
459.41	13158.54
459.616	13170.83
459.821	13877.38
460.027	14489.72
460.233	15331.44
460.438	15380.59
460.644	16158.81
460.85	16334.94
461.055	17205.33
461.261	17948.74
461.466	17559.63
461.672	17860.68
461.878	20326.43
462.083	19490.86
462.289	19892.26
462.494	21268.5
462.7	20983.83
462.905	21524.49
463.111	23592.94
463.316	24002.54
463.522	24596.45
463.727	25571.28
463.932	26329.03
464.138	27633.58
464.343	28567.46
464.549	28495.78
464.754	30666.63
464.959	31154.04
465.165	32229.23
465.37	31942.51
465.575	31727.47
465.781	34029.39
465.986	35231.55
466.191	34721.6
466.397	34694.98
466.602	33779.54
466.807	35776.31
467.012	36323.12
467.218	36857.63
467.423	36763.43
467.628	38076.18
467.833	40136.43
468.038	39341.82
468.244	38455.05
468.449	40443.63
468.654	39831.29
468.859	40099.57
469.064	39882.48
469.269	38881.03
469.474	38934.28
469.679	40222.45
469.885	38752.01
470.09	39868.15
470.295	39882.48
470.5	39149.31
470.705	39208.7
470.91	38366.99
471.115	37830.42
471.32	38389.52
471.525	38227.73
471.73	36962.08
471.935	36728.61
472.139	35385.15
472.344	35757.88
472.549	35495.74
472.754	34856.77
472.959	33800.02
473.164	32632.68
473.369	31956.85
473.574	33328.98
473.778	32001.9
473.983	31829.87
474.188	31418.23
474.393	30222.22
474.598	30064.52
474.802	29044.63
475.007	29013.91
475.212	28471.2
475.417	27240.37
475.621	27060.15
475.826	27008.95
476.031	26415.04
476.235	25563.09
476.44	25589.71
476.645	24924.12
476.849	24741.85
477.054	24293.35
477.259	23736.3
477.463	23826.41
477.668	22890.49
477.872	22777.85
478.077	22413.31
478.282	21835.78
478.486	21504.01
478.691	21485.58
478.895	20969.49
479.1	21155.86
479.304	20987.93
479.509	20060.2
479.713	20572.19
479.918	20062.24
480.122	19705.9
480.326	19623.98
480.531	19777.58
480.735	19550.25
480.94	19494.96
481.144	19898.41
481.348	18612.28
481.553	18925.62
481.757	18051.14
481.961	18673.72
482.166	18749.5
482.37	18436.16
482.574	17748.04
482.778	17932.36
482.983	18108.48
483.187	17588.3
483.391	17631.3
483.595	17328.2
483.8	17123.41
484.004	17360.97
484.208	17352.78
484.412	17045.59
484.616	16744.53
484.821	16466.01
485.025	15976.55
485.229	16326.75
485.433	15984.74
485.637	15751.27
485.841	15446.12
486.045	15097.97
486.249	15206.51
486.453	14927.99
486.657	14682.23
486.861	14694.52
487.065	13809.79
487.269	13985.92
487.473	13592.71
487.677	13389.96
487.881	13770.88
488.085	13262.99
488.289	13074.57
488.493	12613.78
488.697	12916.88
488.901	12568.73
489.105	12259.48
489.309	11800.74
489.512	11810.98
489.716	11444.39
489.92	11311.27
490.124	11180.2
490.328	11143.34
490.531	10596.53
490.735	10592.44
490.939	10369.21
491.143	9967.81
491.346	9986.24
491.55	10021.05
491.754	9697.47
491.958	9392.33
492.161	9339.08
492.365	9271.5
492.569	8929.49
492.772	9023.69
492.976	8857.81
493.18	8618.19
493.383	8747.22
493.587	8495.32
493.79	8382.68
493.994	8292.57
494.197	8100.06
494.401	8118.49
494.605	8014.04
494.808	8241.37
495.012	8009.95
495.215	7758.05
495.419	8087.77
495.622	7663.84
495.825	7637.22
496.029	7485.67
496.232	7667.94
496.436	7612.64
496.639	7620.83
496.843	7616.74
497.046	7653.6
497.249	7555.3
497.453	7616.74
497.656	7571.68
497.859	7639.26
498.063	7502.05
498.266	7594.21
498.469	7491.81
498.673	7571.68
498.876	7690.46
499.079	7610.59
499.282	7659.74
499.485	7930.08
499.689	7696.61
499.892	7956.7
500.095	7717.09
500.298	7872.73
500.501	7844.06
500.705	7964.89
500.908	8159.45
501.111	7979.23
501.314	8141.02
501.517	8276.18
501.72	8411.35
501.923	8360.15
502.126	8509.65
502.329	8642.77
502.532	8653.01
502.735	8620.24
502.938	9130.19
503.141	8853.71
503.344	8933.58
503.547	9091.27
503.75	9312.46
503.953	9519.3
504.156	9537.73
504.359	9500.87
504.562	9509.06
504.765	9932.99
504.968	9846.98
505.17	10019
505.373	10070.2
505.576	10567.86
505.779	10537.14
505.982	10684.59
506.185	11008.17
506.387	11313.32
506.59	11292.84
506.793	11550.89
506.996	11614.37
507.198	12202.14
507.401	12189.85
507.604	12482.71
507.807	12642.45
508.009	12970.13
508.212	13207.69
508.415	13437.06
508.617	13729.92
508.82	13672.58
509.022	14252.16
509.225	14618.74
509.428	14766.2
509.63	15175.79
509.833	15233.13
510.035	15878.24
510.238	16068.7
510.44	16306.27
510.643	16709.72
510.845	17100.88
511.048	17178.7
511.25	17821.77
511.453	18192.45
511.655	19150.9
511.858	18964.53
512.06	19447.85
512.262	19662.89
512.465	20027.43
512.667	20506.65
512.87	20985.88
513.072	21469.2
513.274	22290.43
513.477	22499.33
513.679	23142.39
513.881	23498.73
514.084	24283.11
514.286	24467.42
514.488	24825.82
514.69	25808.84
514.893	26021.83
515.095	26787.77
515.297	27418.55
515.499	27971.5
515.701	28286.89
515.904	29235.1
516.106	29257.62
516.308	30134.15
516.51	30990.2
516.712	31168.38
516.914	31793.01
517.116	32847.71
517.318	33109.85
517.52	33834.83
517.722	34025.29
517.925	35090.24
518.127	35884.85
518.329	36618.02
518.531	36742.95
518.733	37666.58
518.935	38170.38
519.136	38489.87
519.338	39444.22
519.54	39900.92
519.742	40738.54
519.944	41051.87
520.146	41555.68
520.348	42090.2
520.55	42933.96
520.752	43087.56
520.954	44089.01
521.155	43790.01
521.357	44758.7
521.559	45246.11
521.761	46104.21
521.963	45870.75
522.164	46550.67
522.366	46997.13
522.568	47636.09
522.77	47664.77
522.971	48492.15
523.173	48162.42
523.375	48995.95
523.576	48533.1
523.778	48911.98
523.98	49436.26
524.181	49938.01
524.383	49403.49
524.584	50284.12
524.786	49831.52
524.988	49845.85
525.189	50105.94
525.391	50511.44
525.592	50376.28
525.794	50486.87
525.995	50077.27
526.197	50304.6
526.398	50355.8
526.6	50413.14
526.801	50191.96
527.003	50187.86
527.204	50120.28
527.406	49802.85
527.607	49493.6
527.808	49565.28
528.01	48434.8
528.211	48897.64
528.412	49481.31
528.614	48483.95
528.815	48414.32
529.016	48508.53
529.218	47095.43
529.419	47298.18
529.62	46745.23
529.822	46155.41
530.023	45612.7
530.224	45448.86
530.425	44844.71
530.626	44402.35
530.828	43673.27
531.029	44353.2
531.23	42845.9
531.431	42479.31
531.632	42411.73
531.833	41797.34
532.035	41221.86
532.236	40976.1
532.437	40730.34
532.638	39628.54
532.839	39755.51
533.04	38817.54
533.241	38571.78
533.442	38608.65
533.643	37474.07
533.844	37236.51
534.045	36835.11
534.246	35659.57
534.447	35684.15
534.648	34971.46
534.849	34740.04
535.05	34099.02
535.251	34084.69
535.451	33077.08
535.652	33142.62
535.853	32687.97
536.054	31987.57
536.255	31940.46
536.456	31147.9
536.657	31094.65
536.857	30359.43
537.058	29667.22
537.259	29857.68
537.46	29495.19
537.66	28762.01
537.861	28671.9
538.062	27879.34
538.263	27576.24
538.463	27283.38
538.664	26998.71
538.865	26681.28
539.065	26857.4
539.266	25835.47
539.466	25692.11
539.667	25059.29
539.868	25376.72
540.068	24985.56
540.269	24827.87
540.469	24305.63
540.67	24023.01
540.87	23744.49
541.071	23504.88
541.271	23150.58
541.472	23095.28
541.672	22765.56
541.873	22128.64
542.073	21819.4
542.274	22104.07
542.474	21622.8
542.675	21331.98
542.875	21282.83
543.075	20733.98
543.276	20602.91
543.476	20852.76
543.676	20219.94
543.877	19912.74
544.077	19732.52
544.277	19861.54
544.478	19304.49
544.678	19124.27
544.878	19015.73
545.078	18860.09
545.279	18384.96
545.479	18366.53
545.679	17963.08
545.879	17922.12
546.079	17813.57
546.28	17309.77
546.48	17225.81
546.68	17344.59
546.88	17074.26
547.08	16603.22
547.28	16627.8
547.48	16040.03
547.68	16021.6
547.88	15614.06
548.081	15771.75
548.281	15585.38
548.481	15245.42
548.681	15253.61
548.881	14872.69
549.081	14858.35
549.28	14579.83
549.48	14307.45
549.68	14200.96
549.88	14139.52
550.08	13672.58
550.28	13854.85
550.48	13516.94
550.68	13346.95
550.88	13088.91
551.08	12951.7
551.279	12808.34
551.479	12406.94
551.679	12433.56
551.879	12093.6
552.079	11923.62
552.278	11696.29
552.478	11708.58
552.678	11491.49
552.878	11245.74
553.077	10969.26
553.277	10868.91
553.477	10985.65
553.676	10737.84
553.876	10668.21
554.076	10215.61
554.275	10193.08
554.475	9996.48
554.674	9973.95
554.874	9765.06
555.074	9638.08
555.273	9361.61
555.473	9287.88
555.672	9201.86
555.872	9019.6
556.071	8806.61
556.271	8626.39
556.47	8374.49
556.67	8354.01
556.869	8401.11
557.068	8288.47
557.268	7864.54
557.467	8050.91
557.667	7872.73
557.866	7657.7
558.065	7342.31
558.265	7418.08
558.464	7141.61
558.663	7121.13
558.863	6938.86
559.062	7096.55
559.261	6836.46
559.461	6895.85
559.66	6473.97
559.859	6498.55
560.058	6406.39
560.258	6275.32
560.457	6185.21
560.656	6273.27
560.855	5847.29
561.054	6019.32
561.253	5898.49
561.453	5677.31
561.652	5701.89
561.851	5626.11
562.05	5271.81
562.249	5325.06
562.448	5425.41
562.647	5130.5
562.846	5208.33
563.045	5165.32
563.244	4933.9
563.443	5036.3
563.642	4735.25
563.841	4864.27
564.04	4778.25
564.239	4749.58
564.438	4704.53
564.637	4516.11
564.836	4505.87
565.035	4276.5
565.234	4239.64
565.432	4147.48
565.631	4253.97
565.83	4176.15
566.029	4038.94
566.228	3993.88
566.427	3959.06
566.625	3819.8
566.824	3879.19
567.023	3887.39
567.222	3676.45
567.42	3602.72
567.619	3629.34
567.818	3545.38
568.016	3649.82
568.215	3488.03
568.414	3590.43
568.612	3430.69
568.811	3455.26
569.01	3299.62
569.208	3252.52
569.407	3313.95
569.605	3027.24
569.804	3070.25
570.002	3238.18
570.201	3098.92
570.4	2937.13
570.598	2922.79
570.797	2859.31
570.995	2726.19
571.193	2865.45
571.392	2840.87
571.59	2668.84
571.789	2660.65
571.987	2627.89
572.186	2791.72
572.384	2572.59
572.582	2603.31
572.781	2687.28
572.979	2418.99
573.177	2410.8
573.376	2490.67
573.574	2300.21
573.772	2275.63
573.971	2257.2
574.169	2119.99
574.367	2246.96
574.565	2117.94
574.763	2230.58
574.962	2074.93
575.16	1952.06
575.358	1966.39
575.556	1892.66
575.754	1956.15
575.952	2079.03
576.151	2079.03
576.349	2021.69
576.547	1767.74
576.745	1761.59
576.943	1816.89
577.141	1720.64
577.339	1620.28
577.537	1796.41
577.735	1771.83
577.933	1651
578.131	1575.23
578.329	1667.39
578.527	1581.37
578.725	1661.24
578.923	1483.07
579.121	1636.67
579.319	1321.28
579.516	1397.06
579.714	1648.96
579.912	1435.97
580.11	1274.18
580.308	1403.2
580.506	1382.72
580.704	1182.02
580.901	1354.05
581.099	1390.91
581.297	1202.5
581.495	1222.98
581.692	1237.31
581.89	1327.43
582.088	1241.41
582.285	1212.74
582.483	1130.82
582.681	1130.82
582.878	1114.44
583.076	1184.07
583.274	1182.02
583.471	1294.66
583.669	1081.67
583.866	1050.95
584.064	1003.85
584.262	964.93
584.459	948.55
584.657	1005.89
584.854	1055.05
585.052	993.61
585.249	985.41
585.447	973.13
585.644	878.92
585.841	1100.1
586.039	909.64
586.236	979.27
586.434	905.54
586.631	846.15
586.828	782.67
587.026	858.44
587.223	813.38
587.42	747.85
587.618	833.86
587.815	889.16
588.012	768.33
588.21	774.47
588.407	835.91
588.604	807.24
588.801	588.11
588.999	756.04
589.196	860.49
589.393	655.69
589.59	813.38
589.787	727.37
589.984	702.79
590.182	807.24
590.379	751.95
590.576	788.81
590.773	688.46
590.97	682.31
591.167	713.03
591.364	756.04
591.561	663.88
591.758	835.91
591.955	741.71
592.152	667.98
592.349	651.6
592.546	635.21
592.743	706.89
592.94	635.21
593.137	723.27
593.334	715.08
593.531	774.47
593.727	706.89
593.924	694.6
594.121	774.47
594.318	706.89
594.515	807.24
594.712	731.47
594.908	805.19
595.105	641.36
595.302	801.1
595.499	799.05
595.696	938.31
595.892	741.71
596.089	854.34
596.286	786.76
596.482	942.41
596.679	870.73
596.876	837.96
597.072	870.73
597.269	891.21
597.466	991.56
597.662	989.51
597.859	874.82
598.055	950.6
598.252	1001.8
598.448	1079.62
598.645	1177.92
598.841	1136.96
599.038	1163.59
599.234	1270.08
599.431	1257.79
599.627	1364.29
599.824	1329.47
600.02	1431.87
600.217	1483.07
600.413	1595.71
600.609	1644.86
600.806	1939.77
601.002	1868.09
601.198	1722.68
601.395	1927.48
601.591	1784.12
601.787	1909.05
601.984	2038.07
602.18	2122.04
602.376	2271.54
602.572	2246.96
602.769	2404.66
602.965	2500.91
603.161	2455.86
603.357	2586.93
603.553	2738.48
603.75	2779.43
603.946	2990.38
604.142	2984.23
604.338	3191.08
604.534	3176.74
604.73	3252.52
604.926	3238.18
605.122	3531.04
605.318	3479.84
605.514	3674.4
605.71	3731.74
605.906	4071.7
606.102	4090.13
606.298	4288.79
606.494	4477.2
606.69	4499.73
606.886	4530.45
607.082	4665.61
607.278	4682
607.474	4948.23
607.67	5159.17
607.866	5005.58
608.062	5406.98
608.257	5560.58
608.453	5574.91
608.649	5878.01
608.845	5771.52
609.041	6097.14
609.236	6244.6
609.432	6396.15
609.628	6568.18
609.824	6783.21
610.019	6820.08
610.215	6955.24
610.411	7393.51
610.606	7672.03
610.802	7647.46
610.998	7889.12
611.193	8149.21
611.389	8167.64
611.584	8466.64
611.78	8534.23
611.976	8855.76
612.171	9351.37
612.367	9531.59
612.562	9705.67
612.758	9912.51
612.953	10023.1
613.149	10469.56
613.344	10469.56
613.539	10911.92
613.735	11210.92
613.93	11671.72
614.126	11548.84
614.321	12230.81
614.517	12660.88
614.712	12648.6
614.907	13023.37
615.103	13250.7
615.298	13641.86
615.493	13998.21
615.688	14284.92
615.884	14944.37
616.079	14983.28
616.274	15534.18
616.47	15720.55
616.665	16427.1
616.86	16754.77
617.055	17100.88
617.25	17092.69
617.445	18231.36
617.641	18245.69
617.836	18901.04
618.031	19122.23
618.226	19748.9
618.421	20056.1
618.616	20699.16
618.811	20959.25
619.006	21598.22
619.201	21811.21
619.396	22843.38
619.591	22456.32
619.786	23578.61
619.981	23662.57
620.176	24694.75
620.371	24524.77
620.566	25155.54
620.761	25978.82
620.956	26746.81
621.151	26695.61
621.346	27582.38
621.541	27617.2
621.735	28708.77
621.93	28643.23
622.125	29896.59
622.32	29699.98
622.515	30730.11
622.709	31154.04
622.904	31977.33
623.099	31881.07
623.294	32755.55
623.488	32808.8
623.683	34066.25
623.878	33943.38
624.072	35026.75
624.267	35204.92
624.462	35690.29
624.656	36382.51
624.851	36749.09
625.046	37373.72
625.24	37621.53
625.435	38006.55
625.629	38692.61
625.824	39390.97
626.018	39909.11
626.213	39354.11
626.407	40914.66
626.602	40572.65
626.796	41309.92
626.991	42274.51
627.185	41901.78
627.38	42385.1
627.574	42405.58
627.768	42643.15
627.963	42761.93
628.157	42899.14
628.352	43116.23
628.546	42755.78
628.74	43355.84
628.935	42344.14
629.129	43067.08
629.323	42321.62
629.517	42606.28
629.712	41819.86
629.906	41610.97
630.1	40861.41
630.294	41350.88
630.489	40310.51
630.683	40042.23
630.877	39171.84
631.071	38678.28
631.265	37934.87
631.459	37162.78
631.653	36040.5
631.848	35469.11
632.042	34086.73
632.236	33834.83
632.43	32663.39
632.624	32001.9
632.818	30898.05
633.012	29482.9
633.206	28747.68
633.4	28282.79
633.594	27146.17
633.788	26296.26
633.982	25206.74
634.176	24678.36
634.369	23162.87
634.563	22671.36
634.757	21676.04
634.951	21245.97
635.145	20060.2
635.339	19517.48
635.533	18626.62
635.726	17653.83
635.92	16900.18
636.114	16263.26
636.308	15759.46
636.501	15147.12
636.695	14323.83
636.889	13594.76
637.083	13166.73
637.276	12679.32
637.47	11819.17
637.664	11737.25
637.857	11286.7
638.051	10705.07
638.244	10311.86
638.438	9982.14
638.632	9728.19
638.825	9035.98
639.019	8902.86
639.212	8190.17
639.406	8098.01
639.599	7735.52
639.793	7538.91
639.986	6971.63
640.18	6934.76
640.373	6695.15
640.567	6433.01
640.76	6226.17
640.954	5976.31
641.147	5576.96
641.34	5452.03
641.534	5421.31
641.727	5234.95
641.92	4991.24
642.114	4643.09
642.307	4534.54
642.5	4438.29
642.694	4118.81
642.887	4012.31
643.08	4022.55
643.273	4012.31
643.467	3615.01
643.66	3563.81
643.853	3197.22
644.046	3250.47
644.239	3141.93
644.432	2998.57
644.626	2736.43
644.819	2660.65
645.012	2703.66
645.205	2541.87
645.398	2476.34
645.591	2406.7
645.784	2115.89
645.977	2011.45
646.17	2089.27
646.363	2054.45
646.556	1958.2
646.749	1786.17
646.942	1775.93
647.135	1726.78
647.328	1728.83
647.521	1655.1
647.714	1505.6
647.907	1538.37
648.099	1476.93
648.292	1448.26
648.485	1354.05
648.678	1352
648.871	1200.45
649.064	1272.13
649.256	1184.07
649.449	1079.62
649.642	921.93
649.835	1073.48
650.027	883.02
650.22	1110.34
650.413	952.65
650.605	1012.04
650.798	876.87
650.991	751.95
651.183	876.87
651.376	708.94
651.568	817.48
651.761	723.27
651.954	659.79
652.146	784.71
652.339	794.95
652.531	797
652.724	514.38
652.916	561.48
653.109	498
653.301	665.93
653.494	586.06
653.686	608.59
653.879	639.31
654.071	514.38
654.263	485.71
654.456	477.52
654.648	573.77
654.84	448.85
655.033	397.65
655.225	559.44
655.417	338.26
655.61	565.58
655.802	452.94
655.994	510.29
656.186	391.5
656.379	424.27
656.571	307.54
656.763	375.12
656.955	233.81
657.148	352.59
657.34	395.6
657.532	293.2
657.724	317.78
657.916	397.65
658.108	358.74
658.3	387.41
658.492	391.5
658.684	301.39
658.876	385.36
659.068	289.1
659.26	211.28
659.452	190.8
659.644	332.11
659.836	473.42
660.028	276.82
660.22	231.76
660.412	282.96
660.604	194.9
660.796	205.14
660.988	313.68
661.18	190.8
661.372	229.71
661.563	235.86
661.755	196.95
661.947	151.89
662.139	108.88
662.331	178.51
662.522	166.23
662.714	86.36
662.906	131.41
663.097	117.08
663.289	94.55
663.481	115.03
663.673	135.51
663.864	229.71
664.056	233.81
664.247	92.5
664.439	282.96
664.631	274.77
664.822	262.48
665.014	207.19
665.205	61.78
665.397	176.47
665.588	172.37
665.78	117.08
665.971	227.67
666.163	180.56
666.354	250.19
666.546	110.93
666.737	129.36
666.929	106.84
667.12	123.22
667.311	184.66
667.503	141.65
667.694	145.75
667.885	194.9
668.077	237.91
668.268	69.97
668.459	213.33
668.651	164.18
668.842	188.75
669.033	133.46
669.224	106.84
669.416	248.15
669.607	129.36
669.798	92.5
669.989	242
670.18	86.36
670.371	133.46
670.563	135.51
670.754	246.1
670.945	209.23
671.136	164.18
671.327	16.73
671.518	254.29
671.709	158.03
671.9	198.99
672.091	190.8
672.282	76.12
672.473	112.98
672.664	57.68
672.855	143.7
673.046	139.6
673.237	211.28
673.428	162.13
673.619	174.42
673.809	151.89
674	266.58
674.191	153.94
674.382	133.46
674.573	168.27
674.764	143.7
674.954	211.28
675.145	88.4
675.336	137.56
675.527	88.4
675.717	108.88
675.908	94.55
676.099	127.32
676.289	186.71
676.48	110.93
676.671	76.12
676.861	92.5
677.052	153.94
677.243	141.65
677.433	112.98
677.624	194.9
677.814	164.18
678.005	108.88
678.195	211.28
678.386	37.2
678.576	153.94
678.767	117.08
678.957	158.03
679.148	215.38
679.338	299.34
679.529	201.04
679.719	74.07
679.909	264.53
680.1	252.24
680.29	172.37
680.481	110.93
680.671	223.57
680.861	242
681.052	147.8
681.242	92.5
681.432	176.47
681.622	129.36
681.813	65.88
682.003	164.18
682.193	168.27
682.383	127.32
682.573	186.71
682.764	194.9
682.954	139.6
683.144	244.05
683.334	184.66
683.524	170.32
683.714	262.48
683.904	223.57
684.094	133.46
684.284	233.81
684.474	276.82
684.664	252.24
684.854	172.37
685.044	158.03
685.234	158.03
685.424	155.99
685.614	133.46
685.804	272.72
685.994	219.47
686.184	88.4
686.374	225.62
686.564	209.23
686.753	198.99
686.943	155.99
687.133	221.52
687.323	129.36
687.513	205.14
687.702	205.14
687.892	166.23
688.082	205.14
688.272	254.29
688.461	207.19
688.651	328.02
688.841	127.32
689.03	172.37
689.22	145.75
689.41	162.13
689.599	248.15
689.789	67.92
689.979	194.9
690.168	184.66
690.358	186.71
690.547	153.94
690.737	194.9
690.926	160.08
691.116	201.04
691.305	237.91
691.495	223.57
691.684	94.55
691.874	168.27
692.063	110.93
692.252	201.04
692.442	160.08
692.631	194.9
692.82	196.95
693.01	160.08
693.199	184.66
693.388	194.9
693.578	239.95
693.767	143.7
693.956	186.71
694.146	108.88
694.335	198.99
694.524	80.21
694.713	233.81
694.902	129.36
695.092	149.84
695.281	254.29
695.47	176.47
695.659	149.84
695.848	168.27
696.037	129.36
696.226	268.63
696.415	250.19
696.604	323.92
696.793	246.1
696.982	143.7
697.171	321.87
697.36	205.14
697.549	192.85
697.738	84.31
697.927	176.47
698.116	65.88
698.305	184.66
698.494	242
698.683	164.18
698.872	264.53
699.061	110.93
699.25	172.37
699.438	102.74
699.627	74.07
699.816	319.82
700.005	121.17
700.193	74.07
700.382	125.27
700.571	180.56
700.76	164.18
700.948	258.39
701.137	186.71
701.326	276.82
701.514	182.61
701.703	225.62
701.892	221.52
702.08	325.97
702.269	198.99
702.457	186.71
702.646	242
702.834	190.8
703.023	221.52
703.212	231.76
703.4	225.62
703.589	149.84
703.777	158.03
703.965	98.64
704.154	188.75
704.342	76.12
704.531	100.69
704.719	207.19
704.907	262.48
705.096	94.55
705.284	72.02
705.472	205.14
705.661	180.56
705.849	203.09
706.037	209.23
706.226	239.95
706.414	268.63
706.602	96.6
706.79	256.34
706.979	125.27
707.167	196.95
707.355	139.6
707.543	213.33
707.731	207.19
707.919	108.88
708.107	133.46
708.296	92.5
708.484	217.43
708.672	205.14
708.86	162.13
709.048	145.75
709.236	135.51
709.424	258.39
709.612	248.15
709.8	141.65
709.988	147.8
710.176	237.91
710.364	231.76
710.551	94.55
710.739	188.75
710.927	123.22
711.115	145.75
711.303	223.57
711.491	274.77
711.679	176.47
711.866	319.82
712.054	110.93
712.242	180.56
712.43	237.91
712.617	190.8
712.805	252.24
712.993	274.77
713.181	92.5
713.368	231.76
713.556	102.74
713.744	209.23
713.931	285.01
714.119	233.81
714.306	166.23
714.494	207.19
714.682	137.56
714.869	119.12
715.057	194.9
715.244	96.6
715.432	231.76
715.619	172.37
715.807	149.84
715.994	121.17
716.182	158.03
716.369	256.34
716.556	201.04
716.744	123.22
716.931	69.97
717.119	139.6
717.306	170.32
717.493	227.67
717.681	155.99
717.868	129.36
718.055	258.39
718.242	133.46
718.43	227.67
718.617	278.87
718.804	155.99
718.991	325.97
719.179	192.85
719.366	262.48
719.553	141.65
719.74	166.23
719.927	117.08
720.114	180.56
720.301	133.46
720.488	147.8
720.676	112.98
720.863	168.27
721.05	389.46
721.237	274.77
721.424	201.04
721.611	176.47
721.798	94.55
721.985	174.42
722.172	178.51
722.358	203.09
722.545	239.95
722.732	190.8
722.919	295.25
723.106	168.27
723.293	231.76
723.48	223.57
723.667	182.61
723.853	276.82
724.04	287.06
724.227	237.91
724.414	147.8
724.6	270.67
724.787	360.78
724.974	426.32
725.161	258.39
725.347	190.8
725.534	194.9
725.72	313.68
725.907	188.75
726.094	289.1
726.28	180.56
726.467	201.04
726.653	211.28
726.84	305.49
727.027	321.87
727.213	323.92
727.4	342.35
727.586	244.05
727.773	229.71
727.959	205.14
728.145	209.23
728.332	205.14
728.518	162.13
728.705	250.19
728.891	270.67
729.077	276.82
729.264	166.23
729.45	207.19
729.636	260.43
729.823	137.56
730.009	287.06
730.195	250.19
730.382	272.72
730.568	151.89
730.754	168.27
730.94	119.12
731.126	166.23
731.313	297.3
731.499	188.75
731.685	223.57
731.871	237.91
732.057	231.76
732.243	266.58
732.429	266.58
732.615	325.97
732.801	237.91
732.987	207.19
733.173	262.48
733.359	172.37
733.545	229.71
733.731	219.47
733.917	352.59
734.103	272.72
734.289	215.38
734.475	117.08
734.661	325.97
734.847	309.58
735.033	203.09
735.219	186.71
735.404	239.95
735.59	182.61
735.776	172.37
735.962	205.14
736.148	248.15
736.333	305.49
736.519	307.54
736.705	250.19
736.89	219.47
737.076	233.81
737.262	155.99
737.447	129.36
737.633	155.99
737.819	248.15
738.004	131.41
738.19	276.82
738.375	305.49
738.561	282.96
738.747	266.58
738.932	196.95
739.118	321.87
739.303	239.95
739.489	166.23
739.674	305.49
739.859	162.13
740.045	303.44
740.23	217.43
740.416	98.64
740.601	147.8
740.786	201.04
740.972	160.08
741.157	121.17
741.342	115.03
741.528	158.03
741.713	280.91
741.898	180.56
742.084	158.03
742.269	135.51
742.454	301.39
742.639	239.95
742.824	207.19
743.01	358.74
743.195	340.3
743.38	266.58
743.565	164.18
743.75	168.27
743.935	276.82
744.12	248.15
744.305	139.6
744.49	194.9
744.675	198.99
744.86	158.03
745.045	260.43
745.23	219.47
745.415	289.1
745.6	268.63
745.785	166.23
745.97	291.15
746.155	207.19
746.34	252.24
746.525	272.72
746.71	229.71
746.895	147.8
747.079	233.81
747.264	192.85
747.449	289.1
747.634	227.67
747.819	211.28
748.003	125.27
748.188	149.84
748.373	270.67
748.557	180.56
748.742	235.86
748.927	133.46
749.111	203.09
749.296	180.56
749.481	254.29
749.665	143.7
749.85	198.99
750.034	260.43
750.219	211.28
750.404	119.12
750.588	194.9
750.773	209.23
750.957	192.85
751.141	184.66
751.326	178.51
751.51	170.32
751.695	248.15
751.879	135.51
752.064	262.48
752.248	151.89
752.432	352.59
752.617	272.72
752.801	297.3
752.985	211.28
753.17	330.06
753.354	213.33
753.538	166.23
753.722	178.51
753.907	110.93
754.091	119.12
754.275	280.91
754.459	67.92
754.643	37.2
754.828	239.95
755.012	231.76
755.196	127.32
755.38	198.99
755.564	137.56
755.748	207.19
755.932	158.03
756.116	129.36
756.3	190.8
756.484	135.51
756.668	164.18
756.852	-22.19
757.036	143.7
757.22	127.32
757.404	112.98
757.588	80.21
757.772	133.46
757.956	82.26
758.14	295.25
758.323	102.74
758.507	166.23
758.691	180.56
758.875	215.38
759.059	270.67
759.242	90.45
759.426	121.17
759.61	192.85
759.794	78.16
759.977	92.5
760.161	250.19
760.345	328.02
760.528	254.29
760.712	196.95
760.895	170.32
761.079	145.75
761.263	49.49
761.446	55.64
761.63	129.36
761.813	178.51
761.997	20.82
762.18	76.12
762.364	141.65
762.547	10.58
762.731	137.56
762.914	53.59
763.098	-1.71
763.281	121.17
763.464	43.35
763.648	104.79
763.831	51.54
764.015	37.2
764.198	160.08
764.381	51.54
764.564	100.69
764.748	151.89
764.931	141.65
765.114	90.45
765.297	182.61
765.481	80.21
765.664	53.59
765.847	117.08
766.03	211.28
766.213	51.54
766.397	135.51
766.58	26.96
766.763	160.08
766.946	86.36
767.129	12.63
767.312	45.4
767.495	110.93
767.678	37.2
767.861	145.75
768.044	131.41
768.227	45.4
768.41	139.6
768.593	33.11
768.776	35.16
768.959	18.77
769.142	160.08
769.324	121.17
769.507	102.74
769.69	65.88
769.873	88.4
770.056	248.15
770.239	149.84
770.421	194.9
770.604	164.18
770.787	74.07
770.97	55.64
771.152	10.58
771.335	149.84
771.518	51.54
771.7	221.52
771.883	227.67
772.066	59.73
772.248	63.83
772.431	180.56
772.613	135.51
772.796	39.25
772.978	63.83
773.161	145.75
773.343	35.16
773.526	4.44
773.708	-44.71
773.891	-20.14
774.073	108.88
774.256	2.39
774.438	231.76
774.621	69.97
774.803	104.79
774.985	110.93
775.168	160.08
775.35	37.2
775.532	221.52
775.715	-110.25
775.897	119.12
776.079	53.59
776.261	22.87
776.444	29.01
776.626	45.4
776.808	41.3
776.99	12.63
777.173	145.75
777.355	100.69
777.537	131.41
777.719	69.97
777.901	12.63
778.083	108.88
778.265	14.68
778.447	51.54
778.629	18.77
778.811	100.69
778.993	123.22
779.175	168.27
779.357	31.06
779.539	10.58
779.721	80.21
779.903	10.58
780.085	78.16
780.267	45.4
780.449	43.35
780.631	41.3
780.812	158.03
780.994	14.68
781.176	127.32
781.358	53.59
781.54	106.84
781.721	102.74
781.903	184.66
782.085	-24.23
782.267	88.4
782.448	-1.71
782.63	-11.95
782.812	74.07
782.993	96.6
783.175	106.84
783.357	6.49
783.538	125.27
783.72	-91.82
783.901	4.44
784.083	72.02
784.264	131.41
784.446	-87.72
784.627	-32.43
784.809	82.26
784.99	-3.75
785.172	45.4
785.353	69.97
785.535	110.93
785.716	-30.38
785.897	18.77
786.079	92.5
786.26	16.73
786.441	45.4
786.623	14.68
786.804	20.82
786.985	78.16
787.167	92.5
787.348	69.97
787.529	-26.28
787.71	190.8
787.891	141.65
788.073	-44.71
788.254	-11.95
788.435	184.66
788.616	24.92
788.797	-9.9
788.978	76.12
789.159	-32.43
789.34	123.22
789.522	0.34
789.703	22.87
789.884	78.16
790.065	63.83
790.246	166.23
790.427	43.35
790.607	61.78
790.788	129.36
790.969	-9.9
791.15	102.74
791.331	-46.76
791.512	63.83
791.693	-36.52
791.874	14.68
792.054	158.03
792.235	67.92
792.416	6.49
792.597	-16.04
792.778	65.88
792.958	65.88
793.139	94.55
793.32	49.49
793.5	-42.67
793.681	24.92
793.862	86.36
794.042	39.25
794.223	-100.01
794.404	76.12
794.584	-108.2
794.765	-22.19
794.945	72.02
795.126	76.12
795.306	94.55
795.487	104.79
795.667	59.73
795.848	94.55
796.028	41.3
796.209	29.01
796.389	26.96
796.57	63.83
796.75	26.96
796.93	16.73
797.111	-34.47
797.291	-42.67
797.471	78.16
797.652	4.44
797.832	-20.14
798.012	108.88
798.192	-44.71
798.373	-24.23
798.553	110.93
798.733	-3.75
798.913	-1.71
799.093	-3.75
799.274	135.51
799.454	88.4
799.634	133.46
799.814	53.59
799.994	80.21
800.174	37.2
800.354	39.25
800.534	-81.58
800.714	100.69
800.894	-44.71
801.074	-24.23
801.254	-63.15
801.434	90.45
801.614	0.34
801.794	-18.09
801.974	1999.16
802.154	-57
802.334	117.08
802.514	-38.57
802.693	63.83
802.873	39.25
803.053	59.73
803.233	86.36
803.413	-36.52
803.592	-36.52
803.772	59.73
803.952	-13.99
804.131	2.39
804.311	47.44
804.491	127.32
804.67	-77.48
804.85	-81.58
805.03	104.79
805.209	67.92
805.389	90.45
805.568	6.49
805.748	39.25
805.928	-46.76
806.107	47.44
806.287	80.21
806.466	20.82
806.646	31.06
806.825	47.44
807.004	24.92
807.184	90.45
807.363	59.73
807.543	6.49
807.722	-11.95
807.901	108.88
808.081	49.49
808.26	-116.39
808.439	47.44
808.619	0.34
808.798	-22.19
808.977	121.17
809.156	106.84
809.336	37.2
809.515	102.74
809.694	-63.15
809.873	-20.14
810.052	117.08
810.231	92.5
810.411	102.74
810.59	129.36
810.769	96.6
810.948	201.04
811.127	-65.19
811.306	43.35
811.485	16.73
811.664	110.93
811.843	-9.9
812.022	20.82
812.201	-28.33
812.38	45.4
812.559	-59.05
812.737	45.4
812.916	6.49
813.095	35.16
813.274	117.08
813.453	-50.86
813.632	-26.28
813.811	63.83
813.989	-3.75
814.168	14.68
814.347	-20.14
814.526	-26.28
814.704	69.97
814.883	149.84
815.062	-73.39
815.24	16.73
815.419	-32.43
815.598	110.93
815.776	-104.11
815.955	-9.9
816.133	-81.58
816.312	16.73
816.49	8.53
816.669	-38.57
816.847	-16.04
817.026	24.92
817.204	-46.76
817.383	-7.85
817.561	-24.23
817.74	55.64
817.918	6.49
818.097	0.34
818.275	-69.29
818.453	84.31
818.632	41.3
818.81	-54.95
818.988	26.96
819.167	-22.19
819.345	-11.95
819.523	-18.09
819.701	33.11
819.879	100.69
820.058	-24.23
820.236	-16.04
820.414	18.77
820.592	-40.62
820.77	0.34
820.948	-69.29
821.127	-36.52
821.305	16.73
821.483	14.68
821.661	117.08
821.839	-34.47
822.017	86.36
822.195	55.64
822.373	112.98
822.551	67.92
822.729	63.83
822.907	26.96
823.085	22.87
823.262	-30.38
823.44	-59.05
823.618	16.73
823.796	61.78
823.974	-59.05
824.152	-5.8
824.329	-26.28
824.507	24.92
824.685	65.88
824.863	0.34
825.04	-13.99
825.218	139.6
825.396	121.17
825.574	37.2
825.751	18.77
825.929	43.35
826.107	-46.76
826.284	69.97
826.462	37.2
826.639	-9.9
826.817	-50.86
826.994	2.39
827.172	-65.19
827.349	69.97
827.527	80.21
827.704	121.17
827.882	65.88
828.059	-57
828.237	90.45
828.414	78.16
828.591	-122.54
828.769	4.44
828.946	-61.1
829.124	100.69
829.301	96.6
829.478	-57
829.655	57.68
829.833	31.06
830.01	-61.1
830.187	18.77
830.364	2.39
830.542	74.07
830.719	160.08
830.896	86.36
831.073	-5.8
831.25	12.63
831.427	76.12
831.604	-36.52
831.782	31.06
831.959	88.4
832.136	16.73
832.313	29.01
832.49	-34.47
832.667	4.44
832.844	-38.57
833.021	74.07
833.198	51.54
833.374	20.82
833.551	41.3
833.728	20.82
833.905	84.31
834.082	-63.15
834.259	69.97
834.436	121.17
834.612	-9.9
834.789	4.44
834.966	8.53
835.143	61.78
835.319	-24.23
835.496	63.83
835.673	-28.33
835.85	45.4
836.026	80.21
836.203	102.74
836.38	-3.75
836.556	10.58
836.733	2.39
836.909	149.84
837.086	-61.1
837.262	-54.95
837.439	-30.38
837.616	-52.91
837.792	16.73
837.968	86.36
838.145	-165.54
838.321	33.11
838.498	69.97
838.674	31.06
838.851	31.06
839.027	-3.75
839.203	26.96
839.38	41.3
839.556	-13.99
839.732	49.49
839.909	6.49
840.085	49.49
840.261	-18.09
840.437	-1.71
840.614	-34.47
840.79	147.8
840.966	94.55
841.142	-16.04
841.318	-5.8
841.494	-22.19
841.671	57.68
841.847	-1.71
842.023	14.68
842.199	76.12
842.375	104.79
842.551	-112.3
842.727	-59.05
842.903	209.23
843.079	-22.19
843.255	49.49
843.431	6.49
843.607	80.21
843.783	-69.29
843.959	45.4
844.134	-30.38
844.31	153.94
844.486	0.34
844.662	43.35
844.838	78.16
845.013	65.88
845.189	74.07
845.365	0.34
845.541	43.35
845.716	102.74
845.892	137.56
846.068	-36.52
846.244	-81.58
846.419	35.16
846.595	-65.19
846.77	-7.85
846.946	135.51
847.122	-30.38
847.297	-11.95
847.473	125.27
847.648	-22.19
847.824	4.44
847.999	-143.02
848.175	53.59
848.35	20.82
848.526	86.36
848.701	67.92
848.876	10.58
849.052	49.49
849.227	-13.99
849.403	67.92
849.578	12.63
849.753	16.73
849.929	98.64
850.104	-102.06
850.279	88.4
850.454	-46.76
850.63	67.92
850.805	6.49
850.98	29.01
851.155	76.12
851.33	106.84
851.505	-67.24
851.681	94.55
851.856	-38.57
852.031	63.83
852.206	20.82
852.381	-126.63
852.556	33.11
852.731	29.01
852.906	-1.71
853.081	33.11
853.256	57.68
853.431	-34.47
853.606	-106.15
853.781	-71.34
853.956	-44.71
854.131	0.34
854.305	-67.24
854.48	-5.8
854.655	-36.52
854.83	-54.95
855.005	-30.38
855.18	20.82
855.354	29.01
855.529	39.25
855.704	-44.71
855.879	0.34
856.053	-3.75
856.228	76.12
856.403	-91.82
856.577	94.55
856.752	8.53
856.926	-46.76
857.101	33.11
857.276	-5.8
857.45	-89.77
857.625	41.3
857.799	-26.28
857.974	20.82
858.148	-91.82
858.323	61.78
858.497	-50.86
858.672	-24.23
858.846	-20.14
859.02	49.49
859.195	-38.57
859.369	29.01
859.543	24.92
859.718	-16.04
859.892	-13.99
860.066	2.39
860.241	57.68
860.415	-42.67
860.589	76.12
860.763	-3.75
860.938	-9.9
861.112	29.01
861.286	18.77
861.46	18.77
861.634	26.96
861.808	96.6
861.982	-36.52
862.157	-28.33
862.331	-32.43
862.505	6.49
862.679	-81.58
862.853	12.63
863.027	-42.67
863.201	55.64
863.375	-36.52
863.549	69.97
863.722	22.87
863.896	145.75
864.07	-22.19
864.244	14.68
864.418	67.92
864.592	-13.99
864.766	78.16
864.939	45.4
865.113	-85.67
865.287	67.92
865.461	-63.15
865.634	26.96
865.808	-36.52
865.982	-50.86
866.156	-71.34
866.329	-7.85
866.503	67.92
866.676	94.55
866.85	92.5
867.024	-42.67
867.197	125.27
867.371	24.92
867.544	2.39
867.718	-104.11
867.891	82.26
868.065	-128.68
868.238	24.92
868.412	76.12
868.585	63.83
868.759	14.68
868.932	24.92
869.105	-81.58
869.279	-26.28
869.452	-7.85
869.625	84.31
869.799	10.58
869.972	-128.68
870.145	-54.95
870.319	72.02
870.492	-32.43
870.665	-50.86
870.838	53.59
871.011	-36.52
871.185	-36.52
871.358	26.96
871.531	37.2
871.704	24.92
871.877	37.2
872.05	-16.04
872.223	-79.53
872.396	18.77
872.569	78.16
872.742	-102.06
872.915	41.3
873.088	-1.71
873.261	6.49
873.434	67.92
873.607	-20.14
873.78	115.03
873.953	-71.34
874.126	47.44
874.299	61.78
874.471	-73.39
874.644	-5.8
874.817	112.98
874.99	119.12
875.163	-50.86
875.335	29.01
875.508	-7.85
875.681	53.59
875.853	-13.99
876.026	16.73
876.199	22.87
876.371	-3.75
876.544	-83.63
876.717	76.12
876.889	16.73
877.062	4.44
877.234	-69.29
877.407	-52.91
877.579	16.73
877.752	-7.85
877.924	166.23
878.097	57.68
878.269	53.59
878.442	78.16
878.614	-1.71
878.786	-40.62
878.959	-9.9
879.131	16.73
879.303	-61.1
879.476	-40.62
879.648	162.13
879.82	37.2
879.993	-18.09
880.165	-50.86
880.337	-118.44
880.509	-13.99
880.681	-79.53
880.854	8.53
881.026	59.73
881.198	201.04
881.37	-18.09
881.542	-89.77
881.714	-28.33
881.886	18.77
882.058	88.4
882.23	14.68
882.402	6.49
882.574	2.39
882.746	35.16
882.918	141.65
883.09	59.73
883.262	-7.85
883.434	37.2
883.606	-59.05
883.778	-36.52
883.95	151.89
884.122	-38.57
884.293	18.77
884.465	-9.9
884.637	26.96
884.809	-36.52
884.98	41.3
885.152	33.11
885.324	61.78
885.496	12.63
885.667	-30.38
885.839	-65.19
886.011	123.22
886.182	43.35
886.354	86.36
886.525	33.11
886.697	22.87
886.869	-40.62
887.04	35.16
887.212	145.75
887.383	192.85
887.555	33.11
887.726	24.92
887.897	51.54
888.069	-13.99
888.24	26.96
888.412	-42.67
888.583	24.92
888.754	67.92
888.926	-181.93
889.097	-18.09
889.268	-50.86
889.44	26.96
889.611	-75.43
889.782	-93.87
889.953	-22.19
890.125	53.59
890.296	-83.63
890.467	-95.91
890.638	-32.43
890.809	-7.85
890.98	-20.14
891.151	26.96
891.323	121.17
891.494	-38.57
891.665	-50.86
891.836	-48.81
892.007	31.06
892.178	92.5
892.349	18.77
892.52	-38.57
892.691	24.92
892.862	-5.8
893.032	-106.15
893.203	-20.14
893.374	61.78
893.545	33.11
893.716	51.54
893.887	33.11
894.057	-32.43
894.228	-48.81
894.399	-20.14
894.57	61.78
894.74	53.59
894.911	55.64
895.082	0.34
895.253	-30.38
895.423	-38.57
895.594	39.25
895.764	16.73
895.935	-28.33
896.106	94.55
896.276	4.44
896.447	55.64
896.617	12.63
896.788	-50.86
896.958	18.77
897.129	-59.05
897.299	-116.39
897.47	115.03
897.64	104.79
897.81	31.06
897.981	-44.71
898.151	-63.15
898.322	47.44
898.492	127.32
898.662	-30.38
898.832	-40.62
899.003	-38.57
899.173	-5.8
899.343	-59.05
899.513	-40.62
