Data from USB4F104151__77__10-44-16-471.txt Node

Date: Wed Feb 26 10:44:16 EST 2025
User: louis
Spectrometer: USB4F10415
Trigger mode: 4
Integration Time (sec): 1.000000E-1
Scans to average: 1
Electric dark correction enabled: true
Nonlinearity correction enabled: false
Boxcar width: 0
XAxis mode: Wavelengths
Number of Pixels in Spectrum: 3648
>>>>>Begin Spectral Data<<<<<
178.204	-383.99
178.424	-383.99
178.644	-383.99
178.864	-427
179.084	-363.51
179.304	-52.22
179.524	-60.42
179.744	-7.17
179.964	82.94
180.184	25.6
180.404	-7.17
180.624	5.12
180.844	9.22
181.064	-80.89
181.283	17.41
181.503	-39.94
181.723	107.52
181.943	-58.37
182.163	115.71
182.383	15.36
182.602	113.66
182.822	166.91
183.042	15.36
183.262	91.13
183.482	-5.12
183.701	56.32
183.921	23.55
184.141	-70.65
184.361	121.85
184.58	87.04
184.8	33.79
185.02	5.12
185.239	156.67
185.459	35.84
185.679	29.7
185.898	21.5
186.118	-1.02
186.338	33.79
186.557	123.9
186.777	-54.27
186.997	23.55
187.216	46.08
187.436	189.44
187.655	91.13
187.875	128
188.095	27.65
188.314	144.38
188.534	185.34
188.753	-97.28
188.973	173.05
189.192	201.72
189.412	39.94
189.631	35.84
189.851	78.85
190.07	193.53
190.29	13.31
190.509	13.31
190.729	97.28
190.948	134.14
191.168	250.88
191.387	103.42
191.607	-3.07
191.826	107.52
192.045	162.81
192.265	35.84
192.484	68.61
192.704	123.9
192.923	21.5
193.142	191.49
193.362	113.66
193.581	111.61
193.8	37.89
194.02	64.51
194.239	50.18
194.458	101.37
194.678	11.26
194.897	29.7
195.116	1.02
195.335	87.04
195.555	56.32
195.774	-9.22
195.993	144.38
196.212	117.76
196.432	-13.31
196.651	17.41
196.87	19.46
197.089	205.82
197.308	58.37
197.528	72.7
197.747	48.13
197.966	80.89
198.185	142.33
198.404	33.79
198.623	209.92
198.842	181.25
199.062	119.81
199.281	168.96
199.5	-5.12
199.719	68.61
199.938	87.04
200.157	109.57
200.376	99.33
200.595	103.42
200.814	44.03
201.033	-39.94
201.252	173.05
201.471	54.27
201.69	146.43
201.909	74.75
202.128	160.77
202.347	72.7
202.566	27.65
202.785	-27.65
203.004	11.26
203.223	197.63
203.442	-21.5
203.661	27.65
203.879	87.04
204.098	148.48
204.317	-7.17
204.536	44.03
204.755	97.28
204.974	142.33
205.193	78.85
205.411	138.24
205.63	128
205.849	132.09
206.068	70.65
206.287	-62.46
206.505	179.2
206.724	93.18
206.943	56.32
207.162	-31.74
207.381	115.71
207.599	54.27
207.818	78.85
208.037	21.5
208.255	9.22
208.474	76.8
208.693	99.33
208.911	-3.07
209.13	64.51
209.349	138.24
209.567	142.33
209.786	152.57
210.005	136.19
210.223	-11.26
210.442	-35.84
210.661	52.22
210.879	89.09
211.098	35.84
211.316	52.22
211.535	76.8
211.753	115.71
211.972	62.46
212.191	31.74
212.409	37.89
212.628	121.85
212.846	9.22
213.065	62.46
213.283	87.04
213.502	50.18
213.72	84.99
213.938	54.27
214.157	-27.65
214.375	181.25
214.594	-9.22
214.812	160.77
215.031	11.26
215.249	76.8
215.467	144.38
215.686	13.31
215.904	119.81
216.122	140.29
216.341	181.25
216.559	74.75
216.778	97.28
216.996	101.37
217.214	54.27
217.432	29.7
217.651	-3.07
217.869	29.7
218.087	72.7
218.306	25.6
218.524	54.27
218.742	113.66
218.96	103.42
219.179	-11.26
219.397	-48.13
219.615	244.73
219.833	103.42
220.051	-11.26
220.27	121.85
220.488	64.51
220.706	128
220.924	19.46
221.142	-35.84
221.36	62.46
221.578	105.47
221.796	58.37
222.015	54.27
222.233	115.71
222.451	142.33
222.669	-70.65
222.887	70.65
223.105	66.56
223.323	52.22
223.541	-103.42
223.759	95.23
223.977	89.09
224.195	224.25
224.413	72.7
224.631	29.7
224.849	46.08
225.067	287.74
225.285	11.26
225.503	66.56
225.721	-111.61
225.939	60.42
226.157	168.96
226.375	281.6
226.592	52.22
226.81	87.04
227.028	91.13
227.246	123.9
227.464	74.75
227.682	146.43
227.9	78.85
228.117	62.46
228.335	107.52
228.553	74.75
228.771	84.99
228.989	138.24
229.206	31.74
229.424	64.51
229.642	52.22
229.86	-25.6
230.077	150.53
230.295	95.23
230.513	175.1
230.731	78.85
230.948	175.1
231.166	183.29
231.384	25.6
231.601	-3.07
231.819	222.2
232.037	5.12
232.254	-23.55
232.472	17.41
232.689	70.65
232.907	187.39
233.125	1.02
233.342	-66.56
233.56	19.46
233.777	-27.65
233.995	80.89
234.213	148.48
234.43	37.89
234.648	95.23
234.865	64.51
235.083	132.09
235.3	23.55
235.518	78.85
235.735	111.61
235.953	162.81
236.17	84.99
236.388	68.61
236.605	74.75
236.822	121.85
237.04	89.09
237.257	62.46
237.475	-11.26
237.692	62.46
237.909	82.94
238.127	48.13
238.344	68.61
238.562	54.27
238.779	-9.22
238.996	-9.22
239.214	46.08
239.431	103.42
239.648	21.5
239.865	111.61
240.083	91.13
240.3	44.03
240.517	113.66
240.735	142.33
240.952	123.9
241.169	46.08
241.386	134.14
241.603	54.27
241.821	25.6
242.038	99.33
242.255	93.18
242.472	-17.41
242.689	130.05
242.907	103.42
243.124	146.43
243.341	68.61
243.558	27.65
243.775	-25.6
243.992	-74.75
244.209	25.6
244.426	244.73
244.643	70.65
244.86	54.27
245.078	107.52
245.295	62.46
245.512	76.8
245.729	15.36
245.946	107.52
246.163	160.77
246.38	48.13
246.597	5.12
246.814	17.41
247.031	48.13
247.248	25.6
247.464	89.09
247.681	-7.17
247.898	68.61
248.115	-19.46
248.332	56.32
248.549	66.56
248.766	134.14
248.983	91.13
249.2	46.08
249.417	152.57
249.633	74.75
249.85	39.94
250.067	62.46
250.284	50.18
250.501	111.61
250.717	91.13
250.934	-21.5
251.151	78.85
251.368	58.37
251.585	52.22
251.801	91.13
252.018	-9.22
252.235	109.57
252.451	-41.98
252.668	23.55
252.885	156.67
253.102	84.99
253.318	19.46
253.535	23.55
253.752	-23.55
253.968	5.12
254.185	-60.42
254.401	97.28
254.618	130.05
254.835	-25.6
255.051	166.91
255.268	80.89
255.484	15.36
255.701	25.6
255.917	84.99
256.134	-19.46
256.351	19.46
256.567	66.56
256.784	15.36
257	-27.65
257.217	130.05
257.433	164.86
257.65	50.18
257.866	158.72
258.082	3.07
258.299	15.36
258.515	44.03
258.732	72.7
258.948	148.48
259.165	80.89
259.381	-56.32
259.597	78.85
259.814	35.84
260.03	62.46
260.246	23.55
260.463	158.72
260.679	166.91
260.895	123.9
261.112	107.52
261.328	56.32
261.544	-29.7
261.761	197.63
261.977	-5.12
262.193	29.7
262.409	164.86
262.626	13.31
262.842	-5.12
263.058	5.12
263.274	89.09
263.49	109.57
263.707	134.14
263.923	82.94
264.139	-33.79
264.355	89.09
264.571	130.05
264.787	132.09
265.004	80.89
265.22	-39.94
265.436	37.89
265.652	-17.41
265.868	41.98
266.084	39.94
266.3	48.13
266.516	-1.02
266.732	121.85
266.948	113.66
267.164	41.98
267.38	148.48
267.596	144.38
267.812	173.05
268.028	52.22
268.244	-21.5
268.46	66.56
268.676	58.37
268.892	68.61
269.108	-19.46
269.324	27.65
269.54	-84.99
269.756	123.9
269.972	15.36
270.188	29.7
270.403	-19.46
270.619	31.74
270.835	46.08
271.051	48.13
271.267	74.75
271.483	82.94
271.698	105.47
271.914	84.99
272.13	74.75
272.346	-31.74
272.562	68.61
272.777	70.65
272.993	31.74
273.209	41.98
273.425	113.66
273.64	1.02
273.856	103.42
274.072	41.98
274.287	17.41
274.503	117.76
274.719	107.52
274.934	54.27
275.15	39.94
275.366	39.94
275.581	-35.84
275.797	103.42
276.012	87.04
276.228	54.27
276.444	80.89
276.659	205.82
276.875	21.5
277.09	76.8
277.306	70.65
277.521	29.7
277.737	3.07
277.952	109.57
278.168	3.07
278.383	128
278.599	-1.02
278.814	99.33
279.03	-1.02
279.245	142.33
279.461	-5.12
279.676	175.1
279.892	-11.26
280.107	-15.36
280.322	19.46
280.538	89.09
280.753	15.36
280.969	84.99
281.184	68.61
281.399	209.92
281.615	101.37
281.83	31.74
282.045	1.02
282.26	39.94
282.476	113.66
282.691	109.57
282.906	197.63
283.122	54.27
283.337	-13.31
283.552	95.23
283.767	15.36
283.983	132.09
284.198	58.37
284.413	132.09
284.628	-3.07
284.843	62.46
285.058	113.66
285.274	29.7
285.489	-48.13
285.704	162.81
285.919	37.89
286.134	82.94
286.349	91.13
286.564	48.13
286.779	138.24
286.995	78.85
287.21	-23.55
287.425	76.8
287.64	-39.94
287.855	97.28
288.07	-25.6
288.285	199.68
288.5	138.24
288.715	95.23
288.93	19.46
289.145	-41.98
289.36	173.05
289.575	93.18
289.79	103.42
290.004	23.55
290.219	125.95
290.434	97.28
290.649	25.6
290.864	5.12
291.079	11.26
291.294	46.08
291.509	128
291.724	13.31
291.938	80.89
292.153	74.75
292.368	23.55
292.583	52.22
292.798	82.94
293.012	107.52
293.227	93.18
293.442	-3.07
293.657	80.89
293.871	138.24
294.086	99.33
294.301	158.72
294.516	148.48
294.73	111.61
294.945	-5.12
295.16	58.37
295.374	89.09
295.589	62.46
295.804	-15.36
296.018	37.89
296.233	183.29
296.447	109.57
296.662	37.89
296.877	99.33
297.091	162.81
297.306	74.75
297.52	48.13
297.735	136.19
297.949	70.65
298.164	-27.65
298.378	89.09
298.593	-19.46
298.807	56.32
299.022	66.56
299.236	144.38
299.451	29.7
299.665	27.65
299.88	37.89
300.094	62.46
300.309	87.04
300.523	29.7
300.737	128
300.952	105.47
301.166	82.94
301.381	50.18
301.595	-3.07
301.809	164.86
302.024	21.5
302.238	13.31
302.452	87.04
302.667	99.33
302.881	201.72
303.095	52.22
303.309	115.71
303.524	9.22
303.738	27.65
303.952	19.46
304.166	130.05
304.381	-56.32
304.595	128
304.809	66.56
305.023	160.77
305.237	46.08
305.452	-3.07
305.666	113.66
305.88	23.55
306.094	193.53
306.308	205.82
306.522	62.46
306.736	109.57
306.95	60.42
307.164	13.31
307.379	70.65
307.593	89.09
307.807	173.05
308.021	84.99
308.235	70.65
308.449	-13.31
308.663	91.13
308.877	179.2
309.091	82.94
309.305	119.81
309.519	-70.65
309.733	158.72
309.947	-54.27
310.161	95.23
310.374	105.47
310.588	99.33
310.802	37.89
311.016	39.94
311.23	72.7
311.444	-9.22
311.658	103.42
311.872	84.99
312.085	195.58
312.299	113.66
312.513	154.62
312.727	82.94
312.941	7.17
313.154	183.29
313.368	44.03
313.582	66.56
313.796	93.18
314.009	82.94
314.223	207.87
314.437	50.18
314.651	226.3
314.864	-31.74
315.078	48.13
315.292	-17.41
315.505	35.84
315.719	70.65
315.933	80.89
316.146	-76.8
316.36	15.36
316.573	152.57
316.787	76.8
317.001	111.61
317.214	-64.51
317.428	7.17
317.641	29.7
317.855	-46.08
318.068	115.71
318.282	19.46
318.495	185.34
318.709	111.61
318.922	103.42
319.136	128
319.349	154.62
319.563	44.03
319.776	111.61
319.99	-33.79
320.203	60.42
320.417	74.75
320.63	132.09
320.843	185.34
321.057	168.96
321.27	130.05
321.483	82.94
321.697	179.2
321.91	-7.17
322.124	39.94
322.337	105.47
322.55	-58.37
322.763	113.66
322.977	11.26
323.19	64.51
323.403	87.04
323.617	185.34
323.83	193.53
324.043	15.36
324.256	74.75
324.469	48.13
324.683	91.13
324.896	119.81
325.109	91.13
325.322	-21.5
325.535	109.57
325.748	119.81
325.962	87.04
326.175	142.33
326.388	117.76
326.601	107.52
326.814	58.37
327.027	105.47
327.24	158.72
327.453	-103.42
327.666	134.14
327.879	168.96
328.092	146.43
328.305	121.85
328.518	52.22
328.731	-27.65
328.944	103.42
329.157	13.31
329.37	64.51
329.583	234.49
329.796	207.87
330.009	29.7
330.222	130.05
330.435	50.18
330.648	41.98
330.861	70.65
331.073	54.27
331.286	123.9
331.499	23.55
331.712	-44.03
331.925	76.8
332.138	132.09
332.35	35.84
332.563	17.41
332.776	93.18
332.989	74.75
333.202	44.03
333.414	56.32
333.627	11.26
333.84	48.13
334.053	41.98
334.265	3.07
334.478	58.37
334.691	25.6
334.903	80.89
335.116	25.6
335.329	-35.84
335.541	187.39
335.754	138.24
335.966	50.18
336.179	31.74
336.392	70.65
336.604	128
336.817	123.9
337.029	103.42
337.242	50.18
337.454	132.09
337.667	70.65
337.88	193.53
338.092	78.85
338.305	54.27
338.517	23.55
338.729	95.23
338.942	103.42
339.154	5.12
339.367	-39.94
339.579	130.05
339.792	17.41
340.004	101.37
340.217	119.81
340.429	80.89
340.641	62.46
340.854	-15.36
341.066	50.18
341.278	80.89
341.491	244.73
341.703	121.85
341.915	-44.03
342.128	103.42
342.34	115.71
342.552	-5.12
342.764	82.94
342.977	115.71
343.189	117.76
343.401	27.65
343.613	-13.31
343.826	-1.02
344.038	-37.89
344.25	87.04
344.462	15.36
344.674	105.47
344.886	80.89
345.099	111.61
345.311	93.18
345.523	-11.26
345.735	19.46
345.947	60.42
346.159	41.98
346.371	13.31
346.583	25.6
346.795	183.29
347.007	91.13
347.219	142.33
347.431	31.74
347.643	195.58
347.855	7.17
348.067	160.77
348.279	27.65
348.491	82.94
348.703	105.47
348.915	50.18
349.127	-84.99
349.339	27.65
349.551	-31.74
349.763	56.32
349.975	72.7
350.187	123.9
350.399	211.96
350.61	21.5
350.822	142.33
351.034	107.52
351.246	72.7
351.458	82.94
351.669	33.79
351.881	156.67
352.093	148.48
352.305	82.94
352.517	89.09
352.728	93.18
352.94	-1.02
353.152	66.56
353.363	78.85
353.575	132.09
353.787	78.85
353.999	31.74
354.21	150.53
354.422	56.32
354.633	93.18
354.845	48.13
355.057	68.61
355.268	66.56
355.48	78.85
355.692	11.26
355.903	78.85
356.115	-13.31
356.326	-9.22
356.538	162.81
356.749	160.77
356.961	185.34
357.172	44.03
357.384	62.46
357.595	287.74
357.807	29.7
358.018	-33.79
358.23	72.7
358.441	144.38
358.653	111.61
358.864	136.19
359.075	54.27
359.287	23.55
359.498	140.29
359.709	76.8
359.921	93.18
360.132	111.61
360.344	15.36
360.555	25.6
360.766	58.37
360.977	-5.12
361.189	193.53
361.4	41.98
361.611	39.94
361.823	171.01
362.034	111.61
362.245	-15.36
362.456	70.65
362.667	84.99
362.879	13.31
363.09	103.42
363.301	25.6
363.512	107.52
363.723	44.03
363.935	23.55
364.146	185.34
364.357	68.61
364.568	21.5
364.779	-46.08
364.99	173.05
365.201	64.51
365.412	148.48
365.623	-7.17
365.834	84.99
366.045	89.09
366.256	72.7
366.467	91.13
366.678	76.8
366.889	78.85
367.1	19.46
367.311	156.67
367.522	3.07
367.733	113.66
367.944	33.79
368.155	44.03
368.366	31.74
368.577	105.47
368.788	52.22
368.999	76.8
369.209	125.95
369.42	220.16
369.631	236.54
369.842	144.38
370.053	17.41
370.264	121.85
370.474	-23.55
370.685	-3.07
370.896	35.84
371.107	156.67
371.317	97.28
371.528	23.55
371.739	195.58
371.95	99.33
372.16	138.24
372.371	-11.26
372.582	31.74
372.792	107.52
373.003	115.71
373.214	97.28
373.424	123.9
373.635	29.7
373.846	156.67
374.056	27.65
374.267	125.95
374.477	54.27
374.688	27.65
374.898	115.71
375.109	121.85
375.319	76.8
375.53	162.81
375.74	74.75
375.951	62.46
376.161	111.61
376.372	158.72
376.582	70.65
376.793	82.94
377.003	23.55
377.214	27.65
377.424	66.56
377.635	66.56
377.845	54.27
378.055	160.77
378.266	58.37
378.476	-48.13
378.686	148.48
378.897	70.65
379.107	123.9
379.317	130.05
379.528	13.31
379.738	119.81
379.948	-52.22
380.158	140.29
380.369	46.08
380.579	101.37
380.789	-15.36
380.999	87.04
381.21	171.01
381.42	181.25
381.63	62.46
381.84	125.95
382.05	99.33
382.261	257.02
382.471	99.33
382.681	56.32
382.891	160.77
383.101	84.99
383.311	-33.79
383.521	5.12
383.731	84.99
383.941	134.14
384.151	46.08
384.361	66.56
384.571	50.18
384.781	33.79
384.991	275.45
385.201	154.62
385.411	82.94
385.621	99.33
385.831	82.94
386.041	44.03
386.251	25.6
386.461	179.2
386.671	97.28
386.881	70.65
387.091	46.08
387.301	103.42
387.511	103.42
387.72	72.7
387.93	142.33
388.14	-39.94
388.35	44.03
388.56	82.94
388.769	154.62
388.979	39.94
389.189	35.84
389.399	193.53
389.609	115.71
389.818	134.14
390.028	68.61
390.238	44.03
390.447	105.47
390.657	50.18
390.867	-48.13
391.076	5.12
391.286	76.8
391.496	76.8
391.705	35.84
391.915	111.61
392.125	132.09
392.334	-7.17
392.544	162.81
392.753	72.7
392.963	-11.26
393.172	76.8
393.382	31.74
393.591	158.72
393.801	-17.41
394.01	189.44
394.22	168.96
394.429	82.94
394.639	84.99
394.848	35.84
395.058	-19.46
395.267	5.12
395.477	103.42
395.686	123.9
395.895	218.11
396.105	193.53
396.314	68.61
396.524	54.27
396.733	74.75
396.942	168.96
397.152	31.74
397.361	171.01
397.57	-3.07
397.78	50.18
397.989	242.68
398.198	148.48
398.407	89.09
398.617	103.42
398.826	58.37
399.035	21.5
399.244	191.49
399.453	80.89
399.663	46.08
399.872	60.42
400.081	52.22
400.29	109.57
400.499	-3.07
400.708	164.86
400.917	128
401.127	50.18
401.336	97.28
401.545	152.57
401.754	158.72
401.963	125.95
402.172	29.7
402.381	64.51
402.59	89.09
402.799	35.84
403.008	103.42
403.217	111.61
403.426	29.7
403.635	-11.26
403.844	107.52
404.053	29.7
404.262	89.09
404.471	205.82
404.68	17.41
404.888	35.84
405.097	-39.94
405.306	107.52
405.515	156.67
405.724	56.32
405.933	97.28
406.142	82.94
406.35	146.43
406.559	41.98
406.768	95.23
406.977	113.66
407.185	66.56
407.394	80.89
407.603	25.6
407.812	115.71
408.02	156.67
408.229	56.32
408.438	54.27
408.646	-21.5
408.855	105.47
409.064	78.85
409.272	87.04
409.481	162.81
409.69	68.61
409.898	-31.74
410.107	95.23
410.315	171.01
410.524	74.75
410.733	-19.46
410.941	62.46
411.15	105.47
411.358	111.61
411.567	162.81
411.775	87.04
411.984	76.8
412.192	91.13
412.401	84.99
412.609	158.72
412.818	201.72
413.026	95.23
413.234	29.7
413.443	46.08
413.651	68.61
413.86	39.94
414.068	128
414.276	154.62
414.485	50.18
414.693	119.81
414.901	238.59
415.11	80.89
415.318	82.94
415.526	56.32
415.734	89.09
415.943	107.52
416.151	166.91
416.359	62.46
416.567	78.85
416.776	117.76
416.984	138.24
417.192	160.77
417.4	117.76
417.608	78.85
417.817	72.7
418.025	121.85
418.233	201.72
418.441	9.22
418.649	44.03
418.857	82.94
419.065	123.9
419.273	91.13
419.481	148.48
419.689	72.7
419.897	46.08
420.105	1.02
420.313	156.67
420.521	181.25
420.729	218.11
420.937	66.56
421.145	25.6
421.353	48.13
421.561	154.62
421.769	162.81
421.977	87.04
422.185	168.96
422.393	29.7
422.601	84.99
422.809	181.25
423.017	48.13
423.224	91.13
423.432	113.66
423.64	46.08
423.848	199.68
424.056	50.18
424.263	160.77
424.471	111.61
424.679	168.96
424.887	76.8
425.094	150.53
425.302	97.28
425.51	25.6
425.718	138.24
425.925	103.42
426.133	44.03
426.341	209.92
426.548	142.33
426.756	68.61
426.964	125.95
427.171	97.28
427.379	111.61
427.586	140.29
427.794	105.47
428.001	189.44
428.209	23.55
428.417	84.99
428.624	142.33
428.832	173.05
429.039	173.05
429.247	84.99
429.454	160.77
429.662	252.92
429.869	93.18
430.076	136.19
430.284	193.53
430.491	173.05
430.699	214.01
430.906	220.16
431.114	171.01
431.321	177.15
431.528	173.05
431.736	130.05
431.943	209.92
432.15	144.38
432.358	199.68
432.565	175.1
432.772	48.13
432.979	193.53
433.187	148.48
433.394	181.25
433.601	164.86
433.808	171.01
434.016	293.88
434.223	312.32
434.43	218.11
434.637	365.56
434.844	314.36
435.052	189.44
435.259	332.79
435.466	308.22
435.673	252.92
435.88	220.16
436.087	297.98
436.294	349.18
436.501	265.21
436.708	271.36
436.915	351.23
437.122	379.9
437.329	246.78
437.537	275.45
437.743	345.08
437.95	494.58
438.157	435.19
438.364	377.85
438.571	334.84
438.778	449.53
438.985	457.72
439.192	523.26
439.399	404.47
439.606	564.22
439.813	508.92
440.02	652.28
440.227	660.47
440.433	685.05
440.64	566.26
440.847	519.16
441.054	539.64
441.261	678.9
441.467	570.36
441.674	508.92
441.881	707.57
442.088	596.98
442.294	699.38
442.501	762.87
442.708	879.6
442.914	726
443.121	762.87
443.328	863.22
443.534	883.7
443.741	889.84
443.948	711.67
444.154	914.42
444.361	1076.21
444.568	941.04
444.774	951.28
444.981	953.33
445.187	1078.26
445.394	1096.69
445.6	1039.34
445.807	1176.56
446.013	1174.51
446.22	1166.32
446.426	1293.29
446.633	1450.99
446.839	1618.92
447.046	1332.2
447.252	1514.47
447.459	1410.03
447.665	1522.66
447.871	1797.09
448.078	1774.56
448.284	1774.56
448.491	1790.95
448.697	1799.14
448.903	1946.59
449.11	2034.66
449.316	1991.65
449.522	2368.48
449.728	2438.11
449.935	2417.63
450.141	2278.37
450.347	2515.93
450.553	2540.51
450.76	2532.31
450.966	2726.87
451.172	2853.84
451.378	2878.42
451.584	3015.63
451.791	3126.22
451.997	3290.06
452.203	3167.18
452.409	3576.78
452.615	3554.25
452.821	3587.02
453.027	3728.33
453.233	4068.29
453.44	3865.54
453.646	3965.89
453.852	4398.01
454.058	4248.51
454.264	4412.35
454.47	4965.3
454.676	4860.85
454.882	5307.31
455.088	4975.54
455.294	5311.41
455.5	5680.04
455.705	5893.03
455.911	5983.14
456.117	6026.15
456.323	6392.73
456.529	6368.16
456.735	6927.25
456.941	7240.59
457.147	7437.2
457.352	7824.26
457.558	7803.78
457.764	8354.69
457.97	8670.08
458.176	8915.83
458.381	9171.83
458.587	9466.74
458.793	9898.86
458.999	9956.2
459.204	11215.7
459.41	11705.17
459.616	11443.03
459.821	12204.87
460.027	12593.98
460.233	13198.13
460.438	13243.19
460.644	14000.94
460.85	14089
461.055	14471.97
461.261	15242.01
461.466	15057.69
461.672	15315.73
461.878	17361.66
462.083	16802.56
462.289	17586.93
462.494	18260.71
462.7	18139.88
462.905	18313.96
463.111	19794.64
463.316	20759.24
463.522	21375.67
463.727	21897.91
463.932	22719.14
464.138	23448.22
464.343	24597.13
464.549	24504.97
464.754	26339.95
464.959	27103.84
465.165	27429.47
465.37	27437.66
465.575	27638.36
465.781	29522.49
465.986	29712.95
466.191	29512.25
466.397	30020.15
466.602	29366.85
466.807	30507.57
467.012	31687.2
467.218	31910.43
467.423	32133.65
467.628	32895.5
467.833	34251.25
468.038	34130.42
468.244	33567.23
468.449	35095.02
468.654	34378.23
468.859	34314.74
469.064	34589.17
469.269	33737.21
469.474	34191.86
469.679	35236.33
469.885	33952.25
470.09	34613.74
470.295	34464.24
470.5	33776.12
470.705	33960.44
470.91	33059.34
471.115	32819.72
471.32	33561.09
471.525	33180.17
471.73	32201.24
471.935	31980.06
472.139	30972.46
472.344	31050.28
472.549	30839.34
472.754	30046.77
472.959	29301.31
473.164	28666.44
473.369	28451.41
473.574	28959.3
473.778	28267.09
473.983	28037.72
474.188	27449.95
474.393	25959.03
474.598	25969.27
474.802	25504.38
475.007	24978.05
475.212	25019.01
475.417	23775.89
475.621	23472.79
475.826	23464.6
476.031	23038.62
476.235	22516.39
476.44	22282.92
476.645	21959.34
476.849	21508.79
477.054	21312.19
477.259	20787.91
477.463	20830.91
477.668	20220.62
477.872	20370.12
478.077	19802.83
478.282	18936.54
478.486	18950.88
478.691	18703.07
478.895	18682.59
479.1	18473.7
479.304	18072.3
479.509	17531.64
479.713	17849.07
479.918	17580.79
480.122	16857.85
480.326	17113.85
480.531	17124.09
480.735	17003.26
480.94	16743.17
481.144	17167.1
481.348	16218.89
481.553	16571.14
481.757	16003.85
481.961	15944.46
482.166	16444.17
482.37	15747.86
482.574	15567.63
482.778	15624.98
482.983	16016.14
483.187	15584.02
483.391	15414.04
483.595	15239.96
483.8	14961.44
484.004	15041.31
484.208	14953.24
484.412	14746.4
484.616	14510.88
484.821	14304.04
485.025	14373.67
485.229	14291.75
485.433	13720.37
485.637	13648.69
485.841	13667.12
486.045	13452.08
486.249	13308.72
486.453	12929.85
486.657	12870.46
486.861	12790.59
487.065	12286.79
487.269	12393.28
487.473	11873.1
487.677	11979.59
487.881	12047.18
488.085	11535.18
488.289	11594.58
488.493	11101.01
488.697	11293.52
488.901	10990.42
489.105	10533.73
489.309	10361.7
489.512	10441.57
489.716	10330.98
489.92	9950.06
490.124	9841.51
490.328	9851.75
490.531	9354.1
490.735	9401.2
490.939	9079.67
491.143	8901.5
491.346	8844.15
491.55	8846.2
491.754	8547.2
491.958	8524.67
492.161	8303.49
492.365	7971.72
492.569	8012.68
492.772	8008.58
492.976	7836.55
493.18	7746.44
493.383	7895.94
493.587	7381.9
493.79	7463.82
493.994	7263.12
494.197	7308.18
494.401	7302.03
494.605	7109.52
494.808	7111.57
495.012	6734.75
495.215	7099.28
495.419	6800.28
495.622	6847.38
495.825	6775.7
496.029	6792.09
496.232	6867.86
496.436	6683.55
496.639	6865.82
496.843	6601.63
497.046	6765.46
497.249	6736.79
497.453	6603.68
497.656	6658.97
497.859	6632.35
498.063	6658.97
498.266	6646.68
498.469	6572.96
498.673	6521.76
498.876	6794.14
499.079	6767.51
499.282	6736.79
499.485	6925.21
499.689	6927.25
499.892	6976.41
500.095	6935.45
500.298	7119.76
500.501	6962.07
500.705	7125.91
500.908	7072.66
501.111	7164.82
501.314	7357.33
501.517	7347.09
501.72	7285.65
501.923	7166.87
502.126	7510.93
502.329	7572.36
502.532	7582.6
502.735	7467.92
502.938	7904.14
503.141	7967.62
503.344	7973.77
503.547	8137.6
503.75	8203.14
503.953	8174.47
504.156	8528.77
504.359	8483.71
504.562	8485.76
504.765	8778.62
504.968	8952.7
505.17	9089.91
505.373	8954.74
505.576	9393.01
505.779	9429.87
505.982	9429.87
506.185	9814.89
506.387	9745.26
506.59	10072.93
506.793	9958.25
506.996	10357.6
507.198	10742.62
507.401	10539.87
507.604	10986.33
507.807	11320.15
508.009	11375.44
508.212	11443.03
508.415	11912.01
508.617	11914.06
508.82	12067.66
509.022	12233.54
509.225	12815.16
509.428	12704.57
509.63	13243.19
509.833	13366.07
510.035	14013.23
510.238	14175.02
510.44	14453.54
510.643	14517.03
510.845	15225.62
511.048	15082.27
511.25	15500.05
511.453	15794.96
511.655	16694.02
511.858	16700.16
512.06	16837.38
512.262	17197.82
512.465	17541.88
512.667	17791.73
512.87	18395.88
513.072	18836.19
513.274	19489.49
513.477	19438.3
513.679	20001.49
513.881	20513.48
514.084	21320.38
514.286	21588.66
514.488	21764.79
514.69	22672.04
514.893	22995.62
515.095	23405.21
515.297	23718.55
515.499	24421
515.701	24902.28
515.904	25555.58
516.106	26022.51
516.308	26524.27
516.51	27032.16
516.712	27112.03
516.914	27693.66
517.116	28637.77
517.318	28887.62
517.52	29010.5
517.722	29700.67
517.925	30605.87
518.127	30970.41
518.329	31531.55
518.531	31588.89
518.733	32696.85
518.935	33018.38
519.136	33718.78
519.338	34103.8
519.54	34552.3
519.742	35375.59
519.944	35490.27
520.146	36272.6
520.348	36587.99
520.55	37366.21
520.752	37253.58
520.954	38400.44
521.155	37994.94
521.357	39010.73
521.559	39690.66
521.761	39868.83
521.963	40112.54
522.164	40939.92
522.366	40786.32
522.568	41648.52
522.77	42045.82
522.971	42320.25
523.173	42381.69
523.375	42824.05
523.576	42744.18
523.778	42797.43
523.98	43284.84
524.181	43637.09
524.383	43008.37
524.584	43698.53
524.786	44181.85
524.988	44108.13
525.189	44089.7
525.391	44020.06
525.592	44204.38
525.794	44228.96
525.995	43891.04
526.197	44044.64
526.398	44026.21
526.6	44581.21
526.801	44484.95
527.003	44157.28
527.204	43553.13
527.406	44063.07
527.607	43544.94
527.808	43782.5
528.01	42568.05
528.211	42623.35
528.412	43110.77
528.614	42455.42
528.815	42391.93
529.016	42453.37
529.218	41728.39
529.419	41171.34
529.62	40993.17
529.822	40663.44
530.023	40133.02
530.224	39688.61
530.425	39688.61
530.626	38869.42
530.828	38551.99
531.029	38830.51
531.23	37865.92
531.431	37296.58
531.632	36923.85
531.833	36979.15
532.035	36119
532.236	35609.06
532.437	35910.11
532.638	35058.15
532.839	34507.25
533.04	34380.28
533.241	33550.85
533.442	33583.62
533.643	33278.47
533.844	33030.66
534.045	32274.96
534.246	31552.03
534.447	31445.54
534.648	30595.63
534.849	30411.31
535.05	29751.87
535.251	29391.42
535.451	29293.12
535.652	29006.41
535.853	28301.9
536.054	28291.66
536.255	27687.51
536.456	27177.57
536.657	26944.1
536.857	26172.02
537.058	26335.85
537.259	26016.37
537.46	25524.86
537.66	24883.84
537.861	25305.73
538.062	24251.02
538.263	24347.28
538.463	23861.91
538.664	23741.08
538.865	23231.13
539.065	23233.18
539.266	22686.37
539.466	22737.57
539.667	22035.12
539.868	22035.12
540.068	21625.53
540.269	21471.93
540.469	21390.01
540.67	20957.89
540.87	20777.67
541.071	20345.55
541.271	20400.84
541.472	20036.3
541.672	19589.85
541.873	19577.56
542.073	18782.95
542.274	19284.7
542.474	18932.45
542.675	18758.37
542.875	18664.16
543.075	18250.47
543.276	17562.36
543.476	17951.47
543.676	17566.45
543.877	17279.74
544.077	17298.17
544.277	16780.03
544.478	16612.1
544.678	16610.05
544.878	16401.16
545.078	16315.14
545.279	15809.29
545.479	15778.58
545.679	15823.63
545.879	15706.9
546.079	15407.89
546.28	15162.14
546.48	14885.66
546.68	14983.96
546.88	14861.09
547.08	14695.2
547.28	14500.64
547.48	13988.65
547.68	13853.48
547.88	14037.8
548.081	13691.7
548.281	13452.08
548.481	13568.82
548.681	13626.16
548.881	12933.95
549.081	12942.14
549.28	12655.42
549.48	12362.56
549.68	12616.51
549.88	12284.74
550.08	11928.39
550.28	11930.44
550.48	11815.76
550.68	11420.5
550.88	11455.31
551.08	11256.66
551.279	11105.11
551.479	10949.46
551.679	10838.87
551.879	10750.81
552.079	10511.2
552.278	10345.31
552.478	10464.1
552.678	9972.58
552.878	10025.83
553.077	9587.57
553.277	9302.9
553.477	9620.33
553.676	9216.88
553.876	9061.24
554.076	8881.02
554.275	8874.87
554.475	8586.11
554.674	8670.08
554.874	8502.14
555.074	8196.99
555.273	8317.83
555.473	7897.99
555.672	7783.31
555.872	7781.26
556.071	7832.46
556.271	7760.78
556.47	7586.7
556.67	7222.16
556.869	7195.54
557.068	7302.03
557.268	6955.93
557.467	6876.06
557.667	6849.43
557.866	6720.41
558.065	6615.96
558.265	6419.36
558.464	6159.27
558.663	6298.53
558.863	6083.49
559.062	6151.07
559.261	6083.49
559.461	5864.36
559.66	5850.02
559.859	5524.4
560.058	5440.43
560.258	5557.16
560.457	5325.74
560.656	5481.39
560.855	5272.5
561.054	5233.58
561.253	5215.15
561.453	5026.74
561.652	5036.98
561.851	5102.51
562.05	4842.42
562.249	4684.73
562.448	4613.05
562.647	4441.02
562.846	4590.52
563.045	4619.19
563.244	4451.26
563.443	4369.34
563.642	4197.31
563.841	4328.38
564.04	4182.98
564.239	4121.54
564.438	3965.89
564.637	4072.39
564.836	3904.45
565.035	3724.23
565.234	3728.33
565.432	3763.14
565.631	3808.2
565.83	3558.35
566.029	3546.06
566.228	3466.19
566.427	3509.19
566.625	3357.64
566.824	3310.54
567.023	3396.56
567.222	3183.57
567.42	3253.2
567.619	3167.18
567.818	3066.83
568.016	3288.01
568.215	3101.65
568.414	3128.27
568.612	2941.91
568.811	2962.39
569.01	2790.36
569.208	2806.74
569.407	2739.16
569.605	2778.07
569.804	2790.36
570.002	2773.97
570.201	2671.58
570.4	2683.86
570.598	2560.98
570.797	2505.69
570.995	2468.83
571.193	2352.09
571.392	2472.92
571.59	2335.71
571.789	2372.57
571.987	2376.67
572.186	2356.19
572.384	2184.16
572.582	2221.02
572.781	2352.09
572.979	2051.04
573.177	2106.34
573.376	2100.19
573.574	2165.73
573.772	2038.75
573.971	1770.47
574.169	1874.92
574.367	1897.44
574.565	1985.51
574.763	1829.86
574.962	1924.07
575.16	1889.25
575.358	1704.93
575.556	1768.42
575.754	1663.97
575.952	1698.79
576.151	1704.93
576.349	1709.03
576.547	1512.42
576.745	1645.54
576.943	1563.62
577.141	1534.95
577.339	1520.62
577.537	1567.72
577.735	1545.19
577.933	1641.45
578.131	1319.92
578.329	1481.71
578.527	1346.54
578.725	1487.85
578.923	1313.77
579.121	1383.4
579.319	1332.2
579.516	1266.67
579.714	1500.14
579.912	1223.66
580.11	1149.93
580.308	1270.76
580.506	1180.65
580.704	1080.3
580.901	1092.59
581.099	1315.82
581.297	1131.5
581.495	1143.79
581.692	1033.2
581.89	1186.8
582.088	1104.88
582.285	1070.06
582.483	1041.39
582.681	1012.72
582.878	1055.73
583.076	1016.82
583.274	1031.15
583.471	1194.99
583.669	928.75
583.866	924.66
584.064	875.51
584.262	877.55
584.459	842.74
584.657	889.84
584.854	840.69
585.052	908.27
585.249	881.65
585.447	883.7
585.644	717.81
585.841	928.75
586.039	912.37
586.236	986.1
586.434	769.01
586.631	709.62
586.828	820.21
587.026	760.82
587.223	676.85
587.42	752.63
587.618	779.25
587.815	814.07
588.012	695.29
588.21	615.41
588.407	723.96
588.604	881.65
588.801	668.66
588.999	621.56
589.196	728.05
589.393	639.99
589.59	617.46
589.787	748.53
589.984	658.42
590.182	693.24
590.379	619.51
590.576	637.94
590.773	637.94
590.97	603.13
591.167	734.2
591.364	629.75
591.561	584.7
591.758	691.19
591.955	658.42
592.152	627.7
592.349	637.94
592.546	676.85
592.743	533.5
592.94	594.93
593.137	652.28
593.334	746.48
593.531	615.41
593.727	562.17
593.924	627.7
594.121	568.31
594.318	633.85
594.515	732.15
594.712	719.86
594.908	674.81
595.105	627.7
595.302	631.8
595.499	637.94
595.696	818.16
595.892	601.08
596.089	713.72
596.286	685.05
596.482	873.46
596.679	738.29
596.876	717.81
597.072	754.68
597.269	691.19
597.466	852.98
597.662	877.55
597.859	809.97
598.055	836.6
598.252	932.85
598.448	1035.25
598.645	1008.62
598.841	906.23
599.038	1041.39
599.234	1070.06
599.431	1096.69
599.627	1100.78
599.824	1139.69
600.02	1233.9
600.217	1207.28
600.413	1307.63
600.609	1395.69
600.806	1635.3
601.002	1575.91
601.198	1516.52
601.395	1680.36
601.591	1547.24
601.787	1702.89
601.984	1676.26
602.18	1825.76
602.376	1940.45
602.572	1944.55
602.769	2145.25
602.965	2106.34
603.161	2233.31
603.357	2298.84
603.553	2425.82
603.75	2376.67
603.946	2337.76
604.142	2491.35
604.338	2780.12
604.534	2747.35
604.73	2929.62
604.926	2872.28
605.122	3183.57
605.318	3158.99
605.514	3341.26
605.71	3107.79
605.906	3363.79
606.102	3482.57
606.298	3746.76
606.494	3713.99
606.69	3892.16
606.886	3951.56
607.082	3943.36
607.278	4113.35
607.474	4320.19
607.67	4436.92
607.866	4502.46
608.062	4688.82
608.257	4686.78
608.453	4727.74
608.649	5006.26
608.845	5145.52
609.041	5182.38
609.236	5432.24
609.432	5729.19
609.628	5780.39
609.824	5888.93
610.019	5938.09
610.215	6257.57
610.411	6503.32
610.606	6638.49
610.802	6689.69
610.998	6857.62
611.193	7136.15
611.389	7187.35
611.584	7476.11
611.78	7631.76
611.976	7883.66
612.171	8010.63
612.367	8237.95
612.562	8450.94
612.758	8573.82
612.953	8672.12
613.149	9071.48
613.344	9167.73
613.539	9542.51
613.735	9597.81
613.93	10163.04
614.126	10201.96
614.321	10554.21
614.517	10965.85
614.712	11244.37
614.907	11430.74
615.103	11631.44
615.298	11701.07
615.493	12303.17
615.688	12548.93
615.884	13060.92
616.079	12901.18
616.274	13753.13
616.47	13701.93
616.665	13984.55
616.86	14596.9
617.055	15133.47
617.25	15336.21
617.445	15887.12
617.641	15909.65
617.836	16499.46
618.031	16403.21
618.226	17330.94
618.421	17748.72
618.616	18283.24
618.811	18170.6
619.006	18852.58
619.201	19276.51
619.396	19694.29
619.591	19798.74
619.786	20658.88
619.981	20611.78
620.176	21519.03
620.371	21725.88
620.566	22313.64
620.761	22678.18
620.956	23128.74
621.151	23378.59
621.346	24033.94
621.541	24078.99
621.735	25074.31
621.93	25361.02
622.125	25840.25
622.32	26208.88
622.515	26757.74
622.709	27368.03
622.904	27925.08
623.099	28160.59
623.294	28838.47
623.488	28959.3
623.683	29798.97
623.878	29940.28
624.072	30792.23
624.267	31306.27
624.462	31484.45
624.656	31760.92
624.851	32549.39
625.046	33198.6
625.24	33575.42
625.435	33866.24
625.629	34390.52
625.824	34945.51
626.018	35314.15
626.213	35078.63
626.407	36284.89
626.602	36020.7
626.796	36811.21
626.991	37046.73
627.185	37663.17
627.38	37378.5
627.574	37671.36
627.768	37724.61
627.963	38023.61
628.157	37591.49
628.352	38703.54
628.546	38269.37
628.74	38396.34
628.935	38502.84
629.129	38435.25
629.323	38117.82
629.517	38164.92
629.712	37829.05
629.906	37581.25
630.1	37575.11
630.294	37097.93
630.489	36221.4
630.683	36479.44
630.877	35254.76
631.071	34994.67
631.265	34685.42
631.459	33726.97
631.653	33137.16
631.848	32635.41
632.042	31564.32
632.236	31255.08
632.43	30183.99
632.624	29639.23
632.818	28353.1
633.012	28013.14
633.206	26874.47
633.4	25627.26
633.594	24961.67
633.788	24619.66
633.982	23724.69
634.176	22839.97
634.369	21805.75
634.563	21279.42
634.757	19901.14
634.951	19888.85
635.145	19049.18
635.339	18193.13
635.533	17400.57
635.726	16730.88
635.92	16079.63
636.114	15227.67
636.308	14709.54
636.501	14238.5
636.695	13749.04
636.889	12880.7
637.083	12522.3
637.276	11987.79
637.47	11277.14
637.664	10947.42
637.857	10730.33
638.051	10318.69
638.244	9788.27
638.438	9575.28
638.632	9339.76
638.825	8713.08
639.019	8235.91
639.212	7973.77
639.406	7613.32
639.599	7457.68
639.793	7082.9
639.986	6714.27
640.18	6661.02
640.373	6241.18
640.567	5936.04
640.76	5776.3
640.954	5587.88
641.147	5368.75
641.34	5292.98
641.534	5020.6
641.727	4813.75
641.92	4690.87
642.114	4488.12
642.307	4283.33
642.5	4303.81
642.694	3931.08
642.887	3908.55
643.08	3883.97
643.273	3566.54
643.467	3353.55
643.66	3199.95
643.853	3187.66
644.046	3154.9
644.239	3013.59
644.432	2761.69
644.626	2515.93
644.819	2487.26
645.012	2421.72
645.205	2532.31
645.398	2380.76
645.591	2132.96
645.784	2044.9
645.977	1954.79
646.17	2034.66
646.363	1928.16
646.556	1856.48
646.749	1696.74
646.942	1723.37
647.135	1661.93
647.328	1596.39
647.521	1489.9
647.714	1477.61
647.907	1528.81
648.099	1305.58
648.292	1428.46
648.485	1252.33
648.678	1172.46
648.871	1207.28
649.064	1137.65
649.256	988.14
649.449	1004.53
649.642	910.32
649.835	945.14
650.027	898.03
650.22	1025.01
650.413	908.27
650.605	879.6
650.798	830.45
650.991	842.74
651.183	783.35
651.376	730.1
651.568	775.16
651.761	646.13
651.954	664.57
652.146	574.46
652.339	703.48
652.531	672.76
652.724	666.61
652.916	498.68
653.109	541.69
653.301	594.93
653.494	584.7
653.686	535.54
653.879	592.89
654.071	646.13
654.263	455.67
654.456	422.91
654.648	517.11
654.84	467.96
655.033	408.57
655.225	525.3
655.417	283.64
655.61	529.4
655.802	484.34
655.994	461.82
656.186	326.65
656.379	420.86
656.571	297.98
656.763	353.27
656.955	306.17
657.148	265.21
657.34	457.72
657.532	232.44
657.724	271.36
657.916	355.32
658.108	431.1
658.3	336.89
658.492	246.78
658.684	265.21
658.876	383.99
659.068	216.06
659.26	142.33
659.452	193.53
659.644	259.07
659.836	416.76
660.028	295.93
660.22	189.44
660.412	250.88
660.604	214.01
660.796	273.4
660.988	379.9
661.18	244.73
661.372	267.26
661.563	179.2
661.755	289.79
661.947	46.08
662.139	220.16
662.331	246.78
662.522	183.29
662.714	252.92
662.906	199.68
663.097	205.82
663.289	52.22
663.481	107.52
663.673	287.74
663.864	197.63
664.056	277.5
664.247	123.9
664.439	214.01
664.631	240.64
664.822	259.07
665.014	234.49
665.205	171.01
665.397	128
665.588	211.96
665.78	197.63
665.971	220.16
666.163	195.58
666.354	207.87
666.546	70.65
666.737	187.39
666.929	134.14
667.12	134.14
667.311	211.96
667.503	166.91
667.694	173.05
667.885	168.96
668.077	193.53
668.268	154.62
668.459	185.34
668.651	138.24
668.842	136.19
669.033	123.9
669.224	91.13
669.416	211.96
669.607	134.14
669.798	119.81
669.989	289.79
670.18	111.61
670.371	130.05
670.563	97.28
670.754	248.83
670.945	230.4
671.136	171.01
671.327	136.19
671.518	248.83
671.709	300.03
671.9	193.53
672.091	166.91
672.282	111.61
672.473	138.24
672.664	119.81
672.855	152.57
673.046	193.53
673.237	263.16
673.428	128
673.619	228.35
673.809	148.48
674	244.73
674.191	183.29
674.382	199.68
674.573	146.43
674.764	148.48
674.954	226.3
675.145	56.32
675.336	168.96
675.527	-29.7
675.717	95.23
675.908	107.52
676.099	156.67
676.289	185.34
676.48	64.51
676.671	179.2
676.861	91.13
677.052	168.96
677.243	132.09
677.433	115.71
677.624	209.92
677.814	95.23
678.005	187.39
678.195	318.46
678.386	136.19
678.576	134.14
678.767	115.71
678.957	166.91
679.148	226.3
679.338	259.07
679.529	205.82
679.719	107.52
679.909	242.68
680.1	283.64
680.29	214.01
680.481	99.33
680.671	216.06
680.861	144.38
681.052	148.48
681.242	78.85
681.432	199.68
681.622	203.77
681.813	109.57
682.003	117.76
682.193	134.14
682.383	191.49
682.573	113.66
682.764	177.15
682.954	197.63
683.144	193.53
683.334	214.01
683.524	279.55
683.714	234.49
683.904	232.44
684.094	76.8
684.284	144.38
684.474	220.16
684.664	318.46
684.854	193.53
685.044	222.2
685.234	297.98
685.424	189.44
685.614	91.13
685.804	281.6
685.994	197.63
686.184	293.88
686.374	228.35
686.564	297.98
686.753	187.39
686.943	160.77
687.133	252.92
687.323	142.33
687.513	283.64
687.702	214.01
687.892	216.06
688.082	279.55
688.272	343.03
688.461	177.15
688.651	283.64
688.841	289.79
689.03	195.58
689.22	222.2
689.41	238.59
689.599	261.12
689.789	150.53
689.979	336.89
690.168	209.92
690.358	248.83
690.547	152.57
690.737	236.54
690.926	226.3
691.116	197.63
691.305	250.88
691.495	250.88
691.684	183.29
691.874	134.14
692.063	107.52
692.252	203.77
692.442	289.79
692.631	142.33
692.82	214.01
693.01	228.35
693.199	123.9
693.388	226.3
693.578	236.54
693.767	234.49
693.956	230.4
694.146	128
694.335	269.31
694.524	181.25
694.713	293.88
694.902	254.97
695.092	195.58
695.281	168.96
695.47	123.9
695.659	152.57
695.848	148.48
696.037	162.81
696.226	265.21
696.415	240.64
696.604	353.27
696.793	269.31
696.982	166.91
697.171	234.49
697.36	205.82
697.549	230.4
697.738	82.94
697.927	168.96
698.116	207.87
698.305	224.25
698.494	220.16
698.683	185.34
698.872	324.6
699.061	117.76
699.25	187.39
699.438	232.44
699.627	154.62
699.816	338.94
700.005	109.57
700.193	140.29
700.382	236.54
700.571	214.01
700.76	320.51
700.948	302.08
701.137	205.82
701.326	267.26
701.514	87.04
701.703	203.77
701.892	123.9
702.08	281.6
702.269	121.85
702.457	107.52
702.646	173.05
702.834	134.14
703.023	175.1
703.212	267.26
703.4	156.67
703.589	220.16
703.777	216.06
703.965	105.47
704.154	199.68
704.342	91.13
704.531	142.33
704.719	193.53
704.907	273.4
705.096	87.04
705.284	189.44
705.472	214.01
705.661	228.35
705.849	214.01
706.037	304.12
706.226	179.2
706.414	166.91
706.602	144.38
706.79	250.88
706.979	173.05
707.167	136.19
707.355	93.18
707.543	171.01
707.731	148.48
707.919	115.71
708.107	189.44
708.296	107.52
708.484	128
708.672	160.77
708.86	242.68
709.048	191.49
709.236	150.53
709.424	199.68
709.612	132.09
709.8	125.95
709.988	175.1
710.176	252.92
710.364	324.6
710.551	201.72
710.739	228.35
710.927	121.85
711.115	224.25
711.303	248.83
711.491	168.96
711.679	80.89
711.866	293.88
712.054	146.43
712.242	271.36
712.43	203.77
712.617	166.91
712.805	234.49
712.993	199.68
713.181	76.8
713.368	285.69
713.556	193.53
713.744	269.31
713.931	422.91
714.119	277.5
714.306	216.06
714.494	91.13
714.682	181.25
714.869	179.2
715.057	60.42
715.244	109.57
715.432	240.64
715.619	119.81
715.807	148.48
715.994	207.87
716.182	148.48
716.369	275.45
716.556	205.82
716.744	62.46
716.931	142.33
717.119	205.82
717.306	142.33
717.493	209.92
717.681	183.29
717.868	185.34
718.055	254.97
718.242	209.92
718.43	218.11
718.617	273.4
718.804	197.63
718.991	308.22
719.179	181.25
719.366	242.68
719.553	218.11
719.74	218.11
719.927	173.05
720.114	197.63
720.301	148.48
720.488	181.25
720.676	197.63
720.863	234.49
721.05	402.43
721.237	261.12
721.424	246.78
721.611	132.09
721.798	181.25
721.985	193.53
722.172	183.29
722.358	105.47
722.545	269.31
722.732	228.35
722.919	373.75
723.106	283.64
723.293	230.4
723.48	189.44
723.667	193.53
723.853	295.93
724.04	181.25
724.227	324.6
724.414	130.05
724.6	248.83
724.787	328.7
724.974	345.08
725.161	216.06
725.347	123.9
725.534	146.43
725.72	218.11
725.907	287.74
726.094	191.49
726.28	234.49
726.467	246.78
726.653	166.91
726.84	293.88
727.027	293.88
727.213	236.54
727.4	240.64
727.586	246.78
727.773	205.82
727.959	259.07
728.145	222.2
728.332	183.29
728.518	179.2
728.705	179.2
728.891	336.89
729.077	261.12
729.264	150.53
729.45	242.68
729.636	297.98
729.823	291.84
730.009	293.88
730.195	297.98
730.382	293.88
730.568	216.06
730.754	300.03
730.94	179.2
731.126	242.68
731.313	269.31
731.499	232.44
731.685	353.27
731.871	181.25
732.057	287.74
732.243	334.84
732.429	269.31
732.615	359.42
732.801	257.02
732.987	232.44
733.173	259.07
733.359	275.45
733.545	275.45
733.731	105.47
733.917	279.55
734.103	226.3
734.289	226.3
734.475	220.16
734.661	371.71
734.847	257.02
735.033	222.2
735.219	234.49
735.404	248.83
735.59	203.77
735.776	242.68
735.962	252.92
736.148	248.83
736.333	355.32
736.519	334.84
736.705	259.07
736.89	191.49
737.076	259.07
737.262	154.62
737.447	224.25
737.633	218.11
737.819	283.64
738.004	152.57
738.19	257.02
738.375	230.4
738.561	336.89
738.747	168.96
738.932	216.06
739.118	394.23
739.303	318.46
739.489	404.47
739.674	244.73
739.859	201.72
740.045	338.94
740.23	191.49
740.416	68.61
740.601	261.12
740.786	240.64
740.972	252.92
741.157	222.2
741.342	162.81
741.528	214.01
741.713	330.75
741.898	148.48
742.084	242.68
742.269	328.7
742.454	269.31
742.639	308.22
742.824	269.31
743.01	457.72
743.195	375.8
743.38	226.3
743.565	254.97
743.75	228.35
743.935	306.17
744.12	314.36
744.305	252.92
744.49	201.72
744.675	156.67
744.86	222.2
745.045	269.31
745.23	242.68
745.415	209.92
745.6	347.13
745.785	209.92
745.97	289.79
746.155	336.89
746.34	304.12
746.525	261.12
746.71	367.61
746.895	162.81
747.079	111.61
747.264	201.72
747.449	254.97
747.634	295.93
747.819	293.88
748.003	216.06
748.188	164.86
748.373	267.26
748.557	265.21
748.742	218.11
748.927	220.16
749.111	201.72
749.296	193.53
749.481	211.96
749.665	177.15
749.85	154.62
750.034	314.36
750.219	259.07
750.404	203.77
750.588	195.58
750.773	195.58
750.957	154.62
751.141	189.44
751.326	189.44
751.51	80.89
751.695	201.72
751.879	195.58
752.064	261.12
752.248	175.1
752.432	363.51
752.617	259.07
752.801	179.2
752.985	148.48
753.17	222.2
753.354	201.72
753.538	173.05
753.722	136.19
753.907	185.34
754.091	54.27
754.275	279.55
754.459	48.13
754.643	138.24
754.828	193.53
755.012	236.54
755.196	89.09
755.38	197.63
755.564	95.23
755.748	76.8
755.932	211.96
756.116	250.88
756.3	238.59
756.484	111.61
756.668	240.64
756.852	19.46
757.036	107.52
757.22	128
757.404	70.65
757.588	107.52
757.772	250.88
757.956	158.72
758.14	332.79
758.323	117.76
758.507	189.44
758.691	148.48
758.875	209.92
759.059	248.83
759.242	119.81
759.426	148.48
759.61	193.53
759.794	62.46
759.977	189.44
760.161	379.9
760.345	197.63
760.528	228.35
760.712	238.59
760.895	156.67
761.079	117.76
761.263	60.42
761.446	105.47
761.63	130.05
761.813	193.53
761.997	44.03
762.18	154.62
762.364	134.14
762.547	-13.31
762.731	148.48
762.914	103.42
763.098	156.67
763.281	156.67
763.464	140.29
763.648	115.71
763.831	111.61
764.015	99.33
764.198	78.85
764.381	72.7
764.564	76.8
764.748	109.57
764.931	144.38
765.114	125.95
765.297	209.92
765.481	-17.41
765.664	44.03
765.847	33.79
766.03	156.67
766.213	113.66
766.397	125.95
766.58	37.89
766.763	195.58
766.946	-19.46
767.129	5.12
767.312	19.46
767.495	144.38
767.678	-15.36
767.861	115.71
768.044	119.81
768.227	99.33
768.41	121.85
768.593	64.51
768.776	222.2
768.959	25.6
769.142	144.38
769.324	78.85
769.507	175.1
769.69	39.94
769.873	17.41
770.056	275.45
770.239	119.81
770.421	244.73
770.604	154.62
770.787	19.46
770.97	87.04
771.152	62.46
771.335	125.95
771.518	109.57
771.7	105.47
771.883	99.33
772.066	58.37
772.248	257.02
772.431	171.01
772.613	142.33
772.796	87.04
772.978	134.14
773.161	191.49
773.343	89.09
773.526	35.84
773.708	-21.5
773.891	-13.31
774.073	62.46
774.256	-39.94
774.438	191.49
774.621	48.13
774.803	125.95
774.985	23.55
775.168	64.51
775.35	35.84
775.532	119.81
775.715	62.46
775.897	72.7
776.079	70.65
776.261	44.03
776.444	107.52
776.626	91.13
776.808	97.28
776.99	25.6
777.173	128
777.355	115.71
777.537	76.8
777.719	78.85
777.901	80.89
778.083	3.07
778.265	9.22
778.447	66.56
778.629	87.04
778.811	70.65
778.993	84.99
779.175	173.05
779.357	56.32
779.539	-27.65
779.721	-3.07
779.903	158.72
780.085	74.75
780.267	162.81
780.449	117.76
780.631	52.22
780.812	140.29
780.994	58.37
781.176	58.37
781.358	62.46
781.54	62.46
781.721	89.09
781.903	109.57
782.085	37.89
782.267	173.05
782.448	31.74
782.63	62.46
782.812	97.28
782.993	39.94
783.175	160.77
783.357	33.79
783.538	37.89
783.72	15.36
783.901	105.47
784.083	117.76
784.264	132.09
784.446	64.51
784.627	33.79
784.809	91.13
784.99	-1.02
785.172	87.04
785.353	41.98
785.535	60.42
785.716	13.31
785.897	9.22
786.079	31.74
786.26	68.61
786.441	138.24
786.623	-111.61
786.804	48.13
786.985	41.98
787.167	60.42
787.348	62.46
787.529	11.26
787.71	171.01
787.891	117.76
788.073	-46.08
788.254	-82.94
788.435	222.2
788.616	37.89
788.797	-41.98
788.978	13.31
789.159	9.22
789.34	89.09
789.522	80.89
789.703	-60.42
789.884	87.04
790.065	84.99
790.246	218.11
790.427	82.94
790.607	214.01
790.788	103.42
790.969	-37.89
791.15	109.57
791.331	9.22
791.512	29.7
791.693	-15.36
791.874	80.89
792.054	199.68
792.235	109.57
792.416	21.5
792.597	-3.07
792.778	64.51
792.958	109.57
793.139	113.66
793.32	39.94
793.5	-62.46
793.681	158.72
793.862	134.14
794.042	-72.7
794.223	-91.13
794.404	31.74
794.584	-128
794.765	95.23
794.945	70.65
795.126	27.65
795.306	156.67
795.487	1.02
795.667	117.76
795.848	13.31
796.028	31.74
796.209	15.36
796.389	91.13
796.57	33.79
796.75	-3.07
796.93	44.03
797.111	39.94
797.291	37.89
797.471	80.89
797.652	23.55
797.832	68.61
798.012	142.33
798.192	37.89
798.373	-27.65
798.553	48.13
798.733	111.61
798.913	41.98
799.093	50.18
799.274	21.5
799.454	48.13
799.634	68.61
799.814	119.81
799.994	62.46
800.174	35.84
800.354	70.65
800.534	-11.26
800.714	48.13
800.894	44.03
801.074	-29.7
801.254	31.74
801.434	58.37
801.614	-27.65
801.794	-99.33
801.974	1528.81
802.154	-17.41
802.334	107.52
802.514	7.17
802.693	-1.02
802.873	44.03
803.053	97.28
803.233	107.52
803.413	41.98
803.592	-78.85
803.772	7.17
803.952	70.65
804.131	-99.33
804.311	95.23
804.491	128
804.67	17.41
804.85	1.02
805.03	97.28
805.209	113.66
805.389	19.46
805.568	-50.18
805.748	27.65
805.928	21.5
806.107	68.61
806.287	87.04
806.466	39.94
806.646	-7.17
806.825	-23.55
807.004	-56.32
807.184	39.94
807.363	23.55
807.543	111.61
807.722	-31.74
807.901	185.34
808.081	33.79
808.26	-87.04
808.439	35.84
808.619	37.89
808.798	-68.61
808.977	31.74
809.156	74.75
809.336	-1.02
809.515	62.46
809.694	56.32
809.873	-11.26
810.052	27.65
810.231	44.03
810.411	37.89
810.59	76.8
810.769	11.26
810.948	33.79
811.127	41.98
811.306	-35.84
811.485	-23.55
811.664	179.2
811.843	25.6
812.022	-64.51
812.201	25.6
812.38	54.27
812.559	-1.02
812.737	91.13
812.916	-76.8
813.095	-103.42
813.274	84.99
813.453	44.03
813.632	56.32
813.811	117.76
813.989	-119.81
814.168	44.03
814.347	-3.07
814.526	-62.46
814.704	89.09
814.883	103.42
815.062	33.79
815.24	128
815.419	-48.13
815.598	117.76
815.776	-89.09
815.955	-33.79
816.133	-72.7
816.312	-44.03
816.49	7.17
816.669	13.31
816.847	-3.07
817.026	152.57
817.204	37.89
817.383	60.42
817.561	-3.07
817.74	91.13
817.918	91.13
818.097	-5.12
818.275	-25.6
818.453	107.52
818.632	142.33
818.81	-7.17
818.988	-9.22
819.167	62.46
819.345	13.31
819.523	-27.65
819.701	95.23
819.879	121.85
820.058	50.18
820.236	93.18
820.414	54.27
820.592	7.17
820.77	-11.26
820.948	-7.17
821.127	-54.27
821.305	70.65
821.483	-50.18
821.661	134.14
821.839	-21.5
822.017	25.6
822.195	62.46
822.373	48.13
822.551	13.31
822.729	52.22
822.907	-52.22
823.085	111.61
823.262	62.46
823.44	31.74
823.618	44.03
823.796	50.18
823.974	46.08
824.152	-9.22
824.329	-31.74
824.507	11.26
824.685	37.89
824.863	-37.89
825.04	54.27
825.218	50.18
825.396	23.55
825.574	23.55
825.751	54.27
825.929	48.13
826.107	-23.55
826.284	25.6
826.462	117.76
826.639	-44.03
826.817	-56.32
826.994	27.65
827.172	-48.13
827.349	111.61
827.527	27.65
827.704	21.5
827.882	41.98
828.059	21.5
828.237	-25.6
828.414	99.33
828.591	-93.18
828.769	41.98
828.946	-31.74
829.124	60.42
829.301	166.91
829.478	33.79
829.655	64.51
829.833	80.89
830.01	-107.52
830.187	41.98
830.364	-5.12
830.542	103.42
830.719	134.14
830.896	48.13
831.073	121.85
831.25	46.08
831.427	1.02
831.604	46.08
831.782	17.41
831.959	101.37
832.136	27.65
832.313	130.05
832.49	-27.65
832.667	115.71
832.844	-54.27
833.021	146.43
833.198	19.46
833.374	-5.12
833.551	-7.17
833.728	3.07
833.905	158.72
834.082	-117.76
834.259	76.8
834.436	168.96
834.612	-76.8
834.789	70.65
834.966	29.7
835.143	68.61
835.319	-50.18
835.496	113.66
835.673	72.7
835.85	56.32
836.026	13.31
836.203	113.66
836.38	7.17
836.556	66.56
836.733	27.65
836.909	87.04
837.086	-48.13
837.262	-58.37
837.439	52.22
837.616	21.5
837.792	35.84
837.968	13.31
838.145	-115.71
838.321	-46.08
838.498	54.27
838.674	89.09
838.851	115.71
839.027	-80.89
839.203	103.42
839.38	25.6
839.556	9.22
839.732	68.61
839.909	44.03
840.085	13.31
840.261	-27.65
840.437	46.08
840.614	-1.02
840.79	109.57
840.966	97.28
841.142	31.74
841.318	-13.31
841.494	56.32
841.671	99.33
841.847	-115.71
842.023	-78.85
842.199	52.22
842.375	136.19
842.551	-97.28
842.727	-54.27
842.903	111.61
843.079	-52.22
843.255	87.04
843.431	11.26
843.607	76.8
843.783	-142.33
843.959	103.42
844.134	-35.84
844.31	179.2
844.486	-5.12
844.662	1.02
844.838	-31.74
845.013	13.31
845.189	46.08
845.365	3.07
845.541	21.5
845.716	91.13
845.892	140.29
846.068	-35.84
846.244	-15.36
846.419	-9.22
846.595	-60.42
846.77	-72.7
846.946	99.33
847.122	46.08
847.297	-29.7
847.473	95.23
847.648	-64.51
847.824	130.05
847.999	-140.29
848.175	-11.26
848.35	29.7
848.526	62.46
848.701	109.57
848.876	134.14
849.052	132.09
849.227	50.18
849.403	56.32
849.578	-19.46
849.753	74.75
849.929	23.55
850.104	-33.79
850.279	-56.32
850.454	11.26
850.63	74.75
850.805	-9.22
850.98	-9.22
851.155	41.98
851.33	25.6
851.505	-97.28
851.681	46.08
851.856	-87.04
852.031	60.42
852.206	95.23
852.381	-17.41
852.556	-56.32
852.731	46.08
852.906	123.9
853.081	-5.12
853.256	91.13
853.431	68.61
853.606	-72.7
853.781	-5.12
853.956	-23.55
854.131	68.61
854.305	-19.46
854.48	-25.6
854.655	-23.55
854.83	15.36
855.005	64.51
855.18	37.89
855.354	-37.89
855.529	80.89
855.704	33.79
855.879	15.36
856.053	-41.98
856.228	37.89
856.403	-37.89
856.577	11.26
856.752	-78.85
856.926	19.46
857.101	44.03
857.276	-64.51
857.45	35.84
857.625	64.51
857.799	-9.22
857.974	-25.6
858.148	-68.61
858.323	37.89
858.497	-29.7
858.672	-23.55
858.846	-35.84
859.02	103.42
859.195	-31.74
859.369	7.17
859.543	37.89
859.718	-3.07
859.892	58.37
860.066	-19.46
860.241	3.07
860.415	-33.79
860.589	13.31
860.763	68.61
860.938	44.03
861.112	78.85
861.286	25.6
861.46	111.61
861.634	-23.55
861.808	-11.26
861.982	-9.22
862.157	-60.42
862.331	-15.36
862.505	-33.79
862.679	7.17
862.853	-1.02
863.027	-64.51
863.201	191.49
863.375	-35.84
863.549	62.46
863.722	46.08
863.896	97.28
864.07	-35.84
864.244	9.22
864.418	39.94
864.592	7.17
864.766	35.84
864.939	-3.07
865.113	-74.75
865.287	109.57
865.461	-101.37
865.634	62.46
865.808	46.08
865.982	-35.84
866.156	-58.37
866.329	-11.26
866.503	111.61
866.676	111.61
866.85	25.6
867.024	7.17
867.197	107.52
867.371	109.57
867.544	-9.22
867.718	-54.27
867.891	91.13
868.065	-11.26
868.238	72.7
868.412	60.42
868.585	-9.22
868.759	-52.22
868.932	-13.31
869.105	-201.72
869.279	66.56
869.452	37.89
869.625	87.04
869.799	-15.36
869.972	-134.14
870.145	25.6
870.319	31.74
870.492	19.46
870.665	-5.12
870.838	-31.74
871.011	-195.58
871.185	-27.65
871.358	-9.22
871.531	52.22
871.704	-21.5
871.877	25.6
872.05	-62.46
872.223	-19.46
872.396	91.13
872.569	-7.17
872.742	-56.32
872.915	56.32
873.088	21.5
873.261	1.02
873.434	52.22
873.607	50.18
873.78	146.43
873.953	-107.52
874.126	50.18
874.299	19.46
874.471	17.41
874.644	-15.36
874.817	41.98
874.99	222.2
875.163	-25.6
875.335	111.61
875.508	-15.36
875.681	103.42
875.853	-7.17
876.026	15.36
876.199	33.79
876.371	-7.17
876.544	-56.32
876.717	31.74
876.889	17.41
877.062	1.02
877.234	-54.27
877.407	46.08
877.579	41.98
877.752	39.94
877.924	154.62
878.097	5.12
878.269	82.94
878.442	37.89
878.614	13.31
878.786	-7.17
878.959	-7.17
879.131	62.46
879.303	-89.09
879.476	84.99
879.648	70.65
879.82	103.42
879.993	-39.94
880.165	-29.7
880.337	13.31
880.509	66.56
880.681	-74.75
880.854	-44.03
881.026	68.61
881.198	189.44
881.37	-3.07
881.542	-62.46
881.714	-27.65
881.886	44.03
882.058	29.7
882.23	-46.08
882.402	-21.5
882.574	25.6
882.746	103.42
882.918	203.77
883.09	156.67
883.262	5.12
883.434	9.22
883.606	-89.09
883.778	58.37
883.95	257.02
884.122	-44.03
884.293	134.14
884.465	58.37
884.637	80.89
884.809	50.18
884.98	13.31
885.152	58.37
885.324	72.7
885.496	-113.66
885.667	-35.84
885.839	5.12
886.011	82.94
886.182	93.18
886.354	56.32
886.525	31.74
886.697	84.99
886.869	-39.94
887.04	-23.55
887.212	173.05
887.383	134.14
887.555	13.31
887.726	-7.17
887.897	-3.07
888.069	64.51
888.24	50.18
888.412	11.26
888.583	31.74
888.754	-13.31
888.926	-66.56
889.097	-44.03
889.268	-68.61
889.44	-7.17
889.611	-52.22
889.782	-48.13
889.953	-23.55
890.125	125.95
890.296	9.22
890.467	-39.94
890.638	-35.84
890.809	23.55
890.98	1.02
891.151	111.61
891.323	82.94
891.494	7.17
891.665	19.46
891.836	-80.89
892.007	-41.98
892.178	50.18
892.349	60.42
892.52	-13.31
892.691	54.27
892.862	-56.32
893.032	-44.03
893.203	-39.94
893.374	-29.7
893.545	64.51
893.716	-17.41
893.887	72.7
894.057	1.02
894.228	35.84
894.399	-109.57
894.57	97.28
894.74	-17.41
894.911	33.79
895.082	-23.55
895.253	-105.47
895.423	-37.89
895.594	70.65
895.764	-1.02
895.935	-41.98
896.106	78.85
896.276	-48.13
896.447	11.26
896.617	-39.94
896.788	-91.13
896.958	-52.22
897.129	-66.56
897.299	-15.36
897.47	181.25
897.64	7.17
897.81	-37.89
897.981	-9.22
898.151	-39.94
898.322	62.46
898.492	-29.7
898.662	-60.42
898.832	52.22
899.003	11.26
899.173	-35.84
899.343	-7.17
899.513	15.36
