Data from USB4F104151__221__11-06-07-127.txt Node

Date: Wed Feb 26 11:06:07 EST 2025
User: louis
Spectrometer: USB4F10415
Trigger mode: 4
Integration Time (sec): 1.000000E-1
Scans to average: 1
Electric dark correction enabled: true
Nonlinearity correction enabled: false
Boxcar width: 0
XAxis mode: Wavelengths
Number of Pixels in Spectrum: 3648
>>>>>Begin Spectral Data<<<<<
178.204	-438.44
178.424	-438.44
178.644	-438.44
178.864	-383.14
179.084	-407.72
179.304	-22.7
179.524	-100.52
179.744	85.84
179.964	26.45
180.184	36.69
180.404	42.84
180.624	1.88
180.844	-41.13
181.064	-14.51
181.283	-26.79
181.503	-14.51
181.723	26.45
181.943	-151.72
182.163	145.24
182.383	-4.27
182.602	-8.36
182.822	163.67
183.042	75.6
183.262	-20.65
183.482	-55.47
183.701	77.65
183.921	24.4
184.141	-47.27
184.361	51.03
184.58	44.88
184.8	81.75
185.02	-2.22
185.239	77.65
185.459	53.08
185.679	108.37
185.898	-67.75
186.118	-0.17
186.338	157.52
186.557	102.23
186.777	-82.09
186.997	10.07
187.216	1.88
187.436	180.05
187.655	53.08
187.875	16.21
188.095	63.32
188.314	87.89
188.534	77.65
188.753	-45.23
188.973	46.93
189.192	61.27
189.412	24.4
189.631	61.27
189.851	102.23
190.07	169.81
190.29	-141.48
190.509	24.4
190.729	12.12
190.948	135
191.168	274.26
191.387	32.6
191.607	8.02
191.826	106.32
192.045	10.07
192.265	14.17
192.484	53.08
192.704	55.12
192.923	-65.71
193.142	229.2
193.362	112.47
193.581	159.57
193.8	61.27
194.02	135
194.239	16.21
194.458	91.99
194.678	12.12
194.897	22.36
195.116	87.89
195.335	69.46
195.555	132.95
195.774	-2.22
195.993	124.76
196.212	57.17
196.432	-49.32
196.651	-59.56
196.87	16.21
197.089	169.81
197.308	38.74
197.528	14.17
197.747	-108.71
197.966	46.93
198.185	104.28
198.404	79.7
198.623	175.95
198.842	151.38
199.062	98.13
199.281	55.12
199.5	38.74
199.719	53.08
199.938	71.51
200.157	85.84
200.376	110.42
200.595	126.8
200.814	98.13
201.033	8.02
201.252	198.48
201.471	106.32
201.69	65.36
201.909	18.26
202.128	116.56
202.347	116.56
202.566	5.97
202.785	-59.56
203.004	-4.27
203.223	223.06
203.442	-2.22
203.661	-28.84
203.879	1.88
204.098	122.71
204.317	-84.14
204.536	132.95
204.755	61.27
204.974	153.43
205.193	24.4
205.411	163.67
205.63	159.57
205.849	87.89
206.068	28.5
206.287	10.07
206.505	147.28
206.724	91.99
206.943	-16.55
207.162	-34.99
207.381	79.7
207.599	-8.36
207.818	5.97
208.037	-59.56
208.255	34.64
208.474	14.17
208.693	67.41
208.911	-37.03
209.13	98.13
209.349	130.9
209.567	55.12
209.786	100.18
210.005	32.6
210.223	28.5
210.442	-123.05
210.661	102.23
210.879	53.08
211.098	-28.84
211.316	14.17
211.535	59.22
211.753	40.79
211.972	91.99
212.191	-18.6
212.409	26.45
212.628	100.18
212.846	-28.84
213.065	79.7
213.283	44.88
213.502	18.26
213.72	100.18
213.938	-26.79
214.157	-14.51
214.375	104.28
214.594	89.94
214.812	81.75
215.031	-43.18
215.249	44.88
215.467	147.28
215.686	53.08
215.904	83.8
216.122	30.55
216.341	229.2
216.559	-45.23
216.778	118.61
216.996	167.76
217.214	28.5
217.432	-45.23
217.651	-8.36
217.869	16.21
218.087	34.64
218.306	-16.55
218.524	61.27
218.742	89.94
218.96	67.41
219.179	-59.56
219.397	-32.94
219.615	257.87
219.833	161.62
220.051	-55.47
220.27	102.23
220.488	151.38
220.706	34.64
220.924	-84.14
221.142	67.41
221.36	40.79
221.578	42.84
221.796	-28.84
222.015	153.43
222.233	110.42
222.451	135
222.669	-4.27
222.887	87.89
223.105	-47.27
223.323	-4.27
223.541	30.55
223.759	102.23
223.977	55.12
224.195	89.94
224.413	26.45
224.631	32.6
224.849	63.32
225.067	243.54
225.285	16.21
225.503	34.64
225.721	-114.86
225.939	1.88
226.157	87.89
226.375	200.53
226.592	5.97
226.81	32.6
227.028	63.32
227.246	53.08
227.464	1.88
227.682	32.6
227.9	73.56
228.117	91.99
228.335	104.28
228.553	81.75
228.771	-28.84
228.989	36.69
229.206	77.65
229.424	42.84
229.642	53.08
229.86	-26.79
230.077	184.15
230.295	59.22
230.513	46.93
230.731	96.08
230.948	118.61
231.166	192.34
231.384	-37.03
231.601	-92.33
231.819	186.19
232.037	-59.56
232.254	-61.61
232.472	20.31
232.689	22.36
232.907	141.14
233.125	-16.55
233.342	-57.51
233.56	-45.23
233.777	102.23
233.995	1.88
234.213	141.14
234.43	206.67
234.648	-26.79
234.865	26.45
235.083	67.41
235.3	55.12
235.518	28.5
235.735	190.29
235.953	71.51
236.17	65.36
236.388	-22.7
236.605	46.93
236.822	96.08
237.04	151.38
237.257	24.4
237.475	-67.75
237.692	-47.27
237.909	71.51
238.127	5.97
238.344	79.7
238.562	44.88
238.779	-80.04
238.996	-73.9
239.214	106.32
239.431	36.69
239.648	24.4
239.865	100.18
240.083	59.22
240.3	-80.04
240.517	-4.27
240.735	81.75
240.952	98.13
241.169	85.84
241.386	73.56
241.603	-16.55
241.821	-106.67
242.038	71.51
242.255	77.65
242.472	-61.61
242.689	104.28
242.907	63.32
243.124	102.23
243.341	120.66
243.558	14.17
243.775	-88.23
243.992	-55.47
244.209	135
244.426	210.77
244.643	-37.03
244.86	106.32
245.078	44.88
245.295	40.79
245.512	5.97
245.729	42.84
245.946	69.46
246.163	-22.7
246.38	89.94
246.597	75.6
246.814	85.84
247.031	53.08
247.248	48.98
247.464	12.12
247.681	77.65
247.898	108.37
248.115	104.28
248.332	-2.22
248.549	163.67
248.766	104.28
248.983	63.32
249.2	135
249.417	32.6
249.633	5.97
249.85	65.36
250.067	61.27
250.284	98.13
250.501	14.17
250.717	106.32
250.934	-67.75
251.151	-14.51
251.368	59.22
251.585	63.32
251.801	55.12
252.018	-2.22
252.235	153.43
252.451	-20.65
252.668	-45.23
252.885	139.09
253.102	87.89
253.318	-63.66
253.535	8.02
253.752	-4.27
253.968	20.31
254.185	-92.33
254.401	63.32
254.618	83.8
254.835	-34.99
255.051	157.52
255.268	110.42
255.484	44.88
255.701	30.55
255.917	30.55
256.134	-37.03
256.351	44.88
256.567	-65.71
256.784	75.6
257	-106.67
257.217	91.99
257.433	98.13
257.65	57.17
257.866	14.17
258.082	-57.51
258.299	14.17
258.515	46.93
258.732	-2.22
258.948	-59.56
259.165	28.5
259.381	-32.94
259.597	28.5
259.814	57.17
260.03	5.97
260.246	-8.36
260.463	104.28
260.679	85.84
260.895	-6.31
261.112	77.65
261.328	30.55
261.544	8.02
261.761	112.47
261.977	-18.6
262.193	-116.9
262.409	61.27
262.626	14.17
262.842	36.69
263.058	22.36
263.274	73.56
263.49	59.22
263.707	96.08
263.923	108.37
264.139	-67.75
264.355	51.03
264.571	122.71
264.787	42.84
265.004	153.43
265.22	-75.95
265.436	46.93
265.652	16.21
265.868	51.03
266.084	-18.6
266.3	22.36
266.516	-18.6
266.732	69.46
266.948	-0.17
267.164	24.4
267.38	75.6
267.596	57.17
267.812	184.15
268.028	65.36
268.244	-45.23
268.46	20.31
268.676	-22.7
268.892	28.5
269.108	14.17
269.324	-53.42
269.54	-34.99
269.756	57.17
269.972	34.64
270.188	69.46
270.403	-8.36
270.619	-28.84
270.835	147.28
271.051	114.52
271.267	-32.94
271.483	-51.37
271.698	16.21
271.914	83.8
272.13	38.74
272.346	1.88
272.562	-6.31
272.777	182.1
272.993	46.93
273.209	12.12
273.425	-14.51
273.64	-24.75
273.856	65.36
274.072	-28.84
274.287	1.88
274.503	89.94
274.719	83.8
274.934	-32.94
275.15	-100.52
275.366	-4.27
275.581	55.12
275.797	30.55
276.012	110.42
276.228	-14.51
276.444	87.89
276.659	173.91
276.875	10.07
277.09	55.12
277.306	-22.7
277.521	42.84
277.737	3.93
277.952	81.75
278.168	85.84
278.383	5.97
278.599	73.56
278.814	89.94
279.03	-39.08
279.245	61.27
279.461	51.03
279.676	112.47
279.892	-114.86
280.107	-26.79
280.322	32.6
280.538	42.84
280.753	42.84
280.969	57.17
281.184	59.22
281.399	122.71
281.615	32.6
281.83	102.23
282.045	-55.47
282.26	14.17
282.476	-2.22
282.691	71.51
282.906	87.89
283.122	44.88
283.337	106.32
283.552	98.13
283.767	-34.99
283.983	124.76
284.198	8.02
284.413	83.8
284.628	-59.56
284.843	38.74
285.058	5.97
285.274	22.36
285.489	-75.95
285.704	61.27
285.919	30.55
286.134	12.12
286.349	73.56
286.564	16.21
286.779	110.42
286.995	20.31
287.21	-84.14
287.425	75.6
287.64	-67.75
287.855	69.46
288.07	-98.47
288.285	65.36
288.5	139.09
288.715	61.27
288.93	-16.55
289.145	1.88
289.36	124.76
289.575	-4.27
289.79	116.56
290.004	-24.75
290.219	118.61
290.434	-28.84
290.649	-26.79
290.864	46.93
291.079	-0.17
291.294	178
291.509	53.08
291.724	51.03
291.938	5.97
292.153	65.36
292.368	-18.6
292.583	96.08
292.798	112.47
293.012	18.26
293.227	53.08
293.442	36.69
293.657	83.8
293.871	135
294.086	22.36
294.301	135
294.516	79.7
294.73	87.89
294.945	-39.08
295.16	30.55
295.374	167.76
295.589	139.09
295.804	8.02
296.018	16.21
296.233	73.56
296.447	53.08
296.662	40.79
296.877	81.75
297.091	51.03
297.306	10.07
297.52	-24.75
297.735	79.7
297.949	67.41
298.164	44.88
298.378	-16.55
298.593	1.88
298.807	-53.42
299.022	36.69
299.236	190.29
299.451	5.97
299.665	-84.14
299.88	38.74
300.094	98.13
300.309	-37.03
300.523	30.55
300.737	3.93
300.952	108.37
301.166	-6.31
301.381	-30.89
301.595	61.27
301.809	-14.51
302.024	-39.08
302.238	10.07
302.452	89.94
302.667	46.93
302.881	214.87
303.095	30.55
303.309	48.98
303.524	10.07
303.738	32.6
303.952	-22.7
304.166	40.79
304.381	-125.1
304.595	106.32
304.809	-16.55
305.023	67.41
305.237	-59.56
305.452	87.89
305.666	63.32
305.88	75.6
306.094	91.99
306.308	91.99
306.522	143.19
306.736	87.89
306.95	51.03
307.164	28.5
307.379	40.79
307.593	100.18
307.807	51.03
308.021	149.33
308.235	81.75
308.449	-80.04
308.663	-4.27
308.877	159.57
309.091	46.93
309.305	3.93
309.519	-67.75
309.733	100.18
309.947	-61.61
310.161	65.36
310.374	-6.31
310.588	161.62
310.802	28.5
311.016	-61.61
311.23	53.08
311.444	-28.84
311.658	51.03
311.872	104.28
312.085	155.47
312.299	157.52
312.513	184.15
312.727	46.93
312.941	-73.9
313.154	53.08
313.368	36.69
313.582	-47.27
313.796	65.36
314.009	20.31
314.223	130.9
314.437	18.26
314.651	81.75
314.864	-53.42
315.078	-26.79
315.292	-133.29
315.505	-2.22
315.719	79.7
315.933	128.85
316.146	120.66
316.36	-30.89
316.573	126.8
316.787	98.13
317.001	36.69
317.214	-51.37
317.428	38.74
317.641	14.17
317.855	38.74
318.068	26.45
318.282	18.26
318.495	165.71
318.709	79.7
318.922	28.5
319.136	98.13
319.349	83.8
319.563	5.97
319.776	71.51
319.99	-16.55
320.203	81.75
320.417	3.93
320.63	128.85
320.843	141.14
321.057	12.12
321.27	-26.79
321.483	67.41
321.697	69.46
321.91	1.88
322.124	16.21
322.337	112.47
322.55	16.21
322.763	73.56
322.977	34.64
323.19	26.45
323.403	91.99
323.617	30.55
323.83	102.23
324.043	53.08
324.256	77.65
324.469	-12.46
324.683	108.37
324.896	-96.43
325.109	53.08
325.322	-69.8
325.535	124.76
325.748	53.08
325.962	-26.79
326.175	118.61
326.388	87.89
326.601	161.62
326.814	5.97
327.027	20.31
327.24	28.5
327.453	-90.28
327.666	53.08
327.879	190.29
328.092	-18.6
328.305	14.17
328.518	-41.13
328.731	51.03
328.944	-30.89
329.157	94.04
329.37	-22.7
329.583	141.14
329.796	139.09
330.009	3.93
330.222	51.03
330.435	102.23
330.648	116.56
330.861	108.37
331.073	120.66
331.286	132.95
331.499	61.27
331.712	30.55
331.925	36.69
332.138	12.12
332.35	42.84
332.563	-8.36
332.776	57.17
332.989	-28.84
333.202	8.02
333.414	-2.22
333.627	36.69
333.84	53.08
334.053	32.6
334.265	-67.75
334.478	-4.27
334.691	79.7
334.903	79.7
335.116	-67.75
335.329	-37.03
335.541	145.24
335.754	139.09
335.966	73.56
336.179	20.31
336.392	96.08
336.604	24.4
336.817	73.56
337.029	126.8
337.242	3.93
337.454	104.28
337.667	87.89
337.88	175.95
338.092	1.88
338.305	40.79
338.517	-14.51
338.729	71.51
338.942	122.71
339.154	-39.08
339.367	20.31
339.579	75.6
339.792	-53.42
340.004	75.6
340.217	30.55
340.429	20.31
340.641	-61.61
340.854	20.31
341.066	-6.31
341.278	108.37
341.491	116.56
341.703	114.52
341.915	-16.55
342.128	102.23
342.34	87.89
342.552	-16.55
342.764	38.74
342.977	85.84
343.189	108.37
343.401	-14.51
343.613	-53.42
343.826	-20.65
344.038	-100.52
344.25	98.13
344.462	-2.22
344.674	22.36
344.886	24.4
345.099	57.17
345.311	98.13
345.523	-26.79
345.735	-6.31
345.947	-14.51
346.159	59.22
346.371	-18.6
346.583	28.5
346.795	190.29
347.007	-26.79
347.219	-20.65
347.431	1.88
347.643	175.95
347.855	-43.18
348.067	130.9
348.279	-100.52
348.491	77.65
348.703	141.14
348.915	-69.8
349.127	14.17
349.339	67.41
349.551	24.4
349.763	-30.89
349.975	36.69
350.187	67.41
350.399	55.12
350.61	110.42
350.822	-6.31
351.034	55.12
351.246	59.22
351.458	34.64
351.669	36.69
351.881	98.13
352.093	122.71
352.305	100.18
352.517	10.07
352.728	26.45
352.94	10.07
353.152	77.65
353.363	-100.52
353.575	124.76
353.787	173.91
353.999	63.32
354.21	190.29
354.422	-41.13
354.633	18.26
354.845	71.51
355.057	24.4
355.268	108.37
355.48	69.46
355.692	-20.65
355.903	28.5
356.115	-0.17
356.326	-12.46
356.538	137.04
356.749	85.84
356.961	71.51
357.172	67.41
357.384	-77.99
357.595	216.91
357.807	-59.56
358.018	44.88
358.23	-53.42
358.441	98.13
358.653	128.85
358.864	57.17
359.075	-51.37
359.287	51.03
359.498	28.5
359.709	-16.55
359.921	36.69
360.132	16.21
360.344	3.93
360.555	34.64
360.766	77.65
360.977	55.12
361.189	73.56
361.4	42.84
361.611	110.42
361.823	153.43
362.034	91.99
362.245	-90.28
362.456	-45.23
362.667	61.27
362.879	-6.31
363.09	-0.17
363.301	122.71
363.512	20.31
363.723	-8.36
363.935	18.26
364.146	100.18
364.357	26.45
364.568	51.03
364.779	-6.31
364.99	153.43
365.201	-96.43
365.412	28.5
365.623	-49.32
365.834	163.67
366.045	63.32
366.256	51.03
366.467	184.15
366.678	67.41
366.889	48.98
367.1	40.79
367.311	53.08
367.522	-18.6
367.733	28.5
367.944	36.69
368.155	-32.94
368.366	57.17
368.577	151.38
368.788	104.28
368.999	-26.79
369.209	20.31
369.42	249.68
369.631	237.39
369.842	143.19
370.053	46.93
370.264	83.8
370.474	-32.94
370.685	22.36
370.896	-49.32
371.107	137.04
371.317	44.88
371.528	46.93
371.739	112.47
371.95	42.84
372.16	53.08
372.371	20.31
372.582	48.98
372.792	116.56
373.003	46.93
373.214	79.7
373.424	75.6
373.635	3.93
373.846	128.85
374.056	53.08
374.267	124.76
374.477	65.36
374.688	3.93
374.898	112.47
375.109	73.56
375.319	67.41
375.53	-2.22
375.74	65.36
375.951	5.97
376.161	12.12
376.372	118.61
376.582	28.5
376.793	100.18
377.003	-32.94
377.214	5.97
377.424	77.65
377.635	106.32
377.845	-12.46
378.055	102.23
378.266	-12.46
378.476	102.23
378.686	-16.55
378.897	65.36
379.107	100.18
379.317	65.36
379.528	-16.55
379.738	206.67
379.948	-51.37
380.158	44.88
380.369	32.6
380.579	75.6
380.789	34.64
380.999	71.51
381.21	-8.36
381.42	202.58
381.63	75.6
381.84	159.57
382.05	69.46
382.261	110.42
382.471	141.14
382.681	-37.03
382.891	155.47
383.101	8.02
383.311	16.21
383.521	-12.46
383.731	79.7
383.941	143.19
384.151	108.37
384.361	-41.13
384.571	102.23
384.781	85.84
384.991	204.63
385.201	194.39
385.411	141.14
385.621	61.27
385.831	53.08
386.041	51.03
386.251	1.88
386.461	91.99
386.671	77.65
386.881	10.07
387.091	77.65
387.301	75.6
387.511	51.03
387.72	61.27
387.93	42.84
388.14	-41.13
388.35	42.84
388.56	69.46
388.769	169.81
388.979	30.55
389.189	5.97
389.399	44.88
389.609	53.08
389.818	44.88
390.028	32.6
390.238	48.98
390.447	3.93
390.657	65.36
390.867	12.12
391.076	-34.99
391.286	91.99
391.496	-20.65
391.705	42.84
391.915	186.19
392.125	44.88
392.334	-16.55
392.544	91.99
392.753	34.64
392.963	-57.51
393.172	73.56
393.382	28.5
393.591	110.42
393.801	32.6
394.01	73.56
394.22	53.08
394.429	14.17
394.639	75.6
394.848	48.98
395.058	57.17
395.267	40.79
395.477	83.8
395.686	102.23
395.895	184.15
396.105	200.53
396.314	-8.36
396.524	73.56
396.733	104.28
396.942	87.89
397.152	46.93
397.361	141.14
397.57	100.18
397.78	63.32
397.989	85.84
398.198	137.04
398.407	1.88
398.617	5.97
398.826	-2.22
399.035	40.79
399.244	104.28
399.453	40.79
399.663	-8.36
399.872	75.6
400.081	-100.52
400.29	135
400.499	-10.41
400.708	51.03
400.917	-2.22
401.127	8.02
401.336	32.6
401.545	171.86
401.754	161.62
401.963	38.74
402.172	-14.51
402.381	-32.94
402.59	26.45
402.799	8.02
403.008	132.95
403.217	28.5
403.426	110.42
403.635	-53.42
403.844	51.03
404.053	16.21
404.262	65.36
404.471	182.1
404.68	135
404.888	26.45
405.097	-49.32
405.306	36.69
405.515	65.36
405.724	-37.03
405.933	108.37
406.142	71.51
406.35	120.66
406.559	75.6
406.768	51.03
406.977	212.82
407.185	38.74
407.394	61.27
407.603	-6.31
407.812	79.7
408.02	206.67
408.229	24.4
408.438	83.8
408.646	5.97
408.855	38.74
409.064	89.94
409.272	51.03
409.481	63.32
409.69	-30.89
409.898	71.51
410.107	48.98
410.315	124.76
410.524	8.02
410.733	67.41
410.941	1.88
411.15	71.51
411.358	114.52
411.567	112.47
411.775	36.69
411.984	81.75
412.192	126.8
412.401	30.55
412.609	159.57
412.818	135
413.026	116.56
413.234	79.7
413.443	61.27
413.651	42.84
413.86	79.7
414.068	114.52
414.276	114.52
414.485	38.74
414.693	135
414.901	214.87
415.11	145.24
415.318	55.12
415.526	79.7
415.734	81.75
415.943	36.69
416.151	159.57
416.359	5.97
416.567	184.15
416.776	94.04
416.984	71.51
417.192	182.1
417.4	3.93
417.608	-26.79
417.817	87.89
418.025	182.1
418.233	108.37
418.441	-8.36
418.649	-49.32
418.857	108.37
419.065	122.71
419.273	-8.36
419.481	63.32
419.689	44.88
419.897	5.97
420.105	-45.23
420.313	104.28
420.521	175.95
420.729	141.14
420.937	-4.27
421.145	-0.17
421.353	106.32
421.561	182.1
421.769	65.36
421.977	16.21
422.185	102.23
422.393	26.45
422.601	157.52
422.809	118.61
423.017	-55.47
423.224	116.56
423.432	161.62
423.64	42.84
423.848	106.32
424.056	46.93
424.263	147.28
424.471	-8.36
424.679	126.8
424.887	-10.41
425.094	218.96
425.302	122.71
425.51	-14.51
425.718	143.19
425.925	59.22
426.133	18.26
426.341	173.91
426.548	12.12
426.756	-24.75
426.964	96.08
427.171	-28.84
427.379	104.28
427.586	71.51
427.794	77.65
428.001	135
428.209	91.99
428.417	180.05
428.624	75.6
428.832	130.9
429.039	112.47
429.247	106.32
429.454	100.18
429.662	245.59
429.869	235.35
430.076	151.38
430.284	108.37
430.491	145.24
430.699	149.33
430.906	159.57
431.114	143.19
431.321	153.43
431.528	147.28
431.736	85.84
431.943	182.1
432.15	141.14
432.358	163.67
432.565	327.5
432.772	75.6
432.979	274.26
433.187	157.52
433.394	309.07
433.601	128.85
433.808	186.19
434.016	216.91
434.223	175.95
434.43	216.91
434.637	325.46
434.844	259.92
435.052	237.39
435.259	329.55
435.466	309.07
435.673	264.02
435.88	270.16
436.087	401.23
436.294	251.73
436.501	382.8
436.708	206.67
436.915	319.31
437.122	313.17
437.329	223.06
437.537	341.84
437.743	409.42
437.95	511.82
438.157	366.42
438.364	362.32
438.571	257.87
438.778	481.1
438.985	458.57
439.192	587.6
439.399	384.85
439.606	462.67
439.813	456.53
440.02	546.64
440.227	632.65
440.433	552.78
440.64	560.97
440.847	464.72
441.054	614.22
441.261	675.66
441.467	628.56
441.674	597.84
441.881	659.28
442.088	587.6
442.294	780.11
442.501	782.15
442.708	773.96
442.914	798.54
443.121	905.03
443.328	907.08
443.534	1001.29
443.741	851.78
443.948	778.06
444.154	1005.38
444.361	1142.6
444.568	1081.16
444.774	1048.39
444.981	1017.67
445.187	1271.62
445.394	1222.47
445.6	1179.46
445.807	1271.62
446.013	1154.88
446.22	1240.9
446.426	1343.3
446.633	1556.29
446.839	1609.53
447.046	1494.85
447.252	1648.44
447.459	1554.24
447.665	1609.53
447.871	1814.33
448.078	1941.3
448.284	1990.45
448.491	1996.6
448.697	2096.95
448.903	2080.57
449.11	2197.3
449.316	2158.39
449.522	2393.9
449.728	2398
449.935	2615.09
450.141	2572.08
450.347	2709.29
450.553	2725.68
450.76	2692.91
450.966	2897.71
451.172	2950.95
451.378	3137.32
451.584	3352.35
451.791	3512.1
451.997	3528.48
452.203	3528.48
452.409	3876.63
452.615	3807
452.821	3845.91
453.027	3917.59
453.233	4525.84
453.44	4284.18
453.646	4548.37
453.852	4644.62
454.058	4964.11
454.264	4908.81
454.47	5410.56
454.676	5308.16
454.882	5873.4
455.088	5531.39
455.294	5910.27
455.5	6217.46
455.705	6592.24
455.911	6416.12
456.117	6780.65
456.323	6987.5
456.529	7069.42
456.735	7741.15
456.941	7960.28
457.147	8275.67
457.352	8505.04
457.558	8648.4
457.764	9133.77
457.97	9326.28
458.176	9948.86
458.381	10225.34
458.587	10372.79
458.793	11011.76
458.999	10905.26
459.204	12295.83
459.41	12570.26
459.616	12527.25
459.821	13321.87
460.027	14081.66
460.233	14429.82
460.438	14630.52
460.644	15287.92
460.85	15586.92
461.055	16164.45
461.261	17225.29
461.466	16649.82
461.672	16852.56
461.878	18966.07
462.083	18769.46
462.289	19140.15
462.494	19580.46
462.7	20041.25
462.905	20342.3
463.111	22001.16
463.316	23160.31
463.522	23520.75
463.727	24075.75
463.932	25365.97
464.138	25882.06
464.343	27137.46
464.549	27207.09
464.754	29083.03
464.959	29812.11
465.165	30432.64
465.37	30096.78
465.575	30080.39
465.781	32333.16
465.986	33289.56
466.191	32341.35
466.397	33228.12
466.602	32253.29
466.807	34360.65
467.012	34536.77
467.218	35325.24
467.423	35210.56
467.628	36341.03
467.833	37977.36
468.038	37391.64
468.244	36777.25
468.449	38880.52
468.654	37915.92
468.859	38016.27
469.064	37879.06
469.269	37195.04
469.474	37784.85
469.679	38481.16
469.885	37051.68
470.09	38165.77
470.295	38173.97
470.5	37027.1
470.705	37184.8
470.91	36912.42
471.115	35734.84
471.32	36465.96
471.525	36527.4
471.73	35441.98
471.935	35226.94
472.139	33871.18
472.344	33680.72
472.549	33666.39
472.754	33099.1
472.959	32146.79
473.164	31223.16
473.369	30639.49
473.574	31536.5
473.778	31126.91
473.983	30891.39
474.188	29996.43
474.393	28642.72
474.598	28859.8
474.802	27592.11
475.007	27489.71
475.212	27434.42
475.417	26066.38
475.621	26033.61
475.826	25511.38
476.031	24964.57
476.235	24782.3
476.44	24663.52
476.645	24018.41
476.849	23733.74
477.054	23137.78
477.259	22498.81
477.463	22654.46
477.668	21865.99
477.872	22111.75
478.077	21442.06
478.282	20825.62
478.486	20819.48
478.691	20215.33
478.895	20301.34
479.1	20205.09
479.304	20020.77
479.509	19269.17
479.713	19494.44
479.918	18912.82
480.122	18751.03
480.326	18789.94
480.531	18896.44
480.735	18757.18
480.94	18126.4
481.144	18714.17
481.348	17974.85
481.553	18062.91
481.757	17503.82
481.961	17886.79
482.166	17542.73
482.37	17477.19
482.574	17126.99
482.778	16889.43
482.983	17329.74
483.187	17045.07
483.391	16842.32
483.595	16850.52
483.8	16643.67
484.004	16615
484.208	16473.69
484.412	16139.87
484.616	16180.83
484.821	15701.61
485.025	15490.66
485.229	15373.93
485.433	15044.21
485.637	14970.48
485.841	14972.53
486.045	14728.82
486.249	14472.82
486.453	14433.91
486.657	14061.18
486.861	13809.28
487.065	13338.25
487.269	13358.73
487.473	12861.07
487.677	12983.95
487.881	13029.01
488.085	12584.6
488.289	12514.97
488.493	12191.39
488.697	12088.99
488.901	11919.01
489.105	11437.73
489.309	11390.63
489.512	11390.63
489.716	11171.5
489.92	10737.33
490.124	10657.46
490.328	10481.33
490.531	10223.29
490.735	10188.47
490.939	9969.34
491.143	9600.71
491.346	9578.18
491.55	9479.88
491.754	9289.42
491.958	9111.24
492.161	9078.47
492.365	8748.75
492.569	8668.88
492.772	8832.72
492.976	8640.21
493.18	8353.49
493.383	8333.01
493.587	8134.36
493.79	8201.94
493.994	7825.12
494.197	7872.22
494.401	7839.45
494.605	7726.82
494.808	7575.27
495.012	7732.96
495.215	7612.13
495.419	7538.4
495.622	7313.13
495.825	7290.6
496.029	7382.76
496.232	7401.19
496.436	7292.65
496.639	7366.37
496.843	7198.44
497.046	7182.06
497.249	7458.53
497.453	7145.19
497.656	7235.3
497.859	7296.74
498.063	7233.25
498.266	7577.31
498.469	7329.51
498.673	7220.97
498.876	7323.37
499.079	7462.63
499.282	7317.22
499.485	7767.77
499.689	7380.71
499.892	7646.94
500.095	7370.47
500.298	7780.06
500.501	7616.23
500.705	7810.78
500.908	8034.01
501.111	7833.31
501.314	7952.09
501.517	8169.18
501.72	8066.78
501.923	8036.06
502.126	8113.88
502.329	8421.08
502.532	8543.95
502.735	8396.5
502.938	8840.91
503.141	8584.91
503.344	8830.67
503.547	8926.93
503.75	8824.53
503.953	9227.98
504.156	9588.42
504.359	9508.55
504.562	9473.73
504.765	9643.71
504.968	9780.93
505.17	10077.88
505.373	10254.01
505.576	10393.27
505.779	10645.17
505.982	10376.89
506.185	10899.12
506.387	10974.89
506.59	11153.07
506.793	11327.14
506.996	11376.3
507.198	11972.25
507.401	11982.49
507.604	12156.57
507.807	12619.41
508.009	12766.87
508.212	13090.45
508.415	13153.93
508.617	13672.07
508.82	13700.74
509.022	13647.49
509.225	14460.54
509.428	14706.29
509.63	15009.39
509.833	14974.58
510.035	15769.19
510.238	15732.33
510.44	16176.73
510.643	16404.06
510.845	16899.67
511.048	17192.53
511.25	17595.98
511.453	17653.32
511.655	18460.22
511.858	18974.26
512.06	19158.58
512.262	19627.56
512.465	19992.1
512.667	20389.41
512.87	20938.26
513.072	21448.21
513.274	21890.57
513.477	22316.54
513.679	23019
513.881	23318
514.084	24184.29
514.286	24432.1
514.488	24937.94
514.69	25873.87
514.893	25994.7
515.095	26695.1
515.297	27299.25
515.499	27835.82
515.701	28421.54
515.904	28683.68
516.106	29625.75
516.308	30256.52
516.51	30893.44
516.712	30926.21
516.914	32071.02
517.116	32695.65
517.318	33174.88
517.52	33746.26
517.722	34196.81
517.925	34932.03
518.127	35525.94
518.329	36261.16
518.531	36580.65
518.733	37444.89
518.935	37489.95
519.136	38288.65
519.338	39089.41
519.54	39632.12
519.742	40498.41
519.944	40860.9
520.146	42091.73
520.348	42007.76
520.55	42372.3
520.752	42818.76
520.954	44094.64
521.155	43721.91
521.357	45020.33
521.559	45171.88
521.761	45659.29
521.963	45808.79
522.164	46568.59
522.366	46967.94
522.568	47529.09
522.77	47756.41
522.971	48442.48
523.173	48086.14
523.375	48618.61
523.576	48665.71
523.778	48651.37
523.98	49353.83
524.181	49939.55
524.383	49589.34
524.584	50170.97
524.786	50105.43
524.988	50048.09
525.189	50359.38
525.391	50945.1
525.592	50598.99
525.794	50498.64
525.995	50435.16
526.197	50299.99
526.398	50414.68
526.6	50003.03
526.801	50234.45
527.003	49712.22
527.204	49908.83
527.406	50048.09
527.607	49955.93
527.808	49501.28
528.01	48618.61
528.211	48667.76
528.412	49132.65
528.614	48315.51
528.815	48675.95
529.016	48821.36
529.218	47406.21
529.419	47076.49
529.62	46476.43
529.822	46154.9
530.023	46199.96
530.224	45569.18
530.425	45124.77
530.626	44188.85
530.828	43801.78
531.029	44065.97
531.23	43130.05
531.431	42818.76
531.632	42245.33
531.833	41913.56
532.035	41620.7
532.236	40985.83
532.437	40801.51
532.638	39646.46
532.839	39615.74
533.04	39453.95
533.241	38407.44
533.442	38901
533.643	37952.79
533.844	37098.78
534.045	36642.09
534.246	35953.97
534.447	36099.37
534.648	34940.22
534.849	34950.46
535.05	33983.82
535.251	33844.56
535.451	33469.78
535.652	33060.19
535.853	32617.83
536.054	32259.43
536.255	31726.96
536.456	31223.16
536.657	31237.5
536.857	30606.72
537.058	29982.09
537.259	29889.93
537.46	29341.08
537.66	28575.14
537.861	28439.97
538.062	28151.21
538.263	27798.96
538.463	27243.96
538.664	27006.39
538.865	26570.18
539.065	26852.8
539.266	25812.43
539.466	25832.91
539.667	25404.88
539.868	25167.32
540.068	24757.72
540.269	24729.05
540.469	24526.3
540.67	24016.36
540.87	23879.14
541.071	23510.51
541.271	23404.02
541.472	22867.45
541.672	22324.74
541.873	22392.32
542.073	21982.73
542.274	22152.71
542.474	21605.9
542.675	21616.14
542.875	21532.17
543.075	20835.86
543.276	20614.68
543.476	20551.2
543.676	20186.66
543.877	20231.71
544.077	19863.08
544.277	19697.19
544.478	19373.61
544.678	19461.68
544.878	18888.25
545.078	18748.98
545.279	18607.67
545.479	18314.81
545.679	18138.69
545.879	17671.75
546.079	17763.91
546.28	17430.09
546.48	17299.02
546.68	17319.5
546.88	16862.8
547.08	16619.1
547.28	16787.03
547.48	16127.58
547.68	16336.48
547.88	16019.04
548.081	15890.02
548.281	15390.31
548.481	15400.55
548.681	15294.06
548.881	15064.69
549.081	14759.54
549.28	14448.25
549.48	14491.26
549.68	14290.56
549.88	14196.35
550.08	13719.17
550.28	13788.8
550.48	13575.81
550.68	13493.9
550.88	12879.5
551.08	12916.37
551.279	12904.08
551.479	12492.44
551.679	12506.77
551.879	12023.45
552.079	12064.41
552.278	11722.4
552.478	11687.59
552.678	11587.24
552.878	11540.13
553.077	11179.69
553.277	10761.91
553.477	10915.5
553.676	10776.24
553.876	10327.74
554.076	10254.01
554.275	10118.84
554.475	9969.34
554.674	9914.05
554.874	9529.03
555.074	9393.86
555.273	9330.37
555.473	9305.8
555.672	8963.79
555.872	9070.28
556.071	8791.76
556.271	8842.96
556.47	8623.83
556.67	8175.32
556.869	8341.21
557.068	8160.98
557.268	7892.7
557.467	7892.7
557.667	7757.53
557.866	7653.09
558.065	7534.31
558.265	7433.96
558.464	7112.42
558.663	7169.77
558.863	6960.88
559.062	7079.66
559.261	6704.88
559.461	6848.24
559.66	6577.9
559.859	6250.23
560.058	6397.68
560.258	6016.76
560.457	6293.24
560.656	6168.31
560.855	5834.49
561.054	5914.36
561.253	5930.75
561.453	5744.38
561.652	5684.99
561.851	5703.42
562.05	5338.88
562.249	5322.5
562.448	5299.97
562.647	5070.6
562.846	5201.67
563.045	4998.92
563.244	4955.91
563.443	5023.5
563.642	4859.66
563.841	4933.39
564.04	4624.14
564.239	4624.14
564.438	4364.05
564.637	4566.8
564.836	4402.96
565.035	4400.91
565.234	4294.42
565.432	4366.1
565.631	4181.78
565.83	4177.69
566.029	3979.03
566.228	4007.7
566.427	3999.51
566.625	3729.18
566.824	3966.74
567.023	3933.98
567.222	3751.71
567.42	3677.98
567.619	3540.77
567.818	3643.17
568.016	3815.2
568.215	3532.58
568.414	3387.17
568.612	3350.31
568.811	3307.3
569.01	3249.96
569.208	3172.13
569.407	3241.76
569.605	3104.55
569.804	3104.55
570.002	3225.38
570.201	2959.14
570.4	2989.86
570.598	2903.85
570.797	2795.31
570.995	2705.2
571.193	2803.5
571.392	2766.64
571.59	2586.41
571.789	2621.23
571.987	2725.68
572.186	2705.2
572.384	2402.1
572.582	2375.47
572.781	2557.74
572.979	2389.81
573.177	2404.14
573.376	2451.25
573.574	2332.47
573.772	2305.84
573.971	2287.41
574.169	2049.85
574.367	2314.03
574.565	2154.29
574.763	2142
574.962	2092.85
575.16	2074.42
575.358	1963.83
575.556	1904.44
575.754	1926.97
575.952	1965.88
576.151	2060.09
576.349	2070.33
576.547	1640.25
576.745	1875.77
576.943	1859.38
577.141	1726.27
577.339	1607.48
577.537	1724.22
577.735	1750.84
577.933	1713.98
578.131	1617.72
578.329	1697.6
578.527	1574.72
578.725	1556.29
578.923	1468.22
579.121	1572.67
579.319	1331.01
579.516	1505.09
579.714	1576.77
579.912	1408.83
580.11	1414.98
580.308	1343.3
580.506	1269.57
580.704	1210.18
580.901	1195.84
581.099	1312.58
581.297	1261.38
581.495	1281.86
581.692	1212.23
581.89	1417.02
582.088	1191.75
582.285	1230.66
582.483	1097.54
582.681	1150.79
582.878	1075.01
583.076	1158.98
583.274	1167.17
583.471	1247.04
583.669	1146.69
583.866	892.74
584.064	935.75
584.262	892.74
584.459	999.24
584.657	1021.77
584.854	1052.49
585.052	1032.01
585.249	966.47
585.447	954.18
585.644	778.06
585.841	968.52
586.039	995.14
586.236	933.7
586.434	890.7
586.631	847.69
586.828	823.11
587.026	878.41
587.223	761.67
587.42	788.3
587.618	790.35
587.815	800.59
588.012	649.04
588.21	712.52
588.407	810.82
588.604	800.59
588.801	704.33
588.999	769.87
589.196	827.21
589.393	622.41
589.59	741.19
589.787	696.14
589.984	872.26
590.182	720.71
590.379	614.22
590.576	593.74
590.773	743.24
590.97	681.8
591.167	669.52
591.364	704.33
591.561	681.8
591.758	788.3
591.955	692.04
592.152	712.52
592.349	714.57
592.546	657.23
592.743	603.98
592.94	653.13
593.137	683.85
593.334	720.71
593.531	749.39
593.727	692.04
593.924	720.71
594.121	659.28
594.318	712.52
594.515	685.9
594.712	847.69
594.908	712.52
595.105	644.94
595.302	735.05
595.499	716.62
595.696	945.99
595.892	614.22
596.089	862.02
596.286	689.99
596.482	831.3
596.679	802.63
596.876	745.29
597.072	909.13
597.269	880.46
597.466	880.46
597.662	905.03
597.859	851.78
598.055	980.81
598.252	1027.91
598.448	1042.25
598.645	1048.39
598.841	1095.49
599.038	1304.39
599.234	1271.62
599.431	1212.23
599.627	1271.62
599.824	1386.3
600.02	1335.1
600.217	1331.01
600.413	1439.55
600.609	1400.64
600.806	1730.36
601.002	1488.7
601.198	1666.88
601.395	1775.42
601.591	1873.72
601.787	1795.9
601.984	1888.06
602.18	2023.22
602.376	2029.37
602.572	2168.63
602.769	2281.27
602.965	2189.11
603.161	2565.93
603.357	2389.81
603.553	2522.93
603.75	2664.24
603.946	2578.22
604.142	2694.96
604.338	2971.43
604.534	2893.61
604.73	3092.26
604.926	3217.19
605.122	3399.46
605.318	3477.28
605.514	3536.67
605.71	3575.58
605.906	3768.09
606.102	3774.24
606.298	4046.62
606.494	4169.49
606.69	4206.36
606.886	4275.99
607.082	4335.38
607.278	4550.42
607.474	4792.08
607.67	4794.12
607.866	4800.27
608.062	5064.46
608.257	5199.62
608.453	5285.64
608.649	5523.2
608.845	5566.21
609.041	5637.89
609.236	5852.92
609.432	6307.57
609.628	6326
609.824	6586.1
610.019	6450.93
610.215	6713.07
610.411	6934.25
610.606	7235.3
610.802	7292.65
610.998	7419.62
611.193	7673.57
611.389	7872.22
611.584	8072.92
611.78	8382.17
611.976	8500.95
612.171	8926.93
612.367	9043.66
612.562	9131.72
612.758	9361.09
612.953	9649.86
613.149	9889.47
613.344	9866.94
613.539	10536.63
613.735	10585.78
613.93	11005.61
614.126	10970.8
614.321	11753.12
614.517	11794.08
614.712	12140.19
614.907	12228.25
615.103	12922.51
615.298	12924.56
615.493	13291.15
615.688	13719.17
615.884	14118.53
616.079	14376.57
616.274	14968.43
616.47	15179.37
616.665	15408.75
616.86	15887.97
617.055	16365.15
617.25	16617.05
617.445	17163.86
617.641	17145.42
617.836	18062.91
618.031	17972.8
618.226	18617.91
618.421	19029.55
618.616	19582.51
618.811	19631.66
619.006	20581.92
619.201	20710.94
619.396	21593.61
619.591	21278.22
619.786	22177.28
619.981	22404.61
620.176	23338.48
620.371	23651.82
620.566	24085.99
620.761	24772.06
620.956	25566.67
621.151	25249.24
621.346	26303.94
621.541	26183.11
621.735	27133.37
621.93	27178.42
622.125	27962.79
622.32	28280.23
622.515	29015.45
622.709	29322.65
622.904	29765.01
623.099	30471.56
623.294	30809.47
623.488	31374.71
623.683	32433.51
623.878	32515.43
624.072	33174.88
624.267	33676.63
624.462	34274.63
624.656	34467.14
624.851	35433.78
625.046	35427.64
625.24	36193.58
625.435	36279.6
625.629	37102.88
625.824	37346.59
626.018	38014.23
626.213	37940.5
626.407	38905.09
626.602	38921.48
626.796	39896.31
626.991	39828.73
627.185	40008.95
627.38	40125.68
627.574	40541.42
627.768	40869.09
627.963	40893.67
628.157	40758.5
628.352	41301.22
628.546	40412.4
628.74	41395.42
628.935	41069.79
629.129	40586.47
629.323	40414.44
629.517	40600.81
629.712	40070.39
629.906	40015.09
630.1	39320.83
630.294	39326.97
630.489	38526.22
630.683	38141.2
630.877	37565.72
631.071	36773.16
631.265	36408.62
631.459	35538.23
631.653	34577.73
631.848	34145.61
632.042	33334.62
632.236	32787.81
632.43	31649.14
632.624	30995.84
632.818	29701.52
633.012	28865.95
633.206	28011.95
633.4	27469.23
633.594	26146.25
633.788	25372.11
633.982	24526.3
634.176	23973.35
634.369	22742.52
634.563	21952.01
634.757	20831.77
634.951	20291.1
635.145	19689
635.339	18589.24
635.533	17864.26
635.726	17620.55
635.92	16420.44
636.114	15949.41
636.308	14964.34
636.501	14620.28
636.695	14120.57
636.889	13409.93
637.083	13055.63
637.276	12342.94
637.47	11746.98
637.664	11396.78
637.857	11009.71
638.051	10536.63
638.244	10264.25
638.438	9742.02
638.632	9357
638.825	8736.46
639.019	8519.38
639.212	8244.95
639.406	7911.13
639.599	7634.66
639.793	7460.58
639.986	6833.9
640.18	6897.39
640.373	6385.4
640.567	6113.02
640.76	5990.14
640.954	5687.04
641.147	5535.49
641.34	5310.21
641.534	5101.32
641.727	4957.96
641.92	4859.66
642.114	4556.56
642.307	4304.66
642.5	4269.84
642.694	3938.07
642.887	3856.15
643.08	3868.44
643.273	3704.6
643.467	3430.18
643.66	3252
643.853	3178.28
644.046	3188.52
644.239	2977.58
644.432	2934.57
644.626	2658.09
644.819	2656.04
645.012	2623.28
645.205	2602.8
645.398	2496.3
645.591	2277.17
645.784	2105.14
645.977	2117.43
646.17	1945.4
646.363	1896.25
646.556	1824.57
646.749	1736.51
646.942	1754.94
647.135	1679.16
647.328	1650.49
647.521	1535.81
647.714	1472.32
647.907	1443.65
648.099	1269.57
648.292	1318.72
648.485	1183.56
648.678	1150.79
648.871	1120.07
649.064	1081.16
649.256	1003.33
649.449	1029.96
649.642	960.33
649.835	1021.77
650.027	913.22
650.22	960.33
650.413	823.11
650.605	866.12
650.798	771.91
650.991	804.68
651.183	857.93
651.376	687.95
651.568	726.86
651.761	657.23
651.954	612.17
652.146	601.93
652.339	702.28
652.531	794.44
652.724	554.83
652.916	583.5
653.109	470.86
653.301	722.76
653.494	620.36
653.686	552.78
653.879	534.35
654.071	517.97
654.263	462.67
654.456	425.81
654.648	526.16
654.84	454.48
655.033	378.7
655.225	530.25
655.417	282.45
655.61	569.16
655.802	448.33
655.994	442.19
656.186	360.27
656.379	421.71
656.571	327.5
656.763	386.9
656.955	274.26
657.148	278.35
657.34	431.95
657.532	296.78
657.724	311.12
657.916	259.92
658.108	329.55
658.3	331.6
658.492	278.35
658.684	229.2
658.876	360.27
659.068	229.2
659.26	190.29
659.452	198.48
659.644	231.25
659.836	372.56
660.028	237.39
660.22	210.77
660.412	298.83
660.604	292.69
660.796	245.59
660.988	300.88
661.18	221.01
661.372	245.59
661.563	257.87
661.755	264.02
661.947	141.14
662.139	126.8
662.331	214.87
662.522	102.23
662.714	132.95
662.906	132.95
663.097	126.8
663.289	85.84
663.481	98.13
663.673	155.47
663.864	106.32
664.056	214.87
664.247	102.23
664.439	264.02
664.631	235.35
664.822	212.82
665.014	132.95
665.205	118.61
665.397	186.19
665.588	253.78
665.78	153.43
665.971	255.83
666.163	30.55
666.354	96.08
666.546	53.08
666.737	61.27
666.929	57.17
667.12	89.94
667.311	212.82
667.503	153.43
667.694	157.52
667.885	116.56
668.077	200.53
668.268	24.4
668.459	149.33
668.651	124.76
668.842	143.19
669.033	83.8
669.224	55.12
669.416	233.3
669.607	71.51
669.798	63.32
669.989	237.39
670.18	118.61
670.371	124.76
670.563	8.02
670.754	212.82
670.945	206.67
671.136	155.47
671.327	118.61
671.518	171.86
671.709	276.31
671.9	190.29
672.091	235.35
672.282	167.76
672.473	214.87
672.664	159.57
672.855	98.13
673.046	161.62
673.237	178
673.428	124.76
673.619	282.45
673.809	102.23
674	237.39
674.191	227.15
674.382	149.33
674.573	141.14
674.764	100.18
674.954	212.82
675.145	32.6
675.336	59.22
675.527	218.96
675.717	155.47
675.908	114.52
676.099	116.56
676.289	124.76
676.48	14.17
676.671	141.14
676.861	171.86
677.052	171.86
677.243	69.46
677.433	91.99
677.624	192.34
677.814	274.26
678.005	153.43
678.195	247.63
678.386	91.99
678.576	216.91
678.767	83.8
678.957	128.85
679.148	182.1
679.338	218.96
679.529	196.43
679.719	143.19
679.909	165.71
680.1	210.77
680.29	221.01
680.481	18.26
680.671	208.72
680.861	126.8
681.052	128.85
681.242	206.67
681.432	276.31
681.622	188.24
681.813	114.52
682.003	169.81
682.193	165.71
682.383	128.85
682.573	188.24
682.764	202.58
682.954	255.83
683.144	272.21
683.334	227.15
683.524	161.62
683.714	255.83
683.904	247.63
684.094	122.71
684.284	178
684.474	227.15
684.664	233.3
684.854	241.49
685.044	184.15
685.234	194.39
685.424	167.76
685.614	98.13
685.804	268.11
685.994	171.86
686.184	210.77
686.374	253.78
686.564	173.91
686.753	169.81
686.943	169.81
687.133	182.1
687.323	218.96
687.513	155.47
687.702	178
687.892	196.43
688.082	288.59
688.272	296.78
688.461	198.48
688.651	294.74
688.841	268.11
689.03	155.47
689.22	171.86
689.41	208.72
689.599	214.87
689.789	94.04
689.979	333.65
690.168	239.44
690.358	300.88
690.547	237.39
690.737	266.07
690.926	366.42
691.116	202.58
691.305	315.22
691.495	247.63
691.684	159.57
691.874	180.05
692.063	190.29
692.252	266.07
692.442	223.06
692.631	163.67
692.82	196.43
693.01	276.31
693.199	192.34
693.388	233.3
693.578	214.87
693.767	253.78
693.956	247.63
694.146	180.05
694.335	264.02
694.524	124.76
694.713	268.11
694.902	124.76
695.092	128.85
695.281	286.54
695.47	202.58
695.659	112.47
695.848	132.95
696.037	120.66
696.226	214.87
696.415	145.24
696.604	257.87
696.793	190.29
696.982	241.49
697.171	313.17
697.36	155.47
697.549	249.68
697.738	110.42
697.927	157.52
698.116	100.18
698.305	233.3
698.494	147.28
698.683	130.9
698.872	395.09
699.061	147.28
699.25	171.86
699.438	196.43
699.627	167.76
699.816	354.13
700.005	91.99
700.193	83.8
700.382	149.33
700.571	259.92
700.76	221.01
700.948	294.74
701.137	247.63
701.326	313.17
701.514	28.5
701.703	284.5
701.892	225.11
702.08	300.88
702.269	184.15
702.457	182.1
702.646	247.63
702.834	171.86
703.023	317.26
703.212	290.64
703.4	231.25
703.589	110.42
703.777	175.95
703.965	192.34
704.154	175.95
704.342	153.43
704.531	159.57
704.719	200.53
704.907	268.11
705.096	98.13
705.284	149.33
705.472	141.14
705.661	210.77
705.849	231.25
706.037	214.87
706.226	227.15
706.414	233.3
706.602	112.47
706.79	268.11
706.979	149.33
707.167	190.29
707.355	34.64
707.543	206.67
707.731	180.05
707.919	178
708.107	149.33
708.296	135
708.484	130.9
708.672	153.43
708.86	169.81
709.048	180.05
709.236	59.22
709.424	233.3
709.612	218.96
709.8	130.9
709.988	167.76
710.176	300.88
710.364	296.78
710.551	202.58
710.739	192.34
710.927	186.19
711.115	214.87
711.303	206.67
711.491	245.59
711.679	112.47
711.866	221.01
712.054	212.82
712.242	227.15
712.43	243.54
712.617	57.17
712.805	274.26
712.993	175.95
713.181	22.36
713.368	249.68
713.556	167.76
713.744	239.44
713.931	309.07
714.119	182.1
714.306	186.19
714.494	223.06
714.682	180.05
714.869	48.98
715.057	100.18
715.244	171.86
715.432	235.35
715.619	210.77
715.807	149.33
715.994	161.62
716.182	194.39
716.369	247.63
716.556	294.74
716.744	102.23
716.931	98.13
717.119	251.73
717.306	165.71
717.493	231.25
717.681	149.33
717.868	124.76
718.055	241.49
718.242	200.53
718.43	212.82
718.617	327.5
718.804	194.39
718.991	296.78
719.179	175.95
719.366	184.15
719.553	233.3
719.74	141.14
719.927	266.07
720.114	204.63
720.301	137.04
720.488	206.67
720.676	165.71
720.863	384.85
721.05	356.18
721.237	235.35
721.424	235.35
721.611	151.38
721.798	38.74
721.985	157.52
722.172	163.67
722.358	182.1
722.545	261.97
722.732	167.76
722.919	276.31
723.106	216.91
723.293	173.91
723.48	210.77
723.667	206.67
723.853	276.31
724.04	182.1
724.227	200.53
724.414	227.15
724.6	329.55
724.787	311.12
724.974	347.98
725.161	214.87
725.347	249.68
725.534	233.3
725.72	276.31
725.907	345.94
726.094	280.4
726.28	231.25
726.467	169.81
726.653	163.67
726.84	376.66
727.027	298.83
727.213	169.81
727.4	304.98
727.586	245.59
727.773	259.92
727.959	218.96
728.145	216.91
728.332	266.07
728.518	184.15
728.705	261.97
728.891	188.24
729.077	266.07
729.264	182.1
729.45	182.1
729.636	231.25
729.823	300.88
730.009	186.19
730.195	307.02
730.382	304.98
730.568	251.73
730.754	223.06
730.94	266.07
731.126	206.67
731.313	255.83
731.499	270.16
731.685	321.36
731.871	276.31
732.057	233.3
732.243	309.07
732.429	296.78
732.615	298.83
732.801	221.01
732.987	294.74
733.173	229.2
733.359	196.43
733.545	284.5
733.731	261.97
733.917	325.46
734.103	284.5
734.289	317.26
734.475	188.24
734.661	335.7
734.847	261.97
735.033	268.11
735.219	360.27
735.404	253.78
735.59	249.68
735.776	200.53
735.962	266.07
736.148	337.74
736.333	292.69
736.519	218.96
736.705	243.54
736.89	214.87
737.076	286.54
737.262	186.19
737.447	245.59
737.633	282.45
737.819	261.97
738.004	284.5
738.19	272.21
738.375	296.78
738.561	245.59
738.747	206.67
738.932	188.24
739.118	380.75
739.303	282.45
739.489	311.12
739.674	171.86
739.859	139.09
740.045	364.37
740.23	266.07
740.416	145.24
740.601	237.39
740.786	218.96
740.972	196.43
741.157	102.23
741.342	243.54
741.528	155.47
741.713	388.94
741.898	218.96
742.084	286.54
742.269	169.81
742.454	333.65
742.639	229.2
742.824	202.58
743.01	354.13
743.195	395.09
743.38	251.73
743.565	278.35
743.75	149.33
743.935	286.54
744.12	350.03
744.305	210.77
744.49	290.64
744.675	274.26
744.86	231.25
745.045	241.49
745.23	266.07
745.415	282.45
745.6	276.31
745.785	276.31
745.97	337.74
746.155	249.68
746.34	331.6
746.525	255.83
746.71	360.27
746.895	163.67
747.079	145.24
747.264	241.49
747.449	282.45
747.634	276.31
747.819	233.3
748.003	235.35
748.188	141.14
748.373	251.73
748.557	192.34
748.742	180.05
748.927	182.1
749.111	221.01
749.296	153.43
749.481	251.73
749.665	206.67
749.85	175.95
750.034	264.02
750.219	214.87
750.404	157.52
750.588	233.3
750.773	163.67
750.957	237.39
751.141	198.48
751.326	243.54
751.51	81.75
751.695	233.3
751.879	184.15
752.064	325.46
752.248	190.29
752.432	288.59
752.617	247.63
752.801	227.15
752.985	184.15
753.17	311.12
753.354	192.34
753.538	190.29
753.722	155.47
753.907	161.62
754.091	89.94
754.275	290.64
754.459	120.66
754.643	147.28
754.828	124.76
755.012	196.43
755.196	145.24
755.38	163.67
755.564	98.13
755.748	206.67
755.932	192.34
756.116	184.15
756.3	151.38
756.484	135
756.668	259.92
756.852	104.28
757.036	108.37
757.22	128.85
757.404	141.14
757.588	145.24
757.772	169.81
757.956	190.29
758.14	288.59
758.323	155.47
758.507	130.9
758.691	192.34
758.875	184.15
759.059	284.5
759.242	106.32
759.426	151.38
759.61	116.56
759.794	143.19
759.977	218.96
760.161	378.7
760.345	247.63
760.528	188.24
760.712	180.05
760.895	139.09
761.079	122.71
761.263	89.94
761.446	102.23
761.63	161.62
761.813	184.15
761.997	16.21
762.18	73.56
762.364	135
762.547	14.17
762.731	145.24
762.914	251.73
763.098	36.69
763.281	81.75
763.464	51.03
763.648	106.32
763.831	157.52
764.015	75.6
764.198	186.19
764.381	98.13
764.564	100.18
764.748	81.75
764.931	34.64
765.114	87.89
765.297	120.66
765.481	22.36
765.664	102.23
765.847	46.93
766.03	155.47
766.213	18.26
766.397	102.23
766.58	69.46
766.763	157.52
766.946	42.84
767.129	122.71
767.312	61.27
767.495	147.28
767.678	81.75
767.861	104.28
768.044	128.85
768.227	102.23
768.41	110.42
768.593	178
768.776	32.6
768.959	75.6
769.142	163.67
769.324	36.69
769.507	69.46
769.69	32.6
769.873	26.45
770.056	184.15
770.239	26.45
770.421	223.06
770.604	184.15
770.787	59.22
770.97	102.23
771.152	44.88
771.335	159.57
771.518	34.64
771.7	198.48
771.883	194.39
772.066	98.13
772.248	65.36
772.431	128.85
772.613	216.91
772.796	75.6
772.978	126.8
773.161	212.82
773.343	59.22
773.526	114.52
773.708	24.4
773.891	-32.94
774.073	120.66
774.256	53.08
774.438	329.55
774.621	-8.36
774.803	139.09
774.985	-45.23
775.168	155.47
775.35	51.03
775.532	42.84
775.715	61.27
775.897	32.6
776.079	42.84
776.261	114.52
776.444	55.12
776.626	71.51
776.808	42.84
776.99	-16.55
777.173	67.41
777.355	40.79
777.537	42.84
777.719	116.56
777.901	67.41
778.083	28.5
778.265	20.31
778.447	75.6
778.629	22.36
778.811	51.03
778.993	147.28
779.175	104.28
779.357	34.64
779.539	-65.71
779.721	135
779.903	100.18
780.085	20.31
780.267	106.32
780.449	38.74
780.631	118.61
780.812	59.22
780.994	-30.89
781.176	40.79
781.358	-32.94
781.54	44.88
781.721	106.32
781.903	100.18
782.085	63.32
782.267	135
782.448	-80.04
782.63	32.6
782.812	-0.17
782.993	65.36
783.175	114.52
783.357	-12.46
783.538	69.46
783.72	24.4
783.901	1.88
784.083	79.7
784.264	38.74
784.446	-24.75
784.627	-39.08
784.809	30.55
784.99	20.31
785.172	85.84
785.353	53.08
785.535	-8.36
785.716	20.31
785.897	-12.46
786.079	104.28
786.26	79.7
786.441	44.88
786.623	5.97
786.804	-26.79
786.985	-39.08
787.167	18.26
787.348	5.97
787.529	-88.23
787.71	165.71
787.891	73.56
788.073	20.31
788.254	-37.03
788.435	114.52
788.616	34.64
788.797	-51.37
788.978	14.17
789.159	-12.46
789.34	137.04
789.522	-12.46
789.703	18.26
789.884	83.8
790.065	81.75
790.246	149.33
790.427	-22.7
790.607	149.33
790.788	229.2
790.969	-67.75
791.15	16.21
791.331	12.12
791.512	59.22
791.693	32.6
791.874	-71.85
792.054	165.71
792.235	128.85
792.416	-20.65
792.597	22.36
792.778	83.8
792.958	48.98
793.139	20.31
793.32	-32.94
793.5	-12.46
793.681	149.33
793.862	26.45
794.042	26.45
794.223	-18.6
794.404	5.97
794.584	-37.03
794.765	-26.79
794.945	48.98
795.126	-2.22
795.306	83.8
795.487	-6.31
795.667	8.02
795.848	32.6
796.028	40.79
796.209	57.17
796.389	67.41
796.57	77.65
796.75	-12.46
796.93	48.98
797.111	-45.23
797.291	-34.99
797.471	108.37
797.652	-2.22
797.832	-49.32
798.012	110.42
798.192	-4.27
798.373	-69.8
798.553	-2.22
798.733	71.51
798.913	-39.08
799.093	10.07
799.274	24.4
799.454	81.75
799.634	108.37
799.814	32.6
799.994	38.74
800.174	79.7
800.354	16.21
800.534	-88.23
800.714	110.42
800.894	-34.99
801.074	-18.6
801.254	-49.32
801.434	40.79
801.614	-14.51
801.794	-55.47
801.974	1836.86
802.154	1.88
802.334	130.9
802.514	-67.75
802.693	10.07
802.873	-61.61
803.053	26.45
803.233	14.17
803.413	-2.22
803.592	-34.99
803.772	-20.65
803.952	46.93
804.131	-69.8
804.311	89.94
804.491	69.46
804.67	-57.51
804.85	-30.89
805.03	38.74
805.209	98.13
805.389	-71.85
805.568	14.17
805.748	26.45
805.928	-47.27
806.107	104.28
806.287	87.89
806.466	48.98
806.646	40.79
806.825	32.6
807.004	16.21
807.184	20.31
807.363	59.22
807.543	5.97
807.722	-32.94
807.901	108.37
808.081	26.45
808.26	-166.06
808.439	-10.41
808.619	-34.99
808.798	-43.18
808.977	20.31
809.156	65.36
809.336	87.89
809.515	18.26
809.694	-0.17
809.873	-65.71
810.052	18.26
810.231	59.22
810.411	114.52
810.59	65.36
810.769	16.21
810.948	118.61
811.127	-75.95
811.306	-41.13
811.485	-69.8
811.664	116.56
811.843	34.64
812.022	75.6
812.201	-41.13
812.38	-49.32
812.559	-45.23
812.737	5.97
812.916	-135.34
813.095	-82.09
813.274	132.95
813.453	38.74
813.632	36.69
813.811	114.52
813.989	-43.18
814.168	-16.55
814.347	-96.43
814.526	26.45
814.704	63.32
814.883	44.88
815.062	-53.42
815.24	61.27
815.419	-4.27
815.598	22.36
815.776	-135.34
815.955	10.07
816.133	-96.43
816.312	85.84
816.49	-14.51
816.669	-2.22
816.847	-53.42
817.026	-16.55
817.204	-8.36
817.383	28.5
817.561	-82.09
817.74	34.64
817.918	34.64
818.097	-39.08
818.275	-20.65
818.453	79.7
818.632	89.94
818.81	18.26
818.988	-6.31
819.167	-32.94
819.345	-8.36
819.523	-71.85
819.701	-14.51
819.879	16.21
820.058	12.12
820.236	-28.84
820.414	-24.75
820.592	-12.46
820.77	-10.41
820.948	-34.99
821.127	-14.51
821.305	1.88
821.483	-10.41
821.661	40.79
821.839	34.64
822.017	-39.08
822.195	-49.32
822.373	26.45
822.551	-49.32
822.729	65.36
822.907	-28.84
823.085	26.45
823.262	-12.46
823.44	8.02
823.618	18.26
823.796	-59.56
823.974	-34.99
824.152	-14.51
824.329	-65.71
824.507	-0.17
824.685	57.17
824.863	-80.04
825.04	-18.6
825.218	-0.17
825.396	14.17
825.574	-10.41
825.751	5.97
825.929	124.76
826.107	-88.23
826.284	-90.28
826.462	38.74
826.639	-45.23
826.817	-108.71
826.994	-59.56
827.172	-94.38
827.349	81.75
827.527	14.17
827.704	38.74
827.882	69.46
828.059	14.17
828.237	-43.18
828.414	55.12
828.591	-86.19
828.769	51.03
828.946	-49.32
829.124	30.55
829.301	96.08
829.478	-75.95
829.655	-20.65
829.833	8.02
830.01	-92.33
830.187	8.02
830.364	-26.79
830.542	-6.31
830.719	194.39
830.896	14.17
831.073	65.36
831.25	32.6
831.427	85.84
831.604	1.88
831.782	-80.04
831.959	63.32
832.136	48.98
832.313	5.97
832.49	-65.71
832.667	-0.17
832.844	-49.32
833.021	55.12
833.198	-39.08
833.374	22.36
833.551	10.07
833.728	-73.9
833.905	85.84
834.082	-92.33
834.259	51.03
834.436	42.84
834.612	-45.23
834.789	18.26
834.966	-18.6
835.143	61.27
835.319	-108.71
835.496	14.17
835.673	73.56
835.85	14.17
836.026	104.28
836.203	75.6
836.38	30.55
836.556	55.12
836.733	12.12
836.909	83.8
837.086	-20.65
837.262	-32.94
837.439	1.88
837.616	-8.36
837.792	-57.51
837.968	-30.89
838.145	-63.66
838.321	-30.89
838.498	59.22
838.674	42.84
838.851	20.31
839.027	-37.03
839.203	18.26
839.38	46.93
839.556	-34.99
839.732	69.46
839.909	-123.05
840.085	30.55
840.261	-20.65
840.437	-20.65
840.614	38.74
840.79	71.51
840.966	-26.79
841.142	-57.51
841.318	-71.85
841.494	14.17
841.671	22.36
841.847	-69.8
842.023	-102.57
842.199	91.99
842.375	26.45
842.551	-65.71
842.727	-80.04
842.903	91.99
843.079	-67.75
843.255	67.41
843.431	-14.51
843.607	34.64
843.783	-125.1
843.959	10.07
844.134	-67.75
844.31	94.04
844.486	-53.42
844.662	-57.51
844.838	42.84
845.013	-16.55
845.189	149.33
845.365	5.97
845.541	-2.22
845.716	-28.84
845.892	67.41
846.068	-34.99
846.244	-8.36
846.419	18.26
846.595	16.21
846.77	-63.66
846.946	30.55
847.122	-2.22
847.297	-65.71
847.473	91.99
847.648	3.93
847.824	-45.23
847.999	-159.91
848.175	-39.08
848.35	38.74
848.526	77.65
848.701	30.55
848.876	71.51
849.052	38.74
849.227	-2.22
849.403	32.6
849.578	-34.99
849.753	26.45
849.929	89.94
850.104	-114.86
850.279	-45.23
850.454	3.93
850.63	73.56
850.805	30.55
850.98	-8.36
851.155	22.36
851.33	-8.36
851.505	-92.33
851.681	96.08
851.856	-118.95
852.031	40.79
852.206	3.93
852.381	-137.38
852.556	10.07
852.731	-12.46
852.906	59.22
853.081	91.99
853.256	96.08
853.431	5.97
853.606	-39.08
853.781	-67.75
853.956	-123.05
854.131	73.56
854.305	-49.32
854.48	-49.32
854.655	-96.43
854.83	-16.55
855.005	10.07
855.18	-6.31
855.354	-26.79
855.529	-24.75
855.704	-125.1
855.879	53.08
856.053	-63.66
856.228	36.69
856.403	-61.61
856.577	-10.41
856.752	-102.57
856.926	61.27
857.101	12.12
857.276	-39.08
857.45	57.17
857.625	85.84
857.799	8.02
857.974	-26.79
858.148	-18.6
858.323	48.98
858.497	-0.17
858.672	-30.89
858.846	-53.42
859.02	87.89
859.195	-45.23
859.369	20.31
859.543	57.17
859.718	26.45
859.892	65.36
860.066	51.03
860.241	-34.99
860.415	-145.58
860.589	-51.37
860.763	-26.79
860.938	-61.61
861.112	55.12
861.286	-73.9
861.46	77.65
861.634	38.74
861.808	20.31
861.982	-45.23
862.157	-172.2
862.331	-16.55
862.505	-77.99
862.679	-45.23
862.853	-20.65
863.027	38.74
863.201	102.23
863.375	75.6
863.549	-22.7
863.722	3.93
863.896	73.56
864.07	-88.23
864.244	-61.61
864.418	18.26
864.592	28.5
864.766	-43.18
864.939	22.36
865.113	-67.75
865.287	108.37
865.461	32.6
865.634	1.88
865.808	3.93
865.982	-0.17
866.156	-106.67
866.329	-94.38
866.503	-22.7
866.676	112.47
866.85	55.12
867.024	-82.09
867.197	91.99
867.371	51.03
867.544	44.88
867.718	-135.34
867.891	48.98
868.065	-123.05
868.238	-6.31
868.412	102.23
868.585	8.02
868.759	-16.55
868.932	-45.23
869.105	-86.19
869.279	71.51
869.452	-98.47
869.625	-2.22
869.799	36.69
869.972	-116.9
870.145	-18.6
870.319	28.5
870.492	22.36
870.665	-34.99
870.838	-37.03
871.011	-190.63
871.185	-47.27
871.358	-71.85
871.531	20.31
871.704	-90.28
871.877	16.21
872.05	30.55
872.223	-45.23
872.396	24.4
872.569	26.45
872.742	-90.28
872.915	22.36
873.088	-77.99
873.261	-0.17
873.434	75.6
873.607	-32.94
873.78	135
873.953	-92.33
874.126	-28.84
874.299	126.8
874.471	-16.55
874.644	-69.8
874.817	32.6
874.99	108.37
875.163	-63.66
875.335	5.97
875.508	67.41
875.681	-6.31
875.853	-77.99
876.026	-47.27
876.199	20.31
876.371	18.26
876.544	40.79
876.717	44.88
876.889	-63.66
877.062	-12.46
877.234	-125.1
877.407	-39.08
877.579	100.18
877.752	14.17
877.924	75.6
878.097	104.28
878.269	-6.31
878.442	-24.75
878.614	20.31
878.786	5.97
878.959	-14.51
879.131	-0.17
879.303	-47.27
879.476	10.07
879.648	-45.23
879.82	-22.7
879.993	-71.85
880.165	-43.18
880.337	-94.38
880.509	-26.79
880.681	-96.43
880.854	-53.42
881.026	16.21
881.198	167.76
881.37	-71.85
881.542	-16.55
881.714	-30.89
881.886	-114.86
882.058	8.02
882.23	-0.17
882.402	-51.37
882.574	3.93
882.746	59.22
882.918	34.64
883.09	53.08
883.262	10.07
883.434	-14.51
883.606	-100.52
883.778	-6.31
883.95	108.37
884.122	-82.09
884.293	46.93
884.465	-39.08
884.637	8.02
884.809	-16.55
884.98	137.04
885.152	-18.6
885.324	48.98
885.496	-34.99
885.667	-51.37
885.839	-8.36
886.011	83.8
886.182	-0.17
886.354	61.27
886.525	-45.23
886.697	-0.17
886.869	-39.08
887.04	-92.33
887.212	30.55
887.383	141.14
887.555	10.07
887.726	38.74
887.897	-82.09
888.069	-30.89
888.24	89.94
888.412	69.46
888.583	5.97
888.754	-53.42
888.926	-100.52
889.097	-59.56
889.268	-24.75
889.44	-0.17
889.611	-112.81
889.782	-65.71
889.953	-102.57
890.125	112.47
890.296	-63.66
890.467	-67.75
890.638	-114.86
890.809	28.5
890.98	-24.75
891.151	-12.46
891.323	1.88
891.494	8.02
891.665	-69.8
891.836	-37.03
892.007	38.74
892.178	44.88
892.349	3.93
892.52	-49.32
892.691	34.64
892.862	-47.27
893.032	-90.28
893.203	-43.18
893.374	-12.46
893.545	100.18
893.716	-43.18
893.887	53.08
894.057	-30.89
894.228	-69.8
894.399	8.02
894.57	81.75
894.74	-20.65
894.911	20.31
895.082	-45.23
895.253	-112.81
895.423	-39.08
895.594	69.46
895.764	5.97
895.935	-69.8
896.106	51.03
896.276	-39.08
896.447	-2.22
896.617	-116.9
896.788	-114.86
896.958	-94.38
897.129	-100.52
897.299	-131.24
897.47	182.1
897.64	40.79
897.81	-92.33
897.981	77.65
898.151	-92.33
898.322	-43.18
898.492	34.64
898.662	-71.85
898.832	-106.67
899.003	-57.51
899.173	75.6
899.343	-32.94
899.513	-90.28
