Data from USB4F104151__169__11-04-53-435.txt Node

Date: Wed Feb 26 11:04:53 EST 2025
User: louis
Spectrometer: USB4F10415
Trigger mode: 4
Integration Time (sec): 1.000000E-1
Scans to average: 1
Electric dark correction enabled: true
Nonlinearity correction enabled: false
Boxcar width: 0
XAxis mode: Wavelengths
Number of Pixels in Spectrum: 3648
>>>>>Begin Spectral Data<<<<<
178.204	-414.54
178.424	-414.54
178.644	-414.54
178.864	-346.96
179.084	-330.58
179.304	13.48
179.524	5.29
179.744	-11.09
179.964	38.06
180.184	7.34
180.404	25.77
180.624	-4.95
180.844	-19.29
181.064	-37.72
181.283	48.3
181.503	-86.87
181.723	21.67
181.943	-78.68
182.163	146.6
182.383	19.63
182.602	74.92
182.822	191.66
183.042	158.89
183.262	-52.05
183.482	93.35
183.701	62.63
183.921	89.26
184.141	-21.33
184.361	126.12
184.58	23.72
184.8	113.83
185.02	66.73
185.239	134.31
185.459	101.55
185.679	144.55
185.898	-9.05
186.118	79.02
186.338	111.78
186.557	124.07
186.777	-43.86
186.997	-0.85
187.216	62.63
187.436	175.27
187.655	31.91
187.875	150.7
188.095	9.39
188.314	160.94
188.534	160.94
188.753	13.48
188.973	187.56
189.192	160.94
189.412	156.84
189.631	76.97
189.851	126.12
190.07	165.03
190.29	-15.19
190.509	-45.91
190.729	72.87
190.948	119.98
191.168	298.15
191.387	72.87
191.607	-11.09
191.826	95.4
192.045	60.59
192.265	56.49
192.484	154.79
192.704	38.06
192.923	42.15
193.142	113.83
193.362	115.88
193.581	130.22
193.8	148.65
194.02	183.46
194.239	-27.48
194.458	109.74
194.678	29.87
194.897	19.63
195.116	74.92
195.335	83.11
195.555	29.87
195.774	-29.52
195.993	130.22
196.212	68.78
196.432	11.43
196.651	46.25
196.87	46.25
197.089	332.97
197.308	56.49
197.528	97.45
197.747	-21.33
197.966	17.58
198.185	191.66
198.404	33.96
198.623	138.41
198.842	177.32
199.062	56.49
199.281	130.22
199.5	46.25
199.719	89.26
199.938	31.91
200.157	68.78
200.376	105.64
200.595	126.12
200.814	81.07
201.033	1.19
201.252	230.57
201.471	87.21
201.69	54.44
201.909	66.73
202.128	156.84
202.347	101.55
202.566	83.11
202.785	7.34
203.004	-0.85
203.223	275.62
203.442	103.59
203.661	-54.1
203.879	56.49
204.098	195.75
204.317	-27.48
204.536	148.65
204.755	66.73
204.974	81.07
205.193	105.64
205.411	146.6
205.63	83.11
205.849	105.64
206.068	-9.05
206.287	5.29
206.505	109.74
206.724	17.58
206.943	-19.29
207.162	17.58
207.381	27.82
207.599	50.35
207.818	148.65
208.037	62.63
208.255	46.25
208.474	165.03
208.693	54.44
208.911	29.87
209.13	60.59
209.349	103.59
209.567	85.16
209.786	144.55
210.005	167.08
210.223	158.89
210.442	-50
210.661	48.3
210.879	81.07
211.098	146.6
211.316	119.98
211.535	119.98
211.753	21.67
211.972	124.07
212.191	-15.19
212.409	31.91
212.628	195.75
212.846	-2.9
213.065	83.11
213.283	138.41
213.502	62.63
213.72	17.58
213.938	62.63
214.157	27.82
214.375	48.3
214.594	54.44
214.812	111.78
215.031	42.15
215.249	72.87
215.467	99.5
215.686	68.78
215.904	58.54
216.122	91.31
216.341	122.02
216.559	87.21
216.778	181.42
216.996	228.52
217.214	46.25
217.432	60.59
217.651	-31.57
217.869	130.22
218.087	56.49
218.306	-33.62
218.524	40.11
218.742	66.73
218.96	148.65
219.179	-56.15
219.397	19.63
219.615	175.27
219.833	85.16
220.051	-21.33
220.27	115.88
220.488	93.35
220.706	154.79
220.924	54.44
221.142	33.96
221.36	56.49
221.578	171.18
221.796	-25.43
222.015	79.02
222.233	9.39
222.451	154.79
222.669	11.43
222.887	23.72
223.105	7.34
223.323	109.74
223.541	27.82
223.759	99.5
223.977	50.35
224.195	181.42
224.413	107.69
224.631	72.87
224.849	44.2
225.067	226.47
225.285	38.06
225.503	60.59
225.721	-90.96
225.939	-0.85
226.157	68.78
226.375	234.66
226.592	-86.87
226.81	11.43
227.028	113.83
227.246	142.5
227.464	132.26
227.682	158.89
227.9	48.3
228.117	95.4
228.335	60.59
228.553	36.01
228.771	11.43
228.989	-11.09
229.206	87.21
229.424	52.39
229.642	111.78
229.86	-0.85
230.077	162.98
230.295	72.87
230.513	87.21
230.731	76.97
230.948	222.38
231.166	177.32
231.384	48.3
231.601	48.3
231.819	283.81
232.037	5.29
232.254	-64.34
232.472	40.11
232.689	50.35
232.907	109.74
233.125	33.96
233.342	33.96
233.56	76.97
233.777	150.7
233.995	9.39
234.213	54.44
234.43	83.11
234.648	87.21
234.865	9.39
235.083	138.41
235.3	68.78
235.518	70.83
235.735	171.18
235.953	169.13
236.17	115.88
236.388	103.59
236.605	-33.62
236.822	99.5
237.04	195.75
237.257	54.44
237.475	48.3
237.692	64.68
237.909	85.16
238.127	56.49
238.344	130.22
238.562	46.25
238.779	54.44
238.996	-31.57
239.214	60.59
239.431	93.35
239.648	72.87
239.865	79.02
240.083	68.78
240.3	7.34
240.517	52.39
240.735	50.35
240.952	171.18
241.169	54.44
241.386	146.6
241.603	54.44
241.821	36.01
242.038	132.26
242.255	107.69
242.472	27.82
242.689	113.83
242.907	81.07
243.124	138.41
243.341	93.35
243.558	48.3
243.775	-70.48
243.992	3.24
244.209	160.94
244.426	210.09
244.643	-2.9
244.86	23.72
245.078	134.31
245.295	89.26
245.512	107.69
245.729	31.91
245.946	130.22
246.163	72.87
246.38	21.67
246.597	29.87
246.814	128.17
247.031	89.26
247.248	97.45
247.464	138.41
247.681	122.02
247.898	107.69
248.115	109.74
248.332	-41.81
248.549	144.55
248.766	208.04
248.983	79.02
249.2	91.31
249.417	122.02
249.633	31.91
249.85	83.11
250.067	27.82
250.284	140.46
250.501	27.82
250.717	99.5
250.934	-29.52
251.151	38.06
251.368	25.77
251.585	89.26
251.801	115.88
252.018	-29.52
252.235	142.5
252.451	-23.38
252.668	-54.1
252.885	162.98
253.102	124.07
253.318	23.72
253.535	117.93
253.752	-25.43
253.968	64.68
254.185	-105.3
254.401	126.12
254.618	105.64
254.835	31.91
255.051	99.5
255.268	91.31
255.484	68.78
255.701	74.92
255.917	138.41
256.134	-0.85
256.351	72.87
256.567	-17.24
256.784	13.48
257	-86.87
257.217	148.65
257.433	132.26
257.65	97.45
257.866	226.47
258.082	-15.19
258.299	128.17
258.515	87.21
258.732	64.68
258.948	-4.95
259.165	-11.09
259.381	36.01
259.597	48.3
259.814	5.29
260.03	52.39
260.246	42.15
260.463	142.5
260.679	208.04
260.895	140.46
261.112	140.46
261.328	42.15
261.544	13.48
261.761	128.17
261.977	21.67
262.193	-31.57
262.409	150.7
262.626	19.63
262.842	93.35
263.058	60.59
263.274	132.26
263.49	58.54
263.707	105.64
263.923	117.93
264.139	38.06
264.355	105.64
264.571	126.12
264.787	107.69
265.004	160.94
265.22	25.77
265.436	27.82
265.652	21.67
265.868	97.45
266.084	-105.3
266.3	36.01
266.516	19.63
266.732	46.25
266.948	124.07
267.164	56.49
267.38	152.74
267.596	81.07
267.812	261.29
268.028	40.11
268.244	15.53
268.46	81.07
268.676	-7
268.892	76.97
269.108	27.82
269.324	42.15
269.54	60.59
269.756	169.13
269.972	21.67
270.188	56.49
270.403	91.31
270.619	56.49
270.835	167.08
271.051	64.68
271.267	19.63
271.483	70.83
271.698	165.03
271.914	117.93
272.13	81.07
272.346	17.58
272.562	99.5
272.777	79.02
272.993	50.35
273.209	52.39
273.425	97.45
273.64	62.63
273.856	203.94
274.072	36.01
274.287	25.77
274.503	115.88
274.719	203.94
274.934	-13.14
275.15	-41.81
275.366	58.54
275.581	-33.62
275.797	44.2
276.012	29.87
276.228	81.07
276.444	25.77
276.659	191.66
276.875	113.83
277.09	97.45
277.306	36.01
277.521	201.9
277.737	19.63
277.952	111.78
278.168	38.06
278.383	111.78
278.599	111.78
278.814	60.59
279.03	154.79
279.245	199.85
279.461	144.55
279.676	103.59
279.892	56.49
280.107	-54.1
280.322	15.53
280.538	117.93
280.753	17.58
280.969	113.83
281.184	95.4
281.399	197.8
281.615	74.92
281.83	138.41
282.045	-50
282.26	42.15
282.476	60.59
282.691	111.78
282.906	70.83
283.122	33.96
283.337	52.39
283.552	38.06
283.767	42.15
283.983	169.13
284.198	93.35
284.413	107.69
284.628	-72.53
284.843	44.2
285.058	101.55
285.274	62.63
285.489	44.2
285.704	122.02
285.919	19.63
286.134	48.3
286.349	64.68
286.564	81.07
286.779	76.97
286.995	54.44
287.21	-37.72
287.425	81.07
287.64	29.87
287.855	25.77
288.07	23.72
288.285	85.16
288.5	128.17
288.715	70.83
288.93	58.54
289.145	-13.14
289.36	52.39
289.575	19.63
289.79	246.95
290.004	-21.33
290.219	128.17
290.434	31.91
290.649	83.11
290.864	23.72
291.079	76.97
291.294	132.26
291.509	122.02
291.724	3.24
291.938	70.83
292.153	70.83
292.368	64.68
292.583	29.87
292.798	85.16
293.012	54.44
293.227	142.5
293.442	48.3
293.657	105.64
293.871	142.5
294.086	142.5
294.301	152.74
294.516	119.98
294.73	111.78
294.945	-11.09
295.16	15.53
295.374	50.35
295.589	173.22
295.804	-35.67
296.018	74.92
296.233	199.85
296.447	48.3
296.662	-25.43
296.877	95.4
297.091	95.4
297.306	79.02
297.52	36.01
297.735	130.22
297.949	140.46
298.164	122.02
298.378	54.44
298.593	31.91
298.807	44.2
299.022	85.16
299.236	130.22
299.451	44.2
299.665	31.91
299.88	21.67
300.094	87.21
300.309	87.21
300.523	93.35
300.737	124.07
300.952	107.69
301.166	58.54
301.381	-39.76
301.595	7.34
301.809	33.96
302.024	89.26
302.238	-35.67
302.452	175.27
302.667	134.31
302.881	179.37
303.095	122.02
303.309	-19.29
303.524	60.59
303.738	68.78
303.952	36.01
304.166	124.07
304.381	31.91
304.595	193.7
304.809	7.34
305.023	48.3
305.237	66.73
305.452	40.11
305.666	130.22
305.88	93.35
306.094	171.18
306.308	156.84
306.522	109.74
306.736	79.02
306.95	85.16
307.164	46.25
307.379	117.93
307.593	222.38
307.807	148.65
308.021	132.26
308.235	60.59
308.449	-39.76
308.663	72.87
308.877	298.15
309.091	119.98
309.305	33.96
309.519	-66.39
309.733	115.88
309.947	3.24
310.161	134.31
310.374	122.02
310.588	134.31
310.802	58.54
311.016	42.15
311.23	36.01
311.444	29.87
311.658	85.16
311.872	124.07
312.085	85.16
312.299	175.27
312.513	150.7
312.727	117.93
312.941	-15.19
313.154	89.26
313.368	105.64
313.582	44.2
313.796	105.64
314.009	44.2
314.223	158.89
314.437	72.87
314.651	119.98
314.864	25.77
315.078	52.39
315.292	-17.24
315.505	-9.05
315.719	117.93
315.933	46.25
316.146	36.01
316.36	-15.19
316.573	144.55
316.787	117.93
317.001	52.39
317.214	13.48
317.428	46.25
317.641	-64.34
317.855	-33.62
318.068	87.21
318.282	115.88
318.495	193.7
318.709	175.27
318.922	21.67
319.136	138.41
319.349	111.78
319.563	50.35
319.776	136.36
319.99	-50
320.203	208.04
320.417	81.07
320.63	97.45
320.843	216.23
321.057	107.69
321.27	101.55
321.483	119.98
321.697	105.64
321.91	101.55
322.124	87.21
322.337	142.5
322.55	19.63
322.763	52.39
322.977	36.01
323.19	36.01
323.403	29.87
323.617	60.59
323.83	87.21
324.043	31.91
324.256	50.35
324.469	9.39
324.683	175.27
324.896	119.98
325.109	91.31
325.322	23.72
325.535	173.22
325.748	171.18
325.962	-7
326.175	25.77
326.388	124.07
326.601	156.84
326.814	103.59
327.027	74.92
327.24	93.35
327.453	-11.09
327.666	1.19
327.879	152.74
328.092	29.87
328.305	167.08
328.518	17.58
328.731	5.29
328.944	130.22
329.157	99.5
329.37	44.2
329.583	177.32
329.796	113.83
330.009	50.35
330.222	79.02
330.435	171.18
330.648	40.11
330.861	109.74
331.073	68.78
331.286	122.02
331.499	79.02
331.712	-0.85
331.925	56.49
332.138	70.83
332.35	85.16
332.563	42.15
332.776	150.7
332.989	36.01
333.202	50.35
333.414	140.46
333.627	87.21
333.84	130.22
334.053	128.17
334.265	29.87
334.478	33.96
334.691	66.73
334.903	93.35
335.116	-82.77
335.329	52.39
335.541	193.7
335.754	187.56
335.966	15.53
336.179	-31.57
336.392	113.83
336.604	56.49
336.817	148.65
337.029	101.55
337.242	50.35
337.454	136.36
337.667	76.97
337.88	175.27
338.092	113.83
338.305	171.18
338.517	-33.62
338.729	105.64
338.942	122.02
339.154	-13.14
339.367	25.77
339.579	154.79
339.792	27.82
340.004	136.36
340.217	48.3
340.429	83.11
340.641	19.63
340.854	23.72
341.066	87.21
341.278	144.55
341.491	146.6
341.703	50.35
341.915	-21.33
342.128	93.35
342.34	-2.9
342.552	44.2
342.764	95.4
342.977	48.3
343.189	93.35
343.401	87.21
343.613	62.63
343.826	13.48
344.038	-43.86
344.25	138.41
344.462	50.35
344.674	81.07
344.886	17.58
345.099	95.4
345.311	74.92
345.523	23.72
345.735	17.58
345.947	79.02
346.159	91.31
346.371	36.01
346.583	87.21
346.795	175.27
347.007	-2.9
347.219	140.46
347.431	48.3
347.643	122.02
347.855	17.58
348.067	122.02
348.279	95.4
348.491	128.17
348.703	105.64
348.915	42.15
349.127	-37.72
349.339	87.21
349.551	1.19
349.763	99.5
349.975	40.11
350.187	117.93
350.399	230.57
350.61	115.88
350.822	89.26
351.034	95.4
351.246	124.07
351.458	130.22
351.669	195.75
351.881	113.83
352.093	203.94
352.305	130.22
352.517	76.97
352.728	167.08
352.94	11.43
353.152	136.36
353.363	-17.24
353.575	134.31
353.787	236.71
353.999	138.41
354.21	187.56
354.422	23.72
354.633	-31.57
354.845	36.01
355.057	40.11
355.268	124.07
355.48	126.12
355.692	-13.14
355.903	25.77
356.115	23.72
356.326	33.96
356.538	193.7
356.749	111.78
356.961	228.52
357.172	46.25
357.384	-9.05
357.595	210.09
357.807	-47.96
358.018	44.2
358.23	56.49
358.441	224.42
358.653	85.16
358.864	74.92
359.075	29.87
359.287	95.4
359.498	97.45
359.709	189.61
359.921	58.54
360.132	87.21
360.344	79.02
360.555	42.15
360.766	91.31
360.977	11.43
361.189	199.85
361.4	7.34
361.611	117.93
361.823	105.64
362.034	40.11
362.245	-39.76
362.456	27.82
362.667	99.5
362.879	3.24
363.09	36.01
363.301	25.77
363.512	91.31
363.723	23.72
363.935	103.59
364.146	148.65
364.357	13.48
364.568	87.21
364.779	-21.33
364.99	212.14
365.201	-15.19
365.412	91.31
365.623	-52.05
365.834	60.59
366.045	76.97
366.256	68.78
366.467	132.26
366.678	48.3
366.889	44.2
367.1	-35.67
367.311	95.4
367.522	33.96
367.733	160.94
367.944	113.83
368.155	56.49
368.366	97.45
368.577	83.11
368.788	105.64
368.999	13.48
369.209	124.07
369.42	226.47
369.631	257.19
369.842	95.4
370.053	46.25
370.264	101.55
370.474	-27.48
370.685	101.55
370.896	115.88
371.107	185.51
371.317	91.31
371.528	117.93
371.739	83.11
371.95	109.74
372.16	87.21
372.371	23.72
372.582	19.63
372.792	142.5
373.003	115.88
373.214	60.59
373.424	89.26
373.635	19.63
373.846	126.12
374.056	79.02
374.267	201.9
374.477	56.49
374.688	83.11
374.898	97.45
375.109	-29.52
375.319	101.55
375.53	171.18
375.74	119.98
375.951	7.34
376.161	134.31
376.372	124.07
376.582	179.37
376.793	128.17
377.003	7.34
377.214	126.12
377.424	136.36
377.635	122.02
377.845	93.35
378.055	95.4
378.266	1.19
378.476	13.48
378.686	97.45
378.897	148.65
379.107	150.7
379.317	156.84
379.528	5.29
379.738	197.8
379.948	-43.86
380.158	119.98
380.369	54.44
380.579	99.5
380.789	33.96
380.999	115.88
381.21	138.41
381.42	216.23
381.63	64.68
381.84	128.17
382.05	44.2
382.261	165.03
382.471	175.27
382.681	95.4
382.891	150.7
383.101	72.87
383.311	25.77
383.521	-11.09
383.731	21.67
383.941	169.13
384.151	167.08
384.361	93.35
384.571	136.36
384.781	74.92
384.991	242.85
385.201	169.13
385.411	103.59
385.621	66.73
385.831	83.11
386.041	95.4
386.251	81.07
386.461	81.07
386.671	33.96
386.881	42.15
387.091	113.83
387.301	158.89
387.511	70.83
387.72	93.35
387.93	183.46
388.14	-68.44
388.35	144.55
388.56	119.98
388.769	154.79
388.979	-19.29
389.189	27.82
389.399	83.11
389.609	107.69
389.818	103.59
390.028	111.78
390.238	128.17
390.447	-17.24
390.657	142.5
390.867	3.24
391.076	40.11
391.286	60.59
391.496	66.73
391.705	52.39
391.915	122.02
392.125	144.55
392.334	60.59
392.544	212.14
392.753	52.39
392.963	1.19
393.172	76.97
393.382	-33.62
393.591	181.42
393.801	36.01
394.01	171.18
394.22	156.84
394.429	64.68
394.639	70.83
394.848	97.45
395.058	109.74
395.267	44.2
395.477	107.69
395.686	76.97
395.895	289.96
396.105	203.94
396.314	115.88
396.524	87.21
396.733	93.35
396.942	128.17
397.152	58.54
397.361	115.88
397.57	154.79
397.78	66.73
397.989	167.08
398.198	205.99
398.407	9.39
398.617	48.3
398.826	87.21
399.035	15.53
399.244	201.9
399.453	195.75
399.663	62.63
399.872	97.45
400.081	21.67
400.29	126.12
400.499	54.44
400.708	152.74
400.917	83.11
401.127	117.93
401.336	54.44
401.545	232.62
401.754	162.98
401.963	146.6
402.172	-17.24
402.381	3.24
402.59	44.2
402.799	62.63
403.008	126.12
403.217	76.97
403.426	83.11
403.635	-43.86
403.844	64.68
404.053	36.01
404.262	62.63
404.471	177.32
404.68	146.6
404.888	36.01
405.097	50.35
405.306	122.02
405.515	140.46
405.724	46.25
405.933	150.7
406.142	95.4
406.35	154.79
406.559	9.39
406.768	115.88
406.977	140.46
407.185	15.53
407.394	126.12
407.603	-39.76
407.812	197.8
408.02	165.03
408.229	52.39
408.438	109.74
408.646	-17.24
408.855	11.43
409.064	162.98
409.272	93.35
409.481	132.26
409.69	40.11
409.898	56.49
410.107	74.92
410.315	68.78
410.524	7.34
410.733	144.55
410.941	33.96
411.15	158.89
411.358	107.69
411.567	156.84
411.775	62.63
411.984	132.26
412.192	140.46
412.401	81.07
412.609	167.08
412.818	144.55
413.026	81.07
413.234	60.59
413.443	79.02
413.651	-37.72
413.86	111.78
414.068	144.55
414.276	181.42
414.485	48.3
414.693	93.35
414.901	240.81
415.11	124.07
415.318	146.6
415.526	17.58
415.734	171.18
415.943	97.45
416.151	169.13
416.359	50.35
416.567	162.98
416.776	154.79
416.984	128.17
417.192	228.52
417.4	62.63
417.608	76.97
417.817	-17.24
418.025	97.45
418.233	197.8
418.441	15.53
418.649	9.39
418.857	128.17
419.065	113.83
419.273	-9.05
419.481	85.16
419.689	46.25
419.897	81.07
420.105	38.06
420.313	132.26
420.521	208.04
420.729	175.27
420.937	-9.05
421.145	-0.85
421.353	148.65
421.561	150.7
421.769	38.06
421.977	52.39
422.185	140.46
422.393	126.12
422.601	122.02
422.809	130.22
423.017	-11.09
423.224	76.97
423.432	87.21
423.64	132.26
423.848	156.84
424.056	44.2
424.263	160.94
424.471	134.31
424.679	210.09
424.887	-17.24
425.094	156.84
425.302	199.85
425.51	31.91
425.718	154.79
425.925	83.11
426.133	17.58
426.341	218.28
426.548	56.49
426.756	29.87
426.964	134.31
427.171	27.82
427.379	95.4
427.586	142.5
427.794	81.07
428.001	214.18
428.209	240.81
428.417	281.77
428.624	126.12
428.832	175.27
429.039	79.02
429.247	113.83
429.454	156.84
429.662	210.09
429.869	156.84
430.076	87.21
430.284	218.28
430.491	242.85
430.699	216.23
430.906	261.29
431.114	175.27
431.321	150.7
431.528	150.7
431.736	87.21
431.943	146.6
432.15	195.75
432.358	167.08
432.565	244.9
432.772	58.54
432.979	136.36
433.187	169.13
433.394	242.85
433.601	230.57
433.808	156.84
434.016	165.03
434.223	236.71
434.43	216.23
434.637	240.81
434.844	300.2
435.052	232.62
435.259	292.01
435.466	414.88
435.673	318.63
435.88	257.19
436.087	382.12
436.294	406.69
436.501	330.92
436.708	304.29
436.915	363.69
437.122	435.36
437.329	251.05
437.537	330.92
437.743	328.87
437.95	556.19
438.157	439.46
438.364	404.64
438.571	324.77
438.778	494.76
438.985	498.85
439.192	533.67
439.399	504.99
439.606	488.61
439.813	500.9
440.02	564.39
440.227	699.55
440.433	609.44
440.64	494.76
440.847	556.19
441.054	640.16
441.261	707.74
441.467	627.87
441.674	484.52
441.881	781.47
442.088	685.22
442.294	777.37
442.501	785.57
442.708	890.01
442.914	744.61
443.121	855.2
443.328	912.54
443.534	941.21
443.741	986.27
443.948	773.28
444.154	1035.42
444.361	1121.43
444.568	1014.94
444.774	1086.62
444.981	969.88
445.187	1225.88
445.394	1125.53
445.6	1125.53
445.807	1324.18
446.013	1412.25
446.22	1318.04
446.426	1481.88
446.633	1463.44
446.839	1614.99
447.046	1463.44
447.252	1703.06
447.459	1658
447.665	1690.77
447.871	1797.26
448.078	1893.52
448.284	1899.66
448.491	2022.54
448.697	2081.93
448.903	2190.47
449.11	2069.64
449.316	2194.57
449.522	2294.92
449.728	2434.18
449.935	2505.86
450.141	2536.58
450.347	2786.43
450.553	2823.3
450.76	2761.86
450.966	2894.97
451.172	3015.8
451.378	3216.51
451.584	3292.28
451.791	3515.51
451.997	3484.79
452.203	3576.95
452.409	3742.83
452.615	3826.8
452.821	3837.04
453.027	3843.18
453.233	4420.71
453.44	4072.56
453.646	4516.97
453.852	4670.56
454.058	4643.94
454.264	4920.42
454.47	5250.14
454.676	5276.76
454.882	5715.03
455.088	5411.93
455.294	5719.12
455.5	6251.6
455.705	6528.07
455.911	6468.68
456.117	6691.91
456.323	6962.24
456.529	7042.11
456.735	7601.21
456.941	7855.15
457.147	8180.78
457.352	8311.85
457.558	8590.38
457.764	9145.38
457.97	9333.79
458.176	9591.83
458.381	10144.78
458.587	10415.12
458.793	10957.83
458.999	10834.95
459.204	12000.24
459.41	12809.19
459.616	12442.6
459.821	13120.48
460.027	13777.88
460.233	14216.15
460.438	14623.69
460.644	15420.35
460.85	15555.52
461.055	15940.54
461.261	17028.01
461.466	16499.63
461.672	17161.12
461.878	18903.95
462.083	18643.85
462.289	19024.78
462.494	19811.2
462.7	20009.85
462.905	20140.92
463.111	21791.58
463.316	22846.29
463.522	23343.94
463.727	23898.94
463.932	25158.44
464.138	26147.61
464.343	26749.71
464.549	26802.96
464.754	28900.08
464.959	29715.17
465.165	30141.15
465.37	29971.17
465.575	29844.2
465.781	32086.72
465.986	32742.07
466.191	32608.95
466.397	33071.79
466.602	31957.7
466.807	33854.12
467.012	34183.84
467.218	34902.68
467.423	34820.76
467.628	35515.02
467.833	37546.61
468.038	37196.4
468.244	36704.89
468.449	38222.44
468.654	37689.96
468.859	37560.94
469.064	37562.99
469.269	36647.55
469.474	36762.23
469.679	37726.83
469.885	36612.73
470.09	37542.51
470.295	37188.21
470.5	36870.78
470.705	36622.97
470.91	35961.48
471.115	35603.08
471.32	35988.1
471.525	35990.15
471.73	34904.73
471.935	34710.17
472.139	33116.85
472.344	33696.42
472.549	33274.54
472.754	32285.37
472.959	31470.28
473.164	30855.89
473.369	30339.8
473.574	30937.81
473.778	30200.54
473.983	29924.07
474.188	29321.96
474.393	28035.84
474.598	28044.03
474.802	27280.14
475.007	26870.54
475.212	26718.99
475.417	25475.88
475.621	25518.89
475.826	24773.42
476.031	24636.21
476.235	23851.84
476.44	23958.33
476.645	23200.58
476.849	23139.15
477.054	22950.73
477.259	22090.59
477.463	21906.27
477.668	21670.75
477.872	21838.69
478.077	21080.94
478.282	20503.41
478.486	20499.31
478.691	19938.17
478.895	19653.5
479.1	19676.03
479.304	19815.29
479.509	19172.23
479.713	19096.46
479.918	18682.77
480.122	18156.44
480.326	18287.51
480.531	18342.8
480.735	18201.49
480.94	17855.39
481.144	18432.91
481.348	17709.98
481.553	17542.05
481.757	17046.44
481.961	17193.89
482.166	17421.22
482.37	17365.92
482.574	16667.56
482.778	16876.46
482.983	16929.7
483.187	16528.3
483.391	16300.98
483.595	16366.51
483.8	15989.69
484.004	16106.42
484.208	15866.81
484.412	15604.67
484.616	15731.64
484.821	15561.66
485.025	15193.03
485.229	15150.02
485.433	14873.54
485.637	14672.84
485.841	14345.17
486.045	14291.92
486.249	14345.17
486.453	14005.2
486.657	13888.47
486.861	13538.27
487.065	13231.07
487.269	12913.64
487.473	12858.34
487.677	12995.56
487.881	12811.24
488.085	12379.12
488.289	12325.87
488.493	11809.78
488.697	11844.6
488.901	11678.71
489.105	11205.63
489.309	11129.86
489.512	11082.75
489.716	10669.06
489.92	10423.31
490.124	10433.55
490.328	10464.27
490.531	9976.85
490.735	9987.09
490.939	9686.04
491.143	9524.25
491.346	9337.88
491.55	9303.07
491.754	9004.07
491.958	8940.58
492.161	8893.47
492.365	8750.12
492.569	8492.07
492.772	8279.08
492.976	8365.1
493.18	7994.42
493.383	8227.89
493.587	8057.9
493.79	8094.77
493.994	7797.81
494.197	7719.99
494.401	7722.04
494.605	7660.6
494.808	7519.29
495.012	7420.99
495.215	7744.56
495.419	7357.5
495.622	7234.62
495.825	7203.9
496.029	7189.56
496.232	7377.98
496.436	7167.04
496.639	7228.48
496.843	6958.14
497.046	7158.85
497.249	7269.44
497.453	7224.38
497.656	6962.24
497.859	7035.97
498.063	7150.65
498.266	7396.41
498.469	7167.04
498.673	7341.11
498.876	7339.07
499.079	7267.39
499.282	7289.92
499.485	7654.45
499.689	7572.54
499.892	7584.82
500.095	7341.11
500.298	7482.42
500.501	7445.56
500.705	7593.01
500.908	7771.19
501.111	7719.99
501.314	7859.25
501.517	7978.03
501.72	7865.39
501.923	8133.68
502.126	8221.74
502.329	8422.44
502.532	8399.91
502.735	8512.55
502.938	8565.8
503.141	8793.12
503.344	8584.23
503.547	8903.71
503.75	8819.75
503.953	9071.65
504.156	9192.48
504.359	9251.87
504.562	9301.02
504.765	9714.71
504.968	9772.05
505.17	9909.27
505.373	9757.72
505.576	10097.68
505.779	10284.05
505.982	10312.72
506.185	10605.58
506.387	10851.33
506.59	11045.89
506.793	11363.33
506.996	11256.83
507.198	11797.49
507.401	11959.28
507.604	11834.36
507.807	12368.88
508.009	12815.34
508.212	12786.66
508.415	13034.47
508.617	13130.72
508.82	13429.73
509.022	13290.46
509.225	14238.67
509.428	14322.64
509.63	14734.28
509.833	14769.1
510.035	15623.1
510.238	15526.85
510.44	15987.64
510.643	16278.45
510.845	16808.87
511.048	16626.6
511.25	17171.36
511.453	17744.8
511.655	18572.18
511.858	18379.67
512.06	19137.41
512.262	19258.24
512.465	19526.53
512.667	20525.94
512.87	20599.66
513.072	21080.94
513.274	21662.56
513.477	22166.36
513.679	22549.33
513.881	22887.25
514.084	23567.17
514.286	23894.85
514.488	24546.1
514.69	25389.86
514.893	25670.43
515.095	26176.28
515.297	26942.22
515.499	27265.8
515.701	27886.34
515.904	28748.53
516.106	29068.02
516.308	29235.95
516.51	30481.11
516.712	30698.2
516.914	31333.07
517.116	32336.57
517.318	32613.05
517.52	33059.51
517.722	33768.1
517.925	34605.72
518.127	35254.93
518.329	35771.02
518.531	35744.39
518.733	36917.88
518.935	37321.33
519.136	37868.14
519.338	38613.6
519.54	39273.04
519.742	39936.59
519.944	40174.15
520.146	41407.03
520.348	41560.62
520.55	41587.25
520.752	41919.02
520.954	42979.87
521.155	43061.79
521.357	43983.37
521.559	44507.65
521.761	45490.68
521.963	45482.48
522.164	46004.72
522.366	46166.51
522.568	46549.48
522.77	47040.99
522.971	47550.93
523.173	47258.07
523.375	47882.7
523.576	47833.55
523.778	48083.4
523.98	48810.43
524.181	48527.81
524.383	49021.37
524.584	49283.51
524.786	49336.76
524.988	48882.11
525.189	49387.96
525.391	49465.78
525.592	49682.87
525.794	50241.96
525.995	49871.28
526.197	49467.83
526.398	49359.29
526.6	49533.37
526.801	49037.76
527.003	49217.98
527.204	49140.16
527.406	48773.57
527.607	48898.5
527.808	48939.46
528.01	48251.34
528.211	47935.95
528.412	48507.33
528.614	47479.25
528.815	47417.82
529.016	47360.47
529.218	46035.44
529.419	46260.71
529.62	45875.69
529.822	45236.73
530.023	44839.42
530.224	44665.35
530.425	43987.47
530.626	43778.57
530.828	42770.97
531.029	43371.03
531.23	42488.35
531.431	41667.12
531.632	41749.04
531.833	41157.17
532.035	40452.67
532.236	40071.75
532.437	39850.57
532.638	38937.18
532.839	38609.5
533.04	38275.68
533.241	37550.7
533.442	37818.99
533.643	37229.17
533.844	36655.74
534.045	36024.96
534.246	35211.92
534.447	35252.88
534.648	34431.65
534.849	34329.25
535.05	33362.61
535.251	33063.6
535.451	32504.51
535.652	32213.7
535.853	32127.68
536.054	31357.64
536.255	31079.12
536.456	30218.97
536.657	30395.1
536.857	29754.08
537.058	29147.89
537.259	29233.9
537.46	28719.86
537.66	28142.33
537.861	27855.62
538.062	27648.77
538.263	26977.04
538.463	26622.74
538.664	26573.59
538.865	26454.81
539.065	26096.41
539.266	25408.29
539.466	25387.82
539.667	24658.74
539.868	24728.37
540.068	24034.11
540.269	23984.96
540.469	23886.65
540.67	23661.38
540.87	23268.17
541.071	23079.75
541.271	22598.48
541.472	22635.35
541.672	22201.18
541.873	21920.6
542.073	21547.87
542.274	21611.36
542.474	21308.26
542.675	20820.84
542.875	21207.91
543.075	20423.54
543.276	19905.4
543.476	20263.8
543.676	19692.41
543.877	19686.27
544.077	19495.81
544.277	18903.95
544.478	18994.06
544.678	18985.86
544.878	18428.82
545.078	18367.38
545.279	17882.01
545.479	17949.59
545.679	17683.36
545.879	17466.27
546.079	17187.75
546.28	16847.79
546.48	16898.98
546.68	16729
546.88	16513.97
547.08	16505.77
547.28	16022.45
547.48	15786.94
547.68	15915.96
547.88	15358.91
548.081	15422.4
548.281	15145.92
548.481	15076.29
548.681	15100.87
548.881	14623.69
549.081	14521.29
549.28	14193.62
549.48	14126.04
549.68	14001.11
549.88	13806.55
550.08	13294.56
550.28	13388.77
550.48	13247.46
550.68	13036.52
550.88	12643.31
551.08	12510.19
551.279	12545
551.479	12196.85
551.679	12211.18
551.879	11760.63
552.079	11734.01
552.278	11570.17
552.478	11422.72
552.678	11222.02
552.878	11181.06
553.077	10757.13
553.277	10509.32
553.477	10888.2
553.676	10329.1
553.876	10349.58
554.076	10222.61
554.275	9942.03
554.475	9608.22
554.674	9567.26
554.874	9405.47
555.074	9276.45
555.273	9243.68
555.473	9139.23
555.672	8666.15
555.872	8639.53
556.071	8639.53
556.271	8496.17
556.47	8404.01
556.67	8191.02
556.869	8303.66
557.068	7947.31
557.268	7828.53
557.467	7601.21
557.667	7642.17
557.866	7414.84
558.065	7390.27
558.265	7212.09
558.464	6921.28
558.663	7031.87
558.863	6761.54
559.062	6788.16
559.261	6597.7
559.461	6597.7
559.66	6353.99
559.859	6353.99
560.058	6054.99
560.258	6161.48
560.457	6118.48
560.656	6120.53
560.855	5745.75
561.054	5819.47
561.253	5741.65
561.453	5563.48
561.652	5305.43
561.851	5491.8
562.05	5227.61
562.249	5184.6
562.448	5133.4
562.647	4936.8
562.846	5004.38
563.045	5186.65
563.244	4910.18
563.443	4691.04
563.642	4525.16
563.841	4633.7
564.04	4508.77
564.239	4564.07
564.438	4490.34
564.637	4377.7
564.836	4293.74
565.035	4248.68
565.234	4271.21
565.432	4164.72
565.631	4086.89
565.83	4187.24
566.029	4052.08
566.228	3878
566.427	3894.38
566.625	3615.86
566.824	3718.26
567.023	3607.67
567.222	3642.48
567.42	3548.28
567.619	3595.38
567.818	3462.26
568.016	3796.08
568.215	3513.46
568.414	3470.45
568.612	3304.57
568.811	3247.23
569.01	3208.31
569.208	3185.79
569.407	3245.18
569.605	3218.55
569.804	3112.06
570.002	2983.04
570.201	2874.49
570.4	2925.69
570.598	2919.55
570.797	2776.19
570.995	2714.75
571.193	2827.39
571.392	2714.75
571.59	2552.96
571.789	2534.53
571.987	2565.25
572.186	2649.22
572.384	2462.85
572.582	2389.13
572.781	2524.29
572.979	2409.61
573.177	2290.82
573.376	2387.08
573.574	2350.21
573.772	2184.33
573.971	2182.28
574.169	2024.59
574.367	2245.77
574.565	2213
574.763	2024.59
574.962	2120.84
575.16	2081.93
575.358	1983.63
575.556	2028.68
575.754	1899.66
575.952	1846.41
576.151	1868.94
576.349	1858.7
576.547	1672.34
576.745	1770.64
576.943	1660.05
577.141	1760.4
577.339	1590.42
577.537	1713.3
577.735	1803.41
577.933	1705.1
578.131	1592.47
578.329	1686.67
578.527	1510.55
578.725	1647.76
578.923	1457.3
579.121	1512.6
579.319	1373.33
579.516	1512.6
579.714	1688.72
579.912	1477.78
580.11	1281.18
580.308	1307.8
580.506	1266.84
580.704	1193.11
580.901	1313.94
581.099	1334.42
581.297	1246.36
581.495	1315.99
581.692	1182.87
581.89	1324.18
582.088	1264.79
582.285	1197.21
582.483	1096.86
582.681	1189.02
582.878	1057.95
583.076	1168.54
583.274	1197.21
583.471	1195.16
583.669	1014.94
583.866	996.51
584.064	1033.37
584.262	855.2
584.459	1004.7
584.657	976.03
584.854	998.56
585.052	949.4
585.249	969.88
585.447	961.69
585.644	797.85
585.841	1019.04
586.039	912.54
586.236	961.69
586.434	887.97
586.631	840.86
586.828	791.71
587.026	887.97
587.223	736.42
587.42	847.01
587.618	853.15
587.815	943.26
588.012	830.62
588.21	746.66
588.407	847.01
588.604	822.43
588.801	717.98
588.999	771.23
589.196	855.2
589.393	767.13
589.59	689.31
589.787	722.08
589.984	670.88
590.182	756.9
590.379	672.93
590.576	740.51
590.773	713.89
590.97	572.58
591.167	679.07
591.364	720.03
591.561	609.44
591.758	744.61
591.955	804
592.152	695.46
592.349	629.92
592.546	619.68
592.743	627.87
592.94	652.45
593.137	674.98
593.334	711.84
593.531	763.04
593.727	806.05
593.924	773.28
594.121	662.69
594.318	650.4
594.515	689.31
594.712	867.49
594.908	801.95
595.105	597.15
595.302	699.55
595.499	775.33
595.696	853.15
595.892	619.68
596.089	830.62
596.286	705.7
596.482	902.3
596.679	933.02
596.876	797.85
597.072	939.16
597.269	840.86
597.466	984.22
597.662	906.4
597.859	945.31
598.055	902.3
598.252	930.97
598.448	1078.43
598.645	1121.43
598.841	1152.15
599.038	1242.26
599.234	1299.61
599.431	1254.55
599.627	1268.89
599.824	1334.42
600.02	1330.33
600.217	1381.53
600.413	1488.02
600.609	1473.68
600.806	1823.89
601.002	1522.84
601.198	1504.4
601.395	1838.22
601.591	1948.81
601.787	1916.05
601.984	2026.64
602.18	1887.37
602.376	2069.64
602.572	2145.42
602.769	2233.48
602.965	2299.02
603.161	2555.01
603.357	2528.39
603.553	2749.57
603.75	2565.25
603.946	2591.88
604.142	2843.78
604.338	2991.23
604.534	2888.83
604.73	3187.83
604.926	3124.35
605.122	3363.96
605.318	3245.18
605.514	3525.75
605.71	3585.14
605.906	3826.8
606.102	3751.03
606.298	3959.92
606.494	4043.88
606.69	4291.69
606.886	4281.45
607.082	4172.91
607.278	4357.22
607.474	4684.9
607.67	4795.49
607.866	4826.21
608.062	5092.44
608.257	5084.25
608.453	5086.3
608.649	5493.85
608.845	5352.54
609.041	5645.4
609.236	5778.51
609.432	5960.78
609.628	6265.93
609.824	6505.54
610.019	6433.86
610.215	6700.1
610.411	6882.37
610.606	6935.62
610.802	7142.46
610.998	7177.28
611.193	7623.73
611.389	7844.91
611.584	7980.08
611.78	8156.21
611.976	8318
612.171	8696.87
612.367	8963.11
612.562	9200.67
612.758	9245.73
612.953	9374.75
613.149	9722.9
613.344	9835.54
613.539	10265.61
613.735	10494.99
613.93	10943.49
614.126	11043.84
614.321	11414.52
614.517	11707.38
614.712	11983.86
614.907	12207.09
615.103	12663.79
615.298	12942.31
615.493	13460.45
615.688	13489.12
615.884	14083.03
616.079	14046.16
616.274	14572.49
616.47	14625.74
616.665	15457.21
616.86	15649.72
617.055	16114.61
617.25	16407.47
617.445	17046.44
617.641	17179.56
617.836	17640.35
618.031	17636.25
618.226	18625.42
618.421	18922.38
618.616	19377.03
618.811	19917.69
619.006	20593.52
619.201	20425.59
619.396	21044.07
619.591	21371.75
619.786	22299.48
619.981	22461.27
620.176	22942.54
620.371	23096.14
620.566	24111.93
620.761	24410.93
620.956	25232.17
621.151	25279.27
621.346	26039.07
621.541	26239.77
621.735	27110.16
621.93	27310.86
622.125	28046.08
622.32	27847.43
622.515	28918.51
622.709	29233.9
622.904	29887.2
623.099	30294.75
623.294	30921.43
623.488	31113.94
623.683	31953.6
623.878	32133.82
624.072	32828.09
624.267	33061.55
624.462	33796.77
624.656	34103.97
624.851	35244.69
625.046	35232.4
625.24	35797.64
625.435	36094.6
625.629	37065.33
625.824	37266.03
626.018	37804.65
626.213	37560.94
626.407	38462.05
626.602	38720.09
626.796	39467.6
626.991	39045.72
627.185	39905.87
627.38	39889.48
627.574	40288.84
627.768	40712.77
627.963	40421.95
628.157	40825.4
628.352	40706.62
628.546	40448.58
628.74	41142.84
628.935	40780.35
629.129	40888.89
629.323	40170.05
629.517	40096.33
629.712	39895.63
629.906	39623.25
630.1	38484.58
630.294	39197.27
630.489	38089.32
630.683	38304.35
630.877	37161.59
631.071	36450.94
631.265	35756.68
631.459	35222.16
631.653	34298.53
631.848	33331.89
632.042	32563.9
632.236	32047.81
632.43	31273.68
632.624	30472.92
632.818	29256.43
633.012	28064.51
633.206	27450.12
633.4	26606.36
633.594	25557.8
633.788	24888.11
633.982	24335.16
634.176	23337.8
634.369	22201.18
634.563	21468
634.757	20364.15
634.951	19762.05
635.145	18854.79
635.339	18285.46
635.533	17683.36
635.726	17245.09
635.92	16042.93
636.114	15778.75
636.308	14930.89
636.501	14351.31
636.695	13732.83
636.889	13251.55
637.083	12831.72
637.276	12016.63
637.47	11600.89
637.664	10923.01
637.857	10839.05
638.051	10261.52
638.244	10099.73
638.438	9456.67
638.632	9258.01
638.825	8674.34
639.019	8617
639.212	8002.61
639.406	7865.39
639.599	7550.01
639.793	7148.61
639.986	6896.71
640.18	6790.21
640.373	6380.62
640.567	5964.88
640.76	5989.46
640.954	5543
641.147	5407.83
641.34	5325.91
641.534	5180.51
641.727	4947.04
641.92	4631.65
642.114	4521.06
642.307	4238.44
642.5	4166.76
642.694	3898.48
642.887	3955.82
643.08	3826.8
643.273	3705.97
643.467	3419.25
643.66	3271.8
643.853	3173.5
644.046	3085.44
644.239	3011.71
644.432	2919.55
644.626	2645.12
644.819	2757.76
645.012	2602.11
645.205	2452.61
645.398	2466.95
645.591	2272.39
645.784	2098.31
645.977	2067.6
646.17	2094.22
646.363	1942.67
646.556	1823.89
646.749	1746.06
646.942	1703.06
647.135	1719.44
647.328	1510.55
647.521	1596.56
647.714	1440.92
647.907	1432.72
648.099	1393.81
648.292	1432.72
648.485	1371.29
648.678	1141.91
648.871	1094.81
649.064	1096.86
649.256	1109.15
649.449	1045.66
649.642	861.34
649.835	1012.89
650.027	949.4
650.22	978.08
650.413	781.47
650.605	1027.23
650.798	849.05
650.991	853.15
651.183	674.98
651.376	801.95
651.568	785.57
651.761	724.13
651.954	781.47
652.146	629.92
652.339	664.74
652.531	769.18
652.724	556.19
652.916	492.71
653.109	437.41
653.301	679.07
653.494	607.39
653.686	595.11
653.879	588.96
654.071	527.52
654.263	433.32
654.456	476.32
654.648	541.86
654.84	523.43
655.033	515.23
655.225	644.26
655.417	300.2
655.61	441.51
655.802	449.7
655.994	515.23
656.186	355.49
656.379	464.04
656.571	345.25
656.763	375.97
656.955	298.15
657.148	367.78
657.34	365.73
657.532	306.34
657.724	343.21
657.916	339.11
658.108	412.84
658.3	341.16
658.492	296.1
658.684	240.81
658.876	359.59
659.068	294.05
659.26	171.18
659.452	183.46
659.644	216.23
659.836	388.26
660.028	292.01
660.22	265.38
660.412	332.97
660.604	228.52
660.796	236.71
660.988	375.97
661.18	306.34
661.372	214.18
661.563	259.24
661.755	203.94
661.947	119.98
662.139	162.98
662.331	226.47
662.522	285.86
662.714	181.42
662.906	115.88
663.097	189.61
663.289	99.5
663.481	146.6
663.673	154.79
663.864	189.61
664.056	197.8
664.247	109.74
664.439	232.62
664.631	117.93
664.822	171.18
665.014	165.03
665.205	105.64
665.397	181.42
665.588	210.09
665.78	169.13
665.971	265.38
666.163	85.16
666.354	244.9
666.546	150.7
666.737	156.84
666.929	162.98
667.12	124.07
667.311	124.07
667.503	150.7
667.694	162.98
667.885	179.37
668.077	203.94
668.268	31.91
668.459	132.26
668.651	173.22
668.842	158.89
669.033	87.21
669.224	23.72
669.416	316.58
669.607	191.66
669.798	150.7
669.989	199.85
670.18	203.94
670.371	189.61
670.563	144.55
670.754	177.32
670.945	105.64
671.136	146.6
671.327	140.46
671.518	183.46
671.709	249
671.9	171.18
672.091	238.76
672.282	208.04
672.473	111.78
672.664	99.5
672.855	132.26
673.046	165.03
673.237	242.85
673.428	144.55
673.619	99.5
673.809	52.39
674	128.17
674.191	238.76
674.382	138.41
674.573	130.22
674.764	175.27
674.954	244.9
675.145	126.12
675.336	144.55
675.527	89.26
675.717	91.31
675.908	38.06
676.099	119.98
676.289	79.02
676.48	87.21
676.671	218.28
676.861	105.64
677.052	193.7
677.243	107.69
677.433	62.63
677.624	234.66
677.814	140.46
678.005	185.51
678.195	216.23
678.386	109.74
678.576	134.31
678.767	52.39
678.957	58.54
679.148	232.62
679.338	234.66
679.529	167.08
679.719	113.83
679.909	199.85
680.1	246.95
680.29	138.41
680.481	87.21
680.671	189.61
680.861	154.79
681.052	185.51
681.242	113.83
681.432	226.47
681.622	212.14
681.813	31.91
682.003	187.56
682.193	175.27
682.383	181.42
682.573	152.74
682.764	228.52
682.954	122.02
683.144	220.33
683.334	130.22
683.524	181.42
683.714	216.23
683.904	189.61
684.094	140.46
684.284	302.25
684.474	249
684.664	257.19
684.854	179.37
685.044	177.32
685.234	162.98
685.424	105.64
685.614	148.65
685.804	244.9
685.994	191.66
686.184	179.37
686.374	242.85
686.564	203.94
686.753	212.14
686.943	85.16
687.133	97.45
687.323	193.7
687.513	193.7
687.702	171.18
687.892	105.64
688.082	253.09
688.272	232.62
688.461	171.18
688.651	361.64
688.841	236.71
689.03	115.88
689.22	152.74
689.41	201.9
689.599	203.94
689.789	62.63
689.979	347.3
690.168	212.14
690.358	220.33
690.547	167.08
690.737	199.85
690.926	195.75
691.116	281.77
691.305	175.27
691.495	167.08
691.684	101.55
691.874	126.12
692.063	160.94
692.252	316.58
692.442	199.85
692.631	212.14
692.82	205.99
693.01	236.71
693.199	236.71
693.388	218.28
693.578	162.98
693.767	269.48
693.956	193.7
694.146	218.28
694.335	242.85
694.524	203.94
694.713	273.57
694.902	126.12
695.092	101.55
695.281	126.12
695.47	109.74
695.659	173.22
695.848	193.7
696.037	79.02
696.226	269.48
696.415	158.89
696.604	214.18
696.793	230.57
696.982	148.65
697.171	203.94
697.36	140.46
697.549	173.22
697.738	113.83
697.927	115.88
698.116	93.35
698.305	177.32
698.494	185.51
698.683	115.88
698.872	281.77
699.061	210.09
699.25	105.64
699.438	201.9
699.627	222.38
699.816	232.62
700.005	52.39
700.193	189.61
700.382	195.75
700.571	232.62
700.76	234.66
700.948	236.71
701.137	246.95
701.326	275.62
701.514	91.31
701.703	228.52
701.892	273.57
702.08	285.86
702.269	203.94
702.457	117.93
702.646	302.25
702.834	167.08
703.023	324.77
703.212	230.57
703.4	214.18
703.589	152.74
703.777	179.37
703.965	181.42
704.154	177.32
704.342	177.32
704.531	171.18
704.719	201.9
704.907	236.71
705.096	158.89
705.284	117.93
705.472	253.09
705.661	175.27
705.849	298.15
706.037	212.14
706.226	191.66
706.414	232.62
706.602	70.83
706.79	228.52
706.979	79.02
707.167	189.61
707.355	66.73
707.543	230.57
707.731	201.9
707.919	183.46
708.107	152.74
708.296	128.17
708.484	150.7
708.672	181.42
708.86	251.05
709.048	162.98
709.236	56.49
709.424	187.56
709.612	261.29
709.8	105.64
709.988	193.7
710.176	253.09
710.364	257.19
710.551	132.26
710.739	130.22
710.927	171.18
711.115	103.59
711.303	189.61
711.491	191.66
711.679	191.66
711.866	214.18
712.054	165.03
712.242	218.28
712.43	275.62
712.617	191.66
712.805	300.2
712.993	136.36
713.181	58.54
713.368	187.56
713.556	138.41
713.744	181.42
713.931	398.5
714.119	261.29
714.306	130.22
714.494	165.03
714.682	152.74
714.869	72.87
715.057	167.08
715.244	70.83
715.432	199.85
715.619	138.41
715.807	171.18
715.994	216.23
716.182	212.14
716.369	212.14
716.556	308.39
716.744	126.12
716.931	111.78
717.119	156.84
717.306	181.42
717.493	281.77
717.681	181.42
717.868	195.75
718.055	238.76
718.242	154.79
718.43	230.57
718.617	238.76
718.804	220.33
718.991	195.75
719.179	181.42
719.366	224.42
719.553	304.29
719.74	232.62
719.927	183.46
720.114	201.9
720.301	167.08
720.488	113.83
720.676	89.26
720.863	361.64
721.05	246.95
721.237	197.8
721.424	236.71
721.611	224.42
721.798	152.74
721.985	156.84
722.172	191.66
722.358	173.22
722.545	236.71
722.732	152.74
722.919	343.21
723.106	261.29
723.293	191.66
723.48	220.33
723.667	165.03
723.853	263.33
724.04	259.24
724.227	158.89
724.414	302.25
724.6	208.04
724.787	332.97
724.974	367.78
725.161	201.9
725.347	171.18
725.534	308.39
725.72	230.57
725.907	292.01
726.094	246.95
726.28	148.65
726.467	177.32
726.653	203.94
726.84	273.57
727.027	408.74
727.213	205.99
727.4	279.72
727.586	246.95
727.773	208.04
727.959	263.33
728.145	212.14
728.332	185.51
728.518	122.02
728.705	199.85
728.891	220.33
729.077	220.33
729.264	169.13
729.45	173.22
729.636	294.05
729.823	275.62
730.009	271.53
730.195	289.96
730.382	265.38
730.568	162.98
730.754	220.33
730.94	238.76
731.126	183.46
731.313	283.81
731.499	224.42
731.685	255.14
731.871	208.04
732.057	183.46
732.243	271.53
732.429	261.29
732.615	283.81
732.801	287.91
732.987	175.27
733.173	292.01
733.359	224.42
733.545	261.29
733.731	193.7
733.917	298.15
734.103	263.33
734.289	298.15
734.475	177.32
734.661	390.31
734.847	154.79
735.033	185.51
735.219	283.81
735.404	244.9
735.59	165.03
735.776	185.51
735.962	312.49
736.148	267.43
736.333	339.11
736.519	324.77
736.705	175.27
736.89	283.81
737.076	310.44
737.262	144.55
737.447	183.46
737.633	216.23
737.819	339.11
738.004	240.81
738.19	253.09
738.375	263.33
738.561	318.63
738.747	249
738.932	156.84
739.118	345.25
739.303	330.92
739.489	292.01
739.674	171.18
739.859	191.66
740.045	269.48
740.23	269.48
740.416	150.7
740.601	269.48
740.786	306.34
740.972	148.65
741.157	218.28
741.342	212.14
741.528	72.87
741.713	281.77
741.898	210.09
742.084	234.66
742.269	285.86
742.454	265.38
742.639	251.05
742.824	212.14
743.01	285.86
743.195	367.78
743.38	312.49
743.565	251.05
743.75	240.81
743.935	263.33
744.12	308.39
744.305	220.33
744.49	136.36
744.675	205.99
744.86	283.81
745.045	251.05
745.23	222.38
745.415	212.14
745.6	294.05
745.785	259.24
745.97	275.62
746.155	214.18
746.34	283.81
746.525	142.5
746.71	281.77
746.895	109.74
747.079	119.98
747.264	199.85
747.449	294.05
747.634	292.01
747.819	255.14
748.003	226.47
748.188	124.07
748.373	300.2
748.557	228.52
748.742	179.37
748.927	177.32
749.111	183.46
749.296	177.32
749.481	249
749.665	205.99
749.85	156.84
750.034	244.9
750.219	154.79
750.404	216.23
750.588	220.33
750.773	130.22
750.957	238.76
751.141	277.67
751.326	242.85
751.51	117.93
751.695	113.83
751.879	132.26
752.064	302.25
752.248	205.99
752.432	316.58
752.617	273.57
752.801	193.7
752.985	103.59
753.17	296.1
753.354	234.66
753.538	279.72
753.722	218.28
753.907	99.5
754.091	146.6
754.275	193.7
754.459	70.83
754.643	150.7
754.828	240.81
755.012	218.28
755.196	66.73
755.38	146.6
755.564	142.5
755.748	165.03
755.932	246.95
756.116	300.2
756.3	187.56
756.484	130.22
756.668	203.94
756.852	31.91
757.036	177.32
757.22	160.94
757.404	191.66
757.588	210.09
757.772	175.27
757.956	167.08
758.14	244.9
758.323	111.78
758.507	193.7
758.691	130.22
758.875	226.47
759.059	210.09
759.242	142.5
759.426	175.27
759.61	111.78
759.794	44.2
759.977	214.18
760.161	386.21
760.345	259.24
760.528	257.19
760.712	169.13
760.895	181.42
761.079	111.78
761.263	136.36
761.446	113.83
761.63	152.74
761.813	201.9
761.997	115.88
762.18	165.03
762.364	134.31
762.547	31.91
762.731	79.02
762.914	99.5
763.098	136.36
763.281	117.93
763.464	124.07
763.648	111.78
763.831	103.59
764.015	40.11
764.198	177.32
764.381	83.11
764.564	46.25
764.748	162.98
764.931	144.55
765.114	101.55
765.297	130.22
765.481	-7
765.664	150.7
765.847	122.02
766.03	181.42
766.213	44.2
766.397	105.64
766.58	-25.43
766.763	142.5
766.946	117.93
767.129	48.3
767.312	62.63
767.495	68.78
767.678	62.63
767.861	128.17
768.044	119.98
768.227	56.49
768.41	52.39
768.593	134.31
768.776	72.87
768.959	126.12
769.142	203.94
769.324	42.15
769.507	124.07
769.69	132.26
769.873	167.08
770.056	316.58
770.239	56.49
770.421	191.66
770.604	134.31
770.787	40.11
770.97	117.93
771.152	105.64
771.335	105.64
771.518	17.58
771.7	156.84
771.883	226.47
772.066	132.26
772.248	173.22
772.431	136.36
772.613	162.98
772.796	7.34
772.978	93.35
773.161	173.22
773.343	29.87
773.526	64.68
773.708	68.78
773.891	-76.63
774.073	68.78
774.256	101.55
774.438	212.14
774.621	17.58
774.803	195.75
774.985	95.4
775.168	152.74
775.35	91.31
775.532	191.66
775.715	68.78
775.897	136.36
776.079	150.7
776.261	183.46
776.444	128.17
776.626	103.59
776.808	109.74
776.99	-78.68
777.173	91.31
777.355	119.98
777.537	68.78
777.719	58.54
777.901	-7
778.083	72.87
778.265	40.11
778.447	187.56
778.629	38.06
778.811	101.55
778.993	101.55
779.175	72.87
779.357	138.41
779.539	-74.58
779.721	54.44
779.903	81.07
780.085	54.44
780.267	134.31
780.449	46.25
780.631	246.95
780.812	226.47
780.994	-4.95
781.176	101.55
781.358	87.21
781.54	44.2
781.721	128.17
781.903	66.73
782.085	48.3
782.267	103.59
782.448	-58.2
782.63	83.11
782.812	21.67
782.993	91.31
783.175	79.02
783.357	42.15
783.538	173.22
783.72	33.96
783.901	122.02
784.083	62.63
784.264	89.26
784.446	-58.2
784.627	-9.05
784.809	128.17
784.99	76.97
785.172	79.02
785.353	74.92
785.535	85.16
785.716	5.29
785.897	40.11
786.079	50.35
786.26	79.02
786.441	103.59
786.623	-2.9
786.804	27.82
786.985	89.26
787.167	66.73
787.348	62.63
787.529	-9.05
787.71	185.51
787.891	93.35
788.073	27.82
788.254	-60.24
788.435	81.07
788.616	36.01
788.797	19.63
788.978	-2.9
789.159	3.24
789.34	138.41
789.522	29.87
789.703	33.96
789.884	19.63
790.065	64.68
790.246	158.89
790.427	72.87
790.607	195.75
790.788	173.22
790.969	-50
791.15	44.2
791.331	56.49
791.512	-7
791.693	-23.38
791.874	19.63
792.054	251.05
792.235	85.16
792.416	11.43
792.597	-33.62
792.778	130.22
792.958	101.55
793.139	21.67
793.32	19.63
793.5	-27.48
793.681	183.46
793.862	89.26
794.042	64.68
794.223	-76.63
794.404	-43.86
794.584	13.48
794.765	56.49
794.945	50.35
795.126	38.06
795.306	56.49
795.487	3.24
795.667	29.87
795.848	-0.85
796.028	13.48
796.209	7.34
796.389	154.79
796.57	31.91
796.75	-88.92
796.93	87.21
797.111	29.87
797.291	-0.85
797.471	97.45
797.652	7.34
797.832	-29.52
798.012	56.49
798.192	21.67
798.373	-70.48
798.553	68.78
798.733	42.15
798.913	-39.76
799.093	48.3
799.274	11.43
799.454	107.69
799.634	109.74
799.814	91.31
799.994	89.26
800.174	-2.9
800.354	19.63
800.534	-33.62
800.714	154.79
800.894	50.35
801.074	-90.96
801.254	-33.62
801.434	158.89
801.614	36.01
801.794	17.58
801.974	1895.57
802.154	-17.24
802.334	160.94
802.514	-9.05
802.693	-19.29
802.873	-45.91
803.053	132.26
803.233	103.59
803.413	38.06
803.592	5.29
803.772	25.77
803.952	70.83
804.131	-45.91
804.311	70.83
804.491	173.22
804.67	23.72
804.85	-43.86
805.03	-21.33
805.209	138.41
805.389	5.29
805.568	29.87
805.748	56.49
805.928	21.67
806.107	23.72
806.287	62.63
806.466	105.64
806.646	-11.09
806.825	42.15
807.004	5.29
807.184	144.55
807.363	38.06
807.543	42.15
807.722	-47.96
807.901	152.74
808.081	72.87
808.26	-154.45
808.439	68.78
808.619	74.92
808.798	42.15
808.977	60.59
809.156	50.35
809.336	-23.38
809.515	76.97
809.694	13.48
809.873	-33.62
810.052	50.35
810.231	142.5
810.411	62.63
810.59	140.46
810.769	74.92
810.948	124.07
811.127	-58.2
811.306	-54.1
811.485	7.34
811.664	124.07
811.843	19.63
812.022	79.02
812.201	68.78
812.38	-23.38
812.559	15.53
812.737	48.3
812.916	-131.92
813.095	-33.62
813.274	74.92
813.453	-17.24
813.632	48.3
813.811	36.01
813.989	-56.15
814.168	76.97
814.347	9.39
814.526	17.58
814.704	72.87
814.883	117.93
815.062	-2.9
815.24	107.69
815.419	-78.68
815.598	66.73
815.776	-37.72
815.955	81.07
816.133	-62.29
816.312	44.2
816.49	3.24
816.669	-9.05
816.847	-15.19
817.026	13.48
817.204	-50
817.383	-4.95
817.561	-17.24
817.74	111.78
817.918	31.91
818.097	9.39
818.275	-41.81
818.453	124.07
818.632	-19.29
818.81	46.25
818.988	-27.48
819.167	-43.86
819.345	36.01
819.523	27.82
819.701	87.21
819.879	132.26
820.058	-35.67
820.236	-15.19
820.414	72.87
820.592	-11.09
820.77	31.91
820.948	3.24
821.127	29.87
821.305	95.4
821.483	-47.96
821.661	103.59
821.839	56.49
822.017	-17.24
822.195	-13.14
822.373	76.97
822.551	-39.76
822.729	38.06
822.907	19.63
823.085	60.59
823.262	13.48
823.44	29.87
823.618	-64.34
823.796	-31.57
823.974	38.06
824.152	-41.81
824.329	-54.1
824.507	48.3
824.685	117.93
824.863	33.96
825.04	3.24
825.218	107.69
825.396	42.15
825.574	-7
825.751	-27.48
825.929	122.02
826.107	21.67
826.284	-7
826.462	33.96
826.639	-54.1
826.817	-50
826.994	27.82
827.172	-123.73
827.349	162.98
827.527	68.78
827.704	52.39
827.882	117.93
828.059	44.2
828.237	-9.05
828.414	52.39
828.591	-58.2
828.769	64.68
828.946	-52.05
829.124	93.35
829.301	119.98
829.478	5.29
829.655	132.26
829.833	-7
830.01	-146.26
830.187	87.21
830.364	66.73
830.542	70.83
830.719	101.55
830.896	23.72
831.073	87.21
831.25	42.15
831.427	113.83
831.604	72.87
831.782	33.96
831.959	-31.57
832.136	-56.15
832.313	113.83
832.49	-0.85
832.667	68.78
832.844	-58.2
833.021	79.02
833.198	56.49
833.374	-9.05
833.551	79.02
833.728	13.48
833.905	97.45
834.082	-123.73
834.259	44.2
834.436	169.13
834.612	-68.44
834.789	54.44
834.966	19.63
835.143	50.35
835.319	-107.35
835.496	140.46
835.673	17.58
835.85	109.74
836.026	130.22
836.203	81.07
836.38	-43.86
836.556	9.39
836.733	5.29
836.909	138.41
837.086	-11.09
837.262	-15.19
837.439	-68.44
837.616	-11.09
837.792	15.53
837.968	1.19
838.145	-90.96
838.321	-7
838.498	76.97
838.674	54.44
838.851	-13.14
839.027	5.29
839.203	46.25
839.38	76.97
839.556	17.58
839.732	95.4
839.909	1.19
840.085	29.87
840.261	-7
840.437	54.44
840.614	-9.05
840.79	130.22
840.966	97.45
841.142	1.19
841.318	3.24
841.494	54.44
841.671	95.4
841.847	-9.05
842.023	-68.44
842.199	64.68
842.375	91.31
842.551	-76.63
842.727	-29.52
842.903	185.51
843.079	-60.24
843.255	165.03
843.431	15.53
843.607	36.01
843.783	-80.72
843.959	-0.85
844.134	-58.2
844.31	130.22
844.486	19.63
844.662	-23.38
844.838	17.58
845.013	56.49
845.189	95.4
845.365	89.26
845.541	58.54
845.716	89.26
845.892	60.59
846.068	-45.91
846.244	-33.62
846.419	40.11
846.595	-23.38
846.77	-60.24
846.946	93.35
847.122	-50
847.297	-93.01
847.473	136.36
847.648	-50
847.824	11.43
847.999	-78.68
848.175	11.43
848.35	58.54
848.526	146.6
848.701	54.44
848.876	124.07
849.052	15.53
849.227	27.82
849.403	-50
849.578	79.02
849.753	42.15
849.929	87.21
850.104	-74.58
850.279	5.29
850.454	-15.19
850.63	52.39
850.805	-21.33
850.98	40.11
851.155	44.2
851.33	46.25
851.505	-70.48
851.681	64.68
851.856	-25.43
852.031	76.97
852.206	62.63
852.381	7.34
852.556	-11.09
852.731	9.39
852.906	105.64
853.081	27.82
853.256	134.31
853.431	-60.24
853.606	-11.09
853.781	-7
853.956	-47.96
854.131	70.83
854.305	-54.1
854.48	-13.14
854.655	29.87
854.83	-76.63
855.005	5.29
855.18	-52.05
855.354	-17.24
855.529	-4.95
855.704	-9.05
855.879	64.68
856.053	-84.82
856.228	95.4
856.403	9.39
856.577	33.96
856.752	1.19
856.926	-7
857.101	48.3
857.276	-70.48
857.45	40.11
857.625	46.25
857.799	3.24
857.974	64.68
858.148	-88.92
858.323	5.29
858.497	21.67
858.672	-33.62
858.846	-21.33
859.02	101.55
859.195	-64.34
859.369	-41.81
859.543	-9.05
859.718	-50
859.892	-13.14
860.066	7.34
860.241	-0.85
860.415	-11.09
860.589	-19.29
860.763	-52.05
860.938	-80.72
861.112	50.35
861.286	-37.72
861.46	122.02
861.634	-4.95
861.808	119.98
861.982	-50
862.157	-101.2
862.331	19.63
862.505	1.19
862.679	-39.76
862.853	72.87
863.027	25.77
863.201	101.55
863.375	-0.85
863.549	33.96
863.722	13.48
863.896	111.78
864.07	-80.72
864.244	-78.68
864.418	91.31
864.592	1.19
864.766	38.06
864.939	103.59
865.113	13.48
865.287	115.88
865.461	11.43
865.634	-17.24
865.808	54.44
865.982	-21.33
866.156	-84.82
866.329	-52.05
866.503	-4.95
866.676	87.21
866.85	21.67
867.024	11.43
867.197	109.74
867.371	91.31
867.544	29.87
867.718	-64.34
867.891	99.5
868.065	-129.88
868.238	3.24
868.412	136.36
868.585	-19.29
868.759	11.43
868.932	-25.43
869.105	-19.29
869.279	-17.24
869.452	-76.63
869.625	40.11
869.799	-15.19
869.972	-76.63
870.145	66.73
870.319	99.5
870.492	-7
870.665	-9.05
870.838	-21.33
871.011	-138.07
871.185	-0.85
871.358	50.35
871.531	-2.9
871.704	56.49
871.877	31.91
872.05	-45.91
872.223	7.34
872.396	72.87
872.569	81.07
872.742	-90.96
872.915	66.73
873.088	-35.67
873.261	31.91
873.434	89.26
873.607	64.68
873.78	62.63
873.953	1.19
874.126	-19.29
874.299	99.5
874.471	23.72
874.644	-52.05
874.817	105.64
874.99	105.64
875.163	-52.05
875.335	74.92
875.508	-29.52
875.681	126.12
875.853	11.43
876.026	25.77
876.199	42.15
876.371	79.02
876.544	-7
876.717	62.63
876.889	5.29
877.062	93.35
877.234	-50
877.407	-25.43
877.579	70.83
877.752	13.48
877.924	-66.39
878.097	33.96
878.269	-21.33
878.442	81.07
878.614	62.63
878.786	101.55
878.959	81.07
879.131	103.59
879.303	-43.86
879.476	64.68
879.648	115.88
879.82	11.43
879.993	42.15
880.165	17.58
880.337	-17.24
880.509	13.48
880.681	-43.86
880.854	-4.95
881.026	60.59
881.198	158.89
881.37	13.48
881.542	115.88
881.714	13.48
881.886	-72.53
882.058	23.72
882.23	-31.57
882.402	25.77
882.574	-2.9
882.746	150.7
882.918	126.12
883.09	58.54
883.262	27.82
883.434	128.17
883.606	-88.92
883.778	9.39
883.95	130.22
884.122	60.59
884.293	-66.39
884.465	17.58
884.637	93.35
884.809	1.19
884.98	9.39
885.152	44.2
885.324	36.01
885.496	-47.96
885.667	38.06
885.839	17.58
886.011	119.98
886.182	70.83
886.354	56.49
886.525	74.92
886.697	7.34
886.869	1.19
887.04	-45.91
887.212	85.16
887.383	165.03
887.555	72.87
887.726	-27.48
887.897	83.11
888.069	-31.57
888.24	74.92
888.412	36.01
888.583	-58.2
888.754	11.43
888.926	-15.19
889.097	3.24
889.268	-47.96
889.44	-17.24
889.611	23.72
889.782	-7
889.953	-50
890.125	74.92
890.296	-66.39
890.467	-72.53
890.638	25.77
890.809	54.44
890.98	-33.62
891.151	36.01
891.323	103.59
891.494	36.01
891.665	52.39
891.836	38.06
892.007	13.48
892.178	126.12
892.349	58.54
892.52	15.53
892.691	87.21
892.862	9.39
893.032	-60.24
893.203	-0.85
893.374	56.49
893.545	40.11
893.716	-41.81
893.887	44.2
894.057	-4.95
894.228	-2.9
894.399	-0.85
894.57	124.07
894.74	-4.95
894.911	97.45
895.082	93.35
895.253	-43.86
895.423	17.58
895.594	64.68
895.764	136.36
895.935	-78.68
896.106	107.69
896.276	-52.05
896.447	19.63
896.617	-68.44
896.788	-142.16
896.958	1.19
897.129	-70.48
897.299	-41.81
897.47	117.93
897.64	17.58
897.81	33.96
897.981	-23.38
898.151	52.39
898.322	-17.24
898.492	-19.29
898.662	11.43
898.832	11.43
899.003	-37.72
899.173	64.68
899.343	-70.48
899.513	-41.81
