Data from USB4F104151__62__10-43-50-574.txt Node

Date: Wed Feb 26 10:43:50 EST 2025
User: louis
Spectrometer: USB4F10415
Trigger mode: 4
Integration Time (sec): 1.000000E-1
Scans to average: 1
Electric dark correction enabled: true
Nonlinearity correction enabled: false
Boxcar width: 0
XAxis mode: Wavelengths
Number of Pixels in Spectrum: 3648
>>>>>Begin Spectral Data<<<<<
178.204	-336.55
178.424	-336.55
178.644	-336.55
178.864	-375.46
179.084	-432.8
179.304	1.37
179.524	-53.93
179.744	-53.93
179.964	-6.83
180.184	3.41
180.404	56.66
180.624	-49.83
180.844	3.41
181.064	-21.16
181.283	50.52
181.503	-31.4
181.723	101.72
181.943	-88.75
182.163	265.55
182.383	-35.5
182.602	-23.21
182.822	75.09
183.042	50.52
183.262	21.85
183.482	-8.87
183.701	52.56
183.921	40.28
184.141	-105.13
184.361	77.14
184.58	107.86
184.8	54.61
185.02	40.28
185.239	101.72
185.459	21.85
185.679	161.11
185.898	-39.59
186.118	50.52
186.338	124.24
186.557	116.05
186.777	-19.11
186.997	-4.78
187.216	19.8
187.436	202.07
187.655	52.56
187.875	161.11
188.095	13.65
188.314	159.06
188.534	116.05
188.753	-39.59
188.973	95.57
189.192	109.91
189.412	-27.31
189.631	21.85
189.851	62.8
190.07	101.72
190.29	56.66
190.509	-15.02
190.729	56.66
190.948	83.28
191.168	286.03
191.387	87.38
191.607	87.38
191.826	132.44
192.045	34.13
192.265	3.41
192.484	40.28
192.704	-15.02
192.923	-105.13
193.142	200.02
193.362	146.77
193.581	206.16
193.8	83.28
194.02	93.52
194.239	91.48
194.458	87.38
194.678	-49.83
194.897	-37.55
195.116	23.89
195.335	142.68
195.555	44.37
195.774	62.8
195.993	95.57
196.212	32.08
196.432	1.37
196.651	64.85
196.87	23.89
197.089	251.22
197.308	54.61
197.528	87.38
197.747	15.7
197.966	105.81
198.185	179.54
198.404	-66.22
198.623	79.19
198.842	116.05
199.062	109.91
199.281	157.01
199.5	52.56
199.719	25.94
199.938	-12.97
200.157	114
200.376	142.68
200.595	142.68
200.814	38.23
201.033	-27.31
201.252	243.03
201.471	46.42
201.69	54.61
201.909	81.24
202.128	114
202.347	83.28
202.566	60.76
202.785	-6.83
203.004	40.28
203.223	173.39
203.442	87.38
203.661	-31.4
203.879	48.47
204.098	195.92
204.317	-0.68
204.536	68.95
204.755	52.56
204.974	173.39
205.193	-4.78
205.411	116.05
205.63	83.28
205.849	73.04
206.068	-45.74
206.287	-8.87
206.505	183.63
206.724	-10.92
206.943	44.37
207.162	-25.26
207.381	109.91
207.599	17.75
207.818	17.75
208.037	-33.45
208.255	48.47
208.474	81.24
208.693	36.18
208.911	62.8
209.13	103.76
209.349	66.9
209.567	81.24
209.786	42.32
210.005	109.91
210.223	66.9
210.442	-162.47
210.661	17.75
210.879	7.51
211.098	105.81
211.316	32.08
211.535	111.96
211.753	111.96
211.972	111.96
212.191	87.38
212.409	-19.11
212.628	144.72
212.846	36.18
213.065	40.28
213.283	150.87
213.502	1.37
213.72	38.23
213.938	25.94
214.157	58.71
214.375	120.15
214.594	46.42
214.812	75.09
215.031	89.43
215.249	32.08
215.467	85.33
215.686	32.08
215.904	11.61
216.122	44.37
216.341	181.59
216.559	157.01
216.778	109.91
216.996	56.66
217.214	167.25
217.432	140.63
217.651	-33.45
217.869	48.47
218.087	73.04
218.306	89.43
218.524	27.99
218.742	17.75
218.96	159.06
219.179	56.66
219.397	-12.97
219.615	206.16
219.833	83.28
220.051	-0.68
220.27	68.95
220.488	208.21
220.706	83.28
220.924	27.99
221.142	-21.16
221.36	66.9
221.578	62.8
221.796	-51.88
222.015	32.08
222.233	44.37
222.451	95.57
222.669	-4.78
222.887	122.2
223.105	1.37
223.323	9.56
223.541	-35.5
223.759	5.46
223.977	87.38
224.195	200.02
224.413	58.71
224.631	40.28
224.849	68.95
225.067	109.91
225.285	79.19
225.503	-35.5
225.721	-92.84
225.939	-21.16
226.157	56.66
226.375	222.55
226.592	-2.73
226.81	48.47
227.028	105.81
227.246	109.91
227.464	95.57
227.682	138.58
227.9	122.2
228.117	50.52
228.335	89.43
228.553	105.81
228.771	9.56
228.989	40.28
229.206	56.66
229.424	44.37
229.642	-19.11
229.86	23.89
230.077	83.28
230.295	27.99
230.513	71
230.731	87.38
230.948	185.68
231.166	144.72
231.384	73.04
231.601	-27.31
231.819	247.12
232.037	-33.45
232.254	1.37
232.472	-62.12
232.689	-10.92
232.907	93.52
233.125	-21.16
233.342	23.89
233.56	21.85
233.777	52.56
233.995	83.28
234.213	118.1
234.43	124.24
234.648	13.65
234.865	-43.69
235.083	107.86
235.3	48.47
235.518	144.72
235.735	109.91
235.953	124.24
236.17	3.41
236.388	46.42
236.605	46.42
236.822	46.42
237.04	167.25
237.257	105.81
237.475	77.14
237.692	52.56
237.909	85.33
238.127	-19.11
238.344	128.34
238.562	48.47
238.779	-70.31
238.996	11.61
239.214	73.04
239.431	126.29
239.648	-23.21
239.865	120.15
240.083	85.33
240.3	1.37
240.517	126.29
240.735	107.86
240.952	136.53
241.169	64.85
241.386	120.15
241.603	13.65
241.821	-51.88
242.038	91.48
242.255	148.82
242.472	11.61
242.689	81.24
242.907	5.46
243.124	54.61
243.341	40.28
243.558	-62.12
243.775	-60.07
243.992	-84.65
244.209	105.81
244.426	148.82
244.643	27.99
244.86	142.68
245.078	75.09
245.295	91.48
245.512	79.19
245.729	95.57
245.946	105.81
246.163	116.05
246.38	-80.55
246.597	105.81
246.814	95.57
247.031	17.75
247.248	42.32
247.464	97.62
247.681	79.19
247.898	107.86
248.115	1.37
248.332	-25.26
248.549	50.52
248.766	208.21
248.983	85.33
249.2	159.06
249.417	144.72
249.633	21.85
249.85	64.85
250.067	107.86
250.284	97.62
250.501	44.37
250.717	95.57
250.934	32.08
251.151	58.71
251.368	116.05
251.585	36.18
251.801	17.75
252.018	-23.21
252.235	95.57
252.451	-19.11
252.668	66.9
252.885	157.01
253.102	34.13
253.318	19.8
253.535	-39.59
253.752	-27.31
253.968	36.18
254.185	-37.55
254.401	38.23
254.618	87.38
254.835	-19.11
255.051	120.15
255.268	95.57
255.484	126.29
255.701	42.32
255.917	46.42
256.134	-74.41
256.351	44.37
256.567	91.48
256.784	46.42
257	-33.45
257.217	150.87
257.433	99.67
257.65	34.13
257.866	50.52
258.082	-4.78
258.299	-31.4
258.515	46.42
258.732	1.37
258.948	7.51
259.165	42.32
259.381	-29.35
259.597	91.48
259.814	34.13
260.03	44.37
260.246	42.32
260.463	101.72
260.679	152.92
260.895	38.23
261.112	79.19
261.328	111.96
261.544	-41.64
261.761	148.82
261.977	52.56
262.193	-8.87
262.409	79.19
262.626	66.9
262.842	5.46
263.058	-15.02
263.274	109.91
263.49	71
263.707	107.86
263.923	140.63
264.139	13.65
264.355	48.47
264.571	148.82
264.787	-19.11
265.004	120.15
265.22	93.52
265.436	44.37
265.652	150.87
265.868	42.32
266.084	-23.21
266.3	5.46
266.516	-19.11
266.732	5.46
266.948	62.8
267.164	118.1
267.38	107.86
267.596	73.04
267.812	175.44
268.028	38.23
268.244	1.37
268.46	19.8
268.676	7.51
268.892	36.18
269.108	-4.78
269.324	-4.78
269.54	-4.78
269.756	93.52
269.972	-23.21
270.188	34.13
270.403	-90.79
270.619	21.85
270.835	122.2
271.051	11.61
271.267	19.8
271.483	1.37
271.698	120.15
271.914	91.48
272.13	48.47
272.346	66.9
272.562	54.61
272.777	136.53
272.993	7.51
273.209	19.8
273.425	91.48
273.64	-10.92
273.856	146.77
274.072	34.13
274.287	7.51
274.503	122.2
274.719	187.73
274.934	-12.97
275.15	-58.03
275.366	54.61
275.581	56.66
275.797	48.47
276.012	52.56
276.228	-31.4
276.444	23.89
276.659	73.04
276.875	25.94
277.09	64.85
277.306	-17.07
277.521	81.24
277.737	118.1
277.952	138.58
278.168	77.14
278.383	85.33
278.599	85.33
278.814	34.13
279.03	-21.16
279.245	185.68
279.461	7.51
279.676	134.48
279.892	-76.46
280.107	-4.78
280.322	-15.02
280.538	27.99
280.753	-27.31
280.969	130.39
281.184	40.28
281.399	75.09
281.615	62.8
281.83	99.67
282.045	-39.59
282.26	21.85
282.476	99.67
282.691	85.33
282.906	17.75
283.122	128.34
283.337	32.08
283.552	34.13
283.767	-2.73
283.983	118.1
284.198	40.28
284.413	64.85
284.628	-8.87
284.843	120.15
285.058	91.48
285.274	91.48
285.489	54.61
285.704	30.04
285.919	-43.69
286.134	-8.87
286.349	93.52
286.564	36.18
286.779	167.25
286.995	-43.69
287.21	-88.75
287.425	109.91
287.64	-39.59
287.855	60.76
288.07	-66.22
288.285	128.34
288.5	128.34
288.715	91.48
288.93	11.61
289.145	-0.68
289.36	81.24
289.575	15.7
289.79	114
290.004	-2.73
290.219	107.86
290.434	1.37
290.649	-27.31
290.864	-37.55
291.079	-23.21
291.294	46.42
291.509	23.89
291.724	58.71
291.938	56.66
292.153	68.95
292.368	21.85
292.583	52.56
292.798	134.48
293.012	109.91
293.227	15.7
293.442	62.8
293.657	142.68
293.871	122.2
294.086	27.99
294.301	226.64
294.516	132.44
294.73	9.56
294.945	-6.83
295.16	30.04
295.374	128.34
295.589	93.52
295.804	91.48
296.018	60.76
296.233	150.87
296.447	11.61
296.662	-8.87
296.877	97.62
297.091	126.29
297.306	87.38
297.52	52.56
297.735	34.13
297.949	77.14
298.164	62.8
298.378	111.96
298.593	-2.73
298.807	-60.07
299.022	58.71
299.236	77.14
299.451	85.33
299.665	46.42
299.88	7.51
300.094	75.09
300.309	15.7
300.523	50.52
300.737	38.23
300.952	85.33
301.166	38.23
301.381	9.56
301.595	44.37
301.809	64.85
302.024	5.46
302.238	-29.35
302.452	122.2
302.667	93.52
302.881	62.8
303.095	132.44
303.309	50.52
303.524	-27.31
303.738	21.85
303.952	71
304.166	116.05
304.381	-144.04
304.595	134.48
304.809	17.75
305.023	-6.83
305.237	9.56
305.452	11.61
305.666	23.89
305.88	124.24
306.094	150.87
306.308	50.52
306.522	99.67
306.736	54.61
306.95	68.95
307.164	-37.55
307.379	56.66
307.593	161.11
307.807	122.2
308.021	120.15
308.235	120.15
308.449	-62.12
308.663	25.94
308.877	240.98
309.091	56.66
309.305	85.33
309.519	-41.64
309.733	193.87
309.947	-55.98
310.161	46.42
310.374	132.44
310.588	157.01
310.802	9.56
311.016	-47.79
311.23	79.19
311.444	36.18
311.658	99.67
311.872	56.66
312.085	120.15
312.299	124.24
312.513	105.81
312.727	36.18
312.941	-2.73
313.154	77.14
313.368	46.42
313.582	-25.26
313.796	103.76
314.009	-35.5
314.223	128.34
314.437	50.52
314.651	79.19
314.864	23.89
315.078	38.23
315.292	-92.84
315.505	-6.83
315.719	75.09
315.933	89.43
316.146	42.32
316.36	25.94
316.573	167.25
316.787	95.57
317.001	111.96
317.214	-37.55
317.428	60.76
317.641	-66.22
317.855	89.43
318.068	71
318.282	19.8
318.495	177.49
318.709	34.13
318.922	169.3
319.136	177.49
319.349	124.24
319.563	-31.4
319.776	101.72
319.99	-19.11
320.203	165.2
320.417	36.18
320.63	17.75
320.843	150.87
321.057	81.24
321.27	-23.21
321.483	91.48
321.697	167.25
321.91	-2.73
322.124	77.14
322.337	66.9
322.55	-6.83
322.763	73.04
322.977	42.32
323.19	-37.55
323.403	54.61
323.617	62.8
323.83	114
324.043	48.47
324.256	68.95
324.469	13.65
324.683	202.07
324.896	66.9
325.109	54.61
325.322	-55.98
325.535	89.43
325.748	171.35
325.962	27.99
326.175	23.89
326.388	56.66
326.601	114
326.814	87.38
327.027	25.94
327.24	163.15
327.453	-125.61
327.666	183.63
327.879	118.1
328.092	71
328.305	54.61
328.518	32.08
328.731	19.8
328.944	71
329.157	138.58
329.37	17.75
329.583	228.69
329.796	142.68
330.009	38.23
330.222	107.86
330.435	107.86
330.648	71
330.861	109.91
331.073	62.8
331.286	99.67
331.499	-6.83
331.712	56.66
331.925	30.04
332.138	56.66
332.35	130.39
332.563	128.34
332.776	142.68
332.989	-15.02
333.202	-31.4
333.414	109.91
333.627	21.85
333.84	89.43
334.053	30.04
334.265	-43.69
334.478	13.65
334.691	3.41
334.903	140.63
335.116	34.13
335.329	13.65
335.541	44.37
335.754	154.96
335.966	-12.97
336.179	60.76
336.392	21.85
336.604	79.19
336.817	58.71
337.029	73.04
337.242	27.99
337.454	132.44
337.667	38.23
337.88	181.59
338.092	21.85
338.305	105.81
338.517	-49.83
338.729	191.83
338.942	163.15
339.154	-4.78
339.367	-66.22
339.579	75.09
339.792	13.65
340.004	154.96
340.217	83.28
340.429	52.56
340.641	19.8
340.854	-29.35
341.066	62.8
341.278	111.96
341.491	171.35
341.703	44.37
341.915	-35.5
342.128	99.67
342.34	52.56
342.552	-23.21
342.764	23.89
342.977	30.04
343.189	99.67
343.401	79.19
343.613	-2.73
343.826	73.04
344.038	30.04
344.25	87.38
344.462	-25.26
344.674	79.19
344.886	30.04
345.099	-12.97
345.311	103.76
345.523	68.95
345.735	-12.97
345.947	107.86
346.159	50.52
346.371	150.87
346.583	7.51
346.795	150.87
347.007	71
347.219	97.62
347.431	44.37
347.643	128.34
347.855	-17.07
348.067	116.05
348.279	-62.12
348.491	15.7
348.703	99.67
348.915	44.37
349.127	32.08
349.339	124.24
349.551	-55.98
349.763	165.2
349.975	44.37
350.187	60.76
350.399	179.54
350.61	179.54
350.822	30.04
351.034	109.91
351.246	54.61
351.458	126.29
351.669	97.62
351.881	111.96
352.093	150.87
352.305	118.1
352.517	73.04
352.728	169.3
352.94	97.62
353.152	111.96
353.363	-2.73
353.575	97.62
353.787	206.16
353.999	109.91
354.21	185.68
354.422	-35.5
354.633	118.1
354.845	111.96
355.057	15.7
355.268	7.51
355.48	44.37
355.692	13.65
355.903	11.61
356.115	-17.07
356.326	-10.92
356.538	193.87
356.749	25.94
356.961	230.74
357.172	62.8
357.384	-84.65
357.595	232.79
357.807	71
358.018	52.56
358.23	62.8
358.441	138.58
358.653	87.38
358.864	66.9
359.075	-0.68
359.287	85.33
359.498	118.1
359.709	83.28
359.921	-29.35
360.132	38.23
360.344	54.61
360.555	89.43
360.766	15.7
360.977	64.85
361.189	111.96
361.4	9.56
361.611	99.67
361.823	126.29
362.034	81.24
362.245	-43.69
362.456	93.52
362.667	159.06
362.879	75.09
363.09	105.81
363.301	56.66
363.512	23.89
363.723	36.18
363.935	132.44
364.146	75.09
364.357	83.28
364.568	46.42
364.779	-51.88
364.99	81.24
365.201	71
365.412	91.48
365.623	-47.79
365.834	159.06
366.045	27.99
366.256	68.95
366.467	52.56
366.678	23.89
366.889	56.66
367.1	56.66
367.311	109.91
367.522	25.94
367.733	101.72
367.944	17.75
368.155	83.28
368.366	116.05
368.577	52.56
368.788	91.48
368.999	19.8
369.209	73.04
369.42	224.59
369.631	232.79
369.842	27.99
370.053	32.08
370.264	179.54
370.474	87.38
370.685	-21.16
370.896	66.9
371.107	99.67
371.317	191.83
371.528	13.65
371.739	75.09
371.95	44.37
372.16	71
372.371	-2.73
372.582	50.52
372.792	130.39
373.003	87.38
373.214	83.28
373.424	171.35
373.635	-25.26
373.846	138.58
374.056	75.09
374.267	75.09
374.477	3.41
374.688	-19.11
374.898	32.08
375.109	122.2
375.319	40.28
375.53	103.76
375.74	25.94
375.951	-33.45
376.161	103.76
376.372	103.76
376.582	83.28
376.793	118.1
377.003	-21.16
377.214	21.85
377.424	185.68
377.635	42.32
377.845	11.61
378.055	146.77
378.266	-29.35
378.476	17.75
378.686	73.04
378.897	58.71
379.107	132.44
379.317	83.28
379.528	30.04
379.738	136.53
379.948	11.61
380.158	114
380.369	-8.87
380.579	126.29
380.789	32.08
380.999	73.04
381.21	134.48
381.42	169.3
381.63	-25.26
381.84	163.15
382.05	122.2
382.261	107.86
382.471	77.14
382.681	-19.11
382.891	214.35
383.101	56.66
383.311	-35.5
383.521	23.89
383.731	32.08
383.941	77.14
384.151	54.61
384.361	21.85
384.571	66.9
384.781	42.32
384.991	220.5
385.201	183.63
385.411	60.76
385.621	107.86
385.831	79.19
386.041	111.96
386.251	9.56
386.461	140.63
386.671	-66.22
386.881	111.96
387.091	-43.69
387.301	93.52
387.511	68.95
387.72	77.14
387.93	132.44
388.14	-29.35
388.35	85.33
388.56	140.63
388.769	189.78
388.979	60.76
389.189	-51.88
389.399	83.28
389.609	97.62
389.818	152.92
390.028	79.19
390.238	109.91
390.447	17.75
390.657	150.87
390.867	-17.07
391.076	-68.27
391.286	93.52
391.496	-35.5
391.705	87.38
391.915	159.06
392.125	71
392.334	58.71
392.544	111.96
392.753	38.23
392.963	-25.26
393.172	68.95
393.382	38.23
393.591	140.63
393.801	25.94
394.01	159.06
394.22	136.53
394.429	3.41
394.639	111.96
394.848	50.52
395.058	68.95
395.267	42.32
395.477	124.24
395.686	1.37
395.895	202.07
396.105	193.87
396.314	120.15
396.524	34.13
396.733	-60.07
396.942	191.83
397.152	122.2
397.361	27.99
397.57	68.95
397.78	13.65
397.989	148.82
398.198	191.83
398.407	19.8
398.617	17.75
398.826	66.9
399.035	101.72
399.244	116.05
399.453	-10.92
399.663	81.24
399.872	89.43
400.081	21.85
400.29	134.48
400.499	23.89
400.708	114
400.917	75.09
401.127	23.89
401.336	13.65
401.545	136.53
401.754	124.24
401.963	101.72
402.172	21.85
402.381	-47.79
402.59	87.38
402.799	122.2
403.008	120.15
403.217	79.19
403.426	89.43
403.635	-17.07
403.844	27.99
404.053	89.43
404.262	42.32
404.471	169.3
404.68	128.34
404.888	62.8
405.097	17.75
405.306	3.41
405.515	179.54
405.724	50.52
405.933	36.18
406.142	85.33
406.35	152.92
406.559	23.89
406.768	140.63
406.977	150.87
407.185	103.76
407.394	109.91
407.603	15.7
407.812	30.04
408.02	136.53
408.229	81.24
408.438	13.65
408.646	-21.16
408.855	-19.11
409.064	81.24
409.272	21.85
409.481	64.85
409.69	52.56
409.898	7.51
410.107	56.66
410.315	126.29
410.524	-27.31
410.733	109.91
410.941	21.85
411.15	202.07
411.358	187.73
411.567	189.78
411.775	19.8
411.984	46.42
412.192	128.34
412.401	71
412.609	193.87
412.818	191.83
413.026	58.71
413.234	71
413.443	-4.78
413.651	15.7
413.86	50.52
414.068	159.06
414.276	163.15
414.485	15.7
414.693	181.59
414.901	267.6
415.11	56.66
415.318	56.66
415.526	23.89
415.734	161.11
415.943	9.56
416.151	187.73
416.359	19.8
416.567	91.48
416.776	97.62
416.984	161.11
417.192	130.39
417.4	-17.07
417.608	91.48
417.817	-35.5
418.025	118.1
418.233	212.31
418.441	58.71
418.649	68.95
418.857	107.86
419.065	159.06
419.273	3.41
419.481	95.57
419.689	44.37
419.897	58.71
420.105	-53.93
420.313	136.53
420.521	230.74
420.729	202.07
420.937	5.46
421.145	-31.4
421.353	66.9
421.561	200.02
421.769	89.43
421.977	44.37
422.185	144.72
422.393	58.71
422.601	144.72
422.809	132.44
423.017	77.14
423.224	152.92
423.432	183.63
423.64	44.37
423.848	144.72
424.056	56.66
424.263	167.25
424.471	62.8
424.679	165.2
424.887	3.41
425.094	136.53
425.302	87.38
425.51	38.23
425.718	150.87
425.925	120.15
426.133	103.76
426.341	230.74
426.548	122.2
426.756	32.08
426.964	150.87
427.171	114
427.379	142.68
427.586	109.91
427.794	169.3
428.001	126.29
428.209	66.9
428.417	243.03
428.624	114
428.832	183.63
429.039	66.9
429.247	75.09
429.454	101.72
429.662	269.65
429.869	185.68
430.076	187.73
430.284	185.68
430.491	197.97
430.699	161.11
430.906	320.85
431.114	185.68
431.321	163.15
431.528	142.68
431.736	249.17
431.943	206.16
432.15	157.01
432.358	189.78
432.565	302.42
432.772	25.94
432.979	300.37
433.187	111.96
433.394	294.22
433.601	159.06
433.808	304.46
434.016	324.94
434.223	308.56
434.43	187.73
434.637	300.37
434.844	292.18
435.052	245.07
435.259	345.42
435.466	312.66
435.673	386.38
435.88	349.52
436.087	478.54
436.294	496.97
436.501	357.71
436.708	304.46
436.915	445.77
437.122	456.01
437.329	322.9
437.537	441.68
437.743	423.25
437.95	539.98
438.157	453.97
438.364	470.35
438.571	382.29
438.778	560.46
438.985	638.28
439.192	482.64
439.399	464.21
439.606	531.79
439.813	662.86
440.02	628.04
440.227	695.63
440.433	654.67
440.64	585.04
440.847	648.52
441.054	658.76
441.261	890.18
441.467	742.73
441.674	707.91
441.881	884.04
442.088	755.02
442.294	849.22
442.501	832.84
442.708	957.77
442.914	775.5
443.121	1013.06
443.328	1080.64
443.534	1160.52
443.741	1111.36
443.948	925
444.154	1230.15
444.361	1371.46
444.568	1262.91
444.774	1127.75
444.981	1191.24
445.187	1389.89
445.394	1422.66
445.6	1377.6
445.807	1611.07
446.013	1500.48
446.22	1475.9
446.426	1647.93
446.633	1797.43
446.839	1967.42
447.046	1703.23
447.252	1840.44
447.459	2000.18
447.665	1895.74
447.871	2159.92
448.078	2354.48
448.284	2280.75
448.491	2350.39
448.697	2555.18
448.903	2614.57
449.11	2639.15
449.316	2630.96
449.522	2878.76
449.728	2880.81
449.935	3044.65
450.141	2981.16
450.347	3181.86
450.553	3128.61
450.76	3294.5
450.966	3558.69
451.172	3517.73
451.378	3704.09
451.584	3890.46
451.791	4056.34
451.997	4154.65
452.203	4289.81
452.409	4443.41
452.615	4644.11
452.821	4515.09
453.027	4752.65
453.233	5094.66
453.44	5076.23
453.646	5387.52
453.852	5602.56
454.058	5747.97
454.264	5803.26
454.47	6282.49
454.676	6407.41
454.882	7023.85
455.088	6665.46
455.294	7007.47
455.5	7474.4
455.705	7935.2
455.911	7744.74
456.117	8025.31
456.323	8473.81
456.529	8457.43
456.735	9131.21
456.941	9387.21
457.147	9845.95
457.352	10013.88
457.558	10165.43
457.764	10847.41
457.97	11101.36
458.176	11478.18
458.381	12307.61
458.587	12293.27
458.793	13094.03
458.999	13030.54
459.204	14556.28
459.41	15316.08
459.616	14931.06
459.821	15772.77
460.027	16315.48
460.233	17400.91
460.438	17114.19
460.644	18474.04
460.85	18336.83
461.055	19334.19
461.261	20173.86
461.466	19733.54
461.672	20257.82
461.878	22477.82
462.083	22135.81
462.289	23043.06
462.494	23393.26
462.7	23903.21
462.905	24075.24
463.111	26145.73
463.316	27618.22
463.522	27624.37
463.727	28771.23
463.932	29715.34
464.138	30528.39
464.343	31955.82
464.549	31857.52
464.754	34577.22
464.959	35177.28
465.165	35924.79
465.37	35474.23
465.575	35570.49
465.781	38292.24
465.986	39078.66
466.191	38533.9
466.397	38830.85
466.602	38259.47
466.807	40241.9
467.012	40569.58
467.218	41413.34
467.423	41876.18
467.628	42719.95
467.833	45044.39
468.038	44102.32
468.244	43121.35
468.449	45441.7
468.654	44489.39
468.859	44544.69
469.064	44763.82
469.269	43922.1
469.474	44014.26
469.679	45392.54
469.885	43875
470.09	44573.36
470.295	45165.22
470.5	43801.27
470.705	44182.2
470.91	42781.38
471.115	41943.77
471.32	43328.19
471.525	42740.43
471.73	41777.88
471.935	41644.76
472.139	40012.53
472.344	40389.36
472.549	40086.26
472.754	39144.19
472.959	38509.32
473.164	36985.63
473.369	36565.8
473.574	37315.36
473.778	36881.19
473.983	35836.72
474.188	35447.61
474.393	33899.34
474.598	33917.78
474.802	32867.17
475.007	32484.2
475.212	31921.01
475.417	30669.7
475.621	30602.11
475.826	30552.96
476.031	29752.21
476.235	28900.25
476.44	29305.75
476.645	28507.04
476.849	27923.37
477.054	27489.2
477.259	27077.56
477.463	26876.86
477.668	26209.22
477.872	26336.2
478.077	25562.06
478.282	25029.59
478.486	24390.63
478.691	24579.04
478.895	24038.37
479.1	23837.67
479.304	24065
479.509	22717.43
479.713	23112.69
479.918	22651.9
480.122	22254.59
480.326	22608.89
480.531	22402.05
480.735	22141.96
480.94	21902.34
481.144	22660.09
481.348	21322.77
481.553	21216.27
481.757	20708.38
481.961	20978.71
482.166	21228.56
482.37	20853.78
482.574	20401.18
482.778	20538.4
482.983	20706.33
483.187	20030.5
483.391	20266.02
483.595	19928.1
483.8	19563.56
484.004	19608.62
484.208	19495.98
484.412	19397.68
484.616	19045.43
484.821	19059.76
485.025	18138.18
485.229	18400.32
485.433	17845.32
485.637	18162.75
485.841	17378.38
486.045	17251.41
486.249	17208.4
486.453	16938.07
486.657	16882.77
486.861	16876.63
487.065	16086.11
487.269	16020.58
487.473	15465.58
487.677	15799.4
487.881	15543.4
488.085	14877.81
488.289	14986.35
488.493	14486.65
488.697	14511.22
488.901	14394.49
489.105	13687.94
489.309	13638.79
489.512	13548.68
489.716	13292.68
489.92	13010.06
490.124	13063.31
490.328	12680.34
490.531	12295.32
490.735	12313.75
490.939	11900.06
491.143	11596.96
491.346	11439.27
491.55	11615.4
491.754	11224.23
491.958	11119.79
492.161	10751.15
492.365	10497.21
492.569	10368.18
492.772	10329.27
492.976	10280.12
493.18	10091.71
493.383	10106.04
493.587	9999.55
493.79	9825.47
493.994	9557.19
494.197	9639.11
494.401	9381.06
494.605	9276.62
494.808	9188.55
495.012	9215.18
495.215	9227.46
495.419	9241.8
495.622	9239.75
495.825	8848.59
496.029	9000.14
496.232	9110.73
496.436	8916.17
496.639	9225.42
496.843	8817.87
497.046	8795.34
497.249	8862.93
497.453	8787.15
497.656	8756.43
497.859	8699.09
498.063	8768.72
498.266	9043.15
498.469	8807.63
498.673	8654.03
498.876	8944.84
499.079	9114.83
499.282	8975.56
499.485	9295.05
499.689	9213.13
499.892	9352.39
500.095	9172.17
500.298	9632.96
500.501	9200.84
500.705	9434.31
500.908	9716.93
501.111	9465.03
501.314	9796.8
501.517	10007.74
501.72	9784.51
501.923	9864.38
502.126	9903.29
502.329	10124.47
502.532	10400.95
502.735	10388.66
502.938	10499.25
503.141	10810.54
503.344	10921.13
503.547	10847.41
503.75	10859.7
503.953	11125.93
504.156	11363.5
504.359	11656.36
504.562	11441.32
504.765	11859.1
504.968	12088.48
505.17	12250.27
505.373	12280.99
505.576	12557.46
505.779	12551.32
505.982	12926.1
506.185	13153.42
506.387	13395.08
506.59	13593.73
506.793	13737.09
506.996	14038.14
507.198	14750.84
507.401	14443.64
507.604	14738.55
507.807	15039.6
508.009	15232.11
508.212	15750.24
508.415	15928.42
508.617	16231.52
508.82	16696.41
509.022	16823.38
509.225	17454.15
509.428	17550.41
509.63	18091.07
509.833	18291.77
510.035	19100.72
510.238	19233.84
510.44	19620.91
510.643	20266.02
510.845	20544.54
511.048	20825.11
511.25	21281.81
511.453	21859.34
511.655	22752.25
511.858	23157.75
512.06	23602.16
512.262	23542.77
512.465	24097.77
512.667	24902.62
512.87	25224.15
513.072	25922.51
513.274	26432.45
513.477	27290.55
513.679	27818.92
513.881	27855.79
514.084	29186.97
514.286	29334.42
514.488	30198.66
514.69	31218.55
514.893	31288.18
515.095	31830.9
515.297	32519.01
515.499	33321.82
515.701	34192.2
515.904	34851.65
516.106	35429.18
516.308	35986.22
516.51	36752.16
516.712	37264.16
516.914	38169.36
517.116	39260.93
517.318	39592.7
517.52	40628.97
517.722	40788.71
517.925	41718.49
518.127	42554.06
518.329	43330.24
518.531	43279.04
518.733	44808.87
518.935	45570.72
519.136	45570.72
519.338	46668.43
519.54	47196.81
519.742	48616.05
519.944	48738.93
520.146	49893.98
520.348	49910.36
520.55	50315.86
520.752	50614.86
520.954	51706.43
521.155	52107.83
521.357	53635.62
521.559	53299.75
521.761	54487.57
521.963	54886.93
522.164	54909.46
522.366	55298.57
522.568	56123.9
522.77	55925.25
522.971	57188.84
523.173	56429.05
523.375	57108.97
523.576	57367.02
523.778	57387.5
523.98	58243.55
524.181	58122.72
524.383	58395.1
524.584	59410.89
524.786	58642.9
524.988	58397.15
525.189	59224.53
525.391	58989.01
525.592	59156.94
525.794	58984.91
525.995	59304.4
526.197	58841.56
526.398	58726.87
526.6	58773.97
526.801	58632.66
527.003	58610.13
527.204	58214.88
527.406	58542.55
527.607	57985.5
527.808	57993.7
528.01	57178.6
528.211	57340.39
528.412	57461.22
528.614	57068.01
528.815	56453.62
529.016	56332.79
529.218	55808.51
529.419	55314.95
529.62	54356.5
529.822	53987.87
530.023	53750.31
530.224	53439.01
530.425	53056.04
530.626	51907.13
530.828	51546.69
531.029	51911.23
531.23	50834
531.431	50113.11
531.632	49584.74
531.833	49257.06
532.035	48765.55
532.236	48132.73
532.437	47647.36
532.638	47118.98
532.839	46619.28
533.04	45845.15
533.241	44950.18
533.442	44917.42
533.643	44483.25
533.844	43739.83
534.045	42967.75
534.246	42158.8
534.447	42218.19
534.648	41478.88
534.849	41110.24
535.05	40135.41
535.251	39693.05
535.451	39283.45
535.652	38972.16
535.853	38415.12
536.054	37987.09
536.255	37341.98
536.456	36391.72
536.657	36932.39
536.857	36010.8
537.058	35142.46
537.259	34929.47
537.46	34745.16
537.66	33758.03
537.861	33438.55
538.062	32947.04
538.263	32934.75
538.463	32455.53
538.664	32123.76
538.865	31173.5
539.065	31263.61
539.266	30444.42
539.466	30475.14
539.667	29938.57
539.868	29862.8
540.068	29279.13
540.269	29143.96
540.469	28789.66
540.67	28464.03
540.87	28173.22
541.071	27386.8
541.271	27380.66
541.472	27431.86
541.672	26737.6
541.873	26360.77
542.073	25578.45
542.274	26127.3
542.474	25639.89
542.675	25095.13
542.875	25238.48
543.075	24345.57
543.276	23854.06
543.476	24320.99
543.676	23772.14
543.877	23931.88
544.077	23278.58
544.277	23188.47
544.478	22467.58
544.678	22342.66
544.878	22191.11
545.078	22109.19
545.279	21466.13
545.479	21687.31
545.679	21328.91
545.879	21066.77
546.079	21105.68
546.28	20614.17
546.48	20180
546.68	20212.77
546.88	19997.73
547.08	19905.57
547.28	19422.25
547.48	18951.22
547.68	19201.07
547.88	18377.79
548.081	18766.9
548.281	18056.26
548.481	17757.25
548.681	18109.51
548.881	17431.63
549.081	17544.27
549.28	17228.88
549.48	16925.78
549.68	16604.25
549.88	16637.02
550.08	16143.46
550.28	16069.73
550.48	15854.69
550.68	15619.17
550.88	15402.09
551.08	14998.64
551.279	15185.01
551.479	14525.56
551.679	14498.94
551.879	14335.1
552.079	14363.77
552.278	13816.96
552.478	13859.97
552.678	13634.69
552.878	13356.17
553.077	13173.9
553.277	12543.13
553.477	12864.66
553.676	12588.18
553.876	12340.38
554.076	12096.67
554.275	11670.69
554.475	11760.8
554.674	11648.16
554.874	11416.74
555.074	11148.46
555.273	11127.98
555.473	10822.83
555.672	10775.73
555.872	10587.32
556.071	10241.21
556.271	10237.11
556.47	9987.26
556.67	9661.63
556.869	9796.8
557.068	9768.13
557.268	9467.08
557.467	9307.34
557.667	9313.48
557.866	9073.87
558.065	8938.7
558.265	8629.46
558.464	8447.19
558.663	8510.68
558.863	8197.34
559.062	8068.31
559.261	7972.06
559.461	7892.19
559.66	7662.82
559.859	7535.84
560.058	7470.31
560.258	7273.7
560.457	7412.96
560.656	7374.05
560.855	6950.12
561.054	6964.46
561.253	6814.96
561.453	6845.68
561.652	6542.58
561.851	6534.39
562.05	6350.07
562.249	6192.37
562.448	6284.53
562.647	6067.45
562.846	6044.92
563.045	5975.29
563.244	5952.76
563.443	5930.23
563.642	5571.84
563.841	5711.1
564.04	5561.6
564.239	5633.28
564.438	5313.8
564.637	5297.41
564.836	5274.88
565.035	5072.14
565.234	5055.75
565.432	4969.74
565.631	4953.35
565.83	4877.58
566.029	4781.32
566.228	4861.2
566.427	4781.32
566.625	4611.34
566.824	4470.03
567.023	4537.62
567.222	4377.87
567.42	4302.1
567.619	4189.46
567.818	4175.13
568.016	4408.59
568.215	4099.35
568.414	4117.78
568.612	3999
568.811	3943.71
569.01	3968.28
569.208	3790.11
569.407	4023.58
569.605	3689.76
569.804	3654.94
570.002	3616.03
570.201	3552.54
570.4	3597.6
570.598	3427.62
570.797	3419.43
570.995	3294.5
571.193	3276.07
571.392	3327.27
571.59	3099.94
571.789	3149.09
571.987	3194.15
572.186	3122.47
572.384	3091.75
572.582	2972.97
572.781	3009.83
572.979	2716.97
573.177	2737.45
573.376	2788.65
573.574	2889
573.772	2739.5
573.971	2669.87
574.169	2643.24
574.367	2665.77
574.565	2442.54
574.763	2520.37
574.962	2501.94
575.16	2471.22
575.358	2319.67
575.556	2350.39
575.754	2334
575.952	2301.23
576.151	2338.1
576.349	2336.05
576.547	2067.77
576.745	2147.64
576.943	2198.84
577.141	2071.86
577.339	2030.9
577.537	2078.01
577.735	2014.52
577.933	2096.44
578.131	1889.59
578.329	1961.27
578.527	1897.78
578.725	1848.63
578.923	1750.33
579.121	1824.06
579.319	1672.51
579.516	1785.15
579.714	1901.88
579.912	1760.57
580.11	1578.3
580.308	1568.06
580.506	1598.78
580.704	1436.99
580.901	1477.95
581.099	1615.16
581.297	1561.92
581.495	1547.58
581.692	1400.13
581.89	1576.25
582.088	1500.48
582.285	1371.46
582.483	1373.5
582.681	1406.27
582.878	1307.97
583.076	1430.85
583.274	1367.36
583.471	1426.75
583.669	1193.28
583.866	1262.91
584.064	1246.53
584.262	1164.61
584.459	1146.18
584.657	1252.67
584.854	1209.67
585.052	1240.39
585.249	1242.43
585.447	1148.23
585.644	1025.35
585.841	1185.09
586.039	1043.78
586.236	1133.89
586.434	1099.08
586.631	1054.02
586.828	925
587.026	1039.69
587.223	912.71
587.42	1006.92
587.618	1029.45
587.815	1092.93
588.012	963.91
588.21	982.34
588.407	1027.4
588.604	929.1
588.801	855.37
588.999	873.8
589.196	1008.97
589.393	877.9
589.59	865.61
589.787	945.48
589.984	949.57
590.182	984.39
590.379	789.83
590.576	849.22
590.773	775.5
590.97	787.79
591.167	908.62
591.364	861.51
591.561	886.09
591.758	916.81
591.955	793.93
592.152	847.18
592.349	765.26
592.546	812.36
592.743	785.74
592.94	812.36
593.137	922.95
593.334	968.01
593.531	951.62
593.727	816.46
593.924	841.03
594.121	703.82
594.318	884.04
594.515	927.05
594.712	888.14
594.908	929.1
595.105	767.31
595.302	849.22
595.499	838.98
595.696	965.96
595.892	787.79
596.089	879.94
596.286	888.14
596.482	955.72
596.679	1070.41
596.876	908.62
597.072	1101.12
597.269	1197.38
597.466	1135.94
597.662	1135.94
597.859	1094.98
598.055	1228.1
598.252	1226.05
598.448	1314.11
598.645	1244.48
598.841	1348.93
599.038	1428.8
599.234	1508.67
599.431	1414.46
599.627	1557.82
599.824	1584.45
600.02	1520.96
600.217	1559.87
600.413	1731.9
600.609	1948.98
600.806	2196.79
601.002	1916.22
601.198	1957.18
601.395	2143.54
601.591	2166.07
601.787	2293.04
601.984	2270.51
602.18	2575.66
602.376	2532.65
602.572	2639.15
602.769	2716.97
602.965	2800.94
603.161	2968.87
603.357	2968.87
603.553	3175.72
603.75	3218.72
603.946	3300.64
604.142	3523.87
604.338	3646.75
604.534	3579.17
604.73	3726.62
604.926	3894.55
605.122	4128.02
605.318	4035.86
605.514	4369.68
605.71	4250.9
605.906	4613.39
606.102	4717.84
606.298	4943.11
606.494	5076.23
606.69	5119.24
606.886	5160.2
607.082	5377.28
607.278	5694.72
607.474	5803.26
607.67	6020.35
607.866	5874.94
608.062	6098.17
608.257	6489.33
608.453	6491.38
608.649	6685.94
608.845	6661.36
609.041	7216.36
609.236	7529.7
609.432	7494.88
609.628	7580.9
609.824	7933.15
610.019	8090.84
610.215	8414.42
610.411	8568.02
610.606	8729.81
610.802	8981.71
610.998	8971.47
611.193	9692.35
611.389	9610.43
611.584	9946.3
611.78	9899.2
611.976	10454.2
612.171	10745.01
612.367	11345.06
612.562	11287.72
612.758	11508.9
612.953	11738.27
613.149	12268.7
613.344	12407.96
613.539	12821.65
613.735	13251.72
613.93	13675.65
614.126	13622.41
614.321	14337.15
614.517	14842.99
614.712	15064.18
614.907	15469.67
615.103	15723.62
615.298	16047.2
615.493	16626.78
615.688	16809.04
615.884	17636.42
616.079	17609.8
616.274	18555.96
616.47	18738.23
616.665	19219.5
616.86	19713.06
617.055	20038.69
617.25	20708.38
617.445	21386.26
617.641	21343.25
617.836	22246.4
618.031	22440.96
618.226	23358.45
618.421	23587.82
618.616	24560.61
618.811	24644.57
619.006	25824.2
619.201	26000.33
619.396	26993.59
619.591	26868.67
619.786	27859.88
619.981	28052.39
620.176	29004.7
620.371	29598.61
620.566	30231.43
620.761	30681.99
620.956	31738.74
621.151	31783.79
621.346	32559.97
621.541	32830.3
621.735	34098
621.93	33946.45
622.125	34941.76
622.32	35449.66
622.515	36211.5
622.709	36805.41
622.904	37505.82
623.099	38015.76
623.294	38906.63
623.488	39279.36
623.683	40483.56
623.878	40332.01
624.072	41448.16
624.267	42285.78
624.462	42576.59
624.656	43154.11
624.851	44137.14
625.046	44411.57
625.24	45181.6
625.435	45542.05
625.629	46422.67
625.824	46842.51
626.018	47088.26
626.213	47055.5
626.407	48274.04
626.602	48421.49
626.796	49396.32
626.991	49996.38
627.185	50141.78
627.38	50238.04
627.574	50872.91
627.768	50514.51
627.963	50909.77
628.157	51249.74
628.352	51935.8
628.546	51249.74
628.74	52001.34
628.935	51427.91
629.129	51860.03
629.323	51006.03
629.517	51212.87
629.712	50686.54
629.906	50571.86
630.1	49760.86
630.294	49789.53
630.489	48972.39
630.683	48405.11
630.877	47542.91
631.071	46905.99
631.265	46826.12
631.459	45626.01
631.653	44751.53
631.848	43862.71
632.042	42318.54
632.236	42207.95
632.43	40438.51
632.624	39717.62
632.818	38712.07
633.012	37131.04
633.206	36227.88
633.4	35150.65
633.594	33446.74
633.788	33274.71
633.982	31497.08
634.176	30587.78
634.369	29336.47
634.563	28162.98
634.757	26977.21
634.951	26487.75
635.145	25406.42
635.339	24312.8
635.533	23284.72
635.726	22529.02
635.92	21292.05
636.114	20726.81
636.308	19692.58
636.501	19094.58
636.695	18435.13
636.889	17298.51
637.083	16850
637.276	16036.96
637.47	15244.4
637.664	14916.72
637.857	14234.75
638.051	13655.17
638.244	13300.87
638.438	12432.54
638.632	12229.79
638.825	11320.49
639.019	11205.8
639.212	10534.07
639.406	10239.16
639.599	9800.9
639.793	9346.25
639.986	9096.39
640.18	8795.34
640.373	8510.68
640.567	8103.13
640.76	7785.69
640.954	7529.7
641.147	7150.82
641.34	6843.63
641.534	6706.41
641.727	6497.52
641.92	6190.33
642.114	5946.62
642.307	5684.48
642.5	5604.61
642.694	5123.34
642.887	5301.51
643.08	5084.42
643.273	4726.03
643.467	4406.55
643.66	4257.04
643.853	4101.4
644.046	4177.17
644.239	4103.45
644.432	3702.04
644.626	3499.3
644.819	3511.58
645.012	3306.79
645.205	3403.04
645.398	3081.51
645.591	3009.83
645.784	2684.2
645.977	2731.31
646.17	2633.01
646.363	2493.74
646.556	2336.05
646.749	2293.04
646.942	2278.71
647.135	2127.16
647.328	2123.06
647.521	2053.43
647.714	1922.36
647.907	1922.36
648.099	1750.33
648.292	1809.72
648.485	1647.93
648.678	1658.17
648.871	1557.82
649.064	1633.6
649.256	1512.77
649.449	1371.46
649.642	1254.72
649.835	1254.72
650.027	1213.76
650.22	1215.81
650.413	1197.38
650.605	1193.28
650.798	1027.4
650.991	1078.6
651.183	1023.3
651.376	1060.17
651.568	931.14
651.761	875.85
651.954	892.23
652.146	828.74
652.339	896.33
652.531	951.62
652.724	697.67
652.916	693.58
653.109	562.51
653.301	838.98
653.494	701.77
653.686	701.77
653.879	748.87
654.071	613.71
654.263	570.7
654.456	695.63
654.648	537.93
654.84	601.42
655.033	527.69
655.225	632.14
655.417	408.91
655.61	587.08
655.802	507.21
655.994	558.41
656.186	345.42
656.379	474.45
656.571	404.82
656.763	472.4
656.955	402.77
657.148	357.71
657.34	417.1
657.532	378.19
657.724	449.87
657.916	382.29
658.108	456.01
658.3	425.29
658.492	367.95
658.684	275.79
658.876	445.77
659.068	263.51
659.26	259.41
659.452	351.57
659.644	312.66
659.836	486.73
660.028	294.22
660.22	294.22
660.412	294.22
660.604	288.08
660.796	390.48
660.988	376.14
661.18	388.43
661.372	365.9
661.563	243.03
661.755	339.28
661.947	255.31
662.139	138.58
662.331	230.74
662.522	218.45
662.714	146.77
662.906	165.2
663.097	261.46
663.289	152.92
663.481	122.2
663.673	294.22
663.864	236.88
664.056	267.6
664.247	148.82
664.439	210.26
664.631	273.75
664.822	224.59
665.014	197.97
665.205	159.06
665.397	247.12
665.588	200.02
665.78	257.36
665.971	245.07
666.163	161.11
666.354	210.26
666.546	206.16
666.737	116.05
666.929	122.2
667.12	175.44
667.311	204.11
667.503	189.78
667.694	181.59
667.885	197.97
668.077	249.17
668.268	144.72
668.459	152.92
668.651	146.77
668.842	195.92
669.033	165.2
669.224	105.81
669.416	351.57
669.607	185.68
669.798	154.96
669.989	271.7
670.18	161.11
670.371	165.2
670.563	73.04
670.754	281.94
670.945	161.11
671.136	210.26
671.327	152.92
671.518	226.64
671.709	238.93
671.9	204.11
672.091	247.12
672.282	234.83
672.473	210.26
672.664	116.05
672.855	189.78
673.046	210.26
673.237	243.03
673.428	197.97
673.619	208.21
673.809	107.86
674	240.98
674.191	163.15
674.382	126.29
674.573	87.38
674.764	197.97
674.954	169.3
675.145	122.2
675.336	157.01
675.527	136.53
675.717	193.87
675.908	179.54
676.099	138.58
676.289	185.68
676.48	73.04
676.671	200.02
676.861	197.97
677.052	165.2
677.243	159.06
677.433	173.39
677.624	247.12
677.814	181.59
678.005	138.58
678.195	302.42
678.386	175.44
678.576	171.35
678.767	95.57
678.957	267.6
679.148	271.7
679.338	343.38
679.529	218.45
679.719	177.49
679.909	316.75
680.1	259.41
680.29	187.73
680.481	124.24
680.671	245.07
680.861	257.36
681.052	183.63
681.242	210.26
681.432	181.59
681.622	159.06
681.813	103.76
682.003	247.12
682.193	251.22
682.383	240.98
682.573	257.36
682.764	165.2
682.954	206.16
683.144	263.51
683.334	271.7
683.524	177.49
683.714	187.73
683.904	294.22
684.094	202.07
684.284	255.31
684.474	347.47
684.664	357.71
684.854	243.03
685.044	175.44
685.234	245.07
685.424	249.17
685.614	161.11
685.804	320.85
685.994	243.03
686.184	202.07
686.374	243.03
686.564	240.98
686.753	265.55
686.943	163.15
687.133	247.12
687.323	154.96
687.513	136.53
687.702	148.82
687.892	146.77
688.082	320.85
688.272	253.27
688.461	279.89
688.651	345.42
688.841	302.42
689.03	243.03
689.22	228.69
689.41	304.46
689.599	288.08
689.789	197.97
689.979	331.09
690.168	210.26
690.358	236.88
690.547	159.06
690.737	271.7
690.926	273.75
691.116	181.59
691.305	337.23
691.495	294.22
691.684	200.02
691.874	179.54
692.063	191.83
692.252	277.84
692.442	294.22
692.631	185.68
692.82	144.72
693.01	308.56
693.199	142.68
693.388	189.78
693.578	161.11
693.767	343.38
693.956	243.03
694.146	208.21
694.335	132.44
694.524	161.11
694.713	249.17
694.902	181.59
695.092	197.97
695.281	290.13
695.47	210.26
695.659	226.64
695.848	173.39
696.037	175.44
696.226	259.41
696.415	183.63
696.604	185.68
696.793	238.93
696.982	220.5
697.171	376.14
697.36	222.55
697.549	234.83
697.738	165.2
697.927	152.92
698.116	189.78
698.305	177.49
698.494	179.54
698.683	146.77
698.872	304.46
699.061	212.31
699.25	159.06
699.438	247.12
699.627	181.59
699.816	240.98
700.005	132.44
700.193	181.59
700.382	269.65
700.571	202.07
700.76	245.07
700.948	277.84
701.137	228.69
701.326	316.75
701.514	134.48
701.703	277.84
701.892	138.58
702.08	353.62
702.269	230.74
702.457	132.44
702.646	146.77
702.834	179.54
703.023	204.11
703.212	226.64
703.4	197.97
703.589	232.79
703.777	197.97
703.965	163.15
704.154	148.82
704.342	87.38
704.531	243.03
704.719	197.97
704.907	243.03
705.096	163.15
705.284	165.2
705.472	171.35
705.661	212.31
705.849	216.4
706.037	277.84
706.226	144.72
706.414	185.68
706.602	212.31
706.79	290.13
706.979	206.16
707.167	165.2
707.355	138.58
707.543	243.03
707.731	183.63
707.919	245.07
708.107	193.87
708.296	197.97
708.484	195.92
708.672	222.55
708.86	226.64
709.048	99.67
709.236	171.35
709.424	236.88
709.612	189.78
709.8	56.66
709.988	261.46
710.176	279.89
710.364	294.22
710.551	134.48
710.739	216.4
710.927	183.63
711.115	251.22
711.303	355.66
711.491	255.31
711.679	128.34
711.866	257.36
712.054	210.26
712.242	263.51
712.43	249.17
712.617	232.79
712.805	277.84
712.993	193.87
713.181	124.24
713.368	228.69
713.556	159.06
713.744	206.16
713.931	347.47
714.119	249.17
714.306	208.21
714.494	157.01
714.682	236.88
714.869	144.72
715.057	222.55
715.244	171.35
715.432	304.46
715.619	97.62
715.807	150.87
715.994	161.11
716.182	249.17
716.369	193.87
716.556	304.46
716.744	122.2
716.931	118.1
717.119	210.26
717.306	232.79
717.493	263.51
717.681	77.14
717.868	163.15
718.055	220.5
718.242	114
718.43	251.22
718.617	283.99
718.804	187.73
718.991	310.61
719.179	271.7
719.366	185.68
719.553	208.21
719.74	212.31
719.927	179.54
720.114	249.17
720.301	214.35
720.488	238.93
720.676	146.77
720.863	374.1
721.05	314.7
721.237	320.85
721.424	240.98
721.611	202.07
721.798	99.67
721.985	189.78
722.172	185.68
722.358	189.78
722.545	304.46
722.732	226.64
722.919	312.66
723.106	245.07
723.293	208.21
723.48	261.46
723.667	179.54
723.853	249.17
724.04	277.84
724.227	312.66
724.414	161.11
724.6	257.36
724.787	361.81
724.974	374.1
725.161	306.51
725.347	159.06
725.534	298.32
725.72	220.5
725.907	302.42
726.094	335.18
726.28	220.5
726.467	232.79
726.653	150.87
726.84	353.62
727.027	310.61
727.213	226.64
727.4	269.65
727.586	294.22
727.773	228.69
727.959	212.31
728.145	247.12
728.332	206.16
728.518	171.35
728.705	306.51
728.891	306.51
729.077	322.9
729.264	265.55
729.45	165.2
729.636	349.52
729.823	275.79
730.009	277.84
730.195	296.27
730.382	310.61
730.568	159.06
730.754	281.94
730.94	218.45
731.126	226.64
731.313	308.56
731.499	218.45
731.685	306.51
731.871	238.93
732.057	302.42
732.243	326.99
732.429	322.9
732.615	322.9
732.801	245.07
732.987	312.66
733.173	322.9
733.359	228.69
733.545	251.22
733.731	234.83
733.917	267.6
734.103	275.79
734.289	275.79
734.475	263.51
734.661	435.53
734.847	263.51
735.033	238.93
735.219	216.4
735.404	243.03
735.59	167.25
735.776	144.72
735.962	288.08
736.148	343.38
736.333	265.55
736.519	265.55
736.705	212.31
736.89	230.74
737.076	333.14
737.262	200.02
737.447	165.2
737.633	197.97
737.819	349.52
738.004	197.97
738.19	255.31
738.375	240.98
738.561	296.27
738.747	210.26
738.932	210.26
739.118	419.15
739.303	308.56
739.489	326.99
739.674	167.25
739.859	245.07
740.045	226.64
740.23	210.26
740.416	103.76
740.601	296.27
740.786	175.44
740.972	181.59
741.157	185.68
741.342	175.44
741.528	150.87
741.713	355.66
741.898	286.03
742.084	269.65
742.269	226.64
742.454	286.03
742.639	316.75
742.824	249.17
743.01	363.86
743.195	288.08
743.38	230.74
743.565	218.45
743.75	298.32
743.935	363.86
744.12	281.94
744.305	163.15
744.49	322.9
744.675	236.88
744.86	220.5
745.045	261.46
745.23	267.6
745.415	228.69
745.6	337.23
745.785	216.4
745.97	259.41
746.155	267.6
746.34	290.13
746.525	255.31
746.71	300.37
746.895	105.81
747.079	140.63
747.264	148.82
747.449	226.64
747.634	351.57
747.819	382.29
748.003	243.03
748.188	185.68
748.373	306.51
748.557	187.73
748.742	191.83
748.927	232.79
749.111	124.24
749.296	226.64
749.481	220.5
749.665	171.35
749.85	157.01
750.034	212.31
750.219	230.74
750.404	195.92
750.588	275.79
750.773	71
750.957	214.35
751.141	236.88
751.326	216.4
751.51	99.67
751.695	183.63
751.879	195.92
752.064	277.84
752.248	220.5
752.432	304.46
752.617	202.07
752.801	300.37
752.985	169.3
753.17	286.03
753.354	191.83
753.538	222.55
753.722	204.11
753.907	193.87
754.091	87.38
754.275	283.99
754.459	138.58
754.643	154.96
754.828	197.97
755.012	179.54
755.196	83.28
755.38	212.31
755.564	105.81
755.748	181.59
755.932	236.88
756.116	214.35
756.3	290.13
756.484	144.72
756.668	206.16
756.852	13.65
757.036	165.2
757.22	128.34
757.404	101.72
757.588	181.59
757.772	263.51
757.956	99.67
758.14	273.75
758.323	114
758.507	142.68
758.691	122.2
758.875	161.11
759.059	208.21
759.242	150.87
759.426	214.35
759.61	130.39
759.794	109.91
759.977	238.93
760.161	335.18
760.345	210.26
760.528	261.46
760.712	130.39
760.895	177.49
761.079	179.54
761.263	138.58
761.446	148.82
761.63	68.95
761.813	261.46
761.997	46.42
762.18	118.1
762.364	111.96
762.547	56.66
762.731	66.9
762.914	81.24
763.098	75.09
763.281	128.34
763.464	68.95
763.648	165.2
763.831	36.18
764.015	122.2
764.198	150.87
764.381	87.38
764.564	126.29
764.748	73.04
764.931	173.39
765.114	157.01
765.297	148.82
765.481	54.61
765.664	97.62
765.847	66.9
766.03	165.2
766.213	36.18
766.397	60.76
766.58	-21.16
766.763	200.02
766.946	-0.68
767.129	48.47
767.312	54.61
767.495	58.71
767.678	87.38
767.861	157.01
768.044	161.11
768.227	77.14
768.41	73.04
768.593	118.1
768.776	171.35
768.959	107.86
769.142	138.58
769.324	13.65
769.507	60.76
769.69	171.35
769.873	101.72
770.056	195.92
770.239	87.38
770.421	109.91
770.604	171.35
770.787	32.08
770.97	234.83
771.152	-2.73
771.335	197.97
771.518	-17.07
771.7	91.48
771.883	234.83
772.066	81.24
772.248	130.39
772.431	218.45
772.613	152.92
772.796	5.46
772.978	175.44
773.161	171.35
773.343	46.42
773.526	95.57
773.708	-25.26
773.891	17.75
774.073	-21.16
774.256	-39.59
774.438	206.16
774.621	21.85
774.803	146.77
774.985	85.33
775.168	118.1
775.35	62.8
775.532	58.71
775.715	66.9
775.897	136.53
776.079	81.24
776.261	169.3
776.444	54.61
776.626	11.61
776.808	79.19
776.99	52.56
777.173	93.52
777.355	73.04
777.537	66.9
777.719	111.96
777.901	32.08
778.083	15.7
778.265	-19.11
778.447	109.91
778.629	9.56
778.811	71
778.993	114
779.175	165.2
779.357	44.37
779.539	-37.55
779.721	46.42
779.903	167.25
780.085	-0.68
780.267	75.09
780.449	91.48
780.631	66.9
780.812	75.09
780.994	62.8
781.176	64.85
781.358	62.8
781.54	75.09
781.721	68.95
781.903	124.24
782.085	32.08
782.267	142.68
782.448	19.8
782.63	58.71
782.812	77.14
782.993	91.48
783.175	114
783.357	71
783.538	40.28
783.72	27.99
783.901	-19.11
784.083	27.99
784.264	118.1
784.446	-2.73
784.627	-31.4
784.809	124.24
784.99	-55.98
785.172	122.2
785.353	73.04
785.535	83.28
785.716	-29.35
785.897	-70.31
786.079	77.14
786.26	5.46
786.441	87.38
786.623	-35.5
786.804	25.94
786.985	11.61
787.167	62.8
787.348	7.51
787.529	95.57
787.71	187.73
787.891	79.19
788.073	-2.73
788.254	-84.65
788.435	130.39
788.616	58.71
788.797	-23.21
788.978	56.66
789.159	7.51
789.34	27.99
789.522	-21.16
789.703	-39.59
789.884	54.61
790.065	42.32
790.246	144.72
790.427	79.19
790.607	148.82
790.788	122.2
790.969	17.75
791.15	60.76
791.331	11.61
791.512	-41.64
791.693	-2.73
791.874	77.14
792.054	216.4
792.235	46.42
792.416	-62.12
792.597	-94.89
792.778	79.19
792.958	126.29
793.139	42.32
793.32	79.19
793.5	7.51
793.681	21.85
793.862	157.01
794.042	40.28
794.223	-70.31
794.404	15.7
794.584	-43.69
794.765	79.19
794.945	-19.11
795.126	79.19
795.306	-12.97
795.487	-4.78
795.667	5.46
795.848	54.61
796.028	21.85
796.209	30.04
796.389	52.56
796.57	1.37
796.75	-21.16
796.93	23.89
797.111	-23.21
797.291	30.04
797.471	140.63
797.652	-8.87
797.832	3.41
798.012	64.85
798.192	3.41
798.373	-39.59
798.553	52.56
798.733	30.04
798.913	-68.27
799.093	46.42
799.274	97.62
799.454	62.8
799.634	60.76
799.814	77.14
799.994	95.57
800.174	134.48
800.354	75.09
800.534	-80.55
800.714	54.61
800.894	1.37
801.074	-53.93
801.254	-58.03
801.434	48.47
801.614	-62.12
801.794	-35.5
801.974	1586.49
802.154	19.8
802.334	50.52
802.514	-23.21
802.693	34.13
802.873	-43.69
803.053	95.57
803.233	21.85
803.413	-41.64
803.592	-47.79
803.772	-53.93
803.952	23.89
804.131	42.32
804.311	62.8
804.491	107.86
804.67	-39.59
804.85	-15.02
805.03	118.1
805.209	118.1
805.389	-29.35
805.568	-2.73
805.748	38.23
805.928	7.51
806.107	58.71
806.287	50.52
806.466	48.47
806.646	13.65
806.825	1.37
807.004	21.85
807.184	46.42
807.363	73.04
807.543	71
807.722	-10.92
807.901	120.15
808.081	157.01
808.26	-47.79
808.439	38.23
808.619	-31.4
808.798	-35.5
808.977	81.24
809.156	85.33
809.336	173.39
809.515	87.38
809.694	-25.26
809.873	17.75
810.052	58.71
810.231	89.43
810.411	128.34
810.59	144.72
810.769	73.04
810.948	107.86
811.127	-109.22
811.306	-64.17
811.485	-60.07
811.664	152.92
811.843	-41.64
812.022	107.86
812.201	1.37
812.38	-17.07
812.559	5.46
812.737	46.42
812.916	-84.65
813.095	-6.83
813.274	27.99
813.453	13.65
813.632	17.75
813.811	111.96
813.989	-90.79
814.168	30.04
814.347	-43.69
814.526	38.23
814.704	140.63
814.883	157.01
815.062	19.8
815.24	54.61
815.419	-39.59
815.598	36.18
815.776	-103.08
815.955	-8.87
816.133	-152.23
816.312	11.61
816.49	-66.22
816.669	52.56
816.847	77.14
817.026	15.7
817.204	-19.11
817.383	-101.03
817.561	-51.88
817.74	54.61
817.918	50.52
818.097	-64.17
818.275	-53.93
818.453	25.94
818.632	15.7
818.81	-45.74
818.988	-17.07
819.167	-51.88
819.345	62.8
819.523	-49.83
819.701	-17.07
819.879	13.65
820.058	-10.92
820.236	9.56
820.414	34.13
820.592	27.99
820.77	-43.69
820.948	-84.65
821.127	13.65
821.305	19.8
821.483	-94.89
821.661	95.57
821.839	13.65
822.017	3.41
822.195	44.37
822.373	62.8
822.551	52.56
822.729	7.51
822.907	46.42
823.085	126.29
823.262	30.04
823.44	-51.88
823.618	-51.88
823.796	89.43
823.974	13.65
824.152	-90.79
824.329	62.8
824.507	60.76
824.685	77.14
824.863	7.51
825.04	-62.12
825.218	111.96
825.396	68.95
825.574	32.08
825.751	19.8
825.929	56.66
826.107	-27.31
826.284	30.04
826.462	-19.11
826.639	-31.4
826.817	-86.7
826.994	32.08
827.172	-51.88
827.349	114
827.527	-12.97
827.704	5.46
827.882	87.38
828.059	77.14
828.237	1.37
828.414	36.18
828.591	-117.42
828.769	146.77
828.946	-76.46
829.124	134.48
829.301	71
829.478	-64.17
829.655	68.95
829.833	50.52
830.01	-164.52
830.187	50.52
830.364	15.7
830.542	27.99
830.719	91.48
830.896	-29.35
831.073	-23.21
831.25	25.94
831.427	36.18
831.604	-41.64
831.782	-12.97
831.959	54.61
832.136	-2.73
832.313	15.7
832.49	-27.31
832.667	114
832.844	-29.35
833.021	159.06
833.198	52.56
833.374	-27.31
833.551	32.08
833.728	25.94
833.905	64.85
834.082	-60.07
834.259	9.56
834.436	91.48
834.612	-58.03
834.789	62.8
834.966	-37.55
835.143	3.41
835.319	-27.31
835.496	75.09
835.673	62.8
835.85	40.28
836.026	64.85
836.203	54.61
836.38	21.85
836.556	7.51
836.733	5.46
836.909	126.29
837.086	7.51
837.262	-109.22
837.439	85.33
837.616	-98.99
837.792	21.85
837.968	-39.59
838.145	-96.94
838.321	-33.45
838.498	7.51
838.674	17.75
838.851	44.37
839.027	-84.65
839.203	-6.83
839.38	85.33
839.556	-12.97
839.732	34.13
839.909	3.41
840.085	54.61
840.261	-84.65
840.437	-0.68
840.614	-10.92
840.79	87.38
840.966	-27.31
841.142	42.32
841.318	-86.7
841.494	89.43
841.671	23.89
841.847	-31.4
842.023	-37.55
842.199	25.94
842.375	132.44
842.551	-119.46
842.727	-70.31
842.903	91.48
843.079	-154.28
843.255	58.71
843.431	-0.68
843.607	38.23
843.783	-219.82
843.959	11.61
844.134	-23.21
844.31	128.34
844.486	-96.94
844.662	-105.13
844.838	-21.16
845.013	62.8
845.189	46.42
845.365	15.7
845.541	50.52
845.716	56.66
845.892	73.04
846.068	-107.18
846.244	25.94
846.419	40.28
846.595	-76.46
846.77	-31.4
846.946	116.05
847.122	-8.87
847.297	46.42
847.473	154.96
847.648	-55.98
847.824	17.75
847.999	-123.56
848.175	68.95
848.35	-0.68
848.526	169.3
848.701	116.05
848.876	23.89
849.052	48.47
849.227	-31.4
849.403	-23.21
849.578	-19.11
849.753	-2.73
849.929	81.24
850.104	-10.92
850.279	9.56
850.454	-37.55
850.63	66.9
850.805	68.95
850.98	5.46
851.155	-45.74
851.33	-6.83
851.505	-94.89
851.681	105.81
851.856	-68.27
852.031	58.71
852.206	-60.07
852.381	-21.16
852.556	-80.55
852.731	52.56
852.906	40.28
853.081	83.28
853.256	38.23
853.431	-23.21
853.606	-47.79
853.781	-72.36
853.956	-29.35
854.131	27.99
854.305	-41.64
854.48	-70.31
854.655	-72.36
854.83	-17.07
855.005	9.56
855.18	13.65
855.354	7.51
855.529	68.95
855.704	-107.18
855.879	36.18
856.053	-123.56
856.228	38.23
856.403	-37.55
856.577	40.28
856.752	-68.27
856.926	27.99
857.101	105.81
857.276	-111.27
857.45	62.8
857.625	75.09
857.799	30.04
857.974	-41.64
858.148	-98.99
858.323	99.67
858.497	-55.98
858.672	-76.46
858.846	-123.56
859.02	-19.11
859.195	-72.36
859.369	17.75
859.543	27.99
859.718	38.23
859.892	9.56
860.066	-27.31
860.241	-64.17
860.415	3.41
860.589	62.8
860.763	-43.69
860.938	-8.87
861.112	79.19
861.286	-55.98
861.46	75.09
861.634	107.86
861.808	58.71
861.982	1.37
862.157	-115.37
862.331	-62.12
862.505	-109.22
862.679	-80.55
862.853	-72.36
863.027	-0.68
863.201	114
863.375	-15.02
863.549	56.66
863.722	30.04
863.896	-0.68
864.07	-6.83
864.244	64.85
864.418	-25.26
864.592	40.28
864.766	1.37
864.939	-21.16
865.113	-12.97
865.287	101.72
865.461	-66.22
865.634	34.13
865.808	-41.64
865.982	13.65
866.156	-37.55
866.329	-164.52
866.503	48.47
866.676	85.33
866.85	36.18
867.024	11.61
867.197	32.08
867.371	38.23
867.544	38.23
867.718	-58.03
867.891	109.91
868.065	-58.03
868.238	42.32
868.412	52.56
868.585	-12.97
868.759	-45.74
868.932	3.41
869.105	-43.69
869.279	-10.92
869.452	-58.03
869.625	-0.68
869.799	-23.21
869.972	-19.11
870.145	-2.73
870.319	114
870.492	93.52
870.665	-19.11
870.838	-2.73
871.011	-115.37
871.185	-62.12
871.358	32.08
871.531	1.37
871.704	-6.83
871.877	3.41
872.05	-10.92
872.223	-31.4
872.396	42.32
872.569	36.18
872.742	-129.7
872.915	5.46
873.088	-2.73
873.261	-10.92
873.434	68.95
873.607	21.85
873.78	136.53
873.953	-80.55
874.126	34.13
874.299	36.18
874.471	-96.94
874.644	30.04
874.817	-2.73
874.99	91.48
875.163	7.51
875.335	36.18
875.508	-21.16
875.681	60.76
875.853	-86.7
876.026	48.47
876.199	68.95
876.371	-25.26
876.544	15.7
876.717	1.37
876.889	-4.78
877.062	25.94
877.234	-72.36
877.407	-96.94
877.579	-4.78
877.752	-17.07
877.924	85.33
878.097	75.09
878.269	36.18
878.442	19.8
878.614	85.33
878.786	17.75
878.959	-4.78
879.131	19.8
879.303	-55.98
879.476	-2.73
879.648	124.24
879.82	27.99
879.993	-45.74
880.165	-47.79
880.337	-72.36
880.509	-10.92
880.681	-68.27
880.854	-43.69
881.026	66.9
881.198	64.85
881.37	-21.16
881.542	15.7
881.714	-53.93
881.886	-4.78
882.058	-60.07
882.23	9.56
882.402	-86.7
882.574	-45.74
882.746	9.56
882.918	118.1
883.09	44.37
883.262	56.66
883.434	17.75
883.606	-70.31
883.778	-23.21
883.95	132.44
884.122	-27.31
884.293	-8.87
884.465	-72.36
884.637	85.33
884.809	-66.22
884.98	73.04
885.152	73.04
885.324	-6.83
885.496	-41.64
885.667	-68.27
885.839	-15.02
886.011	50.52
886.182	71
886.354	75.09
886.525	25.94
886.697	36.18
886.869	-6.83
887.04	-25.26
887.212	136.53
887.383	187.73
887.555	-15.02
887.726	-51.88
887.897	-23.21
888.069	38.23
888.24	71
888.412	-58.03
888.583	-62.12
888.754	-0.68
888.926	-127.66
889.097	-70.31
889.268	-90.79
889.44	-17.07
889.611	3.41
889.782	-4.78
889.953	-90.79
890.125	64.85
890.296	-107.18
890.467	-60.07
890.638	-19.11
890.809	-23.21
890.98	-2.73
891.151	54.61
891.323	42.32
891.494	58.71
891.665	13.65
891.836	-15.02
892.007	3.41
892.178	34.13
892.349	27.99
892.52	-62.12
892.691	25.94
892.862	25.94
893.032	-137.9
893.203	-66.22
893.374	25.94
893.545	144.72
893.716	-29.35
893.887	58.71
894.057	73.04
894.228	7.51
894.399	-35.5
894.57	107.86
894.74	-37.55
894.911	5.46
895.082	3.41
895.253	-39.59
895.423	-19.11
895.594	64.85
895.764	54.61
895.935	-68.27
896.106	36.18
896.276	-53.93
896.447	81.24
896.617	-55.98
896.788	-80.55
896.958	-58.03
897.129	-17.07
897.299	-6.83
897.47	111.96
897.64	60.76
897.81	9.56
897.981	-8.87
898.151	-115.37
898.322	1.37
898.492	-6.83
898.662	-133.8
898.832	9.56
899.003	-113.32
899.173	-15.02
899.343	-66.22
899.513	-101.03
