Data from USB4F104151__86__10-44-27-969.txt Node

Date: Wed Feb 26 10:44:27 EST 2025
User: louis
Spectrometer: USB4F10415
Trigger mode: 4
Integration Time (sec): 1.000000E-1
Scans to average: 1
Electric dark correction enabled: true
Nonlinearity correction enabled: false
Boxcar width: 0
XAxis mode: Wavelengths
Number of Pixels in Spectrum: 3648
>>>>>Begin Spectral Data<<<<<
178.204	-373.24
178.424	-373.24
178.644	-373.24
178.864	-299.52
179.084	-438.78
179.304	3.58
179.524	-35.33
179.744	54.78
179.964	-12.8
180.184	-2.56
180.404	26.11
180.624	-78.33
180.844	46.59
181.064	-37.38
181.283	36.35
181.503	-33.28
181.723	32.26
181.943	-68.09
182.163	175.61
182.383	-25.09
182.602	17.92
182.822	153.09
183.042	79.36
183.262	-4.61
183.482	5.63
183.701	32.26
183.921	73.21
184.141	-66.05
184.361	146.94
184.58	87.55
184.8	-18.94
185.02	13.82
185.239	42.5
185.459	71.17
185.679	122.37
185.898	-152.06
186.118	46.59
186.338	120.32
186.557	101.89
186.777	-49.66
186.997	-18.94
187.216	30.21
187.436	148.99
187.655	62.98
187.875	108.03
188.095	62.98
188.314	155.13
188.534	69.12
188.753	-10.75
188.973	99.84
189.192	171.52
189.412	-12.8
189.631	24.06
189.851	81.41
190.07	187.9
190.29	-8.7
190.509	1.54
190.729	87.55
190.948	105.98
191.168	261.63
191.387	101.89
191.607	32.26
191.826	126.46
192.045	24.06
192.265	32.26
192.484	77.31
192.704	85.5
192.923	13.82
193.142	243.2
193.362	136.7
193.581	22.02
193.8	105.98
194.02	114.17
194.239	75.26
194.458	-20.99
194.678	-14.85
194.897	7.68
195.116	65.02
195.335	148.99
195.555	153.09
195.774	17.92
195.993	69.12
196.212	36.35
196.432	-0.51
196.651	-68.09
196.87	7.68
197.089	216.57
197.308	60.93
197.528	110.08
197.747	-47.62
197.966	73.21
198.185	120.32
198.404	5.63
198.623	255.48
198.842	189.95
199.062	81.41
199.281	93.69
199.5	40.45
199.719	69.12
199.938	58.88
200.157	85.5
200.376	134.65
200.595	101.89
200.814	99.84
201.033	81.41
201.252	169.47
201.471	108.03
201.69	44.54
201.909	87.55
202.128	48.64
202.347	71.17
202.566	114.17
202.785	-18.94
203.004	28.16
203.223	220.67
203.442	24.06
203.661	-18.94
203.879	124.41
204.098	189.95
204.317	13.82
204.536	91.65
204.755	42.5
204.974	79.36
205.193	44.54
205.411	118.27
205.63	169.47
205.849	67.07
206.068	22.02
206.287	1.54
206.505	192
206.724	56.83
206.943	-0.51
207.162	32.26
207.381	75.26
207.599	34.3
207.818	101.89
208.037	22.02
208.255	-25.09
208.474	48.64
208.693	46.59
208.911	-45.57
209.13	87.55
209.349	101.89
209.567	101.89
209.786	108.03
210.005	58.88
210.223	95.74
210.442	-55.81
210.661	60.93
210.879	138.75
211.098	67.07
211.316	56.83
211.535	26.11
211.753	81.41
211.972	138.75
212.191	5.63
212.409	87.55
212.628	7.68
212.846	5.63
213.065	87.55
213.283	151.04
213.502	108.03
213.72	67.07
213.938	48.64
214.157	19.97
214.375	83.45
214.594	103.93
214.812	126.46
215.031	28.16
215.249	5.63
215.467	44.54
215.686	48.64
215.904	153.09
216.122	73.21
216.341	153.09
216.559	65.02
216.778	146.94
216.996	243.2
217.214	5.63
217.432	24.06
217.651	-49.66
217.869	120.32
218.087	30.21
218.306	-53.76
218.524	69.12
218.742	42.5
218.96	114.17
219.179	-33.28
219.397	89.6
219.615	173.57
219.833	130.56
220.051	-27.14
220.27	108.03
220.488	99.84
220.706	7.68
220.924	-4.61
221.142	73.21
221.36	71.17
221.578	99.84
221.796	17.92
222.015	38.4
222.233	48.64
222.451	222.72
222.669	54.78
222.887	83.45
223.105	30.21
223.323	110.08
223.541	11.78
223.759	75.26
223.977	99.84
224.195	73.21
224.413	97.79
224.631	77.31
224.849	77.31
225.067	212.48
225.285	56.83
225.503	30.21
225.721	-25.09
225.939	40.45
226.157	73.21
226.375	216.57
226.592	-41.47
226.81	85.5
227.028	157.18
227.246	208.38
227.464	32.26
227.682	138.75
227.9	81.41
228.117	50.69
228.335	105.98
228.553	144.89
228.771	38.4
228.989	15.87
229.206	120.32
229.424	-8.7
229.642	24.06
229.86	11.78
230.077	79.36
230.295	-8.7
230.513	52.74
230.731	93.69
230.948	112.13
231.166	169.47
231.384	-10.75
231.601	-31.23
231.819	255.48
232.037	-61.95
232.254	-84.48
232.472	44.54
232.689	-12.8
232.907	93.69
233.125	75.26
233.342	32.26
233.56	-66.05
233.777	1.54
233.995	-0.51
234.213	95.74
234.43	153.09
234.648	-6.66
234.865	93.69
235.083	93.69
235.3	83.45
235.518	65.02
235.735	136.7
235.953	93.69
236.17	87.55
236.388	93.69
236.605	56.83
236.822	126.46
237.04	101.89
237.257	118.27
237.475	-14.85
237.692	9.73
237.909	69.12
238.127	65.02
238.344	157.18
238.562	79.36
238.779	54.78
238.996	-27.14
239.214	24.06
239.431	44.54
239.648	17.92
239.865	77.31
240.083	62.98
240.3	-51.71
240.517	-35.33
240.735	77.31
240.952	118.27
241.169	105.98
241.386	44.54
241.603	3.58
241.821	38.4
242.038	136.7
242.255	73.21
242.472	-53.76
242.689	73.21
242.907	120.32
243.124	114.17
243.341	22.02
243.558	116.22
243.775	-2.56
243.992	-10.75
244.209	99.84
244.426	185.85
244.643	42.5
244.86	62.98
245.078	165.37
245.295	11.78
245.512	38.4
245.729	-41.47
245.946	95.74
246.163	44.54
246.38	38.4
246.597	73.21
246.814	65.02
247.031	75.26
247.248	-45.57
247.464	75.26
247.681	65.02
247.898	60.93
248.115	52.74
248.332	38.4
248.549	83.45
248.766	212.48
248.983	95.74
249.2	48.64
249.417	54.78
249.633	-16.9
249.85	56.83
250.067	9.73
250.284	15.87
250.501	-23.04
250.717	108.03
250.934	-20.99
251.151	30.21
251.368	73.21
251.585	67.07
251.801	60.93
252.018	75.26
252.235	161.28
252.451	-51.71
252.668	-29.18
252.885	114.17
253.102	34.3
253.318	89.6
253.535	30.21
253.752	36.35
253.968	-12.8
254.185	-25.09
254.401	52.74
254.618	65.02
254.835	1.54
255.051	140.8
255.268	161.28
255.484	-2.56
255.701	34.3
255.917	71.17
256.134	65.02
256.351	34.3
256.567	22.02
256.784	28.16
257	-88.57
257.217	126.46
257.433	128.51
257.65	69.12
257.866	118.27
258.082	-39.42
258.299	-39.42
258.515	75.26
258.732	-31.23
258.948	-20.99
259.165	34.3
259.381	54.78
259.597	77.31
259.814	-8.7
260.03	-8.7
260.246	22.02
260.463	79.36
260.679	91.65
260.895	108.03
261.112	56.83
261.328	22.02
261.544	71.17
261.761	122.37
261.977	-53.76
262.193	-78.33
262.409	83.45
262.626	58.88
262.842	50.69
263.058	-8.7
263.274	148.99
263.49	83.45
263.707	134.65
263.923	114.17
264.139	-27.14
264.355	50.69
264.571	-0.51
264.787	155.13
265.004	163.33
265.22	50.69
265.436	-31.23
265.652	28.16
265.868	56.83
266.084	-8.7
266.3	30.21
266.516	-41.47
266.732	108.03
266.948	114.17
267.164	-16.9
267.38	112.13
267.596	85.5
267.812	118.27
268.028	-6.66
268.244	36.35
268.46	50.69
268.676	34.3
268.892	99.84
269.108	3.58
269.324	19.97
269.54	-20.99
269.756	146.94
269.972	-39.42
270.188	34.3
270.403	-41.47
270.619	89.6
270.835	112.13
271.051	48.64
271.267	-70.14
271.483	13.82
271.698	79.36
271.914	42.5
272.13	58.88
272.346	87.55
272.562	103.93
272.777	155.13
272.993	44.54
273.209	36.35
273.425	19.97
273.64	1.54
273.856	56.83
274.072	-18.94
274.287	17.92
274.503	112.13
274.719	81.41
274.934	42.5
275.15	-47.62
275.366	15.87
275.581	13.82
275.797	99.84
276.012	48.64
276.228	93.69
276.444	3.58
276.659	161.28
276.875	3.58
277.09	36.35
277.306	46.59
277.521	85.5
277.737	-10.75
277.952	101.89
278.168	52.74
278.383	48.64
278.599	110.08
278.814	118.27
279.03	17.92
279.245	163.33
279.461	-12.8
279.676	77.31
279.892	75.26
280.107	15.87
280.322	75.26
280.538	105.98
280.753	28.16
280.969	48.64
281.184	118.27
281.399	157.18
281.615	65.02
281.83	50.69
282.045	19.97
282.26	-25.09
282.476	36.35
282.691	85.5
282.906	40.45
283.122	32.26
283.337	5.63
283.552	67.07
283.767	5.63
283.983	142.85
284.198	67.07
284.413	69.12
284.628	-57.86
284.843	83.45
285.058	69.12
285.274	-39.42
285.489	-47.62
285.704	112.13
285.919	17.92
286.134	13.82
286.349	60.93
286.564	26.11
286.779	114.17
286.995	62.98
287.21	-53.76
287.425	34.3
287.64	48.64
287.855	110.08
288.07	15.87
288.285	153.09
288.5	148.99
288.715	71.17
288.93	30.21
289.145	-18.94
289.36	73.21
289.575	19.97
289.79	46.59
290.004	24.06
290.219	159.23
290.434	79.36
290.649	9.73
290.864	56.83
291.079	-12.8
291.294	75.26
291.509	56.83
291.724	17.92
291.938	22.02
292.153	52.74
292.368	24.06
292.583	42.5
292.798	22.02
293.012	60.93
293.227	69.12
293.442	34.3
293.657	105.98
293.871	146.94
294.086	122.37
294.301	192
294.516	120.32
294.73	60.93
294.945	-20.99
295.16	22.02
295.374	128.51
295.589	120.32
295.804	26.11
296.018	54.78
296.233	85.5
296.447	89.6
296.662	-41.47
296.877	132.61
297.091	50.69
297.306	42.5
297.52	48.64
297.735	9.73
297.949	75.26
298.164	85.5
298.378	89.6
298.593	5.63
298.807	-8.7
299.022	40.45
299.236	159.23
299.451	-0.51
299.665	7.68
299.88	52.74
300.094	44.54
300.309	56.83
300.523	13.82
300.737	5.63
300.952	132.61
301.166	89.6
301.381	-100.86
301.595	17.92
301.809	26.11
302.024	44.54
302.238	34.3
302.452	128.51
302.667	11.78
302.881	124.41
303.095	185.85
303.309	91.65
303.524	34.3
303.738	-14.85
303.952	-33.28
304.166	110.08
304.381	-53.76
304.595	173.57
304.809	24.06
305.023	30.21
305.237	62.98
305.452	95.74
305.666	5.63
305.88	50.69
306.094	93.69
306.308	103.93
306.522	9.73
306.736	124.41
306.95	136.7
307.164	3.58
307.379	30.21
307.593	69.12
307.807	148.99
308.021	65.02
308.235	52.74
308.449	-29.18
308.663	130.56
308.877	247.29
309.091	-12.8
309.305	15.87
309.519	-100.86
309.733	134.65
309.947	-47.62
310.161	87.55
310.374	73.21
310.588	151.04
310.802	3.58
311.016	17.92
311.23	81.41
311.444	-64
311.658	60.93
311.872	128.51
312.085	151.04
312.299	46.59
312.513	192
312.727	19.97
312.941	-20.99
313.154	50.69
313.368	36.35
313.582	118.27
313.796	19.97
314.009	36.35
314.223	148.99
314.437	48.64
314.651	169.47
314.864	-20.99
315.078	-33.28
315.292	-27.14
315.505	13.82
315.719	71.17
315.933	79.36
316.146	46.59
316.36	-6.66
316.573	140.8
316.787	87.55
317.001	69.12
317.214	-16.9
317.428	136.7
317.641	19.97
317.855	-78.33
318.068	91.65
318.282	32.26
318.495	200.19
318.709	48.64
318.922	112.13
319.136	75.26
319.349	161.28
319.563	79.36
319.776	69.12
319.99	-98.81
320.203	105.98
320.417	91.65
320.63	151.04
320.843	148.99
321.057	134.65
321.27	71.17
321.483	134.65
321.697	142.85
321.91	52.74
322.124	58.88
322.337	75.26
322.55	19.97
322.763	79.36
322.977	44.54
323.19	-10.75
323.403	15.87
323.617	101.89
323.83	124.41
324.043	38.4
324.256	93.69
324.469	-25.09
324.683	157.18
324.896	73.21
325.109	85.5
325.322	-39.42
325.535	118.27
325.748	118.27
325.962	3.58
326.175	140.8
326.388	112.13
326.601	126.46
326.814	15.87
327.027	85.5
327.24	228.86
327.453	-47.62
327.666	79.36
327.879	138.75
328.092	189.95
328.305	81.41
328.518	75.26
328.731	91.65
328.944	40.45
329.157	142.85
329.37	50.69
329.583	194.05
329.796	101.89
330.009	-86.53
330.222	89.6
330.435	75.26
330.648	44.54
330.861	91.65
331.073	36.35
331.286	136.7
331.499	7.68
331.712	52.74
331.925	17.92
332.138	48.64
332.35	206.33
332.563	9.73
332.776	75.26
332.989	-20.99
333.202	5.63
333.414	5.63
333.627	9.73
333.84	1.54
334.053	50.69
334.265	71.17
334.478	-18.94
334.691	32.26
334.903	65.02
335.116	-45.57
335.329	-29.18
335.541	108.03
335.754	179.71
335.966	22.02
336.179	58.88
336.392	65.02
336.604	108.03
336.817	110.08
337.029	71.17
337.242	128.51
337.454	138.75
337.667	50.69
337.88	83.45
338.092	22.02
338.305	54.78
338.517	11.78
338.729	112.13
338.942	239.1
339.154	-18.94
339.367	-43.52
339.579	97.79
339.792	-29.18
340.004	105.98
340.217	40.45
340.429	46.59
340.641	34.3
340.854	-33.28
341.066	40.45
341.278	161.28
341.491	194.05
341.703	44.54
341.915	13.82
342.128	42.5
342.34	42.5
342.552	75.26
342.764	-45.57
342.977	62.98
343.189	112.13
343.401	85.5
343.613	-84.48
343.826	146.94
344.038	24.06
344.25	42.5
344.462	9.73
344.674	73.21
344.886	-27.14
345.099	87.55
345.311	89.6
345.523	30.21
345.735	-47.62
345.947	58.88
346.159	34.3
346.371	130.56
346.583	-33.28
346.795	157.18
347.007	-49.66
347.219	97.79
347.431	-16.9
347.643	91.65
347.855	36.35
348.067	118.27
348.279	-12.8
348.491	50.69
348.703	73.21
348.915	60.93
349.127	-55.81
349.339	19.97
349.551	-6.66
349.763	91.65
349.975	97.79
350.187	54.78
350.399	196.09
350.61	108.03
350.822	46.59
351.034	40.45
351.246	91.65
351.458	87.55
351.669	75.26
351.881	44.54
352.093	73.21
352.305	146.94
352.517	79.36
352.728	136.7
352.94	38.4
353.152	75.26
353.363	11.78
353.575	79.36
353.787	153.09
353.999	26.11
354.21	169.47
354.422	83.45
354.633	1.54
354.845	114.17
355.057	128.51
355.268	81.41
355.48	128.51
355.692	-31.23
355.903	32.26
356.115	15.87
356.326	-57.86
356.538	114.17
356.749	-16.9
356.961	185.85
357.172	-29.18
357.384	-80.38
357.595	183.81
357.807	22.02
358.018	58.88
358.23	118.27
358.441	273.92
358.653	67.07
358.864	42.5
359.075	-111.1
359.287	95.74
359.498	79.36
359.709	85.5
359.921	54.78
360.132	50.69
360.344	120.32
360.555	-41.47
360.766	179.71
360.977	-2.56
361.189	136.7
361.4	-66.05
361.611	169.47
361.823	93.69
362.034	44.54
362.245	-0.51
362.456	93.69
362.667	93.69
362.879	-31.23
363.09	177.66
363.301	42.5
363.512	22.02
363.723	52.74
363.935	-16.9
364.146	148.99
364.357	69.12
364.568	116.22
364.779	-64
364.99	118.27
365.201	-80.38
365.412	118.27
365.623	-94.72
365.834	93.69
366.045	7.68
366.256	128.51
366.467	77.31
366.678	44.54
366.889	69.12
367.1	28.16
367.311	130.56
367.522	48.64
367.733	136.7
367.944	105.98
368.155	75.26
368.366	46.59
368.577	108.03
368.788	132.61
368.999	44.54
369.209	151.04
369.42	196.09
369.631	210.43
369.842	95.74
370.053	54.78
370.264	161.28
370.474	-53.76
370.685	101.89
370.896	24.06
371.107	126.46
371.317	-23.04
371.528	9.73
371.739	163.33
371.95	69.12
372.16	151.04
372.371	-6.66
372.582	-61.95
372.792	83.45
373.003	114.17
373.214	50.69
373.424	56.83
373.635	-20.99
373.846	73.21
374.056	32.26
374.267	87.55
374.477	67.07
374.688	-14.85
374.898	118.27
375.109	52.74
375.319	71.17
375.53	140.8
375.74	105.98
375.951	42.5
376.161	60.93
376.372	157.18
376.582	11.78
376.793	140.8
377.003	-0.51
377.214	26.11
377.424	101.89
377.635	93.69
377.845	17.92
378.055	126.46
378.266	-29.18
378.476	22.02
378.686	69.12
378.897	95.74
379.107	134.65
379.317	132.61
379.528	32.26
379.738	179.71
379.948	-27.14
380.158	105.98
380.369	13.82
380.579	120.32
380.789	62.98
380.999	103.93
381.21	65.02
381.42	271.87
381.63	48.64
381.84	95.74
382.05	146.94
382.261	105.98
382.471	204.28
382.681	13.82
382.891	134.65
383.101	95.74
383.311	-64
383.521	52.74
383.731	148.99
383.941	62.98
384.151	56.83
384.361	54.78
384.571	114.17
384.781	56.83
384.991	210.43
385.201	173.57
385.411	85.5
385.621	54.78
385.831	26.11
386.041	71.17
386.251	56.83
386.461	89.6
386.671	54.78
386.881	26.11
387.091	3.58
387.301	175.61
387.511	108.03
387.72	56.83
387.93	116.22
388.14	5.63
388.35	32.26
388.56	112.13
388.769	99.84
388.979	52.74
389.189	-53.76
389.399	105.98
389.609	-20.99
389.818	146.94
390.028	40.45
390.238	134.65
390.447	9.73
390.657	146.94
390.867	32.26
391.076	26.11
391.286	28.16
391.496	79.36
391.705	50.69
391.915	200.19
392.125	151.04
392.334	65.02
392.544	187.9
392.753	-14.85
392.963	13.82
393.172	71.17
393.382	-6.66
393.591	183.81
393.801	22.02
394.01	169.47
394.22	142.85
394.429	89.6
394.639	-8.7
394.848	19.97
395.058	99.84
395.267	81.41
395.477	148.99
395.686	28.16
395.895	263.68
396.105	232.96
396.314	122.37
396.524	48.64
396.733	7.68
396.942	30.21
397.152	167.42
397.361	83.45
397.57	79.36
397.78	54.78
397.989	40.45
398.198	200.19
398.407	42.5
398.617	67.07
398.826	75.26
399.035	79.36
399.244	161.28
399.453	50.69
399.663	69.12
399.872	87.55
400.081	-43.52
400.29	116.22
400.499	17.92
400.708	118.27
400.917	69.12
401.127	19.97
401.336	-6.66
401.545	208.38
401.754	169.47
401.963	89.6
402.172	32.26
402.381	48.64
402.59	58.88
402.799	67.07
403.008	101.89
403.217	108.03
403.426	13.82
403.635	-18.94
403.844	146.94
404.053	36.35
404.262	-23.04
404.471	208.38
404.68	48.64
404.888	120.32
405.097	-0.51
405.306	71.17
405.515	95.74
405.724	79.36
405.933	167.42
406.142	24.06
406.35	159.23
406.559	85.5
406.768	67.07
406.977	204.28
407.185	79.36
407.394	122.37
407.603	-43.52
407.812	15.87
408.02	108.03
408.229	71.17
408.438	67.07
408.646	-70.14
408.855	50.69
409.064	52.74
409.272	48.64
409.481	93.69
409.69	9.73
409.898	60.93
410.107	118.27
410.315	110.08
410.524	-14.85
410.733	44.54
410.941	122.37
411.15	114.17
411.358	146.94
411.567	169.47
411.775	71.17
411.984	93.69
412.192	136.7
412.401	89.6
412.609	183.81
412.818	126.46
413.026	116.22
413.234	114.17
413.443	44.54
413.651	1.54
413.86	-14.85
414.068	116.22
414.276	198.14
414.485	46.59
414.693	140.8
414.901	146.94
415.11	101.89
415.318	67.07
415.526	85.5
415.734	97.79
415.943	52.74
416.151	210.43
416.359	34.3
416.567	83.45
416.776	54.78
416.984	220.67
417.192	200.19
417.4	95.74
417.608	46.59
417.817	13.82
418.025	177.66
418.233	202.24
418.441	24.06
418.649	-8.7
418.857	120.32
419.065	206.33
419.273	108.03
419.481	22.02
419.689	-10.75
419.897	83.45
420.105	-6.66
420.313	155.13
420.521	163.33
420.729	140.8
420.937	3.58
421.145	-12.8
421.353	136.7
421.561	200.19
421.769	52.74
421.977	-8.7
422.185	130.56
422.393	38.4
422.601	99.84
422.809	103.93
423.017	103.93
423.224	101.89
423.432	112.13
423.64	87.55
423.848	148.99
424.056	-2.56
424.263	112.13
424.471	40.45
424.679	153.09
424.887	75.26
425.094	142.85
425.302	120.32
425.51	40.45
425.718	140.8
425.925	83.45
426.133	9.73
426.341	179.71
426.548	7.68
426.756	69.12
426.964	112.13
427.171	71.17
427.379	40.45
427.586	136.7
427.794	95.74
428.001	126.46
428.209	101.89
428.417	200.19
428.624	222.72
428.832	93.69
429.039	110.08
429.247	120.32
429.454	165.37
429.662	261.63
429.869	138.75
430.076	112.13
430.284	222.72
430.491	280.06
430.699	110.08
430.906	239.1
431.114	163.33
431.321	118.27
431.528	124.41
431.736	183.81
431.943	167.42
432.15	171.52
432.358	202.24
432.565	257.53
432.772	13.82
432.979	224.76
433.187	89.6
433.394	198.14
433.601	132.61
433.808	206.33
434.016	296.44
434.223	235
434.43	167.42
434.637	259.58
434.844	275.96
435.052	232.96
435.259	290.3
435.466	253.44
435.673	235
435.88	247.29
436.087	415.23
436.294	302.59
436.501	273.92
436.708	316.92
436.915	413.18
437.122	341.5
437.329	247.29
437.537	357.88
437.743	357.88
437.95	476.66
438.157	425.47
438.364	351.74
438.571	386.55
438.778	450.04
438.985	478.71
439.192	507.38
439.399	402.94
439.606	447.99
439.813	478.71
440.02	613.88
440.227	605.69
440.433	599.54
440.64	458.23
440.847	568.82
441.054	517.62
441.261	695.8
441.467	658.93
441.674	701.94
441.881	699.89
442.088	574.97
442.294	675.32
442.501	787.96
442.708	847.35
442.914	783.86
443.121	747
443.328	900.59
443.534	925.17
443.741	943.6
443.948	787.96
444.154	992.75
444.361	1123.82
444.568	1060.34
444.774	978.42
444.981	871.92
445.187	1140.21
445.394	1037.81
445.6	1213.93
445.807	1177.07
446.013	1240.56
446.22	1220.08
446.426	1371.63
446.633	1459.69
446.839	1531.37
447.046	1390.06
447.252	1562.09
447.459	1609.19
447.665	1521.13
447.871	1752.55
448.078	1811.94
448.284	1744.36
448.491	2020.83
448.697	2074.08
448.903	2082.27
449.11	2125.28
449.316	2115.04
449.522	2389.47
449.728	2299.36
449.935	2518.49
450.141	2518.49
450.347	2678.23
450.553	2655.7
450.76	2665.94
450.966	2850.26
451.172	3112.4
451.378	3075.54
451.584	3141.07
451.791	3431.88
451.997	3401.16
452.203	3509.71
452.409	3513.8
452.615	3818.95
452.821	3724.74
453.027	3673.54
453.233	4263.36
453.44	4025.79
453.646	4449.72
453.852	4683.19
454.058	4631.99
454.264	4769.21
454.47	5121.46
454.676	5246.38
454.882	5707.18
455.088	5488.04
455.294	5655.98
455.5	6098.34
455.705	6305.18
455.911	6426.01
456.117	6712.73
456.323	6655.39
456.529	6854.04
456.735	7441.81
456.941	7437.71
457.147	7992.71
457.352	8310.15
457.558	8304
457.764	8895.86
457.97	9104.76
458.176	9475.44
458.381	9753.96
458.587	10163.56
458.793	10540.38
458.999	10655.07
459.204	11631.95
459.41	12352.84
459.616	12232.01
459.821	12889.4
460.027	13344.05
460.233	13966.63
460.438	14167.34
460.644	14832.93
460.85	14855.45
461.055	15611.15
461.261	16366.85
461.466	16094.47
461.672	16370.95
461.878	18228.46
462.083	17994.99
462.289	18169.07
462.494	19012.83
462.7	19414.23
462.905	19514.58
463.111	21081.28
463.316	22346.92
463.522	22785.19
463.727	23131.3
463.932	24376.46
464.138	24822.92
464.343	25918.58
464.549	26326.13
464.754	28261.46
464.959	28853.32
465.165	29234.24
465.37	29183.04
465.575	29146.18
465.781	30932.01
465.986	32072.73
466.191	31568.93
466.397	32005.14
466.602	31110.18
466.807	32924.68
467.012	33412.1
467.218	34182.13
467.423	33999.87
467.628	34976.75
467.833	36981.71
468.038	36561.87
468.244	35511.27
468.449	37202.89
468.654	36520.91
468.859	36520.91
469.064	36600.79
469.269	35890.14
469.474	36297.69
469.679	37028.81
469.885	36150.23
470.09	36459.48
470.295	36817.87
470.5	35871.71
470.705	36420.56
470.91	35142.63
471.115	34769.9
471.32	35691.49
471.525	34943.98
471.73	34276.34
471.935	34202.61
472.139	32564.24
472.344	32754.7
472.549	32711.69
472.754	32220.18
472.959	31360.03
473.164	30315.57
473.369	29856.82
473.574	30688.3
473.778	30133.3
473.983	29754.43
474.188	29031.49
474.393	27743.32
474.598	27864.15
474.802	27004
475.007	26885.22
475.212	26575.98
475.417	25703.54
475.621	24976.51
475.826	24917.12
476.031	24120.46
476.235	23979.15
476.44	23909.52
476.645	23061.66
476.849	22953.12
477.054	22543.53
477.259	21935.28
477.463	22095.02
477.668	21433.53
477.872	21529.78
478.077	20761.8
478.282	20425.93
478.486	20002
478.691	19899.6
478.895	19553.49
479.1	19647.7
479.304	19373.27
479.509	18736.35
479.713	19285.21
479.918	18431.21
480.122	17978.61
480.326	18408.68
480.531	18402.54
480.735	18048.24
480.94	17753.33
481.144	18195.69
481.348	17388.79
481.553	17374.45
481.757	16755.97
481.961	17323.26
482.166	17294.58
482.37	17132.79
482.574	16577.8
482.778	16645.38
482.983	17097.98
483.187	16327.94
483.391	16207.11
483.595	16073.99
483.8	15731.98
484.004	15906.06
484.208	15838.48
484.412	15375.64
484.616	15682.83
484.821	15297.81
485.025	14568.74
485.229	14916.89
485.433	14894.36
485.637	14533.92
485.841	14294.31
486.045	14044.46
486.249	14097.7
486.453	14009.64
486.657	13620.53
486.861	13356.34
487.065	13053.24
487.269	13032.76
487.473	12516.67
487.677	12766.53
487.881	12694.85
488.085	12111.18
488.289	12051.78
488.493	11758.92
488.697	11801.93
488.901	11578.7
489.105	11394.39
489.309	11390.29
489.512	11003.22
489.716	10648.93
489.92	10487.14
490.124	10247.52
490.328	10337.63
490.531	9753.96
490.735	9969
490.939	9696.62
491.143	9500.02
491.346	9477.49
491.55	9176.44
491.754	9184.63
491.958	8953.21
492.161	8838.52
492.365	8684.92
492.569	8471.93
492.772	8260.99
492.976	8330.62
493.18	8138.12
493.383	8146.31
493.587	8025.48
493.79	8035.72
493.994	7589.26
494.197	7445.9
494.401	7619.98
494.605	7415.18
494.808	7425.42
495.012	7228.82
495.215	7206.29
495.419	7357.84
495.622	7124.37
495.825	7191.95
496.029	7036.31
496.232	7126.42
496.436	7013.78
496.639	7187.86
496.843	6927.77
497.046	7191.95
497.249	7124.37
497.453	7009.69
497.656	6954.39
497.859	7105.94
498.063	7073.17
498.266	7138.71
498.469	6938.01
498.673	6890.9
498.876	7064.98
499.079	7167.38
499.282	7175.57
499.485	7472.53
499.689	7257.49
499.892	7273.87
500.095	7230.87
500.298	7421.33
500.501	7277.97
500.705	7374.22
500.908	7593.36
501.111	7470.48
501.314	7689.61
501.517	7726.47
501.72	7812.49
501.923	7779.72
502.126	7916.94
502.329	8181.12
502.532	8082.82
502.735	8271.23
502.938	8342.91
503.141	8492.41
503.344	8537.47
503.547	8506.75
503.75	8627.58
503.953	8842.62
504.156	8762.75
504.359	8945.02
504.562	9006.45
504.765	9360.75
504.968	9364.85
505.17	9493.87
505.373	9592.17
505.576	10052.97
505.779	9868.65
505.982	10102.12
506.185	10306.91
506.387	10300.77
506.59	10673.5
506.793	10937.69
506.996	10794.33
507.198	11208.02
507.401	11246.93
507.604	11640.14
507.807	12068.17
508.009	12221.77
508.212	12266.82
508.415	12553.54
508.617	12627.26
508.82	13002.04
509.022	13108.54
509.225	13225.27
509.428	13563.19
509.63	14071.08
509.833	14171.43
510.035	14783.77
510.238	14877.98
510.44	15312.15
510.643	15592.72
510.845	16063.75
511.048	15992.08
511.25	16448.77
511.453	16936.19
511.655	17738.99
511.858	17612.02
512.06	18230.51
512.262	18117.87
512.465	18773.22
512.667	19225.82
512.87	19535.06
513.072	20122.83
513.274	20432.07
513.477	21066.94
513.679	21499.06
513.881	21996.72
514.084	22424.75
514.286	22832.29
514.488	23276.7
514.69	24007.83
514.893	24734.85
515.095	24796.29
515.297	25404.54
515.499	25588.86
515.701	26520.68
515.904	27047.01
516.106	27550.81
516.308	28154.96
516.51	28804.17
516.712	28873.8
516.914	29625.4
517.116	30348.34
517.318	30456.88
517.52	31476.77
517.722	31947.8
517.925	32863.24
518.127	33217.54
518.329	33975.29
518.531	34104.31
518.733	34991.08
518.935	35570.66
519.136	36041.69
519.338	36576.21
519.54	37004.24
519.742	37790.66
519.944	38273.98
520.146	38982.57
520.348	39080.88
520.55	39203.75
520.752	39934.88
520.954	40760.21
521.155	40846.22
521.357	41941.89
521.559	42261.37
521.761	43158.38
521.963	43021.17
522.164	43477.86
522.366	44249.95
522.568	44454.75
522.77	44901.2
522.971	45441.87
523.173	45146.96
523.375	45835.08
523.576	45472.59
523.778	45779.78
523.98	46375.74
524.181	46727.99
524.383	46693.18
524.584	47475.5
524.786	47070
524.988	46727.99
525.189	47471.4
525.391	47420.2
525.592	47606.57
525.794	47348.53
525.995	47471.4
526.197	47434.54
526.398	47242.03
526.6	47348.53
526.801	46803.77
527.003	46943.03
527.204	47178.54
527.406	47127.34
527.607	46641.98
527.808	46816.05
528.01	45667.14
528.211	45568.84
528.412	46314.3
528.614	45841.22
528.815	45282.13
529.016	45116.24
529.218	44397.4
529.419	44237.66
529.62	43942.75
529.822	43916.13
530.023	43459.43
530.224	43064.17
530.425	42285.95
530.626	41540.49
530.828	41122.7
531.029	41452.42
531.23	40913.81
531.431	40307.61
531.632	40328.09
531.833	39732.13
532.035	39111.6
532.236	38491.06
532.437	38495.16
532.638	37766.08
532.839	37729.22
533.04	36981.71
533.241	36283.35
533.442	36451.28
533.643	35310.57
533.844	35177.45
534.045	34606.06
534.246	34130.94
534.447	33747.97
534.648	33555.46
534.849	32723.98
535.05	32330.77
535.251	31685.66
535.451	31355.94
535.652	31173.67
535.853	30661.68
536.054	30481.45
536.255	29944.89
536.456	29303.87
536.657	29869.11
536.857	28775.5
537.058	28394.57
537.259	28220.5
537.46	27827.29
537.66	27239.52
537.861	27133.03
538.062	26553.45
538.263	26174.58
538.463	25795.7
538.664	25422.97
538.865	25349.25
539.065	24962.18
539.266	24626.31
539.466	24583.3
539.667	23913.62
539.868	24204.43
540.068	23645.34
540.269	23245.98
540.469	23078.05
540.67	22971.55
540.87	22434.99
541.071	22267.05
541.271	22166.7
541.472	21470.39
541.672	21472.44
541.873	20950.21
542.073	20645.06
542.274	20892.87
542.474	20733.12
542.675	20235.47
542.875	19924.18
543.075	19438.81
543.276	19342.55
543.476	19543.25
543.676	19129.56
543.877	19150.04
544.077	18881.76
544.277	18615.52
544.478	18228.46
544.678	18197.74
544.878	17949.93
545.078	17650.93
545.279	17472.76
545.479	17356.02
545.679	17229.05
545.879	16889.09
546.079	16792.83
546.28	16405.77
546.48	16289.03
546.68	16493.83
546.88	16092.43
547.08	15639.83
547.28	15519
547.48	15449.36
547.68	15398.17
547.88	15207.7
548.081	15252.76
548.281	14826.78
548.481	14345.51
548.681	14615.84
548.881	13890.86
549.081	14210.34
549.28	13503.79
549.48	13868.33
549.68	13501.75
549.88	13317.43
550.08	12827.96
550.28	12834.11
550.48	13059.38
550.68	12813.63
550.88	12313.92
551.08	12303.68
551.279	12174.66
551.479	11828.56
551.679	11732.3
551.879	11531.6
552.079	11554.13
552.278	11191.64
552.478	11193.69
552.678	10906.97
552.878	10831.19
553.077	10417.51
553.277	10345.83
553.477	10548.58
553.676	10257.76
553.876	10079.59
554.076	9766.25
554.275	9667.95
554.475	9481.58
554.674	9442.67
554.874	9311.6
555.074	9284.98
555.273	8908.15
555.473	8846.71
555.672	8459.65
555.872	8600.96
556.071	8682.88
556.271	8400.26
556.47	8185.22
556.67	7886.22
556.869	8035.72
557.068	7814.54
557.268	7564.68
557.467	7490.96
557.667	7454.09
557.866	7265.68
558.065	7064.98
558.265	7056.79
558.464	6671.77
558.663	6827.42
558.863	6671.77
559.062	6624.67
559.261	6432.16
559.461	6571.42
559.66	6360.48
559.859	6114.72
560.058	5987.75
560.258	5801.38
560.457	5918.12
560.656	5866.92
560.855	5694.89
561.054	5758.38
561.253	5586.35
561.453	5502.38
561.652	5569.96
561.851	5492.14
562.05	5107.12
562.249	5088.69
562.448	5113.27
562.647	4988.34
562.846	4812.21
563.045	4976.05
563.244	4699.58
563.443	4748.73
563.642	4566.46
563.841	4548.03
564.04	4535.74
564.239	4296.13
564.438	4427.2
564.637	4355.52
564.836	4193.73
565.035	4210.11
565.234	4253.12
565.432	4089.28
565.631	4081.09
565.83	4052.42
566.029	3874.24
566.228	3857.86
566.427	3968.45
566.625	3524.04
566.824	3575.24
567.023	3671.5
567.222	3565
567.42	3481.03
567.619	3462.6
567.818	3395.02
568.016	3487.18
568.215	3212.75
568.414	3304.91
568.612	3177.94
568.811	3175.89
569.01	3141.07
569.208	3149.26
569.407	3120.59
569.605	3149.26
569.804	2966.99
570.002	2936.28
570.201	2778.58
570.4	3032.53
570.598	2815.45
570.797	2743.77
570.995	2612.7
571.193	2639.32
571.392	2598.36
571.59	2536.92
571.789	2584.02
571.987	2586.07
572.186	2559.45
572.384	2405.85
572.582	2428.38
572.781	2567.64
572.979	2221.53
573.177	2248.16
573.376	2110.94
573.574	2366.94
573.772	2190.81
573.971	2086.37
574.169	2098.66
574.367	2119.14
574.565	2121.18
574.763	2125.28
574.962	2029.03
575.16	1865.19
575.358	1857
575.556	1975.78
575.754	1865.19
575.952	1981.92
576.151	1893.86
576.349	1922.53
576.547	1607.14
576.745	1785.32
576.943	1732.07
577.141	1553.9
577.339	1553.9
577.537	1635.82
577.735	1627.62
577.933	1633.77
578.131	1498.6
578.329	1744.36
578.527	1445.35
578.725	1455.59
578.923	1269.23
579.121	1562.09
579.319	1375.72
579.516	1365.48
579.714	1629.67
579.912	1412.59
580.11	1175.02
580.308	1338.86
580.506	1334.76
580.704	1209.84
580.901	1240.56
581.099	1383.91
581.297	1306.09
581.495	1318.38
581.692	1244.65
581.89	1338.86
582.088	1302
582.285	1091.06
582.483	1078.77
582.681	1072.62
582.878	1121.77
583.076	1101.3
583.274	1060.34
583.471	1099.25
583.669	1066.48
583.866	982.51
584.064	888.31
584.262	830.96
584.459	892.4
584.657	996.85
584.854	1011.18
585.052	1031.66
585.249	908.79
585.447	900.59
585.644	822.77
585.841	966.13
586.039	1000.94
586.236	927.22
586.434	857.59
586.631	773.62
586.828	765.43
587.026	855.54
587.223	716.28
587.42	796.15
587.618	843.25
587.815	902.64
588.012	761.33
588.21	769.52
588.407	724.47
588.604	802.29
588.801	699.89
588.999	663.03
589.196	763.38
589.393	687.61
589.59	761.33
589.787	714.23
589.984	730.61
590.182	685.56
590.379	636.41
590.576	755.19
590.773	620.02
590.97	714.23
591.167	708.09
591.364	818.68
591.561	622.07
591.758	843.25
591.955	650.74
592.152	683.51
592.349	665.08
592.546	673.27
592.743	679.41
592.94	667.13
593.137	708.09
593.334	654.84
593.531	675.32
593.727	738.8
593.924	687.61
594.121	771.57
594.318	652.79
594.515	697.85
594.712	761.33
594.908	867.83
595.105	667.13
595.302	720.37
595.499	693.75
595.696	849.4
595.892	730.61
596.089	763.38
596.286	665.08
596.482	849.4
596.679	890.35
596.876	738.8
597.072	871.92
597.269	869.87
597.466	935.41
597.662	857.59
597.859	873.97
598.055	949.75
598.252	974.32
598.448	1082.86
598.645	1134.06
598.841	1183.21
599.038	1250.8
599.234	1273.32
599.431	1295.85
599.627	1252.84
599.824	1265.13
600.02	1353.2
600.217	1369.58
600.413	1441.26
600.609	1474.03
600.806	1811.94
601.002	1596.9
601.198	1605.1
601.395	1791.46
601.591	1795.56
601.787	1926.63
601.984	1961.44
602.18	1992.16
602.376	2020.83
602.572	2225.63
602.769	2317.79
602.965	2256.35
603.161	2252.25
603.357	2452.95
603.553	2612.7
603.75	2485.72
603.946	2663.9
604.142	2768.34
604.338	3046.87
604.534	2930.13
604.73	3063.25
604.926	3220.94
605.122	3177.94
605.318	3317.2
605.514	3542.47
605.71	3462.6
605.906	3722.7
606.102	3734.98
606.298	3999.17
606.494	3988.93
606.69	4263.36
606.886	4203.97
607.082	4257.22
607.278	4423.1
607.474	4466.11
607.67	4832.69
607.866	4734.39
608.062	5033.4
608.257	5135.79
608.453	5264.82
608.649	5371.31
608.845	5463.47
609.041	5572.01
609.236	5801.38
609.432	6077.86
609.628	6086.05
609.824	6243.74
610.019	6423.97
610.215	6657.43
610.411	6925.72
610.606	7099.8
610.802	7212.43
610.998	7533.97
611.193	7585.16
611.389	7777.67
611.584	8029.57
611.78	8177.03
611.976	8383.87
612.171	8682.88
612.367	8799.61
612.562	9031.03
612.758	9309.55
612.953	9327.99
613.149	9696.62
613.344	10098.02
613.539	10315.11
613.735	10521.95
613.93	10747.23
614.126	10906.97
614.321	11371.86
614.517	11828.56
614.712	12025.16
614.907	12313.92
615.103	12533.06
615.298	12889.4
615.493	13339.96
615.688	13174.07
615.884	14208.3
616.079	14140.71
616.274	14589.22
616.47	14882.08
616.665	15568.15
616.86	15471.89
617.055	15981.84
617.25	16227.59
617.445	16936.19
617.641	17095.93
617.836	17712.37
618.031	17632.5
618.226	18717.92
618.421	19029.21
618.616	19487.96
618.811	19768.53
619.006	20364.49
619.201	20694.21
619.396	21120.19
619.591	21300.41
619.786	22447.27
619.981	22201.52
620.176	23012.51
620.371	23198.88
620.566	23876.76
620.761	24360.08
620.956	24847.49
621.151	25074.82
621.346	26287.21
621.541	26182.77
621.735	27352.16
621.93	26993.76
622.125	27763.8
622.32	28288.08
622.515	28800.07
622.709	29396.03
622.904	29711.42
623.099	30151.73
623.294	30827.56
623.488	31185.96
623.683	32058.39
623.878	32066.58
624.072	33018.89
624.267	33465.35
624.462	33965.05
624.656	34235.38
624.851	34542.58
625.046	35222.5
625.24	35666.91
625.435	36053.98
625.629	36738
625.824	37137.35
626.018	37876.67
626.213	37512.13
626.407	38867.89
626.602	38398.9
626.796	39271.34
626.991	39924.64
627.185	39768.99
627.38	40571.8
627.574	40297.37
627.768	40151.96
627.963	40878.99
628.157	40571.8
628.352	41245.58
628.546	40833.94
628.74	41692.04
628.935	41223.05
629.129	41452.42
629.323	40909.71
629.517	40866.7
629.712	40465.3
629.906	40358.81
630.1	39943.07
630.294	40047.52
630.489	39408.55
630.683	38867.89
630.877	37860.29
631.071	37690.3
631.265	37301.19
631.459	36553.68
631.653	35480.55
631.848	34896.88
632.042	33831.93
632.236	33471.49
632.43	32064.53
632.624	31583.26
632.818	30389.3
633.012	29291.59
633.206	28816.46
633.4	27872.34
633.594	26641.51
633.788	26221.68
633.982	25111.68
634.176	24378.51
634.369	23182.49
634.563	22602.92
634.757	21425.34
634.951	20825.28
635.145	19983.57
635.339	19242.2
635.533	18420.97
635.726	17743.09
635.92	16895.23
636.114	16745.73
636.308	15615.25
636.501	15125.79
636.695	14757.15
636.889	13983.02
637.083	13479.22
637.276	12877.12
637.47	12160.33
637.664	11834.7
637.857	11298.13
638.051	10943.83
638.244	10452.32
638.438	10032.49
638.632	9571.69
638.825	9155.96
639.019	9002.36
639.212	8447.36
639.406	8134.02
639.599	7845.26
639.793	7603.6
639.986	7204.24
640.18	7142.8
640.373	6684.06
640.567	6243.74
640.76	6325.66
640.954	6088.1
641.147	5621.16
641.34	5529
641.534	5459.37
641.727	5152.18
641.92	5100.98
642.114	4775.35
642.307	4527.55
642.5	4355.52
642.694	4214.21
642.887	4113.86
643.08	3988.93
643.273	3706.31
643.467	3603.91
643.66	3493.32
643.853	3278.29
644.046	3278.29
644.239	3139.02
644.432	2856.4
644.626	2801.11
644.819	2768.34
645.012	2784.73
645.205	2506.2
645.398	2469.34
645.591	2412
645.784	2182.62
645.977	2012.64
646.17	2129.38
646.363	1885.67
646.556	1848.8
646.749	1650.15
646.942	1750.5
647.135	1875.43
647.328	1727.97
647.521	1613.29
647.714	1533.42
647.907	1459.69
648.099	1476.07
648.292	1478.12
648.485	1332.72
648.678	1322.48
648.871	1275.37
649.064	1148.4
649.256	1099.25
649.449	1160.69
649.642	1084.91
649.835	974.32
650.027	996.85
650.22	1043.95
650.413	892.4
650.605	947.7
650.798	898.55
650.991	804.34
651.183	906.74
651.376	777.72
651.568	783.86
651.761	740.85
651.954	790
652.146	681.46
652.339	728.56
652.531	747
652.724	556.54
652.916	648.69
653.109	386.55
653.301	708.09
653.494	628.21
653.686	583.16
653.879	634.36
654.071	525.82
654.263	472.57
654.456	447.99
654.648	470.52
654.84	517.62
655.033	423.42
655.225	564.73
655.417	321.02
655.61	505.34
655.802	523.77
655.994	429.56
656.186	404.99
656.379	445.95
656.571	296.44
656.763	370.17
656.955	327.16
657.148	368.12
657.34	480.76
657.532	290.3
657.724	376.31
657.916	380.41
658.108	445.95
658.3	347.64
658.492	316.92
658.684	220.67
658.876	370.17
659.068	128.51
659.26	208.38
659.452	175.61
659.644	263.68
659.836	366.07
660.028	239.1
660.22	259.58
660.412	214.52
660.604	249.34
660.796	292.35
660.988	310.78
661.18	179.71
661.372	269.82
661.563	224.76
661.755	247.29
661.947	204.28
662.139	212.48
662.331	175.61
662.522	226.81
662.714	153.09
662.906	124.41
663.097	200.19
663.289	140.8
663.481	69.12
663.673	228.86
663.864	278.01
664.056	206.33
664.247	103.93
664.439	183.81
664.631	196.09
664.822	228.86
665.014	196.09
665.205	110.08
665.397	175.61
665.588	179.71
665.78	175.61
665.971	247.29
666.163	105.98
666.354	230.91
666.546	69.12
666.737	159.23
666.929	126.46
667.12	159.23
667.311	126.46
667.503	181.76
667.694	228.86
667.885	146.94
668.077	237.05
668.268	89.6
668.459	146.94
668.651	235
668.842	142.85
669.033	114.17
669.224	97.79
669.416	345.59
669.607	108.03
669.798	103.93
669.989	241.15
670.18	67.07
670.371	226.81
670.563	93.69
670.754	226.81
670.945	206.33
671.136	163.33
671.327	165.37
671.518	159.23
671.709	220.67
671.9	243.2
672.091	310.78
672.282	155.13
672.473	122.37
672.664	124.41
672.855	165.37
673.046	232.96
673.237	198.14
673.428	222.72
673.619	181.76
673.809	56.83
674	245.24
674.191	220.67
674.382	175.61
674.573	105.98
674.764	175.61
674.954	200.19
675.145	95.74
675.336	144.89
675.527	132.61
675.717	206.33
675.908	105.98
676.099	122.37
676.289	151.04
676.48	171.52
676.671	198.14
676.861	189.95
677.052	210.43
677.243	159.23
677.433	99.84
677.624	265.72
677.814	165.37
678.005	159.23
678.195	286.2
678.386	101.89
678.576	192
678.767	118.27
678.957	206.33
679.148	228.86
679.338	265.72
679.529	241.15
679.719	185.85
679.909	218.62
680.1	294.4
680.29	312.83
680.481	146.94
680.671	265.72
680.861	179.71
681.052	202.24
681.242	112.13
681.432	253.44
681.622	146.94
681.813	175.61
682.003	200.19
682.193	173.57
682.383	222.72
682.573	177.66
682.764	140.8
682.954	181.76
683.144	306.68
683.334	169.47
683.524	192
683.714	306.68
683.904	208.38
684.094	257.53
684.284	226.81
684.474	314.88
684.664	280.06
684.854	185.85
685.044	249.34
685.234	220.67
685.424	261.63
685.614	220.67
685.804	314.88
685.994	261.63
686.184	255.48
686.374	249.34
686.564	292.35
686.753	198.14
686.943	247.29
687.133	204.28
687.323	151.04
687.513	273.92
687.702	198.14
687.892	235
688.082	265.72
688.272	210.43
688.461	247.29
688.651	245.24
688.841	306.68
689.03	169.47
689.22	243.2
689.41	273.92
689.599	259.58
689.789	214.52
689.979	359.93
690.168	167.42
690.358	290.3
690.547	208.38
690.737	169.47
690.926	298.49
691.116	194.05
691.305	282.11
691.495	282.11
691.684	171.52
691.874	214.52
692.063	185.85
692.252	241.15
692.442	267.77
692.631	146.94
692.82	243.2
693.01	157.18
693.199	228.86
693.388	167.42
693.578	200.19
693.767	171.52
693.956	331.26
694.146	140.8
694.335	224.76
694.524	159.23
694.713	251.39
694.902	192
695.092	99.84
695.281	300.54
695.47	114.17
695.659	163.33
695.848	235
696.037	196.09
696.226	232.96
696.415	278.01
696.604	310.78
696.793	339.45
696.982	181.76
697.171	177.66
697.36	167.42
697.549	208.38
697.738	75.26
697.927	202.24
698.116	165.37
698.305	292.35
698.494	175.61
698.683	101.89
698.872	341.5
699.061	275.96
699.25	198.14
699.438	247.29
699.627	216.57
699.816	308.73
700.005	122.37
700.193	136.7
700.382	294.4
700.571	241.15
700.76	224.76
700.948	206.33
701.137	265.72
701.326	212.48
701.514	237.05
701.703	235
701.892	198.14
702.08	380.41
702.269	171.52
702.457	157.18
702.646	312.83
702.834	185.85
703.023	222.72
703.212	284.16
703.4	216.57
703.589	198.14
703.777	247.29
703.965	112.13
704.154	216.57
704.342	134.65
704.531	224.76
704.719	187.9
704.907	278.01
705.096	114.17
705.284	153.09
705.472	273.92
705.661	218.62
705.849	304.64
706.037	245.24
706.226	196.09
706.414	255.48
706.602	153.09
706.79	273.92
706.979	153.09
707.167	218.62
707.355	140.8
707.543	155.13
707.731	228.86
707.919	206.33
708.107	187.9
708.296	75.26
708.484	50.69
708.672	237.05
708.86	218.62
709.048	200.19
709.236	155.13
709.424	212.48
709.612	273.92
709.8	120.32
709.988	214.52
710.176	263.68
710.364	290.3
710.551	220.67
710.739	267.77
710.927	140.8
711.115	208.38
711.303	325.12
711.491	286.2
711.679	189.95
711.866	247.29
712.054	210.43
712.242	206.33
712.43	312.83
712.617	189.95
712.805	271.87
712.993	273.92
713.181	187.9
713.368	245.24
713.556	212.48
713.744	200.19
713.931	407.03
714.119	230.91
714.306	151.04
714.494	128.51
714.682	241.15
714.869	130.56
715.057	257.53
715.244	130.56
715.432	192
715.619	194.05
715.807	249.34
715.994	151.04
716.182	243.2
716.369	273.92
716.556	183.81
716.744	110.08
716.931	136.7
717.119	308.73
717.306	241.15
717.493	241.15
717.681	187.9
717.868	146.94
718.055	235
718.242	198.14
718.43	290.3
718.617	304.64
718.804	173.57
718.991	226.81
719.179	257.53
719.366	185.85
719.553	284.16
719.74	212.48
719.927	146.94
720.114	255.48
720.301	192
720.488	212.48
720.676	194.05
720.863	314.88
721.05	347.64
721.237	230.91
721.424	259.58
721.611	247.29
721.798	99.84
721.985	196.09
722.172	273.92
722.358	187.9
722.545	263.68
722.732	284.16
722.919	312.83
723.106	306.68
723.293	187.9
723.48	169.47
723.667	118.27
723.853	290.3
724.04	251.39
724.227	400.89
724.414	218.62
724.6	304.64
724.787	398.84
724.974	302.59
725.161	239.1
725.347	144.89
725.534	187.9
725.72	331.26
725.907	271.87
726.094	255.48
726.28	198.14
726.467	259.58
726.653	155.13
726.84	470.52
727.027	374.27
727.213	255.48
727.4	327.16
727.586	247.29
727.773	245.24
727.959	251.39
728.145	280.06
728.332	239.1
728.518	253.44
728.705	304.64
728.891	249.34
729.077	226.81
729.264	196.09
729.45	245.24
729.636	312.83
729.823	237.05
730.009	331.26
730.195	204.28
730.382	265.72
730.568	144.89
730.754	185.85
730.94	232.96
731.126	294.4
731.313	312.83
731.499	212.48
731.685	347.64
731.871	267.77
732.057	228.86
732.243	280.06
732.429	259.58
732.615	284.16
732.801	284.16
732.987	300.54
733.173	247.29
733.359	226.81
733.545	275.96
733.731	232.96
733.917	306.68
734.103	214.52
734.289	314.88
734.475	218.62
734.661	318.97
734.847	228.86
735.033	321.02
735.219	298.49
735.404	265.72
735.59	185.85
735.776	235
735.962	310.78
736.148	220.67
736.333	247.29
736.519	261.63
736.705	265.72
736.89	296.44
737.076	183.81
737.262	224.76
737.447	218.62
737.633	243.2
737.819	335.35
738.004	394.75
738.19	249.34
738.375	210.43
738.561	282.11
738.747	359.93
738.932	155.13
739.118	390.65
739.303	282.11
739.489	296.44
739.674	220.67
739.859	122.37
740.045	280.06
740.23	275.96
740.416	148.99
740.601	224.76
740.786	235
740.972	265.72
741.157	275.96
741.342	202.24
741.528	200.19
741.713	361.98
741.898	318.97
742.084	220.67
742.269	298.49
742.454	300.54
742.639	282.11
742.824	218.62
743.01	404.99
743.195	359.93
743.38	241.15
743.565	255.48
743.75	308.73
743.935	261.63
744.12	386.55
744.305	212.48
744.49	286.2
744.675	321.02
744.86	222.72
745.045	208.38
745.23	232.96
745.415	206.33
745.6	306.68
745.785	265.72
745.97	304.64
746.155	280.06
746.34	302.59
746.525	257.53
746.71	364.03
746.895	134.65
747.079	163.33
747.264	212.48
747.449	333.31
747.634	349.69
747.819	323.07
748.003	278.01
748.188	167.42
748.373	337.4
748.557	220.67
748.742	148.99
748.927	157.18
749.111	142.85
749.296	163.33
749.481	288.25
749.665	204.28
749.85	218.62
750.034	200.19
750.219	243.2
750.404	296.44
750.588	245.24
750.773	177.66
750.957	175.61
751.141	226.81
751.326	226.81
751.51	110.08
751.695	206.33
751.879	177.66
752.064	323.07
752.248	192
752.432	304.64
752.617	275.96
752.801	345.59
752.985	151.04
753.17	302.59
753.354	189.95
753.538	257.53
753.722	146.94
753.907	167.42
754.091	26.11
754.275	257.53
754.459	73.21
754.643	95.74
754.828	214.52
755.012	214.52
755.196	26.11
755.38	165.37
755.564	126.46
755.748	142.85
755.932	185.85
756.116	247.29
756.3	222.72
756.484	140.8
756.668	224.76
756.852	130.56
757.036	163.33
757.22	148.99
757.404	120.32
757.588	120.32
757.772	204.28
757.956	161.28
758.14	265.72
758.323	97.79
758.507	220.67
758.691	116.22
758.875	210.43
759.059	288.25
759.242	185.85
759.426	87.55
759.61	202.24
759.794	24.06
759.977	243.2
760.161	359.93
760.345	237.05
760.528	192
760.712	173.57
760.895	194.05
761.079	112.13
761.263	116.22
761.446	97.79
761.63	140.8
761.813	302.59
761.997	50.69
762.18	181.76
762.364	142.85
762.547	13.82
762.731	116.22
762.914	153.09
763.098	97.79
763.281	202.24
763.464	118.27
763.648	130.56
763.831	54.78
764.015	46.59
764.198	192
764.381	122.37
764.564	173.57
764.748	75.26
764.931	124.41
765.114	-29.18
765.297	189.95
765.481	73.21
765.664	124.41
765.847	157.18
766.03	132.61
766.213	11.78
766.397	34.3
766.58	28.16
766.763	208.38
766.946	105.98
767.129	44.54
767.312	144.89
767.495	114.17
767.678	132.61
767.861	153.09
768.044	60.93
768.227	85.5
768.41	60.93
768.593	116.22
768.776	120.32
768.959	116.22
769.142	175.61
769.324	69.12
769.507	87.55
769.69	73.21
769.873	38.4
770.056	255.48
770.239	103.93
770.421	165.37
770.604	140.8
770.787	171.52
770.97	105.98
771.152	-18.94
771.335	122.37
771.518	17.92
771.7	148.99
771.883	249.34
772.066	97.79
772.248	58.88
772.431	99.84
772.613	159.23
772.796	103.93
772.978	116.22
773.161	226.81
773.343	69.12
773.526	85.5
773.708	3.58
773.891	15.87
774.073	60.93
774.256	46.59
774.438	208.38
774.621	73.21
774.803	151.04
774.985	-18.94
775.168	134.65
775.35	15.87
775.532	99.84
775.715	-0.51
775.897	89.6
776.079	19.97
776.261	81.41
776.444	157.18
776.626	62.98
776.808	142.85
776.99	-23.04
777.173	79.36
777.355	120.32
777.537	140.8
777.719	116.22
777.901	-0.51
778.083	67.07
778.265	46.59
778.447	138.75
778.629	15.87
778.811	140.8
778.993	103.93
779.175	126.46
779.357	75.26
779.539	-31.23
779.721	105.98
779.903	161.28
780.085	3.58
780.267	44.54
780.449	120.32
780.631	122.37
780.812	112.13
780.994	26.11
781.176	24.06
781.358	122.37
781.54	56.83
781.721	122.37
781.903	171.52
782.085	67.07
782.267	108.03
782.448	-14.85
782.63	-6.66
782.812	85.5
782.993	93.69
783.175	161.28
783.357	-45.57
783.538	79.36
783.72	-6.66
783.901	89.6
784.083	89.6
784.264	146.94
784.446	-59.9
784.627	-20.99
784.809	146.94
784.99	73.21
785.172	112.13
785.353	112.13
785.535	26.11
785.716	40.45
785.897	3.58
786.079	34.3
786.26	54.78
786.441	151.04
786.623	1.54
786.804	19.97
786.985	-14.85
787.167	34.3
787.348	11.78
787.529	40.45
787.71	159.23
787.891	99.84
788.073	7.68
788.254	-68.09
788.435	151.04
788.616	-12.8
788.797	9.73
788.978	5.63
789.159	17.92
789.34	56.83
789.522	22.02
789.703	87.55
789.884	58.88
790.065	-41.47
790.246	87.55
790.427	38.4
790.607	81.41
790.788	44.54
790.969	-6.66
791.15	83.45
791.331	36.35
791.512	32.26
791.693	62.98
791.874	-37.38
792.054	192
792.235	165.37
792.416	-25.09
792.597	75.26
792.778	108.03
792.958	95.74
793.139	75.26
793.32	44.54
793.5	-0.51
793.681	108.03
793.862	99.84
794.042	36.35
794.223	-82.43
794.404	3.58
794.584	-61.95
794.765	32.26
794.945	65.02
795.126	26.11
795.306	97.79
795.487	28.16
795.667	-6.66
795.848	13.82
796.028	24.06
796.209	114.17
796.389	89.6
796.57	69.12
796.75	-16.9
796.93	-14.85
797.111	-74.24
797.291	26.11
797.471	97.79
797.652	-53.76
797.832	7.68
798.012	62.98
798.192	79.36
798.373	-29.18
798.553	15.87
798.733	60.93
798.913	-20.99
799.093	-41.47
799.274	132.61
799.454	75.26
799.634	101.89
799.814	183.81
799.994	108.03
800.174	22.02
800.354	-31.23
800.534	26.11
800.714	122.37
800.894	-20.99
801.074	-8.7
801.254	28.16
801.434	83.45
801.614	75.26
801.794	-70.14
801.974	1373.68
802.154	58.88
802.334	95.74
802.514	-51.71
802.693	-16.9
802.873	-16.9
803.053	177.66
803.233	60.93
803.413	-0.51
803.592	-29.18
803.772	1.54
803.952	-6.66
804.131	-88.57
804.311	108.03
804.491	116.22
804.67	-10.75
804.85	34.3
805.03	114.17
805.209	167.42
805.389	17.92
805.568	-68.09
805.748	40.45
805.928	26.11
806.107	93.69
806.287	-33.28
806.466	101.89
806.646	-29.18
806.825	26.11
807.004	3.58
807.184	91.65
807.363	144.89
807.543	60.93
807.722	3.58
807.901	130.56
808.081	95.74
808.26	-80.38
808.439	50.69
808.619	26.11
808.798	-23.04
808.977	24.06
809.156	56.83
809.336	15.87
809.515	93.69
809.694	-55.81
809.873	-78.33
810.052	11.78
810.231	177.66
810.411	85.5
810.59	77.31
810.769	7.68
810.948	77.31
811.127	-137.73
811.306	-57.86
811.485	-31.23
811.664	151.04
811.843	-16.9
812.022	-18.94
812.201	67.07
812.38	38.4
812.559	38.4
812.737	7.68
812.916	-33.28
813.095	11.78
813.274	42.5
813.453	5.63
813.632	46.59
813.811	177.66
813.989	-16.9
814.168	91.65
814.347	-84.48
814.526	83.45
814.704	56.83
814.883	120.32
815.062	-12.8
815.24	128.51
815.419	-51.71
815.598	-33.28
815.776	-168.45
815.955	13.82
816.133	-59.9
816.312	-14.85
816.49	-12.8
816.669	40.45
816.847	-59.9
817.026	-16.9
817.204	26.11
817.383	-72.19
817.561	-51.71
817.74	-2.56
817.918	-4.61
818.097	-39.42
818.275	-27.14
818.453	69.12
818.632	30.21
818.81	-45.57
818.988	-12.8
819.167	-76.29
819.345	-23.04
819.523	3.58
819.701	65.02
819.879	50.69
820.058	11.78
820.236	142.85
820.414	77.31
820.592	19.97
820.77	26.11
820.948	-10.75
821.127	19.97
821.305	46.59
821.483	-4.61
821.661	101.89
821.839	77.31
822.017	-20.99
822.195	17.92
822.373	3.58
822.551	52.74
822.729	122.37
822.907	60.93
823.085	-6.66
823.262	17.92
823.44	3.58
823.618	-27.14
823.796	-47.62
823.974	-27.14
824.152	-41.47
824.329	-10.75
824.507	91.65
824.685	116.22
824.863	34.3
825.04	-74.24
825.218	22.02
825.396	32.26
825.574	101.89
825.751	11.78
825.929	83.45
826.107	-29.18
826.284	69.12
826.462	112.13
826.639	34.3
826.817	9.73
826.994	-70.14
827.172	-55.81
827.349	77.31
827.527	97.79
827.704	77.31
827.882	34.3
828.059	22.02
828.237	67.07
828.414	52.74
828.591	-143.87
828.769	17.92
828.946	38.4
829.124	87.55
829.301	224.76
829.478	-41.47
829.655	26.11
829.833	62.98
830.01	-152.06
830.187	-6.66
830.364	60.93
830.542	95.74
830.719	183.81
830.896	108.03
831.073	-14.85
831.25	38.4
831.427	34.3
831.604	-53.76
831.782	-18.94
831.959	5.63
832.136	17.92
832.313	19.97
832.49	-61.95
832.667	7.68
832.844	-84.48
833.021	116.22
833.198	30.21
833.374	34.3
833.551	38.4
833.728	28.16
833.905	54.78
834.082	-29.18
834.259	40.45
834.436	65.02
834.612	-10.75
834.789	65.02
834.966	11.78
835.143	124.41
835.319	-33.28
835.496	42.5
835.673	83.45
835.85	67.07
836.026	56.83
836.203	19.97
836.38	-39.42
836.556	-23.04
836.733	-37.38
836.909	85.5
837.086	9.73
837.262	-72.19
837.439	-25.09
837.616	-20.99
837.792	67.07
837.968	15.87
838.145	-96.77
838.321	95.74
838.498	48.64
838.674	99.84
838.851	93.69
839.027	-12.8
839.203	-47.62
839.38	19.97
839.556	15.87
839.732	46.59
839.909	26.11
840.085	36.35
840.261	5.63
840.437	-12.8
840.614	-49.66
840.79	95.74
840.966	69.12
841.142	1.54
841.318	-27.14
841.494	5.63
841.671	71.17
841.847	-109.05
842.023	-68.09
842.199	52.74
842.375	120.32
842.551	-59.9
842.727	-20.99
842.903	128.51
843.079	-72.19
843.255	134.65
843.431	-12.8
843.607	11.78
843.783	-64
843.959	132.61
844.134	5.63
844.31	75.26
844.486	-25.09
844.662	-31.23
844.838	-2.56
845.013	65.02
845.189	87.55
845.365	97.79
845.541	75.26
845.716	-6.66
845.892	5.63
846.068	-29.18
846.244	7.68
846.419	36.35
846.595	56.83
846.77	-61.95
846.946	81.41
847.122	-2.56
847.297	13.82
847.473	153.09
847.648	-90.62
847.824	34.3
847.999	13.82
848.175	60.93
848.35	73.21
848.526	103.93
848.701	36.35
848.876	46.59
849.052	52.74
849.227	30.21
849.403	5.63
849.578	58.88
849.753	60.93
849.929	26.11
850.104	-57.86
850.279	-23.04
850.454	-4.61
850.63	52.74
850.805	24.06
850.98	44.54
851.155	-18.94
851.33	3.58
851.505	-82.43
851.681	120.32
851.856	-25.09
852.031	44.54
852.206	32.26
852.381	-57.86
852.556	-10.75
852.731	67.07
852.906	32.26
853.081	65.02
853.256	144.89
853.431	1.54
853.606	15.87
853.781	-43.52
853.956	-68.09
854.131	-20.99
854.305	-55.81
854.48	-31.23
854.655	-41.47
854.83	-16.9
855.005	48.64
855.18	-16.9
855.354	-29.18
855.529	60.93
855.704	-45.57
855.879	56.83
856.053	-98.81
856.228	28.16
856.403	-78.33
856.577	36.35
856.752	-117.25
856.926	-57.86
857.101	40.45
857.276	-64
857.45	34.3
857.625	122.37
857.799	17.92
857.974	5.63
858.148	-90.62
858.323	-37.38
858.497	3.58
858.672	-31.23
858.846	-33.28
859.02	93.69
859.195	-76.29
859.369	-45.57
859.543	-39.42
859.718	-0.51
859.892	-33.28
860.066	9.73
860.241	-70.14
860.415	-33.28
860.589	-14.85
860.763	-33.28
860.938	-0.51
861.112	75.26
861.286	-70.14
861.46	-8.7
861.634	-33.28
861.808	17.92
861.982	-35.33
862.157	-18.94
862.331	-20.99
862.505	-68.09
862.679	28.16
862.853	-53.76
863.027	-66.05
863.201	132.61
863.375	-47.62
863.549	69.12
863.722	65.02
863.896	161.28
864.07	-113.15
864.244	-18.94
864.418	17.92
864.592	69.12
864.766	38.4
864.939	-25.09
865.113	-57.86
865.287	103.93
865.461	-76.29
865.634	87.55
865.808	17.92
865.982	-37.38
866.156	-4.61
866.329	-82.43
866.503	56.83
866.676	50.69
866.85	-10.75
867.024	-66.05
867.197	87.55
867.371	32.26
867.544	42.5
867.718	-61.95
867.891	103.93
868.065	-55.81
868.238	-0.51
868.412	67.07
868.585	-16.9
868.759	32.26
868.932	19.97
869.105	-131.58
869.279	-12.8
869.452	-4.61
869.625	46.59
869.799	38.4
869.972	-84.48
870.145	-78.33
870.319	77.31
870.492	-55.81
870.665	-33.28
870.838	-14.85
871.011	-152.06
871.185	-23.04
871.358	-68.09
871.531	-6.66
871.704	-74.24
871.877	48.64
872.05	22.02
872.223	-43.52
872.396	-0.51
872.569	-31.23
872.742	-82.43
872.915	42.5
873.088	-14.85
873.261	-74.24
873.434	13.82
873.607	1.54
873.78	101.89
873.953	-55.81
874.126	11.78
874.299	79.36
874.471	17.92
874.644	-20.99
874.817	73.21
874.99	171.52
875.163	-25.09
875.335	22.02
875.508	46.59
875.681	58.88
875.853	-61.95
876.026	13.82
876.199	75.26
876.371	32.26
876.544	30.21
876.717	-37.38
876.889	17.92
877.062	5.63
877.234	-23.04
877.407	-45.57
877.579	146.94
877.752	-10.75
877.924	79.36
878.097	46.59
878.269	48.64
878.442	50.69
878.614	44.54
878.786	75.26
878.959	24.06
879.131	24.06
879.303	-104.96
879.476	-53.76
879.648	87.55
879.82	62.98
879.993	-2.56
880.165	-14.85
880.337	-27.14
880.509	-18.94
880.681	-125.44
880.854	7.68
881.026	75.26
881.198	192
881.37	42.5
881.542	-43.52
881.714	-12.8
881.886	7.68
882.058	-18.94
882.23	36.35
882.402	15.87
882.574	95.74
882.746	26.11
882.918	62.98
883.09	44.54
883.262	-2.56
883.434	81.41
883.606	-74.24
883.778	5.63
883.95	134.65
884.122	26.11
884.293	60.93
884.465	-55.81
884.637	62.98
884.809	5.63
884.98	65.02
885.152	-2.56
885.324	75.26
885.496	-41.47
885.667	3.58
885.839	-16.9
886.011	120.32
886.182	83.45
886.354	116.22
886.525	13.82
886.697	15.87
886.869	3.58
887.04	62.98
887.212	40.45
887.383	194.05
887.555	22.02
887.726	-12.8
887.897	-18.94
888.069	71.17
888.24	87.55
888.412	-8.7
888.583	5.63
888.754	-43.52
888.926	-47.62
889.097	-25.09
889.268	-80.38
889.44	5.63
889.611	-31.23
889.782	-156.16
889.953	3.58
890.125	83.45
890.296	-94.72
890.467	-4.61
890.638	-35.33
890.809	5.63
890.98	-14.85
891.151	-12.8
891.323	105.98
891.494	95.74
891.665	24.06
891.836	-14.85
892.007	-18.94
892.178	11.78
892.349	17.92
892.52	30.21
892.691	-0.51
892.862	-33.28
893.032	-80.38
893.203	-53.76
893.374	3.58
893.545	179.71
893.716	7.68
893.887	114.17
894.057	15.87
894.228	5.63
894.399	3.58
894.57	101.89
894.74	-45.57
894.911	54.78
895.082	3.58
895.253	-51.71
895.423	-14.85
895.594	36.35
895.764	-4.61
895.935	-115.2
896.106	15.87
896.276	30.21
896.447	56.83
896.617	-57.86
896.788	-123.39
896.958	-57.86
897.129	-4.61
897.299	-45.57
897.47	87.55
897.64	24.06
897.81	3.58
897.981	65.02
898.151	-29.18
898.322	17.92
898.492	46.59
898.662	-78.33
898.832	-70.14
899.003	7.68
899.173	7.68
899.343	-12.8
899.513	-59.9
