Data from USB4F104151__299__11-21-27-126.txt Node

Date: Wed Feb 26 11:21:27 EST 2025
User: louis
Spectrometer: USB4F10415
Trigger mode: 4
Integration Time (sec): 1.000000E-1
Scans to average: 1
Electric dark correction enabled: true
Nonlinearity correction enabled: false
Boxcar width: 0
XAxis mode: Wavelengths
Number of Pixels in Spectrum: 3648
>>>>>Begin Spectral Data<<<<<
178.204	-320.17
178.424	-320.17
178.644	-320.17
178.864	-416.42
179.084	-389.8
179.304	1.37
179.524	-8.87
179.744	-21.16
179.964	36.18
180.184	-35.5
180.404	101.72
180.624	-49.83
180.844	17.75
181.064	-21.16
181.283	56.66
181.503	-105.13
181.723	27.99
181.943	-94.89
182.163	197.97
182.383	-47.79
182.602	32.08
182.822	144.72
183.042	93.52
183.262	-37.55
183.482	-15.02
183.701	27.99
183.921	87.38
184.141	48.47
184.361	118.1
184.58	68.95
184.8	32.08
185.02	27.99
185.239	109.91
185.459	95.57
185.679	73.04
185.898	-152.23
186.118	17.75
186.338	36.18
186.557	132.44
186.777	-72.36
186.997	5.46
187.216	46.42
187.436	165.2
187.655	30.04
187.875	79.19
188.095	-51.88
188.314	159.06
188.534	87.38
188.753	-23.21
188.973	134.48
189.192	146.77
189.412	9.56
189.631	-2.73
189.851	62.8
190.07	101.72
190.29	-55.98
190.509	5.46
190.729	62.8
190.948	120.15
191.168	247.12
191.387	40.28
191.607	154.96
191.826	-8.87
192.045	73.04
192.265	-4.78
192.484	52.56
192.704	21.85
192.923	-76.46
193.142	220.5
193.362	111.96
193.581	181.59
193.8	50.52
194.02	68.95
194.239	3.41
194.458	77.14
194.678	27.99
194.897	-0.68
195.116	21.85
195.335	77.14
195.555	56.66
195.774	-68.27
195.993	79.19
196.212	11.61
196.432	-21.16
196.651	23.89
196.87	1.37
197.089	218.45
197.308	36.18
197.528	19.8
197.747	-31.4
197.966	46.42
198.185	134.48
198.404	-15.02
198.623	114
198.842	71
199.062	91.48
199.281	85.33
199.5	68.95
199.719	124.24
199.938	60.76
200.157	97.62
200.376	42.32
200.595	126.29
200.814	99.67
201.033	1.37
201.252	124.24
201.471	15.7
201.69	116.05
201.909	7.51
202.128	146.77
202.347	118.1
202.566	60.76
202.785	-115.37
203.004	-23.21
203.223	267.6
203.442	97.62
203.661	-133.8
203.879	27.99
204.098	93.52
204.317	50.52
204.536	103.76
204.755	68.95
204.974	165.2
205.193	36.18
205.411	58.71
205.63	148.82
205.849	105.81
206.068	25.94
206.287	-43.69
206.505	144.72
206.724	15.7
206.943	30.04
207.162	7.51
207.381	181.59
207.599	48.47
207.818	-17.07
208.037	-10.92
208.255	36.18
208.474	23.89
208.693	126.29
208.911	-0.68
209.13	161.11
209.349	118.1
209.567	71
209.786	75.09
210.005	11.61
210.223	93.52
210.442	-103.08
210.661	144.72
210.879	36.18
211.098	17.75
211.316	27.99
211.535	114
211.753	95.57
211.972	64.85
212.191	-29.35
212.409	50.52
212.628	60.76
212.846	21.85
213.065	19.8
213.283	120.15
213.502	17.75
213.72	48.47
213.938	-2.73
214.157	34.13
214.375	173.39
214.594	42.32
214.812	19.8
215.031	46.42
215.249	42.32
215.467	34.13
215.686	13.65
215.904	56.66
216.122	15.7
216.341	122.2
216.559	68.95
216.778	93.52
216.996	87.38
217.214	25.94
217.432	54.61
217.651	-74.41
217.869	75.09
218.087	130.39
218.306	-51.88
218.524	-66.22
218.742	73.04
218.96	85.33
219.179	25.94
219.397	73.04
219.615	220.5
219.833	101.72
220.051	15.7
220.27	132.44
220.488	130.39
220.706	75.09
220.924	-49.83
221.142	56.66
221.36	11.61
221.578	7.51
221.796	107.86
222.015	52.56
222.233	116.05
222.451	154.96
222.669	-70.31
222.887	107.86
223.105	-101.03
223.323	97.62
223.541	40.28
223.759	77.14
223.977	64.85
224.195	171.35
224.413	73.04
224.631	42.32
224.849	89.43
225.067	243.03
225.285	1.37
225.503	-39.59
225.721	-21.16
225.939	83.28
226.157	87.38
226.375	275.79
226.592	-51.88
226.81	19.8
227.028	107.86
227.246	132.44
227.464	75.09
227.682	66.9
227.9	66.9
228.117	71
228.335	103.76
228.553	15.7
228.771	40.28
228.989	38.23
229.206	130.39
229.424	11.61
229.642	-98.99
229.86	-60.07
230.077	130.39
230.295	7.51
230.513	50.52
230.731	56.66
230.948	130.39
231.166	132.44
231.384	-39.59
231.601	5.46
231.819	130.39
232.037	42.32
232.254	-49.83
232.472	-37.55
232.689	5.46
232.907	99.67
233.125	11.61
233.342	3.41
233.56	-6.83
233.777	-8.87
233.995	34.13
234.213	97.62
234.43	126.29
234.648	58.71
234.865	30.04
235.083	68.95
235.3	44.37
235.518	87.38
235.735	124.24
235.953	134.48
236.17	105.81
236.388	9.56
236.605	48.47
236.822	87.38
237.04	122.2
237.257	-23.21
237.475	-15.02
237.692	93.52
237.909	97.62
238.127	23.89
238.344	-8.87
238.562	97.62
238.779	-60.07
238.996	-33.45
239.214	58.71
239.431	105.81
239.648	7.51
239.865	111.96
240.083	68.95
240.3	-23.21
240.517	-25.26
240.735	83.28
240.952	161.11
241.169	9.56
241.386	68.95
241.603	-23.21
241.821	-49.83
242.038	68.95
242.255	169.3
242.472	7.51
242.689	101.72
242.907	75.09
243.124	46.42
243.341	60.76
243.558	-23.21
243.775	25.94
243.992	-39.59
244.209	128.34
244.426	152.91
244.643	3.41
244.86	-0.68
245.078	114
245.295	116.05
245.512	68.95
245.729	-51.88
245.946	62.8
246.163	73.04
246.38	27.99
246.597	103.76
246.814	46.42
247.031	77.14
247.248	56.66
247.464	105.81
247.681	87.38
247.898	46.42
248.115	62.8
248.332	-49.83
248.549	114
248.766	97.62
248.983	38.23
249.2	109.91
249.417	89.43
249.633	3.41
249.85	99.67
250.067	-10.92
250.284	40.28
250.501	40.28
250.717	75.09
250.934	1.37
251.151	-23.21
251.368	15.7
251.585	120.15
251.801	15.7
252.018	46.42
252.235	83.28
252.451	-70.31
252.668	-10.92
252.885	140.63
253.102	15.7
253.318	-74.41
253.535	-0.68
253.752	9.56
253.968	-10.92
254.185	-80.55
254.401	23.89
254.618	3.41
254.835	-15.02
255.051	48.47
255.268	71
255.484	62.8
255.701	50.52
255.917	-8.87
256.134	-33.45
256.351	25.94
256.567	-25.26
256.784	32.08
257	-80.55
257.217	107.86
257.433	114
257.65	89.43
257.866	103.76
258.082	5.46
258.299	-29.35
258.515	30.04
258.732	11.61
258.948	32.08
259.165	126.29
259.381	25.94
259.597	128.34
259.814	23.89
260.03	-6.83
260.246	34.13
260.463	64.85
260.679	101.72
260.895	40.28
261.112	9.56
261.328	-41.64
261.544	30.04
261.761	99.67
261.977	-8.87
262.193	-55.98
262.409	152.91
262.626	36.18
262.842	13.65
263.058	-74.41
263.274	154.96
263.49	-8.87
263.707	23.89
263.923	44.37
264.139	-70.31
264.355	36.18
264.571	132.44
264.787	79.19
265.004	114
265.22	54.61
265.436	-4.78
265.652	15.7
265.868	34.13
266.084	-39.59
266.3	52.56
266.516	23.89
266.732	-8.87
266.948	1.37
267.164	44.37
267.38	107.86
267.596	93.52
267.812	99.67
268.028	40.28
268.244	3.41
268.46	75.09
268.676	11.61
268.892	42.32
269.108	-4.78
269.324	-76.46
269.54	-23.21
269.756	50.52
269.972	34.13
270.188	66.9
270.403	-66.22
270.619	21.85
270.835	25.94
271.051	58.71
271.267	40.28
271.483	-6.83
271.698	48.47
271.914	85.33
272.13	-2.73
272.346	-19.11
272.562	60.76
272.777	105.81
272.993	-8.87
273.209	54.61
273.425	73.04
273.64	-62.12
273.856	118.1
274.072	-78.51
274.287	11.61
274.503	134.48
274.719	42.32
274.934	128.34
275.15	-29.35
275.366	7.51
275.581	11.61
275.797	27.99
276.012	32.08
276.228	3.41
276.444	85.33
276.659	177.49
276.875	-47.79
277.09	-2.73
277.306	23.89
277.521	7.51
277.737	56.66
277.952	-37.55
278.168	103.76
278.383	-33.45
278.599	58.71
278.814	93.52
279.03	-2.73
279.245	171.35
279.461	50.52
279.676	109.91
279.892	-35.5
280.107	-74.41
280.322	-10.92
280.538	52.56
280.753	60.76
280.969	17.75
281.184	9.56
281.399	128.34
281.615	32.08
281.83	83.28
282.045	-55.98
282.26	42.32
282.476	-47.79
282.691	79.19
282.906	-6.83
283.122	50.52
283.337	-29.35
283.552	109.91
283.767	30.04
283.983	132.44
284.198	11.61
284.413	130.39
284.628	9.56
284.843	1.37
285.058	66.9
285.274	15.7
285.489	-98.99
285.704	120.15
285.919	-37.55
286.134	9.56
286.349	48.47
286.564	5.46
286.779	138.58
286.995	79.19
287.21	-101.03
287.425	95.57
287.64	36.18
287.855	-10.92
288.07	-23.21
288.285	89.43
288.5	95.57
288.715	38.23
288.93	-53.93
289.145	-33.45
289.36	101.72
289.575	71
289.79	132.44
290.004	-19.11
290.219	152.91
290.434	3.41
290.649	-17.07
290.864	-19.11
291.079	62.8
291.294	25.94
291.509	-15.02
291.724	81.24
291.938	-6.83
292.153	27.99
292.368	36.18
292.583	81.24
292.798	32.08
293.012	52.56
293.227	73.04
293.442	-2.73
293.657	138.58
293.871	111.96
294.086	81.24
294.301	148.82
294.516	105.81
294.73	107.86
294.945	1.37
295.16	40.28
295.374	124.24
295.589	134.48
295.804	56.66
296.018	56.66
296.233	150.87
296.447	5.46
296.662	-8.87
296.877	85.33
297.091	116.05
297.306	81.24
297.52	-2.73
297.735	71
297.949	44.37
298.164	42.32
298.378	77.14
298.593	-0.68
298.807	46.42
299.022	-43.69
299.236	89.43
299.451	17.75
299.665	-53.93
299.88	56.66
300.094	-33.45
300.309	-78.51
300.523	52.56
300.737	7.51
300.952	79.19
301.166	38.23
301.381	-62.12
301.595	23.89
301.809	30.04
302.024	-43.69
302.238	23.89
302.452	128.34
302.667	32.08
302.881	128.34
303.095	124.24
303.309	-29.35
303.524	7.51
303.738	52.56
303.952	-10.92
304.166	77.14
304.381	-66.22
304.595	177.49
304.809	27.99
305.023	42.32
305.237	-25.26
305.452	42.32
305.666	142.68
305.88	105.81
306.094	71
306.308	68.95
306.522	66.9
306.736	25.94
306.95	120.15
307.164	17.75
307.379	-12.97
307.593	83.28
307.807	50.52
308.021	144.72
308.235	71
308.449	-70.31
308.663	73.04
308.877	228.69
309.091	97.62
309.305	130.39
309.519	-96.94
309.733	159.06
309.947	-135.85
310.161	60.76
310.374	71
310.588	25.94
310.802	-12.97
311.016	-47.79
311.23	146.77
311.444	-33.45
311.658	66.9
311.872	138.58
312.085	144.72
312.299	140.63
312.513	157.01
312.727	36.18
312.941	1.37
313.154	107.86
313.368	23.89
313.582	52.56
313.796	-12.97
314.009	-47.79
314.223	140.63
314.437	54.61
314.651	103.76
314.864	7.51
315.078	17.75
315.292	-70.31
315.505	-33.45
315.719	-21.16
315.933	-17.07
316.146	32.08
316.36	-37.55
316.573	66.9
316.787	107.86
317.001	157.01
317.214	-35.5
317.428	25.94
317.641	-6.83
317.855	85.33
318.068	46.42
318.282	93.52
318.495	177.49
318.709	46.42
318.922	81.24
319.136	152.91
319.349	179.54
319.563	-17.07
319.776	48.47
319.99	-115.37
320.203	85.33
320.417	40.28
320.63	167.25
320.843	187.73
321.057	101.72
321.27	79.19
321.483	179.54
321.697	154.96
321.91	40.28
322.124	62.8
322.337	75.09
322.55	-8.87
322.763	50.52
322.977	19.8
323.19	17.75
323.403	32.08
323.617	17.75
323.83	142.68
324.043	-29.35
324.256	71
324.469	13.65
324.683	79.19
324.896	52.56
325.109	56.66
325.322	-2.73
325.535	91.48
325.748	146.77
325.962	-8.87
326.175	68.95
326.388	58.71
326.601	179.54
326.814	-21.16
327.027	77.14
327.24	210.26
327.453	-45.74
327.666	52.56
327.879	200.02
328.092	60.76
328.305	193.87
328.518	25.94
328.731	-35.5
328.944	40.28
329.157	34.13
329.37	3.41
329.583	109.91
329.796	103.76
330.009	-84.65
330.222	60.76
330.435	128.34
330.648	30.04
330.861	36.18
331.073	46.42
331.286	75.09
331.499	-0.68
331.712	-29.35
331.925	42.32
332.138	-12.97
332.35	179.54
332.563	-25.26
332.776	114
332.989	-74.41
333.202	54.61
333.414	56.66
333.627	93.52
333.84	25.94
334.053	15.7
334.265	19.8
334.478	-62.12
334.691	85.33
334.903	-17.07
335.116	-2.73
335.329	7.51
335.541	75.09
335.754	122.2
335.966	62.8
336.179	-8.87
336.392	42.32
336.604	5.46
336.817	103.76
337.029	148.82
337.242	48.47
337.454	56.66
337.667	-27.31
337.88	154.96
338.092	48.47
338.305	36.18
338.517	62.8
338.729	136.53
338.942	175.44
339.154	13.65
339.367	-19.11
339.579	52.56
339.792	-19.11
340.004	56.66
340.217	68.95
340.429	27.99
340.641	30.04
340.854	-58.03
341.066	46.42
341.278	99.67
341.491	161.11
341.703	107.86
341.915	-8.87
342.128	64.85
342.34	44.37
342.552	-33.45
342.764	142.68
342.977	3.41
343.189	126.29
343.401	-23.21
343.613	-55.98
343.826	48.47
344.038	-10.92
344.25	15.7
344.462	32.08
344.674	50.52
344.886	83.28
345.099	128.34
345.311	64.85
345.523	-17.07
345.735	-29.35
345.947	58.71
346.159	25.94
346.371	-55.98
346.583	73.04
346.795	185.68
347.007	17.75
347.219	91.48
347.431	-10.92
347.643	99.67
347.855	27.99
348.067	111.96
348.279	-6.83
348.491	19.8
348.703	126.29
348.915	-8.87
349.127	-12.97
349.339	64.85
349.551	52.56
349.763	118.1
349.975	73.04
350.187	124.24
350.399	95.57
350.61	30.04
350.822	38.23
351.034	40.28
351.246	152.91
351.458	54.61
351.669	111.96
351.881	79.19
352.093	77.14
352.305	71
352.517	60.76
352.728	99.67
352.94	38.23
353.152	79.19
353.363	-55.98
353.575	73.04
353.787	210.26
353.999	103.76
354.21	197.97
354.422	-51.88
354.633	11.61
354.845	83.28
355.057	32.08
355.268	13.65
355.48	154.96
355.692	-39.59
355.903	-10.92
356.115	-41.64
356.326	-133.8
356.538	134.48
356.749	48.47
356.961	122.2
357.172	-33.45
357.384	-2.73
357.595	130.39
357.807	-141.99
358.018	44.37
358.23	5.46
358.441	157.01
358.653	99.67
358.864	52.56
359.075	-8.87
359.287	-33.45
359.498	118.1
359.709	11.61
359.921	36.18
360.132	81.24
360.344	60.76
360.555	32.08
360.766	58.71
360.977	15.7
361.189	148.82
361.4	79.19
361.611	165.2
361.823	73.04
362.034	81.24
362.245	-62.12
362.456	71
362.667	146.77
362.879	-21.16
363.09	54.61
363.301	103.76
363.512	1.37
363.723	56.66
363.935	-23.21
364.146	128.34
364.357	105.81
364.568	97.62
364.779	-33.45
364.99	130.39
365.201	-47.79
365.412	97.62
365.623	-25.26
365.834	85.33
366.045	58.71
366.256	152.91
366.467	42.32
366.678	23.89
366.889	54.61
367.1	21.85
367.311	105.81
367.522	-0.68
367.733	89.43
367.944	79.19
368.155	30.04
368.366	103.76
368.577	144.72
368.788	85.33
368.999	5.46
369.209	73.04
369.42	232.79
369.631	171.35
369.842	105.81
370.053	-39.59
370.264	114
370.474	-31.4
370.685	126.29
370.896	75.09
371.107	175.44
371.317	75.09
371.528	34.13
371.739	89.43
371.95	154.96
372.16	79.19
372.371	-70.31
372.582	77.14
372.792	58.71
373.003	101.72
373.214	73.04
373.424	83.28
373.635	-6.83
373.846	111.96
374.056	44.37
374.267	134.48
374.477	89.43
374.688	9.56
374.898	54.61
375.109	107.86
375.319	85.33
375.53	132.44
375.74	116.05
375.951	48.47
376.161	146.77
376.372	107.86
376.582	25.94
376.793	46.42
377.003	-41.64
377.214	-33.45
377.424	134.48
377.635	89.43
377.845	-4.78
378.055	181.59
378.266	-80.55
378.476	93.52
378.686	62.8
378.897	62.8
379.107	105.81
379.317	60.76
379.528	-2.73
379.738	9.56
379.948	-64.17
380.158	93.52
380.369	21.85
380.579	44.37
380.789	-49.83
380.999	85.33
381.21	126.29
381.42	165.2
381.63	-76.46
381.84	85.33
382.05	68.95
382.261	138.58
382.471	103.76
382.681	-27.31
382.891	150.87
383.101	64.85
383.311	7.51
383.521	-0.68
383.731	93.52
383.941	93.52
384.151	75.09
384.361	27.99
384.571	54.61
384.781	111.96
384.991	173.39
385.201	118.1
385.411	66.9
385.621	95.57
385.831	54.61
386.041	68.95
386.251	40.28
386.461	42.32
386.671	15.7
386.881	5.46
387.091	5.46
387.301	77.14
387.511	21.85
387.72	17.75
387.93	99.67
388.14	-74.41
388.35	130.39
388.56	136.53
388.769	105.81
388.979	62.8
389.189	21.85
389.399	54.61
389.609	71
389.818	105.81
390.028	38.23
390.238	54.61
390.447	27.99
390.657	134.48
390.867	9.56
391.076	-21.16
391.286	68.95
391.496	23.89
391.705	30.04
391.915	54.61
392.125	140.63
392.334	36.18
392.544	154.96
392.753	9.56
392.963	36.18
393.172	107.86
393.382	44.37
393.591	255.31
393.801	27.99
394.01	152.91
394.22	9.56
394.429	21.85
394.639	-8.87
394.848	62.8
395.058	101.72
395.267	34.13
395.477	81.24
395.686	99.67
395.895	148.82
396.105	216.4
396.314	91.48
396.524	58.71
396.733	54.61
396.942	136.53
397.152	52.56
397.361	89.43
397.57	62.8
397.78	19.8
397.989	95.57
398.198	269.65
398.407	7.51
398.617	-2.73
398.826	120.15
399.035	44.37
399.244	81.24
399.453	62.8
399.663	5.46
399.872	144.72
400.081	-17.07
400.29	101.72
400.499	-33.45
400.708	60.76
400.917	46.42
401.127	66.9
401.336	38.23
401.545	177.49
401.754	58.71
401.963	99.67
402.172	-6.83
402.381	-119.46
402.59	19.8
402.799	116.05
403.008	68.95
403.217	111.96
403.426	99.67
403.635	-23.21
403.844	54.61
404.053	-4.78
404.262	36.18
404.471	265.55
404.68	73.04
404.888	30.04
405.097	46.42
405.306	40.28
405.515	202.07
405.724	71
405.933	144.72
406.142	38.23
406.35	118.1
406.559	-2.73
406.768	64.85
406.977	169.3
407.185	75.09
407.394	73.04
407.603	13.65
407.812	3.41
408.02	83.28
408.229	83.28
408.438	128.34
408.646	25.94
408.855	91.48
409.064	93.52
409.272	91.48
409.481	118.1
409.69	-64.17
409.898	-55.98
410.107	52.56
410.315	134.48
410.524	42.32
410.733	38.23
410.941	79.19
411.15	87.38
411.358	54.61
411.567	114
411.775	27.99
411.984	109.91
412.192	118.1
412.401	36.18
412.609	226.64
412.818	159.06
413.026	60.76
413.234	66.9
413.443	38.23
413.651	-49.83
413.86	105.81
414.068	185.68
414.276	134.48
414.485	85.33
414.693	240.98
414.901	183.63
415.11	91.48
415.318	38.23
415.526	83.28
415.734	154.96
415.943	148.82
416.151	134.48
416.359	58.71
416.567	101.72
416.776	114
416.984	159.06
417.192	167.25
417.4	7.51
417.608	42.32
417.817	-25.26
418.025	177.49
418.233	204.11
418.441	-39.59
418.649	-0.68
418.857	114
419.065	83.28
419.273	-58.03
419.481	46.42
419.689	-29.35
419.897	11.61
420.105	13.65
420.313	79.19
420.521	73.04
420.729	89.43
420.937	-2.73
421.145	-58.03
421.353	93.52
421.561	122.2
421.769	95.57
421.977	5.46
422.185	83.28
422.393	34.13
422.601	136.53
422.809	101.72
423.017	-21.16
423.224	83.28
423.432	150.87
423.64	36.18
423.848	140.63
424.056	32.08
424.263	142.68
424.471	77.14
424.679	157.01
424.887	-35.5
425.094	193.87
425.302	73.04
425.51	27.99
425.718	179.54
425.925	62.8
426.133	42.32
426.341	167.25
426.548	25.94
426.756	103.76
426.964	83.28
427.171	-33.45
427.379	9.56
427.586	148.82
427.794	144.72
428.001	152.91
428.209	89.43
428.417	124.24
428.624	173.39
428.832	79.19
429.039	128.34
429.247	81.24
429.454	109.91
429.662	206.16
429.869	81.24
430.076	48.47
430.284	173.39
430.491	222.55
430.699	150.87
430.906	187.73
431.114	116.05
431.321	142.68
431.528	146.77
431.736	144.72
431.943	118.1
432.15	169.3
432.358	138.58
432.565	335.18
432.772	11.61
432.979	212.31
433.187	140.63
433.394	159.06
433.601	120.15
433.808	197.97
434.016	197.97
434.223	261.46
434.43	202.07
434.637	240.98
434.844	238.93
435.052	232.79
435.259	306.51
435.466	253.27
435.673	218.45
435.88	234.83
436.087	314.7
436.294	251.22
436.501	312.66
436.708	230.74
436.915	247.12
437.122	341.33
437.329	191.83
437.537	294.22
437.743	335.18
437.95	392.53
438.157	310.61
438.364	374.1
438.571	320.85
438.778	445.77
438.985	337.23
439.192	447.82
439.399	347.47
439.606	486.73
439.813	433.49
440.02	679.24
440.227	617.8
440.433	437.58
440.64	486.73
440.847	490.83
441.054	537.93
441.261	632.14
441.467	574.8
441.674	513.36
441.881	652.62
442.088	675.15
442.294	642.38
442.501	681.29
442.708	789.83
442.914	609.61
443.121	793.93
443.328	744.78
443.534	906.57
443.741	781.64
443.948	820.55
444.154	867.66
444.361	1021.25
444.568	927.05
444.774	968.01
444.981	859.46
445.187	1152.32
445.394	1037.64
445.6	961.86
445.807	1166.66
446.013	1230.15
446.22	1146.18
446.426	1299.78
446.633	1490.24
446.839	1523.01
447.046	1287.49
447.252	1539.39
447.459	1520.96
447.665	1416.51
447.871	1744.19
448.078	1776.95
448.284	1834.3
448.491	1791.29
448.697	1967.42
448.903	2000.18
449.11	2018.61
449.316	2047.29
449.522	2129.2
449.728	2280.75
449.935	2481.46
450.141	2340.15
450.347	2456.88
450.553	2448.69
450.76	2501.94
450.966	2796.84
451.172	2759.98
451.378	3020.07
451.584	2858.28
451.791	3323.17
451.997	3181.86
452.203	3384.61
452.409	3415.33
452.615	3685.66
452.821	3599.65
453.027	3532.06
453.233	4093.21
453.44	3849.5
453.646	4058.39
453.852	4261.14
454.058	4455.7
454.264	4615.44
454.47	4857.1
454.676	4982.03
454.882	5317.89
455.088	5037.32
455.294	5346.56
455.5	5651.71
455.705	6104.31
455.911	6006.01
456.117	6223.09
456.323	6259.96
456.529	6612.21
456.735	6937.84
456.941	7138.54
457.147	7453.92
457.352	7804.13
457.558	7996.64
457.764	8334.55
457.97	8525.01
458.176	8926.41
458.381	9364.68
458.587	9583.81
458.793	10058.94
458.999	9899.2
459.204	11146.41
459.41	11527.33
459.616	11469.99
459.821	12283.03
460.027	12584.09
460.233	13214.86
460.438	13153.42
460.644	13845.63
460.85	13911.17
461.055	14488.7
461.261	15299.69
461.466	14963.82
461.672	15328.36
461.878	17130.58
462.083	17044.56
462.289	17382.48
462.494	18031.68
462.7	18066.5
462.905	18279.49
463.111	19811.37
463.316	20737.05
463.522	21433.36
463.727	21597.2
463.932	22776.83
464.138	23434.22
464.343	24376.29
464.549	24769.5
464.754	26035.14
464.959	27139
465.165	27540.4
465.37	27313.08
465.575	27253.69
465.781	28804
465.986	30094.22
466.191	29621.14
466.397	30120.84
466.602	29373.33
466.807	30804.86
467.012	31222.65
467.218	31980.4
467.423	31746.93
467.628	33051.48
467.833	34532.17
468.038	33610.58
468.244	33241.95
468.449	35056.45
468.654	34022.22
468.859	34366.28
469.064	34149.2
469.269	33657.68
469.474	33819.47
469.679	34730.82
469.885	33631.06
470.09	34478.92
470.295	34517.83
470.5	33842
470.705	34028.37
470.91	32985.95
471.115	32961.37
471.32	32977.76
471.525	33020.77
471.73	32369.51
471.935	32220.01
472.139	30530.44
472.344	30847.87
472.549	30628.74
472.754	29979.53
472.959	29059.99
473.164	28322.73
473.369	28175.27
473.574	28697.5
473.778	28152.74
473.983	27700.14
474.188	27208.63
474.393	25848.78
474.598	25344.98
474.802	25101.27
475.007	24749.02
475.212	24724.44
475.417	23491.57
475.621	23452.66
475.826	23106.55
476.031	22647.8
476.235	22227.97
476.44	22027.27
476.645	21515.28
476.849	21345.3
477.054	20943.89
477.259	20526.11
477.463	20497.44
477.668	19850.28
477.872	19854.37
478.077	19430.44
478.282	18699.32
478.486	18672.7
478.691	18469.95
478.895	18422.84
479.1	18043.97
479.304	18080.83
479.509	17189.97
479.713	17542.22
479.918	17087.57
480.122	17134.67
480.326	17224.78
480.531	16813.14
480.735	16790.61
480.94	16487.51
481.144	16847.96
481.348	16280.67
481.553	16252
481.757	15690.85
481.961	15881.31
482.166	15989.86
482.37	15705.19
482.574	15426.67
482.778	15414.38
482.983	15498.34
483.187	15213.68
483.391	15191.15
483.595	14988.4
483.8	14619.77
484.004	14914.67
484.208	14806.13
484.412	14388.35
484.616	14378.11
484.821	14355.58
485.025	13671.56
485.229	13939.84
485.433	13595.78
485.637	13651.08
485.841	13171.85
486.045	13184.14
486.249	13016.21
486.453	12692.63
486.657	12502.17
486.861	12584.09
487.065	11818.14
487.269	12176.54
487.473	11682.98
487.677	11996.32
487.881	11904.16
488.085	11312.3
488.289	11162.79
488.493	10835.12
488.697	10728.63
488.901	10579.12
489.105	10405.05
489.309	10353.85
489.512	10060.99
489.716	9987.26
489.92	9774.27
490.124	9450.69
490.328	9473.22
490.531	9282.76
490.735	8991.95
490.939	8940.75
491.143	8719.57
491.346	8539.35
491.55	8617.17
491.754	8469.72
491.958	8426.71
492.161	8049.88
492.365	7949.53
492.569	7965.92
492.772	7818.46
492.976	7759.07
493.18	7566.56
493.383	7523.55
493.587	7376.1
493.79	7218.41
493.994	6943.98
494.197	7107.82
494.401	7109.86
494.605	6905.07
494.808	6900.97
495.012	6860.01
495.215	6909.16
495.419	6835.44
495.622	6565.11
495.825	6608.11
496.029	6425.84
496.232	6612.21
496.436	6503.67
496.639	6612.21
496.843	6589.68
497.046	6307.06
497.249	6657.26
497.453	6407.41
497.656	6634.74
497.859	6501.62
498.063	6468.85
498.266	6735.09
498.469	6319.35
498.673	6466.8
498.876	6628.59
499.079	6503.67
499.282	6309.11
499.485	6853.87
499.689	6710.51
499.892	6661.36
500.095	6782.19
500.298	6935.79
500.501	6860.01
500.705	6935.79
500.908	6821.1
501.111	6941.93
501.314	7042.28
501.517	7214.31
501.72	7265.51
501.923	7273.7
502.126	7388.39
502.329	7525.6
502.532	7376.1
502.735	7527.65
502.938	7744.74
503.141	7759.07
503.344	7732.45
503.547	7972.06
503.75	8109.27
503.953	8119.51
504.156	8340.69
504.359	8375.51
504.562	8408.28
504.765	8357.08
504.968	8703.18
505.17	8733.9
505.373	8848.59
505.576	9123.02
505.779	9219.27
505.982	9168.07
506.185	9632.96
506.387	9575.62
506.59	9714.88
506.793	10095.8
506.996	10089.66
507.198	10544.31
507.401	10722.48
507.604	10742.96
507.807	11236.52
508.009	11027.63
508.212	11435.17
508.415	11492.52
508.617	11912.35
508.82	11967.65
509.022	12106.91
509.225	12506.26
509.428	12762.26
509.63	13034.64
509.833	13243.53
510.035	13929.6
510.238	13970.56
510.44	14083.2
510.643	14627.96
510.845	14847.09
511.048	15164.53
511.25	15393.9
511.453	15707.24
511.655	16512.09
511.858	16567.38
512.06	17083.47
512.262	17138.77
512.465	17566.79
512.667	18291.77
512.87	18512.95
513.072	18670.65
513.274	19571.75
513.477	19700.78
513.679	20401.18
513.881	20655.13
514.084	20962.33
514.286	21455.89
514.488	21971.97
514.69	22709.24
514.893	22811.64
515.095	23421.94
515.297	24116.2
515.499	24429.54
515.701	25064.41
515.904	25408.47
516.106	26031.05
516.308	26551.23
516.51	27214.77
516.712	27450.29
516.914	28021.67
517.116	28959.64
517.318	29301.65
517.52	29576.08
517.722	30137.23
517.925	31028.09
518.127	31609.72
518.329	32035.69
518.531	32346.98
518.733	33311.58
518.935	33774.42
519.136	33889.1
519.338	34935.62
519.54	35332.92
519.742	35818.29
519.944	36614.95
520.146	37040.93
520.348	37491.48
520.55	37579.54
520.752	38298.38
520.954	38925.06
521.155	39099.14
521.357	39916.28
521.559	40112.88
521.761	41255.65
521.963	41038.56
522.164	41399.01
522.366	41675.48
522.568	42324.69
522.77	42650.31
522.971	43172.55
523.173	43043.52
523.375	43778.75
523.576	43590.33
523.778	44253.87
523.98	43938.49
524.181	44323.5
524.383	44806.83
524.584	44698.28
524.786	44876.46
524.988	44786.35
525.189	45560.48
525.391	45542.05
525.592	45544.09
525.794	45540
525.995	45781.66
526.197	45439.65
526.398	45603.49
526.6	45335.2
526.801	45355.68
527.003	45755.04
527.204	45050.53
527.406	45060.77
527.607	44855.98
527.808	44987.05
528.01	44020.41
528.211	43875
528.412	44112.56
528.614	44251.83
528.815	43528.89
529.016	43680.44
529.218	42359.5
529.419	42875.59
529.62	42373.84
529.822	41966.29
530.023	41622.23
530.224	41259.74
530.425	40923.88
530.626	39879.41
530.828	39703.29
531.029	40116.98
531.23	39072.51
531.431	38890.24
531.632	38630.15
531.833	38282
532.035	37282.59
532.236	37466.91
532.437	36770.6
532.638	36303.66
532.839	36072.24
533.04	35771.19
533.241	35414.84
533.442	34779.97
533.643	34648.9
533.844	33772.37
534.045	33493.85
534.246	32955.23
534.447	32672.61
534.648	32265.06
534.849	32211.82
535.05	31196.03
535.251	30563.2
535.451	30552.96
535.652	29780.88
535.853	29629.33
536.054	29248.41
536.255	28955.55
536.456	28138.41
536.657	28427.17
536.857	27669.42
537.058	27218.87
537.259	27227.06
537.46	26911.67
537.66	26131.4
537.861	26035.14
538.062	25498.58
538.263	25187.28
538.463	24949.72
538.664	24843.23
538.865	24507.36
539.065	24134.63
539.266	23731.18
539.466	23665.64
539.667	23030.77
539.868	23229.43
540.068	22635.52
540.269	22361.09
540.469	22381.57
540.67	21898.25
540.87	21672.97
541.071	21292.05
541.271	21275.66
541.472	20976.66
541.672	20741.14
541.873	20223.01
542.073	19532.84
542.274	20143.14
542.474	19797.03
542.675	19471.4
542.875	19252.27
543.075	19315.76
543.276	18617.4
543.476	18801.72
543.676	18568.25
543.877	18216
544.077	18293.82
544.277	17796.17
544.478	17591.37
544.678	17579.08
544.878	17355.85
545.078	17140.82
545.279	16768.09
545.479	16786.52
545.679	16499.8
545.879	16485.47
546.079	15944.8
546.28	15703.14
546.48	15797.35
546.68	15787.11
546.88	15346.8
547.08	15334.51
547.28	15250.54
547.48	14535.8
547.68	14842.99
547.88	14423.16
548.081	14486.65
548.281	13835.39
548.481	13827.2
548.681	13913.22
548.881	13687.94
549.081	13499.53
549.28	13284.49
549.48	13241.48
549.68	12899.47
549.88	12854.42
550.08	12463.26
550.28	12299.42
550.48	12453.02
550.68	12176.54
550.88	11844.77
551.08	11879.58
551.279	11832.48
551.479	11205.8
551.679	11431.08
551.879	11039.92
552.079	10958
552.278	10624.18
552.478	10720.43
552.678	10493.11
552.878	10433.72
553.077	10136.76
553.277	9737.41
553.477	9929.92
553.676	9610.43
553.876	9686.21
554.076	9473.22
554.275	9100.49
554.475	9129.16
554.674	9135.31
554.874	8735.95
555.074	8701.14
555.273	8547.54
555.473	8469.72
555.672	8234.2
555.872	8174.81
556.071	8115.42
556.271	8051.93
556.47	7879.9
556.67	7574.75
556.869	7587.04
557.068	7333.09
557.268	7195.88
557.467	7273.7
557.667	7136.49
557.866	6966.51
558.065	6839.53
558.265	6739.18
558.464	6526.19
558.663	6599.92
558.863	6315.25
559.062	6470.9
559.261	6059.26
559.461	6161.66
559.66	5786.88
559.859	5715.2
560.058	5735.68
560.258	5508.35
560.457	5516.55
560.656	5631.23
560.855	5350.66
561.054	5408
561.253	5256.45
561.453	5143.81
561.652	5168.39
561.851	5207.3
562.05	4807.95
562.249	4754.7
562.448	4869.39
562.647	4734.22
562.846	4769.04
563.045	4566.29
563.244	4613.39
563.443	4341.01
563.642	4334.87
563.841	4326.68
564.04	4263.19
564.239	4400.4
564.438	4113.69
564.637	3974.42
564.836	3919.13
565.035	3970.33
565.234	3857.69
565.432	3806.49
565.631	3847.45
565.83	3751.2
566.029	3646.75
566.228	3626.27
566.427	3812.64
566.625	3421.47
566.824	3423.52
567.023	3417.38
567.222	3374.37
567.42	3161.38
567.619	3190.05
567.818	3308.83
568.016	3349.79
568.215	3147.05
568.414	3120.42
568.612	3122.47
568.811	3048.74
569.01	2921.77
569.208	2784.55
569.407	2917.67
569.605	2841.9
569.804	2848.04
570.002	2702.64
570.201	2624.81
570.4	2682.16
570.598	2542.89
570.797	2606.38
570.995	2442.54
571.193	2538.8
571.392	2446.64
571.59	2317.62
571.789	2512.18
571.987	2503.98
572.186	2377.01
572.384	2286.9
572.582	2168.12
572.781	2221.36
572.979	2196.79
573.177	2121.01
573.376	2186.55
573.574	2020.66
573.772	2030.9
573.971	1944.89
574.169	1920.31
574.367	2061.62
574.565	1881.4
574.763	1871.16
574.962	1774.91
575.16	1875.26
575.358	1764.67
575.556	1783.1
575.754	1846.59
575.952	1688.89
576.151	1746.23
576.349	1731.9
576.547	1678.65
576.745	1676.6
576.943	1561.92
577.141	1621.31
577.339	1496.38
577.537	1469.76
577.735	1539.39
577.933	1504.57
578.131	1441.09
578.329	1506.62
578.527	1375.55
578.725	1393.98
578.923	1312.07
579.121	1422.66
579.319	1357.12
579.516	1203.52
579.714	1463.62
579.912	1310.02
580.11	1082.69
580.308	1234.24
580.506	1199.43
580.704	1082.69
580.901	1164.61
581.099	1299.78
581.297	1144.13
581.495	1084.74
581.692	1129.8
581.89	1252.67
582.088	1047.88
582.285	986.44
582.483	1039.69
582.681	857.42
582.878	888.14
583.076	957.77
583.274	963.91
583.471	1209.67
583.669	1013.06
583.866	838.98
584.064	875.85
584.262	808.27
584.459	875.85
584.657	908.62
584.854	881.99
585.052	998.73
585.249	935.24
585.447	795.98
585.644	679.24
585.841	922.95
586.039	836.94
586.236	822.6
586.434	699.72
586.631	669
586.828	755.02
587.026	810.31
587.223	615.76
587.42	632.14
587.618	765.26
587.815	859.46
588.012	744.78
588.21	638.28
588.407	693.58
588.604	705.87
588.801	664.91
588.999	626
589.196	724.3
589.393	623.95
589.59	646.48
589.787	613.71
589.984	654.67
590.182	582.99
590.379	529.74
590.576	630.09
590.773	582.99
590.97	558.41
591.167	634.19
591.364	595.28
591.561	621.9
591.758	683.34
591.955	632.14
592.152	542.03
592.349	556.36
592.546	537.93
592.743	478.54
592.94	570.7
593.137	683.34
593.334	679.24
593.531	648.52
593.727	587.08
593.924	652.62
594.121	546.13
594.318	613.71
594.515	613.71
594.712	716.11
594.908	664.91
595.105	560.46
595.302	728.39
595.499	607.56
595.696	810.31
595.892	640.33
596.089	712.01
596.286	552.27
596.482	769.35
596.679	752.97
596.876	656.72
597.072	806.22
597.269	677.19
597.466	765.26
597.662	718.15
597.859	716.11
598.055	777.55
598.252	834.89
598.448	912.71
598.645	941.38
598.841	988.49
599.038	1027.4
599.234	1041.73
599.431	1043.78
599.627	1121.6
599.824	1127.75
600.02	1310.02
600.217	1092.93
600.413	1146.18
600.609	1230.15
600.806	1586.49
601.002	1289.54
601.198	1355.07
601.395	1531.2
601.591	1502.53
601.787	1625.4
601.984	1652.03
602.18	1682.75
602.376	1762.62
602.572	1838.39
602.769	1959.22
602.965	1928.5
603.161	2063.67
603.357	2125.11
603.553	2200.88
603.75	2190.64
603.946	2395.44
604.142	2440.5
604.338	2510.13
604.534	2508.08
604.73	2649.39
604.926	2735.4
605.122	2901.29
605.318	2796.84
605.514	3018.02
605.71	3128.61
605.906	3208.48
606.102	3286.31
606.298	3456.29
606.494	3550.5
606.69	3681.57
606.886	3740.96
607.082	3745.05
607.278	3835.16
607.474	3886.36
607.67	4279.57
607.866	4093.21
608.062	4381.97
608.257	4533.52
608.453	4359.44
608.649	4621.58
608.845	4640.01
609.041	4873.48
609.236	5068.04
609.432	5258.5
609.628	5358.85
609.824	5516.55
610.019	5625.09
610.215	5762.3
610.411	6010.11
610.606	6186.23
610.802	6229.24
610.998	6298.87
611.193	6722.8
611.389	6452.47
611.584	6841.58
611.78	7001.32
611.976	7240.93
612.171	7580.9
612.367	7562.47
612.562	7863.52
612.758	7959.77
612.953	7869.66
613.149	8395.99
613.344	8400.09
613.539	8793.3
613.735	9157.83
613.93	9272.52
614.126	9364.68
614.321	9852.09
614.517	10042.56
614.712	10386.61
614.907	10544.31
615.103	10890.42
615.298	10785.97
615.493	11396.26
615.688	11551.91
615.884	12180.64
616.079	11998.37
616.274	12641.43
616.47	12915.86
616.665	13024.4
616.86	13474.95
617.055	13608.07
617.25	14189.69
617.445	14648.44
617.641	14527.61
617.836	15062.13
618.031	15064.18
618.226	16084.06
618.421	16047.2
618.616	16653.4
618.811	16657.5
619.006	17413.2
619.201	17386.57
619.396	17978.44
619.591	18269.25
619.786	18889.78
619.981	19115.06
620.176	19805.22
620.371	19858.47
620.566	20343.84
620.761	20915.22
620.956	21648.4
621.151	21402.64
621.346	22057.99
621.541	22184.96
621.735	23133.17
621.93	23180.28
622.125	23196.66
622.32	23636.97
622.515	24337.38
622.709	24773.6
622.904	25166.81
623.099	25787.34
623.294	26586.05
623.488	26409.92
623.683	27356.08
623.878	27425.71
624.072	28201.9
624.267	28390.31
624.462	28808.09
624.656	29141.91
624.851	29959.05
625.046	30079.88
625.24	30647.17
625.435	31046.52
625.629	31314.81
625.824	31806.32
626.018	32412.52
626.213	31992.69
626.407	32682.85
626.602	32688.99
626.796	33704.79
626.991	33991.5
627.185	34048.85
627.38	34247.5
627.574	34276.17
627.768	34673.48
627.963	35062.59
628.157	35148.6
628.352	35390.27
628.546	35013.44
628.74	35148.6
628.935	34892.61
629.129	35523.38
629.323	34863.94
629.517	34736.96
629.712	34696
629.906	34628.42
630.1	33925.97
630.294	34157.39
630.489	33741.65
630.683	33444.69
630.877	32637.8
631.071	31808.37
631.265	31857.52
631.459	31124.35
631.653	30479.24
631.848	29897.61
632.042	28973.98
632.236	28642.21
632.43	27616.18
632.624	26919.87
632.818	26024.9
633.012	25566.16
633.206	24564.7
633.4	23931.88
633.594	23161.84
633.788	22471.68
633.982	21519.37
634.176	20945.94
634.369	19897.38
634.563	19452.97
634.757	18560.06
634.951	17937.48
635.145	17312.85
635.339	16710.74
635.533	15711.33
635.726	15342.7
635.92	14378.11
636.114	13997.18
636.308	13450.38
636.501	13163.66
636.695	12362.9
636.889	11801.76
637.083	11627.68
637.276	10781.87
637.47	10448.05
637.664	10212.54
637.857	9602.24
638.051	9303.24
638.244	8840.4
638.438	8633.55
638.632	8408.28
638.825	7789.79
639.019	7660.77
639.212	7199.98
639.406	7204.07
639.599	6694.13
639.793	6405.36
639.986	6161.66
640.18	6065.4
640.373	5752.06
640.567	5657.85
640.76	5213.45
640.954	5010.7
641.147	4812.04
641.34	4603.15
641.534	4580.62
641.727	4406.55
641.92	4341.01
642.114	4056.34
642.307	3915.03
642.5	3816.73
642.694	3472.67
642.887	3472.67
643.08	3480.86
643.273	3271.97
643.467	3198.24
643.66	2964.78
643.853	2817.32
644.046	2786.6
644.239	2735.4
644.432	2585.9
644.626	2536.75
644.819	2329.91
645.012	2379.06
645.205	2184.5
645.398	2202.93
645.591	2112.82
645.784	1840.44
645.977	1774.91
646.17	1787.19
646.363	1766.71
646.556	1641.79
646.749	1582.4
646.942	1582.4
647.135	1645.88
647.328	1412.42
647.521	1410.37
647.714	1312.07
647.907	1340.74
648.099	1146.18
648.292	1316.16
648.485	1172.8
648.678	1205.57
648.871	1060.17
649.064	988.49
649.256	888.14
649.449	970.05
649.642	968.01
649.835	822.6
650.027	830.79
650.22	912.71
650.413	793.93
650.605	822.6
650.798	755.02
650.991	644.43
651.183	679.24
651.376	646.48
651.568	666.96
651.761	593.23
651.954	632.14
652.146	570.7
652.339	652.62
652.531	642.38
652.724	492.88
652.916	519.5
653.109	441.68
653.301	570.7
653.494	562.51
653.686	413.01
653.879	535.89
654.071	464.21
654.263	466.25
654.456	470.35
654.648	441.68
654.84	425.29
655.033	347.47
655.225	478.54
655.417	259.41
655.61	486.73
655.802	429.39
655.994	390.48
656.186	269.65
656.379	380.24
656.571	226.64
656.763	324.94
656.955	294.22
657.148	296.27
657.34	458.06
657.532	300.37
657.724	300.37
657.916	341.33
658.108	349.52
658.3	279.89
658.492	298.32
658.684	226.64
658.876	283.98
659.068	122.2
659.26	195.92
659.452	171.35
659.644	245.07
659.836	406.86
660.028	243.03
660.22	206.16
660.412	259.41
660.604	269.65
660.796	189.78
660.988	269.65
661.18	208.21
661.372	200.02
661.563	179.54
661.755	191.83
661.947	175.44
662.139	179.54
662.331	140.63
662.522	193.87
662.714	161.11
662.906	103.76
663.097	195.92
663.289	152.91
663.481	142.68
663.673	226.64
663.864	148.82
664.056	167.25
664.247	185.68
664.439	216.4
664.631	204.11
664.822	218.45
665.014	206.16
665.205	150.87
665.397	136.53
665.588	222.55
665.78	144.72
665.971	228.69
666.163	185.68
666.354	177.49
666.546	95.57
666.737	116.05
666.929	107.86
667.12	95.57
667.311	163.15
667.503	216.4
667.694	249.17
667.885	130.39
668.077	152.91
668.268	23.89
668.459	249.17
668.651	177.49
668.842	263.51
669.033	109.91
669.224	122.2
669.416	408.91
669.607	85.33
669.798	161.11
669.989	273.75
670.18	191.83
670.371	175.44
670.563	118.1
670.754	263.51
670.945	294.22
671.136	247.12
671.327	93.52
671.518	175.44
671.709	261.46
671.9	206.16
672.091	263.51
672.282	150.87
672.473	173.39
672.664	130.39
672.855	132.44
673.046	230.74
673.237	267.6
673.428	269.65
673.619	243.03
673.809	212.31
674	290.13
674.191	224.59
674.382	222.55
674.573	157.01
674.764	191.83
674.954	267.6
675.145	46.42
675.336	251.22
675.527	226.64
675.717	111.96
675.908	220.5
676.099	163.15
676.289	286.03
676.48	128.34
676.671	243.03
676.861	202.07
677.052	292.18
677.243	177.49
677.433	277.84
677.624	238.93
677.814	251.22
678.005	175.44
678.195	378.19
678.386	200.02
678.576	236.88
678.767	163.15
678.957	185.68
679.148	267.6
679.338	333.14
679.529	220.5
679.719	267.6
679.909	372.05
680.1	392.53
680.29	224.59
680.481	267.6
680.671	331.09
680.861	216.4
681.052	212.31
681.242	171.35
681.432	326.99
681.622	308.56
681.813	163.15
682.003	281.94
682.193	214.35
682.383	310.61
682.573	318.8
682.764	228.69
682.954	290.13
683.144	361.81
683.334	163.15
683.524	312.66
683.714	243.03
683.904	357.71
684.094	310.61
684.284	294.22
684.474	437.58
684.664	361.81
684.854	326.99
685.044	275.79
685.234	347.47
685.424	351.57
685.614	232.79
685.804	447.82
685.994	441.68
686.184	318.8
686.374	357.71
686.564	339.28
686.753	353.62
686.943	273.75
687.133	218.45
687.323	376.14
687.513	302.42
687.702	314.7
687.892	224.59
688.082	372.05
688.272	361.81
688.461	359.76
688.651	402.77
688.841	353.62
689.03	232.79
689.22	279.89
689.41	367.95
689.599	355.66
689.789	288.08
689.979	408.91
690.168	435.53
690.358	431.44
690.547	273.75
690.737	339.28
690.926	410.96
691.116	347.47
691.305	290.13
691.495	413.01
691.684	230.74
691.874	249.17
692.063	331.09
692.252	408.91
692.442	386.38
692.631	255.31
692.82	226.64
693.01	374.1
693.199	273.75
693.388	296.27
693.578	202.07
693.767	341.33
693.956	331.09
694.146	234.83
694.335	312.66
694.524	200.02
694.713	298.32
694.902	271.7
695.092	210.26
695.281	294.22
695.47	226.64
695.659	255.31
695.848	288.08
696.037	249.17
696.226	363.86
696.415	339.28
696.604	275.79
696.793	265.55
696.982	296.27
697.171	431.44
697.36	210.26
697.549	261.46
697.738	134.48
697.927	240.98
698.116	308.56
698.305	279.89
698.494	333.14
698.683	195.92
698.872	433.49
699.061	263.51
699.25	263.51
699.438	318.8
699.627	261.46
699.816	347.47
700.005	173.39
700.193	290.13
700.382	343.38
700.571	253.27
700.76	234.83
700.948	269.65
701.137	279.89
701.326	294.22
701.514	157.01
701.703	255.31
701.892	320.85
702.08	486.73
702.269	222.55
702.457	216.4
702.646	296.27
702.834	230.74
703.023	275.79
703.212	365.9
703.4	214.35
703.589	279.89
703.777	261.46
703.965	195.92
704.154	255.31
704.342	294.22
704.531	257.36
704.719	279.89
704.907	415.06
705.096	259.41
705.284	204.11
705.472	177.49
705.661	277.84
705.849	402.77
706.037	357.71
706.226	259.41
706.414	290.13
706.602	208.21
706.79	341.33
706.979	193.87
707.167	290.13
707.355	157.01
707.543	224.59
707.731	271.7
707.919	292.18
708.107	234.83
708.296	200.02
708.484	238.93
708.672	300.37
708.86	290.13
709.048	318.8
709.236	208.21
709.424	312.66
709.612	234.83
709.8	179.54
709.988	197.97
710.176	400.72
710.364	365.9
710.551	238.93
710.739	247.12
710.927	236.88
711.115	238.93
711.303	396.62
711.491	329.04
711.679	165.2
711.866	370
712.054	300.37
712.242	247.12
712.43	390.48
712.617	271.7
712.805	298.32
712.993	267.6
713.181	218.45
713.368	333.14
713.556	277.84
713.744	281.94
713.931	417.1
714.119	306.51
714.306	214.35
714.494	214.35
714.682	218.45
714.869	216.4
715.057	255.31
715.244	159.06
715.432	286.03
715.619	238.93
715.807	222.55
715.994	202.07
716.182	302.42
716.369	339.28
716.556	363.86
716.744	128.34
716.931	163.15
717.119	310.61
717.306	224.59
717.493	288.08
717.681	183.63
717.868	230.74
718.055	300.37
718.242	273.75
718.43	331.09
718.617	376.14
718.804	255.31
718.991	357.71
719.179	318.8
719.366	306.51
719.553	365.9
719.74	265.55
719.927	294.22
720.114	296.27
720.301	195.92
720.488	230.74
720.676	304.46
720.863	417.1
721.05	417.1
721.237	427.34
721.424	329.04
721.611	320.85
721.798	232.79
721.985	200.02
722.172	320.85
722.358	296.27
722.545	333.14
722.732	267.6
722.919	320.85
723.106	312.66
723.293	216.4
723.48	314.7
723.667	236.88
723.853	447.82
724.04	306.51
724.227	408.91
724.414	232.79
724.6	294.22
724.787	357.71
724.974	451.92
725.161	306.51
725.347	173.39
725.534	312.66
725.72	310.61
725.907	396.62
726.094	326.99
726.28	224.59
726.467	363.86
726.653	243.03
726.84	468.3
727.027	437.58
727.213	292.18
727.4	404.82
727.586	318.8
727.773	331.09
727.959	335.18
728.145	290.13
728.332	322.9
728.518	302.42
728.705	370
728.891	361.81
729.077	265.55
729.264	283.98
729.45	310.61
729.636	347.47
729.823	306.51
730.009	445.77
730.195	359.76
730.382	355.66
730.568	288.08
730.754	406.86
730.94	390.48
731.126	410.96
731.313	331.09
731.499	370
731.685	431.44
731.871	372.05
732.057	349.52
732.243	470.35
732.429	320.85
732.615	431.44
732.801	384.34
732.987	365.9
733.173	310.61
733.359	216.4
733.545	343.38
733.731	189.78
733.917	451.92
734.103	322.9
734.289	374.1
734.475	200.02
734.661	478.54
734.847	384.34
735.033	318.8
735.219	390.48
735.404	281.94
735.59	390.48
735.776	324.94
735.962	357.71
736.148	392.53
736.333	453.97
736.519	398.67
736.705	359.76
736.89	384.34
737.076	312.66
737.262	300.37
737.447	296.27
737.633	374.1
737.819	421.2
738.004	388.43
738.19	380.24
738.375	294.22
738.561	435.53
738.747	402.77
738.932	240.98
739.118	470.35
739.303	433.49
739.489	390.48
739.674	345.42
739.859	298.32
740.045	341.33
740.23	400.72
740.416	240.98
740.601	294.22
740.786	312.66
740.972	384.34
741.157	300.37
741.342	259.41
741.528	302.42
741.713	441.68
741.898	206.16
742.084	294.22
742.269	324.94
742.454	372.05
742.639	425.29
742.824	306.51
743.01	443.73
743.195	419.15
743.38	380.24
743.565	316.75
743.75	349.52
743.935	343.38
744.12	406.86
744.305	306.51
744.49	300.37
744.675	318.8
744.86	279.89
745.045	357.71
745.23	415.06
745.415	349.52
745.6	406.86
745.785	304.46
745.97	367.95
746.155	275.79
746.34	413.01
746.525	333.14
746.71	363.86
746.895	212.31
747.079	245.07
747.264	310.61
747.449	347.47
747.634	298.32
747.819	365.9
748.003	365.9
748.188	228.69
748.373	312.66
748.557	306.51
748.742	265.55
748.927	275.79
749.111	279.89
749.296	255.31
749.481	277.84
749.665	324.94
749.85	257.36
750.034	232.79
750.219	257.36
750.404	306.51
750.588	281.94
750.773	265.55
750.957	259.41
751.141	220.5
751.326	314.7
751.51	157.01
751.695	220.5
751.879	294.22
752.064	322.9
752.248	255.31
752.432	367.95
752.617	361.81
752.801	236.88
752.985	236.88
753.17	404.82
753.354	208.21
753.538	304.46
753.722	185.68
753.907	179.54
754.091	89.43
754.275	308.56
754.459	165.2
754.643	294.22
754.828	316.75
755.012	269.65
755.196	185.68
755.38	253.27
755.564	240.98
755.748	216.4
755.932	326.99
756.116	292.18
756.3	300.37
756.484	224.59
756.668	220.5
756.852	50.52
757.036	197.97
757.22	222.55
757.404	181.59
757.588	204.11
757.772	271.7
757.956	171.35
758.14	283.98
758.323	124.24
758.507	300.37
758.691	109.91
758.875	177.49
759.059	298.32
759.242	236.88
759.426	193.87
759.61	189.78
759.794	114
759.977	218.45
760.161	390.48
760.345	292.18
760.528	249.17
760.712	226.64
760.895	103.76
761.079	193.87
761.263	163.15
761.446	142.68
761.63	177.49
761.813	286.03
761.997	159.06
762.18	226.64
762.364	277.84
762.547	46.42
762.731	169.3
762.914	224.59
763.098	83.28
763.281	159.06
763.464	163.15
763.648	181.59
763.831	177.49
764.015	138.58
764.198	208.21
764.381	114
764.564	185.68
764.748	185.68
764.931	128.34
765.114	181.59
765.297	130.39
765.481	66.9
765.664	118.1
765.847	97.62
766.03	173.39
766.213	116.05
766.397	136.53
766.58	75.09
766.763	232.79
766.946	173.39
767.129	142.68
767.312	142.68
767.495	95.57
767.678	122.2
767.861	85.33
768.044	130.39
768.227	58.71
768.41	109.91
768.593	97.62
768.776	152.91
768.959	87.38
769.142	214.35
769.324	97.62
769.507	138.58
769.69	64.85
769.873	89.43
770.056	286.03
770.239	101.72
770.421	179.54
770.604	144.72
770.787	107.86
770.97	132.44
771.152	99.67
771.335	191.83
771.518	79.19
771.7	232.79
771.883	247.12
772.066	73.04
772.248	171.35
772.431	243.03
772.613	175.44
772.796	89.43
772.978	136.53
773.161	249.17
773.343	136.53
773.526	85.33
773.708	-49.83
773.891	-33.45
774.073	146.77
774.256	36.18
774.438	271.7
774.621	95.57
774.803	83.28
774.985	19.8
775.168	95.57
775.35	146.77
775.532	167.25
775.715	87.38
775.897	159.06
776.079	77.14
776.261	50.52
776.444	73.04
776.626	21.85
776.808	81.24
776.99	-49.83
777.173	140.63
777.355	48.47
777.537	150.87
777.719	58.71
777.901	103.76
778.083	-27.31
778.265	-45.74
778.447	126.29
778.629	-25.26
778.811	68.95
778.993	220.5
779.175	169.3
779.357	46.42
779.539	-78.51
779.721	114
779.903	134.48
780.085	40.28
780.267	105.81
780.449	136.53
780.631	148.82
780.812	208.21
780.994	87.38
781.176	62.8
781.358	36.18
781.54	3.41
781.721	97.62
781.903	161.11
782.085	36.18
782.267	159.06
782.448	-19.11
782.63	7.51
782.812	105.81
782.993	146.77
783.175	97.62
783.357	66.9
783.538	36.18
783.72	87.38
783.901	62.8
784.083	75.09
784.264	169.3
784.446	-15.02
784.627	-21.16
784.809	79.19
784.99	38.23
785.172	40.28
785.353	15.7
785.535	66.9
785.716	-6.83
785.897	-25.26
786.079	83.28
786.26	107.86
786.441	66.9
786.623	-10.92
786.804	19.8
786.985	157.01
787.167	128.34
787.348	87.38
787.529	-51.88
787.71	206.16
787.891	136.53
788.073	-4.78
788.254	-0.68
788.435	245.07
788.616	105.81
788.797	-4.78
788.978	56.66
789.159	-37.55
789.34	73.04
789.522	-45.74
789.703	32.08
789.884	91.48
790.065	83.28
790.246	138.58
790.427	13.65
790.607	183.63
790.788	116.05
790.969	7.51
791.15	50.52
791.331	-10.92
791.512	36.18
791.693	-62.12
791.874	93.52
792.054	257.36
792.235	118.1
792.416	-4.78
792.597	-31.4
792.778	114
792.958	-27.31
793.139	56.66
793.32	32.08
793.5	17.75
793.681	91.48
793.862	71
794.042	40.28
794.223	-111.27
794.404	-33.45
794.584	-125.61
794.765	66.9
794.945	66.9
795.126	64.85
795.306	128.34
795.487	42.32
795.667	-2.73
795.848	11.61
796.028	-66.22
796.209	50.52
796.389	130.39
796.57	46.42
796.75	9.56
796.93	-23.21
797.111	-29.35
797.291	13.65
797.471	120.15
797.652	-21.16
797.832	-12.97
798.012	191.83
798.192	5.46
798.373	-115.37
798.553	19.8
798.733	89.43
798.913	7.51
799.093	19.8
799.274	7.51
799.454	-0.68
799.634	99.67
799.814	77.14
799.994	101.72
800.174	-6.83
800.354	44.37
800.534	-12.97
800.714	56.66
800.894	-76.46
801.074	-66.22
801.254	23.89
801.434	60.76
801.614	-29.35
801.794	-49.83
801.974	1858.87
802.154	-25.26
802.334	32.08
802.514	-15.02
802.693	-82.6
802.873	13.65
803.053	114
803.233	21.85
803.413	7.51
803.592	11.61
803.772	-41.64
803.952	7.51
804.131	-49.83
804.311	-4.78
804.491	85.33
804.67	-29.35
804.85	-6.83
805.03	44.37
805.209	128.34
805.389	19.8
805.568	-17.07
805.748	-37.55
805.928	17.75
806.107	68.95
806.287	54.61
806.466	95.57
806.646	7.51
806.825	15.7
807.004	52.56
807.184	58.71
807.363	58.71
807.543	34.13
807.722	-27.31
807.901	124.24
808.081	136.53
808.26	-35.5
808.439	-23.21
808.619	71
808.798	27.99
808.977	-2.73
809.156	89.43
809.336	23.89
809.515	120.15
809.694	-70.31
809.873	-29.35
810.052	30.04
810.231	97.62
810.411	38.23
810.59	-21.16
810.769	-43.69
810.948	75.09
811.127	-41.64
811.306	-101.03
811.485	-78.51
811.664	93.52
811.843	25.94
812.022	-47.79
812.201	-76.46
812.38	-35.5
812.559	-101.03
812.737	34.13
812.916	-82.6
813.095	-66.22
813.274	-45.74
813.453	19.8
813.632	79.19
813.811	46.42
813.989	-41.64
814.168	27.99
814.347	-66.22
814.526	23.89
814.704	122.2
814.883	122.2
815.062	-53.93
815.24	38.23
815.419	5.46
815.598	23.89
815.776	-66.22
815.955	5.46
816.133	-68.27
816.312	99.67
816.49	-2.73
816.669	52.56
816.847	-0.68
817.026	23.89
817.204	3.41
817.383	3.41
817.561	-53.93
817.74	44.37
817.918	-4.78
818.097	11.61
818.275	-23.21
818.453	60.76
818.632	-25.26
818.81	50.52
818.988	-19.11
819.167	7.51
819.345	87.38
819.523	-51.88
819.701	58.71
819.879	52.56
820.058	15.7
820.236	32.08
820.414	15.7
820.592	-17.07
820.77	-29.35
820.948	-33.45
821.127	-45.74
821.305	13.65
821.483	-4.78
821.661	89.43
821.839	23.89
822.017	-55.98
822.195	-4.78
822.373	193.87
822.551	-12.97
822.729	116.05
822.907	-70.31
823.085	71
823.262	-25.26
823.44	11.61
823.618	25.94
823.796	71
823.974	-27.31
824.152	-8.87
824.329	-82.6
824.507	-17.07
824.685	66.9
824.863	-58.03
825.04	-47.79
825.218	7.51
825.396	-8.87
825.574	68.95
825.751	38.23
825.929	36.18
826.107	-105.13
826.284	-35.5
826.462	9.56
826.639	-35.5
826.817	-58.03
826.994	3.41
827.172	-62.12
827.349	114
827.527	42.32
827.704	60.76
827.882	114
828.059	-33.45
828.237	-6.83
828.414	111.96
828.591	-111.27
828.769	44.37
828.946	15.7
829.124	107.86
829.301	177.49
829.478	40.28
829.655	62.8
829.833	48.47
830.01	-58.03
830.187	97.62
830.364	40.28
830.542	64.85
830.719	101.72
830.896	111.96
831.073	32.08
831.25	23.89
831.427	44.37
831.604	68.95
831.782	-60.07
831.959	107.86
832.136	50.52
832.313	107.86
832.49	-90.79
832.667	62.8
832.844	-88.75
833.021	132.44
833.198	-6.83
833.374	32.08
833.551	81.24
833.728	-115.37
833.905	200.02
834.082	-53.93
834.259	32.08
834.436	99.67
834.612	-58.03
834.789	-12.97
834.966	42.32
835.143	-8.87
835.319	-68.27
835.496	34.13
835.673	21.85
835.85	50.52
836.026	25.94
836.203	66.9
836.38	30.04
836.556	-51.88
836.733	5.46
836.909	81.24
837.086	7.51
837.262	-115.37
837.439	-12.97
837.616	-21.16
837.792	-0.68
837.968	13.65
838.145	-62.12
838.321	-43.69
838.498	40.28
838.674	85.33
838.851	42.32
839.027	-103.08
839.203	23.89
839.38	64.85
839.556	-66.22
839.732	97.62
839.909	32.08
840.085	66.9
840.261	-123.56
840.437	-58.03
840.614	-41.64
840.79	56.66
840.966	27.99
841.142	-33.45
841.318	-62.12
841.494	-2.73
841.671	-17.07
841.847	-37.55
842.023	-96.94
842.199	46.42
842.375	128.34
842.551	-88.75
842.727	-90.79
842.903	134.48
843.079	-60.07
843.255	107.86
843.431	13.65
843.607	30.04
843.783	-111.27
843.959	-21.16
844.134	-17.07
844.31	163.15
844.486	-31.4
844.662	-33.45
844.838	44.37
845.013	-21.16
845.189	66.9
845.365	15.7
845.541	-0.68
845.716	52.56
845.892	62.8
846.068	-8.87
846.244	-31.4
846.419	79.19
846.595	-121.51
846.77	-31.4
846.946	19.8
847.122	-49.83
847.297	-58.03
847.473	175.44
847.648	-96.94
847.824	30.04
847.999	-139.94
848.175	-58.03
848.35	38.23
848.526	19.8
848.701	73.04
848.876	-10.92
849.052	79.19
849.227	-31.4
849.403	-0.68
849.578	27.99
849.753	75.09
849.929	50.52
850.104	-74.41
850.279	-37.55
850.454	27.99
850.63	5.46
850.805	93.52
850.98	32.08
851.155	-39.59
851.33	-53.93
851.505	-41.64
851.681	114
851.856	-82.6
852.031	17.75
852.206	25.94
852.381	13.65
852.556	21.85
852.731	15.7
852.906	114
853.081	15.7
853.256	109.91
853.431	-29.35
853.606	-17.07
853.781	-111.27
853.956	-90.79
854.131	-4.78
854.305	-21.16
854.48	54.61
854.655	-4.78
854.83	-66.22
855.005	-0.68
855.18	83.28
855.354	-10.92
855.529	32.08
855.704	7.51
855.879	87.38
856.053	-58.03
856.228	36.18
856.403	-115.37
856.577	-12.97
856.752	-58.03
856.926	13.65
857.101	-2.73
857.276	-55.98
857.45	111.96
857.625	27.99
857.799	83.28
857.974	30.04
858.148	-94.89
858.323	11.61
858.497	9.56
858.672	-74.41
858.846	-51.88
859.02	68.95
859.195	-0.68
859.369	5.46
859.543	-0.68
859.718	-8.87
859.892	19.8
860.066	-10.92
860.241	60.76
860.415	-66.22
860.589	3.41
860.763	15.7
860.938	-109.22
861.112	19.8
861.286	13.65
861.46	-19.11
861.634	-6.83
861.808	52.56
861.982	-45.74
862.157	-123.56
862.331	-90.79
862.505	-88.75
862.679	-82.6
862.853	15.7
863.027	-4.78
863.201	132.44
863.375	-45.74
863.549	5.46
863.722	-12.97
863.896	134.48
864.07	-45.74
864.244	-29.35
864.418	19.8
864.592	5.46
864.766	-29.35
864.939	-10.92
865.113	-121.51
865.287	146.77
865.461	-66.22
865.634	13.65
865.808	40.28
865.982	23.89
866.156	-76.46
866.329	-185
866.503	-29.35
866.676	99.67
866.85	-47.79
867.024	-31.4
867.197	126.29
867.371	-4.78
867.544	19.8
867.718	-103.08
867.891	50.52
868.065	-53.93
868.238	-4.78
868.412	114
868.585	58.71
868.759	15.7
868.932	-43.69
869.105	-60.07
869.279	40.28
869.452	-111.27
869.625	7.51
869.799	-23.21
869.972	-115.37
870.145	-64.17
870.319	87.38
870.492	-47.79
870.665	-37.55
870.838	-51.88
871.011	-156.33
871.185	-66.22
871.358	-25.26
871.531	71
871.704	-68.27
871.877	-78.51
872.05	-76.46
872.223	-78.51
872.396	64.85
872.569	21.85
872.742	-58.03
872.915	83.28
873.088	-2.73
873.261	-49.83
873.434	9.56
873.607	-21.16
873.78	40.28
873.953	-49.83
874.126	-70.31
874.299	17.75
874.471	-19.11
874.644	-84.65
874.817	11.61
874.99	134.48
875.163	-76.46
875.335	7.51
875.508	27.99
875.681	132.44
875.853	-82.6
876.026	-17.07
876.199	105.81
876.371	32.08
876.544	3.41
876.717	-47.79
876.889	-33.45
877.062	-39.59
877.234	-92.84
877.407	-72.36
877.579	-25.26
877.752	68.95
877.924	107.86
878.097	-31.4
878.269	79.19
878.442	73.04
878.614	32.08
878.786	21.85
878.959	-66.22
879.131	103.76
879.303	-127.66
879.476	44.37
879.648	83.28
879.82	25.94
879.993	-39.59
880.165	-76.46
880.337	-92.84
880.509	19.8
880.681	-80.55
880.854	-58.03
881.026	-0.68
881.198	185.68
881.37	38.23
881.542	-37.55
881.714	68.95
881.886	-51.88
882.058	-41.64
882.23	15.7
882.402	30.04
882.574	38.23
882.746	118.1
882.918	71
883.09	-58.03
883.262	-10.92
883.434	19.8
883.606	-117.42
883.778	5.46
883.95	107.86
884.122	-23.21
884.293	64.85
884.465	-49.83
884.637	11.61
884.809	3.41
884.98	23.89
885.152	40.28
885.324	79.19
885.496	-15.02
885.667	-62.12
885.839	-29.35
886.011	44.37
886.182	91.48
886.354	157.01
886.525	11.61
886.697	21.85
886.869	-76.46
887.04	-62.12
887.212	93.52
887.383	122.2
887.555	-27.31
887.726	-74.41
887.897	-23.21
888.069	-47.79
888.24	36.18
888.412	19.8
888.583	36.18
888.754	-43.69
888.926	-86.7
889.097	-74.41
889.268	-55.98
889.44	-64.17
889.611	-119.46
889.782	-47.79
889.953	-82.6
890.125	134.48
890.296	-94.89
890.467	-72.36
890.638	54.61
890.809	-68.27
890.98	-139.94
891.151	44.37
891.323	120.15
891.494	-0.68
891.665	-55.98
891.836	-80.55
892.007	91.48
892.178	21.85
892.349	-2.73
892.52	-55.98
892.691	3.41
892.862	-51.88
893.032	-49.83
893.203	-55.98
893.374	101.72
893.545	73.04
893.716	-29.35
893.887	60.76
894.057	-31.4
894.228	-23.21
894.399	-37.55
894.57	87.38
894.74	-33.45
894.911	60.76
895.082	-2.73
895.253	-10.92
895.423	30.04
895.594	50.52
895.764	44.37
895.935	-125.61
896.106	13.65
896.276	-86.7
896.447	32.08
896.617	-62.12
896.788	-53.93
896.958	32.08
897.129	-19.11
897.299	-72.36
897.47	89.43
897.64	77.14
897.81	-25.26
897.981	48.47
898.151	-4.78
898.322	56.66
898.492	83.28
898.662	-146.09
898.832	-96.94
899.003	9.56
899.173	-2.73
899.343	-88.75
899.513	-64.17
