Data from USB4F104151__139__11-04-12-340.txt Node

Date: Wed Feb 26 11:04:12 EST 2025
User: louis
Spectrometer: USB4F10415
Trigger mode: 4
Integration Time (sec): 1.000000E-1
Scans to average: 1
Electric dark correction enabled: true
Nonlinearity correction enabled: false
Boxcar width: 0
XAxis mode: Wavelengths
Number of Pixels in Spectrum: 3648
>>>>>Begin Spectral Data<<<<<
178.204	-434.17
178.424	-434.17
178.644	-434.17
178.864	-450.55
179.084	-372.73
179.304	-34.82
179.524	22.53
179.744	4.1
179.964	40.96
180.184	30.72
180.404	-20.48
180.624	16.38
180.844	-38.91
181.064	-22.53
181.283	-8.19
181.503	-24.58
181.723	34.82
181.943	-126.97
182.163	227.32
182.383	30.72
182.602	90.11
182.822	145.41
183.042	28.67
183.262	-6.14
183.482	57.34
183.701	51.2
183.921	28.67
184.141	-36.86
184.361	106.49
184.58	65.54
184.8	0
185.02	30.72
185.239	88.06
185.459	73.73
185.679	100.35
185.898	-69.63
186.118	-18.43
186.338	-2.05
186.557	96.25
186.777	-47.1
186.997	47.1
187.216	10.24
187.436	260.09
187.655	16.38
187.875	108.54
188.095	-43.01
188.314	71.68
188.534	133.12
188.753	8.19
188.973	131.07
189.192	129.02
189.412	-18.43
189.631	96.25
189.851	118.78
190.07	176.13
190.29	-51.2
190.509	8.19
190.729	77.82
190.948	104.45
191.168	182.27
191.387	110.59
191.607	81.92
191.826	88.06
192.045	34.82
192.265	40.96
192.484	77.82
192.704	18.43
192.923	-28.67
193.142	196.61
193.362	71.68
193.581	147.45
193.8	12.29
194.02	83.97
194.239	-4.1
194.458	67.58
194.678	63.49
194.897	-18.43
195.116	110.59
195.335	38.91
195.555	81.92
195.774	20.48
195.993	110.59
196.212	88.06
196.432	-6.14
196.651	30.72
196.87	38.91
197.089	192.51
197.308	51.2
197.528	18.43
197.747	-34.82
197.966	98.3
198.185	145.41
198.404	-8.19
198.623	100.35
198.842	40.96
199.062	129.02
199.281	51.2
199.5	73.73
199.719	129.02
199.938	59.39
200.157	34.82
200.376	145.41
200.595	106.49
200.814	100.35
201.033	-36.86
201.252	161.79
201.471	104.45
201.69	53.25
201.909	67.58
202.128	141.31
202.347	81.92
202.566	57.34
202.785	-55.3
203.004	-116.73
203.223	290.81
203.442	30.72
203.661	-47.1
203.879	114.69
204.098	102.4
204.317	-6.14
204.536	141.31
204.755	86.01
204.974	65.54
205.193	-81.92
205.411	81.92
205.63	139.26
205.849	88.06
206.068	65.54
206.287	40.96
206.505	145.41
206.724	0
206.943	-10.24
207.162	18.43
207.381	112.64
207.599	59.39
207.818	-38.91
208.037	-116.73
208.255	55.3
208.474	14.34
208.693	28.67
208.911	-6.14
209.13	53.25
209.349	38.91
209.567	47.1
209.786	81.92
210.005	110.59
210.223	77.82
210.442	-94.21
210.661	-14.34
210.879	100.35
211.098	43.01
211.316	14.34
211.535	92.16
211.753	57.34
211.972	20.48
212.191	16.38
212.409	32.77
212.628	24.58
212.846	-2.05
213.065	40.96
213.283	102.4
213.502	14.34
213.72	18.43
213.938	28.67
214.157	51.2
214.375	96.25
214.594	43.01
214.812	104.45
215.031	-22.53
215.249	-8.19
215.467	98.3
215.686	73.73
215.904	55.3
216.122	98.3
216.341	163.84
216.559	116.73
216.778	122.88
216.996	163.84
217.214	100.35
217.432	-63.49
217.651	4.1
217.869	104.45
218.087	32.77
218.306	38.91
218.524	34.82
218.742	40.96
218.96	92.16
219.179	67.58
219.397	-45.06
219.615	280.57
219.833	108.54
220.051	-2.05
220.27	131.07
220.488	53.25
220.706	83.97
220.924	-22.53
221.142	-14.34
221.36	114.69
221.578	79.87
221.796	2.05
222.015	34.82
222.233	90.11
222.451	147.45
222.669	-73.73
222.887	75.77
223.105	83.97
223.323	20.48
223.541	12.29
223.759	151.55
223.977	63.49
224.195	184.32
224.413	28.67
224.631	59.39
224.849	-10.24
225.067	204.8
225.285	-47.1
225.503	-4.1
225.721	-131.07
225.939	83.97
226.157	57.34
226.375	182.27
226.592	-20.48
226.81	67.58
227.028	186.37
227.246	94.21
227.464	75.77
227.682	45.06
227.9	57.34
228.117	28.67
228.335	69.63
228.553	6.14
228.771	-6.14
228.989	16.38
229.206	122.88
229.424	77.82
229.642	-2.05
229.86	-65.53
230.077	104.45
230.295	20.48
230.513	57.34
230.731	67.58
230.948	143.36
231.166	120.83
231.384	-45.06
231.601	-69.63
231.819	151.55
232.037	53.25
232.254	4.1
232.472	45.06
232.689	-2.05
232.907	118.78
233.125	26.62
233.342	18.43
233.56	34.82
233.777	-40.96
233.995	-4.1
234.213	81.92
234.43	88.06
234.648	40.96
234.865	-22.53
235.083	65.54
235.3	14.34
235.518	59.39
235.735	161.79
235.953	104.45
236.17	8.19
236.388	34.82
236.605	67.58
236.822	110.59
237.04	157.69
237.257	-2.05
237.475	-69.63
237.692	20.48
237.909	47.1
238.127	-18.43
238.344	36.86
238.562	20.48
238.779	-53.25
238.996	-26.62
239.214	-12.29
239.431	90.11
239.648	20.48
239.865	26.62
240.083	71.68
240.3	26.62
240.517	14.34
240.735	51.2
240.952	151.55
241.169	47.1
241.386	-6.14
241.603	40.96
241.821	-38.91
242.038	124.93
242.255	51.2
242.472	4.1
242.689	57.34
242.907	77.82
243.124	104.45
243.341	57.34
243.558	-47.1
243.775	-55.3
243.992	-18.43
244.209	94.21
244.426	174.08
244.643	57.34
244.86	16.38
245.078	172.03
245.295	10.24
245.512	-2.05
245.729	-34.82
245.946	106.49
246.163	57.34
246.38	-28.67
246.597	57.34
246.814	61.44
247.031	92.16
247.248	-24.58
247.464	86.01
247.681	45.06
247.898	51.2
248.115	34.82
248.332	-24.58
248.549	149.5
248.766	147.45
248.983	53.25
249.2	100.35
249.417	137.21
249.633	28.67
249.85	38.91
250.067	-4.1
250.284	73.73
250.501	110.59
250.717	110.59
250.934	-43.01
251.151	65.54
251.368	24.58
251.585	34.82
251.801	71.68
252.018	-59.39
252.235	161.79
252.451	-124.93
252.668	71.68
252.885	153.6
253.102	43.01
253.318	71.68
253.535	20.48
253.752	-18.43
253.968	53.25
254.185	-32.77
254.401	36.86
254.618	86.01
254.835	20.48
255.051	88.06
255.268	120.83
255.484	2.05
255.701	0
255.917	81.92
256.134	-10.24
256.351	8.19
256.567	-32.77
256.784	12.29
257	-47.1
257.217	83.97
257.433	57.34
257.65	6.14
257.866	108.54
258.082	8.19
258.299	47.1
258.515	61.44
258.732	49.15
258.948	69.63
259.165	45.06
259.381	-38.91
259.597	75.77
259.814	16.38
260.03	61.44
260.246	-6.14
260.463	120.83
260.679	131.07
260.895	49.15
261.112	22.53
261.328	-8.19
261.544	8.19
261.761	102.4
261.977	-2.05
262.193	-100.35
262.409	10.24
262.626	34.82
262.842	-10.24
263.058	-63.49
263.274	139.26
263.49	14.34
263.707	36.86
263.923	57.34
264.139	-43.01
264.355	30.72
264.571	159.74
264.787	51.2
265.004	131.07
265.22	32.77
265.436	-120.83
265.652	-61.44
265.868	28.67
266.084	14.34
266.3	43.01
266.516	-73.73
266.732	102.4
266.948	10.24
267.164	-30.72
267.38	131.07
267.596	65.54
267.812	194.56
268.028	49.15
268.244	26.62
268.46	20.48
268.676	59.39
268.892	-26.62
269.108	-47.1
269.324	-38.91
269.54	-59.39
269.756	98.3
269.972	-98.3
270.188	92.16
270.403	63.49
270.619	-10.24
270.835	-2.05
271.051	30.72
271.267	-16.38
271.483	-12.29
271.698	36.86
271.914	-32.77
272.13	53.25
272.346	10.24
272.562	63.49
272.777	145.41
272.993	4.1
273.209	-18.43
273.425	49.15
273.64	-77.82
273.856	81.92
274.072	-30.72
274.287	49.15
274.503	88.06
274.719	120.83
274.934	-53.25
275.15	-71.68
275.366	81.92
275.581	-40.96
275.797	55.3
276.012	135.17
276.228	-51.2
276.444	30.72
276.659	106.49
276.875	20.48
277.09	24.58
277.306	-26.62
277.521	55.3
277.737	45.06
277.952	36.86
278.168	26.62
278.383	16.38
278.599	98.3
278.814	67.58
279.03	57.34
279.245	153.6
279.461	98.3
279.676	110.59
279.892	-63.49
280.107	-14.34
280.322	53.25
280.538	55.3
280.753	-96.25
280.969	55.3
281.184	53.25
281.399	184.32
281.615	104.45
281.83	83.97
282.045	-59.39
282.26	-16.38
282.476	18.43
282.691	147.45
282.906	40.96
283.122	55.3
283.337	0
283.552	102.4
283.767	-8.19
283.983	79.87
284.198	4.1
284.413	92.16
284.628	-40.96
284.843	40.96
285.058	61.44
285.274	88.06
285.489	-28.67
285.704	57.34
285.919	-40.96
286.134	2.05
286.349	57.34
286.564	-49.15
286.779	116.73
286.995	6.14
287.21	-22.53
287.425	14.34
287.64	10.24
287.855	59.39
288.07	-47.1
288.285	137.21
288.5	135.17
288.715	26.62
288.93	88.06
289.145	-10.24
289.36	90.11
289.575	20.48
289.79	137.21
290.004	14.34
290.219	118.78
290.434	-36.86
290.649	-18.43
290.864	10.24
291.079	51.2
291.294	75.77
291.509	47.1
291.724	86.01
291.938	65.54
292.153	24.58
292.368	-24.58
292.583	-18.43
292.798	75.77
293.012	47.1
293.227	94.21
293.442	16.38
293.657	79.87
293.871	151.55
294.086	129.02
294.301	184.32
294.516	169.98
294.73	92.16
294.945	61.44
295.16	55.3
295.374	94.21
295.589	184.32
295.804	38.91
296.018	83.97
296.233	110.59
296.447	61.44
296.662	40.96
296.877	124.93
297.091	34.82
297.306	28.67
297.52	12.29
297.735	-8.19
297.949	73.73
298.164	114.69
298.378	6.14
298.593	-18.43
298.807	20.48
299.022	28.67
299.236	112.64
299.451	14.34
299.665	-8.19
299.88	-38.91
300.094	14.34
300.309	10.24
300.523	22.53
300.737	38.91
300.952	43.01
301.166	71.68
301.381	-114.69
301.595	-26.62
301.809	26.62
302.024	28.67
302.238	10.24
302.452	139.26
302.667	59.39
302.881	122.88
303.095	77.82
303.309	53.25
303.524	12.29
303.738	-55.3
303.952	-34.82
304.166	40.96
304.381	-204.8
304.595	90.11
304.809	77.82
305.023	40.96
305.237	2.05
305.452	45.06
305.666	83.97
305.88	18.43
306.094	83.97
306.308	145.41
306.522	81.92
306.736	30.72
306.95	110.59
307.164	51.2
307.379	-30.72
307.593	231.42
307.807	100.35
308.021	118.78
308.235	90.11
308.449	-114.69
308.663	57.34
308.877	241.66
309.091	135.17
309.305	131.07
309.519	-49.15
309.733	55.3
309.947	-2.05
310.161	108.54
310.374	75.77
310.588	167.93
310.802	-79.87
311.016	-6.14
311.23	118.78
311.444	2.05
311.658	55.3
311.872	141.31
312.085	169.98
312.299	141.31
312.513	45.06
312.727	81.92
312.941	-28.67
313.154	57.34
313.368	32.77
313.582	18.43
313.796	120.83
314.009	88.06
314.223	169.98
314.437	81.92
314.651	77.82
314.864	-20.48
315.078	28.67
315.292	-38.91
315.505	47.1
315.719	26.62
315.933	81.92
316.146	-75.77
316.36	-45.06
316.573	126.97
316.787	22.53
317.001	34.82
317.214	-28.67
317.428	18.43
317.641	-26.62
317.855	38.91
318.068	61.44
318.282	92.16
318.495	178.17
318.709	94.21
318.922	-16.38
319.136	174.08
319.349	43.01
319.563	4.1
319.776	26.62
319.99	-61.44
320.203	100.35
320.417	88.06
320.63	194.56
320.843	188.41
321.057	47.1
321.27	-63.49
321.483	61.44
321.697	45.06
321.91	-32.77
322.124	63.49
322.337	79.87
322.55	-28.67
322.763	28.67
322.977	0
323.19	40.96
323.403	26.62
323.617	79.87
323.83	116.73
324.043	61.44
324.256	55.3
324.469	-16.38
324.683	96.25
324.896	53.25
325.109	34.82
325.322	-47.1
325.535	88.06
325.748	96.25
325.962	-53.25
326.175	79.87
326.388	100.35
326.601	155.65
326.814	-16.38
327.027	-22.53
327.24	161.79
327.453	-124.93
327.666	104.45
327.879	135.17
328.092	129.02
328.305	75.77
328.518	-10.24
328.731	49.15
328.944	49.15
329.157	69.63
329.37	55.3
329.583	116.73
329.796	94.21
330.009	-16.38
330.222	118.78
330.435	71.68
330.648	90.11
330.861	110.59
331.073	45.06
331.286	102.4
331.499	120.83
331.712	-40.96
331.925	59.39
332.138	118.78
332.35	151.55
332.563	0
332.776	143.36
332.989	-14.34
333.202	-10.24
333.414	77.82
333.627	-28.67
333.84	71.68
334.053	22.53
334.265	-20.48
334.478	12.29
334.691	65.54
334.903	38.91
335.116	-57.34
335.329	40.96
335.541	67.58
335.754	235.52
335.966	10.24
336.179	12.29
336.392	106.49
336.604	36.86
336.817	96.25
337.029	71.68
337.242	38.91
337.454	36.86
337.667	-28.67
337.88	149.5
338.092	34.82
338.305	61.44
338.517	94.21
338.729	16.38
338.942	151.55
339.154	-59.39
339.367	-38.91
339.579	-4.1
339.792	6.14
340.004	94.21
340.217	43.01
340.429	34.82
340.641	18.43
340.854	28.67
341.066	-55.3
341.278	79.87
341.491	122.88
341.703	14.34
341.915	20.48
342.128	135.17
342.34	24.58
342.552	-20.48
342.764	92.16
342.977	24.58
343.189	98.3
343.401	28.67
343.613	32.77
343.826	55.3
344.038	-18.43
344.25	30.72
344.462	8.19
344.674	-2.05
344.886	-2.05
345.099	12.29
345.311	169.98
345.523	36.86
345.735	-10.24
345.947	75.77
346.159	43.01
346.371	126.97
346.583	-16.38
346.795	163.84
347.007	71.68
347.219	43.01
347.431	24.58
347.643	59.39
347.855	26.62
348.067	120.83
348.279	-28.67
348.491	12.29
348.703	61.44
348.915	22.53
349.127	-45.06
349.339	24.58
349.551	2.05
349.763	139.26
349.975	10.24
350.187	104.45
350.399	131.07
350.61	86.01
350.822	2.05
351.034	73.73
351.246	118.78
351.458	86.01
351.669	69.63
351.881	38.91
352.093	118.78
352.305	83.97
352.517	104.45
352.728	102.4
352.94	110.59
353.152	90.11
353.363	10.24
353.575	28.67
353.787	118.78
353.999	131.07
354.21	133.12
354.422	-12.29
354.633	8.19
354.845	59.39
355.057	34.82
355.268	63.49
355.48	135.17
355.692	2.05
355.903	108.54
356.115	-30.72
356.326	-88.06
356.538	210.94
356.749	88.06
356.961	159.74
357.172	38.91
357.384	-38.91
357.595	253.95
357.807	18.43
358.018	47.1
358.23	114.69
358.441	102.4
358.653	110.59
358.864	32.77
359.075	-26.62
359.287	24.58
359.498	104.45
359.709	40.96
359.921	108.54
360.132	110.59
360.344	20.48
360.555	55.3
360.766	34.82
360.977	-53.25
361.189	57.34
361.4	-55.3
361.611	53.25
361.823	155.65
362.034	86.01
362.245	-83.97
362.456	34.82
362.667	57.34
362.879	-61.44
363.09	30.72
363.301	86.01
363.512	16.38
363.723	6.14
363.935	14.34
364.146	118.78
364.357	26.62
364.568	55.3
364.779	-67.58
364.99	102.4
365.201	18.43
365.412	73.73
365.623	-110.59
365.834	96.25
366.045	75.77
366.256	106.49
366.467	112.64
366.678	83.97
366.889	51.2
367.1	92.16
367.311	100.35
367.522	-34.82
367.733	69.63
367.944	96.25
368.155	24.58
368.366	88.06
368.577	51.2
368.788	94.21
368.999	28.67
369.209	6.14
369.42	221.18
369.631	260.09
369.842	79.87
370.053	100.35
370.264	133.12
370.474	2.05
370.685	92.16
370.896	49.15
371.107	169.98
371.317	26.62
371.528	2.05
371.739	161.79
371.95	20.48
372.16	86.01
372.371	-55.3
372.582	22.53
372.792	45.06
373.003	108.54
373.214	102.4
373.424	114.69
373.635	-106.49
373.846	133.12
374.056	-12.29
374.267	55.3
374.477	10.24
374.688	-14.34
374.898	73.73
375.109	96.25
375.319	61.44
375.53	169.98
375.74	12.29
375.951	26.62
376.161	81.92
376.372	126.97
376.582	0
376.793	83.97
377.003	22.53
377.214	2.05
377.424	90.11
377.635	38.91
377.845	-20.48
378.055	96.25
378.266	43.01
378.476	30.72
378.686	6.14
378.897	69.63
379.107	45.06
379.317	77.82
379.528	28.67
379.738	30.72
379.948	-133.12
380.158	137.21
380.369	34.82
380.579	122.88
380.789	-14.34
380.999	106.49
381.21	65.54
381.42	204.8
381.63	-14.34
381.84	92.16
382.05	65.54
382.261	141.31
382.471	172.03
382.681	-12.29
382.891	137.21
383.101	45.06
383.311	-4.1
383.521	-4.1
383.731	114.69
383.941	86.01
384.151	137.21
384.361	71.68
384.571	30.72
384.781	108.54
384.991	194.56
385.201	143.36
385.411	88.06
385.621	69.63
385.831	49.15
386.041	61.44
386.251	71.68
386.461	92.16
386.671	38.91
386.881	12.29
387.091	77.82
387.301	43.01
387.511	122.88
387.72	141.31
387.93	71.68
388.14	-63.49
388.35	73.73
388.56	30.72
388.769	43.01
388.979	14.34
389.189	-28.67
389.399	43.01
389.609	131.07
389.818	90.11
390.028	139.26
390.238	100.35
390.447	53.25
390.657	49.15
390.867	-51.2
391.076	-28.67
391.286	26.62
391.496	30.72
391.705	65.54
391.915	71.68
392.125	88.06
392.334	24.58
392.544	151.55
392.753	73.73
392.963	8.19
393.172	59.39
393.382	-10.24
393.591	200.7
393.801	34.82
394.01	192.51
394.22	114.69
394.429	34.82
394.639	47.1
394.848	79.87
395.058	40.96
395.267	26.62
395.477	104.45
395.686	38.91
395.895	233.47
396.105	251.9
396.314	49.15
396.524	18.43
396.733	53.25
396.942	141.31
397.152	102.4
397.361	186.37
397.57	79.87
397.78	55.3
397.989	118.78
398.198	169.98
398.407	-10.24
398.617	36.86
398.826	104.45
399.035	59.39
399.244	124.93
399.453	55.3
399.663	43.01
399.872	73.73
400.081	-20.48
400.29	47.1
400.499	0
400.708	169.98
400.917	16.38
401.127	67.58
401.336	16.38
401.545	194.56
401.754	208.89
401.963	92.16
402.172	47.1
402.381	-69.63
402.59	-28.67
402.799	79.87
403.008	139.26
403.217	81.92
403.426	51.2
403.635	-28.67
403.844	139.26
404.053	106.49
404.262	-16.38
404.471	155.65
404.68	108.54
404.888	71.68
405.097	-2.05
405.306	32.77
405.515	190.46
405.724	67.58
405.933	133.12
406.142	49.15
406.35	43.01
406.559	43.01
406.768	75.77
406.977	137.21
407.185	114.69
407.394	34.82
407.603	-2.05
407.812	57.34
408.02	118.78
408.229	88.06
408.438	69.63
408.646	-20.48
408.855	137.21
409.064	65.54
409.272	18.43
409.481	163.84
409.69	98.3
409.898	-10.24
410.107	65.54
410.315	79.87
410.524	38.91
410.733	86.01
410.941	43.01
411.15	90.11
411.358	106.49
411.567	167.93
411.775	22.53
411.984	90.11
412.192	88.06
412.401	-22.53
412.609	169.98
412.818	143.36
413.026	73.73
413.234	-4.1
413.443	38.91
413.651	43.01
413.86	51.2
414.068	161.79
414.276	145.41
414.485	16.38
414.693	178.17
414.901	178.17
415.11	133.12
415.318	61.44
415.526	112.64
415.734	88.06
415.943	22.53
416.151	184.32
416.359	43.01
416.567	102.4
416.776	182.27
416.984	120.83
417.192	75.77
417.4	8.19
417.608	43.01
417.817	2.05
418.025	61.44
418.233	194.56
418.441	-22.53
418.649	-4.1
418.857	75.77
419.065	112.64
419.273	-8.19
419.481	43.01
419.689	51.2
419.897	0
420.105	-36.86
420.313	122.88
420.521	180.22
420.729	149.5
420.937	-36.86
421.145	-30.72
421.353	149.5
421.561	135.17
421.769	100.35
421.977	-12.29
422.185	106.49
422.393	81.92
422.601	112.64
422.809	79.87
423.017	71.68
423.224	61.44
423.432	176.13
423.64	20.48
423.848	182.27
424.056	2.05
424.263	145.41
424.471	-8.19
424.679	174.08
424.887	20.48
425.094	147.45
425.302	63.49
425.51	14.34
425.718	129.02
425.925	116.73
426.133	14.34
426.341	184.32
426.548	110.59
426.756	69.63
426.964	124.93
427.171	-30.72
427.379	-10.24
427.586	88.06
427.794	155.65
428.001	116.73
428.209	57.34
428.417	192.51
428.624	139.26
428.832	124.93
429.039	135.17
429.247	75.77
429.454	165.89
429.662	182.27
429.869	190.46
430.076	61.44
430.284	219.13
430.491	256
430.699	227.32
430.906	231.42
431.114	163.84
431.321	206.84
431.528	153.6
431.736	212.99
431.943	149.5
432.15	231.42
432.358	233.47
432.565	303.1
432.772	-16.38
432.979	174.08
433.187	180.22
433.394	278.52
433.601	184.32
433.808	245.76
434.016	292.86
434.223	301.05
434.43	161.79
434.637	256
434.844	200.7
435.052	120.83
435.259	290.81
435.466	321.53
435.673	358.39
435.88	321.53
436.087	299
436.294	419.83
436.501	417.79
436.708	202.75
436.915	329.72
437.122	464.89
437.329	253.95
437.537	432.12
437.743	327.68
437.95	419.83
438.157	366.59
438.364	348.15
438.571	481.27
438.778	389.11
438.985	479.22
439.192	483.32
439.399	413.69
439.606	434.17
439.813	538.62
440.02	608.25
440.227	671.73
440.433	555
440.64	581.62
440.847	528.38
441.054	569.34
441.261	811
441.467	712.69
441.674	624.63
441.881	755.7
442.088	626.68
442.294	851.96
442.501	839.67
442.708	835.57
442.914	782.32
443.121	884.72
443.328	886.77
443.534	1028.08
443.741	868.34
443.948	821.24
444.154	952.31
444.361	1282.03
444.568	1095.66
444.774	1095.66
444.981	1007.6
445.187	1216.49
445.394	1304.56
445.6	1204.21
445.807	1449.96
446.013	1482.73
446.22	1255.4
446.426	1421.29
446.633	1685.48
446.839	1691.62
447.046	1568.74
447.252	1665
447.459	1695.72
447.665	1779.68
447.871	1914.85
448.078	2052.06
448.284	2058.21
448.491	2082.78
448.697	2297.82
448.903	2310.11
449.11	2418.65
449.316	2289.63
449.522	2590.68
449.728	2578.39
449.935	2731.99
450.141	2703.32
450.347	2846.68
450.553	2871.25
450.76	2893.78
450.966	3102.67
451.172	3184.59
451.378	3174.35
451.584	3442.64
451.791	3594.19
451.997	3729.35
452.203	3622.86
452.409	3889.09
452.615	4112.32
452.821	4159.42
453.027	4069.31
453.233	4650.94
453.44	4521.91
453.646	4728.76
453.852	4765.62
454.058	5074.87
454.264	5388.21
454.47	5599.15
454.676	5613.48
454.882	6074.28
455.088	5877.67
455.294	6256.54
455.5	6606.75
455.705	7006.1
455.911	7083.92
456.117	7116.69
456.323	7509.9
456.529	7413.65
456.735	8050.57
456.941	8314.75
457.147	8787.83
457.352	8955.77
457.558	9207.67
457.764	9611.12
457.97	10237.8
458.176	10332
458.381	10757.98
458.587	10938.2
458.793	11657.04
458.999	11562.83
459.204	13160.25
459.41	13410.1
459.616	13248.31
459.821	14079.79
460.027	14710.56
460.233	15429.4
460.438	15415.06
460.644	16326.41
460.85	16662.27
461.055	17211.13
461.261	17821.42
461.466	17266.42
461.672	17829.62
461.878	20123.34
462.083	19996.37
462.289	20231.88
462.494	21024.45
462.7	21112.51
462.905	21317.31
463.111	23172.77
463.316	24331.92
463.522	24673.93
463.727	25646.71
463.932	26439.28
464.138	27242.08
464.343	28466.77
464.549	28384.85
464.754	30998.06
464.959	31194.66
465.165	32067.09
465.37	31655.45
465.575	31858.2
465.781	34078.2
465.986	34860.52
466.191	34336.24
466.397	34418.16
466.602	34027
466.807	35868.12
467.012	36308.44
467.218	36871.63
467.423	36722.13
467.628	38227.38
467.833	39880.1
468.038	38995.37
468.244	38356.41
468.449	40320.41
468.654	39968.16
468.859	39386.53
469.064	39816.61
469.269	38778.29
469.474	38907.31
469.679	39912.86
469.885	38993.32
470.09	39382.44
470.295	39169.45
470.5	38522.29
470.705	38899.12
470.91	37907.9
471.115	36928.97
471.32	37526.98
471.525	37719.49
471.73	36414.93
471.935	36310.49
472.139	34676.21
472.344	35028.46
472.549	34907.63
472.754	33805.82
472.959	33316.36
473.164	32022.04
473.369	32019.99
473.574	32728.59
473.778	31747.61
473.983	31338.02
474.188	30918.18
474.393	29064.77
474.598	29150.79
474.802	28485.2
475.007	27936.34
475.212	27563.61
475.417	26744.42
475.621	26156.66
475.826	25939.57
476.031	25650.81
476.235	25015.94
476.44	24934.02
476.645	24227.47
476.849	24106.64
477.054	23477.91
477.259	23043.74
477.463	22877.86
477.668	22957.73
477.872	22449.83
478.077	21733.04
478.282	21149.37
478.486	20762.31
478.691	21073.6
478.895	20651.72
479.1	20528.84
479.304	20293.32
479.509	19400.41
479.713	19947.22
479.918	19416.79
480.122	19037.92
480.326	19230.43
480.531	19154.65
480.735	19150.56
480.94	18454.25
481.144	19293.91
481.348	18138.86
481.553	18523.88
481.757	18071.28
481.961	18108.14
482.166	18097.9
482.37	17622.77
482.574	17458.93
482.778	17460.98
482.983	17815.28
483.187	17229.56
483.391	17219.32
483.595	16819.97
483.8	16760.58
484.004	16871.17
484.208	16807.68
484.412	16240.39
484.616	16393.99
484.821	16213.77
485.025	15695.63
485.229	15855.37
485.433	15499.03
485.637	15202.07
485.841	15032.09
486.045	14710.56
486.249	14645.02
486.453	14479.14
486.657	14206.76
486.861	14165.8
487.065	13532.98
487.269	13842.22
487.473	13274.93
487.677	13385.52
487.881	13360.95
488.085	12758.85
488.289	12519.23
488.493	12259.14
488.697	12310.34
488.901	12113.74
489.105	11710.29
489.309	11710.29
489.512	11186.01
489.716	11091.8
489.92	10995.54
490.124	10946.39
490.328	10788.7
490.531	10471.26
490.735	10497.89
490.939	10135.4
491.143	9889.64
491.346	9645.93
491.55	9867.11
491.754	9373.55
491.958	9529.2
492.161	9013.11
492.365	9133.94
492.569	8714.11
492.772	8722.3
492.976	8687.48
493.18	8435.58
493.383	8392.58
493.587	8357.76
493.79	8433.54
493.994	8183.68
494.197	8089.48
494.401	8009.61
494.605	7780.23
494.808	7911.3
495.012	7747.47
495.215	7735.18
495.419	7868.3
495.622	7497.61
495.825	7681.93
496.029	7557
496.232	7536.53
496.436	7448.46
496.639	7772.04
496.843	7403.41
497.046	7255.95
497.249	7706.51
497.453	7524.24
497.656	7323.54
497.859	7528.33
498.063	7319.44
498.266	7409.55
498.469	7356.3
498.673	7243.67
498.876	7595.92
499.079	7423.89
499.282	7608.2
499.485	7888.78
499.689	7581.58
499.892	7767.95
500.095	7620.49
500.298	7987.08
500.501	7839.62
500.705	7987.08
500.908	8066.95
501.111	8030.09
501.314	8089.48
501.517	8243.07
501.72	8390.53
501.923	8198.02
502.126	8449.92
502.329	8785.79
502.532	8767.35
502.735	8646.52
502.938	8984.44
503.141	8959.86
503.344	9064.31
503.547	9234.29
503.75	9297.78
503.953	9365.36
504.156	9531.25
504.359	9549.68
504.562	9824.11
504.765	10004.33
504.968	10157.92
505.17	10409.83
505.373	10297.19
505.576	10733.4
505.779	10796.89
505.982	10927.96
506.185	11278.16
506.387	11337.56
506.59	11390.8
506.793	11767.63
506.996	12074.82
507.198	12291.91
507.401	12414.79
507.604	12642.11
507.807	12939.07
508.009	13260.6
508.212	13573.94
508.415	13549.36
508.617	13862.7
508.82	13903.66
509.022	14059.31
509.225	14898.97
509.428	15144.73
509.63	15466.26
509.833	15310.61
510.035	16191.24
510.238	16414.47
510.44	16758.53
510.643	17184.51
510.845	17618.68
511.048	17698.55
511.25	18116.33
511.453	18527.97
511.655	19363.54
511.858	19459.8
512.06	19910.35
512.262	20137.68
512.465	20573.89
512.667	21073.6
512.87	21683.89
513.072	21862.07
513.274	22595.24
513.477	23221.92
513.679	23383.71
513.881	23787.16
514.084	24469.13
514.286	25140.86
514.488	25595.51
514.69	26590.83
514.893	26973.8
515.095	27229.79
515.297	27659.87
515.499	28317.26
515.701	29128.26
515.904	29734.46
516.106	30570.03
516.308	30971.43
516.51	31553.05
516.712	31841.82
516.914	32658.96
517.116	33646.08
517.318	33738.24
517.52	34307.57
517.722	34991.59
517.925	35458.53
518.127	36490.71
518.329	37326.28
518.531	37604.8
518.733	38256.06
518.935	38555.06
519.136	39380.39
519.338	40048.03
519.54	40535.45
519.742	41182.6
519.944	41381.26
520.146	42425.72
520.348	43173.23
520.55	43230.57
520.752	43871.59
520.954	44827.99
521.155	44574.04
521.357	45604.17
521.559	46017.86
521.761	46632.25
521.963	46687.54
522.164	47125.81
522.366	47582.51
522.568	48323.87
522.77	48246.05
522.971	48981.27
523.173	48885.01
523.375	49517.84
523.576	49184.02
523.778	49573.13
523.98	50167.04
524.181	50588.92
524.383	49980.68
524.584	51074.29
524.786	50464
524.988	50455.81
525.189	50975.99
525.391	50851.06
525.592	51031.29
525.794	50900.22
525.995	50736.38
526.197	50554.11
526.398	50910.46
526.6	50568.44
526.801	50724.09
527.003	50533.63
527.204	50009.35
527.406	50105.6
527.607	50050.31
527.808	50070.79
528.01	49188.11
528.211	48706.84
528.412	49415.44
528.614	48897.3
528.815	48516.38
529.016	48438.56
529.218	47385.9
529.419	46982.45
529.62	46992.69
529.822	45874.5
530.023	45851.97
530.224	45546.82
530.425	44911.95
530.626	44545.37
530.828	43830.63
531.029	44408.15
531.23	43074.93
531.431	42505.59
531.632	42259.84
531.833	42116.48
532.035	41438.6
532.236	40924.56
532.437	40301.98
532.638	39693.73
532.839	39460.26
533.04	39179.69
533.241	38118.84
533.442	38137.27
533.643	37377.48
533.844	36916.68
534.045	36257.24
534.246	35503.59
534.447	35487.2
534.648	35120.62
534.849	34692.59
535.05	33658.37
535.251	33246.72
535.451	32910.86
535.652	32589.33
535.853	32310.8
536.054	32083.48
536.255	31252
536.456	30516.78
536.657	30858.79
536.857	29859.38
537.058	29818.42
537.259	29699.64
537.46	29216.32
537.66	28255.82
537.861	28255.82
538.062	27946.58
538.263	27307.62
538.463	26775.14
538.664	26490.48
538.865	26175.09
539.065	26068.59
539.266	25624.18
539.466	25460.35
539.667	25050.75
539.868	24995.46
540.068	24317.58
540.269	24303.25
540.469	24067.73
540.67	23510.68
540.87	23101.09
541.071	22978.21
541.271	23041.7
541.472	22562.47
541.672	22386.35
541.873	21733.04
542.073	21622.45
542.274	21509.82
542.474	20971.2
542.675	21212.86
542.875	20852.42
543.075	20813.51
543.276	20104.91
543.476	20205.26
543.676	19658.45
543.877	19773.14
544.077	19578.58
544.277	19136.22
544.478	18986.72
544.678	18951.9
544.878	18863.84
545.078	18452.2
545.279	18067.18
545.479	17755.89
545.679	17723.12
545.879	17557.24
546.079	17460.98
546.28	17092.35
546.48	16602.88
546.68	16805.63
546.88	16480
547.08	16297.74
547.28	16209.67
547.48	15836.94
547.68	15976.2
547.88	15574.8
548.081	15484.69
548.281	15009.56
548.481	14898.97
548.681	14718.75
548.881	14518.05
549.081	14288.68
549.28	14102.31
549.48	13983.53
549.68	13834.03
549.88	13938.48
550.08	13336.37
550.28	13328.18
550.48	13133.62
550.68	12879.68
550.88	12816.19
551.08	12363.59
551.279	12261.19
551.479	12109.64
551.679	12166.98
551.879	11609.93
552.079	11614.03
552.278	11470.67
552.478	11214.68
552.678	11190.1
552.878	10934.11
553.077	10757.98
553.277	10524.51
553.477	10581.85
553.676	10506.08
553.876	10086.25
554.076	9815.91
554.275	9834.35
554.475	9705.32
554.674	9684.84
554.874	9105.27
555.074	8963.96
555.273	9121.65
555.473	9047.93
555.672	8873.85
555.872	8507.26
556.071	8478.59
556.271	8615.8
556.47	8288.13
556.67	7931.78
556.869	8030.09
557.068	7753.61
557.268	7690.12
557.467	7470.99
557.667	7583.63
557.866	7415.69
558.065	7266.19
558.265	7108.5
558.464	6862.74
558.663	7030.68
558.863	6727.58
559.062	6868.89
559.261	6705.05
559.461	6711.19
559.66	6256.54
559.859	6145.95
560.058	6107.04
560.258	6045.6
560.457	5986.21
560.656	6115.23
560.855	5599.15
561.054	5795.75
561.253	5533.61
561.453	5576.62
561.652	5535.66
561.851	5314.48
562.05	5197.74
562.249	5171.12
562.448	4997.04
562.647	5013.43
562.846	4913.08
563.045	4870.07
563.244	4808.63
563.443	4863.93
563.642	4597.69
563.841	4560.83
564.04	4501.44
564.239	4407.23
564.438	4259.77
564.637	4292.54
564.836	4173.76
565.035	4229.06
565.234	4229.06
565.432	4061.12
565.631	4100.03
565.83	4016.07
566.029	3858.37
566.228	3796.93
566.427	3907.52
566.625	3753.93
566.824	3696.58
567.023	3598.28
567.222	3426.25
567.42	3626.95
567.619	3542.99
567.818	3606.47
568.016	3399.63
568.215	3266.51
568.414	3274.7
568.612	3342.28
568.811	3160.02
569.01	3164.11
569.208	3155.92
569.407	3198.93
569.605	3172.3
569.804	3071.95
570.002	3080.15
570.201	2971.6
570.4	2893.78
570.598	2703.32
570.797	2799.57
570.995	2613.21
571.193	2639.83
571.392	2705.37
571.59	2478.04
571.789	2772.95
571.987	2652.12
572.186	2537.43
572.384	2406.36
572.582	2418.65
572.781	2404.32
572.979	2355.16
573.177	2299.87
573.376	2267.1
573.574	2314.2
573.772	2129.89
573.971	2109.41
574.169	2072.54
574.367	2166.75
574.565	2131.94
574.763	1980.39
574.962	2050.02
575.16	2000.87
575.358	1996.77
575.556	1880.04
575.754	1898.47
575.952	1892.32
576.151	1863.65
576.349	1914.85
576.547	1697.77
576.745	1748.97
576.943	1755.11
577.141	1685.48
577.339	1646.57
577.537	1652.71
577.735	1765.35
577.933	1685.48
578.131	1621.99
578.329	1650.66
578.527	1474.54
578.725	1578.98
578.923	1312.75
579.121	1564.65
579.319	1251.31
579.516	1267.69
579.714	1632.23
579.912	1347.56
580.11	1222.64
580.308	1363.95
580.506	1202.16
580.704	1181.68
580.901	1224.69
581.099	1277.93
581.297	1267.69
581.495	1202.16
581.692	1175.53
581.89	1300.46
582.088	1191.92
582.285	1175.53
582.483	1040.37
582.681	1081.33
582.878	1116.14
583.076	1069.04
583.274	1163.25
583.471	1187.82
583.669	1075.18
583.866	980.98
584.064	933.87
584.262	956.4
584.459	976.88
584.657	1003.5
584.854	1040.37
585.052	997.36
585.249	964.59
585.447	948.21
585.644	786.42
585.841	892.91
586.039	972.79
586.236	995.31
586.434	835.57
586.631	841.72
586.828	827.38
587.026	815.09
587.223	739.32
587.42	724.98
587.618	831.48
587.815	929.78
588.012	761.84
588.21	665.59
588.407	733.17
588.604	854
588.801	694.26
588.999	720.89
589.196	847.86
589.393	690.17
589.59	729.08
589.787	720.89
589.984	737.27
590.182	751.6
590.379	587.77
590.576	667.64
590.773	714.74
590.97	620.53
591.167	731.12
591.364	690.17
591.561	681.97
591.758	821.24
591.955	690.17
592.152	681.97
592.349	643.06
592.546	602.1
592.743	665.59
592.94	602.1
593.137	559.1
593.334	636.92
593.531	708.6
593.727	739.32
593.924	606.2
594.121	612.34
594.318	684.02
594.515	720.89
594.712	841.72
594.908	761.84
595.105	616.44
595.302	757.75
595.499	774.13
595.696	839.67
595.892	628.73
596.089	802.8
596.286	763.89
596.482	909.3
596.679	866.29
596.876	739.32
597.072	860.15
597.269	839.67
597.466	964.59
597.662	800.76
597.859	882.67
598.055	821.24
598.252	1044.46
598.448	1056.75
598.645	1034.22
598.841	1161.2
599.038	1349.61
599.234	1294.32
599.431	1222.64
599.627	1228.78
599.824	1382.38
600.02	1431.53
600.217	1376.24
600.413	1460.2
600.609	1490.92
600.806	1794.02
601.002	1595.37
601.198	1636.33
601.395	1734.63
601.591	1779.68
601.787	1812.45
601.984	2017.25
602.18	1978.34
602.376	2068.45
602.572	2246.62
602.769	2289.63
602.965	2314.2
603.161	2480.09
603.357	2539.48
603.553	2590.68
603.75	2557.91
603.946	2809.81
604.142	2842.58
604.338	3053.52
604.534	2914.26
604.73	3209.17
604.926	3225.55
605.122	3442.64
605.318	3342.28
605.514	3518.41
605.71	3596.23
605.906	3768.26
606.102	3903.43
606.298	3975.11
606.494	4134.85
606.69	4239.3
606.886	4177.86
607.082	4218.82
607.278	4450.24
607.474	4677.56
607.67	4861.88
607.866	4677.56
608.062	5148.59
608.257	5199.79
608.453	5353.39
608.649	5384.11
608.845	5506.99
609.041	5654.44
609.236	5879.72
609.432	6272.93
609.628	6311.84
609.824	6322.08
610.019	6600.6
610.215	6842.26
610.411	7036.82
610.606	7255.95
610.802	7309.2
610.998	7542.67
611.193	7622.54
611.389	7774.09
611.584	8021.89
611.78	8023.94
611.976	8548.22
612.171	8791.93
612.367	9054.07
612.562	9064.31
612.758	9267.06
612.953	9500.53
613.149	9944.94
613.344	10227.56
613.539	10413.92
613.735	10432.35
613.93	11065.18
614.126	11163.48
614.321	11616.08
614.517	11978.57
614.712	12209.99
614.907	12525.38
615.103	12773.18
615.298	12857.15
615.493	13418.29
615.688	13567.79
615.884	14427.94
616.079	14284.58
616.274	14896.92
616.47	14858.01
616.665	15619.86
616.86	15847.18
617.055	16346.89
617.25	16459.52
617.445	16924.41
617.641	17538.8
617.836	18061.04
618.031	18312.94
618.226	18853.6
618.421	19033.82
618.616	19621.59
618.811	19910.35
619.006	20704.96
619.201	20612.81
619.396	21520.06
619.591	21577.4
619.786	22511.27
619.981	22609.57
620.176	23142.05
620.371	23709.33
620.566	24178.32
620.761	24706.69
620.956	25302.65
621.151	25556.6
621.346	26488.43
621.541	26087.03
621.735	27625.05
621.93	27393.63
622.125	27967.06
622.32	28444.24
622.515	29113.92
622.709	29550.14
622.904	30256.69
623.099	30643.76
623.294	31227.43
623.488	31518.24
623.683	32415.25
623.878	32183.83
624.072	33314.31
624.267	33695.23
624.462	34196.98
624.656	34565.62
624.851	35255.78
625.046	35333.6
625.24	36079.07
625.435	36476.37
625.629	36812.24
625.824	37156.3
626.018	38016.44
626.213	37576.13
626.407	38763.95
626.602	38290.87
626.796	39112.11
626.991	39626.15
627.185	40035.74
627.38	39624.1
627.574	39935.39
627.768	40359.32
627.963	40334.74
628.157	40404.38
628.352	41100.68
628.546	40048.03
628.74	40721.81
628.935	40422.81
629.129	40314.26
629.323	39955.87
629.517	39650.72
629.712	39038.38
629.906	39452.07
630.1	38401.46
630.294	38344.12
630.489	37674.43
630.683	37668.29
630.877	36099.55
631.071	35796.45
631.265	35292.65
631.459	34405.88
631.653	33246.72
631.848	32730.64
632.042	31663.64
632.236	31288.87
632.43	30281.27
632.624	29857.34
632.818	28458.57
633.012	27164.26
633.206	26779.24
633.4	26107.51
633.594	24864.39
633.788	23981.71
633.982	23193.25
634.176	22521.51
634.369	21337.79
634.563	20807.36
634.757	19726.03
634.951	19166.94
635.145	18388.71
635.339	17540.85
635.533	16899.84
635.726	16588.55
635.92	15359.77
636.114	14835.49
636.308	14194.47
636.501	13655.86
636.695	13530.93
636.889	12492.61
637.083	12035.91
637.276	11648.85
637.47	10975.06
637.664	10684.25
637.857	10194.79
638.051	9754.48
638.244	9510.77
638.438	9125.75
638.632	8810.36
638.825	8314.75
639.019	8165.25
639.212	7733.13
639.406	7362.45
639.599	6936.47
639.793	6606.75
639.986	6629.27
640.18	6404
640.373	6109.09
640.567	5662.63
640.76	5715.88
640.954	5496.75
641.147	5119.92
641.34	4935.6
641.534	4712.38
641.727	4788.15
641.92	4427.71
642.114	4313.02
642.307	4040.64
642.5	3956.68
642.694	3809.22
642.887	3782.6
643.08	3604.43
643.273	3391.44
643.467	3117.01
643.66	3016.66
643.853	3069.91
644.046	2912.21
644.239	2668.5
644.432	2635.74
644.626	2496.47
644.819	2574.3
645.012	2383.84
645.205	2250.72
645.398	2291.68
645.591	2185.18
645.784	2009.06
645.977	1988.58
646.17	1814.5
646.363	1802.21
646.556	1621.99
646.749	1660.9
646.942	1701.86
647.135	1531.88
647.328	1409
647.521	1437.67
647.714	1314.8
647.907	1325.04
648.099	1165.29
648.292	1355.76
648.485	1316.84
648.678	1144.81
648.871	1153.01
649.064	1062.9
649.256	1042.42
649.449	950.26
649.642	882.67
649.835	952.31
650.027	849.91
650.22	962.55
650.413	823.28
650.605	829.43
650.798	745.46
650.991	843.76
651.183	772.08
651.376	829.43
651.568	716.79
651.761	663.54
651.954	659.45
652.146	602.1
652.339	675.83
652.531	690.17
652.724	452.6
652.916	473.08
653.109	387.07
653.301	614.39
653.494	591.86
653.686	489.46
653.879	514.04
654.071	481.27
654.263	387.07
654.456	393.21
654.648	495.61
654.84	452.6
655.033	385.02
655.225	471.03
655.417	251.9
655.61	481.27
655.802	425.98
655.994	425.98
656.186	260.09
656.379	485.37
656.571	247.8
656.763	264.19
656.955	274.43
657.148	266.24
657.34	362.49
657.532	280.57
657.724	192.51
657.916	335.87
658.108	389.11
658.3	268.28
658.492	350.2
658.684	223.23
658.876	333.82
659.068	208.89
659.26	188.41
659.452	284.67
659.644	208.89
659.836	378.87
660.028	258.04
660.22	98.3
660.412	196.61
660.604	221.18
660.796	194.56
660.988	217.08
661.18	192.51
661.372	186.37
661.563	192.51
661.755	270.33
661.947	102.4
662.139	83.97
662.331	153.6
662.522	194.56
662.714	198.65
662.906	79.87
663.097	188.41
663.289	43.01
663.481	77.82
663.673	165.89
663.864	133.12
664.056	184.32
664.247	118.78
664.439	169.98
664.631	196.61
664.822	198.65
665.014	139.26
665.205	102.4
665.397	172.03
665.588	208.89
665.78	163.84
665.971	174.08
666.163	129.02
666.354	86.01
666.546	106.49
666.737	184.32
666.929	79.87
667.12	159.74
667.311	262.14
667.503	153.6
667.694	131.07
667.885	141.31
668.077	149.5
668.268	-51.2
668.459	157.69
668.651	196.61
668.842	83.97
669.033	110.59
669.224	53.25
669.416	299
669.607	114.69
669.798	92.16
669.989	178.17
670.18	110.59
670.371	143.36
670.563	92.16
670.754	215.04
670.945	145.41
671.136	122.88
671.327	12.29
671.518	206.84
671.709	229.37
671.9	133.12
672.091	194.56
672.282	133.12
672.473	116.73
672.664	55.3
672.855	96.25
673.046	38.91
673.237	161.79
673.428	110.59
673.619	225.28
673.809	61.44
674	157.69
674.191	200.7
674.382	155.65
674.573	92.16
674.764	38.91
674.954	247.8
675.145	32.77
675.336	137.21
675.527	90.11
675.717	43.01
675.908	65.54
676.099	135.17
676.289	155.65
676.48	-40.96
676.671	129.02
676.861	90.11
677.052	176.13
677.243	98.3
677.433	108.54
677.624	215.04
677.814	182.27
678.005	120.83
678.195	262.14
678.386	81.92
678.576	112.64
678.767	10.24
678.957	153.6
679.148	208.89
679.338	178.17
679.529	200.7
679.719	96.25
679.909	178.17
680.1	124.93
680.29	210.94
680.481	43.01
680.671	172.03
680.861	200.7
681.052	184.32
681.242	94.21
681.432	217.08
681.622	112.64
681.813	104.45
682.003	100.35
682.193	0
682.383	169.98
682.573	69.63
682.764	43.01
682.954	149.5
683.144	221.18
683.334	165.89
683.524	116.73
683.714	219.13
683.904	159.74
684.094	116.73
684.284	143.36
684.474	268.28
684.664	102.4
684.854	266.24
685.044	169.98
685.234	129.02
685.424	157.69
685.614	106.49
685.804	229.37
685.994	223.23
686.184	120.83
686.374	104.45
686.564	229.37
686.753	65.54
686.943	129.02
687.133	110.59
687.323	133.12
687.513	192.51
687.702	86.01
687.892	153.6
688.082	206.84
688.272	286.72
688.461	153.6
688.651	358.39
688.841	131.07
689.03	129.02
689.22	225.28
689.41	184.32
689.599	137.21
689.789	65.54
689.979	194.56
690.168	104.45
690.358	194.56
690.547	106.49
690.737	208.89
690.926	159.74
691.116	129.02
691.305	145.41
691.495	149.5
691.684	94.21
691.874	122.88
692.063	210.94
692.252	290.81
692.442	251.9
692.631	55.3
692.82	227.32
693.01	163.84
693.199	90.11
693.388	135.17
693.578	198.65
693.767	151.55
693.956	227.32
694.146	122.88
694.335	106.49
694.524	169.98
694.713	129.02
694.902	124.93
695.092	126.97
695.281	194.56
695.47	133.12
695.659	141.31
695.848	124.93
696.037	147.45
696.226	192.51
696.415	143.36
696.604	206.84
696.793	143.36
696.982	83.97
697.171	243.71
697.36	100.35
697.549	81.92
697.738	22.53
697.927	96.25
698.116	143.36
698.305	176.13
698.494	100.35
698.683	129.02
698.872	329.72
699.061	192.51
699.25	129.02
699.438	176.13
699.627	63.49
699.816	258.04
700.005	59.39
700.193	161.79
700.382	258.04
700.571	192.51
700.76	143.36
700.948	182.27
701.137	210.94
701.326	161.79
701.514	77.82
701.703	110.59
701.892	172.03
702.08	348.15
702.269	178.17
702.457	77.82
702.646	147.45
702.834	196.61
703.023	157.69
703.212	188.41
703.4	129.02
703.589	110.59
703.777	86.01
703.965	108.54
704.154	96.25
704.342	16.38
704.531	38.91
704.719	141.31
704.907	282.62
705.096	192.51
705.284	174.08
705.472	159.74
705.661	204.8
705.849	225.28
706.037	208.89
706.226	188.41
706.414	256
706.602	129.02
706.79	229.37
706.979	143.36
707.167	186.37
707.355	32.77
707.543	198.65
707.731	77.82
707.919	67.58
708.107	133.12
708.296	92.16
708.484	81.92
708.672	131.07
708.86	186.37
709.048	178.17
709.236	75.77
709.424	241.66
709.612	202.75
709.8	-2.05
709.988	172.03
710.176	118.78
710.364	217.08
710.551	221.18
710.739	90.11
710.927	129.02
711.115	149.5
711.303	169.98
711.491	198.65
711.679	126.97
711.866	278.52
712.054	143.36
712.242	180.22
712.43	188.41
712.617	110.59
712.805	141.31
712.993	126.97
713.181	129.02
713.368	190.46
713.556	135.17
713.744	77.82
713.931	323.58
714.119	217.08
714.306	188.41
714.494	100.35
714.682	161.79
714.869	102.4
715.057	137.21
715.244	-26.62
715.432	272.38
715.619	143.36
715.807	69.63
715.994	219.13
716.182	122.88
716.369	268.28
716.556	202.75
716.744	10.24
716.931	122.88
717.119	202.75
717.306	145.41
717.493	149.5
717.681	102.4
717.868	163.84
718.055	167.93
718.242	188.41
718.43	161.79
718.617	229.37
718.804	163.84
718.991	229.37
719.179	182.27
719.366	161.79
719.553	137.21
719.74	188.41
719.927	118.78
720.114	241.66
720.301	34.82
720.488	178.17
720.676	129.02
720.863	256
721.05	315.39
721.237	251.9
721.424	251.9
721.611	161.79
721.798	98.3
721.985	118.78
722.172	143.36
722.358	206.84
722.545	256
722.732	176.13
722.919	231.42
723.106	210.94
723.293	141.31
723.48	159.74
723.667	69.63
723.853	294.91
724.04	231.42
724.227	327.68
724.414	153.6
724.6	284.67
724.787	296.96
724.974	327.68
725.161	161.79
725.347	112.64
725.534	178.17
725.72	200.7
725.907	329.72
726.094	198.65
726.28	131.07
726.467	186.37
726.653	100.35
726.84	311.29
727.027	282.62
727.213	212.99
727.4	286.72
727.586	159.74
727.773	235.52
727.959	221.18
728.145	239.61
728.332	180.22
728.518	182.27
728.705	210.94
728.891	159.74
729.077	188.41
729.264	157.69
729.45	116.73
729.636	194.56
729.823	229.37
730.009	268.28
730.195	206.84
730.382	268.28
730.568	139.26
730.754	260.09
730.94	151.55
731.126	333.82
731.313	260.09
731.499	165.89
731.685	262.14
731.871	229.37
732.057	110.59
732.243	327.68
732.429	176.13
732.615	284.67
732.801	268.28
732.987	165.89
733.173	233.47
733.359	176.13
733.545	235.52
733.731	245.76
733.917	329.72
734.103	186.37
734.289	260.09
734.475	90.11
734.661	425.98
734.847	180.22
735.033	206.84
735.219	280.57
735.404	169.98
735.59	110.59
735.776	176.13
735.962	186.37
736.148	223.23
736.333	317.44
736.519	163.84
736.705	149.5
736.89	258.04
737.076	196.61
737.262	178.17
737.447	92.16
737.633	145.41
737.819	337.91
738.004	237.56
738.19	288.76
738.375	274.43
738.561	262.14
738.747	231.42
738.932	143.36
739.118	329.72
739.303	282.62
739.489	204.8
739.674	237.56
739.859	153.6
740.045	256
740.23	303.1
740.416	22.53
740.601	147.45
740.786	198.65
740.972	184.32
741.157	178.17
741.342	192.51
741.528	165.89
741.713	221.18
741.898	196.61
742.084	102.4
742.269	194.56
742.454	292.86
742.639	251.9
742.824	190.46
743.01	256
743.195	296.96
743.38	237.56
743.565	202.75
743.75	258.04
743.935	227.32
744.12	284.67
744.305	67.58
744.49	204.8
744.675	239.61
744.86	151.55
745.045	231.42
745.23	223.23
745.415	172.03
745.6	311.29
745.785	161.79
745.97	268.28
746.155	241.66
746.34	317.44
746.525	186.37
746.71	288.76
746.895	120.83
747.079	126.97
747.264	174.08
747.449	196.61
747.634	229.37
747.819	145.41
748.003	184.32
748.188	108.54
748.373	184.32
748.557	122.88
748.742	190.46
748.927	231.42
749.111	163.84
749.296	159.74
749.481	249.85
749.665	190.46
749.85	167.93
750.034	204.8
750.219	151.55
750.404	184.32
750.588	151.55
750.773	98.3
750.957	182.27
751.141	139.26
751.326	198.65
751.51	12.29
751.695	133.12
751.879	163.84
752.064	335.87
752.248	204.8
752.432	276.48
752.617	165.89
752.801	258.04
752.985	149.5
753.17	223.23
753.354	204.8
753.538	219.13
753.722	98.3
753.907	145.41
754.091	22.53
754.275	223.23
754.459	36.86
754.643	77.82
754.828	190.46
755.012	253.95
755.196	122.88
755.38	143.36
755.564	88.06
755.748	92.16
755.932	178.17
756.116	163.84
756.3	180.22
756.484	126.97
756.668	247.8
756.852	59.39
757.036	88.06
757.22	79.87
757.404	98.3
757.588	163.84
757.772	145.41
757.956	63.49
758.14	264.19
758.323	59.39
758.507	212.99
758.691	153.6
758.875	274.43
759.059	141.31
759.242	126.97
759.426	129.02
759.61	145.41
759.794	34.82
759.977	186.37
760.161	362.49
760.345	223.23
760.528	108.54
760.712	77.82
760.895	180.22
761.079	57.34
761.263	36.86
761.446	124.93
761.63	77.82
761.813	126.97
761.997	4.1
762.18	135.17
762.364	86.01
762.547	47.1
762.731	81.92
762.914	165.89
763.098	102.4
763.281	43.01
763.464	90.11
763.648	112.64
763.831	79.87
764.015	69.63
764.198	61.44
764.381	96.25
764.564	172.03
764.748	65.54
764.931	102.4
765.114	83.97
765.297	98.3
765.481	55.3
765.664	61.44
765.847	79.87
766.03	292.86
766.213	-2.05
766.397	30.72
766.58	-4.1
766.763	114.69
766.946	88.06
767.129	-4.1
767.312	22.53
767.495	79.87
767.678	12.29
767.861	112.64
768.044	122.88
768.227	96.25
768.41	88.06
768.593	40.96
768.776	114.69
768.959	94.21
769.142	163.84
769.324	98.3
769.507	49.15
769.69	-36.86
769.873	137.21
770.056	243.71
770.239	69.63
770.421	145.41
770.604	161.79
770.787	83.97
770.97	59.39
771.152	4.1
771.335	32.77
771.518	30.72
771.7	126.97
771.883	180.22
772.066	90.11
772.248	131.07
772.431	180.22
772.613	169.98
772.796	79.87
772.978	217.08
773.161	182.27
773.343	30.72
773.526	-2.05
773.708	-69.63
773.891	-26.62
774.073	79.87
774.256	-88.06
774.438	241.66
774.621	47.1
774.803	108.54
774.985	18.43
775.168	100.35
775.35	-2.05
775.532	71.68
775.715	32.77
775.897	34.82
776.079	-22.53
776.261	69.63
776.444	61.44
776.626	43.01
776.808	112.64
776.99	34.82
777.173	133.12
777.355	73.73
777.537	22.53
777.719	139.26
777.901	24.58
778.083	63.49
778.265	-2.05
778.447	149.5
778.629	38.91
778.811	71.68
778.993	118.78
779.175	92.16
779.357	92.16
779.539	-40.96
779.721	69.63
779.903	98.3
780.085	-53.25
780.267	116.73
780.449	81.92
780.631	118.78
780.812	69.63
780.994	14.34
781.176	10.24
781.358	63.49
781.54	-10.24
781.721	79.87
781.903	129.02
782.085	43.01
782.267	98.3
782.448	-59.39
782.63	24.58
782.812	55.3
782.993	75.77
783.175	145.41
783.357	6.14
783.538	79.87
783.72	16.38
783.901	61.44
784.083	157.69
784.264	63.49
784.446	-32.77
784.627	20.48
784.809	100.35
784.99	-4.1
785.172	90.11
785.353	24.58
785.535	-24.58
785.716	-16.38
785.897	-32.77
786.079	133.12
786.26	102.4
786.441	90.11
786.623	-30.72
786.804	-14.34
786.985	77.82
787.167	135.17
787.348	22.53
787.529	-53.25
787.71	174.08
787.891	38.91
788.073	30.72
788.254	-20.48
788.435	186.37
788.616	61.44
788.797	-102.4
788.978	12.29
789.159	2.05
789.34	122.88
789.522	71.68
789.703	-28.67
789.884	96.25
790.065	30.72
790.246	98.3
790.427	16.38
790.607	169.98
790.788	120.83
790.969	43.01
791.15	36.86
791.331	-16.38
791.512	2.05
791.693	-73.73
791.874	-61.44
792.054	145.41
792.235	106.49
792.416	-34.82
792.597	-26.62
792.778	75.77
792.958	90.11
793.139	28.67
793.32	69.63
793.5	-110.59
793.681	30.72
793.862	28.67
794.042	-6.14
794.223	-55.3
794.404	28.67
794.584	-122.88
794.765	36.86
794.945	4.1
795.126	71.68
795.306	100.35
795.487	57.34
795.667	-45.06
795.848	-18.43
796.028	-4.1
796.209	-10.24
796.389	108.54
796.57	51.2
796.75	-43.01
796.93	-22.53
797.111	-83.97
797.291	34.82
797.471	49.15
797.652	-34.82
797.832	-6.14
798.012	61.44
798.192	2.05
798.373	8.19
798.553	36.86
798.733	59.39
798.913	-83.97
799.093	-8.19
799.274	-59.39
799.454	137.21
799.634	71.68
799.814	88.06
799.994	45.06
800.174	36.86
800.354	30.72
800.534	-98.3
800.714	92.16
800.894	22.53
801.074	-67.58
801.254	-16.38
801.434	212.99
801.614	-34.82
801.794	-47.1
801.974	1908.71
802.154	-16.38
802.334	151.55
802.514	-104.45
802.693	12.29
802.873	-59.39
803.053	71.68
803.233	32.77
803.413	59.39
803.592	-118.78
803.772	-20.48
803.952	59.39
804.131	-98.3
804.311	77.82
804.491	75.77
804.67	-98.3
804.85	43.01
805.03	57.34
805.209	106.49
805.389	14.34
805.568	-102.4
805.748	-43.01
805.928	-45.06
806.107	47.1
806.287	63.49
806.466	98.3
806.646	79.87
806.825	-24.58
807.004	-67.58
807.184	18.43
807.363	-30.72
807.543	63.49
807.722	-36.86
807.901	77.82
808.081	61.44
808.26	-206.84
808.439	-49.15
808.619	-47.1
808.798	-116.73
808.977	38.91
809.156	90.11
809.336	34.82
809.515	51.2
809.694	-14.34
809.873	-100.35
810.052	126.97
810.231	208.89
810.411	69.63
810.59	96.25
810.769	-26.62
810.948	30.72
811.127	-157.69
811.306	-92.16
811.485	-43.01
811.664	104.45
811.843	2.05
812.022	57.34
812.201	57.34
812.38	-30.72
812.559	-4.1
812.737	86.01
812.916	-63.49
813.095	-55.3
813.274	57.34
813.453	22.53
813.632	96.25
813.811	114.69
813.989	-104.45
814.168	6.14
814.347	-14.34
814.526	22.53
814.704	83.97
814.883	155.65
815.062	-86.01
815.24	43.01
815.419	-75.77
815.598	43.01
815.776	-141.31
815.955	-2.05
816.133	-67.58
816.312	-28.67
816.49	-53.25
816.669	45.06
816.847	-18.43
817.026	24.58
817.204	-4.1
817.383	-67.58
817.561	-45.06
817.74	20.48
817.918	-26.62
818.097	8.19
818.275	-45.06
818.453	73.73
818.632	55.3
818.81	-47.1
818.988	-38.91
819.167	6.14
819.345	12.29
819.523	-14.34
819.701	36.86
819.879	36.86
820.058	22.53
820.236	-75.77
820.414	28.67
820.592	-38.91
820.77	51.2
820.948	-45.06
821.127	22.53
821.305	20.48
821.483	-38.91
821.661	57.34
821.839	67.58
822.017	-83.97
822.195	10.24
822.373	59.39
822.551	30.72
822.729	92.16
822.907	-10.24
823.085	22.53
823.262	112.64
823.44	22.53
823.618	-100.35
823.796	-18.43
823.974	10.24
824.152	12.29
824.329	73.73
824.507	-30.72
824.685	88.06
824.863	-55.3
825.04	28.67
825.218	63.49
825.396	34.82
825.574	12.29
825.751	14.34
825.929	61.44
826.107	-32.77
826.284	30.72
826.462	-55.3
826.639	-43.01
826.817	-83.97
826.994	-38.91
827.172	-92.16
827.349	122.88
827.527	22.53
827.704	6.14
827.882	6.14
828.059	8.19
828.237	24.58
828.414	88.06
828.591	-202.75
828.769	10.24
828.946	-63.49
829.124	59.39
829.301	92.16
829.478	-34.82
829.655	40.96
829.833	55.3
830.01	-159.74
830.187	8.19
830.364	-6.14
830.542	116.73
830.719	79.87
830.896	61.44
831.073	53.25
831.25	-10.24
831.427	100.35
831.604	40.96
831.782	-147.45
831.959	0
832.136	30.72
832.313	75.77
832.49	12.29
832.667	38.91
832.844	-71.68
833.021	71.68
833.198	69.63
833.374	-2.05
833.551	-40.96
833.728	-30.72
833.905	28.67
834.082	-61.44
834.259	-24.58
834.436	88.06
834.612	-75.77
834.789	102.4
834.966	8.19
835.143	65.54
835.319	12.29
835.496	18.43
835.673	14.34
835.85	96.25
836.026	88.06
836.203	63.49
836.38	-30.72
836.556	-57.34
836.733	-73.73
836.909	94.21
837.086	-32.77
837.262	-102.4
837.439	-28.67
837.616	-30.72
837.792	-8.19
837.968	24.58
838.145	-141.31
838.321	22.53
838.498	32.77
838.674	77.82
838.851	34.82
839.027	-79.87
839.203	-47.1
839.38	40.96
839.556	-18.43
839.732	22.53
839.909	18.43
840.085	51.2
840.261	-124.93
840.437	14.34
840.614	-51.2
840.79	86.01
840.966	22.53
841.142	65.54
841.318	-22.53
841.494	12.29
841.671	18.43
841.847	-67.58
842.023	-40.96
842.199	47.1
842.375	51.2
842.551	-40.96
842.727	-49.15
842.903	38.91
843.079	-61.44
843.255	133.12
843.431	51.2
843.607	22.53
843.783	-120.83
843.959	-30.72
844.134	-51.2
844.31	71.68
844.486	-79.87
844.662	49.15
844.838	4.1
845.013	137.21
845.189	88.06
845.365	32.77
845.541	24.58
845.716	28.67
845.892	94.21
846.068	-102.4
846.244	-63.49
846.419	20.48
846.595	-61.44
846.77	0
846.946	59.39
847.122	-77.82
847.297	-51.2
847.473	139.26
847.648	-106.49
847.824	-36.86
847.999	-124.93
848.175	24.58
848.35	38.91
848.526	32.77
848.701	55.3
848.876	94.21
849.052	8.19
849.227	20.48
849.403	63.49
849.578	-12.29
849.753	6.14
849.929	26.62
850.104	-77.82
850.279	2.05
850.454	49.15
850.63	47.1
850.805	14.34
850.98	-38.91
851.155	-40.96
851.33	-14.34
851.505	-26.62
851.681	65.54
851.856	-59.39
852.031	10.24
852.206	4.1
852.381	-90.11
852.556	-63.49
852.731	112.64
852.906	96.25
853.081	-20.48
853.256	102.4
853.431	-12.29
853.606	-57.34
853.781	-49.15
853.956	-116.73
854.131	-57.34
854.305	-32.77
854.48	-38.91
854.655	-63.49
854.83	4.1
855.005	-12.29
855.18	-18.43
855.354	-40.96
855.529	-30.72
855.704	-120.83
855.879	22.53
856.053	-28.67
856.228	38.91
856.403	-67.58
856.577	30.72
856.752	-61.44
856.926	61.44
857.101	-8.19
857.276	-65.53
857.45	-16.38
857.625	22.53
857.799	6.14
857.974	2.05
858.148	-143.36
858.323	-51.2
858.497	22.53
858.672	-96.25
858.846	-24.58
859.02	34.82
859.195	-24.58
859.369	-63.49
859.543	-6.14
859.718	36.86
859.892	28.67
860.066	-8.19
860.241	-83.97
860.415	-69.63
860.589	-61.44
860.763	83.97
860.938	-81.92
861.112	28.67
861.286	-71.68
861.46	26.62
861.634	-14.34
861.808	90.11
861.982	-63.49
862.157	-147.45
862.331	-40.96
862.505	-188.41
862.679	-102.4
862.853	10.24
863.027	57.34
863.201	161.79
863.375	-67.58
863.549	18.43
863.722	-14.34
863.896	32.77
864.07	-32.77
864.244	-24.58
864.418	2.05
864.592	10.24
864.766	32.77
864.939	4.1
865.113	-55.3
865.287	81.92
865.461	-40.96
865.634	-22.53
865.808	-47.1
865.982	-67.58
866.156	-40.96
866.329	-79.87
866.503	10.24
866.676	10.24
866.85	-47.1
867.024	-69.63
867.197	55.3
867.371	43.01
867.544	-20.48
867.718	-45.06
867.891	51.2
868.065	-102.4
868.238	-79.87
868.412	-8.19
868.585	-28.67
868.759	-2.05
868.932	-79.87
869.105	-133.12
869.279	-26.62
869.452	-77.82
869.625	-30.72
869.799	-49.15
869.972	-88.06
870.145	-30.72
870.319	77.82
870.492	-30.72
870.665	-67.58
870.838	-40.96
871.011	-159.74
871.185	-24.58
871.358	-92.16
871.531	-4.1
871.704	-67.58
871.877	69.63
872.05	-4.1
872.223	-10.24
872.396	65.54
872.569	14.34
872.742	-49.15
872.915	-30.72
873.088	24.58
873.261	-55.3
873.434	-8.19
873.607	34.82
873.78	69.63
873.953	-116.73
874.126	-36.86
874.299	61.44
874.471	-34.82
874.644	-47.1
874.817	30.72
874.99	67.58
875.163	-86.01
875.335	77.82
875.508	-4.1
875.681	65.54
875.853	-94.21
876.026	8.19
876.199	-10.24
876.371	10.24
876.544	30.72
876.717	-32.77
876.889	-73.73
877.062	81.92
877.234	-51.2
877.407	0
877.579	-36.86
877.752	-4.1
877.924	57.34
878.097	-2.05
878.269	63.49
878.442	26.62
878.614	88.06
878.786	2.05
878.959	-34.82
879.131	22.53
879.303	-112.64
879.476	22.53
879.648	14.34
879.82	-51.2
879.993	-32.77
880.165	36.86
880.337	-94.21
880.509	-55.3
880.681	-51.2
880.854	-71.68
881.026	10.24
881.198	176.13
881.37	26.62
881.542	-10.24
881.714	-24.58
881.886	-51.2
882.058	14.34
882.23	6.14
882.402	-57.34
882.574	36.86
882.746	88.06
882.918	108.54
883.09	40.96
883.262	-28.67
883.434	16.38
883.606	-65.53
883.778	-22.53
883.95	28.67
884.122	-47.1
884.293	120.83
884.465	10.24
884.637	49.15
884.809	-77.82
884.98	8.19
885.152	94.21
885.324	18.43
885.496	-10.24
885.667	-122.88
885.839	-30.72
886.011	71.68
886.182	20.48
886.354	114.69
886.525	-28.67
886.697	-4.1
886.869	-153.6
887.04	-59.39
887.212	34.82
887.383	145.41
887.555	12.29
887.726	8.19
887.897	-34.82
888.069	-10.24
888.24	75.77
888.412	-90.11
888.583	-16.38
888.754	-100.35
888.926	-141.31
889.097	-94.21
889.268	-34.82
889.44	12.29
889.611	-90.11
889.782	-102.4
889.953	-83.97
890.125	69.63
890.296	-22.53
890.467	20.48
890.638	-65.53
890.809	-26.62
890.98	-26.62
891.151	-6.14
891.323	131.07
891.494	-14.34
891.665	-100.35
891.836	-53.25
892.007	-36.86
892.178	28.67
892.349	-45.06
892.52	20.48
892.691	8.19
892.862	-2.05
893.032	-147.45
893.203	-55.3
893.374	-2.05
893.545	83.97
893.716	-38.91
893.887	36.86
894.057	-4.1
894.228	-18.43
894.399	-12.29
894.57	100.35
894.74	22.53
894.911	83.97
895.082	-65.53
895.253	-47.1
895.423	22.53
895.594	180.22
895.764	12.29
895.935	-98.3
896.106	106.49
896.276	-16.38
896.447	-67.58
896.617	2.05
896.788	-124.93
896.958	22.53
897.129	-32.77
897.299	-104.45
897.47	73.73
897.64	104.45
897.81	-49.15
897.981	-65.53
898.151	-83.97
898.322	8.19
898.492	32.77
898.662	-73.73
898.832	-47.1
899.003	-18.43
899.173	92.16
899.343	-112.64
899.513	-100.35
