Data from USB4F104151__15__10-41-48-386.txt Node

Date: Wed Feb 26 10:41:48 EST 2025
User: louis
Spectrometer: USB4F10415
Trigger mode: 4
Integration Time (sec): 1.000000E-1
Scans to average: 1
Electric dark correction enabled: true
Nonlinearity correction enabled: false
Boxcar width: 0
XAxis mode: Wavelengths
Number of Pixels in Spectrum: 3648
>>>>>Begin Spectral Data<<<<<
178.204	-406.69
178.424	-406.69
178.644	-406.69
178.864	-400.55
179.084	-437.41
179.304	4.95
179.524	0.85
179.744	21.33
179.964	62.29
180.184	43.86
180.404	-23.72
180.624	0.85
180.844	39.76
181.064	-29.87
181.283	-52.39
181.503	-103.59
181.723	35.67
181.943	-60.59
182.163	211.79
182.383	39.76
182.602	35.67
182.822	224.08
183.042	88.92
183.262	-52.39
183.482	60.24
183.701	2.9
183.921	37.72
184.141	-52.39
184.361	78.68
184.58	66.39
184.8	88.92
185.02	-21.67
185.239	156.5
185.459	58.2
185.679	150.36
185.898	-87.21
186.118	107.35
186.338	82.77
186.557	142.16
186.777	-68.78
186.997	25.43
187.216	47.96
187.436	197.46
187.655	23.38
187.875	64.34
188.095	54.1
188.314	142.16
188.534	93.01
188.753	-64.68
188.973	90.96
189.192	238.42
189.412	37.72
189.631	35.67
189.851	125.78
190.07	140.12
190.29	-48.3
190.509	31.57
190.729	37.72
190.948	148.31
191.168	277.33
191.387	82.77
191.607	11.09
191.826	60.24
192.045	37.72
192.265	37.72
192.484	144.21
192.704	88.92
192.923	-62.63
193.142	150.36
193.362	201.55
193.581	78.68
193.8	148.31
194.02	111.44
194.239	45.91
194.458	2.9
194.678	-1.19
194.897	25.43
195.116	74.58
195.335	144.21
195.555	88.92
195.774	-64.68
195.993	80.72
196.212	88.92
196.432	37.72
196.651	31.57
196.87	31.57
197.089	258.9
197.308	23.38
197.528	72.53
197.747	-9.39
197.966	60.24
198.185	123.73
198.404	-33.96
198.623	117.59
198.842	133.97
199.062	129.88
199.281	156.5
199.5	-33.96
199.719	95.06
199.938	80.72
200.157	66.39
200.376	115.54
200.595	113.49
200.814	107.35
201.033	-23.72
201.252	258.9
201.471	54.1
201.69	119.64
201.909	7
202.128	105.3
202.347	68.44
202.566	13.14
202.785	-21.67
203.004	15.19
203.223	273.23
203.442	-9.39
203.661	-17.58
203.879	105.3
204.098	166.74
204.317	-5.29
204.536	90.96
204.755	64.34
204.974	127.83
205.193	68.44
205.411	125.78
205.63	80.72
205.849	66.39
206.068	-36.01
206.287	2.9
206.505	162.64
206.724	-29.87
206.943	-9.39
207.162	54.1
207.381	95.06
207.599	47.96
207.818	31.57
208.037	31.57
208.255	119.64
208.474	64.34
208.693	70.48
208.911	27.48
209.13	72.53
209.349	70.48
209.567	170.83
209.786	43.86
210.005	158.55
210.223	29.52
210.442	-42.15
210.661	119.64
210.879	50
211.098	-5.29
211.316	43.86
211.535	78.68
211.753	37.72
211.972	115.54
212.191	47.96
212.409	-21.67
212.628	119.64
212.846	25.43
213.065	43.86
213.283	148.31
213.502	47.96
213.72	103.25
213.938	62.29
214.157	58.2
214.375	95.06
214.594	35.67
214.812	-5.29
215.031	27.48
215.249	76.63
215.467	11.09
215.686	17.24
215.904	19.29
216.122	52.05
216.341	213.84
216.559	88.92
216.778	60.24
216.996	138.07
217.214	84.82
217.432	23.38
217.651	-91.31
217.869	29.52
218.087	50
218.306	27.48
218.524	33.62
218.742	39.76
218.96	80.72
219.179	21.33
219.397	41.81
219.615	205.65
219.833	121.68
220.051	-60.59
220.27	172.88
220.488	146.26
220.706	86.87
220.924	0.85
221.142	-27.82
221.36	107.35
221.578	84.82
221.796	39.76
222.015	50
222.233	54.1
222.451	121.68
222.669	-83.11
222.887	72.53
223.105	-27.82
223.323	41.81
223.541	-23.72
223.759	39.76
223.977	76.63
224.195	262.99
224.413	97.11
224.631	129.88
224.849	105.3
225.067	199.51
225.285	-9.39
225.503	68.44
225.721	-70.83
225.939	35.67
226.157	113.49
226.375	168.79
226.592	19.29
226.81	60.24
227.028	107.35
227.246	170.83
227.464	78.68
227.682	2.9
227.9	80.72
228.117	115.54
228.335	68.44
228.553	45.91
228.771	107.35
228.989	19.29
229.206	76.63
229.424	-81.07
229.642	13.14
229.86	19.29
230.077	174.93
230.295	45.91
230.513	52.05
230.731	50
230.948	170.83
231.166	179.03
231.384	31.57
231.601	-62.63
231.819	156.5
232.037	23.38
232.254	64.34
232.472	95.06
232.689	33.62
232.907	123.73
233.125	31.57
233.342	-62.63
233.56	-5.29
233.777	-23.72
233.995	17.24
234.213	95.06
234.43	203.6
234.648	41.81
234.865	41.81
235.083	127.83
235.3	111.44
235.518	82.77
235.735	176.98
235.953	62.29
236.17	56.15
236.388	-13.48
236.605	41.81
236.822	168.79
237.04	64.34
237.257	37.72
237.475	-5.29
237.692	47.96
237.909	86.87
238.127	-5.29
238.344	99.16
238.562	80.72
238.779	39.76
238.996	17.24
239.214	45.91
239.431	127.83
239.648	33.62
239.865	162.64
240.083	121.68
240.3	21.33
240.517	86.87
240.735	74.58
240.952	129.88
241.169	164.69
241.386	187.22
241.603	54.1
241.821	-1.19
242.038	101.2
242.255	121.68
242.472	17.24
242.689	66.39
242.907	74.58
243.124	56.15
243.341	29.52
243.558	-17.58
243.775	-58.54
243.992	-83.11
244.209	66.39
244.426	148.31
244.643	70.48
244.86	25.43
245.078	121.68
245.295	80.72
245.512	97.11
245.729	62.29
245.946	111.44
246.163	58.2
246.38	66.39
246.597	21.33
246.814	76.63
247.031	2.9
247.248	-21.67
247.464	127.83
247.681	62.29
247.898	66.39
248.115	109.4
248.332	-23.72
248.549	191.31
248.766	142.16
248.983	45.91
249.2	156.5
249.417	93.01
249.633	-38.06
249.85	82.77
250.067	25.43
250.284	105.3
250.501	60.24
250.717	121.68
250.934	-23.72
251.151	86.87
251.368	68.44
251.585	84.82
251.801	52.05
252.018	17.24
252.235	58.2
252.451	-36.01
252.668	62.29
252.885	183.12
253.102	66.39
253.318	-13.48
253.535	45.91
253.752	-23.72
253.968	4.95
254.185	-15.53
254.401	138.07
254.618	19.29
254.835	27.48
255.051	168.79
255.268	162.64
255.484	56.15
255.701	41.81
255.917	45.91
256.134	-15.53
256.351	35.67
256.567	41.81
256.784	27.48
257	-48.3
257.217	125.78
257.433	133.97
257.65	144.21
257.866	97.11
258.082	-19.63
258.299	-83.11
258.515	74.58
258.732	23.38
258.948	-50.35
259.165	37.72
259.381	-21.67
259.597	95.06
259.814	80.72
260.03	138.07
260.246	72.53
260.463	54.1
260.679	97.11
260.895	109.4
261.112	72.53
261.328	21.33
261.544	-36.01
261.761	215.89
261.977	-21.67
262.193	68.44
262.409	136.02
262.626	39.76
262.842	93.01
263.058	9.05
263.274	142.16
263.49	74.58
263.707	54.1
263.923	123.73
264.139	-117.93
264.355	43.86
264.571	170.83
264.787	13.14
265.004	111.44
265.22	62.29
265.436	33.62
265.652	21.33
265.868	97.11
266.084	-83.11
266.3	4.95
266.516	-13.48
266.732	90.96
266.948	35.67
267.164	15.19
267.38	127.83
267.596	52.05
267.812	211.79
268.028	4.95
268.244	33.62
268.46	39.76
268.676	97.11
268.892	125.78
269.108	-5.29
269.324	-21.67
269.54	7
269.756	84.82
269.972	-13.48
270.188	68.44
270.403	-119.98
270.619	-42.15
270.835	146.26
271.051	29.52
271.267	4.95
271.483	13.14
271.698	80.72
271.914	68.44
272.13	62.29
272.346	37.72
272.562	86.87
272.777	150.36
272.993	2.9
273.209	15.19
273.425	142.16
273.64	-21.67
273.856	113.49
274.072	2.9
274.287	54.1
274.503	107.35
274.719	68.44
274.934	-11.43
275.15	-40.11
275.366	7
275.581	7
275.797	45.91
276.012	66.39
276.228	-7.34
276.444	33.62
276.659	99.16
276.875	58.2
277.09	109.4
277.306	-25.77
277.521	78.68
277.737	-7.34
277.952	148.31
278.168	127.83
278.383	99.16
278.599	121.68
278.814	150.36
279.03	-23.72
279.245	164.69
279.461	-11.43
279.676	64.34
279.892	-31.91
280.107	2.9
280.322	-11.43
280.538	-25.77
280.753	54.1
280.969	43.86
281.184	19.29
281.399	230.23
281.615	9.05
281.83	117.59
282.045	-42.15
282.26	25.43
282.476	146.26
282.691	150.36
282.906	131.92
283.122	99.16
283.337	39.76
283.552	99.16
283.767	13.14
283.983	99.16
284.198	25.43
284.413	117.59
284.628	-87.21
284.843	58.2
285.058	80.72
285.274	21.33
285.489	-21.67
285.704	125.78
285.919	-89.26
286.134	99.16
286.349	78.68
286.564	9.05
286.779	158.55
286.995	17.24
287.21	2.9
287.425	90.96
287.64	-15.53
287.855	82.77
288.07	-66.73
288.285	129.88
288.5	197.46
288.715	164.69
288.93	41.81
289.145	41.81
289.36	101.2
289.575	31.57
289.79	158.55
290.004	11.09
290.219	138.07
290.434	11.09
290.649	15.19
290.864	45.91
291.079	-46.25
291.294	37.72
291.509	54.1
291.724	74.58
291.938	-31.91
292.153	64.34
292.368	78.68
292.583	101.2
292.798	-7.34
293.012	93.01
293.227	72.53
293.442	47.96
293.657	82.77
293.871	60.24
294.086	47.96
294.301	138.07
294.516	117.59
294.73	88.92
294.945	23.38
295.16	47.96
295.374	113.49
295.589	103.25
295.804	15.19
296.018	-33.96
296.233	82.77
296.447	82.77
296.662	52.05
296.877	105.3
297.091	52.05
297.306	115.54
297.52	-9.39
297.735	99.16
297.949	50
298.164	68.44
298.378	74.58
298.593	66.39
298.807	-27.82
299.022	101.2
299.236	164.69
299.451	7
299.665	50
299.88	129.88
300.094	156.5
300.309	-1.19
300.523	50
300.737	-5.29
300.952	76.63
301.166	13.14
301.381	-122.02
301.595	31.57
301.809	58.2
302.024	2.9
302.238	23.38
302.452	129.88
302.667	54.1
302.881	144.21
303.095	127.83
303.309	78.68
303.524	-1.19
303.738	60.24
303.952	2.9
304.166	101.2
304.381	-15.53
304.595	193.36
304.809	-19.63
305.023	21.33
305.237	109.4
305.452	-17.58
305.666	45.91
305.88	78.68
306.094	152.4
306.308	97.11
306.522	127.83
306.736	90.96
306.95	80.72
307.164	80.72
307.379	56.15
307.593	211.79
307.807	201.55
308.021	138.07
308.235	164.69
308.449	-9.39
308.663	68.44
308.877	256.85
309.091	58.2
309.305	127.83
309.519	-50.35
309.733	191.31
309.947	-3.24
310.161	80.72
310.374	90.96
310.588	64.34
310.802	-44.2
311.016	90.96
311.23	129.88
311.444	-62.63
311.658	25.43
311.872	93.01
312.085	187.22
312.299	154.45
312.513	115.54
312.727	86.87
312.941	-36.01
313.154	115.54
313.368	103.25
313.582	82.77
313.796	99.16
314.009	58.2
314.223	119.64
314.437	121.68
314.651	156.5
314.864	-1.19
315.078	109.4
315.292	41.81
315.505	33.62
315.719	76.63
315.933	7
316.146	29.52
316.36	19.29
316.573	119.64
316.787	76.63
317.001	70.48
317.214	15.19
317.428	95.06
317.641	41.81
317.855	52.05
318.068	-5.29
318.282	60.24
318.495	140.12
318.709	66.39
318.922	50
319.136	183.12
319.349	133.97
319.563	21.33
319.776	88.92
319.99	-31.91
320.203	181.07
320.417	105.3
320.63	129.88
320.843	160.59
321.057	74.58
321.27	76.63
321.483	68.44
321.697	193.36
321.91	72.53
322.124	76.63
322.337	127.83
322.55	15.19
322.763	2.9
322.977	41.81
323.19	-56.49
323.403	86.87
323.617	95.06
323.83	162.64
324.043	27.48
324.256	52.05
324.469	27.48
324.683	115.54
324.896	56.15
325.109	41.81
325.322	-103.59
325.535	45.91
325.748	74.58
325.962	-27.82
326.175	-9.39
326.388	62.29
326.601	125.78
326.814	56.15
327.027	54.1
327.24	154.45
327.453	-15.53
327.666	35.67
327.879	189.27
328.092	90.96
328.305	95.06
328.518	-33.96
328.731	33.62
328.944	109.4
329.157	74.58
329.37	60.24
329.583	176.98
329.796	66.39
330.009	-64.68
330.222	140.12
330.435	21.33
330.648	119.64
330.861	70.48
331.073	117.59
331.286	95.06
331.499	25.43
331.712	-5.29
331.925	21.33
332.138	9.05
332.35	156.5
332.563	86.87
332.776	138.07
332.989	-27.82
333.202	90.96
333.414	29.52
333.627	-29.87
333.84	80.72
334.053	88.92
334.265	41.81
334.478	41.81
334.691	-7.34
334.903	50
335.116	-7.34
335.329	25.43
335.541	7
335.754	129.88
335.966	4.95
336.179	60.24
336.392	45.91
336.604	56.15
336.817	121.68
337.029	95.06
337.242	66.39
337.454	109.4
337.667	66.39
337.88	27.48
338.092	93.01
338.305	88.92
338.517	17.24
338.729	117.59
338.942	176.98
339.154	-11.43
339.367	-1.19
339.579	35.67
339.792	-1.19
340.004	142.16
340.217	109.4
340.429	148.31
340.641	-7.34
340.854	19.29
341.066	31.57
341.278	119.64
341.491	207.7
341.703	35.67
341.915	-60.59
342.128	133.97
342.34	84.82
342.552	74.58
342.764	7
342.977	17.24
343.189	80.72
343.401	41.81
343.613	29.52
343.826	37.72
344.038	11.09
344.25	68.44
344.462	-5.29
344.674	56.15
344.886	-27.82
345.099	105.3
345.311	95.06
345.523	21.33
345.735	-25.77
345.947	84.82
346.159	117.59
346.371	17.24
346.583	62.29
346.795	160.59
347.007	0.85
347.219	90.96
347.431	68.44
347.643	129.88
347.855	-31.91
348.067	158.55
348.279	-40.11
348.491	88.92
348.703	164.69
348.915	107.35
349.127	4.95
349.339	39.76
349.551	11.09
349.763	66.39
349.975	43.86
350.187	62.29
350.399	127.83
350.61	80.72
350.822	15.19
351.034	109.4
351.246	113.49
351.458	179.03
351.669	115.54
351.881	82.77
352.093	230.23
352.305	119.64
352.517	154.45
352.728	193.36
352.94	93.01
353.152	88.92
353.363	-42.15
353.575	86.87
353.787	273.23
353.999	47.96
354.21	109.4
354.422	-21.67
354.633	152.4
354.845	15.19
355.057	60.24
355.268	37.72
355.48	185.17
355.692	-87.21
355.903	99.16
356.115	-15.53
356.326	13.14
356.538	84.82
356.749	152.4
356.961	207.7
357.172	52.05
357.384	-25.77
357.595	250.71
357.807	90.96
358.018	-42.15
358.23	17.24
358.441	179.03
358.653	-19.63
358.864	90.96
359.075	-9.39
359.287	101.2
359.498	95.06
359.709	27.48
359.921	19.29
360.132	148.31
360.344	-3.24
360.555	58.2
360.766	133.97
360.977	27.48
361.189	160.59
361.4	-3.24
361.611	97.11
361.823	113.49
362.034	129.88
362.245	-17.58
362.456	72.53
362.667	115.54
362.879	-27.82
363.09	74.58
363.301	54.1
363.512	31.57
363.723	52.05
363.935	-19.63
364.146	119.64
364.357	43.86
364.568	101.2
364.779	27.48
364.99	174.93
365.201	50
365.412	121.68
365.623	7
365.834	103.25
366.045	64.34
366.256	129.88
366.467	170.83
366.678	7
366.889	76.63
367.1	-11.43
367.311	90.96
367.522	90.96
367.733	54.1
367.944	97.11
368.155	52.05
368.366	66.39
368.577	86.87
368.788	140.12
368.999	-11.43
369.209	50
369.42	230.23
369.631	244.56
369.842	144.21
370.053	-5.29
370.264	189.27
370.474	-56.49
370.685	84.82
370.896	9.05
371.107	144.21
371.317	115.54
371.528	86.87
371.739	129.88
371.95	133.97
372.16	50
372.371	-9.39
372.582	-56.49
372.792	45.91
373.003	39.76
373.214	-17.58
373.424	86.87
373.635	13.14
373.846	154.45
374.056	123.73
374.267	115.54
374.477	146.26
374.688	29.52
374.898	33.62
375.109	50
375.319	35.67
375.53	185.17
375.74	70.48
375.951	23.38
376.161	78.68
376.372	172.88
376.582	13.14
376.793	64.34
377.003	19.29
377.214	19.29
377.424	113.49
377.635	56.15
377.845	25.43
378.055	123.73
378.266	13.14
378.476	50
378.686	80.72
378.897	80.72
379.107	109.4
379.317	127.83
379.528	41.81
379.738	121.68
379.948	-19.63
380.158	117.59
380.369	-7.34
380.579	138.07
380.789	99.16
380.999	144.21
381.21	95.06
381.42	306
381.63	62.29
381.84	74.58
382.05	17.24
382.261	199.51
382.471	158.55
382.681	-5.29
382.891	162.64
383.101	76.63
383.311	-119.98
383.521	-17.58
383.731	148.31
383.941	119.64
384.151	27.48
384.361	64.34
384.571	109.4
384.781	136.02
384.991	140.12
385.201	103.25
385.411	201.55
385.621	84.82
385.831	150.36
386.041	-29.87
386.251	4.95
386.461	82.77
386.671	-33.96
386.881	39.76
387.091	56.15
387.301	148.31
387.511	129.88
387.72	23.38
387.93	97.11
388.14	-42.15
388.35	84.82
388.56	125.78
388.769	150.36
388.979	84.82
389.189	-21.67
389.399	103.25
389.609	181.07
389.818	166.74
390.028	0.85
390.238	109.4
390.447	-17.58
390.657	31.57
390.867	43.86
391.076	-44.2
391.286	70.48
391.496	39.76
391.705	72.53
391.915	148.31
392.125	158.55
392.334	-7.34
392.544	136.02
392.753	23.38
392.963	13.14
393.172	95.06
393.382	43.86
393.591	217.94
393.801	0.85
394.01	211.79
394.22	45.91
394.429	99.16
394.639	13.14
394.848	88.92
395.058	68.44
395.267	62.29
395.477	95.06
395.686	31.57
395.895	213.84
396.105	136.02
396.314	64.34
396.524	72.53
396.733	47.96
396.942	138.07
397.152	166.74
397.361	123.73
397.57	84.82
397.78	35.67
397.989	111.44
398.198	113.49
398.407	125.78
398.617	43.86
398.826	66.39
399.035	-11.43
399.244	228.18
399.453	35.67
399.663	68.44
399.872	52.05
400.081	27.48
400.29	74.58
400.499	95.06
400.708	174.93
400.917	88.92
401.127	27.48
401.336	31.57
401.545	201.55
401.754	174.93
401.963	172.88
402.172	74.58
402.381	-11.43
402.59	97.11
402.799	39.76
403.008	185.17
403.217	99.16
403.426	142.16
403.635	-11.43
403.844	68.44
404.053	31.57
404.262	56.15
404.471	138.07
404.68	158.55
404.888	113.49
405.097	9.05
405.306	154.45
405.515	146.26
405.724	50
405.933	142.16
406.142	86.87
406.35	183.12
406.559	97.11
406.768	29.52
406.977	209.75
407.185	86.87
407.394	66.39
407.603	-46.25
407.812	70.48
408.02	103.25
408.229	95.06
408.438	64.34
408.646	-46.25
408.855	39.76
409.064	131.92
409.272	99.16
409.481	80.72
409.69	33.62
409.898	35.67
410.107	164.69
410.315	123.73
410.524	-3.24
410.733	19.29
410.941	43.86
411.15	146.26
411.358	33.62
411.567	164.69
411.775	39.76
411.984	99.16
412.192	133.97
412.401	74.58
412.609	138.07
412.818	127.83
413.026	136.02
413.234	60.24
413.443	74.58
413.651	-89.26
413.86	101.2
414.068	195.41
414.276	277.33
414.485	2.9
414.693	127.83
414.901	166.74
415.11	121.68
415.318	66.39
415.526	17.24
415.734	127.83
415.943	121.68
416.151	164.69
416.359	70.48
416.567	76.63
416.776	123.73
416.984	117.59
417.192	203.6
417.4	37.72
417.608	80.72
417.817	31.57
418.025	146.26
418.233	174.93
418.441	-7.34
418.649	-46.25
418.857	123.73
419.065	195.41
419.273	62.29
419.481	27.48
419.689	76.63
419.897	76.63
420.105	60.24
420.313	125.78
420.521	181.07
420.729	152.4
420.937	25.43
421.145	13.14
421.353	45.91
421.561	174.93
421.769	109.4
421.977	2.9
422.185	131.92
422.393	66.39
422.601	211.79
422.809	136.02
423.017	136.02
423.224	99.16
423.432	187.22
423.64	78.68
423.848	136.02
424.056	64.34
424.263	160.59
424.471	45.91
424.679	191.31
424.887	-25.77
425.094	172.88
425.302	86.87
425.51	84.82
425.718	224.08
425.925	84.82
426.133	60.24
426.341	236.37
426.548	156.5
426.756	64.34
426.964	82.77
427.171	86.87
427.379	113.49
427.586	125.78
427.794	93.01
428.001	152.4
428.209	133.97
428.417	217.94
428.624	191.31
428.832	199.51
429.039	93.01
429.247	138.07
429.454	140.12
429.662	269.14
429.869	162.64
430.076	101.2
430.284	301.9
430.491	205.65
430.699	256.85
430.906	279.38
431.114	179.03
431.321	191.31
431.528	119.64
431.736	156.5
431.943	207.7
432.15	162.64
432.358	242.51
432.565	297.81
432.772	168.79
432.979	252.75
433.187	156.5
433.394	230.23
433.601	203.6
433.808	256.85
434.016	244.56
434.223	248.66
434.43	293.71
434.637	324.43
434.844	279.38
435.052	248.66
435.259	418.64
435.466	328.53
435.673	351.06
435.88	355.15
436.087	457.55
436.294	432.97
436.501	408.4
436.708	351.06
436.915	398.16
437.122	551.76
437.329	363.34
437.537	394.06
437.743	385.87
437.95	518.99
438.157	488.27
438.364	478.03
438.571	492.37
438.778	545.61
438.985	518.99
439.192	570.19
439.399	564.04
439.606	656.2
439.813	654.16
440.02	727.88
440.227	758.6
440.433	779.08
440.64	717.64
440.847	641.87
441.054	762.7
441.261	1039.17
441.467	887.62
441.674	717.64
441.881	885.58
442.088	787.27
442.294	934.73
442.501	1080.13
442.708	1055.56
442.914	924.49
443.121	1106.76
443.328	1043.27
443.534	1182.53
443.741	1184.58
443.948	1016.65
444.154	1241.92
444.361	1350.46
444.568	1305.41
444.774	1393.47
444.981	1293.12
445.187	1510.21
445.394	1528.64
445.6	1688.38
445.807	1741.63
446.013	1719.1
446.22	1706.81
446.426	1782.59
446.633	1915.7
446.839	2204.47
447.046	1872.7
447.252	2102.07
447.459	1977.14
447.665	2059.06
447.871	2345.78
448.078	2513.71
448.284	2495.28
448.491	2591.53
448.697	2777.9
448.903	2863.91
449.11	3017.51
449.316	2753.32
449.522	3128.1
449.728	3232.55
449.935	3224.36
450.141	3324.71
450.347	3558.18
450.553	3533.6
450.76	3599.13
450.966	3859.23
451.172	3902.23
451.378	4096.79
451.584	4199.19
451.791	4578.06
451.997	4686.61
452.203	4670.22
452.409	4838.16
452.615	5141.25
452.821	5034.76
453.027	5049.1
453.233	5856
453.44	5612.29
453.646	5759.74
453.852	5970.68
454.058	6259.45
454.264	6458.1
454.47	6834.93
454.676	7006.95
454.882	7402.21
455.088	7303.91
455.294	7672.54
455.5	8131.29
455.705	8731.34
455.911	8499.92
456.117	8862.41
456.323	9267.91
456.529	9112.27
456.735	10142.39
456.941	10252.98
457.147	10545.84
457.352	10922.67
457.558	11272.87
457.764	11973.28
457.97	12329.63
458.176	12653.2
458.381	13314.7
458.587	13517.45
458.793	14086.78
458.999	14254.72
459.204	15942.24
459.41	16843.35
459.616	16345.69
459.821	17267.28
460.027	17943.11
460.233	18799.16
460.438	19077.68
460.644	19960.36
460.85	20343.33
461.055	20855.32
461.261	21910.02
461.466	21809.67
461.672	22075.91
461.878	24637.92
462.083	24504.8
462.289	24906.2
462.494	25926.09
462.7	25938.38
462.905	26460.61
463.111	28436.9
463.316	29989.26
463.522	30370.18
463.727	31748.46
463.932	32561.51
464.138	33726.8
464.343	35170.62
464.549	35012.93
464.754	37632.28
464.959	38582.54
465.165	39348.48
465.37	39151.87
465.575	39207.17
465.781	41689.31
465.986	42834.12
466.191	42254.54
466.397	42494.16
466.602	41705.69
466.807	44023.99
467.012	44525.74
467.218	45308.07
467.423	45809.82
467.628	46872.71
467.833	49240.17
468.038	48078.97
468.244	47564.93
468.449	50094.17
468.654	48554.1
468.859	48541.81
469.064	49113.19
469.269	47845.5
469.474	48232.57
469.679	49465.44
469.885	48306.29
470.09	49227.88
470.295	49231.97
470.5	47622.27
470.705	48185.46
470.91	47188.1
471.115	46553.23
471.32	47302.79
471.525	46792.84
471.73	45416.61
471.935	45226.15
472.139	43722.94
472.344	43698.36
472.549	43516.09
472.754	42553.55
472.959	41599.19
473.164	40438
473.369	39717.11
473.574	40929.51
473.778	39721.21
473.983	39491.83
474.188	38586.63
474.393	37224.73
474.598	36890.91
474.802	35914.03
475.007	35242.3
475.212	35191.1
475.417	33749.33
475.621	33372.5
475.826	33270.11
476.031	32500.07
476.235	31842.67
476.44	32000.37
476.645	30851.45
476.849	30800.26
477.054	30318.98
477.259	29342.1
477.463	29198.74
477.668	28463.52
477.872	28518.82
478.077	27949.48
478.282	27085.24
478.486	26843.58
478.691	26517.95
478.895	26567.1
479.1	26476.99
479.304	26300.87
479.509	25180.63
479.713	25403.86
479.918	24898.01
480.122	24338.91
480.326	24705.5
480.531	24410.59
480.735	24068.58
480.94	23599.6
481.144	24537.57
481.348	23325.17
481.553	23310.83
481.757	22794.75
481.961	22886.9
482.166	23075.32
482.37	22821.37
482.574	22274.56
482.778	22442.49
482.983	22374.91
483.187	22112.77
483.391	22024.71
483.595	21518.86
483.8	21312.02
484.004	21398.03
484.208	21260.82
484.412	21037.59
484.616	20648.47
484.821	20523.55
485.025	19763.75
485.229	20093.47
485.433	19857.96
485.637	19749.42
485.841	19251.76
486.045	19001.91
486.249	18934.32
486.453	18528.83
486.657	18508.35
486.861	18238.02
487.065	17416.78
487.269	17558.09
487.473	17019.47
487.677	17009.23
487.881	16724.57
488.085	16548.44
488.289	16423.51
488.493	15833.7
488.697	16048.74
488.901	15477.35
489.105	15139.44
489.309	14955.12
489.512	14479.99
489.716	14383.74
489.92	14158.46
490.124	13804.16
490.328	13914.75
490.531	13281.93
490.735	13062.8
490.939	13224.59
491.143	12608.15
491.346	12329.63
491.55	12409.5
491.754	12165.79
491.958	11985.57
492.161	11836.06
492.365	11434.66
492.569	11338.41
492.772	11135.66
492.976	11225.77
493.18	10867.38
493.383	10916.53
493.587	10846.9
493.79	10871.47
493.994	10537.65
494.197	10513.08
494.401	10222.27
494.605	10078.91
494.808	10162.87
495.012	10029.76
495.215	9896.64
495.419	9925.31
495.622	9661.12
495.825	9767.62
496.029	9575.11
496.232	9798.34
496.436	9552.58
496.639	9767.62
496.843	9616.07
497.046	9562.82
497.249	9888.45
497.453	9648.83
497.656	9528
497.859	9706.18
498.063	9571.01
498.266	9724.61
498.469	9409.22
498.673	9497.28
498.876	9747.14
499.079	9534.15
499.282	9683.65
499.485	9913.02
499.689	9798.34
499.892	9882.3
500.095	9773.76
500.298	9880.25
500.501	9941.69
500.705	10394.29
500.908	10162.87
501.111	10375.86
501.314	10388.15
501.517	10613.43
501.72	10615.48
501.923	10484.41
502.126	10803.89
502.329	11158.19
502.532	11279.02
502.735	11129.52
502.938	11442.85
503.141	11252.39
503.344	11426.47
503.547	11586.21
503.75	11848.35
503.953	11983.52
504.156	12280.47
504.359	12137.12
504.562	12438.17
504.765	12704.4
504.968	12849.81
505.17	13023.89
505.373	13394.57
505.576	13515.4
505.779	13828.74
505.982	13691.52
506.185	14242.43
506.387	14029.44
506.59	14449.27
506.793	15094.38
506.996	15221.36
507.198	15676.01
507.401	15377
507.604	15946.34
507.807	16259.68
508.009	16732.76
508.212	16728.66
508.415	17261.13
508.617	17570.38
508.82	17766.98
509.022	17941.06
509.225	18657.85
509.428	18946.61
509.63	19206.7
509.833	19444.27
510.035	20515.36
510.238	20599.32
510.44	20877.85
510.643	21682.7
510.845	22034.95
511.048	22061.57
511.25	22768.12
511.453	23284.21
511.655	24150.5
511.858	24252.9
512.06	25418.19
512.262	25125.33
512.465	25702.86
512.667	26702.27
512.87	26843.58
513.072	27527.6
513.274	28516.77
513.477	28930.46
513.679	29284.76
513.881	30091.66
514.084	30816.64
514.286	31367.54
514.488	32065.9
514.69	33128.8
514.893	33702.23
515.095	34249.03
515.297	35084.61
515.499	35352.89
515.701	36395.31
515.904	36995.36
516.106	37509.4
516.308	38611.21
516.51	39115.01
516.712	39688.44
516.914	40438
517.116	41492.7
517.318	42068.18
517.52	42860.74
517.722	43339.97
517.925	44259.51
518.127	44939.43
518.329	46235.8
518.531	45564.06
518.733	47290.5
518.935	48185.46
519.136	48427.12
519.338	49743.97
519.54	50075.74
519.742	50972.75
519.944	51423.3
520.146	52379.7
520.348	52953.13
520.55	53256.23
520.752	53671.97
520.954	55171.08
521.155	55216.14
521.357	56123.39
521.559	56606.71
521.761	57348.07
521.963	57071.6
522.164	57954.27
522.366	58345.44
522.568	58775.51
522.77	59344.84
522.971	60121.02
523.173	59459.53
523.375	60374.97
523.576	60125.12
523.778	60323.77
523.98	61071.28
524.181	61265.84
524.383	61484.97
524.584	61937.57
524.786	61687.72
524.988	61261.74
525.189	61826.98
525.391	62142.37
525.592	62494.62
525.794	62486.43
525.995	62027.68
526.197	61761.45
526.398	61810.6
526.6	61837.22
526.801	61777.83
527.003	61466.54
527.204	61378.48
527.406	61669.29
527.607	61169.58
527.808	60856.24
528.01	59996.1
528.211	60235.71
528.412	60606.39
528.614	59633.61
528.815	59594.7
529.016	59375.56
529.218	58431.45
529.419	58333.15
529.62	57579.49
529.822	57186.28
530.023	56428.54
530.224	56393.72
530.425	55658.5
530.626	54431.77
530.828	54269.98
531.029	54997.01
531.23	53516.32
531.431	52643.89
531.632	52299.83
531.833	51841.09
532.035	50776.14
532.236	50294.87
532.437	50473.04
532.638	49297.51
532.839	49088.62
533.04	48615.54
533.241	47263.88
533.442	47581.31
533.643	46538.9
533.844	46153.88
534.045	45504.67
534.246	44640.43
534.447	44308.66
534.648	43870.39
534.849	43292.86
535.05	42238.16
535.251	42227.92
535.451	41396.45
535.652	41191.65
535.853	40061.17
536.054	40087.79
536.255	39454.97
536.456	38451.47
536.657	38660.36
536.857	37706.01
537.058	37042.46
537.259	36798.76
537.46	36462.89
537.66	35453.24
537.861	35477.82
538.062	34797.89
538.263	34615.62
538.463	33800.53
538.664	33554.77
538.865	32860.51
539.065	33304.92
539.266	32186.73
539.466	32108.91
539.667	31455.61
539.868	31568.24
540.068	30841.21
540.269	30560.64
540.469	30386.57
540.67	29598.1
540.87	29512.08
541.071	29184.41
541.271	28944.8
541.472	28344.74
541.672	28041.64
541.873	27599.28
542.073	26991.03
542.274	27292.08
542.474	26991.03
542.675	26407.36
542.875	26579.39
543.075	25770.44
543.276	25424.34
543.476	25764.3
543.676	24969.69
543.877	24840.67
544.077	24670.68
544.277	24386.02
544.478	24263.14
544.678	23763.43
544.878	23556.59
545.078	23267.83
545.279	22569.47
545.479	22727.16
545.679	22581.76
545.879	22157.83
546.079	21932.55
546.28	21807.62
546.48	21477.9
546.68	21078.55
546.88	21080.6
547.08	20695.58
547.28	20437.53
547.48	19943.97
547.68	20259.36
547.88	19483.18
548.081	19718.7
548.281	18977.33
548.481	19003.96
548.681	18924.08
548.881	18461.24
549.081	18065.99
549.28	17828.42
549.48	17613.38
549.68	17586.76
549.88	17447.5
550.08	17009.23
550.28	16816.72
550.48	16556.63
550.68	16249.44
550.88	15991.39
551.08	16134.75
551.279	15891.04
551.479	15295.08
551.679	15172.21
551.879	15118.96
552.079	14805.62
552.278	14557.82
552.478	14637.69
552.678	14211.71
552.878	14197.37
553.077	13625.99
553.277	13406.86
553.477	13515.4
553.676	12987.02
553.876	12798.61
554.076	12663.44
554.275	12733.08
554.475	12139.16
554.674	12399.26
554.874	12098.2
555.074	11850.4
555.273	11561.64
555.473	11352.74
555.672	11150
555.872	11006.64
556.071	11043.5
556.271	11000.49
556.47	10697.39
556.67	10410.68
556.869	10314.42
557.068	9992.89
557.268	9675.46
557.467	9786.05
557.667	9730.75
557.866	9409.22
558.065	9198.28
558.265	9208.52
558.464	9009.87
558.663	8979.15
558.863	8721.1
559.062	8448.72
559.261	8467.16
559.461	8379.09
559.66	8104.67
559.859	8016.6
560.058	7776.99
560.258	7746.27
560.457	7582.43
560.656	7695.07
560.855	7201.51
561.054	7394.02
561.253	7181.03
561.453	7160.55
561.652	7101.16
561.851	7117.54
562.05	6597.36
562.249	6765.29
562.448	6589.17
562.647	6406.9
562.846	6304.5
563.045	6392.56
563.244	6357.75
563.443	6146.81
563.642	5935.87
563.841	5909.24
564.04	5843.71
564.239	5804.8
564.438	5618.43
564.637	5387.01
564.836	5534.46
565.035	5468.93
565.234	5276.42
565.432	5194.5
565.631	5274.37
565.83	5049.1
566.029	4866.83
566.228	4983.56
566.427	5063.43
566.625	4733.71
566.824	4737.81
567.023	4698.89
567.222	4526.86
567.42	4625.17
567.619	4596.5
567.818	4473.62
568.016	4682.51
568.215	4291.35
568.414	4301.59
568.612	4178.71
568.811	4145.94
569.01	4092.69
569.208	3961.62
569.407	3975.96
569.605	3844.89
569.804	3914.52
570.002	3762.97
570.201	3726.11
570.4	3812.12
570.598	3652.38
570.797	3685.15
570.995	3416.87
571.193	3513.12
571.392	3494.69
571.59	3228.45
571.789	3486.5
571.987	3367.71
572.186	3373.86
572.384	3177.25
572.582	3148.58
572.781	3185.44
572.979	3001.13
573.177	2960.17
573.376	2970.41
573.574	2863.91
573.772	2917.16
573.971	2781.99
574.169	2632.49
574.367	2833.19
574.565	2687.79
574.763	2685.74
574.962	2601.77
575.16	2534.19
575.358	2425.65
575.556	2423.6
575.754	2493.23
575.952	2411.31
576.151	2335.54
576.349	2405.17
576.547	2313.01
576.745	2308.91
576.943	2169.65
577.141	2188.08
577.339	2091.83
577.537	2145.08
577.735	2290.48
577.933	2087.73
578.131	1987.38
578.329	2147.12
578.527	2020.15
578.725	1964.86
578.923	1844.03
579.121	1932.09
579.319	1751.87
579.516	1794.87
579.714	2079.54
579.912	1884.98
580.11	1706.81
580.308	1768.25
580.506	1729.34
580.704	1565.5
580.901	1606.46
581.099	1815.35
581.297	1663.8
581.495	1518.4
581.692	1512.25
581.89	1620.8
582.088	1508.16
582.285	1504.06
582.483	1536.83
582.681	1426.24
582.878	1364.8
583.076	1362.75
583.274	1327.94
583.471	1547.07
583.669	1375.04
583.866	1286.98
584.064	1258.31
584.262	1209.15
584.459	1260.35
584.657	1229.63
584.854	1262.4
585.052	1358.66
585.249	1323.84
585.447	1280.83
585.644	1010.5
585.841	1256.26
586.039	1180.48
586.236	1213.25
586.434	1172.29
586.631	938.82
586.828	1022.79
587.026	1145.67
587.223	992.07
587.42	994.12
587.618	1090.37
587.815	1104.71
588.012	1008.45
588.21	938.82
588.407	1059.65
588.604	996.17
588.801	873.29
588.999	959.3
589.196	1049.41
589.393	951.11
589.59	1000.26
589.787	926.54
589.984	930.63
590.182	932.68
590.379	904.01
590.576	930.63
590.773	832.33
590.97	873.29
591.167	987.97
591.364	951.11
591.561	820.04
591.758	1043.27
591.955	998.21
592.152	910.15
592.349	863.05
592.546	836.42
592.743	746.31
592.94	762.7
593.137	869.19
593.334	922.44
593.531	930.63
593.727	922.44
593.924	875.34
594.121	836.42
594.318	879.43
594.515	928.58
594.712	969.54
594.908	1028.93
595.105	908.1
595.302	897.86
595.499	1000.26
595.696	967.49
595.892	879.43
596.089	1049.41
596.286	975.69
596.482	1106.76
596.679	1123.14
596.876	1002.31
597.072	1123.14
597.269	1176.39
597.466	1227.59
597.662	1188.68
597.859	1194.82
598.055	1272.64
598.252	1254.21
598.448	1364.8
598.645	1456.96
598.841	1491.77
599.038	1436.48
599.234	1454.91
599.431	1669.95
599.627	1667.9
599.824	1667.9
600.02	1790.78
600.217	1784.63
600.413	1909.56
600.609	1870.65
600.806	2151.22
601.002	2057.01
601.198	2026.29
601.395	2362.16
601.591	2140.98
601.787	2472.75
601.984	2538.29
602.18	2583.34
602.376	2687.79
602.572	2872.11
602.769	3003.18
602.965	3025.7
603.161	3146.53
603.357	3234.6
603.553	3341.09
603.75	3423.01
603.946	3650.33
604.142	3621.66
604.338	3814.17
604.534	3857.18
604.73	3994.39
604.926	4008.73
605.122	4246.29
605.318	4475.67
605.514	4545.3
605.71	4649.74
605.906	4879.11
606.102	5128.97
606.298	5120.78
606.494	5341.96
606.69	5538.56
606.886	5720.83
607.082	5763.84
607.278	5956.35
607.474	6243.06
607.67	6402.8
607.866	6427.38
608.062	6701.81
608.257	6847.21
608.453	6945.52
608.649	7181.03
608.845	7303.91
609.041	7394.02
609.236	7879.39
609.432	7912.16
609.628	8225.5
609.824	8495.83
610.019	8401.62
610.215	9091.79
610.411	9319.11
610.606	9536.2
610.802	9704.13
610.998	9820.86
611.193	10277.56
611.389	10312.38
611.584	10676.91
611.78	10816.18
611.976	11313.83
612.171	11559.59
612.367	11719.33
612.562	12149.4
612.758	11979.42
612.953	12538.52
613.149	13152.91
613.344	13369.99
613.539	13838.98
613.735	14201.47
613.93	14611.06
614.126	14846.58
614.321	15284.84
614.517	15716.97
614.712	15909.47
614.907	16579.16
615.103	16904.79
615.298	16955.99
615.493	17832.52
615.688	18000.45
615.884	18651.7
616.079	18942.52
616.274	19782.18
616.47	20228.64
616.665	20484.64
616.86	21148.18
617.055	21606.92
617.25	22008.33
617.445	22929.91
617.641	23255.54
617.836	23978.47
618.031	24250.85
618.226	25297.36
618.421	25145.81
618.616	26210.76
618.811	26345.92
619.006	27937.2
619.201	27707.82
619.396	29047.19
619.591	28993.95
619.786	30138.76
619.981	30431.62
620.176	31412.6
620.371	31547.76
620.566	32348.52
620.761	32932.19
620.956	34017.61
621.151	34167.12
621.346	35023.17
621.541	35422.52
621.735	36763.94
621.93	36639.01
622.125	37828.88
622.32	37796.12
622.515	39127.3
622.709	39627
622.904	40427.76
623.099	40927.46
623.294	41810.14
623.488	42059.99
623.683	43497.66
623.878	43432.13
624.072	44916.9
624.267	45246.63
624.462	45715.61
624.656	46555.28
624.851	47577.22
625.046	47405.19
625.24	48593.01
625.435	48762.99
625.629	49762.4
625.824	50436.18
626.018	50858.06
626.213	50675.79
626.407	52066.36
626.602	52058.17
626.796	53061.68
626.991	53534.76
627.185	53999.65
627.38	54157.34
627.574	54376.47
627.768	54687.76
627.963	54720.53
628.157	54978.57
628.352	55758.85
628.546	55293.96
628.74	56164.35
628.935	55334.92
629.129	56025.09
629.323	55230.47
629.517	55040.01
629.712	54753.3
629.906	54251.55
630.1	53608.48
630.294	53645.35
630.489	53057.58
630.683	52344.89
630.877	51030.09
631.071	50538.58
631.265	50065.5
631.459	49299.56
631.653	47841.4
631.848	47065.22
632.042	45938.84
632.236	45119.65
632.43	43589.82
632.624	42727.63
632.818	41480.41
633.012	40052.98
633.206	38768.9
633.4	37959.95
633.594	36292.91
633.788	35420.47
633.982	34025.81
634.176	33001.82
634.369	31768.94
634.563	30497.16
634.757	29596.05
634.951	28402.08
635.145	27404.72
635.339	26360.26
635.533	25315.8
635.726	24549.85
635.92	22893.05
636.114	22284.8
636.308	21301.78
636.501	20582.94
636.695	19794.47
636.889	18868.79
637.083	18111.04
637.276	17396.3
637.47	16710.23
637.664	16069.22
637.857	15575.66
638.051	15024.75
638.244	14256.76
638.438	13685.38
638.632	13415.05
638.825	12470.94
639.019	12173.98
639.212	11449
639.406	11268.78
639.599	10691.25
639.793	10160.83
639.986	9798.34
640.18	9620.16
640.373	9345.73
640.567	8626.9
640.76	8581.84
640.954	8055.51
641.147	8057.56
641.34	7514.85
641.534	7275.24
641.727	7131.88
641.92	6974.19
642.114	6544.11
642.307	6312.69
642.5	5958.39
642.694	5878.52
642.887	5481.22
643.08	5354.24
643.273	5192.45
643.467	4903.69
643.66	4897.55
643.853	4588.3
644.046	4363.03
644.239	4338.45
644.432	4025.11
644.626	3775.26
644.819	3707.68
645.012	3734.3
645.205	3504.93
645.398	3453.73
645.591	3255.08
645.784	3103.53
645.977	2962.22
646.17	2853.67
646.363	2759.47
646.556	2663.21
646.749	2636.59
646.942	2536.24
647.135	2382.64
647.328	2298.67
647.521	2237.24
647.714	2036.53
647.907	2106.17
648.099	2028.34
648.292	1997.62
648.485	1895.22
648.678	1770.3
648.871	1706.81
649.064	1612.6
649.256	1581.89
649.449	1502.01
649.642	1495.87
649.835	1346.37
650.027	1334.08
650.22	1465.15
650.413	1323.84
650.605	1377.09
650.798	1164.1
650.991	1137.48
651.183	1076.04
651.376	1196.87
651.568	1147.72
651.761	965.45
651.954	1114.95
652.146	942.92
652.339	985.93
652.531	881.48
652.724	848.71
652.916	811.85
653.109	701.26
653.301	844.62
653.494	850.76
653.686	734.03
653.879	830.28
654.071	705.35
654.263	680.78
654.456	574.28
654.648	717.64
654.84	654.16
655.033	607.05
655.225	697.16
655.417	486.22
655.61	678.73
655.802	607.05
655.994	680.78
656.186	535.37
656.379	629.58
656.571	486.22
656.763	484.17
656.955	449.36
657.148	465.74
657.34	582.48
657.532	430.93
657.724	351.06
657.916	504.65
658.108	541.52
658.3	512.85
658.492	430.93
658.684	330.58
658.876	480.08
659.068	287.57
659.26	301.9
659.452	316.24
659.644	340.82
659.836	435.02
660.028	422.73
660.22	334.67
660.412	281.43
660.604	262.99
660.796	338.77
660.988	371.54
661.18	269.14
661.372	340.82
661.563	295.76
661.755	361.3
661.947	297.81
662.139	271.19
662.331	346.96
662.522	316.24
662.714	148.31
662.906	207.7
663.097	260.95
663.289	189.27
663.481	170.83
663.673	226.13
663.864	326.48
664.056	359.25
664.247	246.61
664.439	412.5
664.631	277.33
664.822	324.43
665.014	250.71
665.205	125.78
665.397	236.37
665.588	275.28
665.78	207.7
665.971	316.24
666.163	238.42
666.354	293.71
666.546	113.49
666.737	172.88
666.929	207.7
667.12	168.79
667.311	228.18
667.503	185.17
667.694	156.5
667.885	275.28
668.077	275.28
668.268	88.92
668.459	148.31
668.651	230.23
668.842	230.23
669.033	189.27
669.224	142.16
669.416	316.24
669.607	197.46
669.798	162.64
669.989	269.14
670.18	205.65
670.371	349.01
670.563	35.67
670.754	301.9
670.945	244.56
671.136	209.75
671.327	195.41
671.518	279.38
671.709	289.62
671.9	203.6
672.091	271.19
672.282	254.8
672.473	222.03
672.664	105.3
672.855	265.04
673.046	189.27
673.237	322.38
673.428	230.23
673.619	219.99
673.809	250.71
674	334.67
674.191	244.56
674.382	252.75
674.573	162.64
674.764	240.47
674.954	383.82
675.145	154.45
675.336	185.17
675.527	127.83
675.717	191.31
675.908	131.92
676.099	181.07
676.289	203.6
676.48	150.36
676.671	176.98
676.861	279.38
677.052	262.99
677.243	205.65
677.433	273.23
677.624	236.37
677.814	277.33
678.005	240.47
678.195	303.95
678.386	172.88
678.576	213.84
678.767	213.84
678.957	232.27
679.148	340.82
679.338	252.75
679.529	211.79
679.719	336.72
679.909	396.11
680.1	355.15
680.29	332.62
680.481	193.36
680.671	344.91
680.861	328.53
681.052	295.76
681.242	267.09
681.432	338.77
681.622	351.06
681.813	174.93
682.003	295.76
682.193	183.12
682.383	269.14
682.573	281.43
682.764	246.61
682.954	330.58
683.144	359.25
683.334	273.23
683.524	359.25
683.714	312.14
683.904	295.76
684.094	322.38
684.284	301.9
684.474	357.2
684.664	320.34
684.854	406.35
685.044	326.48
685.234	412.5
685.424	365.39
685.614	289.62
685.804	394.06
685.994	310.1
686.184	299.86
686.374	316.24
686.564	238.42
686.753	299.86
686.943	207.7
687.133	295.76
687.323	254.8
687.513	408.4
687.702	254.8
687.892	375.63
688.082	418.64
688.272	387.92
688.461	303.95
688.651	424.78
688.841	314.19
689.03	312.14
689.22	213.84
689.41	285.52
689.599	344.91
689.789	287.57
689.979	465.74
690.168	324.43
690.358	322.38
690.547	232.27
690.737	299.86
690.926	373.58
691.116	308.05
691.305	287.57
691.495	322.38
691.684	248.66
691.874	254.8
692.063	359.25
692.252	365.39
692.442	342.86
692.631	289.62
692.82	310.1
693.01	402.26
693.199	271.19
693.388	281.43
693.578	295.76
693.767	273.23
693.956	353.1
694.146	238.42
694.335	306
694.524	244.56
694.713	361.3
694.902	238.42
695.092	234.32
695.281	240.47
695.47	316.24
695.659	283.47
695.848	252.75
696.037	228.18
696.226	236.37
696.415	224.08
696.604	480.08
696.793	295.76
696.982	207.7
697.171	371.54
697.36	271.19
697.549	271.19
697.738	203.6
697.927	265.04
698.116	156.5
698.305	303.95
698.494	262.99
698.683	238.42
698.872	381.78
699.061	230.23
699.25	248.66
699.438	246.61
699.627	283.47
699.816	369.49
700.005	144.21
700.193	332.62
700.382	297.81
700.571	291.66
700.76	152.4
700.948	351.06
701.137	334.67
701.326	351.06
701.514	211.79
701.703	279.38
701.892	346.96
702.08	512.85
702.269	197.46
702.457	252.75
702.646	209.75
702.834	154.45
703.023	293.71
703.212	367.44
703.4	185.17
703.589	187.22
703.777	197.46
703.965	170.83
704.154	222.03
704.342	136.02
704.531	222.03
704.719	285.52
704.907	410.45
705.096	191.31
705.284	181.07
705.472	275.28
705.661	217.94
705.849	250.71
706.037	281.43
706.226	318.29
706.414	279.38
706.602	185.17
706.79	381.78
706.979	203.6
707.167	285.52
707.355	144.21
707.543	389.97
707.731	269.14
707.919	207.7
708.107	236.37
708.296	181.07
708.484	115.54
708.672	203.6
708.86	242.51
709.048	115.54
709.236	187.22
709.424	271.19
709.612	316.24
709.8	199.51
709.988	234.32
710.176	365.39
710.364	332.62
710.551	207.7
710.739	150.36
710.927	176.98
711.115	232.27
711.303	240.47
711.491	392.02
711.679	240.47
711.866	379.73
712.054	293.71
712.242	242.51
712.43	312.14
712.617	219.99
712.805	398.16
712.993	295.76
713.181	154.45
713.368	308.05
713.556	244.56
713.744	211.79
713.931	418.64
714.119	344.91
714.306	230.23
714.494	267.09
714.682	269.14
714.869	156.5
715.057	355.15
715.244	230.23
715.432	256.85
715.619	228.18
715.807	269.14
715.994	238.42
716.182	267.09
716.369	340.82
716.556	349.01
716.744	201.55
716.931	207.7
717.119	336.72
717.306	279.38
717.493	283.47
717.681	207.7
717.868	244.56
718.055	389.97
718.242	281.43
718.43	316.24
718.617	381.78
718.804	291.66
718.991	371.54
719.179	363.34
719.366	361.3
719.553	328.53
719.74	252.75
719.927	273.23
720.114	285.52
720.301	285.52
720.488	258.9
720.676	213.84
720.863	443.21
721.05	420.69
721.237	283.47
721.424	346.96
721.611	332.62
721.798	191.31
721.985	209.75
722.172	277.33
722.358	299.86
722.545	383.82
722.732	351.06
722.919	371.54
723.106	312.14
723.293	236.37
723.48	293.71
723.667	285.52
723.853	322.38
724.04	394.06
724.227	461.65
724.414	306
724.6	301.9
724.787	422.73
724.974	381.78
725.161	316.24
725.347	252.75
725.534	334.67
725.72	408.4
725.907	349.01
726.094	406.35
726.28	277.33
726.467	402.26
726.653	244.56
726.84	353.1
727.027	406.35
727.213	338.77
727.4	351.06
727.586	351.06
727.773	326.48
727.959	293.71
728.145	363.34
728.332	265.04
728.518	289.62
728.705	342.86
728.891	258.9
729.077	283.47
729.264	240.47
729.45	299.86
729.636	408.4
729.823	351.06
730.009	406.35
730.195	396.11
730.382	422.73
730.568	172.88
730.754	314.19
730.94	283.47
731.126	353.1
731.313	373.58
731.499	324.43
731.685	498.51
731.871	336.72
732.057	379.73
732.243	389.97
732.429	342.86
732.615	437.07
732.801	463.69
732.987	301.9
733.173	387.92
733.359	344.91
733.545	326.48
733.731	349.01
733.917	359.25
734.103	404.3
734.289	394.06
734.475	326.48
734.661	535.37
734.847	355.15
735.033	361.3
735.219	457.55
735.404	291.66
735.59	342.86
735.776	303.95
735.962	289.62
736.148	379.73
736.333	383.82
736.519	289.62
736.705	416.59
736.89	324.43
737.076	369.49
737.262	301.9
737.447	265.04
737.633	389.97
737.819	447.31
738.004	314.19
738.19	365.39
738.375	387.92
738.561	385.87
738.747	351.06
738.932	254.8
739.118	455.5
739.303	392.02
739.489	406.35
739.674	400.21
739.859	299.86
740.045	424.78
740.23	394.06
740.416	195.41
740.601	424.78
740.786	326.48
740.972	416.59
741.157	303.95
741.342	322.38
741.528	306
741.713	379.73
741.898	306
742.084	349.01
742.269	336.72
742.454	332.62
742.639	422.73
742.824	359.25
743.01	523.09
743.195	471.89
743.38	383.82
743.565	328.53
743.75	432.97
743.935	387.92
744.12	406.35
744.305	295.76
744.49	324.43
744.675	336.72
744.86	379.73
745.045	338.77
745.23	314.19
745.415	340.82
745.6	473.93
745.785	346.96
745.97	475.98
746.155	377.68
746.34	328.53
746.525	330.58
746.71	389.97
746.895	238.42
747.079	176.98
747.264	279.38
747.449	373.58
747.634	404.3
747.819	306
748.003	297.81
748.188	320.34
748.373	394.06
748.557	342.86
748.742	351.06
748.927	277.33
749.111	230.23
749.296	334.67
749.481	400.21
749.665	346.96
749.85	246.61
750.034	389.97
750.219	273.23
750.404	258.9
750.588	357.2
750.773	226.13
750.957	332.62
751.141	310.1
751.326	281.43
751.51	234.32
751.695	287.57
751.879	314.19
752.064	373.58
752.248	291.66
752.432	381.78
752.617	322.38
752.801	330.58
752.985	205.65
753.17	283.47
753.354	252.75
753.538	287.57
753.722	187.22
753.907	195.41
754.091	101.2
754.275	271.19
754.459	123.73
754.643	179.03
754.828	250.71
755.012	238.42
755.196	146.26
755.38	297.81
755.564	244.56
755.748	240.47
755.932	289.62
756.116	277.33
756.3	295.76
756.484	146.26
756.668	308.05
756.852	179.03
757.036	228.18
757.22	258.9
757.404	162.64
757.588	224.08
757.772	303.95
757.956	174.93
758.14	283.47
758.323	164.69
758.507	269.14
758.691	191.31
758.875	293.71
759.059	287.57
759.242	256.85
759.426	252.75
759.61	240.47
759.794	146.26
759.977	250.71
760.161	365.39
760.345	228.18
760.528	217.94
760.712	230.23
760.895	230.23
761.079	248.66
761.263	201.55
761.446	156.5
761.63	228.18
761.813	156.5
761.997	154.45
762.18	131.92
762.364	131.92
762.547	90.96
762.731	84.82
762.914	228.18
763.098	166.74
763.281	140.12
763.464	176.98
763.648	164.69
763.831	187.22
764.015	107.35
764.198	213.84
764.381	152.4
764.564	84.82
764.748	131.92
764.931	203.6
765.114	146.26
765.297	289.62
765.481	74.58
765.664	136.02
765.847	224.08
766.03	246.61
766.213	115.54
766.397	99.16
766.58	62.29
766.763	191.31
766.946	52.05
767.129	117.59
767.312	109.4
767.495	199.51
767.678	95.06
767.861	238.42
768.044	148.31
768.227	115.54
768.41	136.02
768.593	168.79
768.776	209.75
768.959	148.31
769.142	156.5
769.324	103.25
769.507	64.34
769.69	125.78
769.873	121.68
770.056	256.85
770.239	238.42
770.421	207.7
770.604	217.94
770.787	133.97
770.97	185.17
771.152	84.82
771.335	148.31
771.518	109.4
771.7	197.46
771.883	160.59
772.066	82.77
772.248	209.75
772.431	211.79
772.613	197.46
772.796	119.64
772.978	170.83
773.161	193.36
773.343	74.58
773.526	47.96
773.708	19.29
773.891	27.48
774.073	21.33
774.256	33.62
774.438	160.59
774.621	76.63
774.803	138.07
774.985	95.06
775.168	197.46
775.35	103.25
775.532	209.75
775.715	76.63
775.897	78.68
776.079	74.58
776.261	58.2
776.444	103.25
776.626	84.82
776.808	37.72
776.99	74.58
777.173	127.83
777.355	95.06
777.537	121.68
777.719	140.12
777.901	0.85
778.083	95.06
778.265	23.38
778.447	66.39
778.629	103.25
778.811	138.07
778.993	142.16
779.175	58.2
779.357	170.83
779.539	21.33
779.721	56.15
779.903	115.54
780.085	84.82
780.267	99.16
780.449	80.72
780.631	150.36
780.812	162.64
780.994	43.86
781.176	-5.29
781.358	31.57
781.54	43.86
781.721	121.68
781.903	103.25
782.085	82.77
782.267	129.88
782.448	41.81
782.63	-17.58
782.812	93.01
782.993	64.34
783.175	181.07
783.357	64.34
783.538	88.92
783.72	93.01
783.901	72.53
784.083	140.12
784.264	33.62
784.446	-36.01
784.627	11.09
784.809	142.16
784.99	29.52
785.172	35.67
785.353	33.62
785.535	66.39
785.716	25.43
785.897	29.52
786.079	58.2
786.26	52.05
786.441	58.2
786.623	-1.19
786.804	54.1
786.985	103.25
787.167	68.44
787.348	21.33
787.529	13.14
787.71	164.69
787.891	68.44
788.073	-38.06
788.254	17.24
788.435	187.22
788.616	29.52
788.797	52.05
788.978	-15.53
789.159	31.57
789.34	133.97
789.522	39.76
789.703	-9.39
789.884	158.55
790.065	62.29
790.246	115.54
790.427	82.77
790.607	140.12
790.788	111.44
790.969	-93.35
791.15	93.01
791.331	19.29
791.512	45.91
791.693	-23.72
791.874	66.39
792.054	183.12
792.235	142.16
792.416	-66.73
792.597	11.09
792.778	107.35
792.958	74.58
793.139	88.92
793.32	93.01
793.5	29.52
793.681	115.54
793.862	123.73
794.042	74.58
794.223	-33.96
794.404	21.33
794.584	-25.77
794.765	45.91
794.945	-56.49
795.126	56.15
795.306	109.4
795.487	-33.96
795.667	-48.3
795.848	70.48
796.028	-54.44
796.209	-23.72
796.389	162.64
796.57	-11.43
796.75	-23.72
796.93	56.15
797.111	-3.24
797.291	90.96
797.471	123.73
797.652	-40.11
797.832	47.96
798.012	146.26
798.192	25.43
798.373	-68.78
798.553	72.53
798.733	27.48
798.913	23.38
799.093	41.81
799.274	54.1
799.454	72.53
799.634	78.68
799.814	99.16
799.994	70.48
800.174	113.49
800.354	86.87
800.534	-48.3
800.714	80.72
800.894	-31.91
801.074	-85.16
801.254	-36.01
801.434	111.44
801.614	19.29
801.794	-27.82
801.974	1909.56
802.154	52.05
802.334	125.78
802.514	-95.4
802.693	54.1
802.873	47.96
803.053	82.77
803.233	35.67
803.413	21.33
803.592	-56.49
803.772	-31.91
803.952	-27.82
804.131	-31.91
804.311	138.07
804.491	138.07
804.67	-48.3
804.85	-17.58
805.03	93.01
805.209	119.64
805.389	-38.06
805.568	27.48
805.748	-11.43
805.928	9.05
806.107	95.06
806.287	35.67
806.466	111.44
806.646	-46.25
806.825	50
807.004	-31.91
807.184	70.48
807.363	156.5
807.543	80.72
807.722	-13.48
807.901	142.16
808.081	125.78
808.26	-60.59
808.439	11.09
808.619	21.33
808.798	4.95
808.977	74.58
809.156	86.87
809.336	-11.43
809.515	150.36
809.694	-11.43
809.873	-19.63
810.052	-15.53
810.231	129.88
810.411	72.53
810.59	140.12
810.769	-19.63
810.948	125.78
811.127	-54.44
811.306	17.24
811.485	-21.67
811.664	123.73
811.843	54.1
812.022	76.63
812.201	-46.25
812.38	66.39
812.559	-83.11
812.737	7
812.916	-23.72
813.095	-42.15
813.274	70.48
813.453	-9.39
813.632	74.58
813.811	27.48
813.989	-87.21
814.168	58.2
814.347	-21.67
814.526	7
814.704	90.96
814.883	119.64
815.062	21.33
815.24	21.33
815.419	-54.44
815.598	31.57
815.776	-97.45
815.955	66.39
816.133	-95.4
816.312	43.86
816.49	-50.35
816.669	9.05
816.847	58.2
817.026	39.76
817.204	15.19
817.383	13.14
817.561	-25.77
817.74	95.06
817.918	39.76
818.097	-62.63
818.275	-19.63
818.453	70.48
818.632	70.48
818.81	-58.54
818.988	7
819.167	-15.53
819.345	33.62
819.523	17.24
819.701	0.85
819.879	-9.39
820.058	-21.67
820.236	70.48
820.414	-19.63
820.592	0.85
820.77	37.72
820.948	-42.15
821.127	58.2
821.305	52.05
821.483	-52.39
821.661	7
821.839	23.38
822.017	-25.77
822.195	45.91
822.373	117.59
822.551	95.06
822.729	58.2
822.907	-21.67
823.085	39.76
823.262	11.09
823.44	-27.82
823.618	-23.72
823.796	31.57
823.974	15.19
824.152	-9.39
824.329	80.72
824.507	-64.68
824.685	99.16
824.863	-25.77
825.04	13.14
825.218	70.48
825.396	66.39
825.574	-17.58
825.751	35.67
825.929	72.53
826.107	-38.06
826.284	41.81
826.462	72.53
826.639	-40.11
826.817	-76.97
826.994	25.43
827.172	25.43
827.349	82.77
827.527	115.54
827.704	-27.82
827.882	84.82
828.059	-38.06
828.237	-31.91
828.414	-31.91
828.591	-101.55
828.769	19.29
828.946	-15.53
829.124	80.72
829.301	68.44
829.478	47.96
829.655	23.38
829.833	68.44
830.01	-128.17
830.187	11.09
830.364	50
830.542	19.29
830.719	56.15
830.896	60.24
831.073	152.4
831.25	115.54
831.427	17.24
831.604	-1.19
831.782	-29.87
831.959	103.25
832.136	-117.93
832.313	41.81
832.49	-48.3
832.667	78.68
832.844	-54.44
833.021	152.4
833.198	45.91
833.374	-58.54
833.551	-11.43
833.728	-76.97
833.905	25.43
834.082	-70.83
834.259	-7.34
834.436	25.43
834.612	-60.59
834.789	72.53
834.966	-9.39
835.143	72.53
835.319	-9.39
835.496	58.2
835.673	-50.35
835.85	140.12
836.026	62.29
836.203	41.81
836.38	-31.91
836.556	56.15
836.733	-21.67
836.909	113.49
837.086	2.9
837.262	-62.63
837.439	-7.34
837.616	-38.06
837.792	47.96
837.968	119.64
838.145	-68.78
838.321	-31.91
838.498	23.38
838.674	99.16
838.851	43.86
839.027	15.19
839.203	21.33
839.38	9.05
839.556	23.38
839.732	43.86
839.909	-11.43
840.085	101.2
840.261	-25.77
840.437	33.62
840.614	-70.83
840.79	74.58
840.966	43.86
841.142	-1.19
841.318	-25.77
841.494	31.57
841.671	41.81
841.847	-11.43
842.023	-38.06
842.199	74.58
842.375	95.06
842.551	-119.98
842.727	-46.25
842.903	41.81
843.079	-113.83
843.255	121.68
843.431	-5.29
843.607	45.91
843.783	-117.93
843.959	56.15
844.134	-38.06
844.31	86.87
844.486	-17.58
844.662	-70.83
844.838	17.24
845.013	7
845.189	97.11
845.365	95.06
845.541	97.11
845.716	-36.01
845.892	93.01
846.068	-68.78
846.244	-50.35
846.419	-5.29
846.595	33.62
846.77	43.86
846.946	43.86
847.122	-15.53
847.297	4.95
847.473	43.86
847.648	-72.87
847.824	17.24
847.999	-124.07
848.175	7
848.35	31.57
848.526	84.82
848.701	160.59
848.876	78.68
849.052	52.05
849.227	-5.29
849.403	-7.34
849.578	-15.53
849.753	27.48
849.929	95.06
850.104	-52.39
850.279	0.85
850.454	107.35
850.63	9.05
850.805	11.09
850.98	2.9
851.155	23.38
851.33	47.96
851.505	-68.78
851.681	115.54
851.856	41.81
852.031	62.29
852.206	95.06
852.381	-58.54
852.556	-7.34
852.731	39.76
852.906	58.2
853.081	66.39
853.256	74.58
853.431	-19.63
853.606	-31.91
853.781	-1.19
853.956	-79.02
854.131	15.19
854.305	-3.24
854.48	25.43
854.655	-93.35
854.83	0.85
855.005	31.57
855.18	0.85
855.354	-7.34
855.529	56.15
855.704	43.86
855.879	78.68
856.053	-23.72
856.228	-19.63
856.403	-79.02
856.577	37.72
856.752	-111.78
856.926	-76.97
857.101	74.58
857.276	-25.77
857.45	4.95
857.625	84.82
857.799	60.24
857.974	15.19
858.148	-7.34
858.323	41.81
858.497	11.09
858.672	-17.58
858.846	-70.83
859.02	66.39
859.195	-29.87
859.369	23.38
859.543	-70.83
859.718	2.9
859.892	95.06
860.066	9.05
860.241	19.29
860.415	17.24
860.589	-23.72
860.763	45.91
860.938	-50.35
861.112	74.58
861.286	23.38
861.46	84.82
861.634	-29.87
861.808	88.92
861.982	-11.43
862.157	-89.26
862.331	-1.19
862.505	-54.44
862.679	-52.39
862.853	-50.35
863.027	37.72
863.201	154.45
863.375	-46.25
863.549	66.39
863.722	99.16
863.896	66.39
864.07	-21.67
864.244	-91.31
864.418	41.81
864.592	86.87
864.766	-1.19
864.939	21.33
865.113	-15.53
865.287	146.26
865.461	-21.67
865.634	37.72
865.808	56.15
865.982	-21.67
866.156	-5.29
866.329	-122.02
866.503	-11.43
866.676	37.72
866.85	64.34
867.024	-27.82
867.197	25.43
867.371	-76.97
867.544	76.63
867.718	-91.31
867.891	78.68
868.065	-7.34
868.238	50
868.412	72.53
868.585	68.44
868.759	-52.39
868.932	68.44
869.105	-17.58
869.279	-27.82
869.452	-64.68
869.625	2.9
869.799	-36.01
869.972	-83.11
870.145	0.85
870.319	52.05
870.492	-21.67
870.665	-56.49
870.838	-13.48
871.011	-148.65
871.185	60.24
871.358	-38.06
871.531	76.63
871.704	-46.25
871.877	19.29
872.05	-17.58
872.223	-95.4
872.396	37.72
872.569	88.92
872.742	-154.79
872.915	-23.72
873.088	-60.59
873.261	-54.44
873.434	66.39
873.607	-9.39
873.78	144.21
873.953	-111.78
874.126	4.95
874.299	37.72
874.471	-27.82
874.644	45.91
874.817	9.05
874.99	154.45
875.163	-21.67
875.335	13.14
875.508	15.19
875.681	58.2
875.853	-95.4
876.026	0.85
876.199	189.27
876.371	9.05
876.544	-42.15
876.717	-3.24
876.889	37.72
877.062	97.11
877.234	-52.39
877.407	35.67
877.579	45.91
877.752	-17.58
877.924	56.15
878.097	0.85
878.269	-1.19
878.442	86.87
878.614	35.67
878.786	-40.11
878.959	23.38
879.131	107.35
879.303	-70.83
879.476	17.24
879.648	76.63
879.82	-1.19
879.993	-19.63
880.165	-62.63
880.337	-85.16
880.509	7
880.681	-52.39
880.854	-7.34
881.026	111.44
881.198	107.35
881.37	-7.34
881.542	70.48
881.714	-68.78
881.886	-21.67
882.058	17.24
882.23	-15.53
882.402	-21.67
882.574	-33.96
882.746	138.07
882.918	35.67
883.09	52.05
883.262	-23.72
883.434	-5.29
883.606	-76.97
883.778	13.14
883.95	121.68
884.122	-62.63
884.293	25.43
884.465	76.63
884.637	15.19
884.809	-52.39
884.98	37.72
885.152	56.15
885.324	119.64
885.496	-36.01
885.667	-9.39
885.839	56.15
886.011	187.22
886.182	64.34
886.354	72.53
886.525	82.77
886.697	25.43
886.869	-64.68
887.04	-42.15
887.212	66.39
887.383	170.83
887.555	-56.49
887.726	-89.26
887.897	-70.83
888.069	17.24
888.24	121.68
888.412	27.48
888.583	-62.63
888.754	4.95
888.926	-83.11
889.097	9.05
889.268	-148.65
889.44	58.2
889.611	-89.26
889.782	-19.63
889.953	-33.96
890.125	117.59
890.296	-33.96
890.467	-89.26
890.638	-103.59
890.809	76.63
890.98	-15.53
891.151	80.72
891.323	121.68
891.494	-42.15
891.665	62.29
891.836	-38.06
892.007	-3.24
892.178	11.09
892.349	-46.25
892.52	-13.48
892.691	60.24
892.862	-68.78
893.032	-79.02
893.203	13.14
893.374	-19.63
893.545	97.11
893.716	-36.01
893.887	82.77
894.057	0.85
894.228	-11.43
894.399	-87.21
894.57	99.16
894.74	-23.72
894.911	50
895.082	-33.96
895.253	-79.02
895.423	4.95
895.594	62.29
895.764	35.67
895.935	-66.73
896.106	11.09
896.276	-38.06
896.447	47.96
896.617	-64.68
896.788	4.95
896.958	-11.43
897.129	33.62
897.299	-15.53
897.47	68.44
897.64	99.16
897.81	17.24
897.981	9.05
898.151	35.67
898.322	99.16
898.492	-17.58
898.662	-42.15
898.832	-42.15
899.003	47.96
899.173	66.39
899.343	-101.55
899.513	-44.2
