Data from USB4F104151__123__10-46-16-558.txt Node

Date: Wed Feb 26 10:46:16 EST 2025
User: louis
Spectrometer: USB4F10415
Trigger mode: 4
Integration Time (sec): 1.000000E-1
Scans to average: 1
Electric dark correction enabled: true
Nonlinearity correction enabled: false
Boxcar width: 0
XAxis mode: Wavelengths
Number of Pixels in Spectrum: 3648
>>>>>Begin Spectral Data<<<<<
178.204	-347.98
178.424	-347.98
178.644	-347.98
178.864	-372.56
179.084	-341.84
179.304	14.51
179.524	2.22
179.744	26.79
179.964	-59.22
180.184	51.37
180.404	45.23
180.624	10.41
180.844	0.17
181.064	-91.99
181.283	28.84
181.503	-106.32
181.723	77.99
181.943	-57.17
182.163	188.58
182.383	-55.12
182.602	16.55
182.822	198.82
183.042	151.72
183.262	22.7
183.482	-22.36
183.701	51.37
183.921	102.57
184.141	-12.12
184.361	51.37
184.58	10.41
184.8	45.23
185.02	2.22
185.239	114.86
185.459	73.9
185.679	149.67
185.898	-10.07
186.118	61.61
186.338	108.71
186.557	110.76
186.777	-130.9
186.997	32.94
187.216	84.14
187.436	252.07
187.655	69.8
187.875	49.32
188.095	-3.93
188.314	250.02
188.534	121
188.753	43.18
188.973	135.34
189.192	166.06
189.412	30.89
189.631	55.47
189.851	121
190.07	147.62
190.29	-32.6
190.509	71.85
190.729	32.94
190.948	250.02
191.168	217.26
191.387	161.96
191.607	34.99
191.826	108.71
192.045	59.56
192.265	100.52
192.484	49.32
192.704	-10.07
192.923	-24.4
193.142	172.2
193.362	41.13
193.581	114.86
193.8	32.94
194.02	121
194.239	57.51
194.458	47.27
194.678	-48.98
194.897	-18.26
195.116	69.8
195.335	75.95
195.555	51.37
195.774	-8.02
195.993	174.25
196.212	-30.55
196.432	14.51
196.651	16.55
196.87	-26.45
197.089	254.12
197.308	16.55
197.528	98.47
197.747	-83.8
197.966	80.04
198.185	141.48
198.404	-59.22
198.623	67.75
198.842	90.28
199.062	98.47
199.281	65.71
199.5	86.19
199.719	10.41
199.938	67.75
200.157	75.95
200.376	145.58
200.595	104.62
200.814	104.62
201.033	-5.97
201.252	157.86
201.471	41.13
201.69	90.28
201.909	53.42
202.128	86.19
202.347	59.56
202.566	104.62
202.785	-57.17
203.004	8.36
203.223	219.3
203.442	-1.88
203.661	-20.31
203.879	71.85
204.098	123.05
204.317	-26.45
204.536	82.09
204.755	-10.07
204.974	67.75
205.193	26.79
205.411	108.71
205.63	161.96
205.849	90.28
206.068	69.8
206.287	-53.08
206.505	176.3
206.724	43.18
206.943	20.65
207.162	-12.12
207.381	53.42
207.599	47.27
207.818	8.36
208.037	-12.12
208.255	14.51
208.474	55.47
208.693	59.56
208.911	20.65
209.13	121
209.349	22.7
209.567	104.62
209.786	90.28
210.005	22.7
210.223	61.61
210.442	-102.23
210.661	55.47
210.879	55.47
211.098	-8.02
211.316	98.47
211.535	47.27
211.753	20.65
211.972	63.66
212.191	57.51
212.409	41.13
212.628	118.95
212.846	-42.84
213.065	80.04
213.283	123.05
213.502	22.7
213.72	80.04
213.938	22.7
214.157	82.09
214.375	184.49
214.594	67.75
214.812	73.9
215.031	-38.74
215.249	20.65
215.467	96.43
215.686	77.99
215.904	100.52
216.122	86.19
216.341	180.39
216.559	65.71
216.778	59.56
216.996	45.23
217.214	45.23
217.432	61.61
217.651	-18.26
217.869	28.84
218.087	90.28
218.306	-12.12
218.524	37.03
218.742	86.19
218.96	139.43
219.179	-20.31
219.397	55.47
219.615	207.02
219.833	145.58
220.051	-69.46
220.27	116.9
220.488	114.86
220.706	43.18
220.924	0.17
221.142	-1.88
221.36	110.76
221.578	73.9
221.796	51.37
222.015	10.41
222.233	-34.64
222.451	121
222.669	-40.79
222.887	141.48
223.105	43.18
223.323	-12.12
223.541	-3.93
223.759	43.18
223.977	32.94
224.195	180.39
224.413	106.67
224.631	108.71
224.849	45.23
225.067	233.64
225.285	10.41
225.503	30.89
225.721	-51.03
225.939	14.51
226.157	39.08
226.375	198.82
226.592	6.31
226.81	-1.88
227.028	30.89
227.246	194.73
227.464	77.99
227.682	123.05
227.9	16.55
228.117	22.7
228.335	-12.12
228.553	65.71
228.771	49.32
228.989	71.85
229.206	108.71
229.424	16.55
229.642	10.41
229.86	-42.84
230.077	125.1
230.295	121
230.513	168.1
230.731	-1.88
230.948	104.62
231.166	131.24
231.384	-24.4
231.601	-10.07
231.819	196.78
232.037	34.99
232.254	-55.12
232.472	8.36
232.689	75.95
232.907	129.19
233.125	-12.12
233.342	39.08
233.56	-36.69
233.777	28.84
233.995	34.99
234.213	104.62
234.43	102.57
234.648	86.19
234.865	-28.5
235.083	77.99
235.3	65.71
235.518	53.42
235.735	149.67
235.953	86.19
236.17	75.95
236.388	53.42
236.605	12.46
236.822	96.43
237.04	133.29
237.257	155.82
237.475	-77.65
237.692	18.6
237.909	135.34
238.127	0.17
238.344	53.42
238.562	45.23
238.779	-59.22
238.996	-77.65
239.214	65.71
239.431	143.53
239.648	30.89
239.865	88.23
240.083	63.66
240.3	-26.45
240.517	63.66
240.735	39.08
240.952	202.92
241.169	121
241.386	135.34
241.603	90.28
241.821	-20.31
242.038	100.52
242.255	125.1
242.472	20.65
242.689	108.71
242.907	53.42
243.124	127.14
243.341	32.94
243.558	71.85
243.775	12.46
243.992	-18.26
244.209	131.24
244.426	145.58
244.643	55.47
244.86	30.89
245.078	114.86
245.295	-10.07
245.512	12.46
245.729	12.46
245.946	86.19
246.163	20.65
246.38	75.95
246.597	114.86
246.814	-18.26
247.031	84.14
247.248	110.76
247.464	102.57
247.681	59.56
247.898	164.01
248.115	45.23
248.332	10.41
248.549	88.23
248.766	219.3
248.983	147.62
249.2	59.56
249.417	118.95
249.633	30.89
249.85	129.19
250.067	49.32
250.284	86.19
250.501	30.89
250.717	86.19
250.934	-91.99
251.151	65.71
251.368	47.27
251.585	102.57
251.801	-20.31
252.018	2.22
252.235	30.89
252.451	-114.52
252.668	84.14
252.885	90.28
253.102	30.89
253.318	2.22
253.535	-22.36
253.752	8.36
253.968	41.13
254.185	-120.66
254.401	55.47
254.618	63.66
254.835	-20.31
255.051	153.77
255.268	28.84
255.484	147.62
255.701	12.46
255.917	145.58
256.134	18.6
256.351	-1.88
256.567	0.17
256.784	45.23
257	-67.41
257.217	94.38
257.433	67.75
257.65	43.18
257.866	180.39
258.082	-67.41
258.299	18.6
258.515	45.23
258.732	-16.21
258.948	-12.12
259.165	65.71
259.381	-55.12
259.597	108.71
259.814	2.22
260.03	-51.03
260.246	-5.97
260.463	170.15
260.679	123.05
260.895	84.14
261.112	63.66
261.328	22.7
261.544	2.22
261.761	106.67
261.977	-5.97
262.193	34.99
262.409	90.28
262.626	49.32
262.842	-12.12
263.058	-12.12
263.274	57.51
263.49	69.8
263.707	200.87
263.923	73.9
264.139	-55.12
264.355	14.51
264.571	110.76
264.787	73.9
265.004	98.47
265.22	-14.17
265.436	-5.97
265.652	-8.02
265.868	34.99
266.084	-18.26
266.3	34.99
266.516	6.31
266.732	37.03
266.948	100.52
267.164	77.99
267.38	30.89
267.596	63.66
267.812	198.82
268.028	112.81
268.244	51.37
268.46	166.06
268.676	98.47
268.892	80.04
269.108	4.27
269.324	-55.12
269.54	-126.8
269.756	135.34
269.972	-69.46
270.188	47.27
270.403	-24.4
270.619	69.8
270.835	67.75
271.051	26.79
271.267	-5.97
271.483	-12.12
271.698	82.09
271.914	96.43
272.13	53.42
272.346	-42.84
272.562	51.37
272.777	71.85
272.993	77.99
273.209	41.13
273.425	41.13
273.64	-14.17
273.856	59.56
274.072	65.71
274.287	34.99
274.503	75.95
274.719	118.95
274.934	26.79
275.15	-57.17
275.366	88.23
275.581	-1.88
275.797	10.41
276.012	24.75
276.228	4.27
276.444	26.79
276.659	80.04
276.875	22.7
277.09	-42.84
277.306	-14.17
277.521	49.32
277.737	69.8
277.952	84.14
278.168	-22.36
278.383	37.03
278.599	86.19
278.814	88.23
279.03	-5.97
279.245	166.06
279.461	45.23
279.676	49.32
279.892	-42.84
280.107	-40.79
280.322	32.94
280.538	84.14
280.753	-26.45
280.969	30.89
281.184	41.13
281.399	114.86
281.615	104.62
281.83	151.72
282.045	16.55
282.26	-61.27
282.476	26.79
282.691	151.72
282.906	10.41
283.122	6.31
283.337	-8.02
283.552	98.47
283.767	24.75
283.983	104.62
284.198	37.03
284.413	53.42
284.628	-18.26
284.843	106.67
285.058	123.05
285.274	84.14
285.489	37.03
285.704	127.14
285.919	20.65
286.134	37.03
286.349	-44.88
286.564	0.17
286.779	170.15
286.995	-20.31
287.21	-26.45
287.425	98.47
287.64	30.89
287.855	39.08
288.07	4.27
288.285	112.81
288.5	164.01
288.715	26.79
288.93	34.99
289.145	-28.5
289.36	114.86
289.575	34.99
289.79	204.97
290.004	53.42
290.219	133.29
290.434	32.94
290.649	2.22
290.864	-51.03
291.079	-26.45
291.294	129.19
291.509	32.94
291.724	82.09
291.938	-40.79
292.153	28.84
292.368	24.75
292.583	108.71
292.798	104.62
293.012	59.56
293.227	49.32
293.442	-8.02
293.657	121
293.871	-1.88
294.086	49.32
294.301	164.01
294.516	155.82
294.73	114.86
294.945	6.31
295.16	24.75
295.374	168.1
295.589	59.56
295.804	16.55
296.018	53.42
296.233	61.61
296.447	20.65
296.662	-5.97
296.877	84.14
297.091	102.57
297.306	0.17
297.52	59.56
297.735	84.14
297.949	22.7
298.164	37.03
298.378	-16.21
298.593	-5.97
298.807	22.7
299.022	-38.74
299.236	141.48
299.451	39.08
299.665	53.42
299.88	12.46
300.094	61.61
300.309	-24.4
300.523	63.66
300.737	8.36
300.952	96.43
301.166	88.23
301.381	59.56
301.595	-77.65
301.809	108.71
302.024	26.79
302.238	0.17
302.452	43.18
302.667	77.99
302.881	80.04
303.095	94.38
303.309	104.62
303.524	-18.26
303.738	6.31
303.952	-10.07
304.166	92.33
304.381	-104.28
304.595	98.47
304.809	51.37
305.023	104.62
305.237	-79.7
305.452	28.84
305.666	55.47
305.88	71.85
306.094	135.34
306.308	57.51
306.522	94.38
306.736	77.99
306.95	98.47
307.164	-10.07
307.379	45.23
307.593	141.48
307.807	121
308.021	59.56
308.235	133.29
308.449	-51.03
308.663	6.31
308.877	170.15
309.091	22.7
309.305	108.71
309.519	-46.93
309.733	80.04
309.947	-65.36
310.161	147.62
310.374	141.48
310.588	118.95
310.802	-28.5
311.016	-14.17
311.23	51.37
311.444	-12.12
311.658	80.04
311.872	227.5
312.085	110.76
312.299	63.66
312.513	149.67
312.727	121
312.941	14.51
313.154	86.19
313.368	90.28
313.582	118.95
313.796	18.6
314.009	-22.36
314.223	71.85
314.437	118.95
314.651	90.28
314.864	-10.07
315.078	28.84
315.292	-71.51
315.505	-10.07
315.719	114.86
315.933	37.03
316.146	-3.93
316.36	-34.64
316.573	129.19
316.787	116.9
317.001	82.09
317.214	-30.55
317.428	32.94
317.641	-12.12
317.855	-59.22
318.068	161.96
318.282	67.75
318.495	168.1
318.709	16.55
318.922	24.75
319.136	213.16
319.349	118.95
319.563	12.46
319.776	88.23
319.99	-102.23
320.203	125.1
320.417	39.08
320.63	82.09
320.843	192.68
321.057	47.27
321.27	108.71
321.483	67.75
321.697	143.53
321.91	135.34
322.124	22.7
322.337	155.82
322.55	34.99
322.763	16.55
322.977	18.6
323.19	-8.02
323.403	73.9
323.617	102.57
323.83	98.47
324.043	6.31
324.256	-10.07
324.469	-1.88
324.683	180.39
324.896	45.23
325.109	4.27
325.322	-46.93
325.535	192.68
325.748	118.95
325.962	-12.12
326.175	77.99
326.388	67.75
326.601	116.9
326.814	-5.97
327.027	75.95
327.24	112.81
327.453	-169.81
327.666	90.28
327.879	153.77
328.092	6.31
328.305	75.95
328.518	30.89
328.731	-73.56
328.944	71.85
329.157	37.03
329.37	102.57
329.583	209.06
329.796	231.59
330.009	-40.79
330.222	149.67
330.435	133.29
330.648	127.14
330.861	127.14
331.073	49.32
331.286	149.67
331.499	22.7
331.712	-63.32
331.925	34.99
332.138	18.6
332.35	80.04
332.563	14.51
332.776	102.57
332.989	82.09
333.202	-18.26
333.414	59.56
333.627	51.37
333.84	18.6
334.053	65.71
334.265	-1.88
334.478	4.27
334.691	55.47
334.903	84.14
335.116	-38.74
335.329	32.94
335.541	-30.55
335.754	186.54
335.966	32.94
336.179	43.18
336.392	-48.98
336.604	-14.17
336.817	63.66
337.029	104.62
337.242	30.89
337.454	133.29
337.667	55.47
337.88	127.14
338.092	88.23
338.305	100.52
338.517	20.65
338.729	90.28
338.942	161.96
339.154	4.27
339.367	-28.5
339.579	43.18
339.792	-42.84
340.004	45.23
340.217	-26.45
340.429	106.67
340.641	-71.51
340.854	2.22
341.066	26.79
341.278	77.99
341.491	145.58
341.703	16.55
341.915	16.55
342.128	137.38
342.34	49.32
342.552	-8.02
342.764	49.32
342.977	-34.64
343.189	37.03
343.401	0.17
343.613	28.84
343.826	90.28
344.038	37.03
344.25	77.99
344.462	32.94
344.674	77.99
344.886	-34.64
345.099	30.89
345.311	47.27
345.523	-30.55
345.735	-20.31
345.947	26.79
346.159	100.52
346.371	67.75
346.583	2.22
346.795	172.2
347.007	22.7
347.219	69.8
347.431	116.9
347.643	129.19
347.855	8.36
348.067	139.43
348.279	-38.74
348.491	125.1
348.703	133.29
348.915	110.76
349.127	-3.93
349.339	106.67
349.551	94.38
349.763	121
349.975	49.32
350.187	75.95
350.399	121
350.61	61.61
350.822	-34.64
351.034	55.47
351.246	102.57
351.458	63.66
351.669	77.99
351.881	159.91
352.093	137.38
352.305	155.82
352.517	20.65
352.728	153.77
352.94	49.32
353.152	96.43
353.363	12.46
353.575	41.13
353.787	121
353.999	65.71
354.21	180.39
354.422	96.43
354.633	51.37
354.845	34.99
355.057	73.9
355.268	26.79
355.48	114.86
355.692	6.31
355.903	82.09
356.115	-96.08
356.326	-48.98
356.538	125.1
356.749	80.04
356.961	159.91
357.172	75.95
357.384	-38.74
357.595	233.64
357.807	41.13
358.018	-12.12
358.23	28.84
358.441	149.67
358.653	116.9
358.864	8.36
359.075	30.89
359.287	88.23
359.498	161.96
359.709	88.23
359.921	65.71
360.132	108.71
360.344	41.13
360.555	20.65
360.766	71.85
360.977	30.89
361.189	67.75
361.4	34.99
361.611	129.19
361.823	116.9
362.034	96.43
362.245	-61.27
362.456	39.08
362.667	112.81
362.879	53.42
363.09	88.23
363.301	102.57
363.512	92.33
363.723	28.84
363.935	22.7
364.146	108.71
364.357	71.85
364.568	102.57
364.779	-114.52
364.99	153.77
365.201	92.33
365.412	96.43
365.623	-38.74
365.834	131.24
366.045	39.08
366.256	170.15
366.467	108.71
366.678	22.7
366.889	43.18
367.1	53.42
367.311	94.38
367.522	-12.12
367.733	96.43
367.944	53.42
368.155	102.57
368.366	94.38
368.577	178.34
368.788	174.25
368.999	14.51
369.209	18.6
369.42	176.3
369.631	219.3
369.842	166.06
370.053	37.03
370.264	125.1
370.474	-26.45
370.685	92.33
370.896	39.08
371.107	80.04
371.317	75.95
371.528	39.08
371.739	59.56
371.95	176.3
372.16	-14.17
372.371	-106.32
372.582	-73.56
372.792	80.04
373.003	-28.5
373.214	43.18
373.424	55.47
373.635	-26.45
373.846	135.34
374.056	65.71
374.267	133.29
374.477	157.86
374.688	-26.45
374.898	67.75
375.109	43.18
375.319	123.05
375.53	149.67
375.74	94.38
375.951	80.04
376.161	133.29
376.372	73.9
376.582	65.71
376.793	84.14
377.003	55.47
377.214	-77.65
377.424	137.38
377.635	39.08
377.845	32.94
378.055	98.47
378.266	-1.88
378.476	47.27
378.686	65.71
378.897	-24.4
379.107	88.23
379.317	73.9
379.528	16.55
379.738	84.14
379.948	4.27
380.158	143.53
380.369	104.62
380.579	147.62
380.789	108.71
380.999	209.06
381.21	77.99
381.42	188.58
381.63	30.89
381.84	112.81
382.05	82.09
382.261	145.58
382.471	149.67
382.681	-12.12
382.891	186.54
383.101	108.71
383.311	-46.93
383.521	-26.45
383.731	92.33
383.941	139.43
384.151	-34.64
384.361	-42.84
384.571	110.76
384.781	84.14
384.991	198.82
385.201	223.4
385.411	164.01
385.621	-5.97
385.831	45.23
386.041	84.14
386.251	82.09
386.461	161.96
386.671	14.51
386.881	121
387.091	59.56
387.301	157.86
387.511	10.41
387.72	145.58
387.93	84.14
388.14	14.51
388.35	41.13
388.56	121
388.769	98.47
388.979	28.84
389.189	2.22
389.399	127.14
389.609	92.33
389.818	69.8
390.028	28.84
390.238	67.75
390.447	22.7
390.657	12.46
390.867	49.32
391.076	-30.55
391.286	49.32
391.496	69.8
391.705	24.75
391.915	159.91
392.125	161.96
392.334	-30.55
392.544	135.34
392.753	24.75
392.963	14.51
393.172	-8.02
393.382	37.03
393.591	235.69
393.801	98.47
394.01	75.95
394.22	116.9
394.429	12.46
394.639	2.22
394.848	86.19
395.058	98.47
395.267	32.94
395.477	96.43
395.686	49.32
395.895	178.34
396.105	176.3
396.314	71.85
396.524	114.86
396.733	57.51
396.942	139.43
397.152	108.71
397.361	164.01
397.57	55.47
397.78	104.62
397.989	4.27
398.198	241.83
398.407	22.7
398.617	59.56
398.826	80.04
399.035	-14.17
399.244	69.8
399.453	112.81
399.663	30.89
399.872	73.9
400.081	51.37
400.29	168.1
400.499	-24.4
400.708	129.19
400.917	96.43
401.127	-28.5
401.336	61.61
401.545	217.26
401.754	133.29
401.963	65.71
402.172	22.7
402.381	-67.41
402.59	-5.97
402.799	104.62
403.008	43.18
403.217	145.58
403.426	45.23
403.635	-3.93
403.844	-63.32
404.053	43.18
404.262	-10.07
404.471	211.11
404.68	34.99
404.888	24.75
405.097	71.85
405.306	88.23
405.515	8.36
405.724	14.51
405.933	92.33
406.142	123.05
406.35	118.95
406.559	57.51
406.768	77.99
406.977	161.96
407.185	131.24
407.394	135.34
407.603	2.22
407.812	26.79
408.02	143.53
408.229	57.51
408.438	110.76
408.646	-1.88
408.855	-36.69
409.064	147.62
409.272	8.36
409.481	75.95
409.69	77.99
409.898	-18.26
410.107	71.85
410.315	104.62
410.524	-59.22
410.733	104.62
410.941	75.95
411.15	82.09
411.358	69.8
411.567	176.3
411.775	26.79
411.984	84.14
412.192	112.81
412.401	51.37
412.609	170.15
412.818	180.39
413.026	45.23
413.234	18.6
413.443	92.33
413.651	16.55
413.86	-3.93
414.068	166.06
414.276	168.1
414.485	63.66
414.693	147.62
414.901	145.58
415.11	45.23
415.318	55.47
415.526	39.08
415.734	86.19
415.943	10.41
416.151	151.72
416.359	73.9
416.567	37.03
416.776	145.58
416.984	153.77
417.192	186.54
417.4	-28.5
417.608	18.6
417.817	24.75
418.025	127.14
418.233	243.88
418.441	0.17
418.649	-18.26
418.857	73.9
419.065	219.3
419.273	-22.36
419.481	49.32
419.689	41.13
419.897	-34.64
420.105	-30.55
420.313	178.34
420.521	108.71
420.729	182.44
420.937	12.46
421.145	6.31
421.353	112.81
421.561	131.24
421.769	80.04
421.977	75.95
422.185	157.86
422.393	92.33
422.601	96.43
422.809	67.75
423.017	0.17
423.224	137.38
423.432	123.05
423.64	161.96
423.848	176.3
424.056	18.6
424.263	73.9
424.471	71.85
424.679	196.78
424.887	-28.5
425.094	180.39
425.302	100.52
425.51	104.62
425.718	180.39
425.925	51.37
426.133	-22.36
426.341	112.81
426.548	77.99
426.756	88.23
426.964	94.38
427.171	26.79
427.379	153.77
427.586	102.57
427.794	172.2
428.001	166.06
428.209	43.18
428.417	190.63
428.624	172.2
428.832	102.57
429.039	198.82
429.247	145.58
429.454	129.19
429.662	284.84
429.869	57.51
430.076	127.14
430.284	184.49
430.491	243.88
430.699	118.95
430.906	168.1
431.114	213.16
431.321	164.01
431.528	200.87
431.736	123.05
431.943	94.38
432.15	127.14
432.358	198.82
432.565	272.55
432.772	-48.98
432.979	245.93
433.187	190.63
433.394	211.11
433.601	108.71
433.808	188.58
434.016	260.26
434.223	194.73
434.43	190.63
434.637	250.02
434.844	254.12
435.052	284.84
435.259	327.85
435.466	354.47
435.673	303.27
435.88	293.03
436.087	329.89
436.294	366.76
436.501	362.66
436.708	325.8
436.915	319.65
437.122	460.96
437.329	333.99
437.537	315.56
437.743	389.28
437.95	532.64
438.157	395.43
438.364	370.85
438.571	422.05
438.778	481.44
438.985	534.69
439.192	467.11
439.399	381.09
439.606	422.05
439.813	514.21
440.02	538.79
440.227	624.8
440.433	579.75
440.64	561.31
440.847	491.68
441.054	626.85
441.261	768.16
441.467	659.62
441.674	665.76
441.881	790.69
442.088	682.14
442.294	747.68
442.501	800.93
442.708	796.83
442.914	811.17
443.121	866.46
443.328	858.27
443.534	1026.2
443.741	989.34
443.948	835.74
444.154	1015.96
444.361	1171.61
444.568	1001.63
444.774	1120.41
444.981	1024.16
445.187	1278.1
445.394	1255.58
445.6	1136.79
445.807	1237.14
446.013	1368.21
446.22	1319.06
446.426	1454.23
446.633	1532.05
446.839	1742.99
447.046	1458.32
447.252	1747.09
447.459	1783.95
447.665	1669.27
447.871	1800.34
448.078	2025.61
448.284	1937.55
448.491	2142.35
448.697	2166.92
448.903	2218.12
449.11	2242.7
449.316	2302.09
449.522	2490.5
449.728	2564.23
449.935	2680.96
450.141	2687.11
450.347	2826.37
450.553	2803.84
450.76	2961.53
450.966	3010.68
451.172	3295.35
451.378	3367.03
451.584	3352.7
451.791	3596.4
451.997	3604.6
452.203	3756.15
452.409	3819.63
452.615	4130.92
452.821	4006
453.027	4012.14
453.233	4425.83
453.44	4434.02
453.646	4604
453.852	4853.86
454.058	4917.34
454.264	5128.28
454.47	5376.09
454.676	5378.14
454.882	5947.47
455.088	5742.68
455.294	6115.41
455.5	6529.1
455.705	6864.96
455.911	6989.89
456.117	6953.02
456.323	7389.24
456.529	7135.29
456.735	7888.95
456.941	8247.34
457.147	8499.24
457.352	8527.91
457.558	8992.8
457.764	9297.95
457.97	9652.25
458.176	10082.32
458.381	10498.06
458.587	10760.2
458.793	11347.97
458.999	11157.5
459.204	12445.68
459.41	13070.31
459.616	12759.02
459.821	13735.9
460.027	14260.18
460.233	14778.31
460.438	15062.98
460.644	15792.06
460.85	15867.83
461.055	16639.92
461.261	17305.51
461.466	17127.33
461.672	17532.83
461.878	19287.94
462.083	19218.31
462.289	19611.52
462.494	20479.86
462.7	20553.59
462.905	20782.96
463.111	22550.35
463.316	23584.58
463.522	23914.3
463.727	24493.88
463.932	25743.14
464.138	26634
464.343	27576.07
464.549	27793.15
464.754	29689.57
464.959	30488.28
465.165	31184.59
465.37	30738.13
465.575	30734.04
465.781	32808.63
465.986	33785.51
466.191	33332.91
466.397	33863.33
466.602	32861.88
466.807	34635.42
467.012	35309.2
467.218	35774.09
467.423	35886.73
467.628	37138.04
467.833	38985.3
468.038	38159.97
468.244	37269.11
468.449	39306.83
468.654	38854.23
468.859	38706.78
469.064	38846.04
469.269	38116.97
469.474	37899.88
469.679	39202.39
469.885	37496.43
470.09	38725.21
470.295	38719.07
470.5	37582.45
470.705	38176.36
470.91	36939.38
471.115	36552.32
471.32	36951.67
471.525	36734.59
471.73	35718.79
471.935	35747.47
472.139	34141.86
472.344	34674.33
472.549	34553.5
472.754	33717.93
472.959	33015.47
473.164	31698.63
473.369	31370.96
473.574	32343.74
473.778	31465.16
473.983	31274.7
474.188	30162.65
474.393	29150.96
474.598	29157.1
474.802	28593.91
475.007	27942.66
475.212	27752.2
475.417	26595.09
475.621	26636.05
475.826	26132.25
476.031	25032.49
476.235	24586.04
476.44	24608.56
476.645	24231.74
476.849	23789.38
477.054	23719.74
477.259	23174.99
477.463	23041.87
477.668	22220.63
477.872	22353.75
478.077	22044.51
478.282	21122.92
478.486	21010.28
478.691	20698.99
478.895	20588.4
479.1	20592.5
479.304	20406.13
479.509	19627.9
479.713	19767.17
479.918	19222.41
480.122	18939.79
480.326	19265.41
480.531	19183.49
480.735	18714.51
480.94	18614.16
481.144	19050.38
481.348	17760.16
481.553	18153.37
481.757	17790.88
481.961	18016.15
482.166	18118.55
482.37	17756.06
482.574	17229.73
482.778	17377.19
482.983	17702.81
483.187	17178.53
483.391	17334.18
483.595	16902.06
483.8	16723.88
484.004	16555.95
484.208	16711.6
484.412	16306.1
484.616	16369.58
484.821	16052.15
485.025	15456.19
485.229	15798.2
485.433	15507.39
485.637	15452.09
485.841	15017.93
486.045	14907.34
486.249	14794.7
486.453	14389.2
486.657	13922.26
486.861	14219.22
487.065	13678.55
487.269	13668.31
487.473	13137.89
487.677	13481.95
487.881	13383.65
488.085	12771.3
488.289	12595.18
488.493	12316.65
488.697	12109.81
488.901	12118
489.105	11726.84
489.309	11720.7
489.512	11347.97
489.716	11294.72
489.92	11098.11
490.124	10729.48
490.328	10637.32
490.531	10496.01
490.735	10280.97
490.939	10045.46
491.143	9828.37
491.346	9644.06
491.55	9617.43
491.754	9320.48
491.958	9461.79
492.161	8935.46
492.365	8927.27
492.569	8722.47
492.772	8751.14
492.976	8701.99
493.18	8665.13
493.383	8517.67
493.587	8273.96
493.79	8362.03
493.994	8046.64
494.197	8017.97
494.401	7972.91
494.605	7878.71
494.808	7766.07
495.012	7903.28
495.215	7712.82
495.419	7723.06
495.622	7346.23
495.825	7444.54
496.029	7522.36
496.232	7567.42
496.436	7567.42
496.639	7813.17
496.843	7434.3
497.046	7571.51
497.249	7563.32
497.453	7370.81
497.656	7479.35
497.859	7542.84
498.063	7473.21
498.266	7548.98
498.469	7368.76
498.673	7409.72
498.876	7530.55
499.079	7536.7
499.282	7725.11
499.485	7944.24
499.689	7639.09
499.892	7952.43
500.095	7622.71
500.298	8040.5
500.501	7698.49
500.705	8040.5
500.908	8153.13
501.111	8239.15
501.314	8214.57
501.517	8398.89
501.72	8372.27
501.923	8398.89
502.126	8452.14
502.329	8622.12
502.532	8839.2
502.735	8691.75
502.938	9173.02
503.141	9023.52
503.344	9211.93
503.547	9201.69
503.75	9334.81
503.953	9646.1
504.156	9754.65
504.359	9957.39
504.562	9873.43
504.765	10065.94
504.968	10276.88
505.17	10534.92
505.373	10469.39
505.576	10665.99
505.779	10944.52
505.982	10874.88
506.185	11218.94
506.387	11266.05
506.59	11630.59
506.793	11876.34
506.996	11778.04
507.198	12244.98
507.401	12480.49
507.604	12681.19
507.807	13172.71
508.009	13203.43
508.212	13309.92
508.415	13686.75
508.617	14102.48
508.82	14225.36
509.022	14278.61
509.225	15054.79
509.428	15103.94
509.63	15540.16
509.833	15923.13
510.035	16314.29
510.238	16457.65
510.44	16709.55
510.643	17201.06
510.845	17602.46
511.048	17829.79
511.25	18399.12
511.453	18710.41
511.655	19580.8
511.858	19513.22
512.06	19996.54
512.262	20146.04
512.465	20774.77
512.667	21262.18
512.87	21765.98
513.072	22071.13
513.274	22890.32
513.477	23424.84
513.679	23813.95
513.881	24344.38
514.084	24901.42
514.286	25540.39
514.488	26097.44
514.69	27168.52
514.893	27078.41
515.095	27610.89
515.297	28411.64
515.499	28778.23
515.701	29421.29
515.904	30250.72
516.106	30981.84
516.308	31065.81
516.51	31985.35
516.712	32575.16
516.914	32886.45
517.116	34021.03
517.318	34494.11
517.52	35077.78
517.722	35286.67
517.925	36406.91
518.127	37375.6
518.329	38196.84
518.531	38200.93
518.733	39183.96
518.935	39712.33
519.136	40506.94
519.338	40971.83
519.54	41524.79
519.742	42425.89
519.944	42839.58
520.146	43802.13
520.348	44420.61
520.55	44441.09
520.752	45288.95
520.954	46122.47
521.155	45809.14
521.357	46943.71
521.559	47476.18
521.761	48100.81
521.963	48522.69
522.164	48745.92
522.366	49237.44
522.568	49999.28
522.77	49802.67
522.971	50875.81
523.173	50005.42
523.375	51443.1
523.576	51281.31
523.778	51273.12
523.98	52344.2
524.181	52032.91
524.383	52635.02
524.584	52626.82
524.786	52768.13
524.988	52350.35
525.189	52757.89
525.391	53083.52
525.592	53470.59
525.794	53126.53
525.995	52553.1
526.197	52970.88
526.398	52761.99
526.6	53126.53
526.801	53345.66
527.003	52684.17
527.204	52704.65
527.406	53011.84
527.607	52471.18
527.808	52448.65
528.01	51371.42
528.211	51961.23
528.412	52108.69
528.614	51389.85
528.815	51070.37
529.016	51051.94
529.218	50027.95
529.419	49966.51
529.62	49352.12
529.822	48735.68
530.023	48588.23
530.224	48299.47
530.425	47787.47
530.626	46917.09
530.828	46429.67
531.029	47209.95
531.23	45952.49
531.431	45520.37
531.632	44998.14
531.833	44178.95
532.035	44174.86
532.236	43591.19
532.437	43097.63
532.638	42268.2
532.839	42300.97
533.04	41569.84
533.241	40941.11
533.442	41207.35
533.643	40246.85
533.844	39599.69
534.045	39005.78
534.246	38346.34
534.447	37967.46
534.648	37332.59
534.849	37099.12
535.05	35896.97
535.251	36408.96
535.451	35237.52
535.652	35100.31
535.853	34590.36
536.054	34324.13
536.255	34064.03
536.456	32964.28
536.657	33492.65
536.857	32284.35
537.058	31942.34
537.259	31778.5
537.46	31264.46
537.66	30629.59
537.861	30346.97
538.062	29964
538.263	29574.89
538.463	29071.09
538.664	28894.96
538.865	28636.92
539.065	28503.8
539.266	27590.41
539.466	28110.59
539.667	27021.07
539.868	27102.99
540.068	26400.54
540.269	26099.48
540.469	26005.28
540.67	25509.67
540.87	25306.92
541.071	24934.19
541.271	24950.57
541.472	24624.95
541.672	24172.35
541.873	23744.32
542.073	23228.23
542.274	23150.41
542.474	22966.09
542.675	23023.44
542.875	22652.75
543.075	22202.2
543.276	21903.2
543.476	21786.46
543.676	21444.45
543.877	21321.57
544.077	21229.41
544.277	21043.05
544.478	20791.15
544.678	20774.77
544.878	20041.59
545.078	19990.39
545.279	19482.5
545.479	19283.84
545.679	19189.64
545.879	19021.7
546.079	18829.2
546.28	18581.39
546.48	18198.42
546.68	18440.08
546.88	18059.16
547.08	17973.14
547.28	17366.95
547.48	17143.72
547.68	17217.44
547.88	16826.28
548.081	17063.85
548.281	16400.3
548.481	16138.16
548.681	16304.05
548.881	15792.06
549.081	15808.44
549.28	15480.77
549.48	15288.26
549.68	15056.84
549.88	15318.98
550.08	14583.76
550.28	14409.68
550.48	14356.43
550.68	14043.09
550.88	13907.93
551.08	13959.13
551.279	13561.82
551.479	13266.91
551.679	13184.99
551.879	12808.17
552.079	12789.74
552.278	12486.64
552.478	12562.41
552.678	12386.29
552.878	12050.42
553.077	11773.94
553.277	11341.82
553.477	11735.03
553.676	11323.39
553.876	11190.27
554.076	11026.43
554.275	10643.46
554.475	10541.07
554.674	10303.5
554.874	10215.44
555.074	10004.5
555.273	10252.3
555.473	9871.38
555.672	9580.57
555.872	9572.38
556.071	9576.47
556.271	9254.94
556.47	9068.58
556.67	8761.38
556.869	8839.2
557.068	8681.51
557.268	8503.34
557.467	8216.62
557.667	8448.04
557.866	8095.79
558.065	8024.11
558.265	7845.94
558.464	7647.29
558.663	7667.77
558.863	7415.87
559.062	7348.28
559.261	7147.58
559.461	7163.97
559.66	6887.49
559.859	6668.36
560.058	6764.61
560.258	6639.69
560.457	6486.09
560.656	6602.82
560.855	6240.33
561.054	6445.13
561.253	6045.77
561.453	6056.01
561.652	6037.58
561.851	6113.36
562.05	5718.1
562.249	5593.17
562.448	5642.32
562.647	5648.47
562.846	5490.77
563.045	5453.91
563.244	5236.83
563.443	5347.42
563.642	5099.61
563.841	5036.13
564.04	4939.87
564.239	4753.51
564.438	4821.09
564.637	4663.4
564.836	4565.09
565.035	4622.44
565.234	4477.03
565.432	4683.88
565.631	4411.5
565.83	4294.76
566.029	4202.6
566.228	4137.07
566.427	4270.19
566.625	3971.18
566.824	4231.27
567.023	4040.81
567.222	3860.59
567.42	3811.44
567.619	3836.02
567.818	3739.76
568.016	3760.24
568.215	3596.4
568.414	3518.58
568.612	3586.16
568.811	3571.83
569.01	3434.61
569.208	3328.12
569.407	3328.12
569.605	3291.26
569.804	3188.86
570.002	3137.66
570.201	3016.83
570.4	3111.04
570.598	3094.65
570.797	3016.83
570.995	2943.1
571.193	2852.99
571.392	2816.13
571.59	2807.94
571.789	2840.7
571.987	2869.37
572.186	2713.73
572.384	2693.25
572.582	2660.48
572.781	2627.71
572.979	2496.64
573.177	2578.56
573.376	2564.23
573.574	2551.94
573.772	2392.2
573.971	2394.25
574.169	2297.99
574.367	2257.03
574.565	2232.46
574.763	2263.18
574.962	2085
575.16	2128.01
575.358	1908.88
575.556	2058.38
575.754	2072.72
575.952	1992.84
576.151	1996.94
576.349	1915.02
576.547	1853.58
576.745	1933.45
576.943	1865.87
577.141	1788.05
577.339	1751.18
577.537	1783.95
577.735	1753.23
577.933	1728.66
578.131	1683.6
578.329	1802.38
578.527	1605.78
578.725	1593.49
578.923	1462.42
579.121	1693.84
579.319	1407.13
579.516	1482.9
579.714	1634.45
579.912	1507.48
580.11	1339.54
580.308	1349.78
580.506	1321.11
580.704	1398.93
580.901	1206.42
581.099	1462.42
581.297	1390.74
581.495	1265.82
581.692	1212.57
581.89	1304.73
582.088	1271.96
582.285	1259.67
582.483	1214.62
582.681	1128.6
582.878	1101.98
583.076	1159.32
583.274	1151.13
583.471	1226.9
583.669	1138.84
583.866	999.58
584.064	1040.54
584.262	1032.35
584.459	1087.64
584.657	1124.51
584.854	1116.31
585.052	1040.54
585.249	1038.49
585.447	948.38
585.644	852.13
585.841	985.24
586.039	913.56
586.236	1058.97
586.434	880.8
586.631	852.13
586.828	876.7
587.026	856.22
587.223	702.62
587.42	774.3
587.618	888.99
587.815	919.71
588.012	831.65
588.21	768.16
588.407	831.65
588.604	819.36
588.801	721.06
588.999	729.25
589.196	848.03
589.393	682.14
589.59	721.06
589.787	723.1
589.984	739.49
590.182	745.63
590.379	618.66
590.576	757.92
590.773	753.82
590.97	690.34
591.167	759.97
591.364	751.78
591.561	667.81
591.758	835.74
591.955	757.92
592.152	643.23
592.349	635.04
592.546	661.66
592.743	678.05
592.94	676
593.137	751.78
593.334	721.06
593.531	688.29
593.727	735.39
593.924	692.38
594.121	661.66
594.318	659.62
594.515	723.1
594.712	794.78
594.908	911.52
595.105	608.42
595.302	798.88
595.499	667.81
595.696	825.5
595.892	692.38
596.089	829.6
596.286	733.34
596.482	809.12
596.679	841.89
596.876	751.78
597.072	915.61
597.269	794.78
597.466	913.56
597.662	864.41
597.859	923.8
598.055	1022.11
598.252	1015.96
598.448	1151.13
598.645	1114.27
598.841	1138.84
599.038	1247.38
599.234	1376.41
599.431	1163.42
599.627	1296.53
599.824	1310.87
600.02	1378.45
600.217	1284.25
600.413	1405.08
600.609	1464.47
600.806	1779.86
601.002	1575.06
601.198	1548.44
601.395	1814.67
601.591	1742.99
601.787	1915.02
601.984	1937.55
602.18	1896.59
602.376	2019.47
602.572	2156.68
602.769	2191.5
602.965	2349.19
603.161	2408.58
603.357	2656.39
603.553	2662.53
603.75	2556.04
603.946	2683.01
604.142	2834.56
604.338	3104.89
604.534	2961.53
604.73	3207.29
604.926	3178.62
605.122	3416.18
605.318	3354.74
605.514	3553.4
605.71	3547.25
605.906	3819.63
606.102	3766.39
606.298	3965.04
606.494	4014.19
606.69	4100.2
606.886	4249.71
607.082	4296.81
607.278	4368.49
607.474	4655.2
607.67	4991.07
607.866	4735.07
608.062	5017.69
608.257	5138.52
608.453	5091.42
608.649	5517.4
608.845	5308.51
609.041	5679.19
609.236	5785.68
609.432	6076.49
609.628	6211.66
609.824	6465.61
610.019	6398.03
610.215	6731.84
610.411	6924.35
610.606	7149.63
610.802	7184.45
610.998	7409.72
611.193	7665.72
611.389	7559.22
611.584	8034.35
611.78	8044.59
611.976	8292.4
612.171	8923.17
612.367	8640.55
612.562	8824.87
612.758	9007.14
612.953	9291.8
613.149	9728.02
613.344	9795.61
613.539	10295.31
613.735	10518.54
613.93	10862.6
614.126	11012.1
614.321	11307.01
614.517	11653.11
614.712	11798.52
614.907	12089.33
615.103	12472.3
615.298	12908.52
615.493	13371.36
615.688	13332.45
615.884	13668.31
616.079	13844.44
616.274	14536.65
616.47	14702.54
616.665	15134.66
616.86	15566.78
617.055	15699.9
617.25	16275.38
617.445	16932.78
617.641	16861.1
617.836	17522.59
618.031	17590.17
618.226	18147.22
618.421	18839.44
618.616	19062.66
618.811	19554.18
619.006	20369.27
619.201	20330.36
619.396	20799.34
619.591	21038.95
619.786	21944.16
619.981	22064.99
620.176	22875.98
620.371	23007.05
620.566	23803.71
620.761	24158.01
620.956	24850.22
621.151	24725.3
621.346	25974.56
621.541	25736.99
621.735	26846.99
621.93	26744.59
622.125	27528.97
622.32	27729.67
622.515	28188.41
622.709	28843.76
622.904	29531.88
623.099	29720.29
623.294	30432.99
623.488	30633.69
623.683	31819.46
623.878	31553.23
624.072	32526.01
624.267	33169.07
624.462	33435.31
624.656	33916.58
624.851	34633.37
625.046	34770.58
625.24	35403.41
625.435	35845.77
625.629	36351.62
625.824	36767.35
626.018	37291.63
626.213	37088.88
626.407	38004.33
626.602	38196.84
626.796	38858.33
626.991	39308.88
627.185	39419.47
627.38	39517.78
627.574	39919.18
627.768	39980.62
627.963	40199.75
628.157	40107.59
628.352	40744.51
628.546	40420.93
628.74	41201.21
628.935	40029.77
629.129	40496.7
629.323	39802.44
629.517	39945.8
629.712	39571.02
629.906	39726.67
630.1	39464.53
630.294	38981.21
630.489	38135.4
630.683	38547.04
630.877	37385.84
631.071	36744.83
631.265	36499.07
631.459	35808.9
631.653	34883.22
631.848	33957.54
632.042	33246.9
632.236	32485.05
632.43	31649.48
632.624	30897.88
632.818	29490.92
633.012	29130.48
633.206	28172.03
633.4	27504.39
633.594	26259.23
633.788	25569.06
633.982	24954.67
634.176	24006.46
634.369	23054.15
634.563	22153.05
634.757	21018.47
634.951	20612.98
635.145	19785.6
635.339	18874.25
635.533	17950.62
635.726	17729.44
635.92	16607.15
636.114	16150.45
636.308	15296.45
636.501	14632.91
636.695	14362.58
636.889	13395.93
637.083	13127.65
637.276	12482.54
637.47	11943.92
637.664	11427.84
637.857	11051.01
638.051	10653.7
638.244	10278.93
638.438	9906.2
638.632	9322.52
638.825	8828.96
639.019	8851.49
639.212	8333.36
639.406	8048.69
639.599	7551.03
639.793	7366.71
639.986	7161.92
640.18	6805.57
640.373	6387.79
640.567	6273.1
640.76	6242.38
640.954	5736.53
641.147	5605.46
641.34	5361.75
641.534	5261.4
641.727	5159
641.92	4765.79
642.114	4581.48
642.307	4415.59
642.5	4298.86
642.694	4124.78
642.887	4067.44
643.08	3862.64
643.273	3866.74
643.467	3573.88
643.66	3268.73
643.853	3270.78
644.046	3319.93
644.239	3004.54
644.432	2867.33
644.626	2611.33
644.819	2574.47
645.012	2674.82
645.205	2541.7
645.398	2447.49
645.591	2326.66
645.784	2132.11
645.977	2091.15
646.17	1976.46
646.363	1919.12
646.556	1872.01
646.749	1781.9
646.942	1843.34
647.135	1691.79
647.328	1513.62
647.521	1632.4
647.714	1540.24
647.907	1478.8
648.099	1286.3
648.292	1484.95
648.485	1345.69
648.678	1214.62
648.871	1192.09
649.064	1245.34
649.256	1114.27
649.449	1032.35
649.642	944.28
649.835	919.71
650.027	989.34
650.22	1030.3
650.413	968.86
650.605	946.33
650.798	817.31
650.991	874.65
651.183	891.04
651.376	770.21
651.568	800.93
651.761	694.43
651.954	766.11
652.146	612.51
652.339	626.85
652.531	712.86
652.724	602.27
652.916	518.31
653.109	407.72
653.301	704.67
653.494	557.22
653.686	514.21
653.879	653.47
654.071	512.16
654.263	534.69
654.456	411.81
654.648	522.4
654.84	536.74
655.033	436.39
655.225	534.69
655.417	358.57
655.61	573.6
655.802	407.72
655.994	518.31
656.186	377
656.379	458.92
656.571	288.93
656.763	338.09
656.955	393.38
657.148	397.48
657.34	387.24
657.532	247.97
657.724	311.46
657.916	258.21
658.108	377
658.3	383.14
658.492	399.52
658.684	239.78
658.876	293.03
659.068	200.87
659.26	168.1
659.452	233.64
659.644	297.13
659.836	415.91
660.028	315.56
660.22	235.69
660.412	241.83
660.604	241.83
660.796	233.64
660.988	377
661.18	239.78
661.372	270.5
661.563	274.6
661.755	223.4
661.947	102.57
662.139	188.58
662.331	241.83
662.522	190.63
662.714	135.34
662.906	196.78
663.097	198.82
663.289	151.72
663.481	186.54
663.673	229.54
663.864	198.82
664.056	250.02
664.247	135.34
664.439	274.6
664.631	231.59
664.822	272.55
665.014	231.59
665.205	153.77
665.397	176.3
665.588	237.74
665.78	221.35
665.971	327.85
666.163	223.4
666.354	155.82
666.546	39.08
666.737	110.76
666.929	184.49
667.12	153.77
667.311	217.26
667.503	145.58
667.694	223.4
667.885	233.64
668.077	241.83
668.268	71.85
668.459	207.02
668.651	198.82
668.842	186.54
669.033	151.72
669.224	102.57
669.416	366.76
669.607	67.75
669.798	125.1
669.989	290.98
670.18	178.34
670.371	211.11
670.563	69.8
670.754	209.06
670.945	204.97
671.136	233.64
671.327	164.01
671.518	245.93
671.709	303.27
671.9	243.88
672.091	260.26
672.282	209.06
672.473	229.54
672.664	94.38
672.855	116.9
673.046	231.59
673.237	215.21
673.428	151.72
673.619	284.84
673.809	149.67
674	286.89
674.191	311.46
674.382	121
674.573	198.82
674.764	211.11
674.954	350.37
675.145	96.43
675.336	157.86
675.527	213.16
675.717	198.82
675.908	258.21
676.099	168.1
676.289	192.68
676.48	155.82
676.671	186.54
676.861	188.58
677.052	282.79
677.243	176.3
677.433	139.43
677.624	264.36
677.814	186.54
678.005	227.5
678.195	301.22
678.386	182.44
678.576	207.02
678.767	270.5
678.957	247.97
679.148	338.09
679.338	315.56
679.529	280.74
679.719	286.89
679.909	358.57
680.1	366.76
680.29	252.07
680.481	188.58
680.671	256.17
680.861	321.7
681.052	260.26
681.242	188.58
681.432	299.17
681.622	245.93
681.813	196.78
682.003	278.69
682.193	270.5
682.383	260.26
682.573	270.5
682.764	256.17
682.954	317.61
683.144	350.37
683.334	284.84
683.524	247.97
683.714	321.7
683.904	338.09
684.094	346.28
684.284	327.85
684.474	362.66
684.664	434.34
684.854	358.57
685.044	284.84
685.234	288.93
685.424	340.13
685.614	323.75
685.804	420
685.994	350.37
686.184	317.61
686.374	381.09
686.564	323.75
686.753	305.32
686.943	239.78
687.133	346.28
687.323	352.42
687.513	354.47
687.702	426.15
687.892	331.94
688.082	381.09
688.272	403.62
688.461	243.88
688.651	436.39
688.841	463.01
689.03	319.65
689.22	311.46
689.41	368.81
689.599	299.17
689.789	215.21
689.979	395.43
690.168	276.65
690.358	366.76
690.547	264.36
690.737	346.28
690.926	348.33
691.116	307.37
691.305	297.13
691.495	383.14
691.684	258.21
691.874	250.02
692.063	329.89
692.252	295.08
692.442	338.09
692.631	190.63
692.82	331.94
693.01	346.28
693.199	229.54
693.388	346.28
693.578	321.7
693.767	284.84
693.956	379.04
694.146	237.74
694.335	252.07
694.524	241.83
694.713	342.18
694.902	247.97
695.092	266.41
695.281	297.13
695.47	301.22
695.659	278.69
695.848	299.17
696.037	223.4
696.226	354.47
696.415	241.83
696.604	321.7
696.793	256.17
696.982	286.89
697.171	383.14
697.36	278.69
697.549	303.27
697.738	186.54
697.927	207.02
698.116	186.54
698.305	385.19
698.494	323.75
698.683	272.55
698.872	417.96
699.061	190.63
699.25	200.87
699.438	317.61
699.627	225.45
699.816	403.62
700.005	184.49
700.193	219.3
700.382	370.85
700.571	299.17
700.76	305.32
700.948	397.48
701.137	325.8
701.326	295.08
701.514	204.97
701.703	262.31
701.892	186.54
702.08	450.72
702.269	252.07
702.457	190.63
702.646	270.5
702.834	186.54
703.023	295.08
703.212	268.45
703.4	317.61
703.589	149.67
703.777	250.02
703.965	159.91
704.154	219.3
704.342	245.93
704.531	225.45
704.719	303.27
704.907	319.65
705.096	200.87
705.284	245.93
705.472	270.5
705.661	268.45
705.849	301.22
706.037	348.33
706.226	350.37
706.414	264.36
706.602	133.29
706.79	288.93
706.979	225.45
707.167	223.4
707.355	133.29
707.543	290.98
707.731	311.46
707.919	268.45
708.107	327.85
708.296	184.49
708.484	213.16
708.672	254.12
708.86	245.93
709.048	219.3
709.236	207.02
709.424	266.41
709.612	301.22
709.8	104.62
709.988	188.58
710.176	264.36
710.364	399.52
710.551	196.78
710.739	231.59
710.927	245.93
711.115	303.27
711.303	352.42
711.491	383.14
711.679	213.16
711.866	336.04
712.054	196.78
712.242	272.55
712.43	327.85
712.617	235.69
712.805	317.61
712.993	258.21
713.181	153.77
713.368	348.33
713.556	239.78
713.744	172.2
713.931	374.95
714.119	229.54
714.306	172.2
714.494	297.13
714.682	260.26
714.869	161.96
715.057	276.65
715.244	100.52
715.432	247.97
715.619	204.97
715.807	180.39
715.994	245.93
716.182	301.22
716.369	297.13
716.556	333.99
716.744	159.91
716.931	196.78
717.119	274.6
717.306	217.26
717.493	356.52
717.681	217.26
717.868	252.07
718.055	266.41
718.242	268.45
718.43	270.5
718.617	450.72
718.804	342.18
718.991	366.76
719.179	266.41
719.366	313.51
719.553	266.41
719.74	254.12
719.927	270.5
720.114	284.84
720.301	217.26
720.488	225.45
720.676	231.59
720.863	333.99
721.05	483.49
721.237	319.65
721.424	342.18
721.611	387.24
721.798	204.97
721.985	182.44
722.172	235.69
722.358	276.65
722.545	409.76
722.732	333.99
722.919	325.8
723.106	340.13
723.293	299.17
723.48	217.26
723.667	284.84
723.853	379.04
724.04	317.61
724.227	225.45
724.414	200.87
724.6	377
724.787	393.38
724.974	366.76
725.161	258.21
725.347	229.54
725.534	290.98
725.72	397.48
725.907	342.18
726.094	301.22
726.28	299.17
726.467	348.33
726.653	184.49
726.84	301.22
727.027	442.53
727.213	276.65
727.4	411.81
727.586	336.04
727.773	309.41
727.959	319.65
728.145	288.93
728.332	311.46
728.518	274.6
728.705	383.14
728.891	288.93
729.077	346.28
729.264	209.06
729.45	299.17
729.636	356.52
729.823	360.61
730.009	397.48
730.195	288.93
730.382	295.08
730.568	286.89
730.754	272.55
730.94	315.56
731.126	301.22
731.313	280.74
731.499	286.89
731.685	346.28
731.871	338.09
732.057	350.37
732.243	368.81
732.429	346.28
732.615	446.63
732.801	391.33
732.987	299.17
733.173	348.33
733.359	270.5
733.545	329.89
733.731	266.41
733.917	426.15
734.103	346.28
734.289	401.57
734.475	258.21
734.661	501.92
734.847	354.47
735.033	299.17
735.219	405.67
735.404	313.51
735.59	260.26
735.776	245.93
735.962	379.04
736.148	319.65
736.333	420
736.519	344.23
736.705	340.13
736.89	309.41
737.076	411.81
737.262	297.13
737.447	319.65
737.633	270.5
737.819	403.62
738.004	297.13
738.19	315.56
738.375	381.09
738.561	403.62
738.747	389.28
738.932	252.07
739.118	452.77
739.303	346.28
739.489	379.04
739.674	313.51
739.859	284.84
740.045	411.81
740.23	340.13
740.416	231.59
740.601	311.46
740.786	282.79
740.972	370.85
741.157	274.6
741.342	274.6
741.528	213.16
741.713	420
741.898	213.16
742.084	331.94
742.269	403.62
742.454	336.04
742.639	325.8
742.824	266.41
743.01	415.91
743.195	379.04
743.38	315.56
743.565	356.52
743.75	323.75
743.935	344.23
744.12	471.2
744.305	166.06
744.49	313.51
744.675	184.49
744.86	227.5
745.045	336.04
745.23	372.9
745.415	264.36
745.6	374.95
745.785	290.98
745.97	346.28
746.155	282.79
746.34	481.44
746.525	338.09
746.71	456.87
746.895	266.41
747.079	182.44
747.264	284.84
747.449	288.93
747.634	284.84
747.819	295.08
748.003	229.54
748.188	256.17
748.373	336.04
748.557	297.13
748.742	338.09
748.927	239.78
749.111	315.56
749.296	262.31
749.481	379.04
749.665	278.69
749.85	190.63
750.034	383.14
750.219	288.93
750.404	233.64
750.588	290.98
750.773	184.49
750.957	286.89
751.141	231.59
751.326	327.85
751.51	182.44
751.695	200.87
751.879	270.5
752.064	315.56
752.248	211.11
752.432	336.04
752.617	323.75
752.801	387.24
752.985	223.4
753.17	325.8
753.354	299.17
753.538	149.67
753.722	170.15
753.907	151.72
754.091	88.23
754.275	268.45
754.459	219.3
754.643	239.78
754.828	204.97
755.012	264.36
755.196	145.58
755.38	200.87
755.564	161.96
755.748	196.78
755.932	252.07
756.116	182.44
756.3	231.59
756.484	184.49
756.668	219.3
756.852	127.14
757.036	202.92
757.22	278.69
757.404	178.34
757.588	131.24
757.772	227.5
757.956	157.86
758.14	385.19
758.323	131.24
758.507	164.01
758.691	192.68
758.875	176.3
759.059	295.08
759.242	61.61
759.426	151.72
759.61	237.74
759.794	145.58
759.977	278.69
760.161	403.62
760.345	272.55
760.528	207.02
760.712	282.79
760.895	194.73
761.079	184.49
761.263	141.48
761.446	123.05
761.63	143.53
761.813	268.45
761.997	92.33
762.18	186.54
762.364	166.06
762.547	157.86
762.731	55.47
762.914	86.19
763.098	118.95
763.281	161.96
763.464	219.3
763.648	170.15
763.831	90.28
764.015	161.96
764.198	250.02
764.381	164.01
764.564	161.96
764.748	221.35
764.931	196.78
765.114	143.53
765.297	153.77
765.481	67.75
765.664	147.62
765.847	129.19
766.03	256.17
766.213	121
766.397	112.81
766.58	22.7
766.763	176.3
766.946	67.75
767.129	141.48
767.312	90.28
767.495	127.14
767.678	24.75
767.861	125.1
768.044	227.5
768.227	190.63
768.41	55.47
768.593	118.95
768.776	147.62
768.959	170.15
769.142	180.39
769.324	14.51
769.507	69.8
769.69	47.27
769.873	20.65
770.056	325.8
770.239	112.81
770.421	180.39
770.604	155.82
770.787	186.54
770.97	106.67
771.152	92.33
771.335	159.91
771.518	22.7
771.7	112.81
771.883	231.59
772.066	34.99
772.248	118.95
772.431	159.91
772.613	207.02
772.796	106.67
772.978	127.14
773.161	262.31
773.343	123.05
773.526	43.18
773.708	-65.36
773.891	-16.21
774.073	123.05
774.256	-10.07
774.438	180.39
774.621	88.23
774.803	139.43
774.985	88.23
775.168	174.25
775.35	10.41
775.532	139.43
775.715	53.42
775.897	129.19
776.079	88.23
776.261	161.96
776.444	92.33
776.626	96.43
776.808	47.27
776.99	14.51
777.173	65.71
777.355	129.19
777.537	135.34
777.719	39.08
777.901	63.66
778.083	98.47
778.265	20.65
778.447	133.29
778.629	-16.21
778.811	112.81
778.993	96.43
779.175	118.95
779.357	145.58
779.539	24.75
779.721	61.61
779.903	90.28
780.085	139.43
780.267	90.28
780.449	65.71
780.631	34.99
780.812	161.96
780.994	49.32
781.176	51.37
781.358	14.51
781.54	18.6
781.721	61.61
781.903	102.57
782.085	55.47
782.267	153.77
782.448	-46.93
782.63	86.19
782.812	104.62
782.993	63.66
783.175	110.76
783.357	26.79
783.538	34.99
783.72	57.51
783.901	133.29
784.083	121
784.264	37.03
784.446	-34.64
784.627	-5.97
784.809	118.95
784.99	-24.4
785.172	116.9
785.353	63.66
785.535	75.95
785.716	55.47
785.897	34.99
786.079	32.94
786.26	96.43
786.441	-10.07
786.623	12.46
786.804	-20.31
786.985	59.56
787.167	51.37
787.348	118.95
787.529	32.94
787.71	196.78
787.891	14.51
788.073	-26.45
788.254	-34.64
788.435	86.19
788.616	96.43
788.797	20.65
788.978	75.95
789.159	14.51
789.34	102.57
789.522	-14.17
789.703	-18.26
789.884	118.95
790.065	32.94
790.246	164.01
790.427	39.08
790.607	204.97
790.788	112.81
790.969	12.46
791.15	86.19
791.331	22.7
791.512	4.27
791.693	47.27
791.874	18.6
792.054	217.26
792.235	100.52
792.416	-38.74
792.597	-12.12
792.778	88.23
792.958	53.42
793.139	16.55
793.32	47.27
793.5	75.95
793.681	71.85
793.862	26.79
794.042	82.09
794.223	-20.31
794.404	-24.4
794.584	-77.65
794.765	59.56
794.945	102.57
795.126	110.76
795.306	147.62
795.487	100.52
795.667	4.27
795.848	34.99
796.028	-18.26
796.209	69.8
796.389	143.53
796.57	24.75
796.75	-51.03
796.93	4.27
797.111	-79.7
797.291	57.51
797.471	75.95
797.652	-16.21
797.832	-10.07
798.012	121
798.192	-116.56
798.373	-24.4
798.553	22.7
798.733	75.95
798.913	24.75
799.093	-30.55
799.274	-5.97
799.454	121
799.634	8.36
799.814	112.81
799.994	28.84
800.174	53.42
800.354	37.03
800.534	-135
800.714	43.18
800.894	-40.79
801.074	-22.36
801.254	-38.74
801.434	125.1
801.614	-55.12
801.794	39.08
801.974	1652.88
802.154	20.65
802.334	77.99
802.514	-42.84
802.693	0.17
802.873	26.79
803.053	98.47
803.233	-12.12
803.413	0.17
803.592	16.55
803.772	-12.12
803.952	92.33
804.131	8.36
804.311	67.75
804.491	59.56
804.67	-61.27
804.85	-34.64
805.03	-10.07
805.209	110.76
805.389	-10.07
805.568	-8.02
805.748	30.89
805.928	14.51
806.107	121
806.287	41.13
806.466	59.56
806.646	32.94
806.825	47.27
807.004	-3.93
807.184	-10.07
807.363	41.13
807.543	37.03
807.722	-30.55
807.901	84.14
808.081	71.85
808.26	-55.12
808.439	51.37
808.619	41.13
808.798	-28.5
808.977	75.95
809.156	149.67
809.336	53.42
809.515	157.86
809.694	-53.08
809.873	-42.84
810.052	104.62
810.231	164.01
810.411	57.51
810.59	73.9
810.769	-20.31
810.948	49.32
811.127	-53.08
811.306	6.31
811.485	-59.22
811.664	129.19
811.843	-22.36
812.022	65.71
812.201	-96.08
812.38	2.22
812.559	-69.46
812.737	57.51
812.916	-91.99
813.095	-75.6
813.274	-18.26
813.453	26.79
813.632	71.85
813.811	121
813.989	-77.65
814.168	-20.31
814.347	-5.97
814.526	0.17
814.704	166.06
814.883	112.81
815.062	-61.27
815.24	24.75
815.419	-18.26
815.598	106.67
815.776	-145.24
815.955	34.99
816.133	-28.5
816.312	43.18
816.49	-18.26
816.669	37.03
816.847	-46.93
817.026	112.81
817.204	20.65
817.383	24.75
817.561	-53.08
817.74	88.23
817.918	32.94
818.097	-22.36
818.275	-18.26
818.453	37.03
818.632	82.09
818.81	-55.12
818.988	30.89
819.167	-12.12
819.345	41.13
819.523	-67.41
819.701	6.31
819.879	55.47
820.058	108.71
820.236	12.46
820.414	-46.93
820.592	-5.97
820.77	-30.55
820.948	18.6
821.127	-5.97
821.305	59.56
821.483	-12.12
821.661	131.24
821.839	0.17
822.017	-12.12
822.195	-12.12
822.373	102.57
822.551	-5.97
822.729	55.47
822.907	-69.46
823.085	8.36
823.262	12.46
823.44	-91.99
823.618	-32.6
823.796	6.31
823.974	-5.97
824.152	-48.98
824.329	-8.02
824.507	-16.21
824.685	24.75
824.863	55.47
825.04	16.55
825.218	67.75
825.396	32.94
825.574	2.22
825.751	8.36
825.929	20.65
826.107	-100.18
826.284	-59.22
826.462	-14.17
826.639	-100.18
826.817	-182.1
826.994	67.75
827.172	-116.56
827.349	102.57
827.527	43.18
827.704	20.65
827.882	84.14
828.059	-14.17
828.237	0.17
828.414	82.09
828.591	-87.89
828.769	10.41
828.946	6.31
829.124	71.85
829.301	59.56
829.478	75.95
829.655	43.18
829.833	-57.17
830.01	-173.91
830.187	22.7
830.364	2.22
830.542	28.84
830.719	102.57
830.896	10.41
831.073	14.51
831.25	53.42
831.427	77.99
831.604	-12.12
831.782	-36.69
831.959	84.14
832.136	-20.31
832.313	39.08
832.49	-10.07
832.667	80.04
832.844	-10.07
833.021	166.06
833.198	-3.93
833.374	-12.12
833.551	51.37
833.728	77.99
833.905	100.52
834.082	-65.36
834.259	55.47
834.436	61.61
834.612	-87.89
834.789	26.79
834.966	-16.21
835.143	16.55
835.319	-71.51
835.496	4.27
835.673	30.89
835.85	53.42
836.026	-22.36
836.203	-5.97
836.38	-89.94
836.556	-20.31
836.733	-67.41
836.909	127.14
837.086	-77.65
837.262	-161.62
837.439	-59.22
837.616	24.75
837.792	37.03
837.968	-14.17
838.145	-120.66
838.321	-26.45
838.498	80.04
838.674	57.51
838.851	34.99
839.027	-44.88
839.203	6.31
839.38	20.65
839.556	20.65
839.732	71.85
839.909	65.71
840.085	90.28
840.261	-98.13
840.437	34.99
840.614	-22.36
840.79	92.33
840.966	73.9
841.142	57.51
841.318	-79.7
841.494	34.99
841.671	90.28
841.847	-48.98
842.023	-71.51
842.199	8.36
842.375	49.32
842.551	-149.33
842.727	-42.84
842.903	170.15
843.079	16.55
843.255	82.09
843.431	94.38
843.607	155.82
843.783	-96.08
843.959	32.94
844.134	-46.93
844.31	125.1
844.486	47.27
844.662	-26.45
844.838	0.17
845.013	43.18
845.189	63.66
845.365	2.22
845.541	6.31
845.716	77.99
845.892	6.31
846.068	-24.4
846.244	-87.89
846.419	47.27
846.595	24.75
846.77	-79.7
846.946	51.37
847.122	26.79
847.297	-22.36
847.473	104.62
847.648	-100.18
847.824	-14.17
847.999	-214.87
848.175	20.65
848.35	32.94
848.526	110.76
848.701	75.95
848.876	-12.12
849.052	90.28
849.227	-18.26
849.403	-8.02
849.578	59.56
849.753	-30.55
849.929	69.8
850.104	-100.18
850.279	26.79
850.454	49.32
850.63	-16.21
850.805	-28.5
850.98	-3.93
851.155	14.51
851.33	24.75
851.505	-46.93
851.681	108.71
851.856	-63.32
852.031	90.28
852.206	-73.56
852.381	-5.97
852.556	53.42
852.731	47.27
852.906	84.14
853.081	51.37
853.256	86.19
853.431	6.31
853.606	-46.93
853.781	-38.74
853.956	-116.56
854.131	-36.69
854.305	-71.51
854.48	-14.17
854.655	6.31
854.83	-63.32
855.005	18.6
855.18	-3.93
855.354	-75.6
855.529	39.08
855.704	-28.5
855.879	69.8
856.053	-59.22
856.228	94.38
856.403	-94.04
856.577	-3.93
856.752	-87.89
856.926	-12.12
857.101	71.85
857.276	-106.32
857.45	18.6
857.625	34.99
857.799	18.6
857.974	-24.4
858.148	-71.51
858.323	-40.79
858.497	-5.97
858.672	-48.98
858.846	-67.41
859.02	30.89
859.195	-98.13
859.369	-61.27
859.543	143.53
859.718	-5.97
859.892	0.17
860.066	57.51
860.241	-61.27
860.415	2.22
860.589	-42.84
860.763	41.13
860.938	-26.45
861.112	71.85
861.286	-63.32
861.46	-3.93
861.634	-16.21
861.808	75.95
861.982	-77.65
862.157	-89.94
862.331	-12.12
862.505	-10.07
862.679	-22.36
862.853	-44.88
863.027	-57.17
863.201	86.19
863.375	-22.36
863.549	51.37
863.722	63.66
863.896	84.14
864.07	-38.74
864.244	14.51
864.418	112.81
864.592	-34.64
864.766	-3.93
864.939	-32.6
865.113	-63.32
865.287	92.33
865.461	-120.66
865.634	24.75
865.808	-53.08
865.982	-42.84
866.156	28.84
866.329	-65.36
866.503	0.17
866.676	0.17
866.85	-8.02
867.024	-69.46
867.197	75.95
867.371	-24.4
867.544	47.27
867.718	-42.84
867.891	32.94
868.065	-73.56
868.238	-28.5
868.412	22.7
868.585	-14.17
868.759	-22.36
868.932	-22.36
869.105	-51.03
869.279	8.36
869.452	28.84
869.625	8.36
869.799	-3.93
869.972	-28.5
870.145	0.17
870.319	41.13
870.492	-10.07
870.665	-77.65
870.838	-106.32
871.011	-216.91
871.185	-71.51
871.358	-71.51
871.531	-10.07
871.704	-34.64
871.877	-32.6
872.05	-12.12
872.223	-69.46
872.396	2.22
872.569	37.03
872.742	-32.6
872.915	14.51
873.088	-102.23
873.261	-73.56
873.434	123.05
873.607	10.41
873.78	22.7
873.953	-108.37
874.126	59.56
874.299	49.32
874.471	-38.74
874.644	80.04
874.817	84.14
874.99	125.1
875.163	-32.6
875.335	6.31
875.508	-51.03
875.681	39.08
875.853	-14.17
876.026	14.51
876.199	26.79
876.371	20.65
876.544	-28.5
876.717	-5.97
876.889	-8.02
877.062	-48.98
877.234	-87.89
877.407	-12.12
877.579	-16.21
877.752	20.65
877.924	34.99
878.097	-1.88
878.269	39.08
878.442	4.27
878.614	8.36
878.786	4.27
878.959	-46.93
879.131	24.75
879.303	-77.65
879.476	20.65
879.648	121
879.82	-30.55
879.993	43.18
880.165	-53.08
880.337	-75.6
880.509	73.9
880.681	-124.76
880.854	30.89
881.026	116.9
881.198	164.01
881.37	-36.69
881.542	22.7
881.714	22.7
881.886	-57.17
882.058	16.55
882.23	30.89
882.402	-30.55
882.574	-28.5
882.746	47.27
882.918	100.52
883.09	14.51
883.262	-75.6
883.434	45.23
883.606	-85.84
883.778	32.94
883.95	110.76
884.122	-61.27
884.293	106.67
884.465	-26.45
884.637	96.43
884.809	-61.27
884.98	57.51
885.152	10.41
885.324	0.17
885.496	-48.98
885.667	-91.99
885.839	-42.84
886.011	139.43
886.182	30.89
886.354	28.84
886.525	43.18
886.697	28.84
886.869	-32.6
887.04	-20.31
887.212	102.57
887.383	116.9
887.555	73.9
887.726	-32.6
887.897	39.08
888.069	37.03
888.24	84.14
888.412	-30.55
888.583	-61.27
888.754	-67.41
888.926	-141.14
889.097	-14.17
889.268	-122.71
889.44	-22.36
889.611	-98.13
889.782	-18.26
889.953	2.22
890.125	28.84
890.296	-42.84
890.467	-3.93
890.638	-3.93
890.809	69.8
890.98	-65.36
891.151	43.18
891.323	14.51
891.494	-44.88
891.665	-1.88
891.836	-32.6
892.007	-10.07
892.178	20.65
892.349	67.75
892.52	-53.08
892.691	30.89
892.862	-20.31
893.032	-124.76
893.203	-98.13
893.374	-32.6
893.545	153.77
893.716	-81.75
893.887	-5.97
894.057	-26.45
894.228	8.36
894.399	-77.65
894.57	90.28
894.74	-16.21
894.911	-55.12
895.082	28.84
895.253	-59.22
895.423	-18.26
895.594	86.19
895.764	6.31
895.935	-46.93
896.106	47.27
896.276	-110.42
896.447	28.84
896.617	-71.51
896.788	-135
896.958	4.27
897.129	-1.88
897.299	-73.56
897.47	157.86
897.64	63.66
897.81	-36.69
897.981	90.28
898.151	-71.51
898.322	34.99
898.492	-10.07
898.662	-75.6
898.832	-67.41
899.003	41.13
899.173	14.51
899.343	-34.64
899.513	-106.32
