Data from USB4F104151__38__10-42-41-881.txt Node

Date: Wed Feb 26 10:42:41 EST 2025
User: louis
Spectrometer: USB4F10415
Trigger mode: 4
Integration Time (sec): 1.000000E-1
Scans to average: 1
Electric dark correction enabled: true
Nonlinearity correction enabled: false
Boxcar width: 0
XAxis mode: Wavelengths
Number of Pixels in Spectrum: 3648
>>>>>Begin Spectral Data<<<<<
178.204	-351.4
178.424	-351.4
178.644	-351.4
178.864	-400.55
179.084	-326.82
179.304	-9.39
179.524	15.19
179.744	-13.48
179.964	-11.43
180.184	-56.49
180.404	88.92
180.624	-68.78
180.844	33.62
181.064	-11.43
181.283	33.62
181.503	-50.35
181.723	50
181.943	-13.48
182.163	209.75
182.383	2.9
182.602	121.68
182.822	187.22
183.042	-11.43
183.262	-1.19
183.482	-72.87
183.701	-66.73
183.921	19.29
184.141	-95.4
184.361	88.92
184.58	115.54
184.8	29.52
185.02	27.48
185.239	156.5
185.459	-1.19
185.679	113.49
185.898	-68.78
186.118	33.62
186.338	101.2
186.557	107.35
186.777	-17.58
186.997	19.29
187.216	39.76
187.436	199.51
187.655	64.34
187.875	99.16
188.095	93.01
188.314	199.51
188.534	123.73
188.753	-68.78
188.973	136.02
189.192	230.23
189.412	17.24
189.631	97.11
189.851	64.34
190.07	170.83
190.29	-54.44
190.509	-1.19
190.729	39.76
190.948	138.07
191.168	285.52
191.387	60.24
191.607	56.15
191.826	125.78
192.045	39.76
192.265	23.38
192.484	74.58
192.704	86.87
192.923	-79.02
193.142	168.79
193.362	101.2
193.581	179.03
193.8	52.05
194.02	86.87
194.239	60.24
194.458	4.95
194.678	41.81
194.897	-36.01
195.116	84.82
195.335	142.16
195.555	115.54
195.774	-11.43
195.993	88.92
196.212	47.96
196.432	50
196.651	84.82
196.87	33.62
197.089	219.99
197.308	62.29
197.528	125.78
197.747	39.76
197.966	35.67
198.185	129.88
198.404	-23.72
198.623	158.55
198.842	119.64
199.062	60.24
199.281	35.67
199.5	82.77
199.719	56.15
199.938	35.67
200.157	72.53
200.376	101.2
200.595	11.09
200.814	144.21
201.033	-3.24
201.252	119.64
201.471	166.74
201.69	37.72
201.909	88.92
202.128	131.92
202.347	148.31
202.566	-15.53
202.785	-89.26
203.004	-1.19
203.223	236.37
203.442	-42.15
203.661	-11.43
203.879	64.34
204.098	156.5
204.317	-48.3
204.536	50
204.755	95.06
204.974	93.01
205.193	-36.01
205.411	252.75
205.63	127.83
205.849	150.36
206.068	19.29
206.287	45.91
206.505	101.2
206.724	-9.39
206.943	-1.19
207.162	-21.67
207.381	111.44
207.599	52.05
207.818	43.86
208.037	54.1
208.255	90.96
208.474	23.38
208.693	64.34
208.911	70.48
209.13	64.34
209.349	82.77
209.567	72.53
209.786	103.25
210.005	95.06
210.223	117.59
210.442	-138.41
210.661	50
210.879	125.78
211.098	58.2
211.316	54.1
211.535	74.58
211.753	97.11
211.972	176.98
212.191	-29.87
212.409	66.39
212.628	121.68
212.846	74.58
213.065	90.96
213.283	160.59
213.502	-1.19
213.72	0.85
213.938	68.44
214.157	43.86
214.375	140.12
214.594	13.14
214.812	88.92
215.031	78.68
215.249	-19.63
215.467	15.19
215.686	9.05
215.904	138.07
216.122	21.33
216.341	115.54
216.559	60.24
216.778	90.96
216.996	160.59
217.214	19.29
217.432	-13.48
217.651	-44.2
217.869	111.44
218.087	35.67
218.306	23.38
218.524	88.92
218.742	62.29
218.96	86.87
219.179	52.05
219.397	52.05
219.615	267.09
219.833	131.92
220.051	-40.11
220.27	99.16
220.488	90.96
220.706	45.91
220.924	64.34
221.142	7
221.36	97.11
221.578	115.54
221.796	-11.43
222.015	-23.72
222.233	41.81
222.451	189.27
222.669	-7.34
222.887	86.87
223.105	-13.48
223.323	27.48
223.541	54.1
223.759	54.1
223.977	35.67
224.195	205.65
224.413	109.4
224.631	74.58
224.849	138.07
225.067	238.42
225.285	-17.58
225.503	58.2
225.721	-76.97
225.939	-25.77
226.157	86.87
226.375	346.96
226.592	7
226.81	33.62
227.028	176.98
227.246	156.5
227.464	52.05
227.682	121.68
227.9	105.3
228.117	52.05
228.335	58.2
228.553	105.3
228.771	86.87
228.989	45.91
229.206	33.62
229.424	-54.44
229.642	4.95
229.86	37.72
230.077	121.68
230.295	109.4
230.513	103.25
230.731	105.3
230.948	179.03
231.166	187.22
231.384	88.92
231.601	29.52
231.819	170.83
232.037	41.81
232.254	-83.11
232.472	64.34
232.689	31.57
232.907	140.12
233.125	9.05
233.342	27.48
233.56	7
233.777	-15.53
233.995	35.67
234.213	93.01
234.43	146.26
234.648	60.24
234.865	-17.58
235.083	125.78
235.3	95.06
235.518	84.82
235.735	138.07
235.953	9.05
236.17	99.16
236.388	109.4
236.605	29.52
236.822	144.21
237.04	82.77
237.257	41.81
237.475	-25.77
237.692	103.25
237.909	136.02
238.127	-33.96
238.344	95.06
238.562	174.93
238.779	-11.43
238.996	-62.63
239.214	146.26
239.431	146.26
239.648	37.72
239.865	148.31
240.083	17.24
240.3	70.48
240.517	11.09
240.735	70.48
240.952	197.46
241.169	109.4
241.386	158.55
241.603	82.77
241.821	-62.63
242.038	113.49
242.255	174.93
242.472	-89.26
242.689	62.29
242.907	142.16
243.124	103.25
243.341	37.72
243.558	-62.63
243.775	-29.87
243.992	-68.78
244.209	52.05
244.426	203.6
244.643	58.2
244.86	82.77
245.078	117.59
245.295	86.87
245.512	41.81
245.729	43.86
245.946	60.24
246.163	90.96
246.38	101.2
246.597	45.91
246.814	27.48
247.031	52.05
247.248	125.78
247.464	142.16
247.681	23.38
247.898	64.34
248.115	56.15
248.332	7
248.549	162.64
248.766	215.89
248.983	111.44
249.2	80.72
249.417	127.83
249.633	74.58
249.85	131.92
250.067	82.77
250.284	107.35
250.501	99.16
250.717	95.06
250.934	-68.78
251.151	-13.48
251.368	56.15
251.585	41.81
251.801	142.16
252.018	-44.2
252.235	191.31
252.451	-13.48
252.668	31.57
252.885	133.97
253.102	97.11
253.318	47.96
253.535	47.96
253.752	2.9
253.968	-29.87
254.185	-15.53
254.401	-13.48
254.618	60.24
254.835	62.29
255.051	176.98
255.268	62.29
255.484	115.54
255.701	50
255.917	66.39
256.134	31.57
256.351	58.2
256.567	52.05
256.784	88.92
257	-19.63
257.217	74.58
257.433	86.87
257.65	35.67
257.866	152.4
258.082	-40.11
258.299	45.91
258.515	129.88
258.732	-9.39
258.948	-60.59
259.165	90.96
259.381	-5.29
259.597	113.49
259.814	11.09
260.03	101.2
260.246	105.3
260.463	107.35
260.679	121.68
260.895	68.44
261.112	103.25
261.328	138.07
261.544	66.39
261.761	232.27
261.977	31.57
262.193	41.81
262.409	195.41
262.626	60.24
262.842	11.09
263.058	43.86
263.274	109.4
263.49	115.54
263.707	68.44
263.923	99.16
264.139	11.09
264.355	80.72
264.571	111.44
264.787	121.68
265.004	197.46
265.22	72.53
265.436	37.72
265.652	47.96
265.868	86.87
266.084	9.05
266.3	19.29
266.516	-79.02
266.732	64.34
266.948	70.48
267.164	-13.48
267.38	156.5
267.596	150.36
267.812	226.13
268.028	66.39
268.244	-17.58
268.46	2.9
268.676	9.05
268.892	109.4
269.108	66.39
269.324	-36.01
269.54	19.29
269.756	148.31
269.972	-25.77
270.188	39.76
270.403	-19.63
270.619	129.88
270.835	88.92
271.051	43.86
271.267	58.2
271.483	15.19
271.698	162.64
271.914	160.59
272.13	123.73
272.346	45.91
272.562	25.43
272.777	148.31
272.993	-19.63
273.209	60.24
273.425	136.02
273.64	-36.01
273.856	154.45
274.072	9.05
274.287	-46.25
274.503	64.34
274.719	107.35
274.934	33.62
275.15	-87.21
275.366	121.68
275.581	-11.43
275.797	17.24
276.012	64.34
276.228	41.81
276.444	4.95
276.659	127.83
276.875	-5.29
277.09	60.24
277.306	109.4
277.521	90.96
277.737	70.48
277.952	160.59
278.168	19.29
278.383	103.25
278.599	58.2
278.814	168.79
279.03	27.48
279.245	172.88
279.461	25.43
279.676	82.77
279.892	-13.48
280.107	-25.77
280.322	-46.25
280.538	74.58
280.753	80.72
280.969	56.15
281.184	54.1
281.399	179.03
281.615	29.52
281.83	103.25
282.045	-7.34
282.26	43.86
282.476	41.81
282.691	43.86
282.906	86.87
283.122	25.43
283.337	9.05
283.552	117.59
283.767	70.48
283.983	129.88
284.198	23.38
284.413	142.16
284.628	-27.82
284.843	35.67
285.058	88.92
285.274	62.29
285.489	23.38
285.704	113.49
285.919	82.77
286.134	29.52
286.349	78.68
286.564	84.82
286.779	191.31
286.995	41.81
287.21	4.95
287.425	111.44
287.64	33.62
287.855	101.2
288.07	-7.34
288.285	160.59
288.5	195.41
288.715	17.24
288.93	107.35
289.145	-31.91
289.36	111.44
289.575	39.76
289.79	158.55
290.004	27.48
290.219	138.07
290.434	-25.77
290.649	54.1
290.864	27.48
291.079	93.01
291.294	80.72
291.509	35.67
291.724	82.77
291.938	-23.72
292.153	80.72
292.368	37.72
292.583	156.5
292.798	50
293.012	17.24
293.227	127.83
293.442	68.44
293.657	95.06
293.871	160.59
294.086	123.73
294.301	195.41
294.516	176.98
294.73	111.44
294.945	0.85
295.16	54.1
295.374	125.78
295.589	127.83
295.804	93.01
296.018	127.83
296.233	179.03
296.447	146.26
296.662	-31.91
296.877	119.64
297.091	156.5
297.306	27.48
297.52	93.01
297.735	60.24
297.949	-1.19
298.164	125.78
298.378	66.39
298.593	0.85
298.807	4.95
299.022	25.43
299.236	179.03
299.451	31.57
299.665	68.44
299.88	54.1
300.094	80.72
300.309	62.29
300.523	109.4
300.737	60.24
300.952	52.05
301.166	52.05
301.381	4.95
301.595	43.86
301.809	21.33
302.024	9.05
302.238	-64.68
302.452	136.02
302.667	-3.24
302.881	217.94
303.095	224.08
303.309	50
303.524	37.72
303.738	-11.43
303.952	-13.48
304.166	58.2
304.381	-21.67
304.595	119.64
304.809	74.58
305.023	43.86
305.237	-23.72
305.452	66.39
305.666	164.69
305.88	109.4
306.094	80.72
306.308	191.31
306.522	224.08
306.736	101.2
306.95	158.55
307.164	0.85
307.379	-1.19
307.593	162.64
307.807	64.34
308.021	160.59
308.235	47.96
308.449	-64.68
308.663	105.3
308.877	246.61
309.091	68.44
309.305	111.44
309.519	-29.87
309.733	150.36
309.947	-40.11
310.161	148.31
310.374	136.02
310.588	133.97
310.802	-5.29
311.016	54.1
311.23	80.72
311.444	13.14
311.658	64.34
311.872	150.36
312.085	113.49
312.299	152.4
312.513	187.22
312.727	17.24
312.941	-5.29
313.154	107.35
313.368	95.06
313.582	84.82
313.796	136.02
314.009	60.24
314.223	101.2
314.437	45.91
314.651	119.64
314.864	58.2
315.078	11.09
315.292	23.38
315.505	84.82
315.719	127.83
315.933	160.59
316.146	-27.82
316.36	15.19
316.573	123.73
316.787	127.83
317.001	99.16
317.214	-25.77
317.428	76.63
317.641	13.14
317.855	29.52
318.068	70.48
318.282	88.92
318.495	197.46
318.709	158.55
318.922	90.96
319.136	197.46
319.349	113.49
319.563	-5.29
319.776	142.16
319.99	-87.21
320.203	136.02
320.417	-3.24
320.63	97.11
320.843	181.07
321.057	97.11
321.27	43.86
321.483	54.1
321.697	213.84
321.91	99.16
322.124	37.72
322.337	164.69
322.55	11.09
322.763	88.92
322.977	78.68
323.19	9.05
323.403	11.09
323.617	80.72
323.83	138.07
324.043	-1.19
324.256	121.68
324.469	-42.15
324.683	138.07
324.896	33.62
325.109	144.21
325.322	-60.59
325.535	101.2
325.748	133.97
325.962	142.16
326.175	82.77
326.388	43.86
326.601	90.96
326.814	107.35
327.027	113.49
327.24	107.35
327.453	-50.35
327.666	58.2
327.879	99.16
328.092	86.87
328.305	50
328.518	41.81
328.731	39.76
328.944	54.1
329.157	129.88
329.37	70.48
329.583	187.22
329.796	144.21
330.009	17.24
330.222	101.2
330.435	172.88
330.648	86.87
330.861	23.38
331.073	107.35
331.286	164.69
331.499	15.19
331.712	-29.87
331.925	103.25
332.138	86.87
332.35	117.59
332.563	47.96
332.776	181.07
332.989	50
333.202	0.85
333.414	21.33
333.627	99.16
333.84	21.33
334.053	97.11
334.265	-13.48
334.478	15.19
334.691	37.72
334.903	33.62
335.116	9.05
335.329	15.19
335.541	123.73
335.754	250.71
335.966	-15.53
336.179	25.43
336.392	-19.63
336.604	99.16
336.817	168.79
337.029	64.34
337.242	31.57
337.454	156.5
337.667	115.54
337.88	191.31
338.092	146.26
338.305	101.2
338.517	105.3
338.729	23.38
338.942	127.83
339.154	-13.48
339.367	-25.77
339.579	72.53
339.792	-7.34
340.004	93.01
340.217	64.34
340.429	11.09
340.641	-27.82
340.854	21.33
341.066	37.72
341.278	148.31
341.491	160.59
341.703	43.86
341.915	15.19
342.128	142.16
342.34	37.72
342.552	21.33
342.764	47.96
342.977	43.86
343.189	117.59
343.401	76.63
343.613	-68.78
343.826	56.15
344.038	7
344.25	90.96
344.462	-27.82
344.674	86.87
344.886	93.01
345.099	123.73
345.311	64.34
345.523	97.11
345.735	-25.77
345.947	117.59
346.159	72.53
346.371	121.68
346.583	72.53
346.795	181.07
347.007	-27.82
347.219	152.4
347.431	7
347.643	123.73
347.855	23.38
348.067	131.92
348.279	43.86
348.491	-23.72
348.703	119.64
348.915	56.15
349.127	7
349.339	76.63
349.551	-5.29
349.763	109.4
349.975	103.25
350.187	170.83
350.399	168.79
350.61	148.31
350.822	119.64
351.034	-1.19
351.246	80.72
351.458	74.58
351.669	109.4
351.881	60.24
352.093	95.06
352.305	222.03
352.517	101.2
352.728	213.84
352.94	86.87
353.152	191.31
353.363	-29.87
353.575	99.16
353.787	226.13
353.999	41.81
354.21	183.12
354.422	-25.77
354.633	7
354.845	50
355.057	95.06
355.268	152.4
355.48	156.5
355.692	74.58
355.903	25.43
356.115	-9.39
356.326	-72.87
356.538	240.47
356.749	119.64
356.961	205.65
357.172	9.05
357.384	-25.77
357.595	222.03
357.807	-19.63
358.018	37.72
358.23	121.68
358.441	164.69
358.653	64.34
358.864	54.1
359.075	17.24
359.287	70.48
359.498	105.3
359.709	93.01
359.921	107.35
360.132	107.35
360.344	90.96
360.555	50
360.766	52.05
360.977	15.19
361.189	217.94
361.4	19.29
361.611	97.11
361.823	129.88
362.034	56.15
362.245	-21.67
362.456	62.29
362.667	58.2
362.879	15.19
363.09	166.74
363.301	99.16
363.512	76.63
363.723	15.19
363.935	15.19
364.146	142.16
364.357	76.63
364.568	107.35
364.779	-17.58
364.99	191.31
365.201	31.57
365.412	140.12
365.623	70.48
365.834	64.34
366.045	82.77
366.256	117.59
366.467	111.44
366.678	-48.3
366.889	133.97
367.1	29.52
367.311	111.44
367.522	4.95
367.733	150.36
367.944	136.02
368.155	21.33
368.366	146.26
368.577	99.16
368.788	156.5
368.999	9.05
369.209	54.1
369.42	199.51
369.631	193.36
369.842	154.45
370.053	58.2
370.264	183.12
370.474	-42.15
370.685	54.1
370.896	127.83
371.107	154.45
371.317	72.53
371.528	37.72
371.739	158.55
371.95	113.49
372.16	109.4
372.371	41.81
372.582	103.25
372.792	74.58
373.003	131.92
373.214	160.59
373.424	103.25
373.635	-29.87
373.846	166.74
374.056	4.95
374.267	185.17
374.477	170.83
374.688	19.29
374.898	80.72
375.109	70.48
375.319	107.35
375.53	146.26
375.74	129.88
375.951	9.05
376.161	123.73
376.372	191.31
376.582	35.67
376.793	76.63
377.003	11.09
377.214	82.77
377.424	101.2
377.635	66.39
377.845	43.86
378.055	123.73
378.266	84.82
378.476	56.15
378.686	179.03
378.897	17.24
379.107	187.22
379.317	93.01
379.528	43.86
379.738	133.97
379.948	-7.34
380.158	109.4
380.369	60.24
380.579	74.58
380.789	72.53
380.999	7
381.21	88.92
381.42	219.99
381.63	84.82
381.84	176.98
382.05	131.92
382.261	111.44
382.471	142.16
382.681	52.05
382.891	242.51
383.101	156.5
383.311	27.48
383.521	52.05
383.731	133.97
383.941	144.21
384.151	105.3
384.361	52.05
384.571	144.21
384.781	111.44
384.991	162.64
385.201	195.41
385.411	109.4
385.621	68.44
385.831	84.82
386.041	76.63
386.251	152.4
386.461	144.21
386.671	37.72
386.881	80.72
387.091	39.76
387.301	119.64
387.511	113.49
387.72	99.16
387.93	72.53
388.14	-3.24
388.35	93.01
388.56	162.64
388.769	156.5
388.979	107.35
389.189	43.86
389.399	64.34
389.609	103.25
389.818	80.72
390.028	101.2
390.238	45.91
390.447	23.38
390.657	168.79
390.867	23.38
391.076	33.62
391.286	103.25
391.496	76.63
391.705	35.67
391.915	199.51
392.125	113.49
392.334	66.39
392.544	172.88
392.753	82.77
392.963	27.48
393.172	74.58
393.382	68.44
393.591	222.03
393.801	74.58
394.01	168.79
394.22	203.6
394.429	78.68
394.639	54.1
394.848	103.25
395.058	82.77
395.267	33.62
395.477	76.63
395.686	117.59
395.895	195.41
396.105	144.21
396.314	129.88
396.524	84.82
396.733	52.05
396.942	154.45
397.152	115.54
397.361	131.92
397.57	107.35
397.78	33.62
397.989	127.83
398.198	228.18
398.407	142.16
398.617	117.59
398.826	74.58
399.035	72.53
399.244	209.75
399.453	82.77
399.663	121.68
399.872	103.25
400.081	25.43
400.29	140.12
400.499	58.2
400.708	107.35
400.917	105.3
401.127	47.96
401.336	60.24
401.545	258.9
401.754	150.36
401.963	74.58
402.172	58.2
402.381	19.29
402.59	56.15
402.799	41.81
403.008	162.64
403.217	115.54
403.426	111.44
403.635	58.2
403.844	58.2
404.053	66.39
404.262	39.76
404.471	230.23
404.68	117.59
404.888	52.05
405.097	84.82
405.306	88.92
405.515	154.45
405.724	7
405.933	129.88
406.142	99.16
406.35	224.08
406.559	62.29
406.768	131.92
406.977	191.31
407.185	146.26
407.394	152.4
407.603	17.24
407.812	60.24
408.02	191.31
408.229	82.77
408.438	74.58
408.646	-13.48
408.855	45.91
409.064	131.92
409.272	45.91
409.481	170.83
409.69	9.05
409.898	58.2
410.107	123.73
410.315	215.89
410.524	86.87
410.733	164.69
410.941	41.81
411.15	164.69
411.358	123.73
411.567	162.64
411.775	107.35
411.984	90.96
412.192	105.3
412.401	25.43
412.609	252.75
412.818	224.08
413.026	158.55
413.234	72.53
413.443	107.35
413.651	17.24
413.86	-19.63
414.068	148.31
414.276	170.83
414.485	58.2
414.693	207.7
414.901	211.79
415.11	101.2
415.318	66.39
415.526	64.34
415.734	123.73
415.943	101.2
416.151	230.23
416.359	97.11
416.567	117.59
416.776	152.4
416.984	107.35
417.192	176.98
417.4	74.58
417.608	78.68
417.817	103.25
418.025	203.6
418.233	254.8
418.441	27.48
418.649	68.44
418.857	172.88
419.065	240.47
419.273	109.4
419.481	125.78
419.689	113.49
419.897	-5.29
420.105	103.25
420.313	133.97
420.521	166.74
420.729	111.44
420.937	60.24
421.145	97.11
421.353	195.41
421.561	234.32
421.769	125.78
421.977	29.52
422.185	146.26
422.393	103.25
422.601	199.51
422.809	101.2
423.017	148.31
423.224	162.64
423.432	174.93
423.64	103.25
423.848	193.36
424.056	33.62
424.263	273.23
424.471	33.62
424.679	197.46
424.887	76.63
425.094	236.37
425.302	150.36
425.51	129.88
425.718	168.79
425.925	140.12
426.133	56.15
426.341	234.32
426.548	168.79
426.756	70.48
426.964	297.81
427.171	191.31
427.379	144.21
427.586	138.07
427.794	244.56
428.001	232.27
428.209	187.22
428.417	273.23
428.624	117.59
428.832	191.31
429.039	211.79
429.247	195.41
429.454	238.42
429.662	400.21
429.869	144.21
430.076	193.36
430.284	232.27
430.491	293.71
430.699	232.27
430.906	224.08
431.114	267.09
431.321	289.62
431.528	207.7
431.736	260.95
431.943	238.42
432.15	267.09
432.358	275.28
432.565	441.17
432.772	133.97
432.979	357.2
433.187	277.33
433.394	322.38
433.601	281.43
433.808	383.82
434.016	443.21
434.223	439.12
434.43	398.16
434.637	428.88
434.844	518.99
435.052	428.88
435.259	478.03
435.466	469.84
435.673	478.03
435.88	535.37
436.087	518.99
436.294	527.18
436.501	521.04
436.708	492.37
436.915	537.42
437.122	633.68
437.329	559.95
437.537	555.85
437.743	609.1
437.95	717.64
438.157	594.76
438.364	639.82
438.571	652.11
438.778	793.42
438.985	781.13
439.192	838.47
439.399	756.55
439.606	805.71
439.813	889.67
440.02	1006.41
440.227	1092.42
440.433	1018.69
440.64	1071.94
440.847	944.97
441.054	1164.1
441.261	1223.49
441.467	1137.48
441.674	1133.38
441.881	1352.51
442.088	1227.59
442.294	1254.21
442.501	1291.07
442.708	1469.25
442.914	1450.82
443.121	1571.65
443.328	1483.58
443.534	1680.19
443.741	1735.48
443.948	1538.88
444.154	1731.39
444.361	1876.79
444.568	1919.8
444.774	2040.63
444.981	1968.95
445.187	2116.41
445.394	2183.99
445.6	2171.7
445.807	2501.42
446.013	2454.32
446.22	2313.01
446.426	2620.21
446.633	2833.19
446.839	2794.28
447.046	2777.9
447.252	3062.57
447.459	2956.07
447.665	3189.54
447.871	3230.5
448.078	3578.65
448.284	3457.82
448.491	3826.46
448.697	3975.96
448.903	4021.02
449.11	4283.16
449.316	4240.15
449.522	4590.35
449.728	4659.98
449.935	4813.58
450.141	4780.81
450.347	5128.97
450.553	5018.38
450.76	5227.27
450.966	5575.42
451.172	5491.46
451.378	5845.76
451.584	6048.51
451.791	6482.67
451.997	6611.7
452.203	6777.58
452.409	7070.44
452.615	7465.7
452.821	7334.63
453.027	7318.25
453.233	8241.88
453.44	7965.4
453.646	8530.64
453.852	8825.55
454.058	9231.05
454.264	9302.73
454.47	10023.61
454.676	10259.13
454.882	11029.17
455.088	10457.78
455.294	10988.21
455.5	11623.08
455.705	12567.19
455.911	12427.93
456.117	12970.64
456.323	13478.54
456.529	13462.15
456.735	14506.62
456.941	15041.14
457.147	15561.32
457.352	15979.11
457.558	16417.37
457.764	17257.04
457.97	18205.25
458.176	18571.83
458.381	19380.78
458.587	19716.65
458.793	20431.39
458.999	20726.3
459.204	23405.04
459.41	24525.28
459.616	23814.63
459.821	25536.98
460.027	26223.05
460.233	27285.94
460.438	27513.27
460.644	29249.94
460.85	29641.11
461.055	30562.69
461.261	31979.89
461.466	31334.78
461.672	32074.09
461.878	36045.1
462.083	35631.41
462.289	36020.53
462.494	37916.95
462.7	37835.03
462.905	38152.46
463.111	41392.35
463.316	43509.95
463.522	44232.88
463.727	45815.96
463.932	47372.42
464.138	48834.67
464.343	50583.63
464.549	50677.84
464.754	54366.23
464.959	56061.95
465.165	56434.68
465.37	56180.73
465.575	56254.46
465.781	59566.02
465.986	61134.77
466.191	60407.74
466.397	61179.82
466.602	59613.13
466.807	62910.36
467.012	63500.17
467.218	63770.5
467.423	63770.5
467.628	63770.5
467.833	63770.5
468.038	63770.5
468.244	63770.5
468.449	63770.5
468.654	63770.5
468.859	63770.5
469.064	63770.5
469.269	63770.5
469.474	63770.5
469.679	63770.5
469.885	63770.5
470.09	63770.5
470.295	63770.5
470.5	63770.5
470.705	63770.5
470.91	63770.5
471.115	63770.5
471.32	63770.5
471.525	63770.5
471.73	63770.5
471.935	63770.5
472.139	62627.74
472.344	63004.56
472.549	62443.42
472.754	61104.05
472.959	60340.16
473.164	58142.69
473.369	57552.87
473.574	58771.41
473.778	57466.86
473.983	56905.71
474.188	55992.32
474.393	53977.12
474.598	53301.29
474.802	52226.1
475.007	51687.49
475.212	51171.4
475.417	49168.49
475.621	48511.09
475.826	48533.62
476.031	46946.44
476.235	46067.86
476.44	46549.14
476.645	45273.25
476.849	44581.04
477.054	43827.38
477.259	43147.46
477.463	42674.38
477.668	41328.86
477.872	42225.87
478.077	41083.11
478.282	39776.5
478.486	39502.07
478.691	38646.02
478.895	38709.51
479.1	38611.21
479.304	37888.28
479.509	37130.53
479.713	37480.73
479.918	36596.01
480.122	35817.78
480.326	36065.58
480.531	36202.8
480.735	35426.62
480.94	34998.59
481.144	35905.84
481.348	34234.7
481.553	34193.74
481.757	33853.78
481.961	34167.12
482.166	34115.92
482.37	33644.88
482.574	32749.92
482.778	32819.55
482.983	33206.62
483.187	32622.95
483.391	32649.57
483.595	31748.46
483.8	31527.28
484.004	31621.49
484.208	31691.12
484.412	30757.25
484.616	30544.26
484.821	30355.85
485.025	29376.92
485.229	29864.33
485.433	28930.46
485.637	29163.93
485.841	28393.89
486.045	28277.16
486.249	27988.39
486.453	27234.74
486.657	27273.65
486.861	26659.26
487.065	25555.41
487.269	26065.35
487.473	25072.09
487.677	25188.82
487.881	24994.26
488.085	24566.24
488.289	23912.94
488.493	23427.57
488.697	23140.85
488.901	22864.38
489.105	22415.87
489.309	22104.58
489.512	21778.95
489.716	21373.46
489.92	20748.82
490.124	20347.42
490.328	20570.65
490.531	19397.17
490.735	19046.96
490.939	19010.1
491.143	18663.99
491.346	18479.68
491.55	18149.95
491.754	17791.56
491.958	17664.58
492.161	17152.59
492.365	16998.99
492.569	16517.72
492.772	16421.47
492.976	16312.92
493.18	15981.15
493.383	16048.74
493.587	15708.77
493.79	15450.73
493.994	15028.85
494.197	15329.9
494.401	15022.7
494.605	14533.24
494.808	14750.32
495.012	14533.24
495.215	14428.79
495.419	14307.96
495.622	13742.72
495.825	13970.05
496.029	13761.16
496.232	13851.27
496.436	13881.99
496.639	13951.62
496.843	13501.06
497.046	13673.09
497.249	13640.33
497.453	13714.05
497.656	13673.09
497.859	13587.08
498.063	13519.5
498.266	13982.34
498.469	13361.8
498.673	13593.22
498.876	13707.91
499.079	13857.41
499.282	13656.71
499.485	14103.17
499.689	13855.36
499.892	14070.4
500.095	13806.21
500.298	14088.83
500.501	13898.37
500.705	14269.05
500.908	14353.02
501.111	14590.58
501.314	14723.7
501.517	14860.91
501.72	14791.28
501.923	14944.88
502.126	15000.18
502.329	15524.46
502.532	15479.4
502.735	15405.67
502.938	15647.33
503.141	15991.39
503.344	16087.65
503.547	16065.12
503.75	16298.59
503.953	16575.06
504.156	17039.95
504.359	17052.24
504.562	16833.11
504.765	17369.68
504.968	17633.86
505.17	17879.62
505.373	18025.03
505.576	18678.33
505.779	18762.3
505.982	19235.38
506.185	19401.26
506.387	19425.84
506.59	19876.39
506.793	20247.07
506.996	20294.18
507.198	20984.34
507.401	20914.71
507.604	21543.44
507.807	22438.4
508.009	22350.34
508.212	22659.58
508.415	23116.28
508.617	23732.72
508.82	24226.28
509.022	24572.38
509.225	25348.56
509.428	25412.05
509.63	25967.05
509.833	26364.36
510.035	27517.36
510.238	27681.2
510.44	28305.83
510.643	28916.12
510.845	29669.78
511.048	29596.05
511.25	30566.79
511.453	31318.39
511.655	32463.21
511.858	32807.26
512.06	33472.85
512.262	34038.09
512.465	34636.1
512.667	35268.92
512.87	36608.29
513.072	36786.47
513.274	38029.59
513.477	38607.11
513.679	39481.59
513.881	40138.99
514.084	41369.82
514.286	41744.6
514.488	42674.38
514.69	44187.83
514.893	44746.92
515.095	44996.77
515.297	46389.39
515.499	46973.06
515.701	47988.86
515.904	49250.41
516.106	49791.07
516.308	51316.81
516.51	51849.28
516.712	52752.43
516.914	53377.06
517.116	55476.23
517.318	55595.01
517.52	56315.9
517.722	57237.48
517.925	58634.2
518.127	59488.2
518.329	60420.03
518.531	60659.64
518.733	61951.91
518.935	62738.33
519.136	63694.73
519.338	63770.5
519.54	63770.5
519.742	63770.5
519.944	63770.5
520.146	63770.5
520.348	63770.5
520.55	63770.5
520.752	63770.5
520.954	63770.5
521.155	63770.5
521.357	63770.5
521.559	63770.5
521.761	63770.5
521.963	63770.5
522.164	63770.5
522.366	63770.5
522.568	63770.5
522.77	63770.5
522.971	63770.5
523.173	63770.5
523.375	63770.5
523.576	63770.5
523.778	63770.5
523.98	63770.5
524.181	63770.5
524.383	63770.5
524.584	63770.5
524.786	63770.5
524.988	63770.5
525.189	63770.5
525.391	63770.5
525.592	63770.5
525.794	63770.5
525.995	63770.5
526.197	63770.5
526.398	63770.5
526.6	63770.5
526.801	63770.5
527.003	63770.5
527.204	63770.5
527.406	63770.5
527.607	63770.5
527.808	63770.5
528.01	63770.5
528.211	63770.5
528.412	63770.5
528.614	63770.5
528.815	63770.5
529.016	63770.5
529.218	63770.5
529.419	63770.5
529.62	63770.5
529.822	63770.5
530.023	63770.5
530.224	63770.5
530.425	63770.5
530.626	63770.5
530.828	63770.5
531.029	63770.5
531.23	63770.5
531.431	63770.5
531.632	63770.5
531.833	63770.5
532.035	63770.5
532.236	63770.5
532.437	63770.5
532.638	63770.5
532.839	63770.5
533.04	63770.5
533.241	63770.5
533.442	63770.5
533.643	63770.5
533.844	63770.5
534.045	63770.5
534.246	61636.52
534.447	59088.85
534.648	57729
534.849	56825.84
535.05	55509
535.251	55447.56
535.451	54827.02
535.652	53905.44
535.853	53252.14
536.054	53012.52
536.255	52176.95
536.456	51019.85
536.657	51392.58
536.857	49973.34
537.058	49479.78
537.259	49193.06
537.46	48164.98
537.66	47196.29
537.861	47034.5
538.062	46755.98
538.263	45883.55
538.463	44681.39
538.664	44265.65
538.865	44173.49
539.065	43978.93
539.266	42705.1
539.466	42647.75
539.667	41601.24
539.868	42197.2
540.068	41337.05
540.269	40394.99
540.469	40585.45
540.67	39481.59
540.87	39416.06
541.071	38889.73
541.271	38637.83
541.472	38082.83
541.672	37519.64
541.873	36960.55
542.073	36139.31
542.274	36360.49
542.474	35891.51
542.675	35199.29
542.875	35191.1
543.075	34677.06
543.276	34048.33
543.476	34457.93
543.676	33788.24
543.877	33296.73
544.077	32672.1
544.277	32213.35
544.478	32043.37
544.678	31998.32
544.878	31418.74
545.078	31275.38
545.279	30683.52
545.479	30245.26
545.679	30206.34
545.879	29477.27
546.079	29471.12
546.28	28879.26
546.48	28791.2
546.68	28535.2
546.88	27972.01
547.08	27777.45
547.28	27537.84
547.48	26864.06
547.68	26859.96
547.88	26452.42
548.081	26423.75
548.281	25700.81
548.481	25029.08
548.681	25149.91
548.881	24785.37
549.081	24666.59
549.28	24050.15
549.48	24017.38
549.68	23579.12
549.88	23331.31
550.08	22786.55
550.28	22505.98
550.48	22264.32
550.68	22133.25
550.88	21533.2
551.08	21066.26
551.279	21387.79
551.479	20769.3
551.679	20562.46
551.879	20152.87
552.079	20111.91
552.278	19427.88
552.478	19235.38
552.678	19044.91
552.878	19098.16
553.077	18788.92
553.277	18049.6
553.477	17979.97
553.676	17652.3
553.876	17285.71
554.076	17072.72
554.275	16775.77
554.475	16325.21
554.674	16304.73
554.874	16228.96
555.074	15802.98
555.273	15577.7
555.473	15321.71
555.672	15104.62
555.872	14936.69
556.071	14828.15
556.271	14676.6
556.47	14158.46
556.67	13687.43
556.869	13683.33
557.068	13611.65
557.268	13335.18
557.467	13095.57
557.667	12794.51
557.866	12655.25
558.065	12391.06
558.265	12178.08
558.464	12163.74
558.663	12077.73
558.863	11739.81
559.062	11604.64
559.261	11342.5
559.461	11193
559.66	10916.53
559.859	10793.65
560.058	10482.36
560.258	10443.45
560.457	10212.03
560.656	10416.82
560.855	9935.55
561.054	10080.96
561.253	9687.75
561.453	9749.18
561.652	9546.44
561.851	9255.62
562.05	8841.93
562.249	9007.82
562.448	9046.73
562.647	8516.31
562.846	8553.17
563.045	8760.02
563.244	8364.76
563.443	8088.28
563.642	8071.9
563.841	8237.78
564.04	7740.13
564.239	7848.67
564.438	7580.39
564.637	7359.21
564.836	7668.45
565.035	7172.84
565.234	7289.57
565.432	6927.08
565.631	7033.58
565.83	7027.43
566.029	6757.1
566.228	6714.09
566.427	6753.01
566.625	6460.15
566.824	6519.54
567.023	6384.37
567.222	6107.9
567.42	6208.25
567.619	6107.9
567.818	6050.55
568.016	6030.07
568.215	5821.18
568.414	5696.25
568.612	5720.83
568.811	5671.68
569.01	5600
569.208	5389.06
569.407	5427.97
569.605	5327.62
569.804	5088.01
570.002	5225.22
570.201	5155.59
570.4	5198.6
570.598	4784.91
570.797	4795.15
570.995	4748.04
571.193	4713.23
571.392	4705.04
571.59	4412.18
571.789	4588.3
571.987	4434.71
572.186	4563.73
572.384	4397.84
572.582	4285.2
572.781	4373.27
572.979	4045.59
573.177	4107.03
573.376	4131.61
573.574	4023.06
573.772	3883.8
573.971	3896.09
574.169	3717.92
574.367	3736.35
574.565	3478.3
574.763	3722.01
574.962	3607.33
575.16	3425.06
575.358	3402.53
575.556	3404.58
575.754	3392.29
575.952	3330.85
576.151	3316.51
576.349	3310.37
576.547	3052.33
576.745	2999.08
576.943	3052.33
577.141	2962.22
577.339	2868.01
577.537	2972.46
577.735	3015.46
577.933	2880.3
578.131	2804.52
578.329	2757.42
578.527	2808.62
578.725	2857.77
578.923	2552.62
579.121	2583.34
579.319	2437.94
579.516	2564.91
579.714	2644.78
579.912	2388.78
580.11	2431.79
580.308	2360.11
580.506	2413.36
580.704	2216.76
580.901	2263.86
581.099	2267.95
581.297	2214.71
581.495	2173.75
581.692	2165.56
581.89	2251.57
582.088	2110.26
582.285	2014.01
582.483	2003.77
582.681	1997.62
582.878	1913.66
583.076	1964.86
583.274	1839.93
583.471	2046.77
583.669	1913.66
583.866	1731.39
584.064	1815.35
584.262	1717.05
584.459	1626.94
584.657	1827.64
584.854	1821.5
585.052	1715
585.249	1633.08
585.447	1694.52
585.644	1485.63
585.841	1723.2
586.039	1624.89
586.236	1688.38
586.434	1483.58
586.631	1553.21
586.828	1471.29
587.026	1540.93
587.223	1291.07
587.42	1358.66
587.618	1426.24
587.815	1518.4
588.012	1346.37
588.21	1346.37
588.407	1405.76
588.604	1436.48
588.801	1254.21
588.999	1350.46
589.196	1413.95
589.393	1297.22
589.59	1315.65
589.787	1366.85
589.984	1352.51
590.182	1276.74
590.379	1219.39
590.576	1219.39
590.773	1274.69
590.97	1235.78
591.167	1327.94
591.364	1205.06
591.561	1289.03
591.758	1352.51
591.955	1272.64
592.152	1336.13
592.349	1078.08
592.546	1149.76
592.743	1223.49
592.94	1252.16
593.137	1217.35
593.334	1286.98
593.531	1166.15
593.727	1325.89
593.924	1221.44
594.121	1223.49
594.318	1174.34
594.515	1174.34
594.712	1372.99
594.908	1305.41
595.105	1209.15
595.302	1430.34
595.499	1305.41
595.696	1481.53
595.892	1350.46
596.089	1530.69
596.286	1430.34
596.482	1559.36
596.679	1508.16
596.876	1536.83
597.072	1704.76
597.269	1506.11
597.466	1729.34
597.662	1661.76
597.859	1749.82
598.055	1844.03
598.252	1962.81
598.448	2028.34
598.645	2003.77
598.841	2132.79
599.038	2241.33
599.234	2431.79
599.431	2325.3
599.627	2468.66
599.824	2454.32
600.02	2591.53
600.217	2673.45
600.413	2804.52
600.609	2919.21
600.806	3316.51
601.002	3230.5
601.198	3164.97
601.395	3547.94
601.591	3541.79
601.787	3644.19
601.984	3951.39
602.18	3918.62
602.376	4123.41
602.572	4471.57
602.769	4504.34
602.965	4602.64
603.161	4856.59
603.357	4952.84
603.553	5298.95
603.75	5397.25
603.946	5458.69
604.142	5788.41
604.338	6007.55
604.534	5970.68
604.73	6214.39
604.926	6562.55
605.122	6757.1
605.318	6937.32
605.514	7113.45
605.71	7187.18
605.906	7670.5
606.102	7674.59
606.298	8227.54
606.494	8219.35
606.69	8508.12
606.886	8684.24
607.082	8911.57
607.278	9278.15
607.474	9290.44
607.67	9720.51
607.866	9814.72
608.062	10422.97
608.257	10592.95
608.453	10625.72
608.649	11305.64
608.845	11221.67
609.041	11645.6
609.236	12286.62
609.432	12630.68
609.628	12728.98
609.824	13105.81
610.019	13390.47
610.215	13867.65
610.411	14439.03
610.606	14783.09
610.802	15057.52
610.998	15549.03
611.193	15897.19
611.389	16048.74
611.584	16761.43
611.78	16726.61
611.976	17734.21
612.171	18252.35
612.367	18555.45
612.562	18872.89
612.758	19120.69
612.953	19653.16
613.149	20548.12
613.344	20832.79
613.539	21965.32
613.735	22090.24
613.93	23077.37
614.126	23319.03
614.321	24242.66
614.517	24578.53
614.712	25160.15
614.907	25797.07
615.103	26343.88
615.298	26864.06
615.493	28127.66
615.688	28508.58
615.884	29733.26
616.079	30124.43
616.274	31142.27
616.47	31379.83
616.665	32768.35
616.86	33030.49
617.055	33947.98
617.25	34947.39
617.445	35778.87
617.641	36081.97
617.836	37855.51
618.031	37767.45
618.226	39221.5
618.421	40005.87
618.616	41529.56
618.811	41423.07
619.006	43428.03
619.201	43497.66
619.396	45213.86
619.591	45045.93
619.786	46442.64
619.981	47235.2
620.176	48707.69
620.371	49401.96
620.566	50579.54
620.761	51341.38
620.956	52635.7
621.151	53063.72
621.346	54476.82
621.541	54925.33
621.735	56803.31
621.93	56881.14
622.125	58433.5
622.32	58748.88
622.515	60024.77
622.709	60665.78
622.904	62052.26
623.099	62513.05
623.294	63770.5
623.488	63770.5
623.683	63770.5
623.878	63770.5
624.072	63770.5
624.267	63770.5
624.462	63770.5
624.656	63770.5
624.851	63770.5
625.046	63770.5
625.24	63770.5
625.435	63770.5
625.629	63770.5
625.824	63770.5
626.018	63770.5
626.213	63770.5
626.407	63770.5
626.602	63770.5
626.796	63770.5
626.991	63770.5
627.185	63770.5
627.38	63770.5
627.574	63770.5
627.768	63770.5
627.963	63770.5
628.157	63770.5
628.352	63770.5
628.546	63770.5
628.74	63770.5
628.935	63770.5
629.129	63770.5
629.323	63770.5
629.517	63770.5
629.712	63770.5
629.906	63770.5
630.1	63770.5
630.294	63770.5
630.489	63770.5
630.683	63770.5
630.877	63770.5
631.071	63770.5
631.265	63770.5
631.459	63770.5
631.653	63770.5
631.848	63770.5
632.042	63770.5
632.236	63770.5
632.43	63770.5
632.624	63770.5
632.818	63770.5
633.012	63770.5
633.206	63770.5
633.4	63770.5
633.594	63770.5
633.788	63770.5
633.982	63770.5
634.176	63770.5
634.369	63770.5
634.563	63770.5
634.757	61468.59
634.951	51535.94
635.145	42664.14
635.339	41435.36
635.533	39217.41
635.726	38469.9
635.92	36327.72
636.114	35389.75
636.308	33663.32
636.501	32629.09
636.695	31105.4
636.889	29737.36
637.083	28592.55
637.276	27732.4
637.47	26292.68
637.664	25366.99
637.857	24285.67
638.051	23489.01
638.244	22430.21
638.438	21512.72
638.632	20697.63
638.825	19546.67
639.019	19006
639.212	18137.66
639.406	17613.38
639.599	16990.8
639.793	16441.95
639.986	15598.18
640.18	15026.8
640.373	14506.62
640.567	13918.85
640.76	13415.05
640.954	12692.12
641.147	12427.93
641.34	11866.78
641.534	11428.52
641.727	10973.87
641.92	10779.31
642.114	10171.07
642.307	9812.67
642.5	9525.96
642.694	8901.33
642.887	8923.85
643.08	8704.72
643.273	8233.69
643.467	7805.66
643.66	7334.63
643.853	7185.13
644.046	6933.23
644.239	6642.42
644.432	6529.78
644.626	6126.33
644.819	6097.66
645.012	5683.97
645.205	5649.15
645.398	5235.46
645.591	5022.47
645.784	5014.28
645.977	4680.46
646.17	4645.65
646.363	4367.12
646.556	4066.07
646.749	3937.05
646.942	3894.04
647.135	3812.12
647.328	3584.8
647.521	3367.71
647.714	3357.47
647.907	3142.44
648.099	3050.28
648.292	2990.89
648.485	2843.43
648.678	2741.04
648.871	2714.41
649.064	2530.09
649.256	2378.55
649.449	2339.63
649.642	2249.52
649.835	2134.84
650.027	2073.4
650.22	2165.56
650.413	1903.42
650.605	2042.68
650.798	1776.44
650.991	1850.17
651.183	1735.48
651.376	1753.91
651.568	1694.52
651.761	1565.5
651.954	1547.07
652.146	1481.53
652.339	1479.49
652.531	1409.86
652.724	1262.4
652.916	1250.11
653.109	1071.94
653.301	1305.41
653.494	1356.61
653.686	1235.78
653.879	1205.06
654.071	1106.76
654.263	1078.08
654.456	975.69
654.648	1112.9
654.84	996.17
655.033	844.62
655.225	1108.8
655.417	709.45
655.61	969.54
655.802	910.15
655.994	981.83
656.186	744.27
656.379	992.07
656.571	703.31
656.763	736.07
656.955	701.26
657.148	772.94
657.34	856.9
657.532	627.53
657.724	703.31
657.916	650.06
658.108	650.06
658.3	648.01
658.492	639.82
658.684	609.1
658.876	699.21
659.068	478.03
659.26	408.4
659.452	445.26
659.644	572.24
659.836	559.95
660.028	516.94
660.22	486.22
660.412	541.52
660.604	475.98
660.796	387.92
660.988	586.57
661.18	512.85
661.372	506.7
661.563	453.45
661.755	430.93
661.947	369.49
662.139	355.15
662.331	473.93
662.522	437.07
662.714	279.38
662.906	379.73
663.097	328.53
663.289	256.85
663.481	308.05
663.673	322.38
663.864	381.78
664.056	387.92
664.247	303.95
664.439	353.1
664.631	383.82
664.822	306
665.014	322.38
665.205	342.86
665.397	297.81
665.588	299.86
665.78	342.86
665.971	359.25
666.163	219.99
666.354	332.62
666.546	267.09
666.737	265.04
666.929	291.66
667.12	324.43
667.311	273.23
667.503	256.85
667.694	250.71
667.885	297.81
668.077	287.57
668.268	174.93
668.459	240.47
668.651	287.57
668.842	349.01
669.033	150.36
669.224	133.97
669.416	381.78
669.607	172.88
669.798	144.21
669.989	351.06
670.18	248.66
670.371	250.71
670.563	76.63
670.754	324.43
670.945	289.62
671.136	346.96
671.327	113.49
671.518	289.62
671.709	299.86
671.9	283.47
672.091	258.9
672.282	269.14
672.473	230.23
672.664	228.18
672.855	265.04
673.046	240.47
673.237	293.71
673.428	222.03
673.619	301.9
673.809	197.46
674	287.57
674.191	301.9
674.382	277.33
674.573	238.42
674.764	265.04
674.954	326.48
675.145	269.14
675.336	191.31
675.527	179.03
675.717	152.4
675.908	148.31
676.099	258.9
676.289	183.12
676.48	117.59
676.671	207.7
676.861	189.27
677.052	244.56
677.243	222.03
677.433	158.55
677.624	330.58
677.814	260.95
678.005	271.19
678.195	297.81
678.386	201.55
678.576	209.75
678.767	232.27
678.957	211.79
679.148	291.66
679.338	400.21
679.529	328.53
679.719	217.94
679.909	297.81
680.1	283.47
680.29	299.86
680.481	121.68
680.671	359.25
680.861	338.77
681.052	258.9
681.242	240.47
681.432	275.28
681.622	215.89
681.813	166.74
682.003	265.04
682.193	215.89
682.383	293.71
682.573	267.09
682.764	287.57
682.954	240.47
683.144	383.82
683.334	209.75
683.524	289.62
683.714	328.53
683.904	330.58
684.094	238.42
684.284	342.86
684.474	353.1
684.664	408.4
684.854	336.72
685.044	258.9
685.234	318.29
685.424	283.47
685.614	179.03
685.804	443.21
685.994	420.69
686.184	312.14
686.374	314.19
686.564	318.29
686.753	336.72
686.943	260.95
687.133	219.99
687.323	326.48
687.513	336.72
687.702	310.1
687.892	193.36
688.082	412.5
688.272	258.9
688.461	299.86
688.651	424.78
688.841	320.34
689.03	295.76
689.22	306
689.41	367.44
689.599	279.38
689.789	207.7
689.979	422.73
690.168	340.82
690.358	379.73
690.547	281.43
690.737	293.71
690.926	332.62
691.116	367.44
691.305	410.45
691.495	361.3
691.684	246.61
691.874	324.43
692.063	285.52
692.252	375.63
692.442	330.58
692.631	240.47
692.82	230.23
693.01	373.58
693.199	308.05
693.388	332.62
693.578	293.71
693.767	281.43
693.956	275.28
694.146	256.85
694.335	297.81
694.524	289.62
694.713	283.47
694.902	222.03
695.092	285.52
695.281	248.66
695.47	215.89
695.659	250.71
695.848	316.24
696.037	209.75
696.226	316.24
696.415	228.18
696.604	334.67
696.793	314.19
696.982	217.94
697.171	445.26
697.36	240.47
697.549	238.42
697.738	123.73
697.927	303.95
698.116	172.88
698.305	265.04
698.494	351.06
698.683	219.99
698.872	443.21
699.061	189.27
699.25	195.41
699.438	228.18
699.627	179.03
699.816	365.39
700.005	203.6
700.193	150.36
700.382	342.86
700.571	342.86
700.76	144.21
700.948	355.15
701.137	224.08
701.326	340.82
701.514	170.83
701.703	310.1
701.892	234.32
702.08	387.92
702.269	295.76
702.457	250.71
702.646	279.38
702.834	252.75
703.023	267.09
703.212	344.91
703.4	324.43
703.589	193.36
703.777	209.75
703.965	93.01
704.154	179.03
704.342	166.74
704.531	150.36
704.719	170.83
704.907	267.09
705.096	185.17
705.284	238.42
705.472	295.76
705.661	285.52
705.849	334.67
706.037	226.13
706.226	271.19
706.414	226.13
706.602	207.7
706.79	250.71
706.979	215.89
707.167	273.23
707.355	113.49
707.543	224.08
707.731	256.85
707.919	234.32
708.107	260.95
708.296	185.17
708.484	238.42
708.672	267.09
708.86	244.56
709.048	211.79
709.236	136.02
709.424	267.09
709.612	306
709.8	156.5
709.988	189.27
710.176	326.48
710.364	342.86
710.551	230.23
710.739	260.95
710.927	203.6
711.115	330.58
711.303	314.19
711.491	258.9
711.679	193.36
711.866	379.73
712.054	230.23
712.242	203.6
712.43	273.23
712.617	207.7
712.805	199.51
712.993	273.23
713.181	142.16
713.368	306
713.556	219.99
713.744	168.79
713.931	414.54
714.119	234.32
714.306	275.28
714.494	277.33
714.682	207.7
714.869	138.07
715.057	256.85
715.244	228.18
715.432	277.33
715.619	191.31
715.807	248.66
715.994	181.07
716.182	222.03
716.369	279.38
716.556	379.73
716.744	213.84
716.931	129.88
717.119	240.47
717.306	254.8
717.493	230.23
717.681	183.12
717.868	160.59
718.055	228.18
718.242	197.46
718.43	267.09
718.617	291.66
718.804	152.4
718.991	314.19
719.179	254.8
719.366	260.95
719.553	269.14
719.74	248.66
719.927	240.47
720.114	187.22
720.301	246.61
720.488	164.69
720.676	234.32
720.863	332.62
721.05	424.78
721.237	254.8
721.424	340.82
721.611	232.27
721.798	133.97
721.985	242.51
722.172	244.56
722.358	277.33
722.545	349.01
722.732	334.67
722.919	396.11
723.106	318.29
723.293	265.04
723.48	275.28
723.667	265.04
723.853	328.53
724.04	226.13
724.227	306
724.414	217.94
724.6	283.47
724.787	314.19
724.974	412.5
725.161	185.17
725.347	176.98
725.534	248.66
725.72	316.24
725.907	324.43
726.094	375.63
726.28	285.52
726.467	217.94
726.653	142.16
726.84	328.53
727.027	330.58
727.213	224.08
727.4	301.9
727.586	295.76
727.773	244.56
727.959	275.28
728.145	273.23
728.332	260.95
728.518	226.13
728.705	375.63
728.891	226.13
729.077	385.87
729.264	228.18
729.45	314.19
729.636	469.84
729.823	293.71
730.009	269.14
730.195	283.47
730.382	334.67
730.568	215.89
730.754	254.8
730.94	299.86
731.126	299.86
731.313	297.81
731.499	242.51
731.685	324.43
731.871	281.43
732.057	252.75
732.243	355.15
732.429	336.72
732.615	389.97
732.801	432.97
732.987	258.9
733.173	260.95
733.359	226.13
733.545	295.76
733.731	277.33
733.917	363.34
734.103	375.63
734.289	344.91
734.475	267.09
734.661	490.32
734.847	273.23
735.033	299.86
735.219	291.66
735.404	250.71
735.59	295.76
735.776	301.9
735.962	316.24
736.148	281.43
736.333	383.82
736.519	301.9
736.705	322.38
736.89	316.24
737.076	246.61
737.262	238.42
737.447	197.46
737.633	213.84
737.819	422.73
738.004	371.54
738.19	308.05
738.375	312.14
738.561	383.82
738.747	342.86
738.932	281.43
739.118	480.08
739.303	334.67
739.489	326.48
739.674	222.03
739.859	248.66
740.045	267.09
740.23	303.95
740.416	119.64
740.601	281.43
740.786	267.09
740.972	273.23
741.157	275.28
741.342	230.23
741.528	195.41
741.713	365.39
741.898	215.89
742.084	320.34
742.269	262.99
742.454	318.29
742.639	381.78
742.824	260.95
743.01	365.39
743.195	338.77
743.38	318.29
743.565	224.08
743.75	260.95
743.935	299.86
744.12	385.87
744.305	129.88
744.49	209.75
744.675	207.7
744.86	332.62
745.045	334.67
745.23	238.42
745.415	224.08
745.6	293.71
745.785	176.98
745.97	449.36
746.155	330.58
746.34	344.91
746.525	252.75
746.71	357.2
746.895	185.17
747.079	82.77
747.264	215.89
747.449	277.33
747.634	295.76
747.819	252.75
748.003	244.56
748.188	217.94
748.373	250.71
748.557	269.14
748.742	326.48
748.927	181.07
749.111	265.04
749.296	203.6
749.481	256.85
749.665	213.84
749.85	152.4
750.034	248.66
750.219	273.23
750.404	219.99
750.588	269.14
750.773	244.56
750.957	224.08
751.141	195.41
751.326	285.52
751.51	47.96
751.695	289.62
751.879	191.31
752.064	353.1
752.248	254.8
752.432	324.43
752.617	377.68
752.801	228.18
752.985	150.36
753.17	273.23
753.354	164.69
753.538	209.75
753.722	170.83
753.907	191.31
754.091	68.44
754.275	172.88
754.459	127.83
754.643	209.75
754.828	209.75
755.012	185.17
755.196	183.12
755.38	222.03
755.564	117.59
755.748	205.65
755.932	219.99
756.116	234.32
756.3	258.9
756.484	133.97
756.668	312.14
756.852	150.36
757.036	152.4
757.22	209.75
757.404	66.39
757.588	156.5
757.772	244.56
757.956	95.06
758.14	301.9
758.323	68.44
758.507	172.88
758.691	117.59
758.875	207.7
759.059	242.51
759.242	152.4
759.426	140.12
759.61	179.03
759.794	84.82
759.977	230.23
760.161	316.24
760.345	306
760.528	295.76
760.712	187.22
760.895	162.64
761.079	156.5
761.263	31.57
761.446	111.44
761.63	121.68
761.813	209.75
761.997	113.49
762.18	158.55
762.364	201.55
762.547	41.81
762.731	189.27
762.914	160.59
763.098	31.57
763.281	154.45
763.464	123.73
763.648	144.21
763.831	119.64
764.015	131.92
764.198	205.65
764.381	80.72
764.564	181.07
764.748	101.2
764.931	174.93
765.114	168.79
765.297	160.59
765.481	80.72
765.664	99.16
765.847	78.68
766.03	248.66
766.213	27.48
766.397	88.92
766.58	39.76
766.763	195.41
766.946	111.44
767.129	-15.53
767.312	156.5
767.495	101.2
767.678	84.82
767.861	152.4
768.044	101.2
768.227	162.64
768.41	158.55
768.593	136.02
768.776	160.59
768.959	88.92
769.142	199.51
769.324	93.01
769.507	136.02
769.69	58.2
769.873	142.16
770.056	289.62
770.239	80.72
770.421	179.03
770.604	117.59
770.787	58.2
770.97	133.97
771.152	76.63
771.335	168.79
771.518	23.38
771.7	185.17
771.883	168.79
772.066	45.91
772.248	78.68
772.431	246.61
772.613	109.4
772.796	127.83
772.978	127.83
773.161	156.5
773.343	37.72
773.526	13.14
773.708	-42.15
773.891	21.33
774.073	29.52
774.256	72.53
774.438	172.88
774.621	31.57
774.803	123.73
774.985	90.96
775.168	70.48
775.35	90.96
775.532	90.96
775.715	78.68
775.897	101.2
776.079	29.52
776.261	84.82
776.444	74.58
776.626	23.38
776.808	117.59
776.99	-1.19
777.173	27.48
777.355	93.01
777.537	136.02
777.719	78.68
777.901	105.3
778.083	82.77
778.265	45.91
778.447	121.68
778.629	-48.3
778.811	97.11
778.993	160.59
779.175	170.83
779.357	-1.19
779.539	37.72
779.721	99.16
779.903	74.58
780.085	74.58
780.267	158.55
780.449	146.26
780.631	119.64
780.812	156.5
780.994	111.44
781.176	41.81
781.358	-19.63
781.54	56.15
781.721	84.82
781.903	125.78
782.085	33.62
782.267	131.92
782.448	-31.91
782.63	31.57
782.812	62.29
782.993	56.15
783.175	76.63
783.357	82.77
783.538	88.92
783.72	21.33
783.901	54.1
784.083	109.4
784.264	103.25
784.446	11.09
784.627	-5.29
784.809	23.38
784.99	-1.19
785.172	215.89
785.353	84.82
785.535	68.44
785.716	-9.39
785.897	-44.2
786.079	21.33
786.26	138.07
786.441	72.53
786.623	-76.97
786.804	-21.67
786.985	52.05
787.167	80.72
787.348	123.73
787.529	23.38
787.71	187.22
787.891	131.92
788.073	76.63
788.254	-13.48
788.435	176.98
788.616	-36.01
788.797	7
788.978	-11.43
789.159	21.33
789.34	66.39
789.522	52.05
789.703	58.2
789.884	50
790.065	52.05
790.246	144.21
790.427	43.86
790.607	142.16
790.788	97.11
790.969	-40.11
791.15	74.58
791.331	70.48
791.512	-29.87
791.693	-1.19
791.874	23.38
792.054	273.23
792.235	103.25
792.416	-25.77
792.597	-58.54
792.778	74.58
792.958	68.44
793.139	72.53
793.32	146.26
793.5	-52.39
793.681	84.82
793.862	76.63
794.042	58.2
794.223	-5.29
794.404	11.09
794.584	-21.67
794.765	-74.92
794.945	11.09
795.126	103.25
795.306	50
795.487	27.48
795.667	2.9
795.848	82.77
796.028	-54.44
796.209	11.09
796.389	50
796.57	70.48
796.75	39.76
796.93	33.62
797.111	-64.68
797.291	-23.72
797.471	58.2
797.652	27.48
797.832	-21.67
798.012	60.24
798.192	-25.77
798.373	-31.91
798.553	66.39
798.733	68.44
798.913	-25.77
799.093	25.43
799.274	105.3
799.454	119.64
799.634	23.38
799.814	107.35
799.994	150.36
800.174	80.72
800.354	2.9
800.534	-38.06
800.714	152.4
800.894	-17.58
801.074	31.57
801.254	-1.19
801.434	170.83
801.614	39.76
801.794	-66.73
801.974	1743.67
802.154	52.05
802.334	123.73
802.514	-3.24
802.693	17.24
802.873	-5.29
803.053	76.63
803.233	68.44
803.413	0.85
803.592	25.43
803.772	47.96
803.952	25.43
804.131	-7.34
804.311	123.73
804.491	123.73
804.67	-42.15
804.85	-105.64
805.03	74.58
805.209	105.3
805.389	-99.5
805.568	-33.96
805.748	-17.58
805.928	58.2
806.107	60.24
806.287	-23.72
806.466	4.95
806.646	50
806.825	4.95
807.004	2.9
807.184	74.58
807.363	52.05
807.543	27.48
807.722	19.29
807.901	162.64
808.081	33.62
808.26	-50.35
808.439	117.59
808.619	19.29
808.798	31.57
808.977	76.63
809.156	140.12
809.336	11.09
809.515	31.57
809.694	-5.29
809.873	-40.11
810.052	88.92
810.231	25.43
810.411	80.72
810.59	123.73
810.769	25.43
810.948	54.1
811.127	-48.3
811.306	-62.63
811.485	-7.34
811.664	232.27
811.843	33.62
812.022	-19.63
812.201	-17.58
812.38	13.14
812.559	-3.24
812.737	70.48
812.916	-7.34
813.095	-11.43
813.274	13.14
813.453	2.9
813.632	15.19
813.811	64.34
813.989	-83.11
814.168	54.1
814.347	-72.87
814.526	56.15
814.704	60.24
814.883	95.06
815.062	-40.11
815.24	176.98
815.419	-58.54
815.598	47.96
815.776	-144.55
815.955	76.63
816.133	-87.21
816.312	11.09
816.49	-17.58
816.669	-7.34
816.847	19.29
817.026	58.2
817.204	11.09
817.383	25.43
817.561	-19.63
817.74	60.24
817.918	66.39
818.097	-38.06
818.275	-44.2
818.453	9.05
818.632	-19.63
818.81	35.67
818.988	64.34
819.167	-44.2
819.345	7
819.523	23.38
819.701	43.86
819.879	-33.96
820.058	54.1
820.236	19.29
820.414	35.67
820.592	-17.58
820.77	-5.29
820.948	-66.73
821.127	15.19
821.305	72.53
821.483	-44.2
821.661	74.58
821.839	35.67
822.017	11.09
822.195	9.05
822.373	88.92
822.551	-23.72
822.729	29.52
822.907	-74.92
823.085	56.15
823.262	56.15
823.44	33.62
823.618	-60.59
823.796	15.19
823.974	-52.39
824.152	29.52
824.329	-3.24
824.507	-21.67
824.685	35.67
824.863	-7.34
825.04	35.67
825.218	37.72
825.396	52.05
825.574	13.14
825.751	7
825.929	74.58
826.107	-42.15
826.284	64.34
826.462	107.35
826.639	-76.97
826.817	-62.63
826.994	66.39
827.172	4.95
827.349	70.48
827.527	7
827.704	-29.87
827.882	66.39
828.059	64.34
828.237	56.15
828.414	21.33
828.591	-158.89
828.769	-48.3
828.946	-9.39
829.124	74.58
829.301	95.06
829.478	27.48
829.655	154.45
829.833	-36.01
830.01	-44.2
830.187	84.82
830.364	25.43
830.542	39.76
830.719	54.1
830.896	123.73
831.073	23.38
831.25	47.96
831.427	84.82
831.604	-44.2
831.782	-107.69
831.959	45.91
832.136	35.67
832.313	-44.2
832.49	-3.24
832.667	-48.3
832.844	-5.29
833.021	105.3
833.198	25.43
833.374	54.1
833.551	82.77
833.728	-79.02
833.905	133.97
834.082	-111.78
834.259	13.14
834.436	105.3
834.612	-11.43
834.789	31.57
834.966	78.68
835.143	101.2
835.319	-13.48
835.496	129.88
835.673	78.68
835.85	29.52
836.026	47.96
836.203	66.39
836.38	-52.39
836.556	-13.48
836.733	15.19
836.909	133.97
837.086	-11.43
837.262	-173.22
837.439	-5.29
837.616	-72.87
837.792	95.06
837.968	88.92
838.145	-152.74
838.321	29.52
838.498	68.44
838.674	84.82
838.851	93.01
839.027	66.39
839.203	31.57
839.38	41.81
839.556	-9.39
839.732	88.92
839.909	25.43
840.085	23.38
840.261	7
840.437	23.38
840.614	-7.34
840.79	60.24
840.966	111.44
841.142	-15.53
841.318	25.43
841.494	123.73
841.671	97.11
841.847	-33.96
842.023	-91.31
842.199	31.57
842.375	133.97
842.551	-111.78
842.727	-72.87
842.903	88.92
843.079	-48.3
843.255	101.2
843.431	80.72
843.607	76.63
843.783	-140.46
843.959	27.48
844.134	-46.25
844.31	39.76
844.486	25.43
844.662	-33.96
844.838	-11.43
845.013	31.57
845.189	144.21
845.365	-31.91
845.541	62.29
845.716	23.38
845.892	203.6
846.068	-17.58
846.244	-40.11
846.419	7
846.595	-66.73
846.77	-54.44
846.946	35.67
847.122	39.76
847.297	-3.24
847.473	109.4
847.648	-130.22
847.824	11.09
847.999	-52.39
848.175	-31.91
848.35	78.68
848.526	52.05
848.701	58.2
848.876	56.15
849.052	97.11
849.227	-1.19
849.403	-76.97
849.578	0.85
849.753	101.2
849.929	39.76
850.104	-103.59
850.279	-31.91
850.454	-27.82
850.63	-19.63
850.805	25.43
850.98	37.72
851.155	-19.63
851.33	31.57
851.505	-107.69
851.681	152.4
851.856	-79.02
852.031	17.24
852.206	37.72
852.381	-50.35
852.556	-44.2
852.731	-15.53
852.906	90.96
853.081	68.44
853.256	144.21
853.431	-50.35
853.606	-42.15
853.781	-40.11
853.956	-93.35
854.131	-23.72
854.305	21.33
854.48	-46.25
854.655	-48.3
854.83	15.19
855.005	-40.11
855.18	29.52
855.354	-36.01
855.529	84.82
855.704	7
855.879	31.57
856.053	-58.54
856.228	21.33
856.403	-42.15
856.577	47.96
856.752	-105.64
856.926	50
857.101	-11.43
857.276	-29.87
857.45	64.34
857.625	4.95
857.799	2.9
857.974	-42.15
858.148	-119.98
858.323	39.76
858.497	80.72
858.672	-79.02
858.846	-40.11
859.02	66.39
859.195	-23.72
859.369	-36.01
859.543	17.24
859.718	35.67
859.892	41.81
860.066	68.44
860.241	-44.2
860.415	-11.43
860.589	-23.72
860.763	21.33
860.938	-1.19
861.112	19.29
861.286	-46.25
861.46	-36.01
861.634	56.15
861.808	13.14
861.982	-38.06
862.157	-99.5
862.331	-3.24
862.505	-36.01
862.679	-7.34
862.853	35.67
863.027	-83.11
863.201	191.31
863.375	-50.35
863.549	56.15
863.722	-72.87
863.896	125.78
864.07	-70.83
864.244	-17.58
864.418	103.25
864.592	27.48
864.766	33.62
864.939	-21.67
865.113	19.29
865.287	82.77
865.461	-74.92
865.634	33.62
865.808	-9.39
865.982	-72.87
866.156	45.91
866.329	-130.22
866.503	47.96
866.676	62.29
866.85	78.68
867.024	17.24
867.197	66.39
867.371	37.72
867.544	45.91
867.718	-64.68
867.891	131.92
868.065	-115.88
868.238	33.62
868.412	78.68
868.585	27.48
868.759	-79.02
868.932	-54.44
869.105	-31.91
869.279	2.9
869.452	-103.59
869.625	101.2
869.799	-36.01
869.972	-134.31
870.145	0.85
870.319	33.62
870.492	-3.24
870.665	-17.58
870.838	-50.35
871.011	-136.36
871.185	17.24
871.358	-27.82
871.531	78.68
871.704	-15.53
871.877	60.24
872.05	39.76
872.223	-95.4
872.396	52.05
872.569	-1.19
872.742	-79.02
872.915	142.16
873.088	13.14
873.261	-87.21
873.434	58.2
873.607	-5.29
873.78	111.44
873.953	-29.87
874.126	58.2
874.299	17.24
874.471	-19.63
874.644	64.34
874.817	58.2
874.99	76.63
875.163	-66.73
875.335	37.72
875.508	45.91
875.681	54.1
875.853	-9.39
876.026	29.52
876.199	4.95
876.371	25.43
876.544	21.33
876.717	31.57
876.889	-46.25
877.062	23.38
877.234	-126.12
877.407	-54.44
877.579	-17.58
877.752	80.72
877.924	121.68
878.097	64.34
878.269	56.15
878.442	66.39
878.614	97.11
878.786	62.29
878.959	54.1
879.131	-25.77
879.303	-128.17
879.476	-9.39
879.648	62.29
879.82	64.34
879.993	0.85
880.165	-1.19
880.337	-85.16
880.509	33.62
880.681	-109.74
880.854	19.29
881.026	78.68
881.198	88.92
881.37	-40.11
881.542	-11.43
881.714	-25.77
881.886	-17.58
882.058	64.34
882.23	31.57
882.402	4.95
882.574	27.48
882.746	21.33
882.918	21.33
883.09	86.87
883.262	-15.53
883.434	7
883.606	-132.26
883.778	35.67
883.95	129.88
884.122	39.76
884.293	39.76
884.465	-11.43
884.637	9.05
884.809	-15.53
884.98	4.95
885.152	15.19
885.324	29.52
885.496	-19.63
885.667	-17.58
885.839	-19.63
886.011	111.44
886.182	72.53
886.354	88.92
886.525	43.86
886.697	33.62
886.869	-89.26
887.04	-44.2
887.212	136.02
887.383	90.96
887.555	50
887.726	-56.49
887.897	-64.68
888.069	35.67
888.24	68.44
888.412	-3.24
888.583	11.09
888.754	-40.11
888.926	-124.07
889.097	-60.59
889.268	-117.93
889.44	-5.29
889.611	21.33
889.782	-21.67
889.953	-117.93
890.125	76.63
890.296	-93.35
890.467	-74.92
890.638	-46.25
890.809	-76.97
890.98	-38.06
891.151	43.86
891.323	54.1
891.494	-15.53
891.665	23.38
891.836	2.9
892.007	-38.06
892.178	50
892.349	-40.11
892.52	-9.39
892.691	50
892.862	-29.87
893.032	-68.78
893.203	41.81
893.374	68.44
893.545	107.35
893.716	0.85
893.887	35.67
894.057	-25.77
894.228	66.39
894.399	-31.91
894.57	142.16
894.74	-29.87
894.911	117.59
895.082	-68.78
895.253	-38.06
895.423	-5.29
895.594	-13.48
895.764	2.9
895.935	-101.55
896.106	33.62
896.276	-87.21
896.447	19.29
896.617	-11.43
896.788	-46.25
896.958	-15.53
897.129	-25.77
897.299	-25.77
897.47	84.82
897.64	93.01
897.81	-38.06
897.981	70.48
898.151	-29.87
898.322	43.86
898.492	76.63
898.662	-119.98
898.832	23.38
899.003	-33.96
899.173	37.72
899.343	0.85
899.513	-19.63
