Data from USB4F104151__129__10-46-25-056.txt Node

Date: Wed Feb 26 10:46:25 EST 2025
User: louis
Spectrometer: USB4F10415
Trigger mode: 4
Integration Time (sec): 1.000000E-1
Scans to average: 1
Electric dark correction enabled: true
Nonlinearity correction enabled: false
Boxcar width: 0
XAxis mode: Wavelengths
Number of Pixels in Spectrum: 3648
>>>>>Begin Spectral Data<<<<<
178.204	-422.05
178.424	-422.05
178.644	-422.05
178.864	-448.68
179.084	-397.48
179.304	5.97
179.524	20.31
179.744	12.12
179.964	57.17
180.184	22.36
180.404	36.69
180.624	-18.6
180.844	-47.27
181.064	-12.46
181.283	24.4
181.503	-110.76
181.723	10.07
181.943	-51.37
182.163	139.09
182.383	-16.55
182.602	38.74
182.822	155.47
183.042	149.33
183.262	-39.08
183.482	71.51
183.701	-24.75
183.921	110.42
184.141	-88.23
184.361	63.32
184.58	73.56
184.8	141.14
185.02	40.79
185.239	102.23
185.459	75.6
185.679	59.22
185.898	-41.13
186.118	94.04
186.338	128.85
186.557	126.8
186.777	-41.13
186.997	-34.99
187.216	89.94
187.436	257.87
187.655	55.12
187.875	151.38
188.095	32.6
188.314	143.19
188.534	124.76
188.753	10.07
188.973	48.98
189.192	128.85
189.412	12.12
189.631	-34.99
189.851	104.28
190.07	116.56
190.29	28.5
190.509	12.12
190.729	34.64
190.948	149.33
191.168	233.3
191.387	118.61
191.607	48.98
191.826	71.51
192.045	59.22
192.265	-22.7
192.484	128.85
192.704	51.03
192.923	-77.99
193.142	190.29
193.362	122.71
193.581	192.34
193.8	44.88
194.02	34.64
194.239	38.74
194.458	79.7
194.678	-30.89
194.897	-16.55
195.116	51.03
195.335	14.17
195.555	118.61
195.774	-2.22
195.993	98.13
196.212	36.69
196.432	8.02
196.651	-59.56
196.87	87.89
197.089	192.34
197.308	61.27
197.528	91.99
197.747	-59.56
197.966	73.56
198.185	126.8
198.404	-8.36
198.623	85.84
198.842	106.32
199.062	116.56
199.281	137.04
199.5	-55.47
199.719	46.93
199.938	85.84
200.157	122.71
200.376	51.03
200.595	188.24
200.814	77.65
201.033	57.17
201.252	137.04
201.471	38.74
201.69	83.8
201.909	87.89
202.128	106.32
202.347	132.95
202.566	26.45
202.785	-57.51
203.004	-30.89
203.223	245.59
203.442	22.36
203.661	-82.09
203.879	98.13
204.098	216.91
204.317	-34.99
204.536	106.32
204.755	139.09
204.974	79.7
205.193	26.45
205.411	32.6
205.63	79.7
205.849	69.46
206.068	36.69
206.287	-75.95
206.505	108.37
206.724	16.21
206.943	71.51
207.162	-10.41
207.381	87.89
207.599	-18.6
207.818	1.88
208.037	-57.51
208.255	20.31
208.474	89.94
208.693	36.69
208.911	26.45
209.13	132.95
209.349	51.03
209.567	122.71
209.786	143.19
210.005	83.8
210.223	65.36
210.442	-84.14
210.661	59.22
210.879	34.64
211.098	-6.31
211.316	51.03
211.535	94.04
211.753	83.8
211.972	116.56
212.191	-30.89
212.409	20.31
212.628	30.55
212.846	-24.75
213.065	46.93
213.283	102.23
213.502	73.56
213.72	135
213.938	-28.84
214.157	46.93
214.375	120.66
214.594	44.88
214.812	89.94
215.031	-61.61
215.249	20.31
215.467	128.85
215.686	77.65
215.904	126.8
216.122	51.03
216.341	94.04
216.559	87.89
216.778	112.47
216.996	188.24
217.214	26.45
217.432	48.98
217.651	-67.75
217.869	51.03
218.087	-8.36
218.306	28.5
218.524	61.27
218.742	69.46
218.96	75.6
219.179	65.36
219.397	-22.7
219.615	321.36
219.833	65.36
220.051	-10.41
220.27	147.28
220.488	143.19
220.706	65.36
220.924	-8.36
221.142	1.88
221.36	38.74
221.578	85.84
221.796	28.5
222.015	106.32
222.233	89.94
222.451	155.47
222.669	-12.46
222.887	55.12
223.105	1.88
223.323	46.93
223.541	28.5
223.759	14.17
223.977	55.12
224.195	137.04
224.413	18.26
224.631	69.46
224.849	57.17
225.067	128.85
225.285	112.47
225.503	-43.18
225.721	-77.99
225.939	8.02
226.157	30.55
226.375	245.59
226.592	-41.13
226.81	-39.08
227.028	59.22
227.246	89.94
227.464	61.27
227.682	118.61
227.9	102.23
228.117	51.03
228.335	89.94
228.553	61.27
228.771	87.89
228.989	57.17
229.206	94.04
229.424	51.03
229.642	-41.13
229.86	61.27
230.077	233.3
230.295	-2.22
230.513	55.12
230.731	40.79
230.948	180.05
231.166	178
231.384	22.36
231.601	12.12
231.819	171.86
232.037	-4.27
232.254	-49.32
232.472	1.88
232.689	55.12
232.907	206.67
233.125	57.17
233.342	71.51
233.56	-0.17
233.777	-10.41
233.995	-12.46
234.213	48.98
234.43	77.65
234.648	96.08
234.865	36.69
235.083	22.36
235.3	57.17
235.518	61.27
235.735	59.22
235.953	59.22
236.17	61.27
236.388	36.69
236.605	75.6
236.822	102.23
237.04	143.19
237.257	59.22
237.475	-24.75
237.692	79.7
237.909	-14.51
238.127	-0.17
238.344	24.4
238.562	102.23
238.779	-53.42
238.996	-10.41
239.214	116.56
239.431	116.56
239.648	-12.46
239.865	20.31
240.083	59.22
240.3	-28.84
240.517	-6.31
240.735	61.27
240.952	120.66
241.169	38.74
241.386	-10.41
241.603	18.26
241.821	-8.36
242.038	135
242.255	106.32
242.472	-43.18
242.689	71.51
242.907	59.22
243.124	20.31
243.341	-4.27
243.558	-49.32
243.775	-16.55
243.992	-63.66
244.209	71.51
244.426	104.28
244.643	108.37
244.86	-28.84
245.078	112.47
245.295	89.94
245.512	-45.23
245.729	-55.47
245.946	122.71
246.163	65.36
246.38	-10.41
246.597	85.84
246.814	79.7
247.031	65.36
247.248	-28.84
247.464	67.41
247.681	102.23
247.898	75.6
248.115	89.94
248.332	8.02
248.549	116.56
248.766	141.14
248.983	94.04
249.2	118.61
249.417	67.41
249.633	-37.03
249.85	85.84
250.067	20.31
250.284	67.41
250.501	38.74
250.717	89.94
250.934	-26.79
251.151	10.07
251.368	36.69
251.585	-49.32
251.801	-6.31
252.018	8.02
252.235	149.33
252.451	-49.32
252.668	59.22
252.885	118.61
253.102	53.08
253.318	75.6
253.535	18.26
253.752	3.93
253.968	-4.27
254.185	-88.23
254.401	98.13
254.618	8.02
254.835	40.79
255.051	198.48
255.268	67.41
255.484	147.28
255.701	5.97
255.917	85.84
256.134	18.26
256.351	26.45
256.567	-133.29
256.784	3.93
257	-18.6
257.217	61.27
257.433	65.36
257.65	110.42
257.866	165.71
258.082	-22.7
258.299	-39.08
258.515	110.42
258.732	5.97
258.948	77.65
259.165	38.74
259.381	-28.84
259.597	81.75
259.814	42.84
260.03	71.51
260.246	26.45
260.463	106.32
260.679	147.28
260.895	89.94
261.112	171.86
261.328	137.04
261.544	81.75
261.761	122.71
261.977	-43.18
262.193	24.4
262.409	141.14
262.626	71.51
262.842	36.69
263.058	-61.61
263.274	81.75
263.49	12.12
263.707	118.61
263.923	69.46
264.139	-75.95
264.355	100.18
264.571	104.28
264.787	139.09
265.004	135
265.22	34.64
265.436	-14.51
265.652	-12.46
265.868	98.13
266.084	-14.51
266.3	77.65
266.516	-116.9
266.732	53.08
266.948	75.6
267.164	73.56
267.38	73.56
267.596	153.43
267.812	190.29
268.028	36.69
268.244	30.55
268.46	32.6
268.676	65.36
268.892	63.32
269.108	8.02
269.324	-22.7
269.54	-20.65
269.756	143.19
269.972	-51.37
270.188	63.32
270.403	-20.65
270.619	8.02
270.835	53.08
271.051	126.8
271.267	-8.36
271.483	5.97
271.698	139.09
271.914	-0.17
272.13	137.04
272.346	20.31
272.562	53.08
272.777	53.08
272.993	-10.41
273.209	-49.32
273.425	20.31
273.64	-84.14
273.856	20.31
274.072	-67.75
274.287	42.84
274.503	175.95
274.719	73.56
274.934	14.17
275.15	-53.42
275.366	-2.22
275.581	-24.75
275.797	69.46
276.012	108.37
276.228	-39.08
276.444	94.04
276.659	116.56
276.875	-45.23
277.09	12.12
277.306	87.89
277.521	32.6
277.737	-18.6
277.952	55.12
278.168	83.8
278.383	69.46
278.599	116.56
278.814	116.56
279.03	1.88
279.245	159.57
279.461	65.36
279.676	112.47
279.892	-8.36
280.107	-118.95
280.322	18.26
280.538	59.22
280.753	-82.09
280.969	79.7
281.184	24.4
281.399	182.1
281.615	122.71
281.83	73.56
282.045	-41.13
282.26	3.93
282.476	10.07
282.691	81.75
282.906	83.8
283.122	38.74
283.337	-10.41
283.552	75.6
283.767	-10.41
283.983	169.81
284.198	57.17
284.413	1.88
284.628	-22.7
284.843	-32.94
285.058	137.04
285.274	-41.13
285.489	5.97
285.704	87.89
285.919	36.69
286.134	-41.13
286.349	116.56
286.564	34.64
286.779	110.42
286.995	61.27
287.21	-77.99
287.425	-6.31
287.64	51.03
287.855	55.12
288.07	5.97
288.285	169.81
288.5	188.24
288.715	79.7
288.93	30.55
289.145	5.97
289.36	57.17
289.575	40.79
289.79	143.19
290.004	14.17
290.219	94.04
290.434	28.5
290.649	26.45
290.864	10.07
291.079	30.55
291.294	36.69
291.509	57.17
291.724	44.88
291.938	71.51
292.153	24.4
292.368	57.17
292.583	118.61
292.798	65.36
293.012	42.84
293.227	63.32
293.442	-18.6
293.657	153.43
293.871	110.42
294.086	65.36
294.301	247.63
294.516	106.32
294.73	65.36
294.945	-32.94
295.16	30.55
295.374	71.51
295.589	171.86
295.804	55.12
296.018	104.28
296.233	122.71
296.447	100.18
296.662	-6.31
296.877	91.99
297.091	98.13
297.306	124.76
297.52	-2.22
297.735	175.95
297.949	30.55
298.164	83.8
298.378	61.27
298.593	-47.27
298.807	-39.08
299.022	38.74
299.236	233.3
299.451	34.64
299.665	22.36
299.88	77.65
300.094	61.27
300.309	135
300.523	55.12
300.737	28.5
300.952	85.84
301.166	42.84
301.381	48.98
301.595	8.02
301.809	73.56
302.024	-61.61
302.238	28.5
302.452	178
302.667	87.89
302.881	124.76
303.095	57.17
303.309	124.76
303.524	79.7
303.738	20.31
303.952	14.17
304.166	149.33
304.381	-94.38
304.595	106.32
304.809	-8.36
305.023	-39.08
305.237	-0.17
305.452	34.64
305.666	163.67
305.88	75.6
306.094	77.65
306.308	135
306.522	94.04
306.736	91.99
306.95	89.94
307.164	20.31
307.379	30.55
307.593	122.71
307.807	255.83
308.021	77.65
308.235	53.08
308.449	-108.71
308.663	-18.6
308.877	227.15
309.091	-8.36
309.305	71.51
309.519	-28.84
309.733	153.43
309.947	-98.47
310.161	96.08
310.374	83.8
310.588	85.84
310.802	-110.76
311.016	34.64
311.23	28.5
311.444	14.17
311.658	-67.75
311.872	79.7
312.085	128.85
312.299	171.86
312.513	157.52
312.727	30.55
312.941	-41.13
313.154	57.17
313.368	71.51
313.582	94.04
313.796	116.56
314.009	94.04
314.223	63.32
314.437	-6.31
314.651	46.93
314.864	-67.75
315.078	-32.94
315.292	-8.36
315.505	51.03
315.719	108.37
315.933	69.46
316.146	20.31
316.36	-37.03
316.573	106.32
316.787	130.9
317.001	63.32
317.214	-16.55
317.428	67.41
317.641	55.12
317.855	51.03
318.068	-20.65
318.282	118.61
318.495	175.95
318.709	26.45
318.922	63.32
319.136	128.85
319.349	104.28
319.563	10.07
319.776	106.32
319.99	-80.04
320.203	104.28
320.417	40.79
320.63	91.99
320.843	182.1
321.057	65.36
321.27	-67.75
321.483	42.84
321.697	171.86
321.91	85.84
322.124	48.98
322.337	71.51
322.55	32.6
322.763	10.07
322.977	-10.41
323.19	65.36
323.403	110.42
323.617	85.84
323.83	110.42
324.043	57.17
324.256	10.07
324.469	-51.37
324.683	104.28
324.896	44.88
325.109	108.37
325.322	-82.09
325.535	83.8
325.748	48.98
325.962	81.75
326.175	77.65
326.388	96.08
326.601	67.41
326.814	-57.51
327.027	28.5
327.24	114.52
327.453	-73.9
327.666	163.67
327.879	173.91
328.092	169.81
328.305	40.79
328.518	-26.79
328.731	71.51
328.944	44.88
329.157	137.04
329.37	69.46
329.583	200.53
329.796	128.85
330.009	-32.94
330.222	173.91
330.435	75.6
330.648	-16.55
330.861	44.88
331.073	100.18
331.286	124.76
331.499	61.27
331.712	1.88
331.925	42.84
332.138	28.5
332.35	110.42
332.563	-28.84
332.776	110.42
332.989	-28.84
333.202	40.79
333.414	38.74
333.627	65.36
333.84	10.07
334.053	-4.27
334.265	46.93
334.478	44.88
334.691	22.36
334.903	59.22
335.116	-10.41
335.329	18.26
335.541	96.08
335.754	122.71
335.966	30.55
336.179	-22.7
336.392	-39.08
336.604	26.45
336.817	145.24
337.029	143.19
337.242	65.36
337.454	110.42
337.667	110.42
337.88	77.65
338.092	55.12
338.305	32.6
338.517	42.84
338.729	73.56
338.942	147.28
339.154	-37.03
339.367	-100.52
339.579	48.98
339.792	-61.61
340.004	55.12
340.217	114.52
340.429	67.41
340.641	-20.65
340.854	-16.55
341.066	108.37
341.278	202.58
341.491	137.04
341.703	51.03
341.915	-12.46
342.128	42.84
342.34	63.32
342.552	-22.7
342.764	38.74
342.977	57.17
343.189	100.18
343.401	116.56
343.613	-86.19
343.826	73.56
344.038	-69.8
344.25	5.97
344.462	-37.03
344.674	36.69
344.886	-2.22
345.099	137.04
345.311	63.32
345.523	67.41
345.735	-67.75
345.947	77.65
346.159	12.12
346.371	42.84
346.583	40.79
346.795	151.38
347.007	8.02
347.219	46.93
347.431	1.88
347.643	77.65
347.855	42.84
348.067	163.67
348.279	-75.95
348.491	44.88
348.703	87.89
348.915	137.04
349.127	-34.99
349.339	-2.22
349.551	26.45
349.763	102.23
349.975	30.55
350.187	98.13
350.399	190.29
350.61	91.99
350.822	5.97
351.034	87.89
351.246	51.03
351.458	120.66
351.669	81.75
351.881	63.32
352.093	137.04
352.305	132.95
352.517	94.04
352.728	89.94
352.94	91.99
353.152	135
353.363	-20.65
353.575	51.03
353.787	196.43
353.999	42.84
354.21	153.43
354.422	-22.7
354.633	3.93
354.845	79.7
355.057	32.6
355.268	98.13
355.48	139.09
355.692	3.93
355.903	51.03
356.115	34.64
356.326	-141.48
356.538	120.66
356.749	85.84
356.961	130.9
357.172	55.12
357.384	-12.46
357.595	180.05
357.807	5.97
358.018	24.4
358.23	57.17
358.441	153.43
358.653	44.88
358.864	69.46
359.075	48.98
359.287	81.75
359.498	89.94
359.709	112.47
359.921	30.55
360.132	147.28
360.344	53.08
360.555	-41.13
360.766	61.27
360.977	-18.6
361.189	114.52
361.4	94.04
361.611	190.29
361.823	94.04
362.034	94.04
362.245	-28.84
362.456	14.17
362.667	38.74
362.879	-18.6
363.09	-10.41
363.301	10.07
363.512	5.97
363.723	10.07
363.935	-10.41
364.146	130.9
364.357	-45.23
364.568	-10.41
364.779	-90.28
364.99	69.46
365.201	-4.27
365.412	188.24
365.623	-82.09
365.834	-22.7
366.045	-16.55
366.256	108.37
366.467	145.24
366.678	67.41
366.889	100.18
367.1	36.69
367.311	122.71
367.522	44.88
367.733	79.7
367.944	59.22
368.155	126.8
368.366	124.76
368.577	143.19
368.788	128.85
368.999	65.36
369.209	102.23
369.42	145.24
369.631	141.14
369.842	130.9
370.053	75.6
370.264	55.12
370.474	-20.65
370.685	100.18
370.896	51.03
371.107	161.62
371.317	128.85
371.528	40.79
371.739	94.04
371.95	77.65
372.16	51.03
372.371	-10.41
372.582	-12.46
372.792	89.94
373.003	102.23
373.214	128.85
373.424	122.71
373.635	65.36
373.846	194.39
374.056	87.89
374.267	96.08
374.477	126.8
374.688	-6.31
374.898	91.99
375.109	169.81
375.319	94.04
375.53	87.89
375.74	87.89
375.951	61.27
376.161	114.52
376.372	100.18
376.582	61.27
376.793	102.23
377.003	-0.17
377.214	-69.8
377.424	102.23
377.635	32.6
377.845	61.27
378.055	104.28
378.266	-37.03
378.476	44.88
378.686	71.51
378.897	18.26
379.107	55.12
379.317	91.99
379.528	46.93
379.738	169.81
379.948	-4.27
380.158	149.33
380.369	18.26
380.579	32.6
380.789	71.51
380.999	104.28
381.21	171.86
381.42	171.86
381.63	73.56
381.84	75.6
382.05	149.33
382.261	128.85
382.471	135
382.681	10.07
382.891	102.23
383.101	79.7
383.311	10.07
383.521	-32.94
383.731	96.08
383.941	57.17
384.151	26.45
384.361	42.84
384.571	55.12
384.781	75.6
384.991	223.06
385.201	147.28
385.411	114.52
385.621	59.22
385.831	71.51
386.041	132.95
386.251	42.84
386.461	114.52
386.671	-61.61
386.881	61.27
387.091	-41.13
387.301	171.86
387.511	67.41
387.72	89.94
387.93	81.75
388.14	32.6
388.35	71.51
388.56	169.81
388.769	143.19
388.979	44.88
389.189	-24.75
389.399	-32.94
389.609	65.36
389.818	67.41
390.028	48.98
390.238	91.99
390.447	116.56
390.657	63.32
390.867	36.69
391.076	20.31
391.286	30.55
391.496	91.99
391.705	24.4
391.915	167.76
392.125	100.18
392.334	30.55
392.544	87.89
392.753	3.93
392.963	3.93
393.172	38.74
393.382	-8.36
393.591	143.19
393.801	-18.6
394.01	171.86
394.22	81.75
394.429	8.02
394.639	108.37
394.848	63.32
395.058	96.08
395.267	87.89
395.477	118.61
395.686	67.41
395.895	167.76
396.105	286.54
396.314	63.32
396.524	24.4
396.733	-43.18
396.942	85.84
397.152	139.09
397.361	233.3
397.57	120.66
397.78	151.38
397.989	112.47
398.198	231.25
398.407	53.08
398.617	24.4
398.826	104.28
399.035	-6.31
399.244	104.28
399.453	-2.22
399.663	81.75
399.872	53.08
400.081	-16.55
400.29	198.48
400.499	-57.51
400.708	122.71
400.917	10.07
401.127	57.17
401.336	-102.57
401.545	118.61
401.754	89.94
401.963	71.51
402.172	44.88
402.381	-24.75
402.59	44.88
402.799	48.98
403.008	94.04
403.217	77.65
403.426	75.6
403.635	-61.61
403.844	104.28
404.053	135
404.262	53.08
404.471	110.42
404.68	34.64
404.888	61.27
405.097	83.8
405.306	89.94
405.515	57.17
405.724	-0.17
405.933	59.22
406.142	40.79
406.35	44.88
406.559	38.74
406.768	130.9
406.977	243.54
407.185	114.52
407.394	91.99
407.603	1.88
407.812	51.03
408.02	218.96
408.229	32.6
408.438	61.27
408.646	-8.36
408.855	118.61
409.064	108.37
409.272	102.23
409.481	83.8
409.69	-30.89
409.898	-12.46
410.107	57.17
410.315	96.08
410.524	-18.6
410.733	42.84
410.941	96.08
411.15	94.04
411.358	94.04
411.567	157.52
411.775	53.08
411.984	22.36
412.192	96.08
412.401	69.46
412.609	196.43
412.818	169.81
413.026	169.81
413.234	12.12
413.443	42.84
413.651	57.17
413.86	30.55
414.068	157.52
414.276	233.3
414.485	12.12
414.693	155.47
414.901	212.82
415.11	94.04
415.318	8.02
415.526	87.89
415.734	110.42
415.943	55.12
416.151	137.04
416.359	20.31
416.567	98.13
416.776	71.51
416.984	57.17
417.192	132.95
417.4	48.98
417.608	75.6
417.817	26.45
418.025	98.13
418.233	155.47
418.441	42.84
418.649	-6.31
418.857	79.7
419.065	114.52
419.273	12.12
419.481	77.65
419.689	112.47
419.897	59.22
420.105	1.88
420.313	116.56
420.521	128.85
420.729	132.95
420.937	3.93
421.145	8.02
421.353	118.61
421.561	151.38
421.769	143.19
421.977	59.22
422.185	159.57
422.393	44.88
422.601	65.36
422.809	106.32
423.017	69.46
423.224	63.32
423.432	122.71
423.64	18.26
423.848	137.04
424.056	61.27
424.263	118.61
424.471	96.08
424.679	139.09
424.887	5.97
425.094	259.92
425.302	98.13
425.51	-4.27
425.718	94.04
425.925	96.08
426.133	16.21
426.341	149.33
426.548	118.61
426.756	40.79
426.964	159.57
427.171	-6.31
427.379	28.5
427.586	85.84
427.794	155.47
428.001	196.43
428.209	89.94
428.417	106.32
428.624	96.08
428.832	75.6
429.039	75.6
429.247	108.37
429.454	46.93
429.662	245.59
429.869	85.84
430.076	104.28
430.284	163.67
430.491	237.39
430.699	165.71
430.906	245.59
431.114	110.42
431.321	94.04
431.528	46.93
431.736	106.32
431.943	163.67
432.15	208.72
432.358	266.07
432.565	247.63
432.772	-4.27
432.979	192.34
433.187	169.81
433.394	245.59
433.601	30.55
433.808	161.62
434.016	206.67
434.223	229.2
434.43	75.6
434.637	309.07
434.844	229.2
435.052	282.45
435.259	272.21
435.466	257.87
435.673	231.25
435.88	313.17
436.087	251.73
436.294	302.93
436.501	300.88
436.708	255.83
436.915	251.73
437.122	413.52
437.329	212.82
437.537	390.99
437.743	364.37
437.95	499.53
438.157	419.66
438.364	395.09
438.571	382.8
438.778	499.53
438.985	403.28
439.192	481.1
439.399	462.67
439.606	554.83
439.813	585.55
440.02	657.23
440.227	696.14
440.433	524.11
440.64	618.32
440.847	524.11
441.054	526.16
441.261	761.67
441.467	649.04
441.674	550.73
441.881	737.1
442.088	630.6
442.294	700.23
442.501	726.86
442.708	794.44
442.914	847.69
443.121	823.11
443.328	835.4
443.534	989
443.741	892.74
443.948	849.74
444.154	1050.44
444.361	1169.22
444.568	1015.62
444.774	1015.62
444.981	905.03
445.187	1185.6
445.394	1273.67
445.6	1120.07
445.807	1251.14
446.013	1300.29
446.22	1118.02
446.426	1472.32
446.633	1496.89
446.839	1507.13
447.046	1369.92
447.252	1699.64
447.459	1736.51
447.665	1662.78
447.871	1804.09
448.078	1814.33
448.284	1845.05
448.491	1988.41
448.697	2139.96
448.903	2156.34
449.11	2230.07
449.316	2084.66
449.522	2414.38
449.728	2465.58
449.935	2613.04
450.141	2664.24
450.347	2780.97
450.553	2676.52
450.76	2901.8
450.966	2797.35
451.172	3067.69
451.378	3225.38
451.584	3284.77
451.791	3444.51
451.997	3563.29
452.203	3669.79
452.409	3884.83
452.615	3893.02
452.821	3872.54
453.027	4069.14
453.233	4437.78
453.44	4157.21
453.646	4681.49
453.852	4675.34
454.058	4855.56
454.264	4955.91
454.47	5441.28
454.676	5447.43
454.882	5809.92
455.088	5543.68
455.294	5959.42
455.5	6176.5
455.705	6422.26
455.911	6567.67
456.117	6698.74
456.323	6917.87
456.529	7071.47
456.735	7685.86
456.941	7878.37
457.147	8197.85
457.352	8328.92
457.558	8595.15
457.764	9060.04
457.97	9524.93
458.176	9715.39
458.381	10204.86
458.587	10442.42
458.793	10876.59
458.999	10976.94
459.204	12144.28
459.41	12568.21
459.616	12449.43
459.821	13102.73
460.027	13760.13
460.233	14403.19
460.438	14501.5
460.644	15287.92
460.85	15459.95
461.055	16174.69
461.261	16774.74
461.466	16660.06
461.672	16909.91
461.878	18505.27
462.083	18452.03
462.289	18699.83
462.494	19609.13
462.7	19863.08
462.905	20035.11
463.111	21818.89
463.316	22982.13
463.522	23119.35
463.727	24032.74
463.932	24851.93
464.138	25732.56
464.343	26439.11
464.549	26830.27
464.754	28857.76
464.959	29425.04
465.165	29988.24
465.37	29896.08
465.575	29750.67
465.781	31735.15
465.986	32748.9
466.191	32128.36
466.397	32558.44
466.602	31720.82
466.807	33394.01
467.012	34192.72
467.218	34583.88
467.423	34936.13
467.628	35497.27
467.833	37682.45
468.038	36594.98
468.244	36533.54
468.449	37887.25
468.654	37340.44
468.859	36959.52
469.064	37405.98
469.269	36697.38
469.474	36633.89
469.679	37588.25
469.885	36554.02
470.09	37350.68
470.295	37289.24
470.5	36625.7
470.705	36703.53
470.91	35818.8
471.115	35722.55
471.32	36109.61
471.525	35636.53
471.73	34725.19
471.935	34559.3
472.139	33271.13
472.344	33090.91
472.549	33219.93
472.754	32316.78
472.959	31661.43
473.164	30678.4
473.369	29914.51
473.574	30963.07
473.778	30668.16
473.983	29781.39
474.188	29500.82
474.393	28001.71
474.598	27831.72
474.802	26998.2
475.007	26791.36
475.212	26856.89
475.417	25724.36
475.621	25431.51
475.826	25122.26
476.031	24569.31
476.235	23741.93
476.44	24200.68
476.645	23236.08
476.849	23250.42
477.054	22769.15
477.259	22451.71
477.463	22121.99
477.668	21636.62
477.872	21433.87
478.077	21095.96
478.282	20477.47
478.486	20293.15
478.691	19838.5
478.895	20186.66
479.1	19559.98
479.304	19953.19
479.509	18884.15
479.713	19457.58
479.918	18548.28
480.122	18402.88
480.326	18642.49
480.531	18656.82
480.735	18185.79
480.94	18101.83
481.144	18476.6
481.348	17632.84
481.553	17479.24
481.757	17325.64
481.961	17204.81
482.166	17471.05
482.37	17108.56
482.574	16782.93
482.778	16807.51
482.983	17256.01
483.187	16367.2
483.391	16574.04
483.595	15933.03
483.8	15978.08
484.004	16170.59
484.208	16152.16
484.412	15720.04
484.616	15591.02
484.821	15318.64
485.025	15197.81
485.229	14849.65
485.433	14857.84
485.637	14481.02
485.841	14634.61
486.045	14212.73
486.249	14435.96
486.453	13764.23
486.657	13672.07
486.861	13553.29
487.065	13196.94
487.269	13242
487.473	12721.81
487.677	12770.96
487.881	13055.63
488.085	12140.19
488.289	12277.4
488.493	11966.11
488.697	11869.86
488.901	11611.81
489.105	11286.19
489.309	11142.83
489.512	10940.08
489.716	10770.1
489.92	10665.65
490.124	10421.94
490.328	10268.34
490.531	10120.89
490.735	10194.62
490.939	9780.93
491.143	9586.37
491.346	9156.3
491.55	9338.57
491.754	9277.13
491.958	8834.77
492.161	8885.97
492.365	8775.38
492.569	8486.61
492.772	8601.3
492.976	8560.34
493.18	8275.67
493.383	8218.33
493.587	8109.79
493.79	8111.83
493.994	7753.44
494.197	7667.42
494.401	7663.33
494.605	7513.83
494.808	7683.81
495.012	7763.68
495.215	7575.27
495.419	7554.79
495.622	7294.69
495.825	7352.04
496.029	7290.6
496.232	7304.93
496.436	7155.43
496.639	7333.61
496.843	7077.61
497.046	7180.01
497.249	7497.44
497.453	7126.76
497.656	7169.77
497.859	7075.56
498.063	7175.91
498.266	7253.73
498.469	7083.75
498.673	7360.23
498.876	7268.07
499.079	7495.39
499.282	7313.13
499.485	7716.58
499.689	7466.72
499.892	7653.09
500.095	7347.94
500.298	7442.15
500.501	7515.87
500.705	7450.34
500.908	7816.93
501.111	7673.57
501.314	7864.03
501.517	8089.31
501.72	8072.92
501.923	8117.98
502.126	8169.18
502.329	8474.32
502.532	8226.52
502.735	8605.39
502.938	8685.26
503.141	8537.81
503.344	8654.55
503.547	8947.4
503.75	8814.29
503.953	9031.37
504.156	9297.61
504.359	9262.79
504.562	9363.14
504.765	9610.95
504.968	9856.7
505.17	9787.07
505.373	10038.97
505.576	10141.37
505.779	10380.98
505.982	10501.81
506.185	10817.2
506.387	10747.57
506.59	11148.97
506.793	11155.12
506.996	11402.92
507.198	11763.36
507.401	11894.43
507.604	12189.34
507.807	12437.14
508.009	12439.19
508.212	12910.22
508.415	13227.66
508.617	13285
508.82	13678.21
509.022	13643.4
509.225	14272.12
509.428	14573.17
509.63	14954.1
509.833	14966.38
510.035	15707.75
510.238	15707.75
510.44	15902.31
510.643	16373.34
510.845	16866.9
511.048	16852.56
511.25	17536.59
511.453	17745.48
511.655	18941.49
511.858	18841.14
512.06	19217.97
512.262	19230.26
512.465	19914.28
512.667	20545.05
512.87	20743.7
513.072	21136.91
513.274	21749.26
513.477	22222.34
513.679	22849.02
513.881	23600.62
514.084	24049.13
514.286	24376.8
514.488	24884.7
514.69	25873.87
514.893	26000.84
515.095	26351.04
515.297	26787.26
515.499	27559.34
515.701	27960.75
515.904	28935.58
516.106	29685.14
516.308	30068.11
516.51	30768.51
516.712	30985.6
516.914	31438.2
517.116	32540
517.318	33035.61
517.52	33269.08
517.722	33934.67
517.925	34944.32
518.127	35702.07
518.329	36281.64
518.531	36338.99
518.733	37338.4
518.935	38092.05
519.136	38645
519.338	39259.39
519.54	39757.05
519.742	40195.31
519.944	41057.51
520.146	41952.47
520.348	41985.24
520.55	42464.46
520.752	43087.04
520.954	44018.87
521.155	43619.52
521.357	44635.31
521.559	45425.82
521.761	46273.68
521.963	46034.07
522.164	46744.72
522.366	47062.15
522.568	47709.31
522.77	48030.84
522.971	48508.02
523.173	48317.56
523.375	48942.19
523.576	49126.5
523.778	48997.48
523.98	49503.33
524.181	49824.86
524.383	49974.36
524.584	50689.1
524.786	50365.52
524.988	50271.32
525.189	51258.44
525.391	51129.42
525.592	50869.33
525.794	50699.34
525.995	50680.91
526.197	51078.22
526.398	50975.82
526.6	50764.88
526.801	50971.72
527.003	50566.23
527.204	50340.95
527.406	50046.04
527.607	50144.34
527.808	50203.74
528.01	49011.82
528.211	49464.42
528.412	49732.7
528.614	49200.23
528.815	48772.21
529.016	49003.63
529.218	48106.62
529.419	47453.31
529.62	47203.46
529.822	46853.26
530.023	46091.41
530.224	46197.91
530.425	45999.26
530.626	44999.85
530.828	44367.02
531.029	44786.86
531.23	44008.63
531.431	43607.23
531.632	43189.44
531.833	42646.73
532.035	42237.14
532.236	41952.47
532.437	41569.5
532.638	40617.19
532.839	40432.88
533.04	39947.51
533.241	38941.96
533.442	39195.9
533.643	38647.05
533.844	37530.9
534.045	37512.47
534.246	36463.91
534.447	36060.46
534.648	36082.99
534.849	35657.01
535.05	34524.49
535.251	34266.44
535.451	34147.66
535.652	33566.04
535.853	33074.52
536.054	32654.69
536.255	32234.86
536.456	31268.22
536.657	31628.66
536.857	30825.85
537.058	30549.38
537.259	30295.43
537.46	29998.48
537.66	29314.45
537.861	29023.64
538.062	28462.5
538.263	28409.25
538.463	27839.92
538.664	27579.82
538.865	27309.49
539.065	26891.71
539.266	26404.29
539.466	26265.03
539.667	25652.69
539.868	25959.88
540.068	25124.31
540.269	24989.14
540.469	24630.75
540.67	24395.23
540.87	23942.63
541.071	23559.66
541.271	23530.99
541.472	23430.64
541.672	22939.13
541.873	22644.22
542.073	21964.29
542.274	22375.94
542.474	22017.54
542.675	21536.27
542.875	21693.96
543.075	20962.84
543.276	20710.94
543.476	20907.54
543.676	20502.04
543.877	20377.12
544.077	19953.19
544.277	19959.33
544.478	19635.75
544.678	19760.68
544.878	19191.34
545.078	18822.71
545.279	18595.39
545.479	18601.53
545.679	18499.13
545.879	18130.5
546.079	17950.28
546.28	17786.44
546.48	17503.82
546.68	17274.45
546.88	17225.29
547.08	16889.43
547.28	16764.5
547.48	16473.69
547.68	16356.96
547.88	15953.51
548.081	15804
548.281	15742.57
548.481	15371.88
548.681	15480.43
548.881	15070.83
549.081	14800.5
549.28	14440.06
549.48	14425.72
549.68	14323.32
549.88	14366.33
550.08	13631.11
550.28	13946.5
550.48	13758.08
550.68	13325.96
550.88	13379.21
551.08	13155.98
551.279	12947.09
551.479	12435.1
551.679	12578.45
551.879	12205.72
552.079	12347.03
552.278	11912.86
552.478	11978.4
552.678	11587.24
552.878	11509.41
553.077	11177.64
553.277	10999.47
553.477	10931.89
553.676	10684.08
553.876	10731.19
554.076	10483.38
554.275	10133.18
554.475	10077.88
554.674	9834.18
554.874	9875.13
555.074	9420.49
555.273	9574.08
555.473	9322.18
555.672	9084.62
555.872	9103.05
556.071	8943.31
556.271	8855.25
556.47	8711.89
556.67	8253.14
556.869	8322.77
557.068	8175.32
557.268	7980.76
557.467	7896.8
557.667	7849.69
557.866	7720.67
558.065	7579.36
558.265	7474.92
558.464	7167.72
558.663	7245.54
558.863	7022.31
559.062	7081.71
559.261	6735.6
559.461	6921.96
559.66	6522.61
559.859	6569.71
560.058	6342.39
560.258	6143.74
560.457	6047.48
560.656	6272.76
560.855	5957.37
561.054	6065.91
561.253	5836.54
561.453	5596.93
561.652	5766.91
561.851	5676.8
562.05	5451.52
562.249	5459.71
562.448	5365.51
562.647	5146.37
562.846	5107.46
563.045	5314.31
563.244	4957.96
563.443	4939.53
563.642	4734.73
563.841	4818.7
564.04	4824.84
564.239	4740.88
564.438	4624.14
564.637	4591.38
564.836	4448.02
565.035	4257.56
565.234	4271.89
565.432	4157.21
565.631	4380.43
565.83	4120.34
566.029	3933.98
566.228	4034.33
566.427	4001.56
566.625	3807
566.824	3802.91
567.023	3835.67
567.222	3731.23
567.42	3792.67
567.619	3616.54
567.818	3702.56
568.016	3718.94
568.215	3446.56
568.414	3532.58
568.612	3374.88
568.811	3274.53
569.01	3397.41
569.208	3231.52
569.407	3305.25
569.605	3190.56
569.804	3125.03
570.002	2961.19
570.201	2897.71
570.4	3053.35
570.598	2862.89
570.797	2948.9
570.995	2772.78
571.193	2727.72
571.392	2807.59
571.59	2621.23
571.789	2762.54
571.987	2668.33
572.186	2512.69
572.384	2506.54
572.582	2567.98
572.781	2461.49
572.979	2381.62
573.177	2330.42
573.376	2293.55
573.574	2402.1
573.772	2320.18
573.971	2168.63
574.169	2101.05
574.367	2262.83
574.565	2109.24
574.763	2107.19
574.962	2053.94
575.16	2111.29
575.358	1992.5
575.556	1845.05
575.754	1933.11
575.952	1902.39
576.151	1898.3
576.349	1982.26
576.547	1713.98
576.745	1711.93
576.943	1832.76
577.141	1724.22
577.339	1666.88
577.537	1687.36
577.735	1644.35
577.933	1781.56
578.131	1490.75
578.329	1630.01
578.527	1611.58
578.725	1541.95
578.923	1480.51
579.121	1515.33
579.319	1382.21
579.516	1390.4
579.714	1593.15
579.912	1419.07
580.11	1326.91
580.308	1412.93
580.506	1208.13
580.704	1185.6
580.901	1322.82
581.099	1320.77
581.297	1255.23
581.495	1281.86
581.692	1261.38
581.89	1292.1
582.088	1204.03
582.285	1230.66
582.483	1181.51
582.681	1089.35
582.878	1156.93
583.076	1052.49
583.274	1023.81
583.471	1118.02
583.669	1128.26
583.866	970.57
584.064	1097.54
584.262	872.26
584.459	911.18
584.657	1083.2
584.854	995.14
585.052	1032.01
585.249	982.85
585.447	1003.33
585.644	847.69
585.841	921.42
586.039	943.94
586.236	878.41
586.434	796.49
586.631	872.26
586.828	855.88
587.026	718.67
587.223	708.43
587.42	786.25
587.618	806.73
587.815	839.5
588.012	726.86
588.21	722.76
588.407	808.78
588.604	814.92
588.801	698.19
588.999	710.47
589.196	757.58
589.393	673.61
589.59	716.62
589.787	819.02
589.984	776.01
590.182	679.75
590.379	622.41
590.576	735.05
590.773	585.55
590.97	689.99
591.167	728.91
591.364	581.45
591.561	698.19
591.758	769.87
591.955	659.28
592.152	640.84
592.349	544.59
592.546	610.12
592.743	558.92
592.94	663.37
593.137	714.57
593.334	673.61
593.531	706.38
593.727	657.23
593.924	724.81
594.121	653.13
594.318	649.04
594.515	696.14
594.712	761.67
594.908	730.95
595.105	595.79
595.302	687.95
595.499	714.57
595.696	892.74
595.892	716.62
596.089	700.23
596.286	730.95
596.482	829.26
596.679	841.54
596.876	786.25
597.072	925.51
597.269	835.4
597.466	884.55
597.662	878.41
597.859	913.22
598.055	892.74
598.252	978.76
598.448	974.66
598.645	1077.06
598.841	1109.83
599.038	1222.47
599.234	1222.47
599.431	1179.46
599.627	1132.36
599.824	1165.12
600.02	1267.52
600.217	1165.12
600.413	1386.3
600.609	1341.25
600.806	1662.78
601.002	1589.05
601.198	1550.14
601.395	1765.18
601.591	1705.79
601.787	1761.08
601.984	1957.69
602.18	2029.37
602.376	1992.5
602.572	2117.43
602.769	2207.54
602.965	2193.2
603.161	2330.42
603.357	2344.75
603.553	2561.84
603.75	2365.23
603.946	2588.46
604.142	2697
604.338	2764.59
604.534	2817.83
604.73	2981.67
604.926	3061.54
605.122	3264.29
605.318	3133.22
605.514	3467.04
605.71	3393.31
605.906	3536.67
606.102	3661.6
606.298	3823.39
606.494	3972.89
606.69	4155.16
606.886	4056.86
607.082	4165.4
607.278	4239.12
607.474	4495.12
607.67	4577.04
607.866	4525.84
608.062	5031.69
608.257	4908.81
608.453	5041.93
608.649	5256.97
608.845	5263.11
609.041	5472
609.236	5558.02
609.432	5691.13
609.628	6027
609.824	6172.41
610.019	6237.94
610.215	6403.83
610.411	6737.65
610.606	6768.37
610.802	6801.13
610.998	7083.75
611.193	7366.37
611.389	7417.57
611.584	7804.64
611.78	7904.99
611.976	8136.41
612.171	8505.04
612.367	8468.18
612.562	8654.55
612.758	8900.3
612.953	8939.21
613.149	9434.82
613.344	9594.56
613.539	9856.7
613.735	10182.33
613.93	10733.23
614.126	10538.68
614.321	10809.01
614.517	11234.99
614.712	11546.28
614.907	11626.15
615.103	12230.3
615.298	12215.96
615.493	12709.52
615.688	12730
615.884	13588.1
616.079	13297.29
616.274	14012.03
616.47	14096
616.665	14962.29
616.86	14829.17
617.055	15318.64
617.25	15568.49
617.445	16277.08
617.641	16205.41
617.836	16758.36
618.031	17153.62
618.226	17919.56
618.421	18224.7
618.616	18705.98
618.811	18652.73
619.006	19621.42
619.201	19758.63
619.396	20502.04
619.591	20354.59
619.786	21288.46
619.981	21089.81
620.176	21980.68
620.371	22472.19
620.566	22937.08
620.761	23303.67
620.956	24036.84
621.151	24159.72
621.346	24770.01
621.541	24962.52
621.735	25744.84
621.93	26074.57
622.125	26590.66
622.32	26875.32
622.515	27796.91
622.709	28024.23
622.904	28851.61
623.099	28958.11
623.294	29758.86
623.488	29889.93
623.683	30580.1
623.878	30584.19
624.072	31305.08
624.267	32183.66
624.462	32408.93
624.656	32474.47
624.851	33498.45
625.046	33690.96
625.24	34243.91
625.435	34250.06
625.629	35204.41
625.824	35738.93
626.018	35845.43
626.213	35714.36
626.407	37135.65
626.602	36984.1
626.796	37305.63
626.991	38286.61
627.185	38401.29
627.38	38253.84
627.574	38657.29
627.768	38429.96
627.963	39046.4
628.157	38898.95
628.352	39509.24
628.546	38907.14
628.74	39468.28
628.935	39515.39
629.129	39202.05
629.323	39281.92
629.517	39025.92
629.712	38614.28
629.906	38554.89
630.1	37823.76
630.294	37881.11
630.489	37309.72
630.683	37131.55
630.877	36257.07
631.071	35659.06
631.265	35525.94
631.459	34477.38
631.653	33824.08
631.848	33305.95
632.042	32327.02
632.236	31829.36
632.43	31026.56
632.624	30295.43
632.818	29126.04
633.012	28300.71
633.206	27469.23
633.4	26779.07
633.594	25681.36
633.788	25026.01
633.982	23893.48
634.176	22904.31
634.369	22394.37
634.563	21407.25
634.757	20452.89
634.951	20291.1
635.145	19119.67
635.339	18548.28
635.533	17620.55
635.726	16991.83
635.92	16027.23
636.114	15478.38
636.308	14913.14
636.501	14288.51
636.695	13887.11
636.889	13074.06
637.083	12560.02
637.276	12101.28
637.47	11734.69
637.664	11191.98
637.857	10985.13
638.051	10440.37
638.244	10038.97
638.438	9555.65
638.632	9248.46
638.825	8730.32
639.019	8564.43
639.212	8056.54
639.406	7835.36
639.599	7309.03
639.793	7225.06
639.986	6838
640.18	6680.3
640.373	6248.18
640.567	6182.65
640.76	5936.89
640.954	5717.76
641.147	5396.23
641.34	5052.17
641.534	5076.74
641.727	4908.81
641.92	4800.27
642.114	4499.22
642.307	4288.28
642.5	4210.45
642.694	4060.95
642.887	3835.67
643.08	3804.96
643.273	3661.6
643.467	3383.07
643.66	3352.35
643.853	3118.89
644.046	3249.96
644.239	2944.81
644.432	2826.03
644.626	2602.8
644.819	2504.5
645.012	2457.39
645.205	2529.07
645.398	2342.71
645.591	2230.07
645.784	2076.47
645.977	1955.64
646.17	2094.9
646.363	1879.86
646.556	1822.52
646.749	1634.11
646.942	1732.41
647.135	1601.34
647.328	1584.96
647.521	1449.79
647.714	1478.46
647.907	1466.17
648.099	1382.21
648.292	1345.34
648.485	1359.68
648.678	1261.38
648.871	1206.08
649.064	1148.74
649.256	984.9
649.449	941.89
649.642	945.99
649.835	935.75
650.027	896.84
650.22	972.61
650.413	882.5
650.605	878.41
650.798	741.19
650.991	730.95
651.183	704.33
651.376	800.59
651.568	710.47
651.761	659.28
651.954	671.56
652.146	624.46
652.339	685.9
652.531	687.95
652.724	601.93
652.916	552.78
653.109	466.77
653.301	606.03
653.494	526.16
653.686	495.44
653.879	532.3
654.071	556.88
654.263	419.66
654.456	444.24
654.648	552.78
654.84	401.23
655.033	397.14
655.225	489.29
655.417	335.7
655.61	517.97
655.802	413.52
655.994	499.53
656.186	286.54
656.379	431.95
656.571	339.79
656.763	270.16
656.955	352.08
657.148	233.3
657.34	456.53
657.532	323.41
657.724	270.16
657.916	339.79
658.108	356.18
658.3	329.55
658.492	347.98
658.684	284.5
658.876	315.22
659.068	175.95
659.26	255.83
659.452	247.63
659.644	223.06
659.836	382.8
660.028	286.54
660.22	264.02
660.412	225.11
660.604	212.82
660.796	229.2
660.988	315.22
661.18	216.91
661.372	251.73
661.563	143.19
661.755	190.29
661.947	145.24
662.139	159.57
662.331	208.72
662.522	153.43
662.714	108.37
662.906	153.43
663.097	167.76
663.289	139.09
663.481	65.36
663.673	175.95
663.864	175.95
664.056	266.07
664.247	149.33
664.439	276.31
664.631	143.19
664.822	257.87
665.014	178
665.205	161.62
665.397	106.32
665.588	200.53
665.78	141.14
665.971	130.9
666.163	175.95
666.354	188.24
666.546	128.85
666.737	57.17
666.929	147.28
667.12	143.19
667.311	173.91
667.503	120.66
667.694	178
667.885	126.8
668.077	118.61
668.268	112.47
668.459	149.33
668.651	145.24
668.842	139.09
669.033	130.9
669.224	44.88
669.416	350.03
669.607	163.67
669.798	79.7
669.989	218.96
670.18	149.33
670.371	169.81
670.563	75.6
670.754	280.4
670.945	241.49
671.136	178
671.327	143.19
671.518	251.73
671.709	276.31
671.9	251.73
672.091	221.01
672.282	110.42
672.473	89.94
672.664	44.88
672.855	163.67
673.046	225.11
673.237	239.44
673.428	231.25
673.619	194.39
673.809	71.51
674	221.01
674.191	114.52
674.382	184.15
674.573	91.99
674.764	171.86
674.954	255.83
675.145	51.03
675.336	112.47
675.527	153.43
675.717	126.8
675.908	114.52
676.099	173.91
676.289	221.01
676.48	42.84
676.671	200.53
676.861	161.62
677.052	155.47
677.243	124.76
677.433	139.09
677.624	204.63
677.814	110.42
678.005	124.76
678.195	233.3
678.386	110.42
678.576	182.1
678.767	106.32
678.957	141.14
679.148	165.71
679.338	331.6
679.529	239.44
679.719	141.14
679.909	261.97
680.1	214.87
680.29	221.01
680.481	104.28
680.671	339.79
680.861	171.86
681.052	202.58
681.242	116.56
681.432	218.96
681.622	233.3
681.813	151.38
682.003	173.91
682.193	124.76
682.383	173.91
682.573	184.15
682.764	208.72
682.954	253.78
683.144	296.78
683.334	243.54
683.524	223.06
683.714	247.63
683.904	241.49
684.094	149.33
684.284	233.3
684.474	221.01
684.664	288.59
684.854	298.83
685.044	184.15
685.234	204.63
685.424	216.91
685.614	124.76
685.804	341.84
685.994	229.2
686.184	237.39
686.374	229.2
686.564	206.67
686.753	165.71
686.943	175.95
687.133	175.95
687.323	233.3
687.513	192.34
687.702	225.11
687.892	163.67
688.082	268.11
688.272	317.26
688.461	282.45
688.651	257.87
688.841	225.11
689.03	216.91
689.22	231.25
689.41	261.97
689.599	266.07
689.789	180.05
689.979	311.12
690.168	210.77
690.358	241.49
690.547	210.77
690.737	208.72
690.926	192.34
691.116	286.54
691.305	233.3
691.495	292.69
691.684	198.48
691.874	159.57
692.063	188.24
692.252	335.7
692.442	237.39
692.631	186.19
692.82	145.24
693.01	241.49
693.199	169.81
693.388	261.97
693.578	184.15
693.767	319.31
693.956	214.87
694.146	153.43
694.335	290.64
694.524	218.96
694.713	253.78
694.902	182.1
695.092	53.08
695.281	257.87
695.47	143.19
695.659	214.87
695.848	130.9
696.037	85.84
696.226	243.54
696.415	237.39
696.604	247.63
696.793	212.82
696.982	157.52
697.171	333.65
697.36	139.09
697.549	206.67
697.738	135
697.927	227.15
698.116	182.1
698.305	200.53
698.494	143.19
698.683	259.92
698.872	274.26
699.061	218.96
699.25	227.15
699.438	196.43
699.627	178
699.816	356.18
700.005	182.1
700.193	130.9
700.382	274.26
700.571	151.38
700.76	216.91
700.948	313.17
701.137	216.91
701.326	251.73
701.514	122.71
701.703	239.44
701.892	155.47
702.08	347.98
702.269	294.74
702.457	227.15
702.646	120.66
702.834	253.78
703.023	296.78
703.212	216.91
703.4	216.91
703.589	153.43
703.777	167.76
703.965	61.27
704.154	120.66
704.342	65.36
704.531	137.04
704.719	186.19
704.907	243.54
705.096	73.56
705.284	153.43
705.472	132.95
705.661	237.39
705.849	139.09
706.037	241.49
706.226	182.1
706.414	249.68
706.602	192.34
706.79	253.78
706.979	143.19
707.167	235.35
707.355	126.8
707.543	169.81
707.731	229.2
707.919	159.57
708.107	153.43
708.296	145.24
708.484	196.43
708.672	178
708.86	227.15
709.048	190.29
709.236	147.28
709.424	247.63
709.612	304.98
709.8	151.38
709.988	182.1
710.176	173.91
710.364	317.26
710.551	229.2
710.739	196.43
710.927	122.71
711.115	167.76
711.303	231.25
711.491	255.83
711.679	149.33
711.866	235.35
712.054	135
712.242	149.33
712.43	247.63
712.617	221.01
712.805	286.54
712.993	184.15
713.181	102.23
713.368	196.43
713.556	186.19
713.744	202.58
713.931	317.26
714.119	300.88
714.306	165.71
714.494	110.42
714.682	237.39
714.869	110.42
715.057	202.58
715.244	120.66
715.432	210.77
715.619	112.47
715.807	139.09
715.994	190.29
716.182	188.24
716.369	286.54
716.556	253.78
716.744	132.95
716.931	104.28
717.119	153.43
717.306	83.8
717.493	198.48
717.681	157.52
717.868	157.52
718.055	178
718.242	233.3
718.43	161.62
718.617	225.11
718.804	194.39
718.991	212.82
719.179	173.91
719.366	270.16
719.553	178
719.74	202.58
719.927	141.14
720.114	145.24
720.301	161.62
720.488	141.14
720.676	192.34
720.863	290.64
721.05	323.41
721.237	253.78
721.424	245.59
721.611	268.11
721.798	87.89
721.985	171.86
722.172	155.47
722.358	214.87
722.545	345.94
722.732	296.78
722.919	274.26
723.106	231.25
723.293	225.11
723.48	245.59
723.667	149.33
723.853	327.5
724.04	319.31
724.227	159.57
724.414	196.43
724.6	182.1
724.787	300.88
724.974	347.98
725.161	229.2
725.347	159.57
725.534	272.21
725.72	261.97
725.907	270.16
726.094	223.06
726.28	173.91
726.467	198.48
726.653	155.47
726.84	302.93
727.027	225.11
727.213	159.57
727.4	261.97
727.586	264.02
727.773	169.81
727.959	204.63
728.145	247.63
728.332	247.63
728.518	173.91
728.705	243.54
728.891	216.91
729.077	223.06
729.264	169.81
729.45	229.2
729.636	280.4
729.823	243.54
730.009	296.78
730.195	284.5
730.382	221.01
730.568	221.01
730.754	264.02
730.94	143.19
731.126	210.77
731.313	333.65
731.499	190.29
731.685	296.78
731.871	325.46
732.057	218.96
732.243	321.36
732.429	276.31
732.615	395.09
732.801	341.84
732.987	245.59
733.173	309.07
733.359	270.16
733.545	274.26
733.731	282.45
733.917	390.99
734.103	243.54
734.289	286.54
734.475	249.68
734.661	384.85
734.847	339.79
735.033	239.44
735.219	270.16
735.404	251.73
735.59	241.49
735.776	173.91
735.962	278.35
736.148	352.08
736.333	360.27
736.519	231.25
736.705	327.5
736.89	255.83
737.076	208.72
737.262	196.43
737.447	243.54
737.633	171.86
737.819	290.64
738.004	286.54
738.19	132.95
738.375	354.13
738.561	302.93
738.747	317.26
738.932	206.67
739.118	386.9
739.303	253.78
739.489	331.6
739.674	157.52
739.859	163.67
740.045	296.78
740.23	233.3
740.416	157.52
740.601	268.11
740.786	276.31
740.972	186.19
741.157	235.35
741.342	130.9
741.528	198.48
741.713	352.08
741.898	227.15
742.084	337.74
742.269	221.01
742.454	280.4
742.639	335.7
742.824	210.77
743.01	317.26
743.195	374.61
743.38	241.49
743.565	323.41
743.75	276.31
743.935	300.88
744.12	317.26
744.305	157.52
744.49	251.73
744.675	225.11
744.86	206.67
745.045	272.21
745.23	204.63
745.415	196.43
745.6	323.41
745.785	188.24
745.97	399.18
746.155	247.63
746.34	292.69
746.525	214.87
746.71	347.98
746.895	104.28
747.079	112.47
747.264	204.63
747.449	190.29
747.634	184.15
747.819	235.35
748.003	196.43
748.188	126.8
748.373	229.2
748.557	241.49
748.742	235.35
748.927	208.72
749.111	212.82
749.296	161.62
749.481	237.39
749.665	261.97
749.85	243.54
750.034	264.02
750.219	149.33
750.404	180.05
750.588	235.35
750.773	165.71
750.957	182.1
751.141	202.58
751.326	171.86
751.51	141.14
751.695	159.57
751.879	190.29
752.064	335.7
752.248	120.66
752.432	300.88
752.617	192.34
752.801	268.11
752.985	196.43
753.17	286.54
753.354	194.39
753.538	233.3
753.722	112.47
753.907	137.04
754.091	96.08
754.275	173.91
754.459	124.76
754.643	153.43
754.828	241.49
755.012	171.86
755.196	116.56
755.38	218.96
755.564	126.8
755.748	124.76
755.932	161.62
756.116	245.59
756.3	147.28
756.484	112.47
756.668	192.34
756.852	3.93
757.036	178
757.22	149.33
757.404	98.13
757.588	124.76
757.772	282.45
757.956	34.64
758.14	274.26
758.323	188.24
758.507	171.86
758.691	126.8
758.875	157.52
759.059	173.91
759.242	128.85
759.426	161.62
759.61	184.15
759.794	26.45
759.977	130.9
760.161	374.61
760.345	243.54
760.528	245.59
760.712	216.91
760.895	198.48
761.079	190.29
761.263	75.6
761.446	137.04
761.63	112.47
761.813	223.06
761.997	30.55
762.18	124.76
762.364	153.43
762.547	36.69
762.731	89.94
762.914	118.61
763.098	85.84
763.281	91.99
763.464	102.23
763.648	79.7
763.831	75.6
764.015	69.46
764.198	122.71
764.381	36.69
764.564	104.28
764.748	214.87
764.931	91.99
765.114	96.08
765.297	161.62
765.481	-4.27
765.664	139.09
765.847	48.98
766.03	161.62
766.213	18.26
766.397	116.56
766.58	36.69
766.763	116.56
766.946	63.32
767.129	69.46
767.312	24.4
767.495	104.28
767.678	59.22
767.861	48.98
768.044	57.17
768.227	20.31
768.41	48.98
768.593	53.08
768.776	85.84
768.959	48.98
769.142	161.62
769.324	104.28
769.507	98.13
769.69	161.62
769.873	63.32
770.056	229.2
770.239	71.51
770.421	149.33
770.604	102.23
770.787	75.6
770.97	104.28
771.152	18.26
771.335	108.37
771.518	-53.42
771.7	139.09
771.883	143.19
772.066	61.27
772.248	153.43
772.431	175.95
772.613	124.76
772.796	63.32
772.978	89.94
773.161	173.91
773.343	59.22
773.526	24.4
773.708	3.93
773.891	12.12
774.073	112.47
774.256	38.74
774.438	196.43
774.621	42.84
774.803	110.42
774.985	-12.46
775.168	155.47
775.35	59.22
775.532	104.28
775.715	8.02
775.897	145.24
776.079	94.04
776.261	83.8
776.444	85.84
776.626	18.26
776.808	59.22
776.99	-80.04
777.173	147.28
777.355	77.65
777.537	81.75
777.719	75.6
777.901	30.55
778.083	-41.13
778.265	-51.37
778.447	104.28
778.629	30.55
778.811	91.99
778.993	34.64
779.175	122.71
779.357	59.22
779.539	46.93
779.721	94.04
779.903	51.03
780.085	-20.65
780.267	108.37
780.449	36.69
780.631	79.7
780.812	137.04
780.994	3.93
781.176	30.55
781.358	53.08
781.54	22.36
781.721	71.51
781.903	44.88
782.085	-39.08
782.267	55.12
782.448	-57.51
782.63	22.36
782.812	73.56
782.993	83.8
783.175	42.84
783.357	-24.75
783.538	22.36
783.72	14.17
783.901	18.26
784.083	63.32
784.264	106.32
784.446	-12.46
784.627	-47.27
784.809	-10.41
784.99	55.12
785.172	83.8
785.353	61.27
785.535	10.07
785.716	20.31
785.897	-8.36
786.079	5.97
786.26	94.04
786.441	34.64
786.623	-75.95
786.804	83.8
786.985	53.08
787.167	104.28
787.348	-104.62
787.529	24.4
787.71	196.43
787.891	83.8
788.073	-24.75
788.254	-39.08
788.435	141.14
788.616	12.12
788.797	-32.94
788.978	-41.13
789.159	-12.46
789.34	32.6
789.522	57.17
789.703	34.64
789.884	73.56
790.065	67.41
790.246	202.58
790.427	-32.94
790.607	157.52
790.788	22.36
790.969	-4.27
791.15	44.88
791.331	-37.03
791.512	28.5
791.693	-6.31
791.874	34.64
792.054	245.59
792.235	100.18
792.416	-22.7
792.597	-43.18
792.778	65.36
792.958	85.84
793.139	61.27
793.32	38.74
793.5	-32.94
793.681	120.66
793.862	77.65
794.042	36.69
794.223	20.31
794.404	38.74
794.584	-22.7
794.765	65.36
794.945	-39.08
795.126	36.69
795.306	143.19
795.487	63.32
795.667	81.75
795.848	81.75
796.028	24.4
796.209	71.51
796.389	73.56
796.57	57.17
796.75	61.27
796.93	57.17
797.111	-43.18
797.291	-47.27
797.471	114.52
797.652	12.12
797.832	8.02
798.012	75.6
798.192	-30.89
798.373	-16.55
798.553	-16.55
798.733	120.66
798.913	-86.19
799.093	-10.41
799.274	-0.17
799.454	42.84
799.634	81.75
799.814	81.75
799.994	94.04
800.174	57.17
800.354	-53.42
800.534	-92.33
800.714	89.94
800.894	-82.09
801.074	-123.05
801.254	-47.27
801.434	65.36
801.614	22.36
801.794	-0.17
801.974	1556.29
802.154	12.12
802.334	159.57
802.514	-24.75
802.693	83.8
802.873	-53.42
803.053	118.61
803.233	169.81
803.413	83.8
803.592	-4.27
803.772	-65.71
803.952	24.4
804.131	-88.23
804.311	40.79
804.491	87.89
804.67	-94.38
804.85	-90.28
805.03	96.08
805.209	153.43
805.389	-59.56
805.568	-22.7
805.748	-53.42
805.928	-12.46
806.107	65.36
806.287	55.12
806.466	44.88
806.646	-37.03
806.825	-32.94
807.004	-0.17
807.184	28.5
807.363	69.46
807.543	10.07
807.722	-53.42
807.901	163.67
808.081	141.14
808.26	-77.99
808.439	3.93
808.619	5.97
808.798	28.5
808.977	-26.79
809.156	114.52
809.336	-2.22
809.515	139.09
809.694	-55.47
809.873	3.93
810.052	24.4
810.231	114.52
810.411	-20.65
810.59	118.61
810.769	30.55
810.948	98.13
811.127	-45.23
811.306	-49.32
811.485	-12.46
811.664	77.65
811.843	75.6
812.022	81.75
812.201	10.07
812.38	-12.46
812.559	26.45
812.737	91.99
812.916	-129.19
813.095	-22.7
813.274	63.32
813.453	-6.31
813.632	8.02
813.811	44.88
813.989	-59.56
814.168	3.93
814.347	-43.18
814.526	-6.31
814.704	53.08
814.883	130.9
815.062	-108.71
815.24	16.21
815.419	-65.71
815.598	57.17
815.776	-47.27
815.955	61.27
816.133	-129.19
816.312	139.09
816.49	8.02
816.669	-26.79
816.847	22.36
817.026	30.55
817.204	-4.27
817.383	-16.55
817.561	-26.79
817.74	55.12
817.918	-14.51
818.097	-32.94
818.275	-28.84
818.453	57.17
818.632	-0.17
818.81	-8.36
818.988	-4.27
819.167	-14.51
819.345	85.84
819.523	-28.84
819.701	73.56
819.879	106.32
820.058	48.98
820.236	36.69
820.414	10.07
820.592	-12.46
820.77	20.31
820.948	-84.14
821.127	-26.79
821.305	-32.94
821.483	-71.85
821.661	102.23
821.839	-30.89
822.017	-116.9
822.195	-4.27
822.373	71.51
822.551	18.26
822.729	118.61
822.907	8.02
823.085	71.51
823.262	85.84
823.44	-20.65
823.618	-49.32
823.796	26.45
823.974	48.98
824.152	-49.32
824.329	-4.27
824.507	61.27
824.685	79.7
824.863	10.07
825.04	18.26
825.218	112.47
825.396	51.03
825.574	34.64
825.751	38.74
825.929	130.9
826.107	-63.66
826.284	-6.31
826.462	42.84
826.639	8.02
826.817	-55.47
826.994	-6.31
827.172	-73.9
827.349	44.88
827.527	18.26
827.704	14.17
827.882	53.08
828.059	-4.27
828.237	79.7
828.414	48.98
828.591	-118.95
828.769	36.69
828.946	-14.51
829.124	28.5
829.301	79.7
829.478	-0.17
829.655	40.79
829.833	18.26
830.01	-182.44
830.187	30.55
830.364	-14.51
830.542	65.36
830.719	38.74
830.896	55.12
831.073	8.02
831.25	55.12
831.427	130.9
831.604	-37.03
831.782	-73.9
831.959	18.26
832.136	10.07
832.313	65.36
832.49	-51.37
832.667	59.22
832.844	-65.71
833.021	118.61
833.198	24.4
833.374	-0.17
833.551	48.98
833.728	34.64
833.905	94.04
834.082	-147.62
834.259	-12.46
834.436	75.6
834.612	-100.52
834.789	40.79
834.966	40.79
835.143	61.27
835.319	-49.32
835.496	77.65
835.673	32.6
835.85	77.65
836.026	69.46
836.203	71.51
836.38	32.6
836.556	-37.03
836.733	-39.08
836.909	139.09
837.086	-61.61
837.262	-77.99
837.439	-37.03
837.616	-24.75
837.792	-65.71
837.968	-28.84
838.145	-51.37
838.321	-8.36
838.498	73.56
838.674	-16.55
838.851	22.36
839.027	-2.22
839.203	-6.31
839.38	44.88
839.556	5.97
839.732	40.79
839.909	-45.23
840.085	51.03
840.261	-77.99
840.437	-20.65
840.614	-41.13
840.79	87.89
840.966	98.13
841.142	46.93
841.318	1.88
841.494	-12.46
841.671	61.27
841.847	-22.7
842.023	-59.56
842.199	42.84
842.375	75.6
842.551	-127.14
842.727	-45.23
842.903	143.19
843.079	-55.47
843.255	71.51
843.431	8.02
843.607	94.04
843.783	-159.91
843.959	22.36
844.134	-51.37
844.31	69.46
844.486	-49.32
844.662	-49.32
844.838	-55.47
845.013	-41.13
845.189	10.07
845.365	63.32
845.541	-37.03
845.716	-14.51
845.892	26.45
846.068	-47.27
846.244	-32.94
846.419	36.69
846.595	5.97
846.77	-102.57
846.946	126.8
847.122	-106.67
847.297	-41.13
847.473	159.57
847.648	-123.05
847.824	-57.51
847.999	-135.34
848.175	1.88
848.35	34.64
848.526	126.8
848.701	38.74
848.876	-12.46
849.052	-28.84
849.227	53.08
849.403	48.98
849.578	26.45
849.753	14.17
849.929	75.6
850.104	-75.95
850.279	-20.65
850.454	98.13
850.63	51.03
850.805	83.8
850.98	18.26
851.155	73.56
851.33	114.52
851.505	-32.94
851.681	89.94
851.856	-47.27
852.031	20.31
852.206	-53.42
852.381	-94.38
852.556	38.74
852.731	-16.55
852.906	63.32
853.081	69.46
853.256	22.36
853.431	20.31
853.606	-10.41
853.781	-86.19
853.956	-125.1
854.131	28.5
854.305	-53.42
854.48	-34.99
854.655	-84.14
854.83	14.17
855.005	-55.47
855.18	26.45
855.354	-8.36
855.529	8.02
855.704	-0.17
855.879	67.41
856.053	-41.13
856.228	53.08
856.403	-112.81
856.577	-6.31
856.752	-153.77
856.926	20.31
857.101	30.55
857.276	-88.23
857.45	59.22
857.625	67.41
857.799	51.03
857.974	-20.65
858.148	-153.77
858.323	122.71
858.497	26.45
858.672	3.93
858.846	-34.99
859.02	124.76
859.195	-49.32
859.369	-43.18
859.543	30.55
859.718	12.12
859.892	69.46
860.066	-2.22
860.241	-16.55
860.415	30.55
860.589	-30.89
860.763	-18.6
860.938	14.17
861.112	73.56
861.286	-41.13
861.46	-0.17
861.634	-14.51
861.808	67.41
861.982	-37.03
862.157	-53.42
862.331	-18.6
862.505	-121
862.679	-100.52
862.853	-6.31
863.027	-4.27
863.201	75.6
863.375	-104.62
863.549	79.7
863.722	-16.55
863.896	85.84
864.07	-32.94
864.244	-6.31
864.418	40.79
864.592	-43.18
864.766	-30.89
864.939	16.21
865.113	-84.14
865.287	180.05
865.461	-45.23
865.634	-30.89
865.808	-77.99
865.982	40.79
866.156	-34.99
866.329	-45.23
866.503	-24.75
866.676	-24.75
866.85	85.84
867.024	30.55
867.197	38.74
867.371	26.45
867.544	1.88
867.718	-102.57
867.891	38.74
868.065	-53.42
868.238	38.74
868.412	63.32
868.585	-61.61
868.759	14.17
868.932	-123.05
869.105	-75.95
869.279	40.79
869.452	-6.31
869.625	28.5
869.799	-4.27
869.972	-114.86
870.145	26.45
870.319	40.79
870.492	-61.61
870.665	-24.75
870.838	-57.51
871.011	-157.86
871.185	-80.04
871.358	-49.32
871.531	44.88
871.704	-118.95
871.877	53.08
872.05	14.17
872.223	-14.51
872.396	100.18
872.569	63.32
872.742	-63.66
872.915	32.6
873.088	-6.31
873.261	-75.95
873.434	46.93
873.607	-34.99
873.78	141.14
873.953	-69.8
874.126	61.27
874.299	83.8
874.471	-39.08
874.644	-45.23
874.817	3.93
874.99	114.52
875.163	-41.13
875.335	-16.55
875.508	51.03
875.681	132.95
875.853	-77.99
876.026	-24.75
876.199	24.4
876.371	3.93
876.544	-32.94
876.717	14.17
876.889	14.17
877.062	-45.23
877.234	-96.43
877.407	-75.95
877.579	-10.41
877.752	12.12
877.924	12.12
878.097	-39.08
878.269	53.08
878.442	32.6
878.614	-16.55
878.786	94.04
878.959	-30.89
879.131	26.45
879.303	-96.43
879.476	-63.66
879.648	96.08
879.82	-61.61
879.993	26.45
880.165	36.69
880.337	-30.89
880.509	10.07
880.681	-108.71
880.854	3.93
881.026	44.88
881.198	102.23
881.37	-0.17
881.542	36.69
881.714	-0.17
881.886	-49.32
882.058	-30.89
882.23	-22.7
882.402	-14.51
882.574	51.03
882.746	53.08
882.918	36.69
883.09	-34.99
883.262	30.55
883.434	51.03
883.606	-98.47
883.778	130.9
883.95	114.52
884.122	-57.51
884.293	77.65
884.465	-32.94
884.637	91.99
884.809	-53.42
884.98	-4.27
885.152	124.76
885.324	116.56
885.496	-18.6
885.667	3.93
885.839	-10.41
886.011	149.33
886.182	8.02
886.354	22.36
886.525	-24.75
886.697	-39.08
886.869	-116.9
887.04	26.45
887.212	65.36
887.383	270.16
887.555	18.26
887.726	1.88
887.897	-16.55
888.069	-69.8
888.24	81.75
888.412	38.74
888.583	10.07
888.754	-10.41
888.926	-114.86
889.097	-6.31
889.268	-125.1
889.44	-10.41
889.611	-84.14
889.782	46.93
889.953	-84.14
890.125	65.36
890.296	-26.79
890.467	-49.32
890.638	-41.13
890.809	-28.84
890.98	-6.31
891.151	8.02
891.323	184.15
891.494	36.69
891.665	-34.99
891.836	42.84
892.007	36.69
892.178	-16.55
892.349	71.51
892.52	-75.95
892.691	3.93
892.862	-32.94
893.032	-139.43
893.203	-16.55
893.374	-10.41
893.545	36.69
893.716	26.45
893.887	34.64
894.057	-20.65
894.228	-24.75
894.399	-75.95
894.57	118.61
894.74	1.88
894.911	79.7
895.082	-106.67
895.253	-6.31
895.423	-20.65
895.594	28.5
895.764	1.88
895.935	-41.13
896.106	57.17
896.276	-4.27
896.447	83.8
896.617	-108.71
896.788	-75.95
896.958	-41.13
897.129	-65.71
897.299	-55.47
897.47	71.51
897.64	14.17
897.81	40.79
897.981	-30.89
898.151	30.55
898.322	1.88
898.492	5.97
898.662	-10.41
898.832	-22.7
899.003	-0.17
899.173	75.6
899.343	-51.37
899.513	-4.27
