Data from USB4F104151__12__10-41-45-286.txt Node

Date: Wed Feb 26 10:41:45 EST 2025
User: louis
Spectrometer: USB4F10415
Trigger mode: 4
Integration Time (sec): 1.000000E-1
Scans to average: 1
Electric dark correction enabled: true
Nonlinearity correction enabled: false
Boxcar width: 0
XAxis mode: Wavelengths
Number of Pixels in Spectrum: 3648
>>>>>Begin Spectral Data<<<<<
178.204	-374.61
178.424	-374.61
178.644	-374.61
178.864	-427.85
179.084	-395.09
179.304	6.31
179.524	-16.21
179.744	-30.55
179.964	-28.5
180.184	84.14
180.404	28.84
180.624	-34.64
180.844	-40.79
181.064	-87.89
181.283	67.75
181.503	-18.26
181.723	69.8
181.943	-143.19
182.163	196.78
182.383	26.79
182.602	92.33
182.822	125.1
183.042	24.75
183.262	55.47
183.482	73.9
183.701	30.89
183.921	49.32
184.141	-63.32
184.361	55.47
184.58	26.79
184.8	94.38
185.02	-3.93
185.239	135.34
185.459	65.71
185.679	114.86
185.898	-112.47
186.118	80.04
186.338	102.57
186.557	170.15
186.777	-18.26
186.997	-42.84
187.216	86.19
187.436	194.73
187.655	92.33
187.875	178.34
188.095	-36.69
188.314	176.3
188.534	80.04
188.753	-87.89
188.973	131.24
189.192	184.49
189.412	-1.88
189.631	39.08
189.851	86.19
190.07	139.43
190.29	0.17
190.509	30.89
190.729	20.65
190.948	80.04
191.168	215.21
191.387	30.89
191.607	18.6
191.826	45.23
192.045	2.22
192.265	-36.69
192.484	51.37
192.704	80.04
192.923	-32.6
193.142	155.82
193.362	125.1
193.581	104.62
193.8	4.27
194.02	63.66
194.239	59.56
194.458	47.27
194.678	41.13
194.897	8.36
195.116	98.47
195.335	-3.93
195.555	98.47
195.774	30.89
195.993	137.38
196.212	26.79
196.432	-30.55
196.651	-3.93
196.87	-5.97
197.089	202.92
197.308	18.6
197.528	77.99
197.747	4.27
197.966	8.36
198.185	166.06
198.404	16.55
198.623	43.18
198.842	96.43
199.062	59.56
199.281	188.58
199.5	51.37
199.719	100.52
199.938	102.57
200.157	53.42
200.376	131.24
200.595	168.1
200.814	100.52
201.033	-26.45
201.252	153.77
201.471	108.71
201.69	28.84
201.909	18.6
202.128	116.9
202.347	63.66
202.566	6.31
202.785	-3.93
203.004	-12.12
203.223	262.31
203.442	53.42
203.661	-75.6
203.879	106.67
204.098	71.85
204.317	-28.5
204.536	88.23
204.755	100.52
204.974	37.03
205.193	69.8
205.411	153.77
205.63	86.19
205.849	-10.07
206.068	104.62
206.287	8.36
206.505	121
206.724	45.23
206.943	55.47
207.162	-1.88
207.381	100.52
207.599	51.37
207.818	100.52
208.037	-79.7
208.255	47.27
208.474	86.19
208.693	77.99
208.911	20.65
209.13	100.52
209.349	55.47
209.567	123.05
209.786	45.23
210.005	45.23
210.223	14.51
210.442	-94.04
210.661	106.67
210.879	149.67
211.098	-3.93
211.316	61.61
211.535	92.33
211.753	22.7
211.972	143.53
212.191	16.55
212.409	49.32
212.628	94.38
212.846	0.17
213.065	57.51
213.283	123.05
213.502	10.41
213.72	-1.88
213.938	-81.75
214.157	6.31
214.375	98.47
214.594	30.89
214.812	88.23
215.031	8.36
215.249	4.27
215.467	90.28
215.686	22.7
215.904	80.04
216.122	18.6
216.341	184.49
216.559	-16.21
216.778	59.56
216.996	192.68
217.214	-102.23
217.432	43.18
217.651	22.7
217.869	39.08
218.087	61.61
218.306	2.22
218.524	98.47
218.742	-5.97
218.96	180.39
219.179	-10.07
219.397	43.18
219.615	297.13
219.833	147.62
220.051	-12.12
220.27	47.27
220.488	116.9
220.706	73.9
220.924	-1.88
221.142	2.22
221.36	90.28
221.578	45.23
221.796	-1.88
222.015	34.99
222.233	-30.55
222.451	147.62
222.669	-8.02
222.887	51.37
223.105	14.51
223.323	45.23
223.541	-16.21
223.759	135.34
223.977	69.8
224.195	170.15
224.413	53.42
224.631	0.17
224.849	100.52
225.067	243.88
225.285	-5.97
225.503	49.32
225.721	-128.85
225.939	57.51
226.157	73.9
226.375	194.73
226.592	65.71
226.81	110.76
227.028	77.99
227.246	121
227.464	69.8
227.682	47.27
227.9	39.08
228.117	16.55
228.335	94.38
228.553	20.65
228.771	59.56
228.989	-28.5
229.206	84.14
229.424	18.6
229.642	-67.41
229.86	2.22
230.077	182.44
230.295	-30.55
230.513	71.85
230.731	-30.55
230.948	86.19
231.166	123.05
231.384	-28.5
231.601	-26.45
231.819	223.4
232.037	-24.4
232.254	-48.98
232.472	92.33
232.689	-36.69
232.907	114.86
233.125	6.31
233.342	10.41
233.56	-24.4
233.777	24.75
233.995	-38.74
234.213	96.43
234.43	147.62
234.648	-14.17
234.865	4.27
235.083	86.19
235.3	84.14
235.518	-12.12
235.735	190.63
235.953	118.95
236.17	67.75
236.388	43.18
236.605	28.84
236.822	45.23
237.04	116.9
237.257	37.03
237.475	-34.64
237.692	39.08
237.909	63.66
238.127	43.18
238.344	84.14
238.562	55.47
238.779	-16.21
238.996	-38.74
239.214	37.03
239.431	10.41
239.648	-22.36
239.865	61.61
240.083	61.61
240.3	39.08
240.517	18.6
240.735	22.7
240.952	133.29
241.169	102.57
241.386	137.38
241.603	14.51
241.821	18.6
242.038	69.8
242.255	133.29
242.472	-34.64
242.689	108.71
242.907	96.43
243.124	82.09
243.341	55.47
243.558	28.84
243.775	-22.36
243.992	-8.02
244.209	75.95
244.426	194.73
244.643	90.28
244.86	37.03
245.078	51.37
245.295	49.32
245.512	14.51
245.729	6.31
245.946	110.76
246.163	63.66
246.38	-55.12
246.597	92.33
246.814	45.23
247.031	69.8
247.248	14.51
247.464	71.85
247.681	116.9
247.898	88.23
248.115	18.6
248.332	-22.36
248.549	108.71
248.766	172.2
248.983	104.62
249.2	59.56
249.417	147.62
249.633	-26.45
249.85	45.23
250.067	14.51
250.284	67.75
250.501	77.99
250.717	114.86
250.934	90.28
251.151	57.51
251.368	41.13
251.585	82.09
251.801	-12.12
252.018	12.46
252.235	147.62
252.451	-46.93
252.668	30.89
252.885	82.09
253.102	51.37
253.318	-10.07
253.535	14.51
253.752	-48.98
253.968	-1.88
254.185	-69.46
254.401	114.86
254.618	110.76
254.835	-1.88
255.051	166.06
255.268	63.66
255.484	47.27
255.701	75.95
255.917	30.89
256.134	32.94
256.351	-53.08
256.567	-28.5
256.784	57.51
257	-116.56
257.217	170.15
257.433	47.27
257.65	20.65
257.866	153.77
258.082	-69.46
258.299	-57.17
258.515	57.51
258.732	30.89
258.948	-67.41
259.165	6.31
259.381	-14.17
259.597	30.89
259.814	51.37
260.03	-5.97
260.246	86.19
260.463	102.57
260.679	170.15
260.895	32.94
261.112	0.17
261.328	-55.12
261.544	43.18
261.761	151.72
261.977	-1.88
262.193	-34.64
262.409	37.03
262.626	22.7
262.842	71.85
263.058	-38.74
263.274	84.14
263.49	65.71
263.707	39.08
263.923	143.53
264.139	-34.64
264.355	-3.93
264.571	88.23
264.787	67.75
265.004	145.58
265.22	-1.88
265.436	-69.46
265.652	159.91
265.868	32.94
266.084	-51.03
266.3	69.8
266.516	-20.31
266.732	121
266.948	80.04
267.164	-8.02
267.38	110.76
267.596	114.86
267.812	141.48
268.028	14.51
268.244	-38.74
268.46	88.23
268.676	-8.02
268.892	80.04
269.108	-147.28
269.324	-77.65
269.54	-14.17
269.756	125.1
269.972	-48.98
270.188	32.94
270.403	-48.98
270.619	65.71
270.835	20.65
271.051	0.17
271.267	61.61
271.483	116.9
271.698	96.43
271.914	88.23
272.13	96.43
272.346	6.31
272.562	-10.07
272.777	108.71
272.993	-22.36
273.209	18.6
273.425	116.9
273.64	-38.74
273.856	129.19
274.072	22.7
274.287	14.51
274.503	164.01
274.719	153.77
274.934	34.99
275.15	-77.65
275.366	20.65
275.581	16.55
275.797	39.08
276.012	53.42
276.228	75.95
276.444	37.03
276.659	145.58
276.875	-65.36
277.09	-48.98
277.306	-32.6
277.521	61.61
277.737	28.84
277.952	84.14
278.168	16.55
278.383	-5.97
278.599	43.18
278.814	49.32
279.03	106.67
279.245	170.15
279.461	51.37
279.676	63.66
279.892	86.19
280.107	-67.41
280.322	-8.02
280.538	96.43
280.753	-71.51
280.969	73.9
281.184	-3.93
281.399	211.11
281.615	108.71
281.83	30.89
282.045	-59.22
282.26	4.27
282.476	69.8
282.691	88.23
282.906	57.51
283.122	34.99
283.337	2.22
283.552	51.37
283.767	-32.6
283.983	77.99
284.198	-5.97
284.413	110.76
284.628	47.27
284.843	71.85
285.058	22.7
285.274	-98.13
285.489	-32.6
285.704	104.62
285.919	-12.12
286.134	26.79
286.349	32.94
286.564	45.23
286.779	127.14
286.995	-28.5
287.21	-28.5
287.425	110.76
287.64	102.57
287.855	-3.93
288.07	-32.6
288.285	110.76
288.5	90.28
288.715	30.89
288.93	22.7
289.145	84.14
289.36	114.86
289.575	-3.93
289.79	168.1
290.004	26.79
290.219	106.67
290.434	47.27
290.649	-16.21
290.864	32.94
291.079	59.56
291.294	84.14
291.509	92.33
291.724	39.08
291.938	-77.65
292.153	65.71
292.368	90.28
292.583	2.22
292.798	116.9
293.012	24.75
293.227	6.31
293.442	22.7
293.657	153.77
293.871	108.71
294.086	71.85
294.301	233.64
294.516	82.09
294.73	135.34
294.945	-18.26
295.16	51.37
295.374	67.75
295.589	116.9
295.804	-34.64
296.018	6.31
296.233	123.05
296.447	34.99
296.662	-26.45
296.877	141.48
297.091	67.75
297.306	49.32
297.52	-18.26
297.735	55.47
297.949	30.89
298.164	61.61
298.378	106.67
298.593	-20.31
298.807	-12.12
299.022	69.8
299.236	153.77
299.451	92.33
299.665	2.22
299.88	75.95
300.094	116.9
300.309	18.6
300.523	104.62
300.737	-42.84
300.952	88.23
301.166	69.8
301.381	-26.45
301.595	-55.12
301.809	41.13
302.024	8.36
302.238	-24.4
302.452	159.91
302.667	61.61
302.881	57.51
303.095	82.09
303.309	45.23
303.524	37.03
303.738	30.89
303.952	-73.56
304.166	57.51
304.381	-34.64
304.595	133.29
304.809	-32.6
305.023	37.03
305.237	41.13
305.452	55.47
305.666	86.19
305.88	30.89
306.094	143.53
306.308	37.03
306.522	49.32
306.736	47.27
306.95	104.62
307.164	0.17
307.379	55.47
307.593	155.82
307.807	86.19
308.021	47.27
308.235	26.79
308.449	-34.64
308.663	26.79
308.877	194.73
309.091	102.57
309.305	121
309.519	-63.32
309.733	131.24
309.947	-34.64
310.161	45.23
310.374	-5.97
310.588	166.06
310.802	-55.12
311.016	10.41
311.23	77.99
311.444	-32.6
311.658	51.37
311.872	77.99
312.085	110.76
312.299	129.19
312.513	82.09
312.727	22.7
312.941	-14.17
313.154	86.19
313.368	94.38
313.582	45.23
313.796	18.6
314.009	-3.93
314.223	143.53
314.437	26.79
314.651	104.62
314.864	-20.31
315.078	129.19
315.292	-28.5
315.505	-85.84
315.719	104.62
315.933	16.55
316.146	-32.6
316.36	-42.84
316.573	80.04
316.787	84.14
317.001	147.62
317.214	-10.07
317.428	45.23
317.641	-26.45
317.855	-26.45
318.068	69.8
318.282	61.61
318.495	190.63
318.709	-24.4
318.922	55.47
319.136	104.62
319.349	141.48
319.563	104.62
319.776	127.14
319.99	-98.13
320.203	104.62
320.417	16.55
320.63	164.01
320.843	219.3
321.057	98.47
321.27	61.61
321.483	8.36
321.697	86.19
321.91	-5.97
322.124	69.8
322.337	47.27
322.55	20.65
322.763	84.14
322.977	-28.5
323.19	12.46
323.403	61.61
323.617	63.66
323.83	90.28
324.043	61.61
324.256	65.71
324.469	-65.36
324.683	94.38
324.896	34.99
325.109	14.51
325.322	-18.26
325.535	147.62
325.748	176.3
325.962	-24.4
326.175	18.6
326.388	47.27
326.601	192.68
326.814	34.99
327.027	51.37
327.24	127.14
327.453	-51.03
327.666	57.51
327.879	118.95
328.092	135.34
328.305	127.14
328.518	0.17
328.731	-14.17
328.944	0.17
329.157	92.33
329.37	114.86
329.583	223.4
329.796	139.43
330.009	-36.69
330.222	96.43
330.435	51.37
330.648	53.42
330.861	77.99
331.073	69.8
331.286	45.23
331.499	75.95
331.712	12.46
331.925	121
332.138	84.14
332.35	59.56
332.563	63.66
332.776	166.06
332.989	-71.51
333.202	41.13
333.414	59.56
333.627	-8.02
333.84	32.94
334.053	86.19
334.265	24.75
334.478	-5.97
334.691	47.27
334.903	67.75
335.116	-36.69
335.329	90.28
335.541	24.75
335.754	55.47
335.966	-14.17
336.179	-55.12
336.392	-5.97
336.604	22.7
336.817	57.51
337.029	90.28
337.242	73.9
337.454	71.85
337.667	0.17
337.88	192.68
338.092	100.52
338.305	63.66
338.517	61.61
338.729	118.95
338.942	90.28
339.154	30.89
339.367	-24.4
339.579	104.62
339.792	-40.79
340.004	98.47
340.217	-3.93
340.429	90.28
340.641	-38.74
340.854	-67.41
341.066	14.51
341.278	86.19
341.491	186.54
341.703	110.76
341.915	-3.93
342.128	110.76
342.34	73.9
342.552	-26.45
342.764	104.62
342.977	12.46
343.189	84.14
343.401	106.67
343.613	-108.37
343.826	22.7
344.038	-53.08
344.25	59.56
344.462	37.03
344.674	67.75
344.886	51.37
345.099	118.95
345.311	55.47
345.523	-22.36
345.735	-26.45
345.947	116.9
346.159	14.51
346.371	37.03
346.583	30.89
346.795	129.19
347.007	10.41
347.219	30.89
347.431	0.17
347.643	67.75
347.855	-40.79
348.067	174.25
348.279	-69.46
348.491	20.65
348.703	116.9
348.915	28.84
349.127	10.41
349.339	92.33
349.551	-10.07
349.763	43.18
349.975	8.36
350.187	22.7
350.399	106.67
350.61	116.9
350.822	-44.88
351.034	57.51
351.246	32.94
351.458	151.72
351.669	77.99
351.881	98.47
352.093	116.9
352.305	143.53
352.517	114.86
352.728	106.67
352.94	51.37
353.152	102.57
353.363	-40.79
353.575	133.29
353.787	258.21
353.999	104.62
354.21	159.91
354.422	-40.79
354.633	14.51
354.845	-26.45
355.057	65.71
355.268	104.62
355.48	116.9
355.692	-51.03
355.903	71.85
356.115	-59.22
356.326	-40.79
356.538	182.44
356.749	131.24
356.961	180.39
357.172	55.47
357.384	-42.84
357.595	233.64
357.807	51.37
358.018	-3.93
358.23	20.65
358.441	110.76
358.653	123.05
358.864	-20.31
359.075	12.46
359.287	129.19
359.498	110.76
359.709	118.95
359.921	84.14
360.132	90.28
360.344	57.51
360.555	32.94
360.766	30.89
360.977	30.89
361.189	51.37
361.4	20.65
361.611	133.29
361.823	6.31
362.034	22.7
362.245	0.17
362.456	-16.21
362.667	59.56
362.879	-18.26
363.09	45.23
363.301	69.8
363.512	-8.02
363.723	2.22
363.935	-5.97
364.146	104.62
364.357	47.27
364.568	53.42
364.779	-46.93
364.99	168.1
365.201	34.99
365.412	88.23
365.623	-79.7
365.834	71.85
366.045	92.33
366.256	53.42
366.467	39.08
366.678	121
366.889	77.99
367.1	4.27
367.311	96.43
367.522	43.18
367.733	43.18
367.944	71.85
368.155	55.47
368.366	108.71
368.577	104.62
368.788	213.16
368.999	-18.26
369.209	28.84
369.42	290.98
369.631	178.34
369.842	86.19
370.053	-3.93
370.264	82.09
370.474	-28.5
370.685	30.89
370.896	45.23
371.107	75.95
371.317	34.99
371.528	-44.88
371.739	69.8
371.95	77.99
372.16	110.76
372.371	6.31
372.582	59.56
372.792	65.71
373.003	20.65
373.214	41.13
373.424	100.52
373.635	-3.93
373.846	204.97
374.056	45.23
374.267	80.04
374.477	170.15
374.688	6.31
374.898	90.28
375.109	71.85
375.319	73.9
375.53	149.67
375.74	102.57
375.951	4.27
376.161	16.55
376.372	82.09
376.582	26.79
376.793	18.6
377.003	10.41
377.214	-28.5
377.424	112.81
377.635	45.23
377.845	47.27
378.055	157.86
378.266	-91.99
378.476	37.03
378.686	90.28
378.897	102.57
379.107	53.42
379.317	155.82
379.528	82.09
379.738	127.14
379.948	-87.89
380.158	170.15
380.369	80.04
380.579	102.57
380.789	41.13
380.999	100.52
381.21	108.71
381.42	274.6
381.63	26.79
381.84	116.9
382.05	69.8
382.261	153.77
382.471	145.58
382.681	-34.64
382.891	250.02
383.101	80.04
383.311	-32.6
383.521	55.47
383.731	118.95
383.941	49.32
384.151	14.51
384.361	-18.26
384.571	139.43
384.781	125.1
384.991	186.54
385.201	186.54
385.411	82.09
385.621	59.56
385.831	26.79
386.041	41.13
386.251	41.13
386.461	161.96
386.671	37.03
386.881	41.13
387.091	16.55
387.301	145.58
387.511	88.23
387.72	51.37
387.93	176.3
388.14	39.08
388.35	139.43
388.56	43.18
388.769	155.82
388.979	-10.07
389.189	14.51
389.399	39.08
389.609	100.52
389.818	96.43
390.028	51.37
390.238	47.27
390.447	2.22
390.657	90.28
390.867	0.17
391.076	-106.32
391.286	75.95
391.496	24.75
391.705	-10.07
391.915	94.38
392.125	75.95
392.334	14.51
392.544	204.97
392.753	24.75
392.963	-22.36
393.172	30.89
393.382	14.51
393.591	131.24
393.801	55.47
394.01	164.01
394.22	96.43
394.429	-14.17
394.639	0.17
394.848	106.67
395.058	51.37
395.267	0.17
395.477	73.9
395.686	164.01
395.895	198.82
396.105	237.74
396.314	75.95
396.524	71.85
396.733	75.95
396.942	98.47
397.152	86.19
397.361	170.15
397.57	108.71
397.78	41.13
397.989	135.34
398.198	168.1
398.407	26.79
398.617	0.17
398.826	47.27
399.035	51.37
399.244	88.23
399.453	39.08
399.663	28.84
399.872	67.75
400.081	-69.46
400.29	139.43
400.499	-40.79
400.708	174.25
400.917	-16.21
401.127	106.67
401.336	-22.36
401.545	258.21
401.754	104.62
401.963	178.34
402.172	34.99
402.381	-61.27
402.59	26.79
402.799	-18.26
403.008	110.76
403.217	43.18
403.426	37.03
403.635	45.23
403.844	10.41
404.053	-1.88
404.262	34.99
404.471	151.72
404.68	20.65
404.888	53.42
405.097	-1.88
405.306	90.28
405.515	129.19
405.724	67.75
405.933	155.82
406.142	6.31
406.35	112.81
406.559	32.94
406.768	80.04
406.977	178.34
407.185	39.08
407.394	57.51
407.603	34.99
407.812	51.37
408.02	192.68
408.229	82.09
408.438	71.85
408.646	-94.04
408.855	39.08
409.064	69.8
409.272	39.08
409.481	53.42
409.69	34.99
409.898	-3.93
410.107	102.57
410.315	49.32
410.524	-38.74
410.733	80.04
410.941	39.08
411.15	118.95
411.358	176.3
411.567	123.05
411.775	55.47
411.984	104.62
412.192	84.14
412.401	51.37
412.609	200.87
412.818	125.1
413.026	88.23
413.234	114.86
413.443	28.84
413.651	-12.12
413.86	6.31
414.068	213.16
414.276	157.86
414.485	-20.31
414.693	260.26
414.901	139.43
415.11	71.85
415.318	133.29
415.526	69.8
415.734	141.48
415.943	53.42
416.151	75.95
416.359	51.37
416.567	116.9
416.776	67.75
416.984	39.08
417.192	192.68
417.4	-18.26
417.608	127.14
417.817	-8.02
418.025	164.01
418.233	172.2
418.441	32.94
418.649	26.79
418.857	65.71
419.065	123.05
419.273	45.23
419.481	73.9
419.689	75.95
419.897	63.66
420.105	-67.41
420.313	141.48
420.521	188.58
420.729	121
420.937	-14.17
421.145	4.27
421.353	100.52
421.561	161.96
421.769	186.54
421.977	28.84
422.185	65.71
422.393	20.65
422.601	114.86
422.809	153.77
423.017	55.47
423.224	143.53
423.432	151.72
423.64	71.85
423.848	182.44
424.056	69.8
424.263	112.81
424.471	77.99
424.679	207.02
424.887	65.71
425.094	118.95
425.302	116.9
425.51	92.33
425.718	92.33
425.925	147.62
426.133	-8.02
426.341	219.3
426.548	88.23
426.756	63.66
426.964	125.1
427.171	59.56
427.379	82.09
427.586	102.57
427.794	118.95
428.001	157.86
428.209	164.01
428.417	190.63
428.624	164.01
428.832	141.48
429.039	73.9
429.247	133.29
429.454	151.72
429.662	217.26
429.869	250.02
430.076	200.87
430.284	247.97
430.491	313.51
430.699	217.26
430.906	266.41
431.114	164.01
431.321	166.06
431.528	190.63
431.736	110.76
431.943	180.39
432.15	192.68
432.358	194.73
432.565	299.17
432.772	30.89
432.979	188.58
433.187	135.34
433.394	196.78
433.601	223.4
433.808	229.54
434.016	270.5
434.223	379.04
434.43	239.78
434.637	241.83
434.844	346.28
435.052	219.3
435.259	364.71
435.466	317.61
435.673	305.32
435.88	311.46
436.087	446.63
436.294	387.24
436.501	397.48
436.708	258.21
436.915	442.53
437.122	415.91
437.329	374.95
437.537	506.02
437.743	448.68
437.95	583.84
438.157	520.35
438.364	469.16
438.571	522.4
438.778	542.88
438.985	544.93
439.192	551.07
439.399	579.75
439.606	630.95
439.813	639.14
440.02	762.02
440.227	802.97
440.433	680.1
440.64	733.34
440.847	610.47
441.054	743.58
441.261	862.37
441.467	831.65
441.674	825.5
441.881	819.36
442.088	766.11
442.294	991.39
442.501	970.91
442.708	977.05
442.914	932
443.121	1122.46
443.328	1061.02
443.534	1294.49
443.741	1183.9
443.948	1040.54
444.154	1210.52
444.361	1327.25
444.568	1360.02
444.774	1337.49
444.981	1261.72
445.187	1392.79
445.394	1548.44
445.6	1517.72
445.807	1738.9
446.013	1699.98
446.22	1706.13
446.426	1888.4
446.633	1869.97
446.839	2080.91
447.046	1892.49
447.252	2148.49
447.459	2164.87
447.665	2226.31
447.871	2332.81
448.078	2515.08
448.284	2529.41
448.491	2580.61
448.697	2611.33
448.903	2865.28
449.11	2852.99
449.316	2807.94
449.522	3049.6
449.728	3092.6
449.935	3305.59
450.141	3229.82
450.347	3481.72
450.553	3534.96
450.76	3686.51
450.966	3719.28
451.172	3860.59
451.378	3958.89
451.584	4049
451.791	4577.38
451.997	4644.96
452.203	4761.7
452.409	4927.58
452.615	5238.87
452.821	4989.02
453.027	5052.51
453.233	5638.23
453.44	5687.38
453.646	5666.9
453.852	6041.68
454.058	6398.03
454.264	6445.13
454.47	7045.18
454.676	7026.75
454.882	7559.22
455.088	7235.64
455.294	7575.61
455.5	8196.14
455.705	8585.26
455.911	8556.58
456.117	8945.7
456.323	9058.34
456.529	9177.12
456.735	10039.31
456.941	10319.89
457.147	10475.53
457.352	10842.12
457.558	11192.32
457.764	12062.71
457.97	12226.54
458.176	12613.61
458.381	13389.79
458.587	13639.64
458.793	14385.1
458.999	14424.01
459.204	16080.82
459.41	16752.56
459.616	16590.77
459.821	17330.08
460.027	17981.34
460.233	18823.05
460.438	19191.69
460.644	20029.31
460.85	20500.34
461.055	21018.47
461.261	22179.67
461.466	21507.94
461.672	22171.48
461.878	24803.12
462.083	24373.05
462.289	24958.77
462.494	25829.15
462.7	26038.05
462.905	26472.21
463.111	28507.9
463.316	29918.95
463.522	30478.04
463.727	31657.67
463.932	32614.07
464.138	33822.37
464.343	35040.92
464.549	35364.5
464.754	37613.16
464.959	38800.99
465.165	39011.93
465.37	38846.04
465.575	39218.77
465.781	41707.05
465.986	43071
466.191	42391.08
466.397	42880.54
466.602	41705.01
466.807	44011.02
467.012	44766.72
467.218	45424.12
467.423	45766.13
467.628	47240.67
467.833	49085.89
468.038	48303.56
468.244	47328.73
468.449	49515.96
468.654	48954.82
468.859	48799.17
469.064	49132.99
469.269	47906.26
469.474	48264.65
469.679	49462.71
469.885	48385.48
470.09	48684.48
470.295	48893.38
470.5	47879.63
470.705	48307.66
470.91	46560.74
471.115	46540.26
471.32	47257.05
471.525	46855.65
471.73	45489.65
471.935	45436.41
472.139	43697.68
472.344	44060.17
472.549	43222.55
472.754	42413.6
472.959	42087.98
473.164	40420.93
473.369	40046.15
473.574	40998.46
473.778	40375.87
473.983	39396.95
474.188	38714.97
474.393	36755.07
474.598	36857.46
474.802	35737.23
475.007	35769.99
475.212	35458.7
475.417	33715.88
475.621	33918.63
475.826	33255.09
476.031	32749.24
476.235	31637.19
476.44	31708.87
476.645	31059.66
476.849	30676.69
477.054	30389.98
477.259	29533.93
477.463	29654.76
477.668	28354.3
477.872	28569.33
478.077	28096.25
478.282	27328.27
478.486	26953.49
478.691	26666.77
478.895	26408.73
479.1	26322.71
479.304	26038.05
479.509	24923.95
479.713	25435.94
479.918	25186.09
480.122	24360.76
480.326	24899.37
480.531	24338.23
480.735	23965.5
480.94	23709.5
481.144	24391.48
481.348	23334.73
481.553	23469.89
481.757	22652.75
481.961	23050.06
482.166	23326.53
482.37	22724.43
482.574	22097.75
482.778	22439.76
482.983	22767.44
483.187	21958.49
483.391	22128.47
483.595	21606.24
483.8	21233.51
484.004	21391.2
484.208	21542.75
484.412	21135.21
484.616	20885.36
484.821	20625.26
485.025	19982.2
485.229	20070.26
485.433	19656.57
485.637	19429.25
485.841	19414.91
486.045	19412.87
486.249	19001.22
486.453	18427.79
486.657	18233.24
486.861	18106.26
487.065	17235.88
487.269	17612.7
487.473	16916.39
487.677	17182.63
487.881	17102.76
488.085	16267.19
488.289	16164.79
488.493	15867.83
488.697	15800.25
488.901	15333.31
489.105	15357.89
489.309	15050.69
489.512	14569.42
489.716	14323.66
489.92	14125.01
490.124	13739.99
490.328	13754.33
490.531	13146.08
490.735	12998.63
490.939	12967.91
491.143	12754.92
491.346	12517.36
491.55	12357.61
491.754	12265.46
491.958	11960.31
492.161	11745.27
492.365	11689.98
492.569	11141.12
492.772	11280.38
492.976	11038.72
493.18	11012.1
493.383	10786.82
493.587	10795.01
493.79	10840.07
493.994	10586.12
494.197	10477.58
494.401	10266.64
494.605	10022.93
494.808	10070.03
495.012	9926.68
495.215	10121.23
495.419	9748.5
495.622	9805.85
495.825	9789.46
496.029	9621.53
496.232	9830.42
496.436	9568.28
496.639	9660.44
496.843	9619.48
497.046	9541.66
497.249	9605.14
497.453	9762.84
497.656	9642.01
497.859	9644.06
498.063	9515.03
498.266	9852.95
498.469	9469.98
498.673	9496.6
498.876	9785.37
499.079	9637.91
499.282	9488.41
499.485	10067.99
499.689	9682.97
499.892	10102.8
500.095	10029.07
500.298	10113.04
500.501	9930.77
500.705	10301.45
500.908	10342.41
501.111	10455.05
501.314	10584.07
501.517	10387.47
501.72	10737.67
501.923	10577.93
502.126	10764.29
502.329	10999.81
502.532	10913.8
502.735	11087.87
502.938	11296.77
503.141	11362.3
503.344	11446.27
503.547	11763.7
503.75	11677.69
503.953	11970.55
504.156	12134.39
504.359	12376.05
504.562	12435.44
504.765	12691.43
504.968	12838.89
505.17	12883.94
505.373	13328.35
505.576	13471.71
505.779	13866.97
505.982	13785.05
506.185	13877.21
506.387	14393.3
506.59	14366.67
506.793	14809.03
506.996	14757.83
507.198	15380.42
507.401	15609.79
507.604	15951.8
507.807	16150.45
508.009	16588.72
508.212	16867.24
508.415	17162.15
508.617	17465.25
508.82	17880.99
509.022	18077.59
509.225	18937.74
509.428	19058.57
509.63	19246.98
509.833	19611.52
510.035	20500.34
510.238	20739.95
510.44	20694.89
510.643	21428.07
510.845	21761.89
511.048	22042.46
511.25	22986.57
511.453	22931.28
511.655	24530.74
511.858	24651.57
512.06	24958.77
512.262	25401.13
512.465	25784.1
512.667	26681.11
512.87	26992.4
513.072	27531.01
513.274	28526.33
513.477	28821.23
513.679	29499.11
513.881	30306.01
514.084	30619.35
514.286	31350.48
514.488	31887.04
514.69	32943.8
514.893	33644.2
515.095	33777.32
515.297	34926.23
515.499	35405.45
515.701	36572.8
515.904	36822.65
516.106	37760.62
516.308	38522.46
516.51	39075.41
516.712	39347.79
516.914	40732.22
517.116	41395.76
517.318	42012.2
517.52	42714.65
517.722	42806.81
517.925	44529.16
518.127	45301.24
518.329	45993.45
518.531	45927.92
518.733	46958.05
518.935	48043.47
519.136	48307.66
519.338	49548.73
519.54	49972.66
519.742	50720.16
519.944	51266.97
520.146	52268.43
520.348	52632.97
520.55	53024.13
520.752	54289.77
520.954	55151.97
521.155	54685.03
521.357	55917.91
521.559	56321.36
521.761	57537.85
521.963	57259.33
522.164	57752.89
522.366	58162.48
522.568	58996.01
522.77	59077.93
522.971	59710.75
523.173	59626.78
523.375	60337.43
523.576	60300.56
523.778	60304.66
523.98	61455.62
524.181	61242.63
524.383	61332.74
524.584	61717.76
524.786	61793.53
524.988	61889.79
525.189	62231.8
525.391	62082.3
525.592	62209.27
525.794	62340.34
525.995	62268.66
526.197	62059.77
526.398	61717.76
526.6	62063.86
526.801	62115.06
527.003	62070.01
527.204	61541.63
527.406	61828.35
527.607	61205.76
527.808	60919.05
528.01	60065.05
528.211	60091.67
528.412	60689.68
528.614	59700.51
528.815	59241.76
529.016	59239.71
529.218	58379.57
529.419	58363.18
529.62	57617.72
529.822	57036.1
530.023	56425.81
530.224	56368.46
530.425	55786.84
530.626	54832.49
530.828	54338.93
531.029	54496.62
531.23	53357.95
531.431	52782.47
531.632	52497.8
531.833	51948.95
532.035	51639.7
532.236	50492.84
532.437	50224.56
532.638	49456.57
532.839	48936.38
533.04	48321.99
533.241	47511
533.442	47863.25
533.643	46839.26
533.844	45862.38
534.045	45571.57
534.246	44396.04
534.447	44490.24
534.648	43707.92
534.849	43247.13
535.05	42100.26
535.251	42290.73
535.451	41070.14
535.652	40578.62
535.853	40523.33
536.054	40138.31
536.255	39536.21
536.456	38649.44
536.657	38610.53
536.857	37711.47
537.058	37004.92
537.259	36920.95
537.46	36476.54
537.66	35618.44
537.861	35880.58
538.062	34795.16
538.263	34723.48
538.463	33875.62
538.664	33498.8
538.865	33388.21
539.065	32868.02
539.266	32009.92
539.466	32270.01
539.667	31428.3
539.868	31340.24
540.068	30648.02
540.269	30256.86
540.469	30432.99
540.67	29812.45
540.87	29189.87
541.071	28972.78
541.271	28929.78
541.472	28454.65
541.672	28143.36
541.873	27627.27
542.073	27141.9
542.274	27389.7
542.474	26832.66
542.675	26425.11
542.875	26447.64
543.075	26036
543.276	25636.64
543.476	25362.22
543.676	25118.51
543.877	24768.3
544.077	24686.39
544.277	24389.43
544.478	23654.21
544.678	23752.51
544.878	23517
545.078	23295.82
545.279	22824.78
545.479	22820.69
545.679	22251.35
545.879	22101.85
546.079	22073.18
546.28	21710.69
546.48	21286.76
546.68	21514.08
546.88	21096.3
547.08	20629.36
547.28	20295.54
547.48	19738.49
547.68	19931
547.88	19535.74
548.081	19505.03
548.281	19040.14
548.481	18941.83
548.681	18947.98
548.881	18368.4
549.081	18595.73
549.28	17979.29
549.48	17717.15
549.68	17506.21
549.88	17502.11
550.08	17072.04
550.28	17039.27
550.48	16857
550.68	16521.13
550.88	15994.81
551.08	16023.48
551.279	15693.76
551.479	15388.61
551.679	15454.14
551.879	14960.58
552.079	14929.86
552.278	14557.13
552.478	14559.18
552.678	14276.56
552.878	14243.79
553.077	13664.22
553.277	13295.58
553.477	13596.64
553.676	13252.58
553.876	12851.17
554.076	12533.74
554.275	12595.18
554.475	12066.8
554.674	12599.27
554.874	11993.08
555.074	11614.2
555.273	11515.9
555.473	11681.78
555.672	11454.46
555.872	11042.82
556.071	10901.51
556.271	10723.34
556.47	10532.87
556.67	10297.36
556.869	10254.35
557.068	10074.13
557.268	9957.39
557.467	9580.57
557.667	9857.04
557.866	9256.99
558.065	9265.18
558.265	8947.75
558.464	8843.3
558.663	8882.21
558.863	8609.83
559.062	8624.17
559.261	8380.46
559.461	8468.52
559.66	8048.69
559.859	7850.03
560.058	8056.88
560.258	7821.36
560.457	7649.33
560.656	7645.24
560.855	7243.84
561.054	7239.74
561.253	7030.85
561.453	7039.04
561.652	7036.99
561.851	7016.51
562.05	6795.33
562.249	6666.31
562.448	6721.6
562.647	6326.35
562.846	6479.94
563.045	6230.09
563.244	6113.36
563.443	6053.97
563.642	5800.02
563.841	5961.81
564.04	5769.3
564.239	5863.51
564.438	5560.41
564.637	5447.77
564.836	5675.09
565.035	5417.05
565.234	5388.38
565.432	5238.87
565.631	5281.88
565.83	5240.92
566.029	4943.97
566.228	4925.54
566.427	4943.97
566.625	4776.03
566.824	4687.97
567.023	4681.83
567.222	4675.68
567.42	4513.89
567.619	4395.11
567.818	4495.46
568.016	4386.92
568.215	4212.84
568.414	4429.93
568.612	4184.17
568.811	4067.44
569.01	4122.73
569.208	4006
569.407	3942.51
569.605	3936.37
569.804	3750
570.002	3727.47
570.201	3690.61
570.4	3868.78
570.598	3561.59
570.797	3563.64
570.995	3586.16
571.193	3510.39
571.392	3352.7
571.59	3340.41
571.789	3309.69
571.987	3313.78
572.186	3360.89
572.384	3137.66
572.582	3172.47
572.781	3242.11
572.979	2984.06
573.177	2949.25
573.376	3010.68
573.574	2947.2
573.772	2789.5
573.971	2775.17
574.169	2818.18
574.367	2828.42
574.565	2670.72
574.763	2738.3
574.962	2590.85
575.16	2584.71
575.358	2476.16
575.556	2490.5
575.754	2412.68
575.952	2482.31
576.151	2482.31
576.349	2498.69
576.547	2265.22
576.745	2209.93
576.943	2332.81
577.141	2183.31
577.339	2070.67
577.537	2091.15
577.735	2261.13
577.933	2111.63
578.131	2054.28
578.329	2144.39
578.527	1923.21
578.725	1976.46
578.923	1892.49
579.121	1931.41
579.319	1792.14
579.516	1734.8
579.714	2130.06
579.912	1804.43
580.11	1636.5
580.308	1689.74
580.506	1607.83
580.704	1570.96
580.901	1546.39
581.099	1759.38
581.297	1640.59
581.495	1548.44
581.692	1620.11
581.89	1673.36
582.088	1441.94
582.285	1538.2
582.483	1480.85
582.681	1503.38
582.878	1386.65
583.076	1507.48
583.274	1364.12
583.471	1484.95
583.669	1349.78
583.866	1290.39
584.064	1212.57
584.262	1210.52
584.459	1206.42
584.657	1261.72
584.854	1235.1
585.052	1226.9
585.249	1265.82
585.447	1271.96
585.644	936.09
585.841	1226.9
586.039	1136.79
586.236	1181.85
586.434	1022.11
586.631	1048.73
586.828	1011.87
587.026	1116.31
587.223	972.96
587.42	1046.68
587.618	1038.49
587.815	1077.4
588.012	1056.92
588.21	827.55
588.407	1005.72
588.604	1101.98
588.801	901.28
588.999	938.14
589.196	975
589.393	899.23
589.59	852.13
589.787	944.28
589.984	958.62
590.182	905.37
590.379	751.78
590.576	942.24
590.773	862.37
590.97	850.08
591.167	850.08
591.364	936.09
591.561	860.32
591.758	997.53
591.955	1028.25
592.152	934.04
592.349	782.49
592.546	854.17
592.743	856.22
592.94	886.94
593.137	913.56
593.334	858.27
593.531	874.65
593.727	888.99
593.924	891.04
594.121	884.89
594.318	872.61
594.515	794.78
594.712	1034.39
594.908	956.57
595.105	809.12
595.302	981.15
595.499	1001.63
595.696	987.29
595.892	968.86
596.089	1050.78
596.286	825.5
596.482	1190.04
596.679	1120.41
596.876	1009.82
597.072	1165.46
597.269	1032.35
597.466	1159.32
597.662	1083.55
597.859	1116.31
598.055	1239.19
598.252	1364.12
598.448	1294.49
598.645	1400.98
598.841	1558.67
599.038	1650.83
599.234	1542.29
599.431	1568.91
599.627	1519.76
599.824	1757.33
600.02	1765.52
600.217	1792.14
600.413	1845.39
600.609	1876.11
600.806	2207.88
601.002	2218.12
601.198	2173.07
601.395	2361.48
601.591	2363.53
601.787	2398.34
601.984	2455.69
602.18	2644.1
602.376	2642.05
602.572	2799.74
602.769	3065.98
602.965	3035.26
603.161	3160.19
603.357	3094.65
603.553	3291.26
603.75	3285.11
603.946	3512.44
604.142	3606.64
604.338	3893.36
604.534	3862.64
604.73	3987.57
604.926	3956.85
605.122	4550.76
605.318	4434.02
605.514	4591.72
605.71	4855.9
605.906	4913.25
606.102	5138.52
606.298	5253.21
606.494	5404.76
606.69	5478.49
606.886	5724.24
607.082	5552.21
607.278	5808.21
607.474	6185.04
607.67	6277.19
607.866	6250.57
608.062	6742.08
608.257	6578.25
608.453	6938.69
608.649	7370.81
608.845	7354.43
609.041	7639.09
609.236	7729.2
609.432	8015.92
609.628	8202.29
609.824	8525.86
610.019	8527.91
610.215	8792.1
610.411	9029.66
610.606	9316.38
610.802	9611.29
610.998	9822.23
611.193	9975.83
611.389	10346.51
611.584	10772.49
611.78	10833.93
611.976	11157.5
612.171	11751.42
612.367	11905.01
612.562	11972.6
612.758	12306.41
612.953	12613.61
613.149	13103.07
613.344	13508.57
613.539	13887.45
613.735	14104.53
613.93	14768.07
614.126	14739.4
614.321	15441.86
614.517	15947.7
614.712	16043.96
614.907	16353.2
615.103	17029.03
615.298	17291.17
615.493	17958.81
615.688	18108.31
615.884	18986.89
616.079	18978.7
616.274	19615.62
616.47	19945.34
616.665	20795.25
616.86	21028.71
617.055	21600.1
617.25	22228.82
617.445	22832.97
617.641	22861.65
617.836	23996.22
618.031	24119.1
618.226	25261.87
618.421	25433.89
618.616	26552.09
618.811	26689.3
619.006	27649.8
619.201	27723.52
619.396	28935.92
619.591	29001.46
619.786	29806.31
619.981	30125.79
620.176	31461.07
620.371	31807.17
620.566	32718.52
620.761	32927.41
620.956	33797.8
621.151	33914.53
621.346	35290.77
621.541	35167.89
621.735	36923
621.93	36869.75
622.125	37711.47
622.32	38014.57
622.515	39145.05
622.709	39702.09
622.904	40605.25
623.099	40898.11
623.294	42069.54
623.488	42516
623.683	43449.88
623.878	43605.52
624.072	44756.48
624.267	45759.98
624.462	45592.05
624.656	46386.66
624.851	47623.64
625.046	47750.61
625.24	48909.76
625.435	48958.91
625.629	49892.79
625.824	50609.57
626.018	51170.72
626.213	50853.28
626.407	52174.22
626.602	52432.27
626.796	53294.46
626.991	53659
627.185	54218.1
627.38	53953.91
627.574	54455.66
627.768	54742.38
627.963	54869.35
628.157	55303.52
628.352	55840.09
628.546	55297.37
628.74	55946.58
628.935	55213.41
629.129	55594.33
629.323	54848.87
629.517	54885.73
629.712	54592.87
629.906	54474.09
630.1	53437.82
630.294	53732.73
630.489	52974.98
630.683	52700.55
630.877	51205.53
631.071	50564.52
631.265	50015.66
631.459	48727.49
631.653	47885.78
631.848	46953.95
632.042	45579.76
632.236	45426.17
632.43	43542.03
632.624	42823.2
632.818	41143.86
633.012	40027.72
633.206	39102.04
633.4	38192.74
633.594	36439.68
633.788	35210.9
633.982	34217.63
634.176	33267.38
634.369	31839.94
634.563	30457.56
634.757	28987.12
634.951	28655.35
635.145	27213.58
635.339	26240.79
635.533	25071.4
635.726	24305.46
635.92	22900.56
636.114	22280.02
636.308	21081.96
636.501	20830.06
636.695	19799.93
636.889	18691.98
637.083	17946.52
637.276	17463.2
637.47	16850.86
637.664	15929.27
637.857	15527.87
638.051	14792.65
638.244	14374.86
638.438	13653.98
638.632	13205.47
638.825	12576.75
639.019	12187.63
639.212	11464.7
639.406	11251.71
639.599	10616.84
639.793	10244.11
639.986	9955.35
640.18	9613.34
640.373	9087.01
640.567	8996.9
640.76	8673.32
640.954	8218.67
641.147	7731.25
641.34	7495.74
641.534	7393.34
641.727	6903.87
641.92	6862.91
642.114	6451.27
642.307	6328.39
642.5	5972.05
642.694	5615.7
642.887	5554.26
643.08	5394.52
643.273	5265.5
643.467	4773.99
643.66	4681.83
643.853	4431.98
644.046	4487.27
644.239	4214.89
644.432	4032.62
644.626	3795.06
644.819	3762.29
645.012	3620.98
645.205	3631.22
645.398	3453.05
645.591	3180.67
645.784	3057.79
645.977	2836.61
646.17	2932.86
646.363	2803.84
646.556	2713.73
646.749	2363.53
646.942	2457.73
647.135	2459.78
647.328	2310.28
647.521	2267.27
647.714	2109.58
647.907	2132.11
648.099	1978.51
648.292	1943.69
648.485	1829.01
648.678	1661.07
648.871	1659.03
649.064	1642.64
649.256	1542.29
649.449	1472.66
649.642	1360.02
649.835	1384.6
650.027	1392.79
650.22	1472.66
650.413	1339.54
650.605	1278.1
650.798	1187.99
650.991	1099.93
651.183	1173.66
651.376	1101.98
651.568	1038.49
651.761	938.14
651.954	960.67
652.146	970.91
652.339	1036.44
652.531	1028.25
652.724	843.93
652.916	809.12
653.109	645.28
653.301	821.41
653.494	821.41
653.686	743.58
653.879	895.13
654.071	747.68
654.263	632.99
654.456	721.06
654.648	802.97
654.84	637.09
655.033	557.22
655.225	651.42
655.417	454.82
655.61	655.52
655.802	635.04
655.994	575.65
656.186	471.2
656.379	575.65
656.571	491.68
656.763	469.16
656.955	399.52
657.148	444.58
657.34	481.44
657.532	399.52
657.724	297.13
657.916	469.16
658.108	522.4
658.3	401.57
658.492	452.77
658.684	356.52
658.876	510.11
659.068	336.04
659.26	192.68
659.452	282.79
659.644	370.85
659.836	524.45
660.028	379.04
660.22	309.41
660.412	366.76
660.604	301.22
660.796	276.65
660.988	360.61
661.18	319.65
661.372	317.61
661.563	254.12
661.755	307.37
661.947	233.64
662.139	264.36
662.331	207.02
662.522	211.11
662.714	262.31
662.906	207.02
663.097	262.31
663.289	204.97
663.481	127.14
663.673	311.46
663.864	221.35
664.056	323.75
664.247	159.91
664.439	250.02
664.631	290.98
664.822	223.4
665.014	227.5
665.205	227.5
665.397	223.4
665.588	178.34
665.78	170.15
665.971	180.39
666.163	170.15
666.354	217.26
666.546	207.02
666.737	184.49
666.929	182.44
667.12	118.95
667.311	258.21
667.503	108.71
667.694	192.68
667.885	227.5
668.077	143.53
668.268	61.61
668.459	141.48
668.651	219.3
668.842	190.63
669.033	153.77
669.224	94.38
669.416	372.9
669.607	153.77
669.798	116.9
669.989	342.18
670.18	194.73
670.371	239.78
670.563	86.19
670.754	237.74
670.945	155.82
671.136	190.63
671.327	123.05
671.518	278.69
671.709	276.65
671.9	227.5
672.091	266.41
672.282	209.06
672.473	186.54
672.664	116.9
672.855	182.44
673.046	149.67
673.237	225.45
673.428	147.62
673.619	274.6
673.809	98.47
674	381.09
674.191	186.54
674.382	194.73
674.573	133.29
674.764	159.91
674.954	239.78
675.145	204.97
675.336	153.77
675.527	192.68
675.717	166.06
675.908	168.1
676.099	127.14
676.289	245.93
676.48	96.43
676.671	157.86
676.861	174.25
677.052	186.54
677.243	178.34
677.433	71.85
677.624	256.17
677.814	200.87
678.005	172.2
678.195	311.46
678.386	125.1
678.576	256.17
678.767	219.3
678.957	219.3
679.148	311.46
679.338	340.13
679.529	196.78
679.719	164.01
679.909	295.08
680.1	274.6
680.29	319.65
680.481	237.74
680.671	280.74
680.861	252.07
681.052	297.13
681.242	219.3
681.432	235.69
681.622	301.22
681.813	100.52
682.003	192.68
682.193	178.34
682.383	219.3
682.573	225.45
682.764	262.31
682.954	233.64
683.144	223.4
683.334	245.93
683.524	256.17
683.714	278.69
683.904	286.89
684.094	309.41
684.284	297.13
684.474	276.65
684.664	311.46
684.854	225.45
685.044	239.78
685.234	250.02
685.424	180.39
685.614	207.02
685.804	417.96
685.994	268.45
686.184	282.79
686.374	209.06
686.564	221.35
686.753	233.64
686.943	172.2
687.133	151.72
687.323	204.97
687.513	276.65
687.702	204.97
687.892	260.26
688.082	301.22
688.272	280.74
688.461	219.3
688.651	370.85
688.841	372.9
689.03	323.75
689.22	290.98
689.41	315.56
689.599	211.11
689.789	239.78
689.979	387.24
690.168	278.69
690.358	333.99
690.547	284.84
690.737	299.17
690.926	274.6
691.116	325.8
691.305	401.57
691.495	268.45
691.684	188.58
691.874	276.65
692.063	225.45
692.252	338.09
692.442	250.02
692.631	182.44
692.82	270.5
693.01	340.13
693.199	200.87
693.388	252.07
693.578	172.2
693.767	262.31
693.956	225.45
694.146	227.5
694.335	305.32
694.524	213.16
694.713	346.28
694.902	239.78
695.092	129.19
695.281	317.61
695.47	252.07
695.659	252.07
695.848	243.88
696.037	192.68
696.226	270.5
696.415	280.74
696.604	362.66
696.793	204.97
696.982	145.58
697.171	387.24
697.36	192.68
697.549	284.84
697.738	47.27
697.927	211.11
698.116	180.39
698.305	280.74
698.494	207.02
698.683	229.54
698.872	333.99
699.061	194.73
699.25	133.29
699.438	166.06
699.627	176.3
699.816	282.79
700.005	112.81
700.193	141.48
700.382	264.36
700.571	272.55
700.76	213.16
700.948	288.93
701.137	340.13
701.326	252.07
701.514	168.1
701.703	262.31
701.892	200.87
702.08	430.24
702.269	168.1
702.457	161.96
702.646	270.5
702.834	282.79
703.023	313.51
703.212	338.09
703.4	270.5
703.589	237.74
703.777	221.35
703.965	133.29
704.154	104.62
704.342	219.3
704.531	129.19
704.719	133.29
704.907	250.02
705.096	166.06
705.284	155.82
705.472	229.54
705.661	233.64
705.849	211.11
706.037	350.37
706.226	262.31
706.414	243.88
706.602	116.9
706.79	241.83
706.979	217.26
707.167	227.5
707.355	231.59
707.543	270.5
707.731	155.82
707.919	262.31
708.107	121
708.296	166.06
708.484	57.51
708.672	235.69
708.86	280.74
709.048	276.65
709.236	186.54
709.424	209.06
709.612	221.35
709.8	37.03
709.988	254.12
710.176	311.46
710.364	323.75
710.551	213.16
710.739	176.3
710.927	180.39
711.115	256.17
711.303	235.69
711.491	258.21
711.679	178.34
711.866	223.4
712.054	190.63
712.242	231.59
712.43	323.75
712.617	252.07
712.805	272.55
712.993	209.06
713.181	102.57
713.368	293.03
713.556	243.88
713.744	149.67
713.931	403.62
714.119	254.12
714.306	172.2
714.494	223.4
714.682	231.59
714.869	77.99
715.057	215.21
715.244	108.71
715.432	266.41
715.619	180.39
715.807	149.67
715.994	157.86
716.182	198.82
716.369	346.28
716.556	188.58
716.744	88.23
716.931	209.06
717.119	317.61
717.306	196.78
717.493	286.89
717.681	227.5
717.868	250.02
718.055	272.55
718.242	213.16
718.43	288.93
718.617	284.84
718.804	254.12
718.991	239.78
719.179	204.97
719.366	239.78
719.553	235.69
719.74	342.18
719.927	284.84
720.114	237.74
720.301	243.88
720.488	180.39
720.676	157.86
720.863	315.56
721.05	336.04
721.237	239.78
721.424	366.76
721.611	317.61
721.798	182.44
721.985	172.2
722.172	274.6
722.358	211.11
722.545	295.08
722.732	352.42
722.919	346.28
723.106	348.33
723.293	256.17
723.48	260.26
723.667	290.98
723.853	387.24
724.04	286.89
724.227	379.04
724.414	243.88
724.6	352.42
724.787	432.29
724.974	401.57
725.161	278.69
725.347	204.97
725.534	315.56
725.72	258.21
725.907	377
726.094	372.9
726.28	215.21
726.467	262.31
726.653	188.58
726.84	352.42
727.027	446.63
727.213	237.74
727.4	278.69
727.586	331.94
727.773	262.31
727.959	288.93
728.145	317.61
728.332	282.79
728.518	239.78
728.705	321.7
728.891	321.7
729.077	270.5
729.264	295.08
729.45	278.69
729.636	333.99
729.823	305.32
730.009	346.28
730.195	362.66
730.382	247.97
730.568	207.02
730.754	198.82
730.94	254.12
731.126	331.94
731.313	235.69
731.499	278.69
731.685	393.38
731.871	307.37
732.057	422.05
732.243	290.98
732.429	288.93
732.615	475.3
732.801	327.85
732.987	286.89
733.173	280.74
733.359	258.21
733.545	346.28
733.731	295.08
733.917	407.72
734.103	344.23
734.289	329.89
734.475	166.06
734.661	460.96
734.847	293.03
735.033	280.74
735.219	395.43
735.404	213.16
735.59	268.45
735.776	233.64
735.962	280.74
736.148	303.27
736.333	374.95
736.519	303.27
736.705	282.79
736.89	323.75
737.076	338.09
737.262	323.75
737.447	260.26
737.633	350.37
737.819	381.09
738.004	323.75
738.19	336.04
738.375	268.45
738.561	315.56
738.747	426.15
738.932	215.21
739.118	434.34
739.303	426.15
739.489	301.22
739.674	260.26
739.859	262.31
740.045	237.74
740.23	250.02
740.416	125.1
740.601	319.65
740.786	260.26
740.972	221.35
741.157	264.36
741.342	278.69
741.528	256.17
741.713	323.75
741.898	254.12
742.084	336.04
742.269	211.11
742.454	342.18
742.639	323.75
742.824	344.23
743.01	381.09
743.195	333.99
743.38	254.12
743.565	284.84
743.75	188.58
743.935	362.66
744.12	370.85
744.305	278.69
744.49	219.3
744.675	274.6
744.86	258.21
745.045	293.03
745.23	264.36
745.415	288.93
745.6	333.99
745.785	229.54
745.97	340.13
746.155	250.02
746.34	305.32
746.525	258.21
746.71	395.43
746.895	223.4
747.079	145.58
747.264	288.93
747.449	293.03
747.634	360.61
747.819	258.21
748.003	241.83
748.188	186.54
748.373	338.09
748.557	299.17
748.742	280.74
748.927	252.07
749.111	221.35
749.296	174.25
749.481	260.26
749.665	256.17
749.85	135.34
750.034	295.08
750.219	303.27
750.404	200.87
750.588	301.22
750.773	104.62
750.957	243.88
751.141	188.58
751.326	243.88
751.51	166.06
751.695	233.64
751.879	254.12
752.064	274.6
752.248	266.41
752.432	377
752.617	352.42
752.801	268.45
752.985	190.63
753.17	297.13
753.354	149.67
753.538	247.97
753.722	174.25
753.907	170.15
754.091	147.62
754.275	211.11
754.459	168.1
754.643	141.48
754.828	227.5
755.012	243.88
755.196	133.29
755.38	204.97
755.564	157.86
755.748	256.17
755.932	137.38
756.116	290.98
756.3	204.97
756.484	164.01
756.668	250.02
756.852	6.31
757.036	145.58
757.22	161.96
757.404	149.67
757.588	123.05
757.772	204.97
757.956	192.68
758.14	331.94
758.323	235.69
758.507	245.93
758.691	145.58
758.875	125.1
759.059	278.69
759.242	106.67
759.426	225.45
759.61	129.19
759.794	84.14
759.977	264.36
760.161	342.18
760.345	282.79
760.528	247.97
760.712	202.92
760.895	239.78
761.079	43.18
761.263	110.76
761.446	108.71
761.63	194.73
761.813	231.59
761.997	43.18
762.18	125.1
762.364	243.88
762.547	32.94
762.731	143.53
762.914	186.54
763.098	65.71
763.281	176.3
763.464	80.04
763.648	143.53
763.831	61.61
764.015	127.14
764.198	153.77
764.381	135.34
764.564	100.52
764.748	141.48
764.931	141.48
765.114	80.04
765.297	209.06
765.481	116.9
765.664	121
765.847	98.47
766.03	209.06
766.213	59.56
766.397	110.76
766.58	10.41
766.763	243.88
766.946	43.18
767.129	118.95
767.312	43.18
767.495	92.33
767.678	90.28
767.861	121
768.044	96.43
768.227	86.19
768.41	129.19
768.593	86.19
768.776	157.86
768.959	106.67
769.142	164.01
769.324	100.52
769.507	96.43
769.69	69.8
769.873	39.08
770.056	159.91
770.239	104.62
770.421	207.02
770.604	125.1
770.787	102.57
770.97	137.38
771.152	96.43
771.335	127.14
771.518	75.95
771.7	149.67
771.883	202.92
772.066	45.23
772.248	116.9
772.431	198.82
772.613	180.39
772.796	114.86
772.978	127.14
773.161	198.82
773.343	51.37
773.526	67.75
773.708	-79.7
773.891	12.46
774.073	104.62
774.256	8.36
774.438	166.06
774.621	-36.69
774.803	133.29
774.985	108.71
775.168	77.99
775.35	110.76
775.532	73.9
775.715	22.7
775.897	159.91
776.079	45.23
776.261	55.47
776.444	37.03
776.626	53.42
776.808	49.32
776.99	-18.26
777.173	63.66
777.355	61.61
777.537	45.23
777.719	137.38
777.901	30.89
778.083	43.18
778.265	0.17
778.447	90.28
778.629	-26.45
778.811	69.8
778.993	32.94
779.175	104.62
779.357	12.46
779.539	-26.45
779.721	155.82
779.903	114.86
780.085	43.18
780.267	28.84
780.449	67.75
780.631	123.05
780.812	172.2
780.994	43.18
781.176	63.66
781.358	-3.93
781.54	34.99
781.721	121
781.903	112.81
782.085	45.23
782.267	110.76
782.448	-83.8
782.63	49.32
782.812	57.51
782.993	96.43
783.175	159.91
783.357	75.95
783.538	12.46
783.72	20.65
783.901	69.8
784.083	37.03
784.264	125.1
784.446	-30.55
784.627	-75.6
784.809	108.71
784.99	-24.4
785.172	84.14
785.353	-40.79
785.535	143.53
785.716	-24.4
785.897	45.23
786.079	80.04
786.26	6.31
786.441	92.33
786.623	-75.6
786.804	-38.74
786.985	80.04
787.167	77.99
787.348	26.79
787.529	0.17
787.71	196.78
787.891	73.9
788.073	4.27
788.254	-55.12
788.435	166.06
788.616	-12.12
788.797	32.94
788.978	-24.4
789.159	10.41
789.34	82.09
789.522	123.05
789.703	24.75
789.884	67.75
790.065	-14.17
790.246	102.57
790.427	24.75
790.607	190.63
790.788	67.75
790.969	-69.46
791.15	32.94
791.331	28.84
791.512	20.65
791.693	-53.08
791.874	-42.84
792.054	174.25
792.235	143.53
792.416	-28.5
792.597	-71.51
792.778	127.14
792.958	43.18
793.139	10.41
793.32	4.27
793.5	-34.64
793.681	84.14
793.862	16.55
794.042	24.75
794.223	-36.69
794.404	-73.56
794.584	-65.36
794.765	24.75
794.945	16.55
795.126	96.43
795.306	151.72
795.487	26.79
795.667	6.31
795.848	26.79
796.028	2.22
796.209	37.03
796.389	61.61
796.57	-34.64
796.75	12.46
796.93	-5.97
797.111	-1.88
797.291	6.31
797.471	30.89
797.652	24.75
797.832	-24.4
798.012	123.05
798.192	-16.21
798.373	-38.74
798.553	14.51
798.733	32.94
798.913	24.75
799.093	-44.88
799.274	55.47
799.454	80.04
799.634	53.42
799.814	96.43
799.994	28.84
800.174	8.36
800.354	-16.21
800.534	-102.23
800.714	53.42
800.894	-48.98
801.074	2.22
801.254	2.22
801.434	133.29
801.614	71.85
801.794	-10.07
801.974	1736.85
802.154	0.17
802.334	123.05
802.514	-73.56
802.693	-30.55
802.873	-96.08
803.053	34.99
803.233	43.18
803.413	-30.55
803.592	-5.97
803.772	-55.12
803.952	53.42
804.131	-139.09
804.311	47.27
804.491	100.52
804.67	34.99
804.85	-116.56
805.03	67.75
805.209	86.19
805.389	-40.79
805.568	-38.74
805.748	-32.6
805.928	-32.6
806.107	116.9
806.287	-12.12
806.466	112.81
806.646	2.22
806.825	34.99
807.004	-102.23
807.184	104.62
807.363	39.08
807.543	102.57
807.722	-63.32
807.901	63.66
808.081	94.38
808.26	-94.04
808.439	45.23
808.619	22.7
808.798	-8.02
808.977	26.79
809.156	69.8
809.336	22.7
809.515	86.19
809.694	-65.36
809.873	30.89
810.052	-5.97
810.231	102.57
810.411	18.6
810.59	118.95
810.769	-16.21
810.948	114.86
811.127	-106.32
811.306	6.31
811.485	-14.17
811.664	16.55
811.843	14.51
812.022	73.9
812.201	-5.97
812.38	20.65
812.559	14.51
812.737	121
812.916	-108.37
813.095	-28.5
813.274	63.66
813.453	34.99
813.632	92.33
813.811	77.99
813.989	-32.6
814.168	12.46
814.347	-32.6
814.526	-28.5
814.704	110.76
814.883	45.23
815.062	-87.89
815.24	6.31
815.419	-48.98
815.598	61.61
815.776	-46.93
815.955	-44.88
816.133	-112.47
816.312	20.65
816.49	-85.84
816.669	16.55
816.847	4.27
817.026	10.41
817.204	-30.55
817.383	-40.79
817.561	22.7
817.74	59.56
817.918	45.23
818.097	-10.07
818.275	-1.88
818.453	112.81
818.632	26.79
818.81	-10.07
818.988	0.17
819.167	-34.64
819.345	-20.31
819.523	-75.6
819.701	-24.4
819.879	-5.97
820.058	28.84
820.236	-40.79
820.414	2.22
820.592	-48.98
820.77	12.46
820.948	-30.55
821.127	0.17
821.305	49.32
821.483	-87.89
821.661	73.9
821.839	-55.12
822.017	-73.56
822.195	-28.5
822.373	102.57
822.551	-5.97
822.729	88.23
822.907	47.27
823.085	61.61
823.262	-18.26
823.44	-46.93
823.618	-12.12
823.796	16.55
823.974	37.03
824.152	-53.08
824.329	45.23
824.507	47.27
824.685	32.94
824.863	-32.6
825.04	-14.17
825.218	96.43
825.396	10.41
825.574	32.94
825.751	-46.93
825.929	24.75
826.107	-59.22
826.284	41.13
826.462	18.6
826.639	-12.12
826.817	-108.37
826.994	-34.64
827.172	-34.64
827.349	137.38
827.527	71.85
827.704	49.32
827.882	96.43
828.059	-3.93
828.237	-30.55
828.414	55.47
828.591	-89.94
828.769	-8.02
828.946	-51.03
829.124	82.09
829.301	30.89
829.478	-34.64
829.655	59.56
829.833	77.99
830.01	-61.27
830.187	-10.07
830.364	24.75
830.542	57.51
830.719	80.04
830.896	65.71
831.073	41.13
831.25	49.32
831.427	24.75
831.604	6.31
831.782	-75.6
831.959	18.6
832.136	55.47
832.313	8.36
832.49	16.55
832.667	45.23
832.844	-48.98
833.021	63.66
833.198	4.27
833.374	51.37
833.551	39.08
833.728	-28.5
833.905	61.61
834.082	-102.23
834.259	77.99
834.436	102.57
834.612	-36.69
834.789	96.43
834.966	6.31
835.143	63.66
835.319	-102.23
835.496	2.22
835.673	106.67
835.85	131.24
836.026	67.75
836.203	53.42
836.38	69.8
836.556	-10.07
836.733	-26.45
836.909	127.14
837.086	24.75
837.262	-22.36
837.439	-24.4
837.616	0.17
837.792	-24.4
837.968	-5.97
838.145	-57.17
838.321	-51.03
838.498	63.66
838.674	135.34
838.851	16.55
839.027	-98.13
839.203	-16.21
839.38	-18.26
839.556	-61.27
839.732	63.66
839.909	47.27
840.085	-5.97
840.261	-59.22
840.437	14.51
840.614	-63.32
840.79	69.8
840.966	-30.55
841.142	6.31
841.318	-132.95
841.494	43.18
841.671	67.75
841.847	-63.32
842.023	-77.65
842.199	-3.93
842.375	184.49
842.551	-87.89
842.727	-145.24
842.903	116.9
843.079	-30.55
843.255	86.19
843.431	4.27
843.607	26.79
843.783	-106.32
843.959	53.42
844.134	-8.02
844.31	77.99
844.486	-65.36
844.662	-44.88
844.838	-14.17
845.013	88.23
845.189	67.75
845.365	-16.21
845.541	43.18
845.716	-34.64
845.892	45.23
846.068	16.55
846.244	-59.22
846.419	30.89
846.595	10.41
846.77	-75.6
846.946	61.61
847.122	4.27
847.297	-67.41
847.473	100.52
847.648	-61.27
847.824	26.79
847.999	-81.75
848.175	-38.74
848.35	49.32
848.526	14.51
848.701	45.23
848.876	22.7
849.052	139.43
849.227	-5.97
849.403	10.41
849.578	18.6
849.753	75.95
849.929	-24.4
850.104	-26.45
850.279	55.47
850.454	-26.45
850.63	30.89
850.805	-69.46
850.98	16.55
851.155	-10.07
851.33	47.27
851.505	-120.66
851.681	59.56
851.856	-46.93
852.031	0.17
852.206	-42.84
852.381	-98.13
852.556	-14.17
852.731	12.46
852.906	39.08
853.081	-3.93
853.256	96.43
853.431	-22.36
853.606	22.7
853.781	-18.26
853.956	-106.32
854.131	-14.17
854.305	-67.41
854.48	-3.93
854.655	-75.6
854.83	47.27
855.005	28.84
855.18	-26.45
855.354	-79.7
855.529	-87.89
855.704	4.27
855.879	94.38
856.053	-71.51
856.228	43.18
856.403	-175.95
856.577	39.08
856.752	-28.5
856.926	98.47
857.101	-94.04
857.276	-132.95
857.45	53.42
857.625	61.61
857.799	28.84
857.974	-53.08
858.148	-124.76
858.323	-14.17
858.497	-48.98
858.672	-32.6
858.846	-48.98
859.02	43.18
859.195	-51.03
859.369	0.17
859.543	53.42
859.718	-10.07
859.892	-10.07
860.066	-44.88
860.241	-36.69
860.415	-16.21
860.589	12.46
860.763	16.55
860.938	-18.26
861.112	0.17
861.286	-26.45
861.46	8.36
861.634	-3.93
861.808	51.37
861.982	34.99
862.157	-79.7
862.331	73.9
862.505	-114.52
862.679	-171.86
862.853	-38.74
863.027	-3.93
863.201	104.62
863.375	-48.98
863.549	108.71
863.722	-22.36
863.896	88.23
864.07	-48.98
864.244	-8.02
864.418	67.75
864.592	63.66
864.766	16.55
864.939	-1.88
865.113	-30.55
865.287	127.14
865.461	-36.69
865.634	4.27
865.808	69.8
865.982	-30.55
866.156	-14.17
866.329	-18.26
866.503	-40.79
866.676	73.9
866.85	34.99
867.024	-38.74
867.197	63.66
867.371	49.32
867.544	-22.36
867.718	-10.07
867.891	47.27
868.065	-71.51
868.238	-30.55
868.412	110.76
868.585	-1.88
868.759	-48.98
868.932	-34.64
869.105	-91.99
869.279	-10.07
869.452	8.36
869.625	26.79
869.799	6.31
869.972	14.51
870.145	-22.36
870.319	149.67
870.492	-16.21
870.665	6.31
870.838	-40.79
871.011	-151.38
871.185	-26.45
871.358	-1.88
871.531	73.9
871.704	-63.32
871.877	45.23
872.05	-38.74
872.223	18.6
872.396	37.03
872.569	26.79
872.742	-94.04
872.915	-59.22
873.088	-14.17
873.261	-67.41
873.434	98.47
873.607	12.46
873.78	84.14
873.953	-55.12
874.126	41.13
874.299	147.62
874.471	-5.97
874.644	-36.69
874.817	6.31
874.99	77.99
875.163	-44.88
875.335	98.47
875.508	26.79
875.681	-28.5
875.853	-85.84
876.026	-91.99
876.199	77.99
876.371	32.94
876.544	-18.26
876.717	-20.31
876.889	-73.56
877.062	-36.69
877.234	-48.98
877.407	-44.88
877.579	-22.36
877.752	-3.93
877.924	24.75
878.097	43.18
878.269	4.27
878.442	22.7
878.614	32.94
878.786	63.66
878.959	-16.21
879.131	77.99
879.303	-139.09
879.476	-8.02
879.648	61.61
879.82	14.51
879.993	-67.41
880.165	10.41
880.337	-48.98
880.509	16.55
880.681	-124.76
880.854	-48.98
881.026	-24.4
881.198	141.48
881.37	-75.6
881.542	18.6
881.714	-46.93
881.886	-18.26
882.058	22.7
882.23	-34.64
882.402	-10.07
882.574	-30.55
882.746	39.08
882.918	22.7
883.09	77.99
883.262	12.46
883.434	41.13
883.606	-163.67
883.778	18.6
883.95	61.61
884.122	-26.45
884.293	47.27
884.465	24.75
884.637	75.95
884.809	-16.21
884.98	26.79
885.152	26.79
885.324	51.37
885.496	-14.17
885.667	-38.74
885.839	-46.93
886.011	102.57
886.182	28.84
886.354	69.8
886.525	18.6
886.697	55.47
886.869	-59.22
887.04	-20.31
887.212	51.37
887.383	133.29
887.555	41.13
887.726	-40.79
887.897	-30.55
888.069	14.51
888.24	67.75
888.412	32.94
888.583	4.27
888.754	47.27
888.926	-55.12
889.097	-110.42
889.268	-124.76
889.44	-1.88
889.611	-120.66
889.782	-34.64
889.953	-42.84
890.125	47.27
890.296	-34.64
890.467	-59.22
890.638	-65.36
890.809	10.41
890.98	-16.21
891.151	-18.26
891.323	53.42
891.494	65.71
891.665	-46.93
891.836	65.71
892.007	-30.55
892.178	30.89
892.349	16.55
892.52	-44.88
892.691	80.04
892.862	2.22
893.032	-118.61
893.203	-26.45
893.374	-1.88
893.545	71.85
893.716	-42.84
893.887	63.66
894.057	-55.12
894.228	-22.36
894.399	-26.45
894.57	59.56
894.74	18.6
894.911	-1.88
895.082	4.27
895.253	12.46
895.423	84.14
895.594	-79.7
895.764	0.17
895.935	-3.93
896.106	-1.88
896.276	-46.93
896.447	6.31
896.617	-20.31
896.788	-73.56
896.958	-61.27
897.129	-79.7
897.299	-67.41
897.47	125.1
897.64	34.99
897.81	-73.56
897.981	-24.4
898.151	-96.08
898.322	41.13
898.492	-53.08
898.662	-48.98
898.832	-61.27
899.003	-96.08
899.173	69.8
899.343	-137.04
899.513	-91.99
