Data from USB4F104151__151__11-04-25-338.txt Node

Date: Wed Feb 26 11:04:25 EST 2025
User: louis
Spectrometer: USB4F10415
Trigger mode: 4
Integration Time (sec): 1.000000E-1
Scans to average: 1
Electric dark correction enabled: true
Nonlinearity correction enabled: false
Boxcar width: 0
XAxis mode: Wavelengths
Number of Pixels in Spectrum: 3648
>>>>>Begin Spectral Data<<<<<
178.204	-435.71
178.424	-435.71
178.644	-435.71
178.864	-413.18
179.084	-439.8
179.304	0.51
179.524	-28.16
179.744	-28.16
179.964	84.48
180.184	18.94
180.404	12.8
180.624	29.18
180.844	-36.35
181.064	-89.6
181.283	2.56
181.503	-38.4
181.723	72.19
181.943	-81.41
182.163	166.4
182.383	10.75
182.602	57.86
182.822	137.73
183.042	78.33
183.262	-34.3
183.482	-73.21
183.701	-36.35
183.921	109.05
184.141	-58.88
184.361	57.86
184.58	76.29
184.8	102.91
185.02	8.7
185.239	168.45
185.459	-22.02
185.679	158.21
185.898	-56.83
186.118	35.33
186.338	217.6
186.557	82.43
186.777	-54.78
186.997	39.42
187.216	31.23
187.436	158.21
187.655	37.38
187.875	119.29
188.095	88.57
188.314	133.63
188.534	137.73
188.753	-85.5
188.973	121.34
189.192	156.16
189.412	37.38
189.631	70.14
189.851	27.14
190.07	219.64
190.29	37.38
190.509	10.75
190.729	135.68
190.948	88.57
191.168	274.94
191.387	57.86
191.607	51.71
191.826	113.15
192.045	59.9
192.265	39.42
192.484	-24.06
192.704	0.51
192.923	-112.13
193.142	170.49
193.362	102.91
193.581	154.11
193.8	45.57
194.02	98.81
194.239	43.52
194.458	201.21
194.678	-22.02
194.897	16.9
195.116	72.19
195.335	96.77
195.555	59.9
195.774	-11.78
195.993	162.3
196.212	119.29
196.432	18.94
196.651	-26.11
196.87	2.56
197.089	266.75
197.308	39.42
197.528	51.71
197.747	-15.87
197.966	66.05
198.185	164.35
198.404	31.23
198.623	82.43
198.842	141.82
199.062	53.76
199.281	31.23
199.5	41.47
199.719	74.24
199.938	82.43
200.157	14.85
200.376	68.09
200.595	104.96
200.814	98.81
201.033	31.23
201.252	104.96
201.471	43.52
201.69	88.57
201.909	57.86
202.128	133.63
202.347	53.76
202.566	27.14
202.785	-120.32
203.004	-17.92
203.223	231.93
203.442	80.38
203.661	-38.4
203.879	66.05
204.098	107.01
204.317	23.04
204.536	147.97
204.755	111.1
204.974	125.44
205.193	-24.06
205.411	150.01
205.63	102.91
205.849	109.05
206.068	88.57
206.287	31.23
206.505	154.11
206.724	39.42
206.943	18.94
207.162	10.75
207.381	184.83
207.599	43.52
207.818	16.9
208.037	23.04
208.255	-11.78
208.474	33.28
208.693	16.9
208.911	-26.11
209.13	160.25
209.349	53.76
209.567	109.05
209.786	86.53
210.005	117.25
210.223	39.42
210.442	-122.37
210.661	37.38
210.879	102.91
211.098	55.81
211.316	39.42
211.535	98.81
211.753	23.04
211.972	33.28
212.191	-24.06
212.409	12.8
212.628	104.96
212.846	-3.58
213.065	20.99
213.283	131.58
213.502	-1.54
213.72	145.92
213.938	100.86
214.157	25.09
214.375	70.14
214.594	-30.21
214.812	107.01
215.031	-7.68
215.249	57.86
215.467	25.09
215.686	61.95
215.904	33.28
216.122	70.14
216.341	127.49
216.559	70.14
216.778	51.71
216.996	162.3
217.214	43.52
217.432	-19.97
217.651	-28.16
217.869	16.9
218.087	68.09
218.306	53.76
218.524	61.95
218.742	20.99
218.96	59.9
219.179	16.9
219.397	51.71
219.615	221.69
219.833	70.14
220.051	2.56
220.27	10.75
220.488	107.01
220.706	92.67
220.924	-5.63
221.142	-1.54
221.36	178.69
221.578	113.15
221.796	-30.21
222.015	80.38
222.233	78.33
222.451	145.92
222.669	20.99
222.887	72.19
223.105	-40.45
223.323	33.28
223.541	-9.73
223.759	10.75
223.977	16.9
224.195	113.15
224.413	107.01
224.631	27.14
224.849	88.57
225.067	168.45
225.285	8.7
225.503	6.66
225.721	-48.64
225.939	0.51
226.157	53.76
226.375	254.46
226.592	20.99
226.81	10.75
227.028	135.68
227.246	193.02
227.464	45.57
227.682	84.48
227.9	104.96
228.117	66.05
228.335	152.06
228.553	14.85
228.771	35.33
228.989	76.29
229.206	147.97
229.424	16.9
229.642	37.38
229.86	-17.92
230.077	172.54
230.295	117.25
230.513	129.53
230.731	39.42
230.948	231.93
231.166	135.68
231.384	107.01
231.601	33.28
231.819	154.11
232.037	-71.17
232.254	-42.5
232.472	29.18
232.689	35.33
232.907	123.39
233.125	35.33
233.342	2.56
233.56	104.96
233.777	-9.73
233.995	55.81
234.213	70.14
234.43	-5.63
234.648	-46.59
234.865	25.09
235.083	12.8
235.3	12.8
235.518	82.43
235.735	92.67
235.953	127.49
236.17	43.52
236.388	53.76
236.605	109.05
236.822	94.72
237.04	139.77
237.257	162.3
237.475	-46.59
237.692	74.24
237.909	-3.58
238.127	-19.97
238.344	82.43
238.562	4.61
238.779	-42.5
238.996	-65.02
239.214	59.9
239.431	70.14
239.648	88.57
239.865	150.01
240.083	72.19
240.3	84.48
240.517	2.56
240.735	53.76
240.952	145.92
241.169	14.85
241.386	53.76
241.603	-19.97
241.821	47.62
242.038	51.71
242.255	49.66
242.472	0.51
242.689	76.29
242.907	59.9
243.124	45.57
243.341	31.23
243.558	25.09
243.775	51.71
243.992	-89.6
244.209	74.24
244.426	164.35
244.643	20.99
244.86	-28.16
245.078	59.9
245.295	-19.97
245.512	68.09
245.729	-42.5
245.946	88.57
246.163	100.86
246.38	25.09
246.597	70.14
246.814	72.19
247.031	47.62
247.248	49.66
247.464	78.33
247.681	76.29
247.898	59.9
248.115	100.86
248.332	-52.74
248.549	199.16
248.766	184.83
248.983	80.38
249.2	76.29
249.417	141.82
249.633	-7.68
249.85	33.28
250.067	37.38
250.284	37.38
250.501	68.09
250.717	111.1
250.934	-67.07
251.151	0.51
251.368	10.75
251.585	100.86
251.801	92.67
252.018	-36.35
252.235	94.72
252.451	-5.63
252.668	57.86
252.885	137.73
253.102	64
253.318	18.94
253.535	14.85
253.752	98.81
253.968	-11.78
254.185	-81.41
254.401	90.62
254.618	139.77
254.835	47.62
255.051	119.29
255.268	68.09
255.484	80.38
255.701	31.23
255.917	78.33
256.134	-56.83
256.351	16.9
256.567	-50.69
256.784	25.09
257	-60.93
257.217	47.62
257.433	119.29
257.65	68.09
257.866	213.5
258.082	-15.87
258.299	-19.97
258.515	111.1
258.732	102.91
258.948	-30.21
259.165	53.76
259.381	-142.85
259.597	-15.87
259.814	80.38
260.03	55.81
260.246	-38.4
260.463	141.82
260.679	145.92
260.895	49.66
261.112	68.09
261.328	90.62
261.544	14.85
261.761	182.78
261.977	4.61
262.193	-26.11
262.409	45.57
262.626	39.42
262.842	59.9
263.058	16.9
263.274	94.72
263.49	23.04
263.707	59.9
263.923	33.28
264.139	-69.12
264.355	-54.78
264.571	47.62
264.787	84.48
265.004	55.81
265.22	84.48
265.436	-36.35
265.652	-3.58
265.868	59.9
266.084	-19.97
266.3	31.23
266.516	23.04
266.732	45.57
266.948	39.42
267.164	119.29
267.38	4.61
267.596	37.38
267.812	145.92
268.028	43.52
268.244	6.66
268.46	74.24
268.676	53.76
268.892	111.1
269.108	-5.63
269.324	41.47
269.54	20.99
269.756	100.86
269.972	-9.73
270.188	4.61
270.403	16.9
270.619	80.38
270.835	59.9
271.051	35.33
271.267	2.56
271.483	10.75
271.698	80.38
271.914	88.57
272.13	49.66
272.346	-65.02
272.562	41.47
272.777	86.53
272.993	20.99
273.209	-5.63
273.425	111.1
273.64	-19.97
273.856	61.95
274.072	2.56
274.287	-26.11
274.503	55.81
274.719	80.38
274.934	98.81
275.15	-87.55
275.366	10.75
275.581	-52.74
275.797	92.67
276.012	16.9
276.228	-46.59
276.444	41.47
276.659	127.49
276.875	-32.26
277.09	39.42
277.306	-26.11
277.521	107.01
277.737	10.75
277.952	172.54
278.168	51.71
278.383	-19.97
278.599	-15.87
278.814	180.73
279.03	39.42
279.245	59.9
279.461	-3.58
279.676	107.01
279.892	-58.88
280.107	-1.54
280.322	-5.63
280.538	68.09
280.753	-46.59
280.969	109.05
281.184	2.56
281.399	160.25
281.615	125.44
281.83	123.39
282.045	-40.45
282.26	74.24
282.476	66.05
282.691	98.81
282.906	55.81
283.122	90.62
283.337	16.9
283.552	43.52
283.767	-44.54
283.983	115.2
284.198	35.33
284.413	61.95
284.628	-22.02
284.843	76.29
285.058	88.57
285.274	12.8
285.489	-19.97
285.704	49.66
285.919	37.38
286.134	35.33
286.349	20.99
286.564	25.09
286.779	107.01
286.995	27.14
287.21	-77.31
287.425	100.86
287.64	31.23
287.855	68.09
288.07	-46.59
288.285	113.15
288.5	166.4
288.715	-26.11
288.93	94.72
289.145	-11.78
289.36	113.15
289.575	57.86
289.79	211.45
290.004	-13.82
290.219	104.96
290.434	-40.45
290.649	-1.54
290.864	8.7
291.079	-38.4
291.294	84.48
291.509	76.29
291.724	31.23
291.938	20.99
292.153	70.14
292.368	57.86
292.583	125.44
292.798	115.2
293.012	39.42
293.227	102.91
293.442	-13.82
293.657	121.34
293.871	94.72
294.086	80.38
294.301	147.97
294.516	82.43
294.73	135.68
294.945	-13.82
295.16	18.94
295.374	113.15
295.589	96.77
295.804	61.95
296.018	18.94
296.233	154.11
296.447	70.14
296.662	53.76
296.877	113.15
297.091	78.33
297.306	102.91
297.52	35.33
297.735	94.72
297.949	29.18
298.164	51.71
298.378	31.23
298.593	12.8
298.807	-38.4
299.022	98.81
299.236	82.43
299.451	29.18
299.665	-28.16
299.88	55.81
300.094	20.99
300.309	14.85
300.523	76.29
300.737	6.66
300.952	86.53
301.166	127.49
301.381	27.14
301.595	-69.12
301.809	72.19
302.024	-30.21
302.238	-11.78
302.452	201.21
302.667	84.48
302.881	141.82
303.095	180.73
303.309	55.81
303.524	10.75
303.738	92.67
303.952	66.05
304.166	31.23
304.381	-87.55
304.595	174.59
304.809	14.85
305.023	-52.74
305.237	59.9
305.452	59.9
305.666	168.45
305.88	117.25
306.094	70.14
306.308	57.86
306.522	-19.97
306.736	150.01
306.95	166.4
307.164	35.33
307.379	57.86
307.593	219.64
307.807	133.63
308.021	84.48
308.235	84.48
308.449	-34.3
308.663	51.71
308.877	197.12
309.091	94.72
309.305	119.29
309.519	-81.41
309.733	117.25
309.947	-34.3
310.161	94.72
310.374	70.14
310.588	111.1
310.802	-40.45
311.016	0.51
311.23	47.62
311.444	68.09
311.658	16.9
311.872	133.63
312.085	113.15
312.299	111.1
312.513	129.53
312.727	-17.92
312.941	-40.45
313.154	16.9
313.368	109.05
313.582	53.76
313.796	25.09
314.009	-19.97
314.223	156.16
314.437	25.09
314.651	64
314.864	-17.92
315.078	-17.92
315.292	-71.17
315.505	14.85
315.719	41.47
315.933	12.8
316.146	27.14
316.36	-69.12
316.573	100.86
316.787	86.53
317.001	145.92
317.214	-3.58
317.428	119.29
317.641	-9.73
317.855	78.33
318.068	47.62
318.282	150.01
318.495	225.79
318.709	113.15
318.922	33.28
319.136	141.82
319.349	66.05
319.563	98.81
319.776	39.42
319.99	-77.31
320.203	68.09
320.417	94.72
320.63	104.96
320.843	215.55
321.057	59.9
321.27	-1.54
321.483	160.25
321.697	197.12
321.91	76.29
322.124	133.63
322.337	66.05
322.55	-22.02
322.763	31.23
322.977	-26.11
323.19	27.14
323.403	25.09
323.617	143.87
323.83	131.58
324.043	57.86
324.256	82.43
324.469	-24.06
324.683	109.05
324.896	18.94
325.109	119.29
325.322	-60.93
325.535	158.21
325.748	135.68
325.962	4.61
326.175	47.62
326.388	76.29
326.601	176.64
326.814	41.47
327.027	16.9
327.24	184.83
327.453	-62.98
327.666	117.25
327.879	88.57
328.092	164.35
328.305	109.05
328.518	-5.63
328.731	57.86
328.944	14.85
329.157	6.66
329.37	27.14
329.583	158.21
329.796	176.64
330.009	-67.07
330.222	119.29
330.435	170.49
330.648	55.81
330.861	64
331.073	80.38
331.286	84.48
331.499	53.76
331.712	-52.74
331.925	-32.26
332.138	6.66
332.35	107.01
332.563	-11.78
332.776	197.12
332.989	-17.92
333.202	-32.26
333.414	-26.11
333.627	39.42
333.84	59.9
334.053	76.29
334.265	-38.4
334.478	76.29
334.691	53.76
334.903	-15.87
335.116	-9.73
335.329	41.47
335.541	121.34
335.754	178.69
335.966	59.9
336.179	76.29
336.392	47.62
336.604	14.85
336.817	143.87
337.029	129.53
337.242	23.04
337.454	119.29
337.667	2.56
337.88	154.11
338.092	117.25
338.305	18.94
338.517	33.28
338.729	94.72
338.942	57.86
339.154	-60.93
339.367	-38.4
339.579	88.57
339.792	31.23
340.004	121.34
340.217	96.77
340.429	61.95
340.641	-50.69
340.854	29.18
341.066	29.18
341.278	113.15
341.491	238.08
341.703	53.76
341.915	74.24
342.128	176.64
342.34	55.81
342.552	-30.21
342.764	119.29
342.977	20.99
343.189	39.42
343.401	33.28
343.613	-54.78
343.826	68.09
344.038	-1.54
344.25	25.09
344.462	-28.16
344.674	68.09
344.886	61.95
345.099	78.33
345.311	68.09
345.523	61.95
345.735	-83.45
345.947	90.62
346.159	72.19
346.371	49.66
346.583	6.66
346.795	135.68
347.007	117.25
347.219	84.48
347.431	4.61
347.643	119.29
347.855	23.04
348.067	193.02
348.279	29.18
348.491	45.57
348.703	57.86
348.915	64
349.127	-48.64
349.339	6.66
349.551	66.05
349.763	82.43
349.975	88.57
350.187	80.38
350.399	123.39
350.61	51.71
350.822	66.05
351.034	16.9
351.246	41.47
351.458	117.25
351.669	31.23
351.881	78.33
352.093	180.73
352.305	113.15
352.517	39.42
352.728	119.29
352.94	31.23
353.152	76.29
353.363	4.61
353.575	102.91
353.787	143.87
353.999	37.38
354.21	109.05
354.422	10.75
354.633	-7.68
354.845	23.04
355.057	27.14
355.268	137.73
355.48	129.53
355.692	23.04
355.903	76.29
356.115	-13.82
356.326	-99.84
356.538	123.39
356.749	117.25
356.961	137.73
357.172	84.48
357.384	37.38
357.595	229.88
357.807	72.19
358.018	-19.97
358.23	16.9
358.441	119.29
358.653	78.33
358.864	86.53
359.075	-56.83
359.287	119.29
359.498	219.64
359.709	102.91
359.921	45.57
360.132	64
360.344	68.09
360.555	39.42
360.766	84.48
360.977	49.66
361.189	123.39
361.4	41.47
361.611	147.97
361.823	123.39
362.034	119.29
362.245	-46.59
362.456	68.09
362.667	61.95
362.879	-34.3
363.09	25.09
363.301	113.15
363.512	53.76
363.723	8.7
363.935	12.8
364.146	137.73
364.357	88.57
364.568	8.7
364.779	23.04
364.99	131.58
365.201	-38.4
365.412	72.19
365.623	-15.87
365.834	70.14
366.045	4.61
366.256	57.86
366.467	84.48
366.678	23.04
366.889	84.48
367.1	47.62
367.311	72.19
367.522	49.66
367.733	78.33
367.944	133.63
368.155	49.66
368.366	88.57
368.577	78.33
368.788	61.95
368.999	-5.63
369.209	16.9
369.42	229.88
369.631	174.59
369.842	107.01
370.053	-19.97
370.264	107.01
370.474	4.61
370.685	84.48
370.896	49.66
371.107	131.58
371.317	45.57
371.528	49.66
371.739	107.01
371.95	107.01
372.16	113.15
372.371	35.33
372.582	33.28
372.792	125.44
373.003	72.19
373.214	66.05
373.424	68.09
373.635	-11.78
373.846	213.5
374.056	94.72
374.267	47.62
374.477	170.49
374.688	-1.54
374.898	66.05
375.109	12.8
375.319	90.62
375.53	125.44
375.74	176.64
375.951	61.95
376.161	47.62
376.372	107.01
376.582	70.14
376.793	86.53
377.003	18.94
377.214	43.52
377.424	2.56
377.635	-11.78
377.845	61.95
378.055	225.79
378.266	8.7
378.476	0.51
378.686	80.38
378.897	107.01
379.107	27.14
379.317	14.85
379.528	33.28
379.738	102.91
379.948	-24.06
380.158	51.71
380.369	74.24
380.579	74.24
380.789	59.9
380.999	96.77
381.21	117.25
381.42	188.93
381.63	61.95
381.84	102.91
382.05	27.14
382.261	100.86
382.471	170.49
382.681	27.14
382.891	168.45
383.101	0.51
383.311	57.86
383.521	90.62
383.731	127.49
383.941	135.68
384.151	45.57
384.361	-5.63
384.571	45.57
384.781	76.29
384.991	178.69
385.201	190.97
385.411	94.72
385.621	131.58
385.831	104.96
386.041	145.92
386.251	49.66
386.461	100.86
386.671	-9.73
386.881	162.3
387.091	-3.58
387.301	137.73
387.511	98.81
387.72	18.94
387.93	152.06
388.14	-60.93
388.35	2.56
388.56	115.2
388.769	111.1
388.979	129.53
389.189	18.94
389.399	68.09
389.609	123.39
389.818	94.72
390.028	129.53
390.238	160.25
390.447	25.09
390.657	100.86
390.867	84.48
391.076	-65.02
391.286	123.39
391.496	-22.02
391.705	49.66
391.915	154.11
392.125	92.67
392.334	-38.4
392.544	115.2
392.753	37.38
392.963	-56.83
393.172	53.76
393.382	53.76
393.591	197.12
393.801	31.23
394.01	156.16
394.22	109.05
394.429	39.42
394.639	43.52
394.848	117.25
395.058	59.9
395.267	23.04
395.477	68.09
395.686	172.54
395.895	213.5
396.105	193.02
396.314	49.66
396.524	-15.87
396.733	41.47
396.942	109.05
397.152	129.53
397.361	137.73
397.57	78.33
397.78	117.25
397.989	104.96
398.198	193.02
398.407	115.2
398.617	141.82
398.826	53.76
399.035	-17.92
399.244	199.16
399.453	61.95
399.663	68.09
399.872	66.05
400.081	-52.74
400.29	178.69
400.499	-34.3
400.708	100.86
400.917	35.33
401.127	6.66
401.336	37.38
401.545	229.88
401.754	160.25
401.963	68.09
402.172	18.94
402.381	18.94
402.59	39.42
402.799	64
403.008	119.29
403.217	164.35
403.426	123.39
403.635	-42.5
403.844	33.28
404.053	-28.16
404.262	35.33
404.471	236.03
404.68	76.29
404.888	27.14
405.097	14.85
405.306	102.91
405.515	215.55
405.724	61.95
405.933	111.1
406.142	72.19
406.35	135.68
406.559	37.38
406.768	176.64
406.977	150.01
407.185	-5.63
407.394	88.57
407.603	47.62
407.812	59.9
408.02	184.83
408.229	-3.58
408.438	61.95
408.646	-9.73
408.855	43.52
409.064	137.73
409.272	123.39
409.481	53.76
409.69	-36.35
409.898	-5.63
410.107	41.47
410.315	82.43
410.524	-24.06
410.733	64
410.941	4.61
411.15	80.38
411.358	166.4
411.567	172.54
411.775	43.52
411.984	47.62
412.192	172.54
412.401	41.47
412.609	121.34
412.818	168.45
413.026	160.25
413.234	10.75
413.443	109.05
413.651	37.38
413.86	129.53
414.068	86.53
414.276	252.41
414.485	37.38
414.693	225.79
414.901	174.59
415.11	115.2
415.318	102.91
415.526	6.66
415.734	141.82
415.943	117.25
416.151	217.6
416.359	-5.63
416.567	98.81
416.776	66.05
416.984	43.52
417.192	244.22
417.4	31.23
417.608	53.76
417.817	68.09
418.025	236.03
418.233	207.36
418.441	-38.4
418.649	-60.93
418.857	33.28
419.065	168.45
419.273	4.61
419.481	74.24
419.689	100.86
419.897	0.51
420.105	25.09
420.313	119.29
420.521	182.78
420.729	178.69
420.937	72.19
421.145	4.61
421.353	154.11
421.561	145.92
421.769	59.9
421.977	96.77
422.185	203.26
422.393	35.33
422.601	113.15
422.809	111.1
423.017	27.14
423.224	164.35
423.432	121.34
423.64	98.81
423.848	203.26
424.056	39.42
424.263	129.53
424.471	57.86
424.679	107.01
424.887	39.42
425.094	102.91
425.302	143.87
425.51	59.9
425.718	154.11
425.925	104.96
426.133	51.71
426.341	231.93
426.548	66.05
426.756	70.14
426.964	74.24
427.171	-3.58
427.379	117.25
427.586	104.96
427.794	152.06
428.001	107.01
428.209	197.12
428.417	205.31
428.624	199.16
428.832	111.1
429.039	117.25
429.247	88.57
429.454	193.02
429.662	137.73
429.869	115.2
430.076	80.38
430.284	129.53
430.491	205.31
430.699	113.15
430.906	295.42
431.114	236.03
431.321	158.21
431.528	141.82
431.736	160.25
431.943	170.49
432.15	203.26
432.358	221.69
432.565	313.85
432.772	119.29
432.979	238.08
433.187	158.21
433.394	180.73
433.601	166.4
433.808	238.08
434.016	274.94
434.223	213.5
434.43	205.31
434.637	330.23
434.844	354.81
435.052	270.84
435.259	291.32
435.466	246.27
435.673	266.75
435.88	264.7
436.087	389.63
436.294	418.3
436.501	320
436.708	307.71
436.915	395.77
437.122	414.2
437.329	283.13
437.537	346.62
437.743	401.91
437.95	446.97
438.157	465.4
438.364	379.39
438.571	481.78
438.778	494.07
438.985	406.01
439.192	553.46
439.399	543.22
439.606	549.37
439.813	561.66
440.02	682.49
440.227	717.3
440.433	508.41
440.64	621.05
440.847	616.95
441.054	655.86
441.261	840.18
441.467	756.21
441.674	635.38
441.881	719.35
442.088	754.16
442.294	807.41
442.501	795.12
442.708	829.94
442.914	864.75
443.121	999.92
443.328	952.82
443.534	1022.45
443.741	952.82
443.948	870.9
444.154	1147.37
444.361	1315.31
444.568	1092.08
444.774	1126.89
444.981	1112.56
445.187	1321.45
445.394	1245.68
445.6	1163.76
445.807	1452.52
446.013	1395.18
446.22	1309.16
446.426	1624.55
446.633	1571.3
446.839	1765.86
447.046	1591.78
447.252	1931.75
447.459	1835.49
447.665	1708.52
447.871	2120.16
448.078	2103.78
448.284	2159.07
448.491	2144.74
448.697	2376.16
448.903	2431.45
449.11	2398.68
449.316	2408.92
449.522	2634.2
449.728	2632.15
449.935	2818.52
450.141	2701.78
450.347	2822.61
450.553	2845.14
450.76	3017.17
450.966	3240.4
451.172	3320.27
451.378	3426.76
451.584	3547.59
451.791	3832.26
451.997	3938.76
452.203	4000.19
452.409	4194.75
452.615	4313.53
452.821	4155.84
453.027	4225.47
453.233	4759.99
453.44	4667.83
453.646	4831.67
453.852	5112.24
454.058	5343.66
454.264	5548.46
454.47	5708.2
454.676	5884.33
454.882	6422.94
455.088	6076.84
455.294	6486.43
455.5	6797.72
455.705	7328.14
455.911	7170.45
456.117	7451.02
456.323	7735.69
456.529	7616.91
456.735	8225.15
456.941	8610.17
457.147	8999.29
457.352	9185.65
457.558	9425.26
457.764	10172.77
457.97	10475.87
458.176	10652
458.381	11383.12
458.587	11450.71
458.793	12114.25
458.999	12038.47
459.204	13549.87
459.41	13984.04
459.616	13777.2
459.821	14465.32
460.027	15227.16
460.233	15941.9
460.438	15956.24
460.644	17008.89
460.85	17096.96
461.055	17619.19
461.261	18374.89
461.466	17866.99
461.672	18782.43
461.878	20697.28
462.083	20265.16
462.289	20932.8
462.494	21868.72
462.7	21778.61
462.905	22210.73
463.111	24141.97
463.316	25094.27
463.522	25434.24
463.727	26191.98
463.932	27416.67
464.138	28373.07
464.343	29235.27
464.549	29509.69
464.754	31649.82
464.959	32569.36
465.165	33153.03
465.37	32651.28
465.575	32794.64
465.781	34916.33
465.986	36069.34
466.191	35532.77
466.397	35950.56
466.602	35147.75
466.807	37003.21
467.012	37324.74
467.218	38145.98
467.423	38426.55
467.628	39135.15
467.833	41586.57
468.038	40429.46
468.244	39485.35
468.449	41531.27
468.654	40656.79
468.859	40843.15
469.064	40644.5
469.269	39544.74
469.474	40308.63
469.679	41248.65
469.885	39880.61
470.09	40497.05
470.295	40499.09
470.5	39903.14
470.705	39931.81
470.91	39157.67
471.115	38408.12
471.32	39364.52
471.525	38696.88
471.73	37803.97
471.935	37375.94
472.139	36018.14
472.344	36190.17
472.549	36138.97
472.754	35065.83
472.959	34349.04
473.164	33347.59
473.369	32505.87
473.574	33622.01
473.778	33038.34
473.983	32485.39
474.188	31914.01
474.393	30117.94
474.598	30287.92
474.802	29270.08
475.007	29245.51
475.212	28854.34
475.417	27668.57
475.621	27633.75
475.826	27316.32
476.031	26247.28
476.235	26087.54
476.44	25895.03
476.645	25186.43
476.849	25245.82
477.054	24535.18
477.259	23971.99
477.463	24043.67
477.668	23220.38
477.872	23488.67
478.077	22943.91
478.282	22339.76
478.486	21938.35
478.691	21725.36
478.895	21373.11
479.1	21514.42
479.304	21262.52
479.509	20185.29
479.713	20699.33
479.918	20226.25
480.122	19804.37
480.326	19882.19
480.531	20125.9
480.735	19773.65
480.94	19355.86
481.144	20173
481.348	18817.25
481.553	19015.9
481.757	18338.02
481.961	18792.67
482.166	18825.44
482.37	18536.68
482.574	18241.77
482.778	18036.97
482.983	18340.07
483.187	18184.43
483.391	17901.81
483.595	17559.8
483.8	17371.38
484.004	17680.63
484.208	17383.67
484.412	17051.9
484.616	16978.17
484.821	16646.4
485.025	16103.69
485.229	16304.39
485.433	15999.24
485.637	16261.38
485.841	15778.06
486.045	15417.62
486.249	15337.75
486.453	15118.62
486.657	14840.09
486.861	14651.68
487.065	14289.19
487.269	14229.8
487.473	13840.68
487.677	13953.32
487.881	13660.46
488.085	13390.13
488.289	13197.62
488.493	12675.39
488.697	12675.39
488.901	12589.38
489.105	12218.69
489.309	11999.56
489.512	12091.72
489.716	11540.82
489.92	11647.31
490.124	11290.96
490.328	11383.12
490.531	10873.18
490.735	10627.42
490.939	10436.96
491.143	10324.32
491.346	9959.78
491.55	10283.36
491.754	9836.91
491.958	9548.14
492.161	9505.13
492.365	9535.85
492.569	9290.1
492.772	9322.87
492.976	9165.17
493.18	9046.39
493.383	8943.99
493.587	8710.52
493.79	8892.79
493.994	8575.36
494.197	8475.01
494.401	8395.14
494.605	8268.16
494.808	8163.72
495.012	8268.16
495.215	8352.13
495.419	8182.15
495.622	7893.38
495.825	7850.38
496.029	7868.81
496.232	8010.12
496.436	7915.91
496.639	8034.69
496.843	7833.99
497.046	8038.79
497.249	8104.32
497.453	7858.57
497.656	7846.28
497.859	7874.95
498.063	7983.49
498.266	8008.07
498.469	7985.54
498.673	7938.44
498.876	8030.6
499.079	8135.04
499.282	8065.41
499.485	8167.81
499.689	8493.44
499.892	8388.99
500.095	8276.35
500.298	8456.57
500.501	8511.87
500.705	8604.03
500.908	8589.69
501.111	8702.33
501.314	9025.91
501.517	9068.92
501.72	8950.14
501.923	8909.18
502.126	9394.54
502.329	9431.41
502.532	9259.38
502.735	9363.83
502.938	9775.47
503.141	9814.38
503.344	9806.19
503.547	9912.68
503.75	10013.03
503.953	10291.55
504.156	10559.84
504.359	10568.03
504.562	10641.76
504.765	10856.79
504.968	11112.79
505.17	11106.65
505.373	11282.77
505.576	11827.53
505.779	11903.31
505.982	12063.05
506.185	12097.86
506.387	12466.5
506.59	12652.86
506.793	12925.24
506.996	12996.92
507.198	13564.21
507.401	13707.57
507.604	13852.97
507.807	14321.96
508.009	14534.95
508.212	14633.25
508.415	14836
508.617	14950.68
508.82	15796.49
509.022	15681.81
509.225	16457.99
509.428	16560.39
509.63	17070.33
509.833	17127.67
510.035	17914.09
510.238	17674.48
510.44	18528.49
510.643	19028.19
510.845	19226.84
511.048	19368.15
511.25	20383.94
511.453	20500.68
511.655	21610.68
511.858	21498.04
512.06	22399.15
512.262	22390.95
512.465	22784.16
512.667	23472.28
512.87	23869.59
513.072	24344.72
513.274	24973.44
513.477	25489.53
513.679	26155.12
513.881	26550.38
514.084	27467.87
514.286	27541.6
514.488	28489.81
514.69	29622.33
514.893	29716.54
515.095	30277.68
515.297	30836.78
515.499	31500.32
515.701	32245.78
515.904	33105.93
516.106	34007.03
516.308	34283.51
516.51	35147.75
516.712	35528.67
516.914	36349.91
517.116	37263.3
517.318	37713.86
517.52	38447.03
517.722	38991.79
517.925	39694.24
518.127	40515.48
518.329	41152.4
518.531	41498.5
518.733	42788.72
518.935	43057.01
519.136	43589.48
519.338	44676.95
519.54	45125.46
519.742	45672.26
519.944	46278.46
520.146	47468.33
520.348	47810.34
520.55	48027.43
520.752	48107.3
520.954	49303.31
521.155	49952.52
521.357	50317.06
521.559	50874.1
521.761	51844.84
521.963	52154.08
522.164	52203.24
522.366	52612.83
522.568	53423.82
522.77	53274.32
522.971	54609.6
523.173	53839.56
523.375	54851.26
523.576	54601.41
523.778	54744.76
523.98	55412.4
524.181	55715.5
524.383	56241.83
524.584	56088.23
524.786	55946.92
524.988	55676.59
525.189	56546.98
525.391	56268.45
525.592	56594.08
525.794	56673.95
525.995	56215.21
526.197	56301.22
526.398	56194.73
526.6	55862.96
526.801	55998.12
527.003	55969.45
527.204	55600.82
527.406	55660.21
527.607	55019.19
527.808	55539.38
528.01	54339.27
528.211	54466.24
528.412	54695.61
528.614	54032.07
528.815	53907.15
529.016	53890.76
529.218	52737.76
529.419	52072.17
529.62	52152.04
529.822	51525.36
530.023	51027.7
530.224	50448.13
530.425	50482.94
530.626	48983.83
530.828	48461.6
531.029	48946.97
531.23	48170.78
531.431	47511.34
531.632	47374.13
531.833	46329.66
532.035	46063.43
532.236	45487.95
532.437	45440.84
532.638	44244.83
532.839	44097.38
533.04	43376.49
533.241	42317.69
533.442	42649.46
533.643	41815.94
533.844	41271.18
534.045	40769.43
534.246	39892.9
534.447	39602.08
534.648	38981.55
534.849	38277.05
535.05	37603.27
535.251	37937.09
535.451	37078.99
535.652	36485.08
535.853	35706.85
536.054	35629.02
536.255	35256.29
536.456	34363.38
536.657	34373.62
536.857	33476.61
537.058	32927.75
537.259	32716.81
537.46	32415.76
537.66	31950.87
537.861	31389.73
538.062	30695.47
538.263	30642.22
538.463	29888.57
538.664	29798.46
538.865	29421.63
539.065	28934.21
539.266	28285.01
539.466	28633.16
539.667	27650.14
539.868	28153.94
540.068	27877.46
540.269	26919.01
540.469	26904.68
540.67	26617.96
540.87	26228.85
541.071	26022
541.271	25624.7
541.472	25260.16
541.672	24701.06
541.873	24586.38
542.073	23986.32
542.274	24178.83
542.474	23711.89
542.675	23416.99
542.875	23335.07
543.075	23068.83
543.276	22689.96
543.476	22640.81
543.676	22333.61
543.877	21999.79
544.077	21756.08
544.277	21446.84
544.478	21176.51
544.678	21094.59
544.878	20805.83
545.078	20662.47
545.279	20406.47
545.479	19945.68
545.679	19935.44
545.879	19495.13
546.079	19488.98
546.28	18882.78
546.48	18993.37
546.68	18643.17
546.88	18295.02
547.08	18178.28
547.28	18198.76
547.48	17469.69
547.68	17395.96
547.88	17074.43
548.081	17311.99
548.281	16879.87
548.481	16810.24
548.681	16607.49
548.881	16324.87
549.081	16275.72
549.28	15798.54
549.48	15943.95
549.68	15485.2
549.88	15401.24
550.08	15116.57
550.28	15046.94
550.48	14792.99
550.68	14475.56
550.88	14233.89
551.08	14022.95
551.279	13736.24
551.479	13570.35
551.679	13437.23
551.879	12970.3
552.079	13121.85
552.278	12869.95
552.478	12679.49
552.678	12626.24
552.878	12355.91
553.077	12165.45
553.277	11749.71
553.477	11880.78
553.676	11608.4
553.876	11213.14
554.076	11123.03
554.275	11073.88
554.475	10881.37
554.674	10688.86
554.874	10445.15
555.074	10324.32
555.273	10240.36
555.473	10127.72
555.672	9718.12
555.872	9746.8
556.071	9636.2
556.271	9519.47
556.47	9220.47
556.67	8991.09
556.869	9013.62
557.068	8786.3
557.268	8352.13
557.467	8362.37
557.667	8569.21
557.866	8307.07
558.065	8003.97
558.265	7895.43
558.464	7915.91
558.663	7711.11
558.863	7420.3
559.062	7547.28
559.261	7190.93
559.461	7278.99
559.66	6971.8
559.859	6947.22
560.058	6840.73
560.258	6625.69
560.457	6599.07
560.656	6830.49
560.855	6392.22
561.054	6560.16
561.253	6246.82
561.453	6283.68
561.652	6164.9
561.851	6074.79
562.05	5863.85
562.249	5890.47
562.448	5728.68
562.647	5521.84
562.846	5474.73
563.045	5704.1
563.244	5398.96
563.443	5417.39
563.642	5147.06
563.841	5202.35
564.04	5159.35
564.239	5116.34
564.438	4739.51
564.637	4792.76
564.836	4977.08
565.035	4749.75
565.234	4700.6
565.432	4686.26
565.631	4557.24
565.83	4463.04
566.029	4299.2
566.228	4254.14
566.427	4284.86
566.625	4157.89
566.824	3987.91
567.023	4161.98
567.222	3926.47
567.42	3846.6
567.619	4084.16
567.818	3908.04
568.016	3852.74
568.215	3805.64
568.414	3783.11
568.612	3740.1
568.811	3588.55
569.01	3576.27
569.208	3525.07
569.407	3498.44
569.605	3535.31
569.804	3449.29
570.002	3387.85
570.201	3162.58
570.4	3193.3
570.598	3133.9
570.797	3043.79
570.995	2970.07
571.193	3031.51
571.392	3000.79
571.59	2722.26
571.789	2863.57
571.987	2888.15
572.186	2963.92
572.384	2654.68
572.582	2765.27
572.781	2716.12
572.979	2601.43
573.177	2548.19
573.376	2546.14
573.574	2566.62
573.772	2531.8
573.971	2456.03
574.169	2341.34
574.367	2396.64
574.565	2300.38
574.763	2284
574.962	2355.68
575.16	2230.75
575.358	2214.37
575.556	2189.79
575.754	2097.63
575.952	2054.62
576.151	2062.82
576.349	2144.74
576.547	1845.73
576.745	2079.2
576.943	1923.55
577.141	1901.03
577.339	1726.95
577.537	1958.37
577.735	1917.41
577.933	1812.96
578.131	1681.89
578.329	1841.64
578.527	1724.9
578.725	1782.24
578.923	1690.09
579.121	1704.42
579.319	1479.15
579.516	1628.65
579.714	1776.1
579.912	1559.02
580.11	1378.79
580.308	1526.25
580.506	1446.38
580.704	1300.97
580.901	1362.41
581.099	1440.23
581.297	1352.17
581.495	1378.79
581.692	1335.79
581.89	1386.99
582.088	1341.93
582.285	1247.72
582.483	1266.16
582.681	1233.39
582.878	1249.77
583.076	1305.07
583.274	1241.58
583.471	1319.4
583.669	1163.76
583.866	1047.02
584.064	1124.85
584.262	991.73
584.459	1079.79
584.657	1034.74
584.854	1096.18
585.052	1116.65
585.249	1036.78
585.447	1077.74
585.644	844.28
585.841	1006.06
586.039	1069.55
586.236	1014.26
586.434	870.9
586.631	991.73
586.828	1016.3
587.026	938.48
587.223	846.32
587.42	797.17
587.618	950.77
587.815	934.39
588.012	844.28
588.21	911.86
588.407	911.86
588.604	866.8
588.801	768.5
588.999	819.7
589.196	975.35
589.393	793.08
589.59	791.03
589.787	788.98
589.984	846.32
590.182	799.22
590.379	619
590.576	788.98
590.773	684.53
590.97	776.69
591.167	752.12
591.364	807.41
591.561	676.34
591.758	844.28
591.955	745.97
592.152	827.89
592.349	596.47
592.546	731.64
592.743	653.81
592.94	752.12
593.137	762.36
593.334	776.69
593.531	788.98
593.727	784.88
593.924	760.31
594.121	692.73
594.318	698.87
594.515	772.6
594.712	920.05
594.908	899.57
595.105	649.72
595.302	801.27
595.499	825.84
595.696	1012.21
595.892	793.08
596.089	889.33
596.286	879.09
596.482	963.06
596.679	834.04
596.876	885.23
597.072	983.54
597.269	915.95
597.466	1075.7
597.662	965.11
597.859	999.92
598.055	1001.97
598.252	1098.22
598.448	1331.69
598.645	1217.01
598.841	1149.42
599.038	1300.97
599.234	1317.36
599.431	1507.82
599.627	1434.09
599.824	1436.14
600.02	1421.8
600.217	1501.67
600.413	1518.06
600.609	1667.56
600.806	1937.89
601.002	1751.53
601.198	1839.59
601.395	1921.51
601.591	1941.99
601.787	2146.78
601.984	2181.6
602.18	2302.43
602.376	2251.23
602.572	2486.75
602.769	2638.3
602.965	2509.27
603.161	2761.17
603.357	2750.93
603.553	2865.62
603.75	2806.23
603.946	2984.4
604.142	3203.54
604.338	3226.06
604.534	3267.02
604.73	3365.32
604.926	3488.2
605.122	3662.28
605.318	3668.42
605.514	3856.84
605.71	3877.32
605.906	4059.59
606.102	4213.18
606.298	4469.18
606.494	4405.69
606.69	4651.45
606.886	4692.41
607.082	4788.66
607.278	5046.71
607.474	4913.59
607.67	5063.09
607.866	5280.18
608.062	5562.8
608.257	5673.39
608.453	5800.36
608.649	5986.72
608.845	6160.8
609.041	6214.05
609.236	6594.97
609.432	6611.36
609.628	6936.98
609.824	6963.61
610.019	7127.44
610.215	7225.75
610.411	7659.92
610.606	7717.26
610.802	7846.28
610.998	8235.39
611.193	8427.9
611.389	8313.22
611.584	8862.07
611.78	8778.11
611.976	8991.09
612.171	9683.31
612.367	9556.33
612.562	9965.93
612.758	10092.9
612.953	10279.27
613.149	10799.45
613.344	10965.34
613.539	11211.09
613.735	11610.45
613.93	11958.6
614.126	12153.16
614.321	12718.4
614.517	12898.62
614.712	13220.15
614.907	13435.19
615.103	13852.97
615.298	14033.19
615.493	14487.84
615.688	14725.41
615.884	15589.65
616.079	15528.21
616.274	16226.57
616.47	16292.1
616.665	16849.15
616.86	17139.96
617.055	17527.03
617.25	18139.37
617.445	18807.01
617.641	18862.3
617.836	19544.28
618.031	19800.27
618.226	20631.75
618.421	20893.89
618.616	21465.27
618.811	21731.51
619.006	22354.09
619.201	22509.74
619.396	23634.07
619.591	23523.48
619.786	24651.91
619.981	24461.45
620.176	25342.08
620.371	25512.06
620.566	26247.28
620.761	26839.14
620.956	27766.87
621.151	27875.41
621.346	28452.94
621.541	28678.22
621.735	29540.41
621.93	29624.38
622.125	30619.69
622.32	30527.53
622.515	31754.27
622.709	32083.99
622.904	32897.03
623.099	33607.68
623.294	33869.82
623.488	34244.6
623.683	34646
623.878	35225.57
624.072	36255.7
624.267	36610
624.462	37009.36
624.656	37111.75
624.851	38461.37
625.046	38381.49
625.24	39067.56
625.435	39481.25
625.629	40109.98
625.824	40611.73
626.018	41097.1
626.213	40718.23
626.407	41924.48
626.602	41613.19
626.796	42735.48
626.991	43216.75
627.185	43306.86
627.38	43771.75
627.574	43642.73
627.768	43818.85
627.963	44115.81
628.157	43865.95
628.352	44650.33
628.546	43554.66
628.74	44359.52
628.935	43599.72
629.129	43847.52
629.323	42915.7
629.517	42839.92
629.712	42960.75
629.906	42553.21
630.1	41815.94
630.294	41639.81
630.489	40773.52
630.683	40826.77
630.877	39436.2
631.071	38946.73
631.265	38426.55
631.459	37693.38
631.653	36390.87
631.848	35788.77
632.042	34936.81
632.236	34211.83
632.43	32741.39
632.624	32047.13
632.818	31049.77
633.012	30322.74
633.206	29007.94
633.4	28350.54
633.594	27037.8
633.788	26353.77
633.982	25499.77
634.176	24782.98
634.369	23326.88
634.563	22323.37
634.757	21764.28
634.951	20879.55
635.145	20324.55
635.339	19261.66
635.533	18596.07
635.726	17799.41
635.92	16953.6
636.114	16365.83
636.308	15819.02
636.501	15188.25
636.695	14639.39
636.889	13707.57
637.083	13351.22
637.276	12812.6
637.47	12337.48
637.664	11518.29
637.857	11096.41
638.051	10824.03
638.244	10363.23
638.438	9892.2
638.632	9423.22
638.825	9075.06
639.019	8735.1
639.212	8427.9
639.406	8184.2
639.599	7817.61
639.793	7621
639.986	7166.35
640.18	6914.45
640.373	6662.55
640.567	6404.51
640.76	6115.75
640.954	5829.03
641.147	5675.43
641.34	5253.55
641.534	5370.29
641.727	5120.43
641.92	4923.83
642.114	4778.42
642.307	4604.35
642.5	4438.46
642.694	4049.35
642.887	3901.89
643.08	3979.72
643.273	3815.88
643.467	3531.21
643.66	3463.63
643.853	3238.35
644.046	3158.48
644.239	3062.23
644.432	2949.59
644.626	2822.61
644.819	2709.97
645.012	2628.06
645.205	2585.05
645.398	2568.66
645.591	2329.05
645.784	2116.06
645.977	2071.01
646.17	2021.86
646.363	1901.03
646.556	1698.28
646.749	1845.73
646.942	1837.54
647.135	1718.76
647.328	1657.32
647.521	1737.19
647.714	1415.66
647.907	1429.99
648.099	1307.12
648.292	1389.03
648.485	1393.13
648.678	1294.83
648.871	1137.13
649.064	1278.44
649.256	1057.26
649.449	1055.22
649.642	977.39
649.835	926.19
650.027	864.75
650.22	1040.88
650.413	803.32
650.605	952.82
650.798	795.12
650.991	827.89
651.183	817.65
651.376	782.84
651.568	838.13
651.761	700.92
651.954	729.59
652.146	651.77
652.339	690.68
652.531	690.68
652.724	573.94
652.916	598.52
653.109	481.78
653.301	631.29
653.494	743.92
653.686	569.85
653.879	561.66
654.071	547.32
654.263	526.84
654.456	375.29
654.648	569.85
654.84	461.3
655.033	461.3
655.225	547.32
655.417	338.43
655.61	487.93
655.802	418.3
655.994	526.84
656.186	336.38
656.379	412.15
656.571	340.47
656.763	360.95
656.955	295.42
657.148	422.39
657.34	383.48
657.532	371.19
657.724	416.25
657.916	391.67
658.108	436.73
658.3	395.77
658.492	297.47
658.684	199.16
658.876	338.43
659.068	141.82
659.26	172.54
659.452	209.4
659.644	266.75
659.836	365.05
660.028	221.69
660.22	229.88
660.412	270.84
660.604	190.97
660.796	242.17
660.988	363
661.18	215.55
661.372	305.66
661.563	186.88
661.755	215.55
661.947	147.97
662.139	111.1
662.331	274.94
662.522	190.97
662.714	135.68
662.906	109.05
663.097	160.25
663.289	195.07
663.481	70.14
663.673	180.73
663.864	154.11
664.056	252.41
664.247	186.88
664.439	238.08
664.631	217.6
664.822	301.56
665.014	172.54
665.205	94.72
665.397	141.82
665.588	117.25
665.78	150.01
665.971	221.69
666.163	135.68
666.354	168.45
666.546	39.42
666.737	129.53
666.929	96.77
667.12	64
667.311	180.73
667.503	160.25
667.694	184.83
667.885	150.01
668.077	176.64
668.268	86.53
668.459	115.2
668.651	172.54
668.842	199.16
669.033	102.91
669.224	-30.21
669.416	268.8
669.607	-9.73
669.798	20.99
669.989	156.16
670.18	41.47
670.371	193.02
670.563	86.53
670.754	172.54
670.945	88.57
671.136	240.12
671.327	98.81
671.518	219.64
671.709	213.5
671.9	168.45
672.091	205.31
672.282	168.45
672.473	188.93
672.664	127.49
672.855	76.29
673.046	176.64
673.237	207.36
673.428	133.63
673.619	270.84
673.809	113.15
674	186.88
674.191	160.25
674.382	145.92
674.573	104.96
674.764	170.49
674.954	193.02
675.145	76.29
675.336	131.58
675.527	156.16
675.717	139.77
675.908	104.96
676.099	117.25
676.289	156.16
676.48	27.14
676.671	92.67
676.861	51.71
677.052	147.97
677.243	143.87
677.433	78.33
677.624	242.17
677.814	127.49
678.005	154.11
678.195	309.76
678.386	100.86
678.576	117.25
678.767	76.29
678.957	53.76
679.148	135.68
679.338	287.23
679.529	104.96
679.719	123.39
679.909	145.92
680.1	213.5
680.29	154.11
680.481	90.62
680.671	195.07
680.861	221.69
681.052	180.73
681.242	35.33
681.432	209.4
681.622	135.68
681.813	-11.78
682.003	158.21
682.193	74.24
682.383	111.1
682.573	135.68
682.764	98.81
682.954	127.49
683.144	225.79
683.334	119.29
683.524	145.92
683.714	133.63
683.904	184.83
684.094	158.21
684.284	102.91
684.474	246.27
684.664	254.46
684.854	129.53
685.044	154.11
685.234	152.06
685.424	152.06
685.614	102.91
685.804	379.39
685.994	182.78
686.184	135.68
686.374	117.25
686.564	250.36
686.753	45.57
686.943	145.92
687.133	88.57
687.323	107.01
687.513	195.07
687.702	236.03
687.892	172.54
688.082	270.84
688.272	176.64
688.461	199.16
688.651	332.28
688.841	233.98
689.03	125.44
689.22	141.82
689.41	256.51
689.599	164.35
689.789	135.68
689.979	295.42
690.168	102.91
690.358	150.01
690.547	186.88
690.737	229.88
690.926	225.79
691.116	190.97
691.305	297.47
691.495	217.6
691.684	160.25
691.874	117.25
692.063	137.73
692.252	190.97
692.442	166.4
692.631	72.19
692.82	166.4
693.01	135.68
693.199	137.73
693.388	178.69
693.578	160.25
693.767	188.93
693.956	209.4
694.146	168.45
694.335	201.21
694.524	98.81
694.713	221.69
694.902	141.82
695.092	51.71
695.281	164.35
695.47	129.53
695.659	84.48
695.848	199.16
696.037	70.14
696.226	254.46
696.415	174.59
696.604	211.45
696.793	244.22
696.982	86.53
697.171	295.42
697.36	131.58
697.549	266.75
697.738	25.09
697.927	174.59
698.116	125.44
698.305	246.27
698.494	96.77
698.683	115.2
698.872	231.93
699.061	205.31
699.25	133.63
699.438	201.21
699.627	123.39
699.816	207.36
700.005	92.67
700.193	78.33
700.382	195.07
700.571	217.6
700.76	180.73
700.948	131.58
701.137	242.17
701.326	170.49
701.514	61.95
701.703	231.93
701.892	203.26
702.08	317.95
702.269	207.36
702.457	90.62
702.646	205.31
702.834	195.07
703.023	135.68
703.212	256.51
703.4	139.77
703.589	107.01
703.777	127.49
703.965	184.83
704.154	209.4
704.342	47.62
704.531	158.21
704.719	166.4
704.907	240.12
705.096	31.23
705.284	66.05
705.472	238.08
705.661	68.09
705.849	201.21
706.037	180.73
706.226	145.92
706.414	168.45
706.602	131.58
706.79	258.56
706.979	139.77
707.167	172.54
707.355	68.09
707.543	215.55
707.731	127.49
707.919	150.01
708.107	64
708.296	111.1
708.484	68.09
708.672	193.02
708.86	98.81
709.048	135.68
709.236	127.49
709.424	205.31
709.612	141.82
709.8	96.77
709.988	127.49
710.176	158.21
710.364	209.4
710.551	174.59
710.739	147.97
710.927	104.96
711.115	164.35
711.303	199.16
711.491	260.6
711.679	115.2
711.866	207.36
712.054	231.93
712.242	213.5
712.43	244.22
712.617	178.69
712.805	305.66
712.993	190.97
713.181	47.62
713.368	246.27
713.556	197.12
713.744	160.25
713.931	322.04
714.119	248.32
714.306	156.16
714.494	143.87
714.682	188.93
714.869	141.82
715.057	184.83
715.244	92.67
715.432	201.21
715.619	70.14
715.807	147.97
715.994	119.29
716.182	117.25
716.369	236.03
716.556	199.16
716.744	88.57
716.931	117.25
717.119	152.06
717.306	205.31
717.493	162.3
717.681	113.15
717.868	111.1
718.055	201.21
718.242	156.16
718.43	227.84
718.617	260.6
718.804	117.25
718.991	307.71
719.179	168.45
719.366	205.31
719.553	170.49
719.74	244.22
719.927	184.83
720.114	176.64
720.301	33.28
720.488	125.44
720.676	186.88
720.863	272.89
721.05	276.99
721.237	256.51
721.424	281.08
721.611	236.03
721.798	88.57
721.985	199.16
722.172	213.5
722.358	193.02
722.545	215.55
722.732	199.16
722.919	242.17
723.106	221.69
723.293	104.96
723.48	107.01
723.667	154.11
723.853	283.13
724.04	213.5
724.227	182.78
724.414	145.92
724.6	152.06
724.787	268.8
724.974	350.71
725.161	162.3
725.347	170.49
725.534	225.79
725.72	248.32
725.907	309.76
726.094	250.36
726.28	96.77
726.467	274.94
726.653	119.29
726.84	256.51
727.027	285.18
727.213	205.31
727.4	197.12
727.586	197.12
727.773	178.69
727.959	195.07
728.145	164.35
728.332	182.78
728.518	141.82
728.705	184.83
728.891	219.64
729.077	207.36
729.264	96.77
729.45	170.49
729.636	229.88
729.823	207.36
730.009	348.67
730.195	229.88
730.382	229.88
730.568	109.05
730.754	264.7
730.94	219.64
731.126	227.84
731.313	281.08
731.499	207.36
731.685	270.84
731.871	274.94
732.057	203.26
732.243	260.6
732.429	250.36
732.615	262.65
732.801	285.18
732.987	139.77
733.173	176.64
733.359	205.31
733.545	231.93
733.731	180.73
733.917	250.36
734.103	244.22
734.289	242.17
734.475	156.16
734.661	379.39
734.847	254.46
735.033	211.45
735.219	276.99
735.404	199.16
735.59	84.48
735.776	137.73
735.962	107.01
736.148	190.97
736.333	313.85
736.519	236.03
736.705	262.65
736.89	133.63
737.076	147.97
737.262	193.02
737.447	156.16
737.633	172.54
737.819	342.52
738.004	141.82
738.19	176.64
738.375	180.73
738.561	211.45
738.747	201.21
738.932	107.01
739.118	358.91
739.303	238.08
739.489	225.79
739.674	141.82
739.859	154.11
740.045	322.04
740.23	229.88
740.416	41.47
740.601	285.18
740.786	168.45
740.972	199.16
741.157	252.41
741.342	135.68
741.528	84.48
741.713	264.7
741.898	178.69
742.084	174.59
742.269	279.04
742.454	166.4
742.639	178.69
742.824	207.36
743.01	332.28
743.195	381.43
743.38	203.26
743.565	188.93
743.75	209.4
743.935	266.75
744.12	344.57
744.305	139.77
744.49	180.73
744.675	176.64
744.86	135.68
745.045	223.74
745.23	250.36
745.415	217.6
745.6	276.99
745.785	119.29
745.97	238.08
746.155	262.65
746.34	295.42
746.525	190.97
746.71	311.8
746.895	180.73
747.079	-3.58
747.264	182.78
747.449	199.16
747.634	246.27
747.819	209.4
748.003	195.07
748.188	76.29
748.373	174.59
748.557	217.6
748.742	231.93
748.927	242.17
749.111	139.77
749.296	147.97
749.481	207.36
749.665	158.21
749.85	184.83
750.034	209.4
750.219	158.21
750.404	143.87
750.588	231.93
750.773	117.25
750.957	170.49
751.141	113.15
751.326	281.08
751.51	-15.87
751.695	96.77
751.879	107.01
752.064	373.24
752.248	90.62
752.432	276.99
752.617	268.8
752.801	96.77
752.985	98.81
753.17	193.02
753.354	127.49
753.538	190.97
753.722	59.9
753.907	41.47
754.091	78.33
754.275	270.84
754.459	59.9
754.643	61.95
754.828	158.21
755.012	225.79
755.196	111.1
755.38	156.16
755.564	88.57
755.748	158.21
755.932	184.83
756.116	223.74
756.3	109.05
756.484	86.53
756.668	281.08
756.852	31.23
757.036	125.44
757.22	195.07
757.404	135.68
757.588	82.43
757.772	205.31
757.956	113.15
758.14	246.27
758.323	102.91
758.507	141.82
758.691	141.82
758.875	281.08
759.059	246.27
759.242	72.19
759.426	156.16
759.61	107.01
759.794	41.47
759.977	152.06
760.161	274.94
760.345	244.22
760.528	211.45
760.712	49.66
760.895	109.05
761.079	115.2
761.263	64
761.446	53.76
761.63	90.62
761.813	162.3
761.997	70.14
762.18	137.73
762.364	135.68
762.547	-26.11
762.731	78.33
762.914	107.01
763.098	-1.54
763.281	168.45
763.464	20.99
763.648	121.34
763.831	59.9
764.015	70.14
764.198	139.77
764.381	82.43
764.564	143.87
764.748	96.77
764.931	76.29
765.114	76.29
765.297	100.86
765.481	-11.78
765.664	57.86
765.847	74.24
766.03	98.81
766.213	8.7
766.397	113.15
766.58	-26.11
766.763	61.95
766.946	4.61
767.129	68.09
767.312	39.42
767.495	88.57
767.678	41.47
767.861	182.78
768.044	107.01
768.227	43.52
768.41	20.99
768.593	-24.06
768.776	96.77
768.959	96.77
769.142	92.67
769.324	10.75
769.507	59.9
769.69	45.57
769.873	102.91
770.056	279.04
770.239	43.52
770.421	135.68
770.604	57.86
770.787	94.72
770.97	107.01
771.152	20.99
771.335	154.11
771.518	25.09
771.7	117.25
771.883	295.42
772.066	25.09
772.248	74.24
772.431	158.21
772.613	123.39
772.796	-3.58
772.978	111.1
773.161	213.5
773.343	41.47
773.526	49.66
773.708	-7.68
773.891	-13.82
774.073	10.75
774.256	53.76
774.438	209.4
774.621	66.05
774.803	39.42
774.985	70.14
775.168	72.19
775.35	16.9
775.532	49.66
775.715	41.47
775.897	160.25
776.079	98.81
776.261	70.14
776.444	59.9
776.626	18.94
776.808	53.76
776.99	12.8
777.173	59.9
777.355	139.77
777.537	107.01
777.719	125.44
777.901	41.47
778.083	-3.58
778.265	-24.06
778.447	221.69
778.629	49.66
778.811	88.57
778.993	72.19
779.175	152.06
779.357	61.95
779.539	2.56
779.721	90.62
779.903	168.45
780.085	66.05
780.267	-28.16
780.449	18.94
780.631	72.19
780.812	201.21
780.994	66.05
781.176	39.42
781.358	27.14
781.54	-46.59
781.721	119.29
781.903	82.43
782.085	-19.97
782.267	172.54
782.448	18.94
782.63	-17.92
782.812	51.71
782.993	49.66
783.175	61.95
783.357	-17.92
783.538	121.34
783.72	14.85
783.901	27.14
784.083	172.54
784.264	129.53
784.446	-5.63
784.627	-5.63
784.809	25.09
784.99	-5.63
785.172	57.86
785.353	16.9
785.535	96.77
785.716	29.18
785.897	-34.3
786.079	12.8
786.26	49.66
786.441	55.81
786.623	-22.02
786.804	12.8
786.985	-114.17
787.167	174.59
787.348	-17.92
787.529	25.09
787.71	162.3
787.891	57.86
788.073	43.52
788.254	-11.78
788.435	168.45
788.616	-24.06
788.797	-46.59
788.978	20.99
789.159	-67.07
789.34	20.99
789.522	39.42
789.703	-99.84
789.884	111.1
790.065	35.33
790.246	115.2
790.427	0.51
790.607	160.25
790.788	172.54
790.969	-44.54
791.15	53.76
791.331	-58.88
791.512	27.14
791.693	-69.12
791.874	86.53
792.054	117.25
792.235	55.81
792.416	-62.98
792.597	-56.83
792.778	27.14
792.958	23.04
793.139	117.25
793.32	43.52
793.5	-11.78
793.681	141.82
793.862	113.15
794.042	-19.97
794.223	-75.26
794.404	-26.11
794.584	-50.69
794.765	27.14
794.945	41.47
795.126	45.57
795.306	119.29
795.487	10.75
795.667	6.66
795.848	104.96
796.028	61.95
796.209	4.61
796.389	84.48
796.57	-11.78
796.75	-65.02
796.93	-15.87
797.111	-52.74
797.291	2.56
797.471	127.49
797.652	59.9
797.832	18.94
798.012	111.1
798.192	35.33
798.373	-5.63
798.553	-42.5
798.733	80.38
798.913	6.66
799.093	25.09
799.274	-24.06
799.454	27.14
799.634	119.29
799.814	23.04
799.994	102.91
800.174	49.66
800.354	37.38
800.534	-69.12
800.714	102.91
800.894	-28.16
801.074	-28.16
801.254	-13.82
801.434	70.14
801.614	-3.58
801.794	-122.37
801.974	1941.99
802.154	-17.92
802.334	90.62
802.514	-73.21
802.693	35.33
802.873	31.23
803.053	107.01
803.233	27.14
803.413	-3.58
803.592	-17.92
803.772	-15.87
803.952	12.8
804.131	-101.89
804.311	143.87
804.491	111.1
804.67	12.8
804.85	-22.02
805.03	66.05
805.209	66.05
805.389	10.75
805.568	-22.02
805.748	2.56
805.928	0.51
806.107	37.38
806.287	74.24
806.466	55.81
806.646	20.99
806.825	18.94
807.004	20.99
807.184	14.85
807.363	86.53
807.543	94.72
807.722	-77.31
807.901	102.91
808.081	117.25
808.26	-60.93
808.439	45.57
808.619	31.23
808.798	-48.64
808.977	66.05
809.156	125.44
809.336	2.56
809.515	100.86
809.694	-34.3
809.873	-19.97
810.052	57.86
810.231	117.25
810.411	-11.78
810.59	33.28
810.769	98.81
810.948	-15.87
811.127	-108.03
811.306	12.8
811.485	-24.06
811.664	64
811.843	18.94
812.022	-15.87
812.201	-30.21
812.38	-26.11
812.559	33.28
812.737	86.53
812.916	-73.21
813.095	-114.17
813.274	88.57
813.453	-9.73
813.632	16.9
813.811	47.62
813.989	-58.88
814.168	37.38
814.347	-77.31
814.526	4.61
814.704	178.69
814.883	207.36
815.062	-65.02
815.24	59.9
815.419	-32.26
815.598	35.33
815.776	-56.83
815.955	20.99
816.133	-101.89
816.312	12.8
816.49	2.56
816.669	51.71
816.847	4.61
817.026	-13.82
817.204	-7.68
817.383	-7.68
817.561	4.61
817.74	4.61
817.918	18.94
818.097	-79.36
818.275	-93.69
818.453	41.47
818.632	23.04
818.81	-7.68
818.988	-26.11
819.167	-26.11
819.345	37.38
819.523	-32.26
819.701	31.23
819.879	-19.97
820.058	72.19
820.236	10.75
820.414	82.43
820.592	-13.82
820.77	33.28
820.948	-83.45
821.127	-67.07
821.305	113.15
821.483	-11.78
821.661	10.75
821.839	12.8
822.017	-22.02
822.195	-28.16
822.373	145.92
822.551	16.9
822.729	94.72
822.907	47.62
823.085	-11.78
823.262	-11.78
823.44	-71.17
823.618	10.75
823.796	12.8
823.974	68.09
824.152	-89.6
824.329	-44.54
824.507	-7.68
824.685	53.76
824.863	-65.02
825.04	20.99
825.218	55.81
825.396	29.18
825.574	64
825.751	57.86
825.929	14.85
826.107	-81.41
826.284	0.51
826.462	70.14
826.639	-3.58
826.817	-87.55
826.994	-3.58
827.172	-81.41
827.349	164.35
827.527	-11.78
827.704	29.18
827.882	41.47
828.059	-1.54
828.237	6.66
828.414	94.72
828.591	-97.79
828.769	47.62
828.946	-83.45
829.124	31.23
829.301	49.66
829.478	-9.73
829.655	68.09
829.833	27.14
830.01	-142.85
830.187	12.8
830.364	-13.82
830.542	31.23
830.719	184.83
830.896	37.38
831.073	111.1
831.25	16.9
831.427	98.81
831.604	-40.45
831.782	-15.87
831.959	2.56
832.136	0.51
832.313	16.9
832.49	25.09
832.667	72.19
832.844	-40.45
833.021	-5.63
833.198	59.9
833.374	64
833.551	82.43
833.728	-3.58
833.905	160.25
834.082	-85.5
834.259	49.66
834.436	113.15
834.612	-54.78
834.789	47.62
834.966	-28.16
835.143	-34.3
835.319	-73.21
835.496	-9.73
835.673	-7.68
835.85	115.2
836.026	20.99
836.203	57.86
836.38	-9.73
836.556	0.51
836.733	-75.26
836.909	127.49
837.086	-32.26
837.262	-38.4
837.439	25.09
837.616	-19.97
837.792	37.38
837.968	104.96
838.145	-85.5
838.321	-46.59
838.498	29.18
838.674	45.57
838.851	20.99
839.027	-9.73
839.203	135.68
839.38	27.14
839.556	14.85
839.732	123.39
839.909	2.56
840.085	12.8
840.261	-118.27
840.437	2.56
840.614	-36.35
840.79	49.66
840.966	111.1
841.142	20.99
841.318	-22.02
841.494	12.8
841.671	121.34
841.847	-34.3
842.023	-42.5
842.199	37.38
842.375	70.14
842.551	-126.46
842.727	-62.98
842.903	102.91
843.079	-108.03
843.255	98.81
843.431	-1.54
843.607	125.44
843.783	-108.03
843.959	14.85
844.134	-130.56
844.31	72.19
844.486	-11.78
844.662	-50.69
844.838	31.23
845.013	-36.35
845.189	49.66
845.365	29.18
845.541	-36.35
845.716	35.33
845.892	78.33
846.068	-17.92
846.244	-7.68
846.419	59.9
846.595	-60.93
846.77	10.75
846.946	4.61
847.122	-56.83
847.297	4.61
847.473	147.97
847.648	-73.21
847.824	39.42
847.999	-95.74
848.175	33.28
848.35	-34.3
848.526	115.2
848.701	109.05
848.876	109.05
849.052	90.62
849.227	-38.4
849.403	4.61
849.578	2.56
849.753	-50.69
849.929	104.96
850.104	-132.61
850.279	8.7
850.454	33.28
850.63	84.48
850.805	-9.73
850.98	14.85
851.155	37.38
851.33	4.61
851.505	-44.54
851.681	199.16
851.856	-46.59
852.031	39.42
852.206	45.57
852.381	-42.5
852.556	10.75
852.731	29.18
852.906	51.71
853.081	61.95
853.256	45.57
853.431	-91.65
853.606	23.04
853.781	23.04
853.956	-138.75
854.131	2.56
854.305	-22.02
854.48	-38.4
854.655	-56.83
854.83	-60.93
855.005	-60.93
855.18	18.94
855.354	-56.83
855.529	25.09
855.704	-65.02
855.879	33.28
856.053	-22.02
856.228	-32.26
856.403	-89.6
856.577	74.24
856.752	-58.88
856.926	10.75
857.101	-7.68
857.276	-87.55
857.45	-13.82
857.625	111.1
857.799	-52.74
857.974	10.75
858.148	-95.74
858.323	-1.54
858.497	-28.16
858.672	-69.12
858.846	0.51
859.02	57.86
859.195	-103.93
859.369	-42.5
859.543	-38.4
859.718	-13.82
859.892	-7.68
860.066	0.51
860.241	-52.74
860.415	-34.3
860.589	25.09
860.763	-17.92
860.938	-30.21
861.112	59.9
861.286	45.57
861.46	98.81
861.634	55.81
861.808	109.05
861.982	-54.78
862.157	-122.37
862.331	-77.31
862.505	-99.84
862.679	-26.11
862.853	-26.11
863.027	49.66
863.201	154.11
863.375	-69.12
863.549	18.94
863.722	88.57
863.896	74.24
864.07	-9.73
864.244	-26.11
864.418	100.86
864.592	-7.68
864.766	20.99
864.939	86.53
865.113	-38.4
865.287	111.1
865.461	-48.64
865.634	-50.69
865.808	-1.54
865.982	-30.21
866.156	-48.64
866.329	-81.41
866.503	-54.78
866.676	-3.58
866.85	-22.02
867.024	10.75
867.197	70.14
867.371	82.43
867.544	43.52
867.718	-44.54
867.891	41.47
868.065	-110.08
868.238	37.38
868.412	90.62
868.585	16.9
868.759	-44.54
868.932	-22.02
869.105	-52.74
869.279	-52.74
869.452	-50.69
869.625	109.05
869.799	-65.02
869.972	-81.41
870.145	-28.16
870.319	37.38
870.492	-54.78
870.665	20.99
870.838	-58.88
871.011	-144.89
871.185	-3.58
871.358	14.85
871.531	29.18
871.704	-65.02
871.877	96.77
872.05	39.42
872.223	-50.69
872.396	-9.73
872.569	12.8
872.742	-161.28
872.915	43.52
873.088	-103.93
873.261	-108.03
873.434	94.72
873.607	-32.26
873.78	74.24
873.953	-93.69
874.126	-52.74
874.299	100.86
874.471	-71.17
874.644	8.7
874.817	51.71
874.99	133.63
875.163	-101.89
875.335	53.76
875.508	-73.21
875.681	8.7
875.853	-28.16
876.026	-11.78
876.199	88.57
876.371	-32.26
876.544	49.66
876.717	-44.54
876.889	-1.54
877.062	51.71
877.234	-126.46
877.407	14.85
877.579	-19.97
877.752	16.9
877.924	-5.63
878.097	27.14
878.269	-22.02
878.442	20.99
878.614	70.14
878.786	-69.12
878.959	16.9
879.131	-17.92
879.303	-142.85
879.476	31.23
879.648	51.71
879.82	10.75
879.993	-3.58
880.165	-26.11
880.337	-124.41
880.509	-13.82
880.681	-69.12
880.854	-122.37
881.026	39.42
881.198	168.45
881.37	-79.36
881.542	31.23
881.714	0.51
881.886	86.53
882.058	-5.63
882.23	119.29
882.402	41.47
882.574	-67.07
882.746	170.49
882.918	117.25
883.09	20.99
883.262	-28.16
883.434	35.33
883.606	-73.21
883.778	8.7
883.95	123.39
884.122	-5.63
884.293	88.57
884.465	23.04
884.637	102.91
884.809	-26.11
884.98	25.09
885.152	57.86
885.324	31.23
885.496	-19.97
885.667	-44.54
885.839	-13.82
886.011	82.43
886.182	-7.68
886.354	68.09
886.525	33.28
886.697	33.28
886.869	-83.45
887.04	-7.68
887.212	12.8
887.383	90.62
887.555	0.51
887.726	-30.21
887.897	-56.83
888.069	23.04
888.24	98.81
888.412	-26.11
888.583	-67.07
888.754	-22.02
888.926	-91.65
889.097	-46.59
889.268	-126.46
889.44	35.33
889.611	-50.69
889.782	-34.3
889.953	-69.12
890.125	145.92
890.296	-114.17
890.467	6.66
890.638	-77.31
890.809	76.29
890.98	-62.98
891.151	-28.16
891.323	131.58
891.494	33.28
891.665	82.43
891.836	-54.78
892.007	20.99
892.178	-3.58
892.349	57.86
892.52	-56.83
892.691	0.51
892.862	-85.5
893.032	-85.5
893.203	-50.69
893.374	-22.02
893.545	84.48
893.716	-42.5
893.887	35.33
894.057	57.86
894.228	29.18
894.399	-17.92
894.57	90.62
894.74	37.38
894.911	-1.54
895.082	55.81
895.253	-46.59
895.423	-95.74
895.594	53.76
895.764	107.01
895.935	-60.93
896.106	-11.78
896.276	-5.63
896.447	-32.26
896.617	4.61
896.788	-52.74
896.958	-52.74
897.129	-26.11
897.299	-46.59
897.47	49.66
897.64	37.38
897.81	-69.12
897.981	27.14
898.151	-38.4
898.322	18.94
898.492	47.62
898.662	-15.87
898.832	-56.83
899.003	-11.78
899.173	14.85
899.343	-30.21
899.513	-103.93
