Data from USB4F104151__106__10-45-31-363.txt Node

Date: Wed Feb 26 10:45:31 EST 2025
User: louis
Spectrometer: USB4F10415
Trigger mode: 4
Integration Time (sec): 1.000000E-1
Scans to average: 1
Electric dark correction enabled: true
Nonlinearity correction enabled: false
Boxcar width: 0
XAxis mode: Wavelengths
Number of Pixels in Spectrum: 3648
>>>>>Begin Spectral Data<<<<<
178.204	-365.39
178.424	-365.39
178.644	-365.39
178.864	-449.36
179.084	-379.73
179.304	-43.86
179.524	13.48
179.744	31.91
179.964	54.44
180.184	52.39
180.404	5.29
180.624	13.48
180.844	-27.48
181.064	-43.86
181.283	-0.85
181.503	-17.24
181.723	-37.72
181.943	-97.11
182.163	181.42
182.383	-33.62
182.602	130.22
182.822	66.73
183.042	128.17
183.262	-99.16
183.482	52.39
183.701	29.87
183.921	31.91
184.141	-4.95
184.361	128.17
184.58	101.55
184.8	17.58
185.02	-43.86
185.239	107.69
185.459	68.78
185.679	138.41
185.898	-93.01
186.118	89.26
186.338	-15.19
186.557	214.18
186.777	-66.39
186.997	5.29
187.216	-0.85
187.436	162.98
187.655	128.17
187.875	97.45
188.095	36.01
188.314	64.68
188.534	130.22
188.753	-43.86
188.973	76.97
189.192	175.27
189.412	3.24
189.631	29.87
189.851	23.72
190.07	158.89
190.29	17.58
190.509	48.3
190.729	76.97
190.948	128.17
191.168	267.43
191.387	27.82
191.607	31.91
191.826	40.11
192.045	-0.85
192.265	-35.67
192.484	99.5
192.704	105.64
192.923	-7
193.142	222.38
193.362	146.6
193.581	156.84
193.8	101.55
194.02	58.54
194.239	50.35
194.458	91.31
194.678	38.06
194.897	-29.52
195.116	17.58
195.335	113.83
195.555	-2.9
195.774	13.48
195.993	154.79
196.212	13.48
196.432	9.39
196.651	21.67
196.87	-7
197.089	212.14
197.308	87.21
197.528	140.46
197.747	-23.38
197.966	-27.48
198.185	181.42
198.404	3.24
198.623	156.84
198.842	146.6
199.062	111.78
199.281	105.64
199.5	11.43
199.719	105.64
199.938	25.77
200.157	54.44
200.376	40.11
200.595	56.49
200.814	79.02
201.033	-64.34
201.252	199.85
201.471	-19.29
201.69	36.01
201.909	109.74
202.128	130.22
202.347	126.12
202.566	42.15
202.785	-80.72
203.004	-88.92
203.223	201.9
203.442	46.25
203.661	-41.81
203.879	46.25
204.098	46.25
204.317	15.53
204.536	103.59
204.755	79.02
204.974	95.4
205.193	66.73
205.411	119.98
205.63	97.45
205.849	38.06
206.068	5.29
206.287	11.43
206.505	60.59
206.724	21.67
206.943	-27.48
207.162	-4.95
207.381	-9.05
207.599	38.06
207.818	105.64
208.037	-15.19
208.255	38.06
208.474	95.4
208.693	85.16
208.911	85.16
209.13	44.2
209.349	79.02
209.567	15.53
209.786	68.78
210.005	76.97
210.223	46.25
210.442	-170.83
210.661	-2.9
210.879	91.31
211.098	-45.91
211.316	50.35
211.535	136.36
211.753	40.11
211.972	23.72
212.191	42.15
212.409	19.63
212.628	107.69
212.846	-41.81
213.065	87.21
213.283	62.63
213.502	50.35
213.72	50.35
213.938	23.72
214.157	23.72
214.375	130.22
214.594	33.96
214.812	115.88
215.031	-21.33
215.249	-7
215.467	48.3
215.686	9.39
215.904	36.01
216.122	89.26
216.341	64.68
216.559	58.54
216.778	138.41
216.996	46.25
217.214	36.01
217.432	-13.14
217.651	-17.24
217.869	113.83
218.087	66.73
218.306	33.96
218.524	72.87
218.742	13.48
218.96	103.59
219.179	1.19
219.397	-2.9
219.615	214.18
219.833	132.26
220.051	31.91
220.27	126.12
220.488	58.54
220.706	122.02
220.924	15.53
221.142	19.63
221.36	9.39
221.578	70.83
221.796	46.25
222.015	58.54
222.233	17.58
222.451	146.6
222.669	-35.67
222.887	89.26
223.105	21.67
223.323	23.72
223.541	-7
223.759	25.77
223.977	40.11
224.195	165.03
224.413	89.26
224.631	66.73
224.849	-19.29
225.067	257.19
225.285	-52.05
225.503	-37.72
225.721	-76.63
225.939	7.34
226.157	81.07
226.375	160.94
226.592	-7
226.81	105.64
227.028	93.35
227.246	87.21
227.464	46.25
227.682	52.39
227.9	38.06
228.117	56.49
228.335	15.53
228.553	74.92
228.771	38.06
228.989	128.17
229.206	83.11
229.424	50.35
229.642	-84.82
229.86	-70.48
230.077	160.94
230.295	44.2
230.513	148.65
230.731	46.25
230.948	165.03
231.166	154.79
231.384	17.58
231.601	5.29
231.819	177.32
232.037	-2.9
232.254	-84.82
232.472	46.25
232.689	29.87
232.907	197.8
233.125	29.87
233.342	-23.38
233.56	-31.57
233.777	50.35
233.995	-21.33
234.213	146.6
234.43	66.73
234.648	5.29
234.865	33.96
235.083	29.87
235.3	33.96
235.518	115.88
235.735	115.88
235.953	95.4
236.17	66.73
236.388	81.07
236.605	-11.09
236.822	115.88
237.04	93.35
237.257	62.63
237.475	-9.05
237.692	93.35
237.909	91.31
238.127	-29.52
238.344	-17.24
238.562	64.68
238.779	29.87
238.996	17.58
239.214	87.21
239.431	81.07
239.648	-23.38
239.865	173.22
240.083	95.4
240.3	-11.09
240.517	60.59
240.735	44.2
240.952	115.88
241.169	19.63
241.386	54.44
241.603	-11.09
241.821	11.43
242.038	70.83
242.255	109.74
242.472	-27.48
242.689	76.97
242.907	144.55
243.124	25.77
243.341	-13.14
243.558	33.96
243.775	-52.05
243.992	-41.81
244.209	107.69
244.426	152.74
244.643	66.73
244.86	7.34
245.078	83.11
245.295	42.15
245.512	-17.24
245.729	17.58
245.946	87.21
246.163	21.67
246.38	13.48
246.597	119.98
246.814	50.35
247.031	74.92
247.248	-21.33
247.464	58.54
247.681	7.34
247.898	52.39
248.115	-19.29
248.332	3.24
248.549	158.89
248.766	167.08
248.983	103.59
249.2	31.91
249.417	62.63
249.633	-33.62
249.85	146.6
250.067	46.25
250.284	70.83
250.501	68.78
250.717	144.55
250.934	-7
251.151	36.01
251.368	-29.52
251.585	52.39
251.801	105.64
252.018	-27.48
252.235	97.45
252.451	-33.62
252.668	-52.05
252.885	130.22
253.102	66.73
253.318	-4.95
253.535	-25.43
253.752	27.82
253.968	-45.91
254.185	-25.43
254.401	62.63
254.618	68.78
254.835	-62.29
255.051	138.41
255.268	93.35
255.484	38.06
255.701	9.39
255.917	36.01
256.134	-31.57
256.351	21.67
256.567	-0.85
256.784	62.63
257	-4.95
257.217	44.2
257.433	167.08
257.65	50.35
257.866	199.85
258.082	-70.48
258.299	19.63
258.515	105.64
258.732	9.39
258.948	-11.09
259.165	64.68
259.381	-47.96
259.597	70.83
259.814	81.07
260.03	50.35
260.246	23.72
260.463	140.46
260.679	146.6
260.895	42.15
261.112	52.39
261.328	52.39
261.544	-17.24
261.761	185.51
261.977	-35.67
262.193	-9.05
262.409	119.98
262.626	3.24
262.842	-4.95
263.058	-23.38
263.274	158.89
263.49	40.11
263.707	38.06
263.923	50.35
264.139	-127.83
264.355	50.35
264.571	109.74
264.787	169.13
265.004	154.79
265.22	15.53
265.436	-62.29
265.652	42.15
265.868	66.73
266.084	72.87
266.3	87.21
266.516	-9.05
266.732	199.85
266.948	15.53
267.164	-17.24
267.38	134.31
267.596	87.21
267.812	154.79
268.028	68.78
268.244	132.26
268.46	42.15
268.676	62.63
268.892	-9.05
269.108	17.58
269.324	1.19
269.54	72.87
269.756	130.22
269.972	-9.05
270.188	27.82
270.403	-17.24
270.619	-25.43
270.835	60.59
271.051	-7
271.267	27.82
271.483	-25.43
271.698	76.97
271.914	64.68
272.13	46.25
272.346	85.16
272.562	83.11
272.777	144.55
272.993	-15.19
273.209	-2.9
273.425	105.64
273.64	29.87
273.856	136.36
274.072	60.59
274.287	31.91
274.503	119.98
274.719	48.3
274.934	68.78
275.15	-99.16
275.366	87.21
275.581	-50
275.797	31.91
276.012	44.2
276.228	9.39
276.444	21.67
276.659	58.54
276.875	11.43
277.09	44.2
277.306	-35.67
277.521	115.88
277.737	38.06
277.952	162.98
278.168	124.07
278.383	119.98
278.599	130.22
278.814	105.64
279.03	-17.24
279.245	81.07
279.461	52.39
279.676	130.22
279.892	13.48
280.107	-58.2
280.322	-29.52
280.538	91.31
280.753	-33.62
280.969	85.16
281.184	79.02
281.399	128.17
281.615	68.78
281.83	62.63
282.045	-56.15
282.26	-2.9
282.476	101.55
282.691	138.41
282.906	11.43
283.122	79.02
283.337	42.15
283.552	74.92
283.767	-21.33
283.983	58.54
284.198	56.49
284.413	52.39
284.628	-58.2
284.843	-2.9
285.058	87.21
285.274	-82.77
285.489	13.48
285.704	40.11
285.919	1.19
286.134	15.53
286.349	58.54
286.564	33.96
286.779	101.55
286.995	17.58
287.21	-13.14
287.425	113.83
287.64	-17.24
287.855	91.31
288.07	25.77
288.285	46.25
288.5	122.02
288.715	99.5
288.93	-9.05
289.145	48.3
289.36	158.89
289.575	-50
289.79	46.25
290.004	5.29
290.219	48.3
290.434	-47.96
290.649	-7
290.864	-52.05
291.079	-9.05
291.294	54.44
291.509	38.06
291.724	-13.14
291.938	-39.76
292.153	58.54
292.368	-33.62
292.583	25.77
292.798	60.59
293.012	46.25
293.227	138.41
293.442	38.06
293.657	122.02
293.871	146.6
294.086	81.07
294.301	214.18
294.516	136.36
294.73	-4.95
294.945	13.48
295.16	62.63
295.374	99.5
295.589	148.65
295.804	3.24
296.018	44.2
296.233	117.93
296.447	89.26
296.662	-13.14
296.877	165.03
297.091	85.16
297.306	-2.9
297.52	-33.62
297.735	52.39
297.949	13.48
298.164	36.01
298.378	54.44
298.593	9.39
298.807	-70.48
299.022	81.07
299.236	205.99
299.451	36.01
299.665	40.11
299.88	89.26
300.094	117.93
300.309	-37.72
300.523	76.97
300.737	17.58
300.952	56.49
301.166	52.39
301.381	-4.95
301.595	48.3
301.809	56.49
302.024	-52.05
302.238	54.44
302.452	181.42
302.667	48.3
302.881	169.13
303.095	136.36
303.309	21.67
303.524	36.01
303.738	40.11
303.952	40.11
304.166	25.77
304.381	-146.26
304.595	130.22
304.809	38.06
305.023	64.68
305.237	33.96
305.452	5.29
305.666	122.02
305.88	93.35
306.094	138.41
306.308	54.44
306.522	70.83
306.736	48.3
306.95	64.68
307.164	5.29
307.379	50.35
307.593	142.5
307.807	119.98
308.021	109.74
308.235	76.97
308.449	-93.01
308.663	21.67
308.877	160.94
309.091	50.35
309.305	89.26
309.519	-82.77
309.733	97.45
309.947	-76.63
310.161	-2.9
310.374	64.68
310.588	162.98
310.802	-4.95
311.016	25.77
311.23	142.5
311.444	-39.76
311.658	31.91
311.872	111.78
312.085	93.35
312.299	152.74
312.513	105.64
312.727	60.59
312.941	13.48
313.154	91.31
313.368	21.67
313.582	122.02
313.796	60.59
314.009	60.59
314.223	101.55
314.437	29.87
314.651	70.83
314.864	-31.57
315.078	11.43
315.292	-78.68
315.505	58.54
315.719	99.5
315.933	124.07
316.146	5.29
316.36	-78.68
316.573	79.02
316.787	115.88
317.001	58.54
317.214	-25.43
317.428	23.72
317.641	99.5
317.855	-9.05
318.068	83.11
318.282	64.68
318.495	154.79
318.709	66.73
318.922	74.92
319.136	89.26
319.349	72.87
319.563	40.11
319.776	74.92
319.99	-50
320.203	136.36
320.417	89.26
320.63	97.45
320.843	138.41
321.057	44.2
321.27	81.07
321.483	66.73
321.697	150.7
321.91	52.39
322.124	48.3
322.337	42.15
322.55	-47.96
322.763	109.74
322.977	66.73
323.19	-37.72
323.403	101.55
323.617	87.21
323.83	58.54
324.043	27.82
324.256	62.63
324.469	-47.96
324.683	113.83
324.896	27.82
325.109	85.16
325.322	-37.72
325.535	50.35
325.748	58.54
325.962	5.29
326.175	3.24
326.388	68.78
326.601	38.06
326.814	99.5
327.027	68.78
327.24	142.5
327.453	5.29
327.666	29.87
327.879	119.98
328.092	52.39
328.305	81.07
328.518	36.01
328.731	13.48
328.944	46.25
329.157	107.69
329.37	33.96
329.583	214.18
329.796	76.97
330.009	-74.58
330.222	150.7
330.435	115.88
330.648	38.06
330.861	87.21
331.073	66.73
331.286	165.03
331.499	113.83
331.712	-19.29
331.925	44.2
332.138	15.53
332.35	117.93
332.563	1.19
332.776	179.37
332.989	-23.38
333.202	15.53
333.414	83.11
333.627	42.15
333.84	42.15
334.053	54.44
334.265	-13.14
334.478	29.87
334.691	-19.29
334.903	95.4
335.116	-29.52
335.329	31.91
335.541	150.7
335.754	165.03
335.966	-33.62
336.179	44.2
336.392	99.5
336.604	48.3
336.817	115.88
337.029	66.73
337.242	99.5
337.454	74.92
337.667	68.78
337.88	152.74
338.092	132.26
338.305	60.59
338.517	15.53
338.729	103.59
338.942	103.59
339.154	-76.63
339.367	1.19
339.579	103.59
339.792	-15.19
340.004	79.02
340.217	21.67
340.429	1.19
340.641	-4.95
340.854	-37.72
341.066	-0.85
341.278	70.83
341.491	199.85
341.703	64.68
341.915	-72.53
342.128	175.27
342.34	-11.09
342.552	11.43
342.764	52.39
342.977	-29.52
343.189	87.21
343.401	64.68
343.613	-15.19
343.826	1.19
344.038	-11.09
344.25	56.49
344.462	15.53
344.674	111.78
344.886	58.54
345.099	144.55
345.311	99.5
345.523	42.15
345.735	-90.96
345.947	87.21
346.159	5.29
346.371	126.12
346.583	76.97
346.795	251.05
347.007	85.16
347.219	76.97
347.431	13.48
347.643	50.35
347.855	-35.67
348.067	144.55
348.279	13.48
348.491	-27.48
348.703	130.22
348.915	-25.43
349.127	-0.85
349.339	119.98
349.551	50.35
349.763	136.36
349.975	79.02
350.187	138.41
350.399	130.22
350.61	40.11
350.822	115.88
351.034	33.96
351.246	58.54
351.458	83.11
351.669	103.59
351.881	74.92
352.093	189.61
352.305	105.64
352.517	70.83
352.728	119.98
352.94	42.15
353.152	29.87
353.363	-9.05
353.575	76.97
353.787	154.79
353.999	126.12
354.21	222.38
354.422	15.53
354.633	27.82
354.845	107.69
355.057	70.83
355.268	-0.85
355.48	72.87
355.692	-68.44
355.903	70.83
356.115	-50
356.326	-19.29
356.538	191.66
356.749	87.21
356.961	214.18
357.172	-0.85
357.384	-2.9
357.595	234.66
357.807	21.67
358.018	-35.67
358.23	-7
358.441	119.98
358.653	3.24
358.864	1.19
359.075	19.63
359.287	179.37
359.498	122.02
359.709	-19.29
359.921	148.65
360.132	60.59
360.344	60.59
360.555	38.06
360.766	81.07
360.977	109.74
361.189	93.35
361.4	5.29
361.611	126.12
361.823	91.31
362.034	62.63
362.245	-17.24
362.456	56.49
362.667	-29.52
362.879	13.48
363.09	76.97
363.301	33.96
363.512	7.34
363.723	-23.38
363.935	-15.19
364.146	167.08
364.357	-2.9
364.568	107.69
364.779	-64.34
364.99	154.79
365.201	-37.72
365.412	173.22
365.623	7.34
365.834	91.31
366.045	44.2
366.256	33.96
366.467	99.5
366.678	46.25
366.889	101.55
367.1	25.77
367.311	66.73
367.522	52.39
367.733	62.63
367.944	142.5
368.155	119.98
368.366	85.16
368.577	134.31
368.788	115.88
368.999	99.5
369.209	79.02
369.42	236.71
369.631	226.47
369.842	150.7
370.053	-56.15
370.264	124.07
370.474	3.24
370.685	62.63
370.896	60.59
371.107	101.55
371.317	105.64
371.528	58.54
371.739	134.31
371.95	79.02
372.16	74.92
372.371	11.43
372.582	27.82
372.792	113.83
373.003	144.55
373.214	64.68
373.424	156.84
373.635	-45.91
373.846	126.12
374.056	89.26
374.267	17.58
374.477	42.15
374.688	46.25
374.898	60.59
375.109	56.49
375.319	66.73
375.53	23.72
375.74	64.68
375.951	-29.52
376.161	115.88
376.372	113.83
376.582	9.39
376.793	44.2
377.003	54.44
377.214	-39.76
377.424	33.96
377.635	101.55
377.845	25.77
378.055	132.26
378.266	-66.39
378.476	91.31
378.686	124.07
378.897	79.02
379.107	122.02
379.317	95.4
379.528	-15.19
379.738	44.2
379.948	-27.48
380.158	144.55
380.369	64.68
380.579	36.01
380.789	46.25
380.999	56.49
381.21	56.49
381.42	259.24
381.63	29.87
381.84	93.35
382.05	87.21
382.261	93.35
382.471	136.36
382.681	38.06
382.891	171.18
383.101	93.35
383.311	-23.38
383.521	-27.48
383.731	117.93
383.941	97.45
384.151	29.87
384.361	46.25
384.571	21.67
384.781	29.87
384.991	158.89
385.201	160.94
385.411	146.6
385.621	-15.19
385.831	87.21
386.041	60.59
386.251	36.01
386.461	132.26
386.671	40.11
386.881	27.82
387.091	64.68
387.301	66.73
387.511	74.92
387.72	36.01
387.93	113.83
388.14	-52.05
388.35	17.58
388.56	152.74
388.769	83.11
388.979	79.02
389.189	29.87
389.399	46.25
389.609	85.16
389.818	72.87
390.028	38.06
390.238	44.2
390.447	19.63
390.657	111.78
390.867	117.93
391.076	-13.14
391.286	17.58
391.496	54.44
391.705	89.26
391.915	242.85
392.125	97.45
392.334	101.55
392.544	124.07
392.753	134.31
392.963	1.19
393.172	-4.95
393.382	9.39
393.591	148.65
393.801	-2.9
394.01	115.88
394.22	124.07
394.429	9.39
394.639	72.87
394.848	76.97
395.058	115.88
395.267	-4.95
395.477	52.39
395.686	83.11
395.895	181.42
396.105	218.28
396.314	-13.14
396.524	70.83
396.733	52.39
396.942	93.35
397.152	79.02
397.361	136.36
397.57	66.73
397.78	91.31
397.989	95.4
398.198	212.14
398.407	-19.29
398.617	62.63
398.826	25.77
399.035	117.93
399.244	105.64
399.453	105.64
399.663	23.72
399.872	109.74
400.081	-2.9
400.29	74.92
400.499	11.43
400.708	130.22
400.917	27.82
401.127	40.11
401.336	-4.95
401.545	154.79
401.754	169.13
401.963	122.02
402.172	5.29
402.381	-13.14
402.59	44.2
402.799	87.21
403.008	101.55
403.217	95.4
403.426	89.26
403.635	-7
403.844	101.55
404.053	-11.09
404.262	58.54
404.471	257.19
404.68	167.08
404.888	7.34
405.097	17.58
405.306	91.31
405.515	128.17
405.724	54.44
405.933	162.98
406.142	70.83
406.35	126.12
406.559	62.63
406.768	11.43
406.977	195.75
407.185	115.88
407.394	72.87
407.603	-19.29
407.812	154.79
408.02	144.55
408.229	66.73
408.438	40.11
408.646	13.48
408.855	27.82
409.064	46.25
409.272	42.15
409.481	70.83
409.69	-41.81
409.898	-84.82
410.107	97.45
410.315	160.94
410.524	-2.9
410.733	11.43
410.941	74.92
411.15	126.12
411.358	128.17
411.567	197.8
411.775	74.92
411.984	42.15
412.192	150.7
412.401	40.11
412.609	236.71
412.818	136.36
413.026	93.35
413.234	72.87
413.443	117.93
413.651	-64.34
413.86	38.06
414.068	242.85
414.276	189.61
414.485	33.96
414.693	148.65
414.901	228.52
415.11	36.01
415.318	74.92
415.526	58.54
415.734	150.7
415.943	60.59
416.151	101.55
416.359	66.73
416.567	89.26
416.776	62.63
416.984	95.4
417.192	218.28
417.4	83.11
417.608	23.72
417.817	93.35
418.025	148.65
418.233	203.94
418.441	-4.95
418.649	-41.81
418.857	60.59
419.065	89.26
419.273	52.39
419.481	99.5
419.689	44.2
419.897	54.44
420.105	54.44
420.313	136.36
420.521	150.7
420.729	160.94
420.937	85.16
421.145	-45.91
421.353	117.93
421.561	113.83
421.769	105.64
421.977	64.68
422.185	115.88
422.393	19.63
422.601	138.41
422.809	105.64
423.017	124.07
423.224	134.31
423.432	173.22
423.64	87.21
423.848	107.69
424.056	54.44
424.263	91.31
424.471	74.92
424.679	203.94
424.887	-0.85
425.094	242.85
425.302	175.27
425.51	46.25
425.718	208.04
425.925	68.78
426.133	40.11
426.341	224.42
426.548	99.5
426.756	140.46
426.964	136.36
427.171	60.59
427.379	93.35
427.586	177.32
427.794	160.94
428.001	126.12
428.209	72.87
428.417	181.42
428.624	122.02
428.832	150.7
429.039	91.31
429.247	138.41
429.454	101.55
429.662	242.85
429.869	187.56
430.076	181.42
430.284	218.28
430.491	146.6
430.699	179.37
430.906	244.9
431.114	113.83
431.321	212.14
431.528	134.31
431.736	218.28
431.943	242.85
432.15	230.57
432.358	287.91
432.565	294.05
432.772	130.22
432.979	261.29
433.187	212.14
433.394	316.58
433.601	117.93
433.808	267.43
434.016	332.97
434.223	330.92
434.43	312.49
434.637	357.54
434.844	408.74
435.052	263.33
435.259	347.3
435.466	332.97
435.673	343.21
435.88	312.49
436.087	425.12
436.294	373.92
436.501	496.8
436.708	328.87
436.915	408.74
437.122	427.17
437.329	384.16
437.537	439.46
437.743	425.12
437.95	519.33
438.157	488.61
438.364	523.43
438.571	601.25
438.778	474.28
438.985	656.54
439.192	625.83
439.399	548
439.606	556.19
439.813	752.8
440.02	758.94
440.227	881.82
440.433	777.37
440.64	756.9
440.847	670.88
441.054	924.83
441.261	890.01
441.467	871.58
441.674	875.68
441.881	982.17
442.088	996.51
442.294	1010.84
442.501	1076.38
442.708	1092.76
442.914	1047.71
443.121	1191.06
443.328	1213.59
443.534	1326.23
443.741	1162.39
443.948	1121.43
444.154	1244.31
444.361	1547.41
444.568	1379.48
444.774	1363.09
444.981	1313.94
445.187	1571.99
445.394	1641.62
445.6	1635.47
445.807	1825.93
446.013	1776.78
446.22	1750.16
446.426	1901.71
446.633	2126.99
446.839	2245.77
447.046	1944.72
447.252	2069.64
447.459	2256.01
447.665	2321.54
447.871	2514.05
448.078	2581.64
448.284	2747.52
448.491	2653.31
448.697	2884.73
448.903	3083.39
449.11	3019.9
449.316	2958.46
449.522	3308.66
449.728	3341.43
449.935	3378.3
450.141	3386.49
450.347	3810.42
450.553	3673.2
450.76	3705.97
450.966	4047.98
451.172	4113.52
451.378	4240.49
451.584	4392.04
451.791	4580.45
451.997	4611.17
452.203	4906.08
452.409	5266.52
452.615	5448.79
452.821	5248.09
453.027	5237.85
453.233	5987.41
453.44	5721.17
453.646	6116.43
453.852	6282.31
454.058	6724.68
454.264	6712.39
454.47	7337.02
454.676	7425.08
454.882	7863.35
455.088	7627.83
455.294	8238.12
455.5	8447.02
455.705	8946.72
455.911	9116.7
456.117	9325.6
456.323	9696.28
456.529	9849.88
456.735	10578.95
456.941	10644.49
457.147	11045.89
457.352	11502.59
457.558	11928.56
457.764	12536.81
457.97	12948.45
458.176	13394.91
458.381	14037.97
458.587	14334.93
458.793	14943.17
458.999	14951.37
459.204	16862.12
459.41	17679.26
459.616	17265.57
459.821	18250.64
460.027	19176.33
460.233	19673.98
460.438	19805.05
460.644	21021.55
460.85	21209.96
461.055	21994.33
461.261	23188.3
461.466	22838.09
461.672	23116.62
461.878	25844.51
462.083	25664.29
462.289	26409.75
462.494	26919.7
462.7	27333.39
462.905	27947.78
463.111	29752.04
463.316	31445.71
463.522	31873.73
463.727	33186.48
463.932	34355.87
464.138	35412.62
464.343	36680.31
464.549	36954.74
464.754	39391.83
464.959	40573.5
465.165	41257.53
465.37	40669.76
465.575	40585.79
465.781	43559.44
465.986	44659.2
466.191	44247.56
466.397	44773.89
466.602	43811.34
466.807	46338.54
467.012	47098.33
467.218	47270.36
467.423	47471.06
467.628	49236.41
467.833	51896.72
468.038	50581.93
468.244	49879.47
468.449	52332.94
468.654	51284.38
468.859	51059.1
469.064	51093.92
469.269	50278.83
469.474	50469.29
469.679	51841.43
469.885	49969.58
470.09	50995.62
470.295	51167.65
470.5	50205.1
470.705	50321.83
470.91	49099.2
471.115	48916.93
471.32	49553.85
471.525	49398.2
471.73	47661.52
471.935	47555.03
472.139	45986.28
472.344	45756.91
472.549	45328.89
472.754	44302.85
472.959	43854.35
473.164	42357.28
473.369	41824.81
473.574	42660.38
473.778	41804.33
473.983	41366.07
474.188	40907.32
474.393	38711.9
474.598	38638.17
474.802	37755.5
475.007	37147.25
475.212	36758.14
475.417	35582.6
475.621	34876.05
475.826	34732.7
476.031	33733.29
476.235	33264.3
476.44	33409.71
476.645	32457.4
476.849	32295.61
477.054	31777.48
477.259	31007.44
477.463	30517.98
477.668	29942.5
477.872	30075.62
478.077	29162.22
478.282	28392.19
478.486	28240.64
478.691	27777.79
478.895	27603.72
479.1	27529.99
479.304	27278.09
479.509	26368.79
479.713	26796.82
479.918	25695.01
480.122	25799.46
480.326	25819.94
480.531	25719.59
480.735	25271.08
480.94	24830.77
481.144	25690.91
481.348	24087.36
481.553	24398.65
481.757	24107.83
481.961	24234.81
482.166	24382.26
482.37	24025.92
482.574	23272.26
482.778	23540.55
482.983	23591.75
483.187	23280.46
483.391	22885.2
483.595	22436.69
483.8	22346.58
484.004	22350.68
484.208	22330.2
484.412	21934.94
484.616	21848.93
484.821	21363.56
485.025	20980.59
485.229	21312.36
485.433	20906.86
485.637	20333.43
485.841	20140.92
486.045	19614.59
486.249	19583.87
486.453	19444.61
486.657	19157.89
486.861	18860.94
487.065	18201.49
487.269	18338.71
487.473	17560.48
487.677	18021.27
487.881	17755.04
488.085	17439.65
488.289	16952.23
488.493	16696.24
488.697	16550.83
488.901	15965.11
489.105	15881.14
489.309	15565.76
489.512	15266.75
489.716	15092.68
489.92	14734.28
490.124	14283.73
490.328	14463.95
490.531	13874.13
490.735	13706.2
490.939	13521.88
491.143	13278.18
491.346	12862.44
491.55	12913.64
491.754	12553.2
491.958	12659.69
492.161	12350.45
492.365	12035.06
492.569	11777.01
492.772	11559.93
492.976	11545.59
493.18	11508.73
493.383	11105.28
493.587	11156.48
493.79	10933.25
493.994	10619.91
494.197	10707.98
494.401	10611.72
494.605	10222.61
494.808	10302.48
495.012	10349.58
495.215	10277.9
495.419	10195.98
495.622	9755.67
495.825	9956.37
496.029	9735.19
496.232	10054.67
496.436	9741.33
496.639	9923.6
496.843	9581.59
497.046	9841.68
497.249	9831.44
497.453	9692.18
497.656	9712.66
497.859	9727
498.063	9806.87
498.266	9872.4
498.469	9671.7
498.673	9810.96
498.876	9655.32
499.079	9962.51
499.282	9737.24
499.485	10195.98
499.689	10028.05
499.892	10009.62
500.095	10030.1
500.298	10105.87
500.501	9864.21
500.705	10204.17
500.908	10286.09
501.111	10314.77
501.314	10646.54
501.517	10550.28
501.72	10505.23
501.923	10742.79
502.126	10929.16
502.329	11041.79
502.532	10996.74
502.735	11277.31
502.938	11332.61
503.141	11271.17
503.344	11537.4
503.547	11678.71
503.75	11723.77
503.953	11934.71
504.156	12205.04
504.359	12329.97
504.562	12448.75
504.765	12577.77
504.968	12725.22
505.17	12942.31
505.373	13167.59
505.576	13454.3
505.779	13585.37
505.982	13769.69
506.185	14107.6
506.387	14222.29
506.59	14547.92
506.793	14615.5
506.996	14793.67
507.198	15256.51
507.401	15420.35
507.604	15612.86
507.807	16135.09
508.009	16251.83
508.212	16614.32
508.415	16808.87
508.617	17318.82
508.82	17646.49
509.022	17707.93
509.225	18477.97
509.428	18285.46
509.63	18957.19
509.833	19170.18
510.035	19786.62
510.238	20026.23
510.44	20386.68
510.643	20945.77
510.845	21556.07
511.048	21678.94
511.25	22113.11
511.453	22881.1
511.655	23552.84
511.858	24142.65
512.06	24439.61
512.262	24578.87
512.465	25400.1
512.667	26127.13
512.87	26637.08
513.072	27015.95
513.274	27812.61
513.477	28287.74
513.679	29076.21
513.881	29780.71
514.084	30370.52
514.286	30419.67
514.488	30972.63
514.69	32467.64
514.893	32752.31
515.095	33282.73
515.297	34282.14
515.499	34394.78
515.701	35492.49
515.904	36342.4
516.106	36954.74
516.308	37636.72
516.51	38394.46
516.712	39115.35
516.914	39815.76
517.116	40835.64
517.318	41888.3
517.52	42000.94
517.722	42379.81
517.925	43598.35
518.127	44476.93
518.329	45160.95
518.531	45210.1
518.733	46555.62
518.935	47200.73
519.136	47563.22
519.338	48454.09
519.54	49064.38
519.742	50194.86
519.944	50452.9
520.146	51743.13
520.348	52210.06
520.55	52441.48
520.752	53033.35
520.954	53963.12
521.155	54014.32
521.357	55120.23
521.559	55427.42
521.761	56465.74
521.963	55910.74
522.164	57252.16
522.366	57250.11
522.568	58050.87
522.77	58267.95
522.971	58849.58
523.173	58829.1
523.375	59078.95
523.576	59250.98
523.778	59369.76
523.98	60051.73
524.181	60186.9
524.383	60150.04
524.584	60969.22
524.786	60576.01
524.988	60668.17
525.189	61200.64
525.391	60850.44
525.592	61272.32
525.794	61358.34
525.995	60938.5
526.197	61061.38
526.398	61122.82
526.6	61053.19
526.801	60772.62
527.003	60782.86
527.204	60492.05
527.406	60381.46
527.607	60021.01
527.808	60496.14
528.01	58945.83
528.211	59167.01
528.412	59599.13
528.614	58708.27
528.815	58519.85
529.016	58530.09
529.218	57174.34
529.419	57104.71
529.62	56625.48
529.822	56516.94
530.023	55329.12
530.224	55142.75
530.425	55032.16
530.626	54180.21
530.828	52951.43
531.029	53612.92
531.23	52627.85
531.431	51890.58
531.632	51782.04
531.833	51272.09
532.035	50819.49
532.236	49713.59
532.437	49539.51
532.638	48650.69
532.839	48218.57
533.04	47841.74
533.241	46404.07
533.442	46598.63
533.643	45615.6
533.844	45175.29
534.045	44694.02
534.246	43819.53
534.447	43674.13
534.648	42785.31
534.849	42508.83
535.05	41415.22
535.251	41597.49
535.451	40606.27
535.652	40219.2
535.853	39754.32
536.054	39561.81
536.255	38535.77
536.456	37988.97
536.657	37898.86
536.857	36829.82
537.058	36393.6
537.259	36301.44
537.46	35721.87
537.66	35103.38
537.861	35113.62
538.062	34114.21
538.263	33876.65
538.463	33221.3
538.664	33219.25
538.865	32582.33
539.065	32221.89
539.266	31589.06
539.466	31599.3
539.667	30511.83
539.868	31072.98
540.068	30448.35
540.269	29860.58
540.469	29844.2
540.67	29117.17
540.87	28744.44
541.071	28609.27
541.271	28502.78
541.472	27880.19
541.672	27382.54
541.873	27233.04
542.073	26938.13
542.274	26868.5
542.474	26354.46
542.675	26178.33
542.875	26028.83
543.075	25449.25
543.276	24724.27
543.476	25013.04
543.676	24666.93
543.877	24550.2
544.077	24171.32
544.277	23939.9
544.478	23673.67
544.678	23720.77
544.878	22848.33
545.078	22954.83
545.279	22428.5
545.479	22074.2
545.679	22057.82
545.879	21615.46
546.079	21443.43
546.28	21191.53
546.48	20945.77
546.68	21031.79
546.88	20702.06
547.08	20425.59
547.28	19950.46
547.48	19473.28
547.68	19725.18
547.88	19041.16
548.081	19121.03
548.281	18639.76
548.481	18592.65
548.681	18559.89
548.881	18232.21
549.081	17877.91
549.28	17630.11
549.48	17626.01
549.68	17355.68
549.88	17320.87
550.08	16726.96
550.28	16829.35
550.48	16382.9
550.68	16219.06
550.88	15946.68
551.08	15834.04
551.279	15541.18
551.479	15238.08
551.679	15272.9
551.879	14824.39
552.079	14562.25
552.278	14375.89
552.478	14283.73
552.678	14087.12
552.878	13900.76
553.077	13425.63
553.277	13110.24
553.477	13409.25
553.676	13093.86
553.876	12676.07
554.076	12473.32
554.275	12325.87
554.475	12057.59
554.674	12164.08
554.874	11707.38
555.074	11586.55
555.273	11449.34
555.473	11342.85
555.672	11127.81
555.872	10861.57
556.071	10761.22
556.271	10914.82
556.47	10406.92
556.67	10175.5
556.869	10181.65
557.068	9868.31
557.268	9823.25
557.467	9530.39
557.667	9647.13
557.866	9196.57
558.065	9055.26
558.265	8948.77
558.464	8633.38
558.663	8877.09
558.863	8655.91
559.062	8549.42
559.261	8229.93
559.461	8336.43
559.66	7963.7
559.859	7908.4
560.058	7625.78
560.258	7740.47
560.457	7416.89
560.656	7486.52
560.855	7095.36
561.054	7218.24
561.253	7150.65
561.453	7052.35
561.652	6841.41
561.851	6865.99
562.05	6771.78
562.249	6495.3
562.448	6726.72
562.647	6384.71
562.846	6251.6
563.045	6288.46
563.244	5864.53
563.443	6095.95
563.642	6032.46
563.841	5997.65
564.04	5784.66
564.239	5676.12
564.438	5446.74
564.637	5493.85
564.836	5540.95
565.035	5497.94
565.234	5278.81
565.432	5297.24
565.631	5196.89
565.83	5094.49
566.029	4850.78
566.228	4977.76
566.427	4842.59
566.625	4912.22
566.824	4734.05
567.023	4637.8
567.222	4484.2
567.42	4523.11
567.619	4588.64
567.818	4408.42
568.016	4580.45
568.215	4422.76
568.414	4291.69
568.612	4281.45
568.811	4047.98
569.01	4023.41
569.208	4056.17
569.407	4123.76
569.605	3968.11
569.804	3859.57
570.002	3736.69
570.201	3697.78
570.4	3640.44
570.598	3601.52
570.797	3607.67
570.995	3576.95
571.193	3445.88
571.392	3507.32
571.59	3316.86
571.789	3488.89
571.987	3208.31
572.186	3355.77
572.384	3138.68
572.582	3054.72
572.781	3126.39
572.979	2956.41
573.177	2956.41
573.376	2899.07
573.574	2935.93
573.772	2794.62
573.971	2770.05
574.169	2851.97
574.367	2837.63
574.565	2587.78
574.763	2724.99
574.962	2575.49
575.16	2571.4
575.358	2350.21
575.556	2419.85
575.754	2466.95
575.952	2389.13
576.151	2370.69
576.349	2374.79
576.547	2159.75
576.745	2309.26
576.943	2169.99
577.141	2186.38
577.339	2094.22
577.537	2126.99
577.735	2102.41
577.933	2100.36
578.131	2000.01
578.329	1954.96
578.527	1957
578.725	1979.53
578.923	1916.05
579.121	1821.84
579.319	1741.97
579.516	1846.41
579.714	1844.37
579.912	1791.12
580.11	1701.01
580.308	1614.99
580.506	1684.62
580.704	1600.66
580.901	1668.24
581.099	1787.02
581.297	1565.84
581.495	1631.38
581.692	1551.51
581.89	1731.73
582.088	1526.93
582.285	1522.84
582.483	1420.44
582.681	1354.9
582.878	1537.17
583.076	1479.83
583.274	1385.62
583.471	1571.99
583.669	1338.52
583.866	1285.27
584.064	1203.35
584.262	1191.06
584.459	1303.7
584.657	1264.79
584.854	1328.28
585.052	1311.89
585.249	1250.46
585.447	1168.54
585.644	1090.71
585.841	1244.31
586.039	1125.53
586.236	1242.26
586.434	1189.02
586.631	1055.9
586.828	1037.47
587.026	1125.53
587.223	982.17
587.42	976.03
587.618	1045.66
587.815	1111.19
588.012	982.17
588.21	1000.6
588.407	1045.66
588.604	1068.19
588.801	941.21
588.999	976.03
589.196	978.08
589.393	842.91
589.59	945.31
589.787	926.88
589.984	904.35
590.182	1031.32
590.379	797.85
590.576	849.05
590.773	910.49
590.97	894.11
591.167	943.26
591.364	902.3
591.561	875.68
591.758	955.55
591.955	912.54
592.152	865.44
592.349	797.85
592.546	834.72
592.743	787.61
592.94	840.86
593.137	822.43
593.334	1029.27
593.531	890.01
593.727	844.96
593.924	963.74
594.121	812.19
594.318	863.39
594.515	902.3
594.712	953.5
594.908	955.55
595.105	775.33
595.302	980.12
595.499	1002.65
595.696	1027.23
595.892	933.02
596.089	1027.23
596.286	1023.13
596.482	1070.23
596.679	1109.15
596.876	1016.99
597.072	1172.63
597.269	1019.04
597.466	1201.3
597.662	1176.73
597.859	1193.11
598.055	1295.51
598.252	1326.23
598.448	1348.76
598.645	1397.91
598.841	1426.58
599.038	1541.27
599.234	1655.95
599.431	1647.76
599.627	1598.61
599.824	1817.74
600.02	1807.5
600.217	1842.32
600.413	2036.88
600.609	1991.82
600.806	2319.5
601.002	2081.93
601.198	2135.18
601.395	2460.81
601.591	2270.34
601.787	2538.63
601.984	2499.72
602.18	2696.32
602.376	2770.05
602.572	2849.92
602.769	3122.3
602.965	3224.7
603.161	3249.27
603.357	3249.27
603.553	3525.75
603.75	3632.24
603.946	3697.78
604.142	3789.94
604.338	4033.65
604.534	4043.88
604.73	4160.62
604.926	4422.76
605.122	4576.36
605.318	4602.98
605.514	4969.57
605.71	4867.17
605.906	5207.13
606.102	5272.67
606.298	5477.46
606.494	5475.42
606.69	5842
606.886	5878.86
607.082	6208.59
607.278	6171.72
607.474	6233.16
607.67	6630.47
607.866	6724.68
608.062	7148.61
608.257	7193.66
608.453	7191.61
608.649	7646.26
608.845	7732.28
609.041	7816.24
609.236	8162.35
609.432	8555.56
609.628	8662.05
609.824	8944.67
610.019	9040.93
610.215	9317.4
610.411	9643.03
610.606	10040.34
610.802	10234.89
610.998	10376.2
611.193	10736.65
611.389	10837
611.584	11189.25
611.78	11619.32
611.976	11748.34
612.171	12235.76
612.367	12452.84
612.562	12848.1
612.758	12948.45
612.953	13296.61
613.149	13972.44
613.344	14179.28
613.539	14830.54
613.735	15092.68
613.93	15383.49
614.126	15774.65
614.321	16171.96
614.517	16847.79
614.712	17175.46
614.907	17630.11
615.103	18234.26
615.298	18211.73
615.493	18912.14
615.688	19356.55
615.884	20097.91
616.079	20194.17
616.274	20947.82
616.47	21189.48
616.665	21764.96
616.86	22522.71
617.055	22952.78
617.25	23180.1
617.445	24519.48
617.641	24554.29
617.836	25353
618.031	25576.23
618.226	26893.07
618.421	27079.44
618.616	27663.11
618.811	28168.96
619.006	29393.64
619.201	29201.13
619.396	30456.54
619.591	30690.01
619.786	31740.61
619.981	31963.84
620.176	33209.01
620.371	33409.71
620.566	34712.22
620.761	35084.95
620.956	36233.86
621.151	36524.67
621.346	37288.56
621.541	37493.36
621.735	39045.72
621.93	39352.91
622.125	39819.85
622.32	40200.77
622.515	41411.12
622.709	42269.22
622.904	43090.46
623.099	43508.24
623.294	44612.1
623.488	44816.89
623.683	46176.75
623.878	45990.38
624.072	47196.63
624.267	48153.04
624.462	48163.28
624.656	49203.64
624.851	50667.94
625.046	50194.86
625.24	51595.67
625.435	51874.2
625.629	53047.68
625.824	53139.84
626.018	53868.92
626.213	53789.05
626.407	55232.86
626.602	55193.95
626.796	56648.01
626.991	56813.9
627.185	57356.61
627.38	57303.36
627.574	57786.68
627.768	57729.34
627.963	57796.92
628.157	58302.77
628.352	59148.58
628.546	58143.03
628.74	58945.83
628.935	58599.72
629.129	58743.08
629.323	58530.09
629.517	58429.74
629.712	58042.68
629.906	57551.16
630.1	56985.93
630.294	56496.46
630.489	56136.02
630.683	56097.11
630.877	54444.4
631.071	53752.18
631.265	53014.91
631.459	52031.89
631.653	50768.29
631.848	50248.11
632.042	48871.87
632.236	48069.07
632.43	46227.95
632.624	45466.1
632.818	43588.11
633.012	42191.4
633.206	41476.66
633.4	40643.13
633.594	38808.15
633.788	37845.61
633.982	36723.32
634.176	35238.54
634.369	33755.82
634.563	32912.05
634.757	31378.12
634.951	30407.39
635.145	29299.44
635.339	28330.75
635.533	26921.74
635.726	25930.53
635.92	24412.98
636.114	23978.81
636.308	23077.71
636.501	22127.45
636.695	21087.08
636.889	19940.22
637.083	19360.64
637.276	18344.85
637.47	17851.29
637.664	16962.47
637.857	16675.76
638.051	15885.24
638.244	15117.25
638.438	14699.47
638.632	13839.32
638.825	13097.95
639.019	12997.6
639.212	12260.34
639.406	11850.74
639.599	11387.9
639.793	10916.87
639.986	10306.57
640.18	10271.76
640.373	9671.7
640.567	9337.88
640.76	9167.9
640.954	8807.46
641.147	8373.29
641.34	7881.78
641.534	7689.27
641.727	7511.1
641.92	7230.52
642.114	6943.81
642.307	6655.05
642.5	6249.55
642.694	6093.9
642.887	6077.52
643.08	5829.71
643.273	5424.22
643.467	5239.9
643.66	4996.19
643.853	4732
644.046	4623.46
644.239	4478.05
644.432	4142.19
644.626	4183.15
644.819	4168.81
645.012	3769.46
645.205	3765.36
645.398	3617.91
645.591	3462.26
645.784	3107.96
645.977	3163.26
646.17	3007.61
646.363	2985.09
646.556	2696.32
646.749	2761.86
646.942	2679.94
647.135	2518.15
647.328	2262.15
647.521	2337.93
647.714	2198.67
647.907	2147.47
648.099	1909.9
648.292	2178.19
648.485	1877.13
648.678	1807.5
648.871	1823.89
649.064	1701.01
649.256	1551.51
649.449	1506.45
649.642	1582.23
649.835	1442.96
650.027	1416.34
650.22	1408.15
650.413	1383.57
650.605	1391.77
650.798	1256.6
650.991	1299.61
651.183	1141.91
651.376	1191.06
651.568	1121.43
651.761	1055.9
651.954	988.32
652.146	980.12
652.339	957.6
652.531	1100.95
652.724	914.59
652.916	894.11
653.109	736.42
653.301	849.05
653.494	849.05
653.686	842.91
653.879	806.05
654.071	754.85
654.263	758.94
654.456	627.87
654.648	773.28
654.84	715.94
655.033	588.96
655.225	697.5
655.417	480.42
655.61	650.4
655.802	693.41
655.994	672.93
656.186	550.05
656.379	674.98
656.571	543.91
656.763	488.61
656.955	504.99
657.148	429.22
657.34	595.11
657.532	466.08
657.724	521.38
657.916	492.71
658.108	498.85
658.3	507.04
658.492	461.99
658.684	351.4
658.876	418.98
659.068	322.73
659.26	236.71
659.452	326.82
659.644	353.45
659.836	425.12
660.028	378.02
660.22	371.88
660.412	375.97
660.604	349.35
660.796	298.15
660.988	375.97
661.18	320.68
661.372	382.12
661.563	240.81
661.755	253.09
661.947	210.09
662.139	208.04
662.331	228.52
662.522	263.33
662.714	267.43
662.906	289.96
663.097	224.42
663.289	314.53
663.481	191.66
663.673	203.94
663.864	253.09
664.056	296.1
664.247	101.55
664.439	328.87
664.631	216.23
664.822	326.82
665.014	201.9
665.205	193.7
665.397	179.37
665.588	140.46
665.78	289.96
665.971	208.04
666.163	265.38
666.354	353.45
666.546	208.04
666.737	236.71
666.929	148.65
667.12	185.51
667.311	226.47
667.503	181.42
667.694	251.05
667.885	203.94
668.077	228.52
668.268	128.17
668.459	218.28
668.651	283.81
668.842	242.85
669.033	228.52
669.224	160.94
669.416	353.45
669.607	232.62
669.798	203.94
669.989	283.81
670.18	205.99
670.371	259.24
670.563	142.5
670.754	269.48
670.945	259.24
671.136	283.81
671.327	181.42
671.518	230.57
671.709	373.92
671.9	232.62
672.091	314.53
672.282	261.29
672.473	220.33
672.664	214.18
672.855	242.85
673.046	210.09
673.237	298.15
673.428	238.76
673.619	226.47
673.809	173.22
674	357.54
674.191	322.73
674.382	265.38
674.573	257.19
674.764	218.28
674.954	265.38
675.145	173.22
675.336	185.51
675.527	265.38
675.717	179.37
675.908	306.34
676.099	263.33
676.289	328.87
676.48	113.83
676.671	287.91
676.861	253.09
677.052	294.05
677.243	251.05
677.433	218.28
677.624	310.44
677.814	251.05
678.005	287.91
678.195	421.03
678.386	326.82
678.576	218.28
678.767	255.14
678.957	236.71
679.148	382.12
679.338	412.84
679.529	347.3
679.719	320.68
679.909	367.78
680.1	400.55
680.29	406.69
680.481	249
680.671	363.69
680.861	390.31
681.052	230.57
681.242	332.97
681.432	404.64
681.622	318.63
681.813	312.49
682.003	380.07
682.193	300.2
682.383	369.83
682.573	355.49
682.764	316.58
682.954	353.45
683.144	406.69
683.334	285.86
683.524	326.82
683.714	302.25
683.904	357.54
684.094	353.45
684.284	345.25
684.474	519.33
684.664	441.51
684.854	322.73
685.044	298.15
685.234	312.49
685.424	390.31
685.614	253.09
685.804	449.7
685.994	316.58
686.184	353.45
686.374	365.73
686.564	398.5
686.753	418.98
686.943	275.62
687.133	394.4
687.323	322.73
687.513	433.32
687.702	392.36
687.892	255.14
688.082	449.7
688.272	423.08
688.461	300.2
688.651	511.14
688.841	357.54
689.03	355.49
689.22	306.34
689.41	314.53
689.599	455.84
689.789	257.19
689.979	449.7
690.168	320.68
690.358	431.27
690.547	318.63
690.737	359.59
690.926	351.4
691.116	351.4
691.305	408.74
691.495	416.93
691.684	261.29
691.874	318.63
692.063	365.73
692.252	371.88
692.442	314.53
692.631	318.63
692.82	306.34
693.01	382.12
693.199	418.98
693.388	347.3
693.578	337.06
693.767	285.86
693.956	238.76
694.146	283.81
694.335	349.35
694.524	306.34
694.713	359.59
694.902	279.72
695.092	339.11
695.281	316.58
695.47	294.05
695.659	289.96
695.848	283.81
696.037	265.38
696.226	386.21
696.415	289.96
696.604	312.49
696.793	351.4
696.982	283.81
697.171	423.08
697.36	232.62
697.549	289.96
697.738	136.36
697.927	269.48
698.116	244.9
698.305	271.53
698.494	339.11
698.683	318.63
698.872	380.07
699.061	294.05
699.25	349.35
699.438	263.33
699.627	218.28
699.816	406.69
700.005	183.46
700.193	251.05
700.382	285.86
700.571	318.63
700.76	296.1
700.948	306.34
701.137	277.67
701.326	341.16
701.514	240.81
701.703	316.58
701.892	273.57
702.08	435.36
702.269	341.16
702.457	199.85
702.646	349.35
702.834	226.47
703.023	261.29
703.212	410.79
703.4	251.05
703.589	296.1
703.777	271.53
703.965	183.46
704.154	249
704.342	205.99
704.531	271.53
704.719	255.14
704.907	435.36
705.096	169.13
705.284	210.09
705.472	289.96
705.661	283.81
705.849	283.81
706.037	355.49
706.226	199.85
706.414	320.68
706.602	228.52
706.79	328.87
706.979	273.57
707.167	279.72
707.355	263.33
707.543	283.81
707.731	287.91
707.919	246.95
708.107	251.05
708.296	111.78
708.484	165.03
708.672	337.06
708.86	193.7
709.048	201.9
709.236	185.51
709.424	369.83
709.612	296.1
709.8	97.45
709.988	351.4
710.176	361.64
710.364	402.6
710.551	236.71
710.739	222.38
710.927	165.03
711.115	345.25
711.303	255.14
711.491	316.58
711.679	240.81
711.866	320.68
712.054	195.75
712.242	228.52
712.43	257.19
712.617	232.62
712.805	343.21
712.993	218.28
713.181	142.5
713.368	328.87
713.556	230.57
713.744	165.03
713.931	466.08
714.119	298.15
714.306	230.57
714.494	226.47
714.682	271.53
714.869	195.75
715.057	244.9
715.244	138.41
715.432	326.82
715.619	255.14
715.807	263.33
715.994	287.91
716.182	167.08
716.369	257.19
716.556	341.16
716.744	193.7
716.931	140.46
717.119	359.59
717.306	279.72
717.493	246.95
717.681	253.09
717.868	289.96
718.055	312.49
718.242	326.82
718.43	285.86
718.617	310.44
718.804	244.9
718.991	382.12
719.179	353.45
719.366	337.06
719.553	304.29
719.74	349.35
719.927	234.66
720.114	337.06
720.301	214.18
720.488	308.39
720.676	187.56
720.863	357.54
721.05	408.74
721.237	349.35
721.424	308.39
721.611	398.5
721.798	203.94
721.985	269.48
722.172	236.71
722.358	302.25
722.545	371.88
722.732	392.36
722.919	429.22
723.106	324.77
723.293	259.24
723.48	355.49
723.667	234.66
723.853	347.3
724.04	285.86
724.227	367.78
724.414	283.81
724.6	378.02
724.787	345.25
724.974	357.54
725.161	267.43
725.347	224.42
725.534	283.81
725.72	294.05
725.907	380.07
726.094	408.74
726.28	205.99
726.467	287.91
726.653	271.53
726.84	427.17
727.027	457.89
727.213	324.77
727.4	302.25
727.586	228.52
727.773	373.92
727.959	294.05
728.145	255.14
728.332	302.25
728.518	330.92
728.705	363.69
728.891	314.53
729.077	349.35
729.264	216.23
729.45	259.24
729.636	390.31
729.823	257.19
730.009	326.82
730.195	308.39
730.382	390.31
730.568	263.33
730.754	324.77
730.94	396.45
731.126	300.2
731.313	371.88
731.499	296.1
731.685	425.12
731.871	378.02
732.057	398.5
732.243	402.6
732.429	394.4
732.615	414.88
732.801	300.2
732.987	289.96
733.173	388.26
733.359	216.23
733.545	322.73
733.731	324.77
733.917	390.31
734.103	365.73
734.289	259.24
734.475	302.25
734.661	455.84
734.847	367.78
735.033	355.49
735.219	437.41
735.404	294.05
735.59	244.9
735.776	218.28
735.962	259.24
736.148	367.78
736.333	418.98
736.519	294.05
736.705	255.14
736.89	345.25
737.076	275.62
737.262	378.02
737.447	228.52
737.633	318.63
737.819	357.54
738.004	341.16
738.19	353.45
738.375	378.02
738.561	416.93
738.747	349.35
738.932	265.38
739.118	443.56
739.303	234.66
739.489	363.69
739.674	263.33
739.859	304.29
740.045	427.17
740.23	322.73
740.416	201.9
740.601	392.36
740.786	349.35
740.972	257.19
741.157	251.05
741.342	318.63
741.528	273.57
741.713	398.5
741.898	294.05
742.084	253.09
742.269	332.97
742.454	273.57
742.639	414.88
742.824	304.29
743.01	425.12
743.195	464.04
743.38	304.29
743.565	332.97
743.75	238.76
743.935	353.45
744.12	431.27
744.305	271.53
744.49	300.2
744.675	306.34
744.86	298.15
745.045	320.68
745.23	275.62
745.415	386.21
745.6	406.69
745.785	349.35
745.97	382.12
746.155	328.87
746.34	410.79
746.525	416.93
746.71	404.64
746.895	246.95
747.079	244.9
747.264	214.18
747.449	294.05
747.634	316.58
747.819	394.4
748.003	283.81
748.188	240.81
748.373	283.81
748.557	294.05
748.742	244.9
748.927	326.82
749.111	298.15
749.296	308.39
749.481	408.74
749.665	191.66
749.85	218.28
750.034	285.86
750.219	230.57
750.404	275.62
750.588	359.59
750.773	201.9
750.957	261.29
751.141	216.23
751.326	269.48
751.51	236.71
751.695	242.85
751.879	214.18
752.064	373.92
752.248	244.9
752.432	343.21
752.617	371.88
752.801	257.19
752.985	251.05
753.17	238.76
753.354	173.22
753.538	273.57
753.722	226.47
753.907	185.51
754.091	89.26
754.275	259.24
754.459	81.07
754.643	148.65
754.828	173.22
755.012	199.85
755.196	132.26
755.38	228.52
755.564	197.8
755.748	115.88
755.932	175.27
756.116	269.48
756.3	259.24
756.484	119.98
756.668	261.29
756.852	42.15
757.036	226.47
757.22	146.6
757.404	68.78
757.588	173.22
757.772	232.62
757.956	105.64
758.14	287.91
758.323	134.31
758.507	203.94
758.691	201.9
758.875	197.8
759.059	316.58
759.242	76.97
759.426	208.04
759.61	222.38
759.794	91.31
759.977	271.53
760.161	347.3
760.345	222.38
760.528	230.57
760.712	244.9
760.895	193.7
761.079	189.61
761.263	130.22
761.446	156.84
761.63	140.46
761.813	255.14
761.997	122.02
762.18	175.27
762.364	314.53
762.547	21.67
762.731	111.78
762.914	195.75
763.098	183.46
763.281	142.5
763.464	111.78
763.648	162.98
763.831	148.65
764.015	138.41
764.198	251.05
764.381	99.5
764.564	136.36
764.748	193.7
764.931	222.38
765.114	124.07
765.297	160.94
765.481	36.01
765.664	111.78
765.847	111.78
766.03	210.09
766.213	42.15
766.397	109.74
766.58	97.45
766.763	234.66
766.946	105.64
767.129	101.55
767.312	25.77
767.495	216.23
767.678	40.11
767.861	87.21
768.044	142.5
768.227	99.5
768.41	122.02
768.593	136.36
768.776	132.26
768.959	111.78
769.142	185.51
769.324	97.45
769.507	97.45
769.69	138.41
769.873	124.07
770.056	306.34
770.239	171.18
770.421	169.13
770.604	138.41
770.787	144.55
770.97	113.83
771.152	93.35
771.335	169.13
771.518	-31.57
771.7	201.9
771.883	179.37
772.066	66.73
772.248	126.12
772.431	162.98
772.613	167.08
772.796	21.67
772.978	105.64
773.161	191.66
773.343	72.87
773.526	70.83
773.708	-50
773.891	25.77
774.073	1.19
774.256	-58.2
774.438	283.81
774.621	13.48
774.803	103.59
774.985	25.77
775.168	126.12
775.35	62.63
775.532	148.65
775.715	42.15
775.897	117.93
776.079	85.16
776.261	130.22
776.444	52.39
776.626	31.91
776.808	13.48
776.99	29.87
777.173	144.55
777.355	42.15
777.537	-17.24
777.719	72.87
777.901	56.49
778.083	48.3
778.265	-45.91
778.447	126.12
778.629	-0.85
778.811	85.16
778.993	169.13
779.175	119.98
779.357	113.83
779.539	31.91
779.721	58.54
779.903	76.97
780.085	7.34
780.267	21.67
780.449	89.26
780.631	72.87
780.812	175.27
780.994	38.06
781.176	140.46
781.358	54.44
781.54	87.21
781.721	115.88
781.903	109.74
782.085	27.82
782.267	89.26
782.448	15.53
782.63	17.58
782.812	52.39
782.993	93.35
783.175	171.18
783.357	50.35
783.538	126.12
783.72	21.67
783.901	83.11
784.083	95.4
784.264	79.02
784.446	-99.16
784.627	76.97
784.809	111.78
784.99	42.15
785.172	50.35
785.353	148.65
785.535	95.4
785.716	19.63
785.897	-39.76
786.079	72.87
786.26	46.25
786.441	162.98
786.623	3.24
786.804	-127.83
786.985	79.02
787.167	130.22
787.348	15.53
787.529	81.07
787.71	150.7
787.891	119.98
788.073	-37.72
788.254	-21.33
788.435	152.74
788.616	46.25
788.797	-47.96
788.978	64.68
789.159	52.39
789.34	109.74
789.522	44.2
789.703	31.91
789.884	81.07
790.065	76.97
790.246	113.83
790.427	-19.29
790.607	122.02
790.788	138.41
790.969	-23.38
791.15	58.54
791.331	19.63
791.512	25.77
791.693	-29.52
791.874	-31.57
792.054	115.88
792.235	31.91
792.416	-23.38
792.597	21.67
792.778	70.83
792.958	66.73
793.139	81.07
793.32	44.2
793.5	-88.92
793.681	107.69
793.862	103.59
794.042	50.35
794.223	-158.55
794.404	-0.85
794.584	-58.2
794.765	-50
794.945	-27.48
795.126	58.54
795.306	97.45
795.487	56.49
795.667	72.87
795.848	52.39
796.028	46.25
796.209	52.39
796.389	42.15
796.57	48.3
796.75	-23.38
796.93	25.77
797.111	-17.24
797.291	-62.29
797.471	124.07
797.652	36.01
797.832	-31.57
798.012	27.82
798.192	-15.19
798.373	-93.01
798.553	33.96
798.733	-11.09
798.913	19.63
799.093	56.49
799.274	31.91
799.454	93.35
799.634	60.59
799.814	66.73
799.994	101.55
800.174	58.54
800.354	54.44
800.534	-90.96
800.714	111.78
800.894	-37.72
801.074	-64.34
801.254	-90.96
801.434	91.31
801.614	5.29
801.794	-0.85
801.974	1752.21
802.154	-35.67
802.334	160.94
802.514	-11.09
802.693	1.19
802.873	-13.14
803.053	70.83
803.233	38.06
803.413	-43.86
803.592	-47.96
803.772	1.19
803.952	7.34
804.131	-11.09
804.311	38.06
804.491	50.35
804.67	-29.52
804.85	-62.29
805.03	130.22
805.209	99.5
805.389	66.73
805.568	-0.85
805.748	-7
805.928	-9.05
806.107	42.15
806.287	19.63
806.466	-4.95
806.646	-13.14
806.825	31.91
807.004	5.29
807.184	64.68
807.363	42.15
807.543	-17.24
807.722	-33.62
807.901	93.35
808.081	52.39
808.26	-107.35
808.439	58.54
808.619	-72.53
808.798	31.91
808.977	-0.85
809.156	93.35
809.336	66.73
809.515	85.16
809.694	-13.14
809.873	-0.85
810.052	64.68
810.231	-27.48
810.411	5.29
810.59	79.02
810.769	-50
810.948	44.2
811.127	-142.16
811.306	-45.91
811.485	23.72
811.664	128.17
811.843	-35.67
812.022	-35.67
812.201	38.06
812.38	107.69
812.559	-68.44
812.737	76.97
812.916	-60.24
813.095	-43.86
813.274	60.59
813.453	1.19
813.632	72.87
813.811	48.3
813.989	-43.86
814.168	-11.09
814.347	-27.48
814.526	-15.19
814.704	91.31
814.883	64.68
815.062	-109.4
815.24	128.17
815.419	-4.95
815.598	50.35
815.776	-90.96
815.955	38.06
816.133	-93.01
816.312	9.39
816.49	-66.39
816.669	-0.85
816.847	17.58
817.026	-0.85
817.204	60.59
817.383	-45.91
817.561	-7
817.74	9.39
817.918	48.3
818.097	-31.57
818.275	-23.38
818.453	66.73
818.632	48.3
818.81	-17.24
818.988	-56.15
819.167	-47.96
819.345	50.35
819.523	-33.62
819.701	-9.05
819.879	46.25
820.058	60.59
820.236	50.35
820.414	3.24
820.592	66.73
820.77	-60.24
820.948	-17.24
821.127	-35.67
821.305	48.3
821.483	-25.43
821.661	79.02
821.839	52.39
822.017	-88.92
822.195	-107.35
822.373	36.01
822.551	44.2
822.729	52.39
822.907	-23.38
823.085	115.88
823.262	64.68
823.44	-35.67
823.618	-76.63
823.796	21.67
823.974	-68.44
824.152	-15.19
824.329	1.19
824.507	66.73
824.685	48.3
824.863	-4.95
825.04	52.39
825.218	44.2
825.396	74.92
825.574	15.53
825.751	66.73
825.929	107.69
826.107	-80.72
826.284	11.43
826.462	89.26
826.639	-72.53
826.817	-64.34
826.994	68.78
827.172	-74.58
827.349	177.32
827.527	79.02
827.704	64.68
827.882	60.59
828.059	1.19
828.237	-41.81
828.414	48.3
828.591	-113.49
828.769	62.63
828.946	-25.43
829.124	64.68
829.301	46.25
829.478	-7
829.655	72.87
829.833	7.34
830.01	-80.72
830.187	62.63
830.364	62.63
830.542	-17.24
830.719	76.97
830.896	9.39
831.073	40.11
831.25	11.43
831.427	21.67
831.604	13.48
831.782	-52.05
831.959	33.96
832.136	-43.86
832.313	31.91
832.49	-47.96
832.667	52.39
832.844	-76.63
833.021	154.79
833.198	-0.85
833.374	38.06
833.551	50.35
833.728	62.63
833.905	103.59
834.082	-76.63
834.259	1.19
834.436	46.25
834.612	-72.53
834.789	48.3
834.966	46.25
835.143	-0.85
835.319	-25.43
835.496	13.48
835.673	79.02
835.85	46.25
836.026	38.06
836.203	-9.05
836.38	-45.91
836.556	-4.95
836.733	25.77
836.909	140.46
837.086	64.68
837.262	-11.09
837.439	52.39
837.616	1.19
837.792	-37.72
837.968	17.58
838.145	-129.88
838.321	52.39
838.498	81.07
838.674	111.78
838.851	-7
839.027	-39.76
839.203	72.87
839.38	21.67
839.556	15.53
839.732	58.54
839.909	11.43
840.085	167.08
840.261	-99.16
840.437	-25.43
840.614	-58.2
840.79	105.64
840.966	38.06
841.142	38.06
841.318	25.77
841.494	70.83
841.671	91.31
841.847	-35.67
842.023	-52.05
842.199	38.06
842.375	91.31
842.551	-47.96
842.727	-47.96
842.903	40.11
843.079	-64.34
843.255	119.98
843.431	25.77
843.607	9.39
843.783	-160.59
843.959	-50
844.134	-9.05
844.31	89.26
844.486	31.91
844.662	-21.33
844.838	5.29
845.013	27.82
845.189	7.34
845.365	11.43
845.541	56.49
845.716	-4.95
845.892	103.59
846.068	-54.1
846.244	-39.76
846.419	-31.57
846.595	13.48
846.77	-60.24
846.946	58.54
847.122	-29.52
847.297	-52.05
847.473	195.75
847.648	-60.24
847.824	56.49
847.999	-125.78
848.175	-25.43
848.35	-21.33
848.526	72.87
848.701	11.43
848.876	79.02
849.052	99.5
849.227	-78.68
849.403	9.39
849.578	-72.53
849.753	1.19
849.929	46.25
850.104	-37.72
850.279	-31.57
850.454	21.67
850.63	19.63
850.805	74.92
850.98	1.19
851.155	-27.48
851.33	95.4
851.505	-88.92
851.681	130.22
851.856	-80.72
852.031	-33.62
852.206	-31.57
852.381	-47.96
852.556	-15.19
852.731	5.29
852.906	109.74
853.081	50.35
853.256	79.02
853.431	-2.9
853.606	-72.53
853.781	11.43
853.956	-142.16
854.131	38.06
854.305	-90.96
854.48	64.68
854.655	-0.85
854.83	-64.34
855.005	-39.76
855.18	1.19
855.354	-15.19
855.529	148.65
855.704	-78.68
855.879	44.2
856.053	31.91
856.228	-7
856.403	-133.97
856.577	87.21
856.752	-125.78
856.926	17.58
857.101	60.59
857.276	-70.48
857.45	-45.91
857.625	17.58
857.799	-43.86
857.974	42.15
858.148	-52.05
858.323	13.48
858.497	-70.48
858.672	-66.39
858.846	-123.73
859.02	25.77
859.195	-123.73
859.369	-41.81
859.543	29.87
859.718	44.2
859.892	31.91
860.066	-50
860.241	-70.48
860.415	-66.39
860.589	-27.48
860.763	19.63
860.938	-50
861.112	48.3
861.286	-47.96
861.46	60.59
861.634	1.19
861.808	68.78
861.982	-140.12
862.157	-25.43
862.331	-72.53
862.505	-176.98
862.679	-80.72
862.853	-64.34
863.027	-41.81
863.201	136.36
863.375	-56.15
863.549	44.2
863.722	1.19
863.896	117.93
864.07	33.96
864.244	-4.95
864.418	13.48
864.592	60.59
864.766	-31.57
864.939	-31.57
865.113	5.29
865.287	70.83
865.461	-41.81
865.634	-56.15
865.808	-9.05
865.982	-41.81
866.156	-33.62
866.329	-150.36
866.503	-37.72
866.676	44.2
866.85	5.29
867.024	40.11
867.197	21.67
867.371	13.48
867.544	3.24
867.718	-2.9
867.891	70.83
868.065	-76.63
868.238	-13.14
868.412	68.78
868.585	-54.1
868.759	-29.52
868.932	13.48
869.105	-52.05
869.279	23.72
869.452	-39.76
869.625	25.77
869.799	-25.43
869.972	-43.86
870.145	-9.05
870.319	54.44
870.492	-23.38
870.665	-23.38
870.838	42.15
871.011	-127.83
871.185	-29.52
871.358	-2.9
871.531	68.78
871.704	-13.14
871.877	-0.85
872.05	1.19
872.223	-111.44
872.396	66.73
872.569	27.82
872.742	-58.2
872.915	9.39
873.088	-31.57
873.261	-121.68
873.434	132.26
873.607	1.19
873.78	140.46
873.953	-105.3
874.126	11.43
874.299	91.31
874.471	-39.76
874.644	21.67
874.817	13.48
874.99	124.07
875.163	-25.43
875.335	72.87
875.508	-125.78
875.681	68.78
875.853	-84.82
876.026	46.25
876.199	99.5
876.371	-7
876.544	-39.76
876.717	-13.14
876.889	33.96
877.062	50.35
877.234	-64.34
877.407	-115.54
877.579	-23.38
877.752	9.39
877.924	11.43
878.097	89.26
878.269	-35.67
878.442	15.53
878.614	29.87
878.786	-39.76
878.959	-0.85
879.131	68.78
879.303	-68.44
879.476	-0.85
879.648	52.39
879.82	-50
879.993	-25.43
880.165	-58.2
880.337	-105.3
880.509	29.87
880.681	-172.88
880.854	-19.29
881.026	27.82
881.198	113.83
881.37	-15.19
881.542	-72.53
881.714	-29.52
881.886	-70.48
882.058	-29.52
882.23	54.44
882.402	5.29
882.574	44.2
882.746	101.55
882.918	117.93
883.09	74.92
883.262	-35.67
883.434	-78.68
883.606	-82.77
883.778	-97.11
883.95	136.36
884.122	-84.82
884.293	40.11
884.465	36.01
884.637	40.11
884.809	-37.72
884.98	3.24
885.152	62.63
885.324	7.34
885.496	27.82
885.667	-99.16
885.839	101.55
886.011	38.06
886.182	52.39
886.354	36.01
886.525	56.49
886.697	-50
886.869	-93.01
887.04	-4.95
887.212	56.49
887.383	107.69
887.555	5.29
887.726	-80.72
887.897	-7
888.069	-11.09
888.24	13.48
888.412	91.31
888.583	38.06
888.754	-21.33
888.926	-109.4
889.097	-21.33
889.268	-95.06
889.44	7.34
889.611	-84.82
889.782	-50
889.953	-111.44
890.125	81.07
890.296	-66.39
890.467	-41.81
890.638	-54.1
890.809	5.29
890.98	-66.39
891.151	68.78
891.323	60.59
891.494	-31.57
891.665	38.06
891.836	-15.19
892.007	-15.19
892.178	68.78
892.349	48.3
892.52	29.87
892.691	-23.38
892.862	-43.86
893.032	-121.68
893.203	-74.58
893.374	3.24
893.545	9.39
893.716	-76.63
893.887	31.91
894.057	-43.86
894.228	-35.67
894.399	-66.39
894.57	46.25
894.74	-9.05
894.911	62.63
895.082	-76.63
895.253	-7
895.423	23.72
895.594	103.59
895.764	3.24
895.935	-76.63
896.106	79.02
896.276	5.29
896.447	-29.52
896.617	-183.12
896.788	-4.95
896.958	-93.01
897.129	-74.58
897.299	-115.54
897.47	64.68
897.64	21.67
897.81	-13.14
897.981	-19.29
898.151	-45.91
898.322	-2.9
898.492	68.78
898.662	-101.2
898.832	-99.16
899.003	-17.24
899.173	97.45
899.343	-4.95
899.513	-84.82
