Data from USB4F104151__171__11-04-56-635.txt Node

Date: Wed Feb 26 11:04:56 EST 2025
User: louis
Spectrometer: USB4F10415
Trigger mode: 4
Integration Time (sec): 1.000000E-1
Scans to average: 1
Electric dark correction enabled: true
Nonlinearity correction enabled: false
Boxcar width: 0
XAxis mode: Wavelengths
Number of Pixels in Spectrum: 3648
>>>>>Begin Spectral Data<<<<<
178.204	-402.26
178.424	-402.26
178.644	-402.26
178.864	-414.54
179.084	-447.31
179.304	-43.86
179.524	-60.24
179.744	-45.91
179.964	19.63
180.184	27.82
180.404	111.78
180.624	-4.95
180.844	27.82
181.064	-52.05
181.283	-60.24
181.503	-17.24
181.723	97.45
181.943	-133.97
182.163	208.04
182.383	-37.72
182.602	-0.85
182.822	183.46
183.042	46.25
183.262	7.34
183.482	-29.52
183.701	-9.05
183.921	11.43
184.141	-2.9
184.361	50.35
184.58	48.3
184.8	19.63
185.02	-19.29
185.239	44.2
185.459	36.01
185.679	58.54
185.898	-88.92
186.118	91.31
186.338	33.96
186.557	138.41
186.777	-64.34
186.997	29.87
187.216	-45.91
187.436	126.12
187.655	-9.05
187.875	109.74
188.095	-17.24
188.314	40.11
188.534	70.83
188.753	-4.95
188.973	40.11
189.192	150.7
189.412	-2.9
189.631	31.91
189.851	87.21
190.07	162.98
190.29	-64.34
190.509	-60.24
190.729	48.3
190.948	122.02
191.168	214.18
191.387	87.21
191.607	56.49
191.826	31.91
192.045	-23.38
192.265	3.24
192.484	62.63
192.704	79.02
192.923	-9.05
193.142	173.22
193.362	99.5
193.581	33.96
193.8	9.39
194.02	15.53
194.239	44.2
194.458	27.82
194.678	-4.95
194.897	-50
195.116	68.78
195.335	-47.96
195.555	23.72
195.774	25.77
195.993	93.35
196.212	-4.95
196.432	-33.62
196.651	-2.9
196.87	50.35
197.089	304.29
197.308	95.4
197.528	19.63
197.747	-97.11
197.966	9.39
198.185	158.89
198.404	-43.86
198.623	83.11
198.842	115.88
199.062	42.15
199.281	79.02
199.5	46.25
199.719	85.16
199.938	52.39
200.157	23.72
200.376	-0.85
200.595	130.22
200.814	83.11
201.033	-21.33
201.252	105.64
201.471	46.25
201.69	117.93
201.909	-27.48
202.128	85.16
202.347	33.96
202.566	-29.52
202.785	-41.81
203.004	-37.72
203.223	224.42
203.442	-70.48
203.661	-39.76
203.879	79.02
204.098	97.45
204.317	-107.35
204.536	54.44
204.755	85.16
204.974	111.78
205.193	-52.05
205.411	97.45
205.63	54.44
205.849	46.25
206.068	58.54
206.287	-19.29
206.505	146.6
206.724	-58.2
206.943	-45.91
207.162	-37.72
207.381	36.01
207.599	11.43
207.818	-31.57
208.037	52.39
208.255	89.26
208.474	23.72
208.693	-33.62
208.911	13.48
209.13	42.15
209.349	81.07
209.567	11.43
209.786	44.2
210.005	64.68
210.223	62.63
210.442	-193.36
210.661	-41.81
210.879	60.59
211.098	58.54
211.316	81.07
211.535	117.93
211.753	87.21
211.972	109.74
212.191	23.72
212.409	21.67
212.628	140.46
212.846	-119.64
213.065	-11.09
213.283	105.64
213.502	3.24
213.72	40.11
213.938	1.19
214.157	5.29
214.375	46.25
214.594	-41.81
214.812	7.34
215.031	48.3
215.249	-21.33
215.467	60.59
215.686	40.11
215.904	31.91
216.122	48.3
216.341	79.02
216.559	33.96
216.778	101.55
216.996	144.55
217.214	17.58
217.432	-82.77
217.651	-84.82
217.869	-39.76
218.087	15.53
218.306	-76.63
218.524	42.15
218.742	-9.05
218.96	87.21
219.179	29.87
219.397	5.29
219.615	263.33
219.833	83.11
220.051	-72.53
220.27	124.07
220.488	83.11
220.706	42.15
220.924	-4.95
221.142	-0.85
221.36	72.87
221.578	87.21
221.796	-7
222.015	5.29
222.233	-15.19
222.451	117.93
222.669	-64.34
222.887	119.98
223.105	17.58
223.323	13.48
223.541	-101.2
223.759	50.35
223.977	64.68
224.195	205.99
224.413	17.58
224.631	25.77
224.849	52.39
225.067	210.09
225.285	-80.72
225.503	-52.05
225.721	-95.06
225.939	93.35
226.157	46.25
226.375	238.76
226.592	-43.86
226.81	56.49
227.028	144.55
227.246	91.31
227.464	38.06
227.682	13.48
227.9	99.5
228.117	38.06
228.335	103.59
228.553	-19.29
228.771	-15.19
228.989	13.48
229.206	117.93
229.424	-7
229.642	-103.25
229.86	-4.95
230.077	138.41
230.295	-43.86
230.513	70.83
230.731	68.78
230.948	31.91
231.166	169.13
231.384	-35.67
231.601	-4.95
231.819	81.07
232.037	-50
232.254	15.53
232.472	-35.67
232.689	-21.33
232.907	85.16
233.125	11.43
233.342	-9.05
233.56	-11.09
233.777	56.49
233.995	44.2
234.213	64.68
234.43	95.4
234.648	27.82
234.865	-27.48
235.083	150.7
235.3	-37.72
235.518	83.11
235.735	144.55
235.953	9.39
236.17	15.53
236.388	-17.24
236.605	27.82
236.822	103.59
237.04	144.55
237.257	-33.62
237.475	21.67
237.692	70.83
237.909	50.35
238.127	-0.85
238.344	31.91
238.562	83.11
238.779	-11.09
238.996	-90.96
239.214	15.53
239.431	89.26
239.648	13.48
239.865	56.49
240.083	27.82
240.3	11.43
240.517	21.67
240.735	52.39
240.952	91.31
241.169	95.4
241.386	83.11
241.603	27.82
241.821	-21.33
242.038	52.39
242.255	72.87
242.472	-80.72
242.689	52.39
242.907	27.82
243.124	64.68
243.341	3.24
243.558	27.82
243.775	-103.25
243.992	-93.01
244.209	74.92
244.426	140.46
244.643	19.63
244.86	-31.57
245.078	62.63
245.295	-9.05
245.512	-15.19
245.729	-54.1
245.946	68.78
246.163	44.2
246.38	-37.72
246.597	-17.24
246.814	13.48
247.031	40.11
247.248	-15.19
247.464	97.45
247.681	-27.48
247.898	-4.95
248.115	27.82
248.332	21.67
248.549	128.17
248.766	148.65
248.983	1.19
249.2	56.49
249.417	42.15
249.633	-105.3
249.85	66.73
250.067	36.01
250.284	17.58
250.501	9.39
250.717	17.58
250.934	-119.64
251.151	15.53
251.368	29.87
251.585	9.39
251.801	19.63
252.018	-7
252.235	142.5
252.451	11.43
252.668	15.53
252.885	-0.85
253.102	66.73
253.318	-11.09
253.535	-76.63
253.752	52.39
253.968	7.34
254.185	-95.06
254.401	-23.38
254.618	97.45
254.835	36.01
255.051	160.94
255.268	56.49
255.484	99.5
255.701	17.58
255.917	74.92
256.134	-2.9
256.351	17.58
256.567	-66.39
256.784	13.48
257	-123.73
257.217	56.49
257.433	128.17
257.65	-7
257.866	99.5
258.082	-52.05
258.299	-25.43
258.515	-41.81
258.732	46.25
258.948	29.87
259.165	74.92
259.381	-17.24
259.597	19.63
259.814	25.77
260.03	-35.67
260.246	-47.96
260.463	68.78
260.679	126.12
260.895	101.55
261.112	54.44
261.328	64.68
261.544	-27.48
261.761	173.22
261.977	-29.52
262.193	-76.63
262.409	17.58
262.626	83.11
262.842	56.49
263.058	-95.06
263.274	31.91
263.49	74.92
263.707	64.68
263.923	54.44
264.139	-54.1
264.355	68.78
264.571	54.44
264.787	76.97
265.004	132.26
265.22	36.01
265.436	-54.1
265.652	-56.15
265.868	54.44
266.084	-72.53
266.3	-35.67
266.516	-45.91
266.732	38.06
266.948	21.67
267.164	-11.09
267.38	81.07
267.596	13.48
267.812	111.78
268.028	3.24
268.244	-45.91
268.46	25.77
268.676	23.72
268.892	-43.86
269.108	-23.38
269.324	-45.91
269.54	-41.81
269.756	89.26
269.972	-0.85
270.188	60.59
270.403	-7
270.619	76.97
270.835	83.11
271.051	115.88
271.267	-0.85
271.483	25.77
271.698	105.64
271.914	-27.48
272.13	70.83
272.346	-9.05
272.562	50.35
272.777	85.16
272.993	31.91
273.209	-7
273.425	64.68
273.64	-113.49
273.856	64.68
274.072	-23.38
274.287	-25.43
274.503	29.87
274.719	124.07
274.934	-64.34
275.15	-125.78
275.366	42.15
275.581	-93.01
275.797	33.96
276.012	15.53
276.228	50.35
276.444	54.44
276.659	134.31
276.875	-107.35
277.09	81.07
277.306	7.34
277.521	9.39
277.737	7.34
277.952	1.19
278.168	9.39
278.383	21.67
278.599	76.97
278.814	74.92
279.03	9.39
279.245	126.12
279.461	19.63
279.676	119.98
279.892	-43.86
280.107	-39.76
280.322	-113.49
280.538	42.15
280.753	-9.05
280.969	-17.24
281.184	-9.05
281.399	208.04
281.615	-13.14
281.83	13.48
282.045	-66.39
282.26	23.72
282.476	-2.9
282.691	85.16
282.906	58.54
283.122	76.97
283.337	40.11
283.552	40.11
283.767	-9.05
283.983	132.26
284.198	56.49
284.413	72.87
284.628	-68.44
284.843	52.39
285.058	105.64
285.274	56.49
285.489	13.48
285.704	144.55
285.919	-19.29
286.134	17.58
286.349	-43.86
286.564	-11.09
286.779	134.31
286.995	-31.57
287.21	-76.63
287.425	36.01
287.64	36.01
287.855	19.63
288.07	-9.05
288.285	54.44
288.5	89.26
288.715	95.4
288.93	-4.95
289.145	-0.85
289.36	87.21
289.575	-80.72
289.79	76.97
290.004	-15.19
290.219	144.55
290.434	11.43
290.649	-21.33
290.864	-0.85
291.079	-13.14
291.294	29.87
291.509	-41.81
291.724	-39.76
291.938	33.96
292.153	81.07
292.368	5.29
292.583	64.68
292.798	21.67
293.012	52.39
293.227	27.82
293.442	-60.24
293.657	158.89
293.871	85.16
294.086	72.87
294.301	142.5
294.516	107.69
294.73	48.3
294.945	-50
295.16	-103.25
295.374	105.64
295.589	136.36
295.804	25.77
296.018	9.39
296.233	136.36
296.447	97.45
296.662	25.77
296.877	154.79
297.091	46.25
297.306	-33.62
297.52	-17.24
297.735	52.39
297.949	-19.29
298.164	70.83
298.378	62.63
298.593	-17.24
298.807	9.39
299.022	29.87
299.236	173.22
299.451	-56.15
299.665	-2.9
299.88	-37.72
300.094	74.92
300.309	44.2
300.523	50.35
300.737	-31.57
300.952	81.07
301.166	48.3
301.381	-45.91
301.595	23.72
301.809	52.39
302.024	-0.85
302.238	-66.39
302.452	162.98
302.667	-52.05
302.881	212.14
303.095	40.11
303.309	-0.85
303.524	-62.29
303.738	-33.62
303.952	21.67
304.166	3.24
304.381	-144.21
304.595	66.73
304.809	13.48
305.023	13.48
305.237	17.58
305.452	-50
305.666	81.07
305.88	62.63
306.094	113.83
306.308	3.24
306.522	17.58
306.736	76.97
306.95	83.11
307.164	-7
307.379	-2.9
307.593	109.74
307.807	189.61
308.021	130.22
308.235	70.83
308.449	-140.12
308.663	-9.05
308.877	140.46
309.091	72.87
309.305	23.72
309.519	-45.91
309.733	103.59
309.947	-70.48
310.161	60.59
310.374	70.83
310.588	101.55
310.802	-70.48
311.016	-7
311.23	38.06
311.444	-4.95
311.658	-39.76
311.872	101.55
312.085	99.5
312.299	136.36
312.513	146.6
312.727	85.16
312.941	-41.81
313.154	15.53
313.368	27.82
313.582	-9.05
313.796	52.39
314.009	-37.72
314.223	64.68
314.437	72.87
314.651	124.07
314.864	-17.24
315.078	-4.95
315.292	-2.9
315.505	-29.52
315.719	101.55
315.933	62.63
316.146	-45.91
316.36	-56.15
316.573	76.97
316.787	105.64
317.001	68.78
317.214	-86.87
317.428	11.43
317.641	-56.15
317.855	42.15
318.068	72.87
318.282	17.58
318.495	87.21
318.709	89.26
318.922	33.96
319.136	210.09
319.349	62.63
319.563	-33.62
319.776	25.77
319.99	-113.49
320.203	76.97
320.417	-37.72
320.63	42.15
320.843	171.18
321.057	40.11
321.27	11.43
321.483	126.12
321.697	148.65
321.91	85.16
322.124	91.31
322.337	-4.95
322.55	-35.67
322.763	-45.91
322.977	25.77
323.19	-23.38
323.403	101.55
323.617	33.96
323.83	128.17
324.043	33.96
324.256	36.01
324.469	3.24
324.683	119.98
324.896	54.44
325.109	33.96
325.322	-45.91
325.535	46.25
325.748	115.88
325.962	83.11
326.175	-7
326.388	83.11
326.601	113.83
326.814	7.34
327.027	68.78
327.24	95.4
327.453	-84.82
327.666	126.12
327.879	146.6
328.092	79.02
328.305	105.64
328.518	-33.62
328.731	-31.57
328.944	11.43
329.157	89.26
329.37	15.53
329.583	79.02
329.796	85.16
330.009	9.39
330.222	177.32
330.435	95.4
330.648	72.87
330.861	33.96
331.073	21.67
331.286	74.92
331.499	23.72
331.712	-25.43
331.925	-27.48
332.138	31.91
332.35	89.26
332.563	23.72
332.776	171.18
332.989	21.67
333.202	48.3
333.414	36.01
333.627	-88.92
333.84	-41.81
334.053	9.39
334.265	-35.67
334.478	-60.24
334.691	-27.48
334.903	113.83
335.116	-29.52
335.329	76.97
335.541	72.87
335.754	195.75
335.966	56.49
336.179	146.6
336.392	21.67
336.604	-2.9
336.817	38.06
337.029	5.29
337.242	-23.38
337.454	119.98
337.667	33.96
337.88	181.42
338.092	-33.62
338.305	124.07
338.517	-41.81
338.729	85.16
338.942	195.75
339.154	-35.67
339.367	11.43
339.579	70.83
339.792	19.63
340.004	83.11
340.217	-29.52
340.429	99.5
340.641	-21.33
340.854	-13.14
341.066	25.77
341.278	91.31
341.491	167.08
341.703	25.77
341.915	-15.19
342.128	103.59
342.34	-13.14
342.552	-54.1
342.764	58.54
342.977	17.58
343.189	89.26
343.401	36.01
343.613	-7
343.826	60.59
344.038	-31.57
344.25	40.11
344.462	19.63
344.674	85.16
344.886	44.2
345.099	50.35
345.311	50.35
345.523	36.01
345.735	-103.25
345.947	46.25
346.159	56.49
346.371	19.63
346.583	64.68
346.795	212.14
347.007	-45.91
347.219	44.2
347.431	36.01
347.643	89.26
347.855	-21.33
348.067	107.69
348.279	-23.38
348.491	17.58
348.703	79.02
348.915	-13.14
349.127	-41.81
349.339	25.77
349.551	-60.24
349.763	140.46
349.975	21.67
350.187	36.01
350.399	103.59
350.61	40.11
350.822	29.87
351.034	40.11
351.246	25.77
351.458	-19.29
351.669	74.92
351.881	111.78
352.093	148.65
352.305	126.12
352.517	40.11
352.728	144.55
352.94	44.2
353.152	93.35
353.363	-62.29
353.575	99.5
353.787	208.04
353.999	27.82
354.21	103.59
354.422	-19.29
354.633	-4.95
354.845	23.72
355.057	97.45
355.268	54.44
355.48	70.83
355.692	-15.19
355.903	5.29
356.115	29.87
356.326	-144.21
356.538	87.21
356.749	52.39
356.961	130.22
357.172	-19.29
357.384	15.53
357.595	261.29
357.807	-2.9
358.018	-11.09
358.23	36.01
358.441	76.97
358.653	23.72
358.864	17.58
359.075	11.43
359.287	117.93
359.498	81.07
359.709	40.11
359.921	64.68
360.132	99.5
360.344	-4.95
360.555	-64.34
360.766	95.4
360.977	-58.2
361.189	93.35
361.4	-25.43
361.611	38.06
361.823	83.11
362.034	-0.85
362.245	-58.2
362.456	-43.86
362.667	105.64
362.879	-2.9
363.09	95.4
363.301	62.63
363.512	-4.95
363.723	33.96
363.935	42.15
364.146	156.84
364.357	-27.48
364.568	66.73
364.779	-56.15
364.99	173.22
365.201	-99.16
365.412	81.07
365.623	-17.24
365.834	56.49
366.045	85.16
366.256	52.39
366.467	54.44
366.678	-15.19
366.889	52.39
367.1	-0.85
367.311	128.17
367.522	15.53
367.733	68.78
367.944	99.5
368.155	-2.9
368.366	95.4
368.577	105.64
368.788	50.35
368.999	-39.76
369.209	-2.9
369.42	189.61
369.631	130.22
369.842	76.97
370.053	9.39
370.264	101.55
370.474	-47.96
370.685	31.91
370.896	-43.86
371.107	62.63
371.317	79.02
371.528	29.87
371.739	83.11
371.95	68.78
372.16	54.44
372.371	-68.44
372.582	-17.24
372.792	107.69
373.003	38.06
373.214	17.58
373.424	42.15
373.635	-15.19
373.846	68.78
374.056	103.59
374.267	74.92
374.477	99.5
374.688	-39.76
374.898	68.78
375.109	89.26
375.319	48.3
375.53	156.84
375.74	83.11
375.951	81.07
376.161	21.67
376.372	111.78
376.582	17.58
376.793	85.16
377.003	-41.81
377.214	-62.29
377.424	27.82
377.635	36.01
377.845	-17.24
378.055	119.98
378.266	-25.43
378.476	3.24
378.686	33.96
378.897	79.02
379.107	115.88
379.317	150.7
379.528	50.35
379.738	113.83
379.948	-43.86
380.158	158.89
380.369	46.25
380.579	62.63
380.789	66.73
380.999	40.11
381.21	81.07
381.42	130.22
381.63	31.91
381.84	54.44
382.05	76.97
382.261	64.68
382.471	124.07
382.681	5.29
382.891	169.13
383.101	70.83
383.311	9.39
383.521	-21.33
383.731	58.54
383.941	113.83
384.151	15.53
384.361	-35.67
384.571	27.82
384.781	29.87
384.991	50.35
385.201	171.18
385.411	89.26
385.621	89.26
385.831	113.83
386.041	56.49
386.251	40.11
386.461	83.11
386.671	-2.9
386.881	36.01
387.091	-0.85
387.301	107.69
387.511	36.01
387.72	62.63
387.93	13.48
388.14	-37.72
388.35	138.41
388.56	95.4
388.769	111.78
388.979	44.2
389.189	-31.57
389.399	50.35
389.609	87.21
389.818	70.83
390.028	101.55
390.238	44.2
390.447	-4.95
390.657	83.11
390.867	42.15
391.076	-39.76
391.286	62.63
391.496	25.77
391.705	99.5
391.915	109.74
392.125	-7
392.334	7.34
392.544	199.85
392.753	74.92
392.963	3.24
393.172	-21.33
393.382	21.67
393.591	113.83
393.801	74.92
394.01	126.12
394.22	130.22
394.429	85.16
394.639	-52.05
394.848	40.11
395.058	21.67
395.267	56.49
395.477	105.64
395.686	60.59
395.895	105.64
396.105	171.18
396.314	83.11
396.524	17.58
396.733	42.15
396.942	58.54
397.152	109.74
397.361	117.93
397.57	89.26
397.78	109.74
397.989	113.83
398.198	107.69
398.407	27.82
398.617	31.91
398.826	76.97
399.035	11.43
399.244	140.46
399.453	58.54
399.663	-2.9
399.872	79.02
400.081	-21.33
400.29	66.73
400.499	29.87
400.708	19.63
400.917	-27.48
401.127	44.2
401.336	3.24
401.545	124.07
401.754	111.78
401.963	70.83
402.172	9.39
402.381	-33.62
402.59	107.69
402.799	54.44
403.008	19.63
403.217	62.63
403.426	54.44
403.635	-86.87
403.844	15.53
404.053	-60.24
404.262	56.49
404.471	136.36
404.68	-2.9
404.888	-39.76
405.097	33.96
405.306	9.39
405.515	72.87
405.724	-70.48
405.933	46.25
406.142	72.87
406.35	111.78
406.559	29.87
406.768	93.35
406.977	119.98
407.185	44.2
407.394	87.21
407.603	-54.1
407.812	62.63
408.02	183.46
408.229	93.35
408.438	74.92
408.646	-9.05
408.855	58.54
409.064	99.5
409.272	21.67
409.481	132.26
409.69	-88.92
409.898	62.63
410.107	83.11
410.315	103.59
410.524	-54.1
410.733	144.55
410.941	124.07
411.15	44.2
411.358	36.01
411.567	158.89
411.775	-2.9
411.984	101.55
412.192	111.78
412.401	42.15
412.609	240.81
412.818	109.74
413.026	-15.19
413.234	76.97
413.443	21.67
413.651	25.77
413.86	101.55
414.068	152.74
414.276	89.26
414.485	25.77
414.693	140.46
414.901	142.5
415.11	87.21
415.318	62.63
415.526	42.15
415.734	107.69
415.943	64.68
416.151	111.78
416.359	9.39
416.567	72.87
416.776	91.31
416.984	113.83
417.192	119.98
417.4	52.39
417.608	79.02
417.817	-0.85
418.025	97.45
418.233	150.7
418.441	9.39
418.649	-74.58
418.857	46.25
419.065	13.48
419.273	40.11
419.481	46.25
419.689	107.69
419.897	-2.9
420.105	-66.39
420.313	70.83
420.521	70.83
420.729	54.44
420.937	5.29
421.145	-17.24
421.353	165.03
421.561	132.26
421.769	54.44
421.977	5.29
422.185	95.4
422.393	-0.85
422.601	134.31
422.809	-7
423.017	-13.14
423.224	52.39
423.432	56.49
423.64	68.78
423.848	167.08
424.056	27.82
424.263	117.93
424.471	68.78
424.679	160.94
424.887	1.19
425.094	171.18
425.302	46.25
425.51	-23.38
425.718	107.69
425.925	122.02
426.133	76.97
426.341	210.09
426.548	38.06
426.756	-21.33
426.964	117.93
427.171	66.73
427.379	144.55
427.586	113.83
427.794	122.02
428.001	126.12
428.209	79.02
428.417	99.5
428.624	105.64
428.832	3.24
429.039	87.21
429.247	97.45
429.454	142.5
429.662	177.32
429.869	107.69
430.076	97.45
430.284	181.42
430.491	146.6
430.699	220.33
430.906	269.48
431.114	124.07
431.321	83.11
431.528	134.31
431.736	70.83
431.943	89.26
432.15	175.27
432.358	208.04
432.565	253.09
432.772	15.53
432.979	175.27
433.187	165.03
433.394	195.75
433.601	64.68
433.808	185.51
434.016	281.77
434.223	199.85
434.43	167.08
434.637	242.85
434.844	236.71
435.052	232.62
435.259	246.95
435.466	244.9
435.673	228.52
435.88	177.32
436.087	314.53
436.294	259.24
436.501	244.9
436.708	197.8
436.915	281.77
437.122	380.07
437.329	224.42
437.537	283.81
437.743	298.15
437.95	439.46
438.157	416.93
438.364	328.87
438.571	408.74
438.778	435.36
438.985	498.85
439.192	441.51
439.399	398.5
439.606	500.9
439.813	539.81
440.02	652.45
440.227	627.87
440.433	543.91
440.64	474.28
440.847	550.05
441.054	584.87
441.261	728.22
441.467	605.35
441.674	595.11
441.881	754.85
442.088	601.25
442.294	748.7
442.501	703.65
442.708	861.34
442.914	801.95
443.121	900.25
443.328	961.69
443.534	984.22
443.741	898.2
443.948	922.78
444.154	982.17
444.361	1125.53
444.568	1092.76
444.774	1162.39
444.981	980.12
445.187	1131.67
445.394	1082.52
445.6	1119.39
445.807	1424.53
446.013	1367.19
446.22	1250.46
446.426	1420.44
446.633	1635.47
446.839	1752.21
447.046	1430.68
447.252	1725.58
447.459	1715.34
447.665	1703.06
447.871	1873.04
448.078	2016.4
448.284	1952.91
448.491	2063.5
448.697	2174.09
448.903	2450.57
449.11	2333.83
449.316	2243.72
449.522	2409.61
449.728	2456.71
449.935	2663.55
450.141	2776.19
450.347	2901.12
450.553	2763.9
450.76	2899.07
450.966	2946.17
451.172	2985.09
451.378	3263.61
451.584	3372.15
451.791	3619.96
451.997	3691.63
452.203	3773.55
452.409	3906.67
452.615	4105.32
452.821	4017.26
453.027	4045.93
453.233	4621.41
453.44	4363.37
453.646	4734.05
453.852	4889.7
454.058	5104.73
454.264	5157.98
454.47	5553.24
454.676	5569.62
454.882	5868.63
455.088	5798.99
455.294	5950.54
455.5	6536.26
455.705	6839.36
455.911	6816.83
456.117	6863.94
456.323	7255.1
456.529	7410.75
456.735	8000.56
456.941	8109.1
457.147	8485.93
457.352	8660.01
457.558	9102.37
457.764	9581.59
457.97	9944.08
458.176	10259.47
458.381	10550.28
458.587	10904.58
458.793	11426.81
458.999	11463.68
459.204	12837.86
459.41	13327.33
459.616	13206.5
459.821	14085.08
460.027	14695.37
460.233	15182.79
460.438	15352.77
460.644	16016.31
460.85	16438.19
461.055	16878.51
461.261	18060.18
461.466	17142.69
461.672	17724.32
461.878	19774.33
462.083	19495.81
462.289	19991.42
462.494	20648.82
462.7	21197.67
462.905	21130.09
463.111	23098.19
463.316	24290.1
463.522	24861.49
463.727	25348.9
463.932	26450.71
464.138	26977.04
464.343	28390.14
464.549	28402.43
464.754	30622.42
464.959	31519.43
465.165	32180.93
465.37	31650.5
465.575	31441.61
465.781	33962.66
465.986	34865.81
466.191	34290.34
466.397	34300.58
466.602	33770.15
466.807	35453.58
467.012	36592.25
467.218	36835.96
467.423	36627.07
467.628	38269.54
467.833	40002.12
468.038	38965.85
468.244	38314.59
468.449	40256.07
468.654	39909.96
468.859	39715.4
469.064	39692.88
469.269	38539.87
469.474	38709.85
469.679	39918.15
469.885	39051.86
470.09	39500.37
470.295	40038.98
470.5	38599.26
470.705	38552.16
470.91	37720.68
471.115	37259.89
471.32	37937.77
471.525	37821.03
471.73	36700.79
471.935	36405.89
472.139	35254.93
472.344	35412.62
472.549	35220.11
472.754	34046.63
472.959	33321.65
473.164	32369.34
473.369	31806.15
473.574	32813.75
473.778	32309.95
473.983	31374.03
474.188	30862.04
474.393	29856.48
474.598	29514.47
474.802	28961.52
475.007	28486.39
475.212	28084.99
475.417	27243.27
475.621	26608.4
475.826	26526.49
476.031	25764.64
476.235	25054
476.44	25359.14
476.645	24707.89
476.849	24286.01
477.054	24134.46
477.259	23565.12
477.463	23456.58
477.668	22799.18
477.872	22811.47
478.077	22297.43
478.282	21764.96
478.486	21365.6
478.691	20855.66
478.895	21007.21
479.1	20755.31
479.304	20745.07
479.509	19874.68
479.713	20372.34
479.918	19889.02
480.122	19401.6
480.326	19575.68
480.531	19530.62
480.735	19272.58
480.94	18891.66
481.144	19534.72
481.348	18625.42
481.553	18631.57
481.757	17984.41
481.961	18142.1
482.166	18326.42
482.37	18254.74
482.574	17918.87
482.778	17785.76
482.983	17847.19
483.187	17441.7
483.391	17695.64
483.595	17413.02
483.8	17105.83
484.004	17017.77
484.208	17075.11
484.412	16542.64
484.616	16636.84
484.821	16020.41
485.025	15866.81
485.229	16008.12
485.433	15768.51
485.637	15694.78
485.841	15526.85
486.045	15293.38
486.249	15125.44
486.453	14509.01
486.657	14603.21
486.861	14308.3
487.065	13806.55
487.269	13845.46
487.473	13392.86
487.677	13671.39
487.881	13401.05
488.085	12860.39
488.289	12960.74
488.493	12487.66
488.697	12680.17
488.901	12354.54
489.105	11871.22
489.309	11938.8
489.512	11578.36
489.716	11410.43
489.92	11105.28
490.124	10851.33
490.328	10880
490.531	10464.27
490.735	10482.7
490.939	10173.46
491.143	9995.28
491.346	9810.96
491.55	9821.2
491.754	9575.45
491.958	9546.78
492.161	9278.49
492.365	9196.57
492.569	8922.15
492.772	8813.6
492.976	8895.52
493.18	8793.12
493.383	8721.45
493.587	8391.72
493.79	8412.2
493.994	8168.49
494.197	8250.41
494.401	8049.71
494.605	7846.96
494.808	8018.99
495.012	7887.92
495.215	7789.62
495.419	7883.83
495.622	7683.13
495.825	7498.81
496.029	7478.33
496.232	7445.56
496.436	7443.51
496.639	7601.21
496.843	7507
497.046	7631.93
497.249	7427.13
497.453	7550.01
497.656	7447.61
497.859	7560.25
498.063	7541.82
498.266	7644.21
498.469	7537.72
498.673	7537.72
498.876	7531.58
499.079	7562.3
499.282	7691.32
499.485	7744.56
499.689	7701.56
499.892	7783.48
500.095	7719.99
500.298	7900.21
500.501	7787.57
500.705	7957.55
500.908	8055.86
501.111	8072.24
501.314	8074.29
501.517	8490.03
501.72	8293.42
501.923	8313.9
502.126	8447.02
502.329	8569.9
502.532	8631.33
502.735	8817.7
502.938	9053.22
503.141	9108.51
503.344	9067.55
503.547	9374.75
503.75	9378.84
503.953	9368.6
504.156	9538.59
504.359	9655.32
504.562	9608.22
504.765	9790.49
504.968	10071.06
505.17	10431.5
505.373	10261.52
505.576	10644.49
505.779	10929.16
505.982	10791.94
506.185	11267.07
506.387	11211.78
506.59	11297.79
506.793	11787.25
506.996	11875.32
507.198	12344.3
507.401	12354.54
507.604	12545
507.807	12923.88
508.009	13143.01
508.212	13272.03
508.415	13538.27
508.617	13929.43
508.82	14040.02
509.022	14130.13
509.225	14584.78
509.428	14996.42
509.63	15272.9
509.833	15418.3
510.035	16196.53
510.238	16266.16
510.44	16311.22
510.643	17097.64
510.845	17288.1
511.048	17288.1
511.25	17947.54
511.453	18412.43
511.655	19141.51
511.858	19329.92
512.06	19698.56
512.262	19897.21
512.465	20380.53
512.667	21261.16
512.87	21599.07
513.072	21824.35
513.274	22594.39
513.477	22717.26
513.679	23534.4
513.881	24300.34
514.084	24605.49
514.286	24933.17
514.488	25256.75
514.69	26258.2
514.893	26686.23
515.095	27149.07
515.297	28029.69
515.499	28605.17
515.701	29168.37
515.904	29862.63
516.106	30438.11
516.308	30765.78
516.51	31533.77
516.712	31810.25
516.914	32570.04
517.116	33383.09
517.318	33981.09
517.52	34581.15
517.722	35009.17
517.925	35871.37
518.127	36559.48
518.329	37114.48
518.531	37124.72
518.733	38324.83
518.935	39092.82
519.136	39015
519.338	40182.34
519.54	40718.91
519.742	41222.71
519.944	41445.94
520.146	42322.47
520.348	43293.21
520.55	43526.67
520.752	43966.99
520.954	45085.18
521.155	44761.6
521.357	45775.34
521.559	46281.19
521.761	47143.39
521.963	47069.66
522.164	47473.11
522.366	47593.94
522.568	48454.09
522.77	48980.42
522.971	49508.79
523.173	48882.11
523.375	49719.73
523.576	49457.59
523.778	49856.95
523.98	50784.68
524.181	50518.44
524.383	50690.47
524.584	51237.28
524.786	51136.93
524.988	50536.87
525.189	51341.72
525.391	51489.18
525.592	51399.07
525.794	51368.35
525.995	51669.4
526.197	51448.22
526.398	51040.67
526.6	51679.64
526.801	50901.41
527.003	51073.44
527.204	50870.69
527.406	51085.73
527.607	50794.92
527.808	50801.06
528.01	49306.04
528.211	49312.19
528.412	50043.31
528.614	49390.01
528.815	49340.86
529.016	49045.95
529.218	48161.23
529.419	47784.4
529.62	47542.74
529.822	47141.34
530.023	46606.82
530.224	46248.42
530.425	45953.52
530.626	45234.68
530.828	44362.25
531.029	44585.47
531.23	43739.66
531.431	43399.7
531.632	42877.47
531.833	42856.99
532.035	42052.14
532.236	41480.75
532.437	40981.05
532.638	40741.44
532.839	40309.32
533.04	40217.16
533.241	38675.04
533.442	39406.16
533.643	38259.3
533.844	37730.92
534.045	37163.64
534.246	36182.66
534.447	36364.93
534.648	35639.95
534.849	35324.56
535.05	34798.23
535.251	34566.81
535.451	33823.4
535.652	33458.86
535.853	33008.31
536.054	32656.06
536.255	32174.78
536.456	31898.31
536.657	31462.09
536.857	30960.34
537.058	30434.01
537.259	30335.71
537.46	29756.13
537.66	29246.19
537.861	28957.42
538.062	28488.44
538.263	27835.14
538.463	27714.31
538.664	27243.27
538.865	27169.55
539.065	26594.07
539.266	26024.73
539.466	26252.06
539.667	25375.53
539.868	25862.94
540.068	24957.74
540.269	24961.84
540.469	24832.82
540.67	24644.4
540.87	24034.11
541.071	23950.14
541.271	23780.16
541.472	23354.18
541.672	23087.95
541.873	22516.56
542.073	22274.9
542.274	22045.53
542.474	22047.58
542.675	21547.87
542.875	21367.65
543.075	21240.68
543.276	20773.74
543.476	20886.38
543.676	20665.2
543.877	20568.94
544.077	20052.86
544.277	19739.52
544.478	19860.35
544.678	19497.86
544.878	19047.3
545.078	19182.47
545.279	18973.58
545.479	18578.32
545.679	18170.77
545.879	18103.19
546.079	17935.26
546.28	17480.61
546.48	17415.07
546.68	17374.11
546.88	17210.28
547.08	17132.45
547.28	16579.5
547.48	16640.94
547.68	16270.26
547.88	16083.89
548.081	16180.15
548.281	15645.63
548.481	15465.41
548.681	15438.78
548.881	15021
549.081	14934.98
549.28	14672.84
549.48	14666.7
549.68	14515.15
549.88	14414.8
550.08	13812.7
550.28	13841.37
550.48	13552.6
550.68	13413.34
550.88	13216.74
551.08	12948.45
551.279	12979.17
551.479	12569.58
551.679	12618.73
551.879	12033.01
552.079	12016.63
552.278	11947
552.478	11957.24
552.678	11604.99
552.878	11443.2
553.077	11285.5
553.277	10943.49
553.477	11179.01
553.676	10824.71
553.876	10462.22
554.076	10179.6
554.275	10122.26
554.475	9878.55
554.674	10189.84
554.874	9702.42
555.074	9649.18
555.273	9397.28
555.473	9475.1
555.672	9137.18
555.872	8944.67
556.071	9016.35
556.271	8987.68
556.47	8633.38
556.67	8514.6
556.869	8340.52
557.068	8090.67
557.268	8006.7
557.467	8096.82
557.667	8074.29
557.866	7644.21
558.065	7416.89
558.265	7377.98
558.464	7273.53
558.663	7353.4
558.863	7007.3
559.062	7275.58
559.261	6732.87
559.461	7003.2
559.66	6595.65
559.859	6382.67
560.058	6542.41
560.258	6149.2
560.457	6347.85
560.656	6216.78
560.855	6022.22
561.054	5987.41
561.253	5856.34
561.453	5942.35
561.652	5667.92
561.851	5700.69
562.05	5440.6
562.249	5235.8
562.448	5313.63
562.647	5166.17
562.846	5301.34
563.045	5180.51
563.244	5117.02
563.443	4992.09
563.642	4746.34
563.841	4930.66
564.04	4772.96
564.239	4740.19
564.438	4699.23
564.637	4400.23
564.836	4410.47
565.035	4441.19
565.234	4320.36
565.432	4236.39
565.631	4392.04
565.83	4193.39
566.029	4025.45
566.228	4052.08
566.427	4025.45
566.625	3931.25
566.824	3996.78
567.023	3957.87
567.222	3757.17
567.42	3771.51
567.619	3648.63
567.818	3583.09
568.016	3701.87
568.215	3540.08
568.414	3632.24
568.612	3390.58
568.811	3335.29
569.01	3255.42
569.208	3200.12
569.407	3275.9
569.605	3179.64
569.804	3099.77
570.002	3132.54
570.201	2892.93
570.4	2966.65
570.598	2829.44
570.797	2792.58
570.995	2827.39
571.193	2868.35
571.392	2669.7
571.59	2630.79
571.789	2718.85
571.987	2690.18
572.186	2739.33
572.384	2555.01
572.582	2524.29
572.781	2612.35
572.979	2329.74
573.177	2374.79
573.376	2469
573.574	2413.7
573.772	2153.61
573.971	2329.74
574.169	2120.84
574.367	2221.19
574.565	2221.19
574.763	2129.03
574.962	2178.19
575.16	2137.23
575.358	2045.07
575.556	1979.53
575.754	1957
575.952	2057.36
576.151	1883.28
576.349	1895.57
576.547	1705.1
576.745	1852.56
576.943	1815.69
577.141	1819.79
577.339	1612.95
577.537	1784.98
577.735	1774.74
577.933	1803.41
578.131	1580.18
578.329	1619.09
578.527	1561.75
578.725	1684.62
578.923	1531.03
579.121	1590.42
579.319	1346.71
579.516	1500.31
579.714	1655.95
579.912	1348.76
580.11	1342.61
580.308	1272.98
580.506	1303.7
580.704	1172.63
580.901	1283.22
581.099	1442.96
581.297	1193.11
581.495	1172.63
581.692	1180.82
581.89	1354.9
582.088	1205.4
582.285	1111.19
582.483	1064.09
582.681	1076.38
582.878	1189.02
583.076	1105.05
583.274	1074.33
583.471	1209.5
583.669	1041.56
583.866	928.92
584.064	1016.99
584.262	943.26
584.459	967.84
584.657	1039.51
584.854	1019.04
585.052	939.16
585.249	984.22
585.447	984.22
585.644	883.87
585.841	918.68
586.039	951.45
586.236	1035.42
586.434	949.4
586.631	810.14
586.828	789.66
587.026	806.05
587.223	672.93
587.42	787.61
587.618	879.77
587.815	898.2
588.012	754.85
588.21	834.72
588.407	867.49
588.604	736.42
588.801	783.52
588.999	689.31
589.196	804
589.393	654.5
589.59	687.26
589.787	726.18
589.984	713.89
590.182	775.33
590.379	707.74
590.576	746.66
590.773	736.42
590.97	642.21
591.167	677.02
591.364	730.27
591.561	629.92
591.758	812.19
591.955	717.98
592.152	707.74
592.349	548
592.546	662.69
592.743	724.13
592.94	670.88
593.137	672.93
593.334	715.94
593.531	744.61
593.727	703.65
593.924	699.55
594.121	728.22
594.318	681.12
594.515	769.18
594.712	740.51
594.908	760.99
595.105	533.67
595.302	720.03
595.499	791.71
595.696	820.38
595.892	760.99
596.089	894.11
596.286	791.71
596.482	955.55
596.679	861.34
596.876	773.28
597.072	879.77
597.269	875.68
597.466	947.36
597.662	918.68
597.859	896.16
598.055	1000.6
598.252	1064.09
598.448	1164.44
598.645	1019.04
598.841	1162.39
599.038	1260.7
599.234	1305.75
599.431	1371.29
599.627	1346.71
599.824	1481.88
600.02	1424.53
600.217	1377.43
600.413	1600.66
600.609	1569.94
600.806	1918.09
601.002	1748.11
601.198	1752.21
601.395	1864.85
601.591	1997.96
601.787	1901.71
601.984	2043.02
602.18	2186.38
602.376	2256.01
602.572	2317.45
602.769	2462.85
602.965	2464.9
603.161	2598.02
603.357	2661.51
603.553	2835.58
603.75	2749.57
603.946	2966.65
604.142	2940.03
604.338	3107.96
604.534	3167.35
604.73	3153.02
604.926	3329.14
605.122	3546.23
605.318	3521.65
605.514	3738.74
605.71	3810.42
605.906	3986.54
606.102	3933.29
606.298	4287.59
606.494	4279.4
606.69	4547.69
606.886	4478.05
607.082	4645.99
607.278	4674.66
607.474	4922.46
607.67	5133.4
607.866	5061.73
608.062	5385.3
608.257	5573.72
608.453	5516.37
608.649	5968.98
608.845	5823.57
609.041	5950.54
609.236	6300.75
609.432	6440.01
609.628	6741.06
609.824	6630.47
610.019	7093.31
610.215	7128.13
610.411	7269.44
610.606	7767.09
610.802	7814.2
610.998	7996.46
611.193	8260.65
611.389	8375.34
611.584	8440.87
611.78	8756.26
611.976	8922.15
612.171	9427.99
612.367	9507.87
612.562	9626.65
612.758	10003.47
612.953	10109.97
613.149	10470.41
613.344	10599.43
613.539	11201.54
613.735	11592.7
613.93	11723.77
614.126	11734.01
614.321	12553.2
614.517	12723.18
614.712	12778.47
614.907	13431.77
615.103	13661.15
615.298	13792.22
615.493	14138.32
615.688	14568.4
615.884	15190.98
616.079	15043.53
616.274	15891.38
616.47	15979.45
616.665	16403.38
616.86	16792.49
617.055	17314.72
617.25	17537.95
617.445	18576.27
617.641	18449.3
617.836	19231.62
618.031	19090.31
618.226	20042.62
618.421	20493.17
618.616	20812.65
618.811	21379.94
619.006	22002.52
619.201	22156.12
619.396	22973.26
619.591	23030.6
619.786	23851.84
619.981	23896.89
620.176	25174.83
620.371	25350.95
620.566	25834.27
620.761	26313.5
620.956	27161.36
621.151	27448.07
621.346	28113.66
621.541	28271.36
621.735	29180.65
621.93	29467.37
622.125	30104.29
622.32	29952.74
622.515	30966.48
622.709	31492.81
622.904	32148.16
623.099	32512.7
623.294	33225.39
623.488	33317.55
623.683	34910.87
623.878	34687.64
624.072	35633.8
624.267	35795.59
624.462	36563.58
624.656	36758.14
624.851	37692.01
625.046	37939.82
625.24	38664.8
625.435	38888.03
625.629	39572.05
625.824	39938.63
626.018	40882.75
626.213	40579.65
626.407	41617.97
626.602	41404.98
626.796	42089
626.991	42760.73
627.185	42689.06
627.38	43096.6
627.574	43065.88
627.768	43530.77
627.963	43713.04
628.157	43631.12
628.352	44198.41
628.546	43395.6
628.74	44071.43
628.935	43717.14
629.129	43610.64
629.323	43182.62
629.517	43581.97
629.712	42750.49
629.906	42797.6
630.1	41710.13
630.294	41691.69
630.489	40821.31
630.683	40714.81
630.877	39449.17
631.071	39154.26
631.265	38806.11
631.459	38138.47
631.653	36729.47
631.848	35998.34
632.042	35248.78
632.236	34501.28
632.43	33405.61
632.624	32518.84
632.818	31382.22
633.012	30307.04
633.206	29338.35
633.4	28707.57
633.594	27456.26
633.788	26409.75
633.982	25873.18
634.176	24476.47
634.369	23499.59
634.563	23233.35
634.757	21853.02
634.951	21216.1
635.145	20450.16
635.339	19714.94
635.533	18738.06
635.726	18117.53
635.92	17023.91
636.114	16604.08
636.308	15856.57
636.501	15539.13
636.695	14588.88
636.889	13874.13
637.083	13446.11
637.276	12860.39
637.47	12389.36
637.664	11858.93
637.857	11453.44
638.051	10892.29
638.244	10560.52
638.438	10144.78
638.632	9782.29
638.825	9233.44
639.019	9022.5
639.212	8377.39
639.406	8158.25
639.599	7932.98
639.793	7533.62
639.986	7210.04
640.18	7191.61
640.373	6708.29
640.567	6507.59
640.76	6122.57
640.954	6050.89
641.147	5698.64
641.34	5610.58
641.534	5567.57
641.727	5137.5
641.92	5045.34
642.114	4824.16
642.307	4660.32
642.5	4385.9
642.694	4041.84
642.887	4234.35
643.08	4021.36
643.273	3978.35
643.467	3646.58
643.66	3570.8
643.853	3306.62
644.046	3329.14
644.239	3208.31
644.432	2921.6
644.626	2823.3
644.819	2849.92
645.012	2569.35
645.205	2628.74
645.398	2466.95
645.591	2376.84
645.784	2169.99
645.977	2176.14
646.17	2063.5
646.363	1901.71
646.556	1977.48
646.749	1870.99
646.942	1811.6
647.135	1916.05
647.328	1647.76
647.521	1594.51
647.714	1524.88
647.907	1612.95
648.099	1375.38
648.292	1377.43
648.485	1375.38
648.678	1250.46
648.871	1215.64
649.064	1166.49
649.256	1189.02
649.449	1086.62
649.642	951.45
649.835	1047.71
650.027	1021.08
650.22	1146.01
650.413	906.4
650.605	935.07
650.798	859.29
650.991	873.63
651.183	756.9
651.376	779.42
651.568	859.29
651.761	695.46
651.954	724.13
652.146	658.59
652.339	625.83
652.531	742.56
652.724	504.99
652.916	562.34
653.109	447.65
653.301	699.55
653.494	650.4
653.686	548
653.879	607.39
654.071	511.14
654.263	482.47
654.456	380.07
654.648	494.76
654.84	529.57
655.033	435.36
655.225	558.24
655.417	244.9
655.61	537.76
655.802	474.28
655.994	584.87
656.186	261.29
656.379	521.38
656.571	312.49
656.763	361.64
656.955	349.35
657.148	289.96
657.34	386.21
657.532	304.29
657.724	238.76
657.916	167.08
658.108	468.13
658.3	359.59
658.492	408.74
658.684	130.22
658.876	408.74
659.068	212.14
659.26	158.89
659.452	210.09
659.644	244.9
659.836	289.96
660.028	222.38
660.22	162.98
660.412	216.23
660.604	203.94
660.796	236.71
660.988	236.71
661.18	218.28
661.372	199.85
661.563	189.61
661.755	238.76
661.947	105.64
662.139	158.89
662.331	158.89
662.522	249
662.714	146.6
662.906	128.17
663.097	117.93
663.289	173.22
663.481	70.83
663.673	261.29
663.864	263.33
664.056	238.76
664.247	19.63
664.439	257.19
664.631	167.08
664.822	218.28
665.014	85.16
665.205	134.31
665.397	97.45
665.588	128.17
665.78	126.12
665.971	177.32
666.163	156.84
666.354	160.94
666.546	29.87
666.737	132.26
666.929	66.73
667.12	17.58
667.311	175.27
667.503	117.93
667.694	111.78
667.885	162.98
668.077	189.61
668.268	52.39
668.459	136.36
668.651	187.56
668.842	148.65
669.033	122.02
669.224	-9.05
669.416	298.15
669.607	119.98
669.798	46.25
669.989	232.62
670.18	76.97
670.371	177.32
670.563	44.2
670.754	234.66
670.945	173.22
671.136	89.26
671.327	3.24
671.518	167.08
671.709	214.18
671.9	162.98
672.091	128.17
672.282	111.78
672.473	128.17
672.664	70.83
672.855	72.87
673.046	226.47
673.237	230.57
673.428	76.97
673.619	148.65
673.809	130.22
674	226.47
674.191	179.37
674.382	138.41
674.573	97.45
674.764	115.88
674.954	128.17
675.145	33.96
675.336	81.07
675.527	50.35
675.717	109.74
675.908	126.12
676.099	79.02
676.289	150.7
676.48	-41.81
676.671	117.93
676.861	130.22
677.052	148.65
677.243	142.5
677.433	111.78
677.624	218.28
677.814	54.44
678.005	111.78
678.195	199.85
678.386	3.24
678.576	105.64
678.767	76.97
678.957	91.31
679.148	218.28
679.338	201.9
679.529	181.42
679.719	146.6
679.909	187.56
680.1	195.75
680.29	173.22
680.481	19.63
680.671	205.99
680.861	193.7
681.052	201.9
681.242	21.67
681.432	189.61
681.622	156.84
681.813	81.07
682.003	124.07
682.193	140.46
682.383	103.59
682.573	103.59
682.764	79.02
682.954	138.41
683.144	214.18
683.334	85.16
683.524	156.84
683.714	232.62
683.904	183.46
684.094	87.21
684.284	205.99
684.474	263.33
684.664	187.56
684.854	253.09
685.044	138.41
685.234	167.08
685.424	208.04
685.614	156.84
685.804	304.29
685.994	224.42
686.184	152.74
686.374	218.28
686.564	177.32
686.753	173.22
686.943	89.26
687.133	103.59
687.323	187.56
687.513	191.66
687.702	177.32
687.892	111.78
688.082	218.28
688.272	158.89
688.461	187.56
688.651	283.81
688.841	169.13
689.03	124.07
689.22	93.35
689.41	236.71
689.599	195.75
689.789	81.07
689.979	220.33
690.168	167.08
690.358	208.04
690.547	193.7
690.737	175.27
690.926	216.23
691.116	212.14
691.305	201.9
691.495	249
691.684	130.22
691.874	197.8
692.063	187.56
692.252	234.66
692.442	269.48
692.631	175.27
692.82	134.31
693.01	175.27
693.199	175.27
693.388	175.27
693.578	136.36
693.767	146.6
693.956	154.79
694.146	150.7
694.335	185.51
694.524	103.59
694.713	175.27
694.902	115.88
695.092	158.89
695.281	169.13
695.47	126.12
695.659	167.08
695.848	169.13
696.037	156.84
696.226	191.66
696.415	208.04
696.604	181.42
696.793	169.13
696.982	165.03
697.171	257.19
697.36	91.31
697.549	167.08
697.738	36.01
697.927	97.45
698.116	76.97
698.305	222.38
698.494	138.41
698.683	93.35
698.872	326.82
699.061	81.07
699.25	175.27
699.438	144.55
699.627	58.54
699.816	199.85
700.005	64.68
700.193	140.46
700.382	185.51
700.571	144.55
700.76	162.98
700.948	277.67
701.137	228.52
701.326	203.94
701.514	122.02
701.703	154.79
701.892	146.6
702.08	277.67
702.269	70.83
702.457	212.14
702.646	203.94
702.834	122.02
703.023	269.48
703.212	224.42
703.4	44.2
703.589	132.26
703.777	29.87
703.965	138.41
704.154	144.55
704.342	101.55
704.531	171.18
704.719	183.46
704.907	189.61
705.096	124.07
705.284	87.21
705.472	97.45
705.661	275.62
705.849	193.7
706.037	183.46
706.226	134.31
706.414	187.56
706.602	177.32
706.79	212.14
706.979	52.39
707.167	158.89
707.355	95.4
707.543	169.13
707.731	136.36
707.919	107.69
708.107	85.16
708.296	203.94
708.484	70.83
708.672	134.31
708.86	208.04
709.048	113.83
709.236	103.59
709.424	205.99
709.612	208.04
709.8	68.78
709.988	154.79
710.176	251.05
710.364	244.9
710.551	158.89
710.739	124.07
710.927	138.41
711.115	136.36
711.303	253.09
711.491	189.61
711.679	25.77
711.866	187.56
712.054	203.94
712.242	193.7
712.43	238.76
712.617	185.51
712.805	185.51
712.993	205.99
713.181	101.55
713.368	238.76
713.556	101.55
713.744	62.63
713.931	318.63
714.119	224.42
714.306	29.87
714.494	111.78
714.682	218.28
714.869	87.21
715.057	185.51
715.244	38.06
715.432	189.61
715.619	87.21
715.807	167.08
715.994	97.45
716.182	212.14
716.369	140.46
716.556	138.41
716.744	11.43
716.931	52.39
717.119	144.55
717.306	101.55
717.493	187.56
717.681	148.65
717.868	128.17
718.055	203.94
718.242	144.55
718.43	162.98
718.617	162.98
718.804	181.42
718.991	238.76
719.179	85.16
719.366	244.9
719.553	130.22
719.74	177.32
719.927	95.4
720.114	179.37
720.301	70.83
720.488	175.27
720.676	146.6
720.863	230.57
721.05	265.38
721.237	279.72
721.424	234.66
721.611	208.04
721.798	36.01
721.985	128.17
722.172	134.31
722.358	150.7
722.545	187.56
722.732	216.23
722.919	216.23
723.106	193.7
723.293	117.93
723.48	154.79
723.667	81.07
723.853	119.98
724.04	185.51
724.227	246.95
724.414	167.08
724.6	179.37
724.787	271.53
724.974	390.31
725.161	144.55
725.347	95.4
725.534	199.85
725.72	269.48
725.907	199.85
726.094	289.96
726.28	119.98
726.467	126.12
726.653	46.25
726.84	255.14
727.027	251.05
727.213	195.75
727.4	175.27
727.586	220.33
727.773	197.8
727.959	136.36
728.145	177.32
728.332	201.9
728.518	201.9
728.705	249
728.891	240.81
729.077	283.81
729.264	119.98
729.45	173.22
729.636	234.66
729.823	140.46
730.009	128.17
730.195	220.33
730.382	246.95
730.568	148.65
730.754	197.8
730.94	175.27
731.126	220.33
731.313	259.24
731.499	220.33
731.685	148.65
731.871	156.84
732.057	214.18
732.243	167.08
732.429	146.6
732.615	335.01
732.801	244.9
732.987	162.98
733.173	208.04
733.359	169.13
733.545	103.59
733.731	109.74
733.917	281.77
734.103	236.71
734.289	216.23
734.475	122.02
734.661	304.29
734.847	101.55
735.033	277.67
735.219	306.34
735.404	148.65
735.59	212.14
735.776	134.31
735.962	230.57
736.148	316.58
736.333	289.96
736.519	267.43
736.705	167.08
736.89	195.75
737.076	154.79
737.262	99.5
737.447	169.13
737.633	160.94
737.819	246.95
738.004	279.72
738.19	205.99
738.375	212.14
738.561	353.45
738.747	171.18
738.932	140.46
739.118	351.4
739.303	232.62
739.489	232.62
739.674	167.08
739.859	126.12
740.045	228.52
740.23	234.66
740.416	11.43
740.601	222.38
740.786	205.99
740.972	130.22
741.157	101.55
741.342	152.74
741.528	124.07
741.713	189.61
741.898	203.94
742.084	236.71
742.269	130.22
742.454	162.98
742.639	212.14
742.824	224.42
743.01	253.09
743.195	341.16
743.38	136.36
743.565	228.52
743.75	224.42
743.935	150.7
744.12	232.62
744.305	89.26
744.49	113.83
744.675	167.08
744.86	138.41
745.045	220.33
745.23	173.22
745.415	95.4
745.6	189.61
745.785	113.83
745.97	316.58
746.155	203.94
746.34	257.19
746.525	185.51
746.71	306.34
746.895	66.73
747.079	27.82
747.264	132.26
747.449	277.67
747.634	339.11
747.819	191.66
748.003	142.5
748.188	64.68
748.373	169.13
748.557	281.77
748.742	171.18
748.927	122.02
749.111	154.79
749.296	169.13
749.481	222.38
749.665	167.08
749.85	107.69
750.034	128.17
750.219	136.36
750.404	72.87
750.588	169.13
750.773	171.18
750.957	183.46
751.141	105.64
751.326	201.9
751.51	58.54
751.695	95.4
751.879	158.89
752.064	283.81
752.248	187.56
752.432	228.52
752.617	201.9
752.801	273.57
752.985	62.63
753.17	238.76
753.354	117.93
753.538	189.61
753.722	70.83
753.907	154.79
754.091	17.58
754.275	160.94
754.459	119.98
754.643	44.2
754.828	111.78
755.012	183.46
755.196	-4.95
755.38	160.94
755.564	72.87
755.748	142.5
755.932	183.46
756.116	201.9
756.3	134.31
756.484	105.64
756.668	197.8
756.852	-17.24
757.036	210.09
757.22	99.5
757.404	44.2
757.588	40.11
757.772	181.42
757.956	154.79
758.14	294.05
758.323	72.87
758.507	162.98
758.691	79.02
758.875	208.04
759.059	148.65
759.242	44.2
759.426	142.5
759.61	210.09
759.794	40.11
759.977	146.6
760.161	292.01
760.345	289.96
760.528	238.76
760.712	197.8
760.895	177.32
761.079	74.92
761.263	122.02
761.446	62.63
761.63	101.55
761.813	230.57
761.997	21.67
762.18	128.17
762.364	70.83
762.547	3.24
762.731	93.35
762.914	-45.91
763.098	113.83
763.281	74.92
763.464	64.68
763.648	81.07
763.831	93.35
764.015	64.68
764.198	167.08
764.381	-33.62
764.564	64.68
764.748	148.65
764.931	95.4
765.114	-37.72
765.297	15.53
765.481	25.77
765.664	105.64
765.847	58.54
766.03	185.51
766.213	74.92
766.397	56.49
766.58	25.77
766.763	136.36
766.946	38.06
767.129	-13.14
767.312	-37.72
767.495	25.77
767.678	31.91
767.861	103.59
768.044	33.96
768.227	81.07
768.41	64.68
768.593	136.36
768.776	70.83
768.959	60.59
769.142	138.41
769.324	74.92
769.507	105.64
769.69	56.49
769.873	109.74
770.056	183.46
770.239	3.24
770.421	195.75
770.604	117.93
770.787	25.77
770.97	111.78
771.152	-21.33
771.335	58.54
771.518	21.67
771.7	152.74
771.883	140.46
772.066	44.2
772.248	36.01
772.431	72.87
772.613	15.53
772.796	101.55
772.978	81.07
773.161	187.56
773.343	-9.05
773.526	7.34
773.708	-43.86
773.891	-56.15
774.073	17.58
774.256	60.59
774.438	171.18
774.621	9.39
774.803	81.07
774.985	25.77
775.168	126.12
775.35	9.39
775.532	136.36
775.715	-19.29
775.897	101.55
776.079	74.92
776.261	105.64
776.444	126.12
776.626	33.96
776.808	109.74
776.99	-113.49
777.173	74.92
777.355	-17.24
777.537	11.43
777.719	54.44
777.901	-25.43
778.083	115.88
778.265	-54.1
778.447	81.07
778.629	-15.19
778.811	40.11
778.993	101.55
779.175	25.77
779.357	44.2
779.539	-4.95
779.721	15.53
779.903	132.26
780.085	48.3
780.267	36.01
780.449	15.53
780.631	156.84
780.812	146.6
780.994	3.24
781.176	89.26
781.358	7.34
781.54	-4.95
781.721	5.29
781.903	119.98
782.085	15.53
782.267	72.87
782.448	-101.2
782.63	-33.62
782.812	11.43
782.993	40.11
783.175	81.07
783.357	-72.53
783.538	46.25
783.72	-33.62
783.901	3.24
784.083	140.46
784.264	87.21
784.446	29.87
784.627	-27.48
784.809	42.15
784.99	-19.29
785.172	72.87
785.353	60.59
785.535	13.48
785.716	9.39
785.897	-93.01
786.079	25.77
786.26	44.2
786.441	70.83
786.623	-160.59
786.804	-0.85
786.985	-25.43
787.167	50.35
787.348	11.43
787.529	15.53
787.71	140.46
787.891	111.78
788.073	-0.85
788.254	-41.81
788.435	152.74
788.616	-47.96
788.797	-4.95
788.978	31.91
789.159	21.67
789.34	38.06
789.522	-86.87
789.703	60.59
789.884	33.96
790.065	38.06
790.246	146.6
790.427	-107.35
790.607	74.92
790.788	85.16
790.969	42.15
791.15	29.87
791.331	-68.44
791.512	36.01
791.693	-74.58
791.874	29.87
792.054	212.14
792.235	58.54
792.416	-60.24
792.597	1.19
792.778	-0.85
792.958	46.25
793.139	-19.29
793.32	50.35
793.5	-60.24
793.681	179.37
793.862	64.68
794.042	40.11
794.223	-52.05
794.404	33.96
794.584	-125.78
794.765	27.82
794.945	-95.06
795.126	-17.24
795.306	36.01
795.487	-45.91
795.667	-13.14
795.848	38.06
796.028	-41.81
796.209	33.96
796.389	85.16
796.57	-9.05
796.75	-50
796.93	7.34
797.111	-4.95
797.291	-78.68
797.471	146.6
797.652	13.48
797.832	-58.2
798.012	58.54
798.192	29.87
798.373	-54.1
798.553	-27.48
798.733	74.92
798.913	-37.72
799.093	-60.24
799.274	15.53
799.454	113.83
799.634	7.34
799.814	85.16
799.994	81.07
800.174	19.63
800.354	31.91
800.534	-150.36
800.714	-52.05
800.894	-52.05
801.074	-66.39
801.254	-82.77
801.434	91.31
801.614	-11.09
801.794	1.19
801.974	1979.53
802.154	25.77
802.334	50.35
802.514	-99.16
802.693	25.77
802.873	-82.77
803.053	48.3
803.233	60.59
803.413	-27.48
803.592	-7
803.772	-84.82
803.952	-25.43
804.131	-95.06
804.311	70.83
804.491	31.91
804.67	-27.48
804.85	13.48
805.03	-17.24
805.209	31.91
805.389	-37.72
805.568	-113.49
805.748	-27.48
805.928	1.19
806.107	25.77
806.287	-90.96
806.466	64.68
806.646	50.35
806.825	-101.2
807.004	3.24
807.184	21.67
807.363	93.35
807.543	21.67
807.722	-103.25
807.901	113.83
808.081	15.53
808.26	-74.58
808.439	11.43
808.619	29.87
808.798	-58.2
808.977	-31.57
809.156	13.48
809.336	85.16
809.515	50.35
809.694	-70.48
809.873	-78.68
810.052	70.83
810.231	119.98
810.411	-21.33
810.59	7.34
810.769	9.39
810.948	58.54
811.127	-76.63
811.306	-29.52
811.485	-56.15
811.664	136.36
811.843	48.3
812.022	-2.9
812.201	-47.96
812.38	44.2
812.559	-25.43
812.737	31.91
812.916	-60.24
813.095	-80.72
813.274	97.45
813.453	1.19
813.632	29.87
813.811	36.01
813.989	-56.15
814.168	42.15
814.347	-64.34
814.526	3.24
814.704	89.26
814.883	134.31
815.062	-113.49
815.24	44.2
815.419	-84.82
815.598	38.06
815.776	-117.59
815.955	40.11
816.133	-168.79
816.312	46.25
816.49	-90.96
816.669	23.72
816.847	-19.29
817.026	1.19
817.204	-86.87
817.383	31.91
817.561	-121.68
817.74	5.29
817.918	62.63
818.097	-19.29
818.275	-41.81
818.453	-7
818.632	19.63
818.81	-62.29
818.988	-23.38
819.167	-90.96
819.345	-21.33
819.523	-90.96
819.701	-21.33
819.879	42.15
820.058	-13.14
820.236	-11.09
820.414	7.34
820.592	-2.9
820.77	-125.78
820.948	-17.24
821.127	-43.86
821.305	-52.05
821.483	-27.48
821.661	109.74
821.839	46.25
822.017	-129.88
822.195	-80.72
822.373	-7
822.551	-17.24
822.729	38.06
822.907	-43.86
823.085	48.3
823.262	-0.85
823.44	-105.3
823.618	-82.77
823.796	-4.95
823.974	-35.67
824.152	-148.31
824.329	-15.19
824.507	56.49
824.685	9.39
824.863	-109.4
825.04	17.58
825.218	83.11
825.396	13.48
825.574	91.31
825.751	-93.01
825.929	113.83
826.107	-86.87
826.284	-21.33
826.462	-19.29
826.639	-138.07
826.817	-131.92
826.994	-15.19
827.172	-82.77
827.349	72.87
827.527	117.93
827.704	31.91
827.882	119.98
828.059	-60.24
828.237	50.35
828.414	-13.14
828.591	-101.2
828.769	-45.91
828.946	-86.87
829.124	38.06
829.301	42.15
829.478	-72.53
829.655	21.67
829.833	-95.06
830.01	-172.88
830.187	-33.62
830.364	-62.29
830.542	74.92
830.719	87.21
830.896	-7
831.073	-43.86
831.25	29.87
831.427	15.53
831.604	46.25
831.782	-29.52
831.959	-15.19
832.136	-37.72
832.313	85.16
832.49	-50
832.667	40.11
832.844	-35.67
833.021	36.01
833.198	62.63
833.374	-52.05
833.551	23.72
833.728	23.72
833.905	154.79
834.082	-90.96
834.259	36.01
834.436	124.07
834.612	-60.24
834.789	-39.76
834.966	42.15
835.143	-25.43
835.319	-125.78
835.496	44.2
835.673	11.43
835.85	40.11
836.026	-21.33
836.203	40.11
836.38	-39.76
836.556	-41.81
836.733	-70.48
836.909	107.69
837.086	-60.24
837.262	-62.29
837.439	27.82
837.616	-66.39
837.792	23.72
837.968	-58.2
838.145	-150.36
838.321	-39.76
838.498	54.44
838.674	85.16
838.851	-84.82
839.027	-84.82
839.203	31.91
839.38	70.83
839.556	-35.67
839.732	169.13
839.909	7.34
840.085	1.19
840.261	-78.68
840.437	-7
840.614	-129.88
840.79	91.31
840.966	81.07
841.142	9.39
841.318	-25.43
841.494	33.96
841.671	36.01
841.847	-43.86
842.023	-129.88
842.199	7.34
842.375	109.74
842.551	-136.02
842.727	-58.2
842.903	87.21
843.079	-72.53
843.255	81.07
843.431	-101.2
843.607	25.77
843.783	-156.5
843.959	-0.85
844.134	-76.63
844.31	79.02
844.486	-29.52
844.662	-72.53
844.838	-41.81
845.013	-45.91
845.189	54.44
845.365	11.43
845.541	-9.05
845.716	-27.48
845.892	62.63
846.068	-47.96
846.244	-17.24
846.419	-13.14
846.595	-74.58
846.77	-9.05
846.946	58.54
847.122	-78.68
847.297	-17.24
847.473	-7
847.648	-86.87
847.824	-19.29
847.999	-99.16
848.175	-76.63
848.35	99.5
848.526	95.4
848.701	27.82
848.876	68.78
849.052	27.82
849.227	25.77
849.403	9.39
849.578	-15.19
849.753	-27.48
849.929	122.02
850.104	-86.87
850.279	-19.29
850.454	33.96
850.63	-37.72
850.805	-29.52
850.98	15.53
851.155	-45.91
851.33	19.63
851.505	-103.25
851.681	101.55
851.856	-123.73
852.031	-25.43
852.206	72.87
852.381	-45.91
852.556	-31.57
852.731	-21.33
852.906	11.43
853.081	21.67
853.256	56.49
853.431	-15.19
853.606	-17.24
853.781	-60.24
853.956	-193.36
854.131	-21.33
854.305	-78.68
854.48	-13.14
854.655	-86.87
854.83	-62.29
855.005	-13.14
855.18	-50
855.354	-58.2
855.529	36.01
855.704	-17.24
855.879	-35.67
856.053	-52.05
856.228	60.59
856.403	-111.44
856.577	33.96
856.752	-142.16
856.926	-11.09
857.101	-56.15
857.276	-131.92
857.45	36.01
857.625	119.98
857.799	-58.2
857.974	-31.57
858.148	-148.31
858.323	5.29
858.497	-54.1
858.672	-99.16
858.846	-58.2
859.02	79.02
859.195	-93.01
859.369	-78.68
859.543	-9.05
859.718	-47.96
859.892	-11.09
860.066	-68.44
860.241	-4.95
860.415	-7
860.589	-62.29
860.763	-45.91
860.938	-68.44
861.112	23.72
861.286	-74.58
861.46	-37.72
861.634	-25.43
861.808	48.3
861.982	-19.29
862.157	-80.72
862.331	3.24
862.505	-107.35
862.679	-93.01
862.853	-66.39
863.027	23.72
863.201	99.5
863.375	-88.92
863.549	-0.85
863.722	-41.81
863.896	27.82
864.07	19.63
864.244	-41.81
864.418	38.06
864.592	7.34
864.766	-74.58
864.939	7.34
865.113	-19.29
865.287	85.16
865.461	-78.68
865.634	-9.05
865.808	-62.29
865.982	-72.53
866.156	-62.29
866.329	-70.48
866.503	128.17
866.676	-0.85
866.85	1.19
867.024	-37.72
867.197	-17.24
867.371	-56.15
867.544	-25.43
867.718	-76.63
867.891	60.59
868.065	-146.26
868.238	17.58
868.412	97.45
868.585	54.44
868.759	-7
868.932	-2.9
869.105	-76.63
869.279	-47.96
869.452	-76.63
869.625	-41.81
869.799	-43.86
869.972	-111.44
870.145	-25.43
870.319	3.24
870.492	-13.14
870.665	-64.34
870.838	36.01
871.011	-111.44
871.185	-43.86
871.358	-95.06
871.531	-138.07
871.704	-62.29
871.877	-13.14
872.05	-19.29
872.223	-99.16
872.396	31.91
872.569	-21.33
872.742	-99.16
872.915	-19.29
873.088	-66.39
873.261	-125.78
873.434	60.59
873.607	-37.72
873.78	74.92
873.953	-68.44
874.126	-17.24
874.299	1.19
874.471	-47.96
874.644	-33.62
874.817	85.16
874.99	93.35
875.163	-74.58
875.335	13.48
875.508	-56.15
875.681	66.73
875.853	-88.92
876.026	-50
876.199	48.3
876.371	7.34
876.544	-95.06
876.717	13.48
876.889	27.82
877.062	-82.77
877.234	-119.64
877.407	-39.76
877.579	-21.33
877.752	-33.62
877.924	87.21
878.097	-11.09
878.269	-9.05
878.442	46.25
878.614	9.39
878.786	-66.39
878.959	-19.29
879.131	-25.43
879.303	-172.88
879.476	-78.68
879.648	-21.33
879.82	-0.85
879.993	-43.86
880.165	-90.96
880.337	-119.64
880.509	33.96
880.681	-80.72
880.854	-80.72
881.026	66.73
881.198	132.26
881.37	-29.52
881.542	-43.86
881.714	-52.05
881.886	-29.52
882.058	42.15
882.23	-9.05
882.402	-52.05
882.574	17.58
882.746	21.67
882.918	122.02
883.09	-54.1
883.262	-52.05
883.434	33.96
883.606	-136.02
883.778	-78.68
883.95	160.94
884.122	29.87
884.293	44.2
884.465	-27.48
884.637	74.92
884.809	-39.76
884.98	-11.09
885.152	36.01
885.324	21.67
885.496	-13.14
885.667	13.48
885.839	-129.88
886.011	142.5
886.182	21.67
886.354	52.39
886.525	-23.38
886.697	-95.06
886.869	-86.87
887.04	-43.86
887.212	111.78
887.383	199.85
887.555	60.59
887.726	-60.24
887.897	-66.39
888.069	-90.96
888.24	-7
888.412	-54.1
888.583	-31.57
888.754	-7
888.926	-97.11
889.097	-64.34
889.268	-119.64
889.44	-62.29
889.611	-93.01
889.782	-119.64
889.953	-47.96
890.125	64.68
890.296	-76.63
890.467	-29.52
890.638	-23.38
890.809	-31.57
890.98	-39.76
891.151	-33.62
891.323	52.39
891.494	21.67
891.665	-35.67
891.836	-39.76
892.007	-7
892.178	-74.58
892.349	38.06
892.52	-86.87
892.691	-54.1
892.862	-68.44
893.032	-70.48
893.203	-103.25
893.374	42.15
893.545	91.31
893.716	-109.4
893.887	74.92
894.057	-21.33
894.228	-2.9
894.399	-43.86
894.57	13.48
894.74	21.67
894.911	7.34
895.082	-58.2
895.253	-43.86
895.423	-66.39
895.594	56.49
895.764	68.78
895.935	-66.39
896.106	21.67
896.276	-7
896.447	-78.68
896.617	-103.25
896.788	-133.97
896.958	-117.59
897.129	-68.44
897.299	-13.14
897.47	64.68
897.64	-19.29
897.81	-17.24
897.981	-21.33
898.151	-62.29
898.322	5.29
898.492	17.58
898.662	-115.54
898.832	-9.05
899.003	-144.21
899.173	85.16
899.343	-62.29
899.513	-74.58
