Data from USB4F104151__231__11-06-22-925.txt Node

Date: Wed Feb 26 11:06:22 EST 2025
User: louis
Spectrometer: USB4F10415
Trigger mode: 4
Integration Time (sec): 1.000000E-1
Scans to average: 1
Electric dark correction enabled: true
Nonlinearity correction enabled: false
Boxcar width: 0
XAxis mode: Wavelengths
Number of Pixels in Spectrum: 3648
>>>>>Begin Spectral Data<<<<<
178.204	-368.29
178.424	-368.29
178.644	-368.29
178.864	-392.87
179.084	-353.96
179.304	-50.86
179.524	26.96
179.744	2.39
179.964	55.64
180.184	-13.99
180.404	57.68
180.624	-59.05
180.844	74.07
181.064	-57
181.283	-67.24
181.503	-16.04
181.723	47.44
181.943	-52.91
182.163	178.51
182.383	-5.8
182.602	41.3
182.822	100.69
183.042	51.54
183.262	41.3
183.482	94.55
183.701	2.39
183.921	55.64
184.141	10.58
184.361	104.79
184.58	8.53
184.8	127.32
185.02	-46.76
185.239	98.64
185.459	90.45
185.679	123.22
185.898	-118.44
186.118	22.87
186.338	67.92
186.557	141.65
186.777	-16.04
186.997	12.63
187.216	-63.15
187.436	160.08
187.655	131.41
187.875	155.99
188.095	26.96
188.314	139.6
188.534	170.32
188.753	6.49
188.973	186.71
189.192	170.32
189.412	-28.33
189.631	16.73
189.851	108.88
190.07	127.32
190.29	24.92
190.509	-48.81
190.729	98.64
190.948	98.64
191.168	244.05
191.387	26.96
191.607	80.21
191.826	119.12
192.045	14.68
192.265	22.87
192.484	80.21
192.704	57.68
192.923	-34.47
193.142	119.12
193.362	117.08
193.581	137.56
193.8	96.6
194.02	59.73
194.239	72.02
194.458	110.93
194.678	2.39
194.897	61.78
195.116	35.16
195.335	104.79
195.555	74.07
195.774	-9.9
195.993	158.03
196.212	76.12
196.432	47.44
196.651	-11.95
196.87	121.17
197.089	198.99
197.308	45.4
197.528	131.41
197.747	-7.85
197.966	149.84
198.185	106.84
198.404	-83.63
198.623	160.08
198.842	98.64
199.062	170.32
199.281	86.36
199.5	78.16
199.719	149.84
199.938	22.87
200.157	110.93
200.376	198.99
200.595	139.6
200.814	39.25
201.033	6.49
201.252	268.63
201.471	33.11
201.69	86.36
201.909	43.35
202.128	121.17
202.347	24.92
202.566	51.54
202.785	-48.81
203.004	6.49
203.223	289.1
203.442	16.73
203.661	-26.28
203.879	96.6
204.098	127.32
204.317	-100.01
204.536	90.45
204.755	67.92
204.974	133.46
205.193	6.49
205.411	115.03
205.63	80.21
205.849	61.78
206.068	-5.8
206.287	10.58
206.505	145.75
206.724	43.35
206.943	33.11
207.162	10.58
207.381	59.73
207.599	22.87
207.818	43.35
208.037	16.73
208.255	14.68
208.474	123.22
208.693	18.77
208.911	-22.19
209.13	129.36
209.349	20.82
209.567	72.02
209.786	108.88
210.005	82.26
210.223	53.59
210.442	-81.58
210.661	45.4
210.879	63.83
211.098	41.3
211.316	112.98
211.535	106.84
211.753	131.41
211.972	63.83
212.191	-59.05
212.409	49.49
212.628	184.66
212.846	-36.52
213.065	-44.71
213.283	117.08
213.502	72.02
213.72	-38.57
213.938	115.03
214.157	39.25
214.375	98.64
214.594	0.34
214.812	65.88
215.031	24.92
215.249	22.87
215.467	74.07
215.686	55.64
215.904	158.03
216.122	92.5
216.341	127.32
216.559	82.26
216.778	106.84
216.996	141.65
217.214	-52.91
217.432	74.07
217.651	24.92
217.869	92.5
218.087	43.35
218.306	78.16
218.524	43.35
218.742	45.4
218.96	153.94
219.179	35.16
219.397	33.11
219.615	184.66
219.833	72.02
220.051	63.83
220.27	18.77
220.488	84.31
220.706	88.4
220.924	20.82
221.142	35.16
221.36	119.12
221.578	166.23
221.796	16.73
222.015	69.97
222.233	47.44
222.451	129.36
222.669	39.25
222.887	24.92
223.105	45.4
223.323	6.49
223.541	-28.33
223.759	51.54
223.977	84.31
224.195	143.7
224.413	86.36
224.631	102.74
224.849	45.4
225.067	155.99
225.285	24.92
225.503	41.3
225.721	-26.28
225.939	98.64
226.157	57.68
226.375	209.23
226.592	-18.09
226.81	31.06
227.028	98.64
227.246	135.51
227.464	33.11
227.682	112.98
227.9	43.35
228.117	51.54
228.335	104.79
228.553	53.59
228.771	16.73
228.989	84.31
229.206	139.6
229.424	18.77
229.642	26.96
229.86	-40.62
230.077	166.23
230.295	110.93
230.513	59.73
230.731	100.69
230.948	198.99
231.166	184.66
231.384	-3.75
231.601	39.25
231.819	172.37
232.037	22.87
232.254	22.87
232.472	57.68
232.689	67.92
232.907	166.23
233.125	-5.8
233.342	-34.47
233.56	-1.71
233.777	-1.71
233.995	20.82
234.213	108.88
234.43	92.5
234.648	8.53
234.865	22.87
235.083	49.49
235.3	-13.99
235.518	76.12
235.735	155.99
235.953	135.51
236.17	55.64
236.388	123.22
236.605	76.12
236.822	110.93
237.04	147.8
237.257	192.85
237.475	-42.67
237.692	110.93
237.909	121.17
238.127	-65.19
238.344	63.83
238.562	35.16
238.779	57.68
238.996	-59.05
239.214	22.87
239.431	100.69
239.648	35.16
239.865	131.41
240.083	137.56
240.3	-63.15
240.517	-16.04
240.735	6.49
240.952	184.66
241.169	61.78
241.386	102.74
241.603	98.64
241.821	117.08
242.038	76.12
242.255	59.73
242.472	-22.19
242.689	108.88
242.907	149.84
243.124	35.16
243.341	119.12
243.558	18.77
243.775	18.77
243.992	-61.1
244.209	92.5
244.426	198.99
244.643	61.78
244.86	-13.99
245.078	121.17
245.295	63.83
245.512	20.82
245.729	10.58
245.946	135.51
246.163	121.17
246.38	47.44
246.597	115.03
246.814	72.02
247.031	24.92
247.248	18.77
247.464	117.08
247.681	80.21
247.898	82.26
248.115	133.46
248.332	-38.57
248.549	131.41
248.766	164.18
248.983	121.17
249.2	135.51
249.417	139.6
249.633	18.77
249.85	131.41
250.067	119.12
250.284	84.31
250.501	119.12
250.717	67.92
250.934	-13.99
251.151	49.49
251.368	-20.14
251.585	63.83
251.801	86.36
252.018	-5.8
252.235	131.41
252.451	-32.43
252.668	22.87
252.885	145.75
253.102	110.93
253.318	-63.15
253.535	-9.9
253.752	-24.23
253.968	-1.71
254.185	-42.67
254.401	26.96
254.618	78.16
254.835	-5.8
255.051	164.18
255.268	123.22
255.484	76.12
255.701	35.16
255.917	119.12
256.134	-32.43
256.351	65.88
256.567	-28.33
256.784	137.56
257	-26.28
257.217	76.12
257.433	96.6
257.65	59.73
257.866	201.04
258.082	-169.64
258.299	-44.71
258.515	100.69
258.732	-75.43
258.948	-77.48
259.165	55.64
259.381	12.63
259.597	67.92
259.814	39.25
260.03	26.96
260.246	65.88
260.463	133.46
260.679	166.23
260.895	84.31
261.112	51.54
261.328	24.92
261.544	74.07
261.761	203.09
261.977	-3.75
262.193	26.96
262.409	133.46
262.626	74.07
262.842	18.77
263.058	29.01
263.274	63.83
263.49	41.3
263.707	10.58
263.923	90.45
264.139	-13.99
264.355	67.92
264.571	158.03
264.787	90.45
265.004	135.51
265.22	65.88
265.436	47.44
265.652	24.92
265.868	135.51
266.084	-46.76
266.3	35.16
266.516	-13.99
266.732	74.07
266.948	22.87
267.164	69.97
267.38	192.85
267.596	80.21
267.812	123.22
268.028	104.79
268.244	72.02
268.46	14.68
268.676	-52.91
268.892	35.16
269.108	-54.95
269.324	35.16
269.54	31.06
269.756	166.23
269.972	-61.1
270.188	6.49
270.403	-18.09
270.619	26.96
270.835	106.84
271.051	33.11
271.267	65.88
271.483	4.44
271.698	137.56
271.914	84.31
272.13	39.25
272.346	59.73
272.562	26.96
272.777	184.66
272.993	74.07
273.209	-22.19
273.425	125.27
273.64	-52.91
273.856	108.88
274.072	35.16
274.287	39.25
274.503	82.26
274.719	33.11
274.934	-13.99
275.15	18.77
275.366	61.78
275.581	-38.57
275.797	43.35
276.012	65.88
276.228	-18.09
276.444	96.6
276.659	69.97
276.875	-11.95
277.09	35.16
277.306	90.45
277.521	229.71
277.737	94.55
277.952	125.27
278.168	4.44
278.383	43.35
278.599	41.3
278.814	59.73
279.03	39.25
279.245	43.35
279.461	20.82
279.676	57.68
279.892	-36.52
280.107	-13.99
280.322	-5.8
280.538	108.88
280.753	31.06
280.969	59.73
281.184	63.83
281.399	121.17
281.615	41.3
281.83	108.88
282.045	26.96
282.26	39.25
282.476	29.01
282.691	115.03
282.906	90.45
283.122	33.11
283.337	-3.75
283.552	133.46
283.767	-5.8
283.983	76.12
284.198	-3.75
284.413	16.73
284.628	-77.48
284.843	31.06
285.058	98.64
285.274	35.16
285.489	43.35
285.704	184.66
285.919	-22.19
286.134	53.59
286.349	31.06
286.564	78.16
286.779	39.25
286.995	-11.95
287.21	-95.91
287.425	90.45
287.64	8.53
287.855	53.59
288.07	-42.67
288.285	82.26
288.5	182.61
288.715	176.47
288.93	76.12
289.145	-48.81
289.36	57.68
289.575	-20.14
289.79	131.41
290.004	-7.85
290.219	100.69
290.434	16.73
290.649	4.44
290.864	49.49
291.079	-132.78
291.294	-13.99
291.509	129.36
291.724	-54.95
291.938	4.44
292.153	72.02
292.368	82.26
292.583	94.55
292.798	63.83
293.012	47.44
293.227	29.01
293.442	2.39
293.657	149.84
293.871	155.99
294.086	168.27
294.301	147.8
294.516	149.84
294.73	102.74
294.945	-79.53
295.16	24.92
295.374	147.8
295.589	174.42
295.804	2.39
296.018	63.83
296.233	178.51
296.447	35.16
296.662	-3.75
296.877	80.21
297.091	168.27
297.306	43.35
297.52	18.77
297.735	49.49
297.949	92.5
298.164	102.74
298.378	69.97
298.593	8.53
298.807	-34.47
299.022	115.03
299.236	145.75
299.451	-7.85
299.665	20.82
299.88	-38.57
300.094	94.55
300.309	133.46
300.523	55.64
300.737	-28.33
300.952	145.75
301.166	90.45
301.381	12.63
301.595	49.49
301.809	88.4
302.024	67.92
302.238	59.73
302.452	205.14
302.667	24.92
302.881	117.08
303.095	205.14
303.309	96.6
303.524	12.63
303.738	18.77
303.952	14.68
304.166	119.12
304.381	-112.3
304.595	174.42
304.809	39.25
305.023	24.92
305.237	80.21
305.452	41.3
305.666	141.65
305.88	4.44
306.094	133.46
306.308	98.64
306.522	69.97
306.736	86.36
306.95	174.42
307.164	94.55
307.379	-11.95
307.593	151.89
307.807	252.24
308.021	49.49
308.235	178.51
308.449	16.73
308.663	90.45
308.877	225.62
309.091	55.64
309.305	76.12
309.519	-38.57
309.733	196.95
309.947	16.73
310.161	141.65
310.374	168.27
310.588	82.26
310.802	-40.62
311.016	-1.71
311.23	69.97
311.444	26.96
311.658	78.16
311.872	184.66
312.085	207.19
312.299	98.64
312.513	119.12
312.727	0.34
312.941	-5.8
313.154	41.3
313.368	-59.05
313.582	92.5
313.796	37.2
314.009	45.4
314.223	180.56
314.437	29.01
314.651	153.94
314.864	53.59
315.078	53.59
315.292	49.49
315.505	-63.15
315.719	162.13
315.933	164.18
316.146	0.34
316.36	16.73
316.573	192.85
316.787	61.78
317.001	108.88
317.214	-34.47
317.428	74.07
317.641	-44.71
317.855	-30.38
318.068	78.16
318.282	84.31
318.495	143.7
318.709	39.25
318.922	182.61
319.136	174.42
319.349	24.92
319.563	-3.75
319.776	31.06
319.99	18.77
320.203	121.17
320.417	80.21
320.63	121.17
320.843	127.32
321.057	51.54
321.27	92.5
321.483	168.27
321.697	96.6
321.91	86.36
322.124	98.64
322.337	55.64
322.55	65.88
322.763	78.16
322.977	141.65
323.19	29.01
323.403	-7.85
323.617	92.5
323.83	137.56
324.043	-3.75
324.256	4.44
324.469	-54.95
324.683	104.79
324.896	-1.71
325.109	78.16
325.322	-61.1
325.535	74.07
325.748	117.08
325.962	63.83
326.175	26.96
326.388	149.84
326.601	90.45
326.814	112.98
327.027	69.97
327.24	207.19
327.453	-61.1
327.666	168.27
327.879	125.27
328.092	65.88
328.305	61.78
328.518	-44.71
328.731	96.6
328.944	-20.14
329.157	112.98
329.37	16.73
329.583	188.75
329.796	176.47
330.009	-13.99
330.222	147.8
330.435	94.55
330.648	82.26
330.861	98.64
331.073	72.02
331.286	117.08
331.499	125.27
331.712	39.25
331.925	14.68
332.138	57.68
332.35	100.69
332.563	-9.9
332.776	131.41
332.989	41.3
333.202	8.53
333.414	82.26
333.627	10.58
333.84	137.56
334.053	10.58
334.265	4.44
334.478	-67.24
334.691	55.64
334.903	92.5
335.116	6.49
335.329	29.01
335.541	153.94
335.754	186.71
335.966	41.3
336.179	49.49
336.392	22.87
336.604	33.11
336.817	135.51
337.029	98.64
337.242	24.92
337.454	98.64
337.667	29.01
337.88	186.71
338.092	53.59
338.305	125.27
338.517	6.49
338.729	137.56
338.942	137.56
339.154	8.53
339.367	-16.04
339.579	98.64
339.792	-44.71
340.004	155.99
340.217	74.07
340.429	67.92
340.641	-20.14
340.854	2.39
341.066	74.07
341.278	182.61
341.491	231.76
341.703	63.83
341.915	12.63
342.128	174.42
342.34	24.92
342.552	10.58
342.764	125.27
342.977	35.16
343.189	39.25
343.401	108.88
343.613	-83.63
343.826	18.77
344.038	-13.99
344.25	106.84
344.462	10.58
344.674	86.36
344.886	24.92
345.099	80.21
345.311	108.88
345.523	29.01
345.735	-22.19
345.947	35.16
346.159	10.58
346.371	43.35
346.583	72.02
346.795	143.7
347.007	18.77
347.219	102.74
347.431	-34.47
347.643	149.84
347.855	39.25
348.067	141.65
348.279	-91.82
348.491	65.88
348.703	123.22
348.915	-16.04
349.127	-18.09
349.339	117.08
349.551	-9.9
349.763	149.84
349.975	59.73
350.187	72.02
350.399	90.45
350.61	76.12
350.822	67.92
351.034	117.08
351.246	100.69
351.458	31.06
351.669	69.97
351.881	94.55
352.093	82.26
352.305	102.74
352.517	49.49
352.728	139.6
352.94	176.47
353.152	65.88
353.363	45.4
353.575	41.3
353.787	129.36
353.999	84.31
354.21	194.9
354.422	-9.9
354.633	33.11
354.845	115.03
355.057	98.64
355.268	88.4
355.48	59.73
355.692	-81.58
355.903	45.4
356.115	-5.8
356.326	-83.63
356.538	108.88
356.749	94.55
356.961	182.61
357.172	-9.9
357.384	-9.9
357.595	172.37
357.807	-3.75
358.018	26.96
358.23	41.3
358.441	131.41
358.653	57.68
358.864	88.4
359.075	18.77
359.287	65.88
359.498	139.6
359.709	76.12
359.921	78.16
360.132	49.49
360.344	10.58
360.555	51.54
360.766	78.16
360.977	10.58
361.189	141.65
361.4	145.75
361.611	115.03
361.823	145.75
362.034	67.92
362.245	-1.71
362.456	137.56
362.667	102.74
362.879	-22.19
363.09	153.94
363.301	84.31
363.512	72.02
363.723	65.88
363.935	45.4
364.146	131.41
364.357	12.63
364.568	4.44
364.779	-100.01
364.99	155.99
365.201	-5.8
365.412	98.64
365.623	-30.38
365.834	82.26
366.045	-16.04
366.256	84.31
366.467	151.89
366.678	0.34
366.889	102.74
367.1	12.63
367.311	86.36
367.522	24.92
367.733	84.31
367.944	61.78
368.155	22.87
368.366	129.36
368.577	26.96
368.788	131.41
368.999	-16.04
369.209	57.68
369.42	215.38
369.631	270.67
369.842	82.26
370.053	45.4
370.264	100.69
370.474	26.96
370.685	65.88
370.896	125.27
371.107	151.89
371.317	108.88
371.528	33.11
371.739	172.37
371.95	145.75
372.16	123.22
372.371	-3.75
372.582	49.49
372.792	86.36
373.003	123.22
373.214	133.46
373.424	61.78
373.635	-71.34
373.846	135.51
374.056	39.25
374.267	82.26
374.477	96.6
374.688	-5.8
374.898	115.03
375.109	76.12
375.319	65.88
375.53	133.46
375.74	129.36
375.951	10.58
376.161	-16.04
376.372	149.84
376.582	-46.76
376.793	65.88
377.003	39.25
377.214	47.44
377.424	145.75
377.635	117.08
377.845	-52.91
378.055	147.8
378.266	24.92
378.476	63.83
378.686	155.99
378.897	2.39
379.107	158.03
379.317	82.26
379.528	0.34
379.738	53.59
379.948	-16.04
380.158	123.22
380.369	117.08
380.579	188.75
380.789	2.39
380.999	41.3
381.21	131.41
381.42	190.8
381.63	72.02
381.84	147.8
382.05	80.21
382.261	129.36
382.471	110.93
382.681	-11.95
382.891	145.75
383.101	117.08
383.311	-85.67
383.521	18.77
383.731	141.65
383.941	98.64
384.151	41.3
384.361	2.39
384.571	96.6
384.781	65.88
384.991	196.95
385.201	168.27
385.411	98.64
385.621	117.08
385.831	69.97
386.041	39.25
386.251	-1.71
386.461	37.2
386.671	-46.76
386.881	86.36
387.091	51.54
387.301	153.94
387.511	76.12
387.72	147.8
387.93	127.32
388.14	-145.06
388.35	106.84
388.56	172.37
388.769	131.41
388.979	4.44
389.189	-3.75
389.399	20.82
389.609	78.16
389.818	55.64
390.028	88.4
390.238	201.04
390.447	-48.81
390.657	108.88
390.867	49.49
391.076	-36.52
391.286	129.36
391.496	-24.23
391.705	84.31
391.915	139.6
392.125	153.94
392.334	-13.99
392.544	108.88
392.753	26.96
392.963	-46.76
393.172	94.55
393.382	33.11
393.591	149.84
393.801	22.87
394.01	108.88
394.22	49.49
394.429	31.06
394.639	139.6
394.848	47.44
395.058	121.17
395.267	6.49
395.477	119.12
395.686	129.36
395.895	229.71
396.105	186.71
396.314	119.12
396.524	35.16
396.733	84.31
396.942	180.56
397.152	149.84
397.361	115.03
397.57	45.4
397.78	59.73
397.989	59.73
398.198	153.94
398.407	31.06
398.617	137.56
398.826	67.92
399.035	-28.33
399.244	127.32
399.453	72.02
399.663	12.63
399.872	12.63
400.081	-13.99
400.29	180.56
400.499	22.87
400.708	172.37
400.917	98.64
401.127	80.21
401.336	8.53
401.545	188.75
401.754	141.65
401.963	153.94
402.172	35.16
402.381	-1.71
402.59	41.3
402.799	92.5
403.008	82.26
403.217	78.16
403.426	106.84
403.635	-7.85
403.844	-11.95
404.053	55.64
404.262	16.73
404.471	170.32
404.68	98.64
404.888	35.16
405.097	39.25
405.306	147.8
405.515	153.94
405.724	98.64
405.933	137.56
406.142	106.84
406.35	112.98
406.559	86.36
406.768	35.16
406.977	168.27
407.185	160.08
407.394	131.41
407.603	78.16
407.812	43.35
408.02	125.27
408.229	43.35
408.438	131.41
408.646	-44.71
408.855	88.4
409.064	92.5
409.272	84.31
409.481	115.03
409.69	82.26
409.898	-32.43
410.107	69.97
410.315	121.17
410.524	45.4
410.733	100.69
410.941	90.45
411.15	141.65
411.358	108.88
411.567	139.6
411.775	86.36
411.984	74.07
412.192	168.27
412.401	29.01
412.609	207.19
412.818	274.77
413.026	100.69
413.234	45.4
413.443	92.5
413.651	20.82
413.86	-34.47
414.068	102.74
414.276	231.76
414.485	35.16
414.693	176.47
414.901	143.7
415.11	112.98
415.318	102.74
415.526	31.06
415.734	176.47
415.943	55.64
416.151	102.74
416.359	-7.85
416.567	24.92
416.776	90.45
416.984	55.64
417.192	209.23
417.4	117.08
417.608	18.77
417.817	45.4
418.025	160.08
418.233	184.66
418.441	43.35
418.649	-48.81
418.857	76.12
419.065	131.41
419.273	10.58
419.481	47.44
419.689	129.36
419.897	57.68
420.105	-46.76
420.313	158.03
420.521	301.39
420.729	170.32
420.937	20.82
421.145	67.92
421.353	55.64
421.561	237.91
421.769	112.98
421.977	-48.81
422.185	102.74
422.393	90.45
422.601	108.88
422.809	51.54
423.017	115.03
423.224	72.02
423.432	207.19
423.64	69.97
423.848	153.94
424.056	80.21
424.263	198.99
424.471	26.96
424.679	158.03
424.887	92.5
425.094	250.19
425.302	133.46
425.51	59.73
425.718	92.5
425.925	110.93
426.133	43.35
426.341	268.63
426.548	88.4
426.756	37.2
426.964	102.74
427.171	8.53
427.379	143.7
427.586	94.55
427.794	186.71
428.001	166.23
428.209	166.23
428.417	184.66
428.624	135.51
428.832	102.74
429.039	141.65
429.247	49.49
429.454	153.94
429.662	276.82
429.869	198.99
430.076	192.85
430.284	172.37
430.491	205.14
430.699	213.33
430.906	186.71
431.114	188.75
431.321	194.9
431.528	188.75
431.736	155.99
431.943	231.76
432.15	219.47
432.358	235.86
432.565	330.06
432.772	8.53
432.979	282.96
433.187	164.18
433.394	293.2
433.601	176.47
433.808	301.39
434.016	330.06
434.223	301.39
434.43	211.28
434.637	323.92
434.844	309.58
435.052	301.39
435.259	297.3
435.466	287.06
435.673	297.3
435.88	375.12
436.087	385.36
436.294	342.35
436.501	328.02
436.708	274.77
436.915	383.31
437.122	422.22
437.329	291.15
437.537	391.5
437.743	301.39
437.95	567.63
438.157	414.03
438.364	438.61
438.571	534.86
438.778	477.52
438.985	375.12
439.192	498
439.399	534.86
439.606	491.85
439.813	547.15
440.02	631.12
440.227	721.23
440.433	667.98
440.64	598.35
440.847	534.86
441.054	717.13
441.261	764.23
441.467	739.66
441.674	727.37
441.881	737.61
442.088	649.55
442.294	864.58
442.501	923.98
442.708	938.31
442.914	854.34
443.121	950.6
443.328	1001.8
443.534	1018.18
443.741	1028.42
443.948	899.4
444.154	1126.72
444.361	1368.38
444.568	1227.07
444.774	1218.88
444.981	1315.14
445.187	1513.79
445.394	1319.23
445.6	1352
445.807	1605.95
446.013	1560.89
446.22	1438.02
446.426	1616.19
446.633	1628.48
446.839	1806.65
447.046	1704.25
447.252	1935.67
447.459	1849.66
447.665	1841.47
447.871	2060.6
448.078	2292.02
448.284	2158.9
448.491	2236.72
448.697	2371.89
448.903	2439.47
449.11	2545.97
449.316	2529.58
449.522	2787.63
449.728	2832.68
449.935	2996.52
450.141	2849.07
450.347	3119.4
450.553	3127.59
450.76	3256.61
450.966	3404.07
451.172	3479.84
451.378	3741.98
451.584	3676.45
451.791	3965.21
451.997	3977.5
452.203	4192.53
452.409	4409.62
452.615	4557.07
452.821	4481.3
453.027	4464.91
453.233	5085.45
453.44	4743.44
453.646	4981
453.852	5427.46
454.058	5507.33
454.264	5599.49
454.47	6086.9
454.676	6191.35
454.882	6498.55
455.088	6359.28
455.294	6832.37
455.5	7164.14
455.705	7563.49
455.911	7514.34
456.117	7784.67
456.323	8186.07
456.529	8149.21
456.735	8634.58
456.941	8933.58
457.147	9443.53
457.352	9584.84
457.558	9734.34
457.764	10582.2
457.97	10842.29
458.176	11073.71
458.381	11712.67
458.587	12191.9
458.793	12386.46
458.999	12394.65
459.204	13920.38
459.41	14659.7
459.616	14391.42
459.821	15196.27
460.027	15863.91
460.233	16705.62
460.438	16521.31
460.644	17475.66
460.85	18016.32
461.055	18532.41
461.261	19359.79
461.466	18880.57
461.672	19163.18
461.878	21880.84
462.083	21418
462.289	21780.49
462.494	22906.87
462.7	22820.86
462.905	23148.53
463.111	25034.71
463.316	26259.4
463.522	26857.4
463.727	27563.95
463.932	28888.99
464.138	29540.24
464.343	31035.26
464.549	30957.44
464.754	33398.62
464.959	34357.07
465.165	34799.43
465.37	34418.5
465.575	34447.18
465.781	36808.48
465.986	37830.42
466.191	37238.56
466.397	37551.9
466.602	36947.75
466.807	38911.75
467.012	39669.5
467.218	40242.93
467.423	40337.13
467.628	41739.99
467.833	43220.67
468.038	42591.95
468.244	41899.73
468.449	44209.84
468.654	43165.38
468.859	43278.02
469.064	43153.09
469.269	41690.84
469.474	42692.3
469.679	43613.88
469.885	42729.16
470.09	43349.7
470.295	42905.29
470.5	42553.04
470.705	42567.37
470.91	41541.34
471.115	41299.68
471.32	41762.52
471.525	41236.19
471.73	40050.42
471.935	40247.02
472.139	38299.4
472.344	38719.24
472.549	38043.41
472.754	37496.6
472.959	36712.23
473.164	35467.06
473.369	34967.36
473.574	35731.25
473.778	35393.34
473.983	34699.08
474.188	34369.35
474.393	32472.93
474.598	32558.95
474.802	31850.35
475.007	31303.54
475.212	31074.17
475.417	29648.78
475.621	29497.24
475.826	29210.52
476.031	28516.26
476.235	27951.02
476.44	28018.6
476.645	27148.22
476.849	26761.15
477.054	26550.21
477.259	25980.87
477.463	25839.56
477.668	25141.21
477.872	25184.21
478.077	24317.92
478.282	23730.16
478.486	23730.16
478.691	22990.84
478.895	23058.42
479.1	23029.75
479.304	22833.14
479.509	22063.11
479.713	22773.75
479.918	21891.08
480.122	20846.62
480.326	21803.02
480.531	21727.24
480.735	21143.57
480.94	20897.81
481.144	21590.03
481.348	20357.15
481.553	20711.45
481.757	19873.83
481.961	20402.21
482.166	20256.8
482.37	20168.74
482.574	19443.76
482.778	19740.71
482.983	19875.88
483.187	19347.5
483.391	19341.36
483.595	19097.65
483.8	18679.86
484.004	18858.04
484.208	19093.55
484.412	18726.97
484.616	18253.89
484.821	18169.92
485.025	17471.56
485.229	17967.17
485.433	17391.69
485.637	17133.65
485.841	17358.92
486.045	16820.31
486.249	16801.88
486.453	16439.39
486.657	16103.52
486.861	16031.84
487.065	15757.41
487.269	15681.64
487.473	14880.88
487.677	15169.65
487.881	15204.46
488.085	14495.86
488.289	14561.4
488.493	14182.52
488.697	14006.4
488.901	13539.46
489.105	13471.88
489.309	13291.66
489.512	13277.32
489.716	12978.32
489.92	12828.82
490.124	12437.66
490.328	12411.03
490.531	11827.36
490.735	11880.61
490.939	11673.76
491.143	11215.02
491.346	11235.5
491.55	11202.73
491.754	11030.7
491.958	10893.49
492.161	10586.29
492.365	10358.97
492.569	10379.45
492.772	10180.79
492.976	9998.52
493.18	10129.59
493.383	9906.37
493.587	9656.51
493.79	9814.21
493.994	9244.87
494.197	9482.44
494.401	9502.92
494.605	9074.89
494.808	9289.93
495.012	9085.13
495.215	9199.82
495.419	9083.08
495.622	8937.68
495.825	8829.13
496.029	8902.86
496.232	9148.62
496.436	8644.82
496.639	8798.42
496.843	8675.54
497.046	8771.79
497.249	8857.81
497.453	8933.58
497.656	8986.83
497.859	8700.11
498.063	9044.17
498.266	9011.4
498.469	9023.69
498.673	8997.07
498.876	9162.95
499.079	9162.95
499.282	9097.42
499.485	9404.61
499.689	9205.96
499.892	9638.08
500.095	9390.28
500.298	9537.73
500.501	9277.64
500.705	9681.09
500.908	9908.41
501.111	9617.6
501.314	9828.54
501.517	9955.52
501.72	10045.63
501.923	10098.88
502.126	10467.51
502.329	10524.85
502.532	10684.59
502.735	10657.97
502.938	10823.86
503.141	10895.54
503.344	11010.22
503.547	11376.81
503.75	11432.1
503.953	11559.08
504.156	11774.11
504.359	11686.05
504.562	11856.03
504.765	12198.04
504.968	12707.99
505.17	12808.34
505.373	12726.42
505.576	13185.16
505.779	13195.4
505.982	13443.21
506.185	13752.45
506.387	13764.74
506.59	14110.85
506.793	14319.74
506.996	14729.33
507.198	15317.1
507.401	15419.5
507.604	15614.06
507.807	15949.92
508.009	16175.2
508.212	16588.89
508.415	16509.02
508.617	17193.04
508.82	17713.22
509.022	17653.83
509.225	18319.42
509.428	18643
509.63	18999.35
509.833	19169.33
510.035	20144.16
510.238	20279.33
510.44	20600.86
510.643	21391.37
510.845	21553.16
511.048	21921.8
511.25	22611.96
511.453	23033.85
511.655	24012.77
511.858	24594.4
512.06	24805.34
512.262	24831.96
512.465	25389.01
512.667	26245.06
512.87	26806.2
513.072	27199.41
513.274	28198.82
513.477	28825.5
513.679	29345.69
513.881	29841.29
514.084	30769.02
514.286	31016.83
514.488	31647.6
514.69	33187.67
514.893	33128.28
515.095	33998.67
515.297	34651.97
515.499	35374.91
515.701	36206.38
515.904	37084.96
516.106	38104.85
516.308	38530.83
516.51	39220.99
516.712	39671.54
516.914	40629.99
517.116	41334.49
517.318	42225.36
517.52	42856.14
517.722	43413.18
517.925	44367.54
518.127	45325.99
518.329	46145.17
518.531	46386.83
518.733	47357.57
518.935	48283.25
519.136	48899.69
519.338	49677.92
519.54	50355.8
519.742	51304.01
519.944	51396.17
520.146	52223.54
520.348	52751.92
520.55	53554.72
520.752	53773.86
520.954	55078.41
521.155	55209.48
521.357	56139.26
521.559	56507.9
521.761	57806.31
521.963	57331.18
522.164	58019.3
522.366	58598.87
522.568	59405.77
522.77	58977.75
522.971	60003.78
523.173	59755.97
523.375	60278.21
523.576	60513.72
523.778	60552.63
523.98	61660.58
524.181	61414.83
524.383	61959.59
524.584	61834.66
524.786	61869.48
524.988	61664.68
525.189	62227.87
525.391	62229.92
525.592	62313.89
525.794	62291.36
525.995	62168.48
526.197	62152.1
526.398	61947.3
526.6	62074.27
526.801	61908.39
527.003	62152.1
527.204	61619.63
527.406	61951.4
527.607	61195.7
527.808	61414.83
528.01	60083.65
528.211	59841.99
528.412	60509.63
528.614	59753.93
528.815	59473.35
529.016	59301.32
529.218	58578.39
529.419	58224.09
529.62	57611.75
529.822	57365.99
530.023	56659.44
530.224	56157.69
530.425	55520.77
530.626	54564.37
530.828	53841.44
531.029	54586.9
531.23	53458.47
531.431	52694.58
531.632	52407.86
531.833	51897.92
532.035	51168.84
532.236	50744.91
532.437	50398.8
532.638	49352.29
532.839	48887.4
533.04	48645.74
533.241	47423.11
533.442	47601.28
533.643	46433.94
533.844	45842.07
534.045	45325.99
534.246	44408.5
534.447	44248.75
534.648	43130.56
534.849	42800.84
535.05	42194.64
535.251	41545.44
535.451	41166.56
535.652	40511.21
535.853	40066.8
536.054	40101.62
536.255	38930.18
536.456	38399.76
536.657	38788.87
536.857	37418.78
537.058	36806.44
537.259	36435.75
537.46	36026.16
537.66	35733.3
537.861	35184.44
538.062	34637.64
538.263	34426.7
538.463	33929.04
538.664	33337.18
538.865	32911.2
539.065	32587.62
539.266	32114.54
539.466	31981.42
539.667	31104.89
539.868	31489.91
540.068	30556.04
540.269	30142.35
540.469	30015.37
540.67	29423.51
540.87	29038.49
541.071	28780.45
541.271	28743.58
541.472	28080.04
541.672	27942.83
541.873	27414.45
542.073	26777.53
542.274	27156.41
542.474	26542.02
542.675	26060.74
542.875	26288.07
543.075	25563.09
543.276	25307.09
543.476	25581.52
543.676	24811.48
543.877	24805.34
544.077	24365.03
544.277	24326.11
544.478	23855.08
544.678	23603.18
544.878	23175.16
545.078	23316.47
545.279	22472.7
545.479	22388.74
545.679	22480.89
545.879	22048.77
546.079	21495.82
546.28	21370.9
546.48	21061.65
546.68	21170.19
546.88	20815.9
547.08	20705.31
547.28	20248.61
547.48	19824.68
547.68	19732.52
547.88	19361.84
548.081	19249.2
548.281	19050.55
548.481	18739.26
548.681	18833.46
548.881	18491.45
549.081	18022.47
549.28	17762.37
549.48	17811.53
549.68	17455.18
549.88	17268.81
550.08	16617.56
550.28	16652.38
550.48	16646.23
550.68	16126.05
550.88	15876.2
551.08	15863.91
551.279	15714.41
551.479	15145.07
551.679	15288.43
551.879	14997.62
552.079	14876.79
552.278	14301.31
552.478	14319.74
552.678	14340.22
552.878	14012.54
553.077	13623.43
553.277	13394.06
553.477	13437.06
553.676	13093.01
553.876	12728.47
554.076	12648.6
554.275	12288.15
554.475	12032.16
554.674	12030.11
554.874	11815.07
555.074	11528.36
555.273	11444.39
555.473	11258.03
555.672	11100.33
555.872	10791.09
556.071	10760.37
556.271	10666.16
556.47	10379.45
556.67	10262.71
556.869	10078.4
557.068	9676.99
557.268	9898.17
557.467	9541.83
557.667	9558.21
557.866	9326.79
558.065	9183.43
558.265	8931.53
558.464	8831.18
558.663	8925.39
558.863	8446.16
559.062	8610
559.261	8071.39
559.461	8171.74
559.66	7983.32
559.859	7833.82
560.058	7776.48
560.258	7629.02
560.457	7383.27
560.656	7569.63
560.855	7186.66
561.054	7196.9
561.253	7020.78
561.453	7139.56
561.652	6951.15
561.851	6879.47
562.05	6664.43
562.249	6555.89
562.448	6519.03
562.647	6357.24
562.846	6365.43
563.045	6252.79
563.244	6146.3
563.443	6150.39
563.642	5896.44
563.841	5734.65
564.04	5556.48
564.239	5748.99
564.438	5568.77
564.637	5544.19
564.836	5378.31
565.035	5382.4
565.234	5423.36
565.432	5374.21
565.631	5210.37
565.83	4997.39
566.029	4923.66
566.228	4950.28
566.427	5026.06
566.625	4567.31
566.824	4741.39
567.023	4704.53
567.222	4380.95
567.42	4491.54
567.619	4509.97
567.818	4225.3
568.016	4503.82
568.215	4331.8
568.414	4100.37
568.612	4167.96
568.811	4040.98
569.01	4147.48
569.208	3881.24
569.407	3922.2
569.605	3856.67
569.804	3662.11
570.002	3897.63
570.201	3567.9
570.4	3586.33
570.598	3662.11
570.797	3680.54
570.995	3395.87
571.193	3535.14
571.392	3465.5
571.59	3303.71
571.789	3340.58
571.987	3244.32
572.186	3254.56
572.384	3037.48
572.582	3125.54
572.781	3129.64
572.979	3072.29
573.177	2941.22
573.376	2908.46
573.574	2826.54
573.772	2814.25
573.971	2744.62
574.169	2756.91
574.367	2734.38
574.565	2771.24
574.763	2631.98
574.962	2505.01
575.16	2593.07
575.358	2500.91
575.556	2447.66
575.754	2462
575.952	2455.86
576.151	2369.84
576.349	2359.6
576.547	2240.82
576.745	2335.03
576.943	2351.41
577.141	2218.29
577.339	2093.37
577.537	2154.8
577.735	2128.18
577.933	2019.64
578.131	2015.54
578.329	2097.46
578.527	2015.54
578.725	2007.35
578.923	1853.75
579.121	1925.43
579.319	1691.96
579.516	1773.88
579.714	2042.17
579.912	1780.03
580.11	1796.41
580.308	1687.87
580.506	1675.58
580.704	1493.31
580.901	1581.37
581.099	1722.68
581.297	1593.66
581.495	1562.94
581.692	1538.37
581.89	1745.21
582.088	1433.92
582.285	1472.83
582.483	1483.07
582.681	1493.31
582.878	1417.54
583.076	1390.91
583.274	1472.83
583.471	1481.02
583.669	1229.12
583.866	1288.51
584.064	1294.66
584.262	1292.61
584.459	1313.09
584.657	1290.56
584.854	1288.51
585.052	1235.27
585.249	1196.36
585.447	1255.75
585.644	1186.12
585.841	1225.03
586.039	1161.54
586.236	1290.56
586.434	1179.97
586.631	1053
586.828	1009.99
587.026	1079.62
587.223	964.93
587.42	1003.85
587.618	1112.39
587.815	1122.63
588.012	1079.62
588.21	969.03
588.407	1100.1
588.604	1122.63
588.801	909.64
588.999	1034.57
589.196	1081.67
589.393	876.87
589.59	985.41
589.787	979.27
589.984	1001.8
590.182	1044.81
590.379	938.31
590.576	909.64
590.773	887.11
590.97	880.97
591.167	975.17
591.364	966.98
591.561	903.5
591.758	997.7
591.955	973.13
592.152	969.03
592.349	905.54
592.546	803.15
592.743	807.24
592.94	815.43
593.137	911.69
593.334	1038.66
593.531	971.08
593.727	842.06
593.924	950.6
594.121	848.2
594.318	819.53
594.515	897.35
594.712	1007.94
594.908	1048.9
595.105	737.61
595.302	872.78
595.499	948.55
595.696	1032.52
595.892	1028.42
596.089	1042.76
596.286	942.41
596.482	1126.72
596.679	1079.62
596.876	1104.2
597.072	1151.3
597.269	1057.09
597.466	1198.4
597.662	1063.24
597.859	1136.96
598.055	1220.93
598.252	1235.27
598.448	1368.38
598.645	1485.12
598.841	1423.68
599.038	1589.57
599.234	1579.33
599.431	1579.33
599.627	1626.43
599.824	1775.93
600.02	1616.19
600.217	1782.07
600.413	1773.88
600.609	1993.01
600.806	2224.44
601.002	2154.8
601.198	2195.76
601.395	2261.3
601.591	2197.81
601.787	2400.56
601.984	2543.92
602.18	2500.91
602.376	2779.43
602.572	2634.03
602.769	2859.31
602.965	2808.11
603.161	3068.2
603.357	3330.34
603.553	3410.21
603.75	3297.57
603.946	3367.2
604.142	3686.69
604.338	3752.22
604.534	3934.49
604.73	3961.11
604.926	4012.31
605.122	4223.25
605.318	4256.02
605.514	4616.46
605.71	4585.74
605.906	4831.5
606.102	4890.89
606.298	5200.13
606.494	5230.85
606.69	5435.65
606.886	5701.89
607.082	5628.16
607.278	5990.65
607.474	5998.84
607.67	6166.78
607.866	6238.45
608.062	6568.18
608.257	6723.82
608.453	6836.46
608.649	7364.84
608.845	7280.87
609.041	7387.36
609.236	7905.5
609.432	7825.63
609.628	8206.55
609.824	8243.42
610.019	8456.4
610.215	8771.79
610.411	8992.97
610.606	9490.63
610.802	9392.33
610.998	9629.89
611.193	9996.48
611.389	10062.01
611.584	10516.66
611.78	10567.86
611.976	11098.28
612.171	11452.58
612.367	11622.56
612.562	11782.31
612.758	12144.8
612.953	12480.66
613.149	13062.29
613.344	13054.09
613.539	13779.08
613.735	13951.1
613.93	14444.66
614.126	14549.11
614.321	15175.79
614.517	15714.41
614.712	16013.41
614.907	16527.45
615.103	16746.58
615.298	17137.74
615.493	17635.4
615.688	17758.28
615.884	18606.14
616.079	18675.77
616.274	19638.31
616.47	19474.48
616.665	20394.01
616.86	20789.27
617.055	21162
617.25	21719.05
617.445	22648.83
617.641	22943.74
617.836	23887.85
618.031	23785.45
618.226	24940.5
618.421	25235.41
618.616	26019.78
618.811	26130.37
619.006	27393.97
619.201	27598.77
619.396	28409.76
619.591	28520.35
619.786	29515.67
619.981	29886.35
620.176	30861.18
620.371	31018.88
620.566	32132.97
620.761	32628.58
620.956	33425.24
621.151	33570.65
621.346	35000.13
621.541	34901.82
621.735	36364.07
621.93	36015.92
622.125	37463.83
622.32	37461.79
622.515	38627.08
622.709	39372.54
622.904	40154.86
623.099	40439.53
623.294	41389.79
623.488	41907.93
623.683	42708.68
623.878	42917.57
624.072	43814.58
624.267	44756.65
624.462	45047.46
624.656	45833.88
624.851	46722.7
625.046	47333
625.24	47740.54
625.435	48152.18
625.629	48952.94
625.824	49667.68
626.018	50720.34
626.213	50290.26
626.407	51650.11
626.602	51455.56
626.796	52364.85
626.991	52856.37
627.185	53157.42
627.38	52944.43
627.574	53728.8
627.768	53616.16
627.963	53902.88
628.157	54230.55
628.352	54697.49
628.546	54275.61
628.74	54969.87
628.935	54599.19
629.129	54677.01
629.323	54353.43
629.517	54248.99
629.712	53597.73
629.906	53358.12
630.1	52166.2
630.294	52522.55
630.489	51213.9
630.683	51691.07
630.877	49905.24
631.071	49417.83
631.265	48727.66
631.459	47695.49
631.653	46655.12
631.848	45590.17
632.042	44467.89
632.236	43984.57
632.43	42292.94
632.624	41461.47
632.818	40015.6
633.012	38686.47
633.206	37580.57
633.4	36810.53
633.594	35589.94
633.788	34389.83
633.982	33406.81
634.176	32333.67
634.369	30582.66
634.563	29814.67
634.757	28307.37
634.951	27699.12
635.145	26531.78
635.339	25538.51
635.533	24092.65
635.726	23521.26
635.92	22347.78
636.114	21678.09
636.308	20877.33
636.501	20090.91
636.695	18980.92
636.889	18276.41
637.083	17698.89
637.276	16638.04
637.47	15994.98
637.664	15499.37
637.857	14805.11
638.051	14211.2
638.244	13674.63
638.438	13168.78
638.632	12753.04
638.825	11970.72
639.019	11804.83
639.212	11135.15
639.406	10758.32
639.599	10363.06
639.793	9920.7
639.986	9670.85
640.18	9236.68
640.373	8972.49
640.567	8345.81
640.76	8179.93
640.954	7901.4
641.147	7323.88
641.34	7430.37
641.534	6988.01
641.727	6744.3
641.92	6605.04
642.114	6265.08
642.307	6060.28
642.5	5957.88
642.694	5505.28
642.887	5402.88
643.08	5163.27
643.273	5112.07
643.467	4714.77
643.66	4552.98
643.853	4395.28
644.046	4426
644.239	4194.58
644.432	3774.75
644.626	3698.97
644.819	3627.29
645.012	3531.04
645.205	3467.55
645.398	3361.06
645.591	3027.24
645.784	2941.22
645.977	2769.2
646.17	2718
646.363	2689.32
646.556	2541.87
646.749	2433.33
646.942	2429.23
647.135	2365.75
647.328	2122.04
647.521	2124.08
647.714	2085.17
647.907	1919.29
648.099	1771.83
648.292	1820.99
648.485	1777.98
648.678	1663.29
648.871	1679.68
649.064	1677.63
649.256	1476.93
649.449	1409.34
649.642	1298.75
649.835	1329.47
650.027	1206.59
650.22	1352
650.413	1255.75
650.605	1153.35
650.798	1091.91
650.991	1030.47
651.183	1046.85
651.376	1132.87
651.568	1065.29
651.761	901.45
651.954	919.88
652.146	821.58
652.339	940.36
652.531	987.46
652.724	766.28
652.916	751.95
653.109	696.65
653.301	790.86
653.494	751.95
653.686	672.08
653.879	766.28
654.071	706.89
654.263	676.17
654.456	667.98
654.648	704.84
654.84	659.79
655.033	573.77
655.225	674.12
655.417	483.66
655.61	651.6
655.802	571.72
655.994	694.6
656.186	473.42
656.379	643.4
656.571	549.2
656.763	481.61
656.955	391.5
657.148	440.65
657.34	567.63
657.532	366.93
657.724	463.18
657.916	401.74
658.108	502.09
658.3	411.98
658.492	420.17
658.684	332.11
658.876	506.19
659.068	270.67
659.26	274.77
659.452	295.25
659.644	436.56
659.836	426.32
660.028	348.5
660.22	293.2
660.412	348.5
660.604	266.58
660.796	350.54
660.988	336.21
661.18	270.67
661.372	293.2
661.563	256.34
661.755	311.63
661.947	215.38
662.139	221.52
662.331	315.73
662.522	215.38
662.714	237.91
662.906	225.62
663.097	145.75
663.289	190.8
663.481	121.17
663.673	297.3
663.864	201.04
664.056	186.71
664.247	176.47
664.439	311.63
664.631	203.09
664.822	319.82
665.014	287.06
665.205	184.66
665.397	207.19
665.588	301.39
665.78	186.71
665.971	254.29
666.163	168.27
666.354	215.38
666.546	145.75
666.737	268.63
666.929	223.57
667.12	162.13
667.311	221.52
667.503	209.23
667.694	235.86
667.885	186.71
668.077	248.15
668.268	69.97
668.459	190.8
668.651	196.95
668.842	145.75
669.033	135.51
669.224	162.13
669.416	387.41
669.607	149.84
669.798	80.21
669.989	285.01
670.18	102.74
670.371	129.36
670.563	92.5
670.754	260.43
670.945	217.43
671.136	196.95
671.327	164.18
671.518	293.2
671.709	295.25
671.9	297.3
672.091	256.34
672.282	219.47
672.473	158.03
672.664	92.5
672.855	149.84
673.046	252.24
673.237	244.05
673.428	174.42
673.619	282.96
673.809	145.75
674	295.25
674.191	209.23
674.382	211.28
674.573	215.38
674.764	166.23
674.954	260.43
675.145	194.9
675.336	127.32
675.527	178.51
675.717	125.27
675.908	119.12
676.099	43.35
676.289	235.86
676.48	98.64
676.671	213.33
676.861	186.71
677.052	262.48
677.243	207.19
677.433	182.61
677.624	301.39
677.814	213.33
678.005	162.13
678.195	328.02
678.386	231.76
678.576	201.04
678.767	215.38
678.957	180.56
679.148	276.82
679.338	295.25
679.529	276.82
679.719	244.05
679.909	285.01
680.1	305.49
680.29	301.39
680.481	174.42
680.671	321.87
680.861	242
681.052	235.86
681.242	155.99
681.432	299.34
681.622	229.71
681.813	94.55
682.003	246.1
682.193	207.19
682.383	280.91
682.573	260.43
682.764	190.8
682.954	264.53
683.144	307.54
683.334	217.43
683.524	293.2
683.714	250.19
683.904	350.54
684.094	276.82
684.284	235.86
684.474	297.3
684.664	395.6
684.854	299.34
685.044	272.72
685.234	270.67
685.424	332.11
685.614	211.28
685.804	360.78
685.994	309.58
686.184	282.96
686.374	305.49
686.564	309.58
686.753	190.8
686.943	115.03
687.133	256.34
687.323	246.1
687.513	313.68
687.702	346.45
687.892	258.39
688.082	336.21
688.272	354.64
688.461	278.87
688.651	457.04
688.841	366.93
689.03	209.23
689.22	239.95
689.41	239.95
689.599	254.29
689.789	237.91
689.979	385.36
690.168	217.43
690.358	297.3
690.547	248.15
690.737	311.63
690.926	297.3
691.116	266.58
691.305	258.39
691.495	231.76
691.684	223.57
691.874	198.99
692.063	254.29
692.252	317.78
692.442	338.26
692.631	108.88
692.82	237.91
693.01	285.01
693.199	221.52
693.388	285.01
693.578	270.67
693.767	305.49
693.956	207.19
694.146	221.52
694.335	282.96
694.524	309.58
694.713	344.4
694.902	223.57
695.092	198.99
695.281	309.58
695.47	248.15
695.659	190.8
695.848	198.99
696.037	88.4
696.226	305.49
696.415	233.81
696.604	393.55
696.793	323.92
696.982	176.47
697.171	338.26
697.36	174.42
697.549	125.27
697.738	117.08
697.927	151.89
698.116	213.33
698.305	258.39
698.494	209.23
698.683	207.19
698.872	354.64
699.061	213.33
699.25	133.46
699.438	280.91
699.627	178.51
699.816	313.68
700.005	125.27
700.193	164.18
700.382	252.24
700.571	248.15
700.76	213.33
700.948	297.3
701.137	293.2
701.326	225.62
701.514	248.15
701.703	246.1
701.892	217.43
702.08	358.74
702.269	291.15
702.457	235.86
702.646	233.81
702.834	149.84
703.023	297.3
703.212	309.58
703.4	223.57
703.589	203.09
703.777	225.62
703.965	192.85
704.154	117.08
704.342	170.32
704.531	209.23
704.719	160.08
704.907	377.17
705.096	108.88
705.284	207.19
705.472	176.47
705.661	317.78
705.849	313.68
706.037	305.49
706.226	289.1
706.414	186.71
706.602	115.03
706.79	309.58
706.979	170.32
707.167	252.24
707.355	123.22
707.543	254.29
707.731	250.19
707.919	186.71
708.107	237.91
708.296	203.09
708.484	155.99
708.672	291.15
708.86	252.24
709.048	108.88
709.236	190.8
709.424	303.44
709.612	201.04
709.8	143.7
709.988	256.34
710.176	305.49
710.364	272.72
710.551	297.3
710.739	198.99
710.927	205.14
711.115	244.05
711.303	215.38
711.491	280.91
711.679	205.14
711.866	225.62
712.054	194.9
712.242	250.19
712.43	282.96
712.617	237.91
712.805	258.39
712.993	207.19
713.181	133.46
713.368	254.29
713.556	151.89
713.744	110.93
713.931	379.22
714.119	254.29
714.306	182.61
714.494	180.56
714.682	213.33
714.869	115.03
715.057	219.47
715.244	24.92
715.432	276.82
715.619	164.18
715.807	229.71
715.994	211.28
716.182	196.95
716.369	311.63
716.556	254.29
716.744	143.7
716.931	231.76
717.119	166.23
717.306	260.43
717.493	246.1
717.681	151.89
717.868	201.04
718.055	258.39
718.242	256.34
718.43	252.24
718.617	256.34
718.804	239.95
718.991	321.87
719.179	268.63
719.366	287.06
719.553	270.67
719.74	235.86
719.927	235.86
720.114	237.91
720.301	244.05
720.488	258.39
720.676	160.08
720.863	307.54
721.05	383.31
721.237	278.87
721.424	291.15
721.611	274.77
721.798	182.61
721.985	160.08
722.172	213.33
722.358	235.86
722.545	293.2
722.732	233.81
722.919	321.87
723.106	258.39
723.293	340.3
723.48	295.25
723.667	221.52
723.853	309.58
724.04	207.19
724.227	289.1
724.414	289.1
724.6	282.96
724.787	377.17
724.974	338.26
725.161	182.61
725.347	106.84
725.534	242
725.72	383.31
725.907	344.4
726.094	325.97
726.28	201.04
726.467	196.95
726.653	223.57
726.84	346.45
727.027	461.13
727.213	256.34
727.4	250.19
727.586	170.32
727.773	237.91
727.959	293.2
728.145	174.42
728.332	287.06
728.518	282.96
728.705	346.45
728.891	203.09
729.077	319.82
729.264	237.91
729.45	291.15
729.636	354.64
729.823	354.64
730.009	309.58
730.195	287.06
730.382	336.21
730.568	190.8
730.754	233.81
730.94	319.82
731.126	233.81
731.313	344.4
731.499	219.47
731.685	328.02
731.871	342.35
732.057	311.63
732.243	375.12
732.429	280.91
732.615	454.99
732.801	313.68
732.987	260.43
733.173	229.71
733.359	239.95
733.545	311.63
733.731	207.19
733.917	399.7
734.103	416.08
734.289	319.82
734.475	264.53
734.661	442.7
734.847	293.2
735.033	237.91
735.219	332.11
735.404	237.91
735.59	276.82
735.776	266.58
735.962	287.06
736.148	340.3
736.333	352.59
736.519	280.91
736.705	356.69
736.89	291.15
737.076	305.49
737.262	260.43
737.447	289.1
737.633	293.2
737.819	371.02
738.004	352.59
738.19	334.16
738.375	319.82
738.561	301.39
738.747	395.6
738.932	252.24
739.118	405.84
739.303	358.74
739.489	287.06
739.674	229.71
739.859	250.19
740.045	350.54
740.23	323.92
740.416	221.52
740.601	319.82
740.786	323.92
740.972	248.15
741.157	151.89
741.342	233.81
741.528	194.9
741.713	364.88
741.898	303.44
742.084	317.78
742.269	244.05
742.454	295.25
742.639	287.06
742.824	231.76
743.01	393.55
743.195	448.85
743.38	252.24
743.565	256.34
743.75	266.58
743.935	248.15
744.12	313.68
744.305	184.66
744.49	262.48
744.675	182.61
744.86	254.29
745.045	311.63
745.23	285.01
745.415	278.87
745.6	401.74
745.785	151.89
745.97	225.62
746.155	311.63
746.34	348.5
746.525	256.34
746.71	348.5
746.895	168.27
747.079	141.65
747.264	258.39
747.449	282.96
747.634	328.02
747.819	237.91
748.003	270.67
748.188	201.04
748.373	289.1
748.557	235.86
748.742	260.43
748.927	336.21
749.111	233.81
749.296	291.15
749.481	371.02
749.665	211.28
749.85	219.47
750.034	268.63
750.219	311.63
750.404	303.44
750.588	295.25
750.773	141.65
750.957	272.72
751.141	198.99
751.326	295.25
751.51	72.02
751.695	203.09
751.879	293.2
752.064	338.26
752.248	231.76
752.432	297.3
752.617	258.39
752.801	237.91
752.985	153.94
753.17	321.87
753.354	207.19
753.538	237.91
753.722	186.71
753.907	160.08
754.091	141.65
754.275	262.48
754.459	160.08
754.643	141.65
754.828	276.82
755.012	293.2
755.196	123.22
755.38	147.8
755.564	108.88
755.748	188.75
755.932	184.66
756.116	268.63
756.3	260.43
756.484	135.51
756.668	229.71
756.852	88.4
757.036	149.84
757.22	104.79
757.404	102.74
757.588	145.75
757.772	274.77
757.956	129.36
758.14	246.1
758.323	84.31
758.507	248.15
758.691	131.41
758.875	242
759.059	301.39
759.242	139.6
759.426	80.21
759.61	231.76
759.794	61.78
759.977	190.8
760.161	334.16
760.345	336.21
760.528	229.71
760.712	162.13
760.895	147.8
761.079	125.27
761.263	106.84
761.446	149.84
761.63	155.99
761.813	184.66
761.997	76.12
762.18	94.55
762.364	174.42
762.547	67.92
762.731	119.12
762.914	135.51
763.098	135.51
763.281	131.41
763.464	127.32
763.648	153.94
763.831	133.46
764.015	129.36
764.198	270.67
764.381	133.46
764.564	98.64
764.748	158.03
764.931	170.32
765.114	61.78
765.297	227.67
765.481	74.07
765.664	37.2
765.847	63.83
766.03	184.66
766.213	135.51
766.397	31.06
766.58	51.54
766.763	143.7
766.946	72.02
767.129	137.56
767.312	84.31
767.495	76.12
767.678	39.25
767.861	176.47
768.044	80.21
768.227	86.36
768.41	2.39
768.593	82.26
768.776	82.26
768.959	92.5
769.142	248.15
769.324	90.45
769.507	92.5
769.69	47.44
769.873	141.65
770.056	272.72
770.239	131.41
770.421	211.28
770.604	164.18
770.787	117.08
770.97	147.8
771.152	115.03
771.335	106.84
771.518	2.39
771.7	151.89
771.883	215.38
772.066	127.32
772.248	86.36
772.431	211.28
772.613	143.7
772.796	149.84
772.978	106.84
773.161	264.53
773.343	61.78
773.526	82.26
773.708	55.64
773.891	-3.75
774.073	59.73
774.256	59.73
774.438	223.57
774.621	55.64
774.803	82.26
774.985	-5.8
775.168	96.6
775.35	41.3
775.532	151.89
775.715	29.01
775.897	41.3
776.079	-34.47
776.261	166.23
776.444	67.92
776.626	129.36
776.808	-3.75
776.99	-69.29
777.173	29.01
777.355	-28.33
777.537	76.12
777.719	102.74
777.901	-30.38
778.083	-9.9
778.265	-63.15
778.447	188.75
778.629	-65.19
778.811	14.68
778.993	106.84
779.175	98.64
779.357	76.12
779.539	-26.28
779.721	121.17
779.903	112.98
780.085	86.36
780.267	57.68
780.449	94.55
780.631	178.51
780.812	215.38
780.994	96.6
781.176	4.44
781.358	29.01
781.54	51.54
781.721	147.8
781.903	135.51
782.085	74.07
782.267	129.36
782.448	-7.85
782.63	39.25
782.812	24.92
782.993	47.44
783.175	39.25
783.357	33.11
783.538	49.49
783.72	22.87
783.901	84.31
784.083	8.53
784.264	10.58
784.446	8.53
784.627	-24.23
784.809	104.79
784.99	35.16
785.172	74.07
785.353	92.5
785.535	33.11
785.716	88.4
785.897	-11.95
786.079	51.54
786.26	47.44
786.441	119.12
786.623	-81.58
786.804	2.39
786.985	43.35
787.167	57.68
787.348	47.44
787.529	37.2
787.71	137.56
787.891	121.17
788.073	-24.23
788.254	-79.53
788.435	162.13
788.616	10.58
788.797	10.58
788.978	10.58
789.159	10.58
789.34	74.07
789.522	14.68
789.703	39.25
789.884	119.12
790.065	63.83
790.246	164.18
790.427	-48.81
790.607	106.84
790.788	170.32
790.969	-13.99
791.15	61.78
791.331	-26.28
791.512	35.16
791.693	59.73
791.874	43.35
792.054	158.03
792.235	98.64
792.416	-54.95
792.597	-36.52
792.778	110.93
792.958	31.06
793.139	43.35
793.32	43.35
793.5	-16.04
793.681	196.95
793.862	72.02
794.042	33.11
794.223	-61.1
794.404	-1.71
794.584	-87.72
794.765	49.49
794.945	35.16
795.126	92.5
795.306	115.03
795.487	49.49
795.667	24.92
795.848	129.36
796.028	86.36
796.209	-3.75
796.389	127.32
796.57	31.06
796.75	-16.04
796.93	20.82
797.111	26.96
797.291	-26.28
797.471	51.54
797.652	-34.47
797.832	45.4
798.012	61.78
798.192	45.4
798.373	-50.86
798.553	26.96
798.733	84.31
798.913	-26.28
799.093	57.68
799.274	-59.05
799.454	123.22
799.634	112.98
799.814	139.6
799.994	43.35
800.174	57.68
800.354	125.27
800.534	-36.52
800.714	94.55
800.894	-44.71
801.074	26.96
801.254	-87.72
801.434	186.71
801.614	6.49
801.794	8.53
801.974	1929.53
802.154	-9.9
802.334	178.51
802.514	-57
802.693	59.73
802.873	-9.9
803.053	96.6
803.233	112.98
803.413	24.92
803.592	22.87
803.772	35.16
803.952	-7.85
804.131	-85.67
804.311	74.07
804.491	139.6
804.67	12.63
804.85	-71.34
805.03	69.97
805.209	133.46
805.389	26.96
805.568	-57
805.748	-13.99
805.928	14.68
806.107	86.36
806.287	92.5
806.466	57.68
806.646	-7.85
806.825	26.96
807.004	-9.9
807.184	22.87
807.363	106.84
807.543	72.02
807.722	2.39
807.901	141.65
808.081	84.31
808.26	-75.43
808.439	-50.86
808.619	53.59
808.798	20.82
808.977	67.92
809.156	123.22
809.336	-18.09
809.515	110.93
809.694	-24.23
809.873	-100.01
810.052	33.11
810.231	106.84
810.411	-16.04
810.59	69.97
810.769	0.34
810.948	72.02
811.127	-59.05
811.306	-48.81
811.485	-38.57
811.664	104.79
811.843	-5.8
812.022	69.97
812.201	14.68
812.38	-32.43
812.559	-77.48
812.737	43.35
812.916	-95.91
813.095	-44.71
813.274	41.3
813.453	-13.99
813.632	37.2
813.811	110.93
813.989	-71.34
814.168	86.36
814.347	-30.38
814.526	49.49
814.704	145.75
814.883	147.8
815.062	0.34
815.24	106.84
815.419	-52.91
815.598	57.68
815.776	-73.39
815.955	115.03
816.133	-77.48
816.312	96.6
816.49	-57
816.669	-5.8
816.847	6.49
817.026	12.63
817.204	16.73
817.383	-22.19
817.561	-30.38
817.74	112.98
817.918	63.83
818.097	-40.62
818.275	-54.95
818.453	31.06
818.632	76.12
818.81	-13.99
818.988	-13.99
819.167	2.39
819.345	80.21
819.523	-61.1
819.701	8.53
819.879	86.36
820.058	29.01
820.236	76.12
820.414	-26.28
820.592	-30.38
820.77	31.06
820.948	-13.99
821.127	-26.28
821.305	2.39
821.483	6.49
821.661	104.79
821.839	-13.99
822.017	18.77
822.195	-24.23
822.373	59.73
822.551	74.07
822.729	90.45
822.907	-20.14
823.085	184.66
823.262	51.54
823.44	55.64
823.618	-112.3
823.796	24.92
823.974	-26.28
824.152	-40.62
824.329	2.39
824.507	-16.04
824.685	86.36
824.863	80.21
825.04	35.16
825.218	74.07
825.396	-54.95
825.574	92.5
825.751	-32.43
825.929	61.78
826.107	-30.38
826.284	-18.09
826.462	162.13
826.639	29.01
826.817	-13.99
826.994	2.39
827.172	-106.15
827.349	160.08
827.527	63.83
827.704	-1.71
827.882	59.73
828.059	8.53
828.237	-48.81
828.414	10.58
828.591	-159.4
828.769	37.2
828.946	-65.19
829.124	96.6
829.301	137.56
829.478	-54.95
829.655	20.82
829.833	12.63
830.01	-114.34
830.187	43.35
830.364	-22.19
830.542	18.77
830.719	129.36
830.896	16.73
831.073	53.59
831.25	39.25
831.427	20.82
831.604	39.25
831.782	0.34
831.959	84.31
832.136	45.4
832.313	31.06
832.49	-24.23
832.667	63.83
832.844	61.78
833.021	82.26
833.198	72.02
833.374	-20.14
833.551	6.49
833.728	6.49
833.905	59.73
834.082	-75.43
834.259	55.64
834.436	104.79
834.612	-89.77
834.789	51.54
834.966	24.92
835.143	76.12
835.319	-97.96
835.496	29.01
835.673	-3.75
835.85	88.4
836.026	43.35
836.203	43.35
836.38	-50.86
836.556	10.58
836.733	20.82
836.909	119.12
837.086	-40.62
837.262	-106.15
837.439	0.34
837.616	-18.09
837.792	43.35
837.968	-3.75
838.145	-124.58
838.321	-3.75
838.498	74.07
838.674	119.12
838.851	16.73
839.027	-38.57
839.203	20.82
839.38	33.11
839.556	-22.19
839.732	100.69
839.909	-28.33
840.085	80.21
840.261	16.73
840.437	-11.95
840.614	-42.67
840.79	88.4
840.966	72.02
841.142	12.63
841.318	-65.19
841.494	18.77
841.671	104.79
841.847	-89.77
842.023	-48.81
842.199	84.31
842.375	131.41
842.551	-104.11
842.727	-104.11
842.903	67.92
843.079	-38.57
843.255	82.26
843.431	37.2
843.607	117.08
843.783	-147.11
843.959	33.11
844.134	-91.82
844.31	22.87
844.486	2.39
844.662	-106.15
844.838	-5.8
845.013	57.68
845.189	57.68
845.365	22.87
845.541	41.3
845.716	0.34
845.892	137.56
846.068	39.25
846.244	-40.62
846.419	51.54
846.595	-71.34
846.77	-5.8
846.946	96.6
847.122	43.35
847.297	-75.43
847.473	135.51
847.648	-87.72
847.824	37.2
847.999	-81.58
848.175	37.2
848.35	20.82
848.526	49.49
848.701	78.16
848.876	51.54
849.052	158.03
849.227	22.87
849.403	10.58
849.578	16.73
849.753	0.34
849.929	57.68
850.104	-110.25
850.279	-30.38
850.454	45.4
850.63	39.25
850.805	67.92
850.98	24.92
851.155	41.3
851.33	4.44
851.505	-59.05
851.681	94.55
851.856	-106.15
852.031	63.83
852.206	47.44
852.381	-104.11
852.556	-59.05
852.731	51.54
852.906	29.01
853.081	82.26
853.256	108.88
853.431	-13.99
853.606	10.58
853.781	-42.67
853.956	-75.43
854.131	20.82
854.305	-85.67
854.48	63.83
854.655	-32.43
854.83	-54.95
855.005	-52.91
855.18	8.53
855.354	12.63
855.529	53.59
855.704	14.68
855.879	-13.99
856.053	-59.05
856.228	4.44
856.403	-48.81
856.577	26.96
856.752	-132.78
856.926	22.87
857.101	37.2
857.276	14.68
857.45	-5.8
857.625	-28.33
857.799	18.77
857.974	41.3
858.148	-36.52
858.323	-42.67
858.497	-77.48
858.672	-63.15
858.846	-79.53
859.02	41.3
859.195	-63.15
859.369	-36.52
859.543	0.34
859.718	35.16
859.892	69.97
860.066	16.73
860.241	43.35
860.415	-24.23
860.589	-30.38
860.763	55.64
860.938	29.01
861.112	80.21
861.286	10.58
861.46	6.49
861.634	-20.14
861.808	47.44
861.982	6.49
862.157	-46.76
862.331	14.68
862.505	-93.87
862.679	-128.68
862.853	-40.62
863.027	-32.43
863.201	74.07
863.375	-40.62
863.549	6.49
863.722	-3.75
863.896	35.16
864.07	-67.24
864.244	4.44
864.418	78.16
864.592	35.16
864.766	-16.04
864.939	37.2
865.113	-32.43
865.287	82.26
865.461	-18.09
865.634	51.54
865.808	-16.04
865.982	8.53
866.156	31.06
866.329	-26.28
866.503	14.68
866.676	106.84
866.85	43.35
867.024	-20.14
867.197	143.7
867.371	-3.75
867.544	51.54
867.718	-79.53
867.891	98.64
868.065	-81.58
868.238	37.2
868.412	78.16
868.585	12.63
868.759	-46.76
868.932	10.58
869.105	-54.95
869.279	14.68
869.452	-38.57
869.625	102.74
869.799	-65.19
869.972	-44.71
870.145	-28.33
870.319	69.97
870.492	-63.15
870.665	37.2
870.838	0.34
871.011	-124.58
871.185	-52.91
871.358	57.68
871.531	55.64
871.704	2.39
871.877	82.26
872.05	-24.23
872.223	-71.34
872.396	45.4
872.569	-26.28
872.742	-91.82
872.915	8.53
873.088	14.68
873.261	-32.43
873.434	43.35
873.607	35.16
873.78	131.41
873.953	-3.75
874.126	8.53
874.299	96.6
874.471	-3.75
874.644	-20.14
874.817	112.98
874.99	125.27
875.163	-54.95
875.335	2.39
875.508	6.49
875.681	164.18
875.853	-81.58
876.026	53.59
876.199	6.49
876.371	-36.52
876.544	18.77
876.717	-5.8
876.889	-40.62
877.062	41.3
877.234	-122.54
877.407	-7.85
877.579	-3.75
877.752	-28.33
877.924	20.82
878.097	33.11
878.269	14.68
878.442	-28.33
878.614	76.12
878.786	53.59
878.959	6.49
879.131	-30.38
879.303	-143.02
879.476	29.01
879.648	67.92
879.82	26.96
879.993	-38.57
880.165	-30.38
880.337	-48.81
880.509	35.16
880.681	6.49
880.854	8.53
881.026	29.01
881.198	151.89
881.37	26.96
881.542	8.53
881.714	61.78
881.886	-61.1
882.058	-38.57
882.23	24.92
882.402	-75.43
882.574	-9.9
882.746	90.45
882.918	57.68
883.09	-16.04
883.262	-71.34
883.434	-61.1
883.606	-50.86
883.778	4.44
883.95	84.31
884.122	4.44
884.293	65.88
884.465	12.63
884.637	125.27
884.809	-69.29
884.98	-9.9
885.152	106.84
885.324	102.74
885.496	-13.99
885.667	4.44
885.839	10.58
886.011	129.36
886.182	92.5
886.354	67.92
886.525	4.44
886.697	14.68
886.869	-18.09
887.04	-73.39
887.212	72.02
887.383	147.8
887.555	112.98
887.726	6.49
887.897	-38.57
888.069	37.2
888.24	51.54
888.412	-3.75
888.583	-28.33
888.754	8.53
888.926	-122.54
889.097	-126.63
889.268	-134.82
889.44	-36.52
889.611	-69.29
889.782	-52.91
889.953	-57
890.125	80.21
890.296	-1.71
890.467	-16.04
890.638	18.77
890.809	67.92
890.98	-32.43
891.151	53.59
891.323	141.65
891.494	67.92
891.665	-32.43
891.836	0.34
892.007	2.39
892.178	10.58
892.349	16.73
892.52	-48.81
892.691	10.58
892.862	-42.67
893.032	-118.44
893.203	-69.29
893.374	-5.8
893.545	65.88
893.716	-75.43
893.887	119.12
894.057	-26.28
894.228	16.73
894.399	-93.87
894.57	133.46
894.74	45.4
894.911	41.3
895.082	45.4
895.253	-77.48
895.423	51.54
895.594	90.45
895.764	47.44
895.935	-102.06
896.106	22.87
896.276	-16.04
896.447	53.59
896.617	-106.15
896.788	-91.82
896.958	12.63
897.129	43.35
897.299	-59.05
897.47	76.12
897.64	108.88
897.81	2.39
897.981	-16.04
898.151	-81.58
898.322	72.02
898.492	57.68
898.662	-83.63
898.832	-7.85
899.003	65.88
899.173	84.31
899.343	-24.23
899.513	-106.15
