Data from USB4F104151__262__11-20-24-233.txt Node

Date: Wed Feb 26 11:20:24 EST 2025
User: louis
Spectrometer: USB4F10415
Trigger mode: 4
Integration Time (sec): 1.000000E-1
Scans to average: 1
Electric dark correction enabled: true
Nonlinearity correction enabled: false
Boxcar width: 0
XAxis mode: Wavelengths
Number of Pixels in Spectrum: 3648
>>>>>Begin Spectral Data<<<<<
178.204	-358.91
178.424	-358.91
178.644	-358.91
178.864	-438.78
179.084	-369.15
179.304	32.26
179.524	-12.8
179.744	34.3
179.964	-55.81
180.184	65.02
180.404	34.3
180.624	-20.99
180.844	-51.71
181.064	-66.05
181.283	69.12
181.503	-80.38
181.723	52.74
181.943	-90.62
182.163	134.65
182.383	-20.99
182.602	-0.51
182.822	161.28
183.042	103.93
183.262	-18.94
183.482	30.21
183.701	26.11
183.921	89.6
184.141	-74.24
184.361	91.65
184.58	124.41
184.8	-29.18
185.02	-33.28
185.239	17.92
185.459	54.78
185.679	120.32
185.898	-68.09
186.118	17.92
186.338	-27.14
186.557	130.56
186.777	-88.57
186.997	11.78
187.216	-18.94
187.436	105.98
187.655	103.93
187.875	110.08
188.095	69.12
188.314	175.61
188.534	75.26
188.753	38.4
188.973	132.61
189.192	235
189.412	81.41
189.631	71.17
189.851	105.98
190.07	148.99
190.29	-25.09
190.509	60.93
190.729	62.98
190.948	50.69
191.168	253.44
191.387	62.98
191.607	56.83
191.826	85.5
192.045	7.68
192.265	13.82
192.484	112.13
192.704	62.98
192.923	-86.53
193.142	224.76
193.362	85.5
193.581	144.89
193.8	3.58
194.02	132.61
194.239	24.06
194.458	79.36
194.678	-6.66
194.897	65.02
195.116	1.54
195.335	42.5
195.555	99.84
195.774	7.68
195.993	26.11
196.212	5.63
196.432	-14.85
196.651	22.02
196.87	15.87
197.089	232.96
197.308	91.65
197.528	34.3
197.747	-2.56
197.966	58.88
198.185	142.85
198.404	-88.57
198.623	101.89
198.842	142.85
199.062	120.32
199.281	134.65
199.5	34.3
199.719	52.74
199.938	87.55
200.157	50.69
200.376	157.18
200.595	105.98
200.814	22.02
201.033	-57.86
201.252	124.41
201.471	-4.61
201.69	40.45
201.909	65.02
202.128	136.7
202.347	122.37
202.566	26.11
202.785	-49.66
203.004	15.87
203.223	228.86
203.442	40.45
203.661	-18.94
203.879	56.83
204.098	112.13
204.317	-39.42
204.536	95.74
204.755	73.21
204.974	130.56
205.193	-51.71
205.411	175.61
205.63	177.66
205.849	22.02
206.068	-16.9
206.287	1.54
206.505	54.78
206.724	67.07
206.943	-4.61
207.162	-64
207.381	128.51
207.599	-0.51
207.818	44.54
208.037	-59.9
208.255	13.82
208.474	-20.99
208.693	36.35
208.911	-4.61
209.13	22.02
209.349	114.17
209.567	40.45
209.786	91.65
210.005	19.97
210.223	-6.66
210.442	-16.9
210.661	-0.51
210.879	48.64
211.098	11.78
211.316	73.21
211.535	99.84
211.753	30.21
211.972	93.69
212.191	-33.28
212.409	3.58
212.628	91.65
212.846	13.82
213.065	62.98
213.283	108.03
213.502	54.78
213.72	42.5
213.938	13.82
214.157	26.11
214.375	124.41
214.594	28.16
214.812	26.11
215.031	17.92
215.249	-27.14
215.467	52.74
215.686	11.78
215.904	118.27
216.122	28.16
216.341	151.04
216.559	56.83
216.778	120.32
216.996	120.32
217.214	15.87
217.432	24.06
217.651	-27.14
217.869	85.5
218.087	22.02
218.306	-25.09
218.524	40.45
218.742	3.58
218.96	89.6
219.179	-16.9
219.397	46.59
219.615	189.95
219.833	48.64
220.051	-55.81
220.27	130.56
220.488	140.8
220.706	1.54
220.924	40.45
221.142	48.64
221.36	50.69
221.578	56.83
221.796	42.5
222.015	114.17
222.233	71.17
222.451	220.67
222.669	-49.66
222.887	65.02
223.105	-16.9
223.323	19.97
223.541	-61.95
223.759	101.89
223.977	5.63
224.195	124.41
224.413	101.89
224.631	114.17
224.849	15.87
225.067	189.95
225.285	22.02
225.503	42.5
225.721	-43.52
225.939	38.4
226.157	17.92
226.375	214.52
226.592	28.16
226.81	-41.47
227.028	95.74
227.246	58.88
227.464	9.73
227.682	108.03
227.9	58.88
228.117	79.36
228.335	77.31
228.553	54.78
228.771	11.78
228.989	9.73
229.206	67.07
229.424	-0.51
229.642	24.06
229.86	-51.71
230.077	202.24
230.295	38.4
230.513	44.54
230.731	22.02
230.948	95.74
231.166	103.93
231.384	-35.33
231.601	-90.62
231.819	200.19
232.037	-39.42
232.254	7.68
232.472	81.41
232.689	-82.43
232.907	130.56
233.125	-84.48
233.342	-14.85
233.56	-12.8
233.777	-16.9
233.995	32.26
234.213	93.69
234.43	62.98
234.648	-6.66
234.865	50.69
235.083	116.22
235.3	34.3
235.518	114.17
235.735	122.37
235.953	3.58
236.17	26.11
236.388	1.54
236.605	120.32
236.822	161.28
237.04	60.93
237.257	26.11
237.475	-57.86
237.692	77.31
237.909	-18.94
238.127	75.26
238.344	62.98
238.562	-4.61
238.779	-59.9
238.996	11.78
239.214	56.83
239.431	40.45
239.648	48.64
239.865	58.88
240.083	52.74
240.3	-59.9
240.517	17.92
240.735	85.5
240.952	194.05
241.169	42.5
241.386	58.88
241.603	44.54
241.821	-25.09
242.038	95.74
242.255	116.22
242.472	-35.33
242.689	58.88
242.907	15.87
243.124	126.46
243.341	85.5
243.558	52.74
243.775	-113.15
243.992	-39.42
244.209	108.03
244.426	161.28
244.643	-4.61
244.86	36.35
245.078	144.89
245.295	9.73
245.512	-10.75
245.729	-25.09
245.946	42.5
246.163	58.88
246.38	19.97
246.597	67.07
246.814	58.88
247.031	-16.9
247.248	15.87
247.464	36.35
247.681	24.06
247.898	108.03
248.115	81.41
248.332	-23.04
248.549	151.04
248.766	208.38
248.983	95.74
249.2	26.11
249.417	173.57
249.633	-61.95
249.85	142.85
250.067	73.21
250.284	38.4
250.501	40.45
250.717	54.78
250.934	-39.42
251.151	32.26
251.368	65.02
251.585	101.89
251.801	30.21
252.018	-72.19
252.235	105.98
252.451	-55.81
252.668	-14.85
252.885	132.61
253.102	32.26
253.318	67.07
253.535	-55.81
253.752	50.69
253.968	-47.62
254.185	-45.57
254.401	42.5
254.618	97.79
254.835	67.07
255.051	116.22
255.268	171.52
255.484	85.5
255.701	17.92
255.917	-18.94
256.134	-27.14
256.351	-6.66
256.567	-29.18
256.784	15.87
257	-31.23
257.217	101.89
257.433	114.17
257.65	77.31
257.866	132.61
258.082	-41.47
258.299	24.06
258.515	79.36
258.732	7.68
258.948	9.73
259.165	71.17
259.381	-80.38
259.597	40.45
259.814	38.4
260.03	67.07
260.246	28.16
260.463	101.89
260.679	118.27
260.895	69.12
261.112	167.42
261.328	30.21
261.544	-14.85
261.761	161.28
261.977	34.3
262.193	-70.14
262.409	46.59
262.626	-35.33
262.842	120.32
263.058	-37.38
263.274	52.74
263.49	108.03
263.707	62.98
263.923	77.31
264.139	-27.14
264.355	60.93
264.571	71.17
264.787	171.52
265.004	52.74
265.22	19.97
265.436	-23.04
265.652	-49.66
265.868	42.5
266.084	-90.62
266.3	56.83
266.516	13.82
266.732	-31.23
266.948	34.3
267.164	9.73
267.38	120.32
267.596	-23.04
267.812	128.51
268.028	30.21
268.244	-2.56
268.46	38.4
268.676	-12.8
268.892	54.78
269.108	7.68
269.324	5.63
269.54	13.82
269.756	126.46
269.972	-64
270.188	-27.14
270.403	-76.29
270.619	-31.23
270.835	155.13
271.051	67.07
271.267	-41.47
271.483	-23.04
271.698	75.26
271.914	38.4
272.13	30.21
272.346	62.98
272.562	56.83
272.777	165.37
272.993	7.68
273.209	-78.33
273.425	79.36
273.64	-35.33
273.856	40.45
274.072	17.92
274.287	56.83
274.503	67.07
274.719	58.88
274.934	17.92
275.15	-16.9
275.366	22.02
275.581	-23.04
275.797	56.83
276.012	36.35
276.228	-8.7
276.444	73.21
276.659	128.51
276.875	-43.52
277.09	58.88
277.306	91.65
277.521	46.59
277.737	-18.94
277.952	101.89
278.168	7.68
278.383	91.65
278.599	-2.56
278.814	124.41
279.03	-18.94
279.245	128.51
279.461	19.97
279.676	114.17
279.892	-109.05
280.107	44.54
280.322	17.92
280.538	11.78
280.753	-117.25
280.969	99.84
281.184	-49.66
281.399	105.98
281.615	15.87
281.83	30.21
282.045	-82.43
282.26	46.59
282.476	26.11
282.691	89.6
282.906	32.26
283.122	-31.23
283.337	-2.56
283.552	-10.75
283.767	-0.51
283.983	56.83
284.198	-35.33
284.413	60.93
284.628	-55.81
284.843	65.02
285.058	118.27
285.274	54.78
285.489	-8.7
285.704	112.13
285.919	9.73
286.134	67.07
286.349	28.16
286.564	24.06
286.779	181.76
286.995	-10.75
287.21	-43.52
287.425	77.31
287.64	13.82
287.855	79.36
288.07	-25.09
288.285	151.04
288.5	114.17
288.715	148.99
288.93	17.92
289.145	26.11
289.36	77.31
289.575	-4.61
289.79	175.61
290.004	-4.61
290.219	153.09
290.434	-0.51
290.649	-29.18
290.864	-43.52
291.079	-18.94
291.294	3.58
291.509	132.61
291.724	-20.99
291.938	22.02
292.153	56.83
292.368	19.97
292.583	69.12
292.798	65.02
293.012	73.21
293.227	95.74
293.442	9.73
293.657	85.5
293.871	54.78
294.086	44.54
294.301	181.76
294.516	71.17
294.73	48.64
294.945	-84.48
295.16	97.79
295.374	142.85
295.589	116.22
295.804	-16.9
296.018	65.02
296.233	83.45
296.447	60.93
296.662	-45.57
296.877	91.65
297.091	89.6
297.306	-45.57
297.52	48.64
297.735	5.63
297.949	75.26
298.164	69.12
298.378	95.74
298.593	-98.81
298.807	-31.23
299.022	151.04
299.236	89.6
299.451	-18.94
299.665	13.82
299.88	56.83
300.094	42.5
300.309	5.63
300.523	46.59
300.737	-0.51
300.952	105.98
301.166	60.93
301.381	-39.42
301.595	-14.85
301.809	69.12
302.024	26.11
302.238	-39.42
302.452	128.51
302.667	52.74
302.881	128.51
303.095	69.12
303.309	26.11
303.524	28.16
303.738	7.68
303.952	-29.18
304.166	28.16
304.381	-74.24
304.595	69.12
304.809	24.06
305.023	91.65
305.237	-51.71
305.452	54.78
305.666	-12.8
305.88	118.27
306.094	32.26
306.308	65.02
306.522	85.5
306.736	24.06
306.95	108.03
307.164	5.63
307.379	7.68
307.593	140.8
307.807	103.93
308.021	60.93
308.235	85.5
308.449	-55.81
308.663	116.22
308.877	167.42
309.091	30.21
309.305	77.31
309.519	-86.53
309.733	189.95
309.947	-117.25
310.161	1.54
310.374	132.61
310.588	87.55
310.802	62.98
311.016	-49.66
311.23	146.94
311.444	-4.61
311.658	22.02
311.872	165.37
312.085	116.22
312.299	93.69
312.513	118.27
312.727	1.54
312.941	-49.66
313.154	24.06
313.368	87.55
313.582	40.45
313.796	75.26
314.009	-25.09
314.223	108.03
314.437	28.16
314.651	132.61
314.864	-18.94
315.078	-18.94
315.292	-55.81
315.505	-35.33
315.719	50.69
315.933	138.75
316.146	34.3
316.36	26.11
316.573	97.79
316.787	54.78
317.001	28.16
317.214	-51.71
317.428	-10.75
317.641	7.68
317.855	67.07
318.068	1.54
318.282	40.45
318.495	253.44
318.709	114.17
318.922	-27.14
319.136	200.19
319.349	95.74
319.563	-70.14
319.776	103.93
319.99	-145.92
320.203	110.08
320.417	-4.61
320.63	71.17
320.843	165.37
321.057	58.88
321.27	13.82
321.483	15.87
321.697	140.8
321.91	32.26
322.124	56.83
322.337	42.5
322.55	-20.99
322.763	79.36
322.977	30.21
323.19	69.12
323.403	28.16
323.617	17.92
323.83	116.22
324.043	73.21
324.256	32.26
324.469	-0.51
324.683	130.56
324.896	46.59
325.109	-4.61
325.322	-70.14
325.535	58.88
325.748	99.84
325.962	-37.38
326.175	36.35
326.388	42.5
326.601	87.55
326.814	42.5
327.027	3.58
327.24	187.9
327.453	-100.86
327.666	58.88
327.879	194.05
328.092	62.98
328.305	89.6
328.518	28.16
328.731	32.26
328.944	69.12
329.157	69.12
329.37	44.54
329.583	173.57
329.796	114.17
330.009	-33.28
330.222	167.42
330.435	50.69
330.648	89.6
330.861	30.21
331.073	65.02
331.286	71.17
331.499	65.02
331.712	-41.47
331.925	101.89
332.138	54.78
332.35	69.12
332.563	7.68
332.776	103.93
332.989	-92.67
333.202	-2.56
333.414	40.45
333.627	42.5
333.84	22.02
334.053	-18.94
334.265	-8.7
334.478	11.78
334.691	-41.47
334.903	60.93
335.116	32.26
335.329	56.83
335.541	52.74
335.754	75.26
335.966	11.78
336.179	91.65
336.392	19.97
336.604	11.78
336.817	91.65
337.029	73.21
337.242	1.54
337.454	58.88
337.667	85.5
337.88	124.41
338.092	112.13
338.305	101.89
338.517	7.68
338.729	148.99
338.942	120.32
339.154	3.58
339.367	-66.05
339.579	56.83
339.792	-2.56
340.004	116.22
340.217	30.21
340.429	124.41
340.641	-47.62
340.854	-25.09
341.066	-53.76
341.278	73.21
341.491	212.48
341.703	67.07
341.915	-10.75
342.128	128.51
342.34	36.35
342.552	-78.33
342.764	24.06
342.977	120.32
343.189	69.12
343.401	60.93
343.613	-27.14
343.826	38.4
344.038	71.17
344.25	50.69
344.462	-12.8
344.674	-8.7
344.886	9.73
345.099	77.31
345.311	140.8
345.523	-0.51
345.735	-2.56
345.947	73.21
346.159	79.36
346.371	11.78
346.583	13.82
346.795	235
347.007	50.69
347.219	65.02
347.431	30.21
347.643	108.03
347.855	-49.66
348.067	101.89
348.279	-39.42
348.491	65.02
348.703	97.79
348.915	17.92
349.127	5.63
349.339	50.69
349.551	-33.28
349.763	87.55
349.975	77.31
350.187	85.5
350.399	159.23
350.61	124.41
350.822	26.11
351.034	30.21
351.246	81.41
351.458	91.65
351.669	93.69
351.881	148.99
352.093	105.98
352.305	91.65
352.517	83.45
352.728	177.66
352.94	-39.42
353.152	13.82
353.363	-55.81
353.575	77.31
353.787	108.03
353.999	81.41
354.21	126.46
354.422	-16.9
354.633	50.69
354.845	19.97
355.057	71.17
355.268	65.02
355.48	112.13
355.692	-88.57
355.903	36.35
356.115	-37.38
356.326	-107.01
356.538	198.14
356.749	75.26
356.961	187.9
357.172	62.98
357.384	-37.38
357.595	292.35
357.807	-0.51
358.018	-16.9
358.23	48.64
358.441	200.19
358.653	56.83
358.864	9.73
359.075	-14.85
359.287	91.65
359.498	128.51
359.709	95.74
359.921	-0.51
360.132	93.69
360.344	-43.52
360.555	-33.28
360.766	1.54
360.977	28.16
361.189	99.84
361.4	48.64
361.611	112.13
361.823	136.7
362.034	52.74
362.245	-141.82
362.456	32.26
362.667	48.64
362.879	-2.56
363.09	77.31
363.301	97.79
363.512	26.11
363.723	69.12
363.935	50.69
364.146	128.51
364.357	-4.61
364.568	13.82
364.779	-61.95
364.99	118.27
365.201	-23.04
365.412	75.26
365.623	-100.86
365.834	65.02
366.045	46.59
366.256	105.98
366.467	69.12
366.678	120.32
366.889	48.64
367.1	-10.75
367.311	99.84
367.522	-25.09
367.733	118.27
367.944	-16.9
368.155	62.98
368.366	67.07
368.577	130.56
368.788	126.46
368.999	77.31
369.209	32.26
369.42	218.62
369.631	267.77
369.842	22.02
370.053	42.5
370.264	116.22
370.474	54.78
370.685	67.07
370.896	-43.52
371.107	122.37
371.317	32.26
371.528	17.92
371.739	130.56
371.95	28.16
372.16	42.5
372.371	13.82
372.582	19.97
372.792	93.69
373.003	46.59
373.214	75.26
373.424	95.74
373.635	-12.8
373.846	214.52
374.056	62.98
374.267	103.93
374.477	99.84
374.688	-25.09
374.898	5.63
375.109	46.59
375.319	105.98
375.53	144.89
375.74	103.93
375.951	-25.09
376.161	5.63
376.372	177.66
376.582	5.63
376.793	58.88
377.003	40.45
377.214	-76.29
377.424	95.74
377.635	1.54
377.845	32.26
378.055	159.23
378.266	-66.05
378.476	40.45
378.686	15.87
378.897	93.69
379.107	167.42
379.317	95.74
379.528	-0.51
379.738	144.89
379.948	-14.85
380.158	58.88
380.369	-72.19
380.579	69.12
380.789	52.74
380.999	120.32
381.21	116.22
381.42	194.05
381.63	34.3
381.84	52.74
382.05	54.78
382.261	75.26
382.471	128.51
382.681	19.97
382.891	130.56
383.101	85.5
383.311	-10.75
383.521	-18.94
383.731	136.7
383.941	58.88
384.151	110.08
384.361	17.92
384.571	79.36
384.781	77.31
384.991	241.15
385.201	192
385.411	28.16
385.621	146.94
385.831	112.13
386.041	65.02
386.251	11.78
386.461	138.75
386.671	26.11
386.881	67.07
387.091	-8.7
387.301	120.32
387.511	26.11
387.72	26.11
387.93	38.4
388.14	-23.04
388.35	65.02
388.56	19.97
388.769	52.74
388.979	-16.9
389.189	-76.29
389.399	71.17
389.609	52.74
389.818	140.8
390.028	65.02
390.238	48.64
390.447	3.58
390.657	36.35
390.867	7.68
391.076	28.16
391.286	32.26
391.496	-0.51
391.705	42.5
391.915	114.17
392.125	95.74
392.334	-27.14
392.544	124.41
392.753	7.68
392.963	5.63
393.172	42.5
393.382	30.21
393.591	228.86
393.801	-12.8
394.01	179.71
394.22	91.65
394.429	32.26
394.639	5.63
394.848	58.88
395.058	67.07
395.267	36.35
395.477	11.78
395.686	58.88
395.895	275.96
396.105	247.29
396.314	71.17
396.524	103.93
396.733	79.36
396.942	85.5
397.152	71.17
397.361	105.98
397.57	50.69
397.78	79.36
397.989	71.17
398.198	208.38
398.407	95.74
398.617	-2.56
398.826	69.12
399.035	7.68
399.244	26.11
399.453	110.08
399.663	32.26
399.872	95.74
400.081	-64
400.29	126.46
400.499	-25.09
400.708	56.83
400.917	11.78
401.127	42.5
401.336	13.82
401.545	110.08
401.754	89.6
401.963	124.41
402.172	-10.75
402.381	-27.14
402.59	-29.18
402.799	65.02
403.008	46.59
403.217	42.5
403.426	50.69
403.635	-41.47
403.844	48.64
404.053	9.73
404.262	5.63
404.471	226.81
404.68	103.93
404.888	62.98
405.097	15.87
405.306	13.82
405.515	179.71
405.724	-14.85
405.933	83.45
406.142	60.93
406.35	122.37
406.559	22.02
406.768	56.83
406.977	153.09
407.185	46.59
407.394	32.26
407.603	-66.05
407.812	22.02
408.02	159.23
408.229	93.69
408.438	44.54
408.646	-16.9
408.855	-6.66
409.064	85.5
409.272	38.4
409.481	105.98
409.69	-23.04
409.898	44.54
410.107	91.65
410.315	132.61
410.524	26.11
410.733	38.4
410.941	-20.99
411.15	83.45
411.358	151.04
411.567	155.13
411.775	62.98
411.984	73.21
412.192	54.78
412.401	77.31
412.609	247.29
412.818	85.5
413.026	148.99
413.234	71.17
413.443	132.61
413.651	24.06
413.86	34.3
414.068	93.69
414.276	200.19
414.485	-4.61
414.693	142.85
414.901	171.52
415.11	26.11
415.318	56.83
415.526	30.21
415.734	126.46
415.943	42.5
416.151	151.04
416.359	40.45
416.567	89.6
416.776	34.3
416.984	138.75
417.192	159.23
417.4	50.69
417.608	13.82
417.817	-80.38
418.025	40.45
418.233	136.7
418.441	-10.75
418.649	-39.42
418.857	19.97
419.065	67.07
419.273	26.11
419.481	22.02
419.689	3.58
419.897	17.92
420.105	-25.09
420.313	77.31
420.521	114.17
420.729	157.18
420.937	-33.28
421.145	-25.09
421.353	128.51
421.561	159.23
421.769	81.41
421.977	-10.75
422.185	122.37
422.393	11.78
422.601	65.02
422.809	110.08
423.017	99.84
423.224	105.98
423.432	187.9
423.64	77.31
423.848	146.94
424.056	7.68
424.263	142.85
424.471	99.84
424.679	144.89
424.887	-4.61
425.094	140.8
425.302	62.98
425.51	136.7
425.718	58.88
425.925	67.07
426.133	97.79
426.341	235
426.548	71.17
426.756	32.26
426.964	189.95
427.171	-8.7
427.379	97.79
427.586	91.65
427.794	165.37
428.001	93.69
428.209	99.84
428.417	171.52
428.624	153.09
428.832	134.65
429.039	132.61
429.247	167.42
429.454	185.85
429.662	134.65
429.869	165.37
430.076	155.13
430.284	134.65
430.491	230.91
430.699	194.05
430.906	325.12
431.114	208.38
431.321	108.03
431.528	144.89
431.736	189.95
431.943	194.05
432.15	218.62
432.358	235
432.565	280.06
432.772	-6.66
432.979	212.48
433.187	177.66
433.394	314.88
433.601	163.33
433.808	214.52
434.016	241.15
434.223	247.29
434.43	245.24
434.637	237.05
434.844	298.49
435.052	290.3
435.259	251.39
435.466	359.93
435.673	275.96
435.88	239.1
436.087	368.12
436.294	374.27
436.501	359.93
436.708	318.97
436.915	388.6
437.122	439.8
437.329	329.21
437.537	445.95
437.743	366.07
437.95	505.34
438.157	415.23
438.364	380.41
438.571	361.98
438.778	450.04
438.985	540.15
439.192	513.53
439.399	484.86
439.606	566.78
439.813	589.3
440.02	726.52
440.227	775.67
440.433	706.04
440.64	589.3
440.847	613.88
441.054	650.74
441.261	814.58
441.467	767.48
441.674	673.27
441.881	933.36
442.088	738.8
442.294	867.83
442.501	894.45
442.708	847.35
442.914	890.35
443.121	925.17
443.328	996.85
443.534	1095.15
443.741	1023.47
443.948	1033.71
444.154	1160.69
444.361	1365.48
444.568	1191.41
444.774	1308.14
444.981	1215.98
445.187	1463.79
445.394	1361.39
445.6	1476.07
445.807	1568.23
446.013	1463.79
446.22	1486.31
446.426	1756.65
446.633	1822.18
446.839	1893.86
447.046	1588.71
447.252	1973.73
447.459	1988.07
447.665	1951.2
447.871	2127.33
448.078	2270.69
448.284	2252.25
448.491	2328.03
448.697	2424.28
448.903	2547.16
449.11	2455
449.316	2495.96
449.522	2782.68
449.728	2960.85
449.935	2973.14
450.141	3020.24
450.347	3282.38
450.553	3028.43
450.76	3241.42
450.966	3435.98
451.172	3497.42
451.378	3773.89
451.584	3685.83
451.791	4031.94
451.997	4115.91
452.203	4376
452.409	4394.43
452.615	4670.9
452.821	4488.64
453.027	4476.35
453.233	5094.83
453.44	4867.51
453.646	5186.99
453.852	5391.79
454.058	5709.22
454.264	5932.45
454.47	6256.03
454.676	6301.09
454.882	6665.63
455.088	6593.95
455.294	6962.58
455.5	7361.94
455.705	7708.04
455.911	7536.01
456.117	8103.3
456.323	8318.34
456.529	8228.23
456.735	8992.12
456.941	9028.98
457.147	9350.51
457.352	9573.74
457.558	10241.38
457.764	10863.96
457.97	10882.39
458.176	11552.08
458.381	11951.43
458.587	12086.6
458.793	12682.56
458.999	12657.98
459.204	14540.07
459.41	14927.13
459.616	14589.22
459.821	15287.57
460.027	16192.78
460.233	16944.38
460.438	16870.65
460.644	17976.56
460.85	18244.84
461.055	18894.05
461.261	19594.45
461.466	19393.75
461.672	19944.66
461.878	22027.44
462.083	21748.92
462.289	22152.37
462.494	23076
462.7	23037.09
462.905	23612.57
463.111	25449.6
463.316	27034.72
463.522	27094.11
463.727	28181.59
463.932	29017.16
464.138	30268.47
464.343	31495.2
464.549	31491.1
464.754	33819.64
464.959	34599.92
465.165	34989.03
465.37	35089.38
465.575	35085.29
465.781	37329.86
465.986	38353.85
466.191	37800.9
466.397	37931.97
466.602	37034.95
466.807	39390.12
467.012	40205.21
467.218	40606.61
467.423	40549.27
467.628	42048.38
467.833	44061.54
468.038	43273.07
468.244	42294.14
468.449	44421.98
468.654	43557.74
468.859	43486.06
469.064	43742.05
469.269	42580.85
469.474	43092.85
469.679	44542.81
469.885	42898.29
470.09	43588.45
470.295	44088.16
470.5	42892.15
470.705	42941.3
470.91	42290.04
471.115	41415.56
471.32	42019.71
471.525	42259.32
471.73	40801.17
471.935	40530.84
472.139	39025.58
472.344	38677.43
472.549	38640.56
472.754	38093.75
472.959	37227.46
473.164	35916.76
473.369	35552.23
473.574	36608.98
473.778	36099.03
473.983	35105.77
474.188	34642.93
474.393	33115.14
474.598	32736.27
474.802	32461.84
475.007	31552.54
475.212	31374.37
475.417	29826.1
475.621	29912.12
475.826	29617.21
476.031	28970.05
476.235	28486.73
476.44	28417.1
476.645	27307.1
476.849	27364.45
477.054	27188.32
477.259	26076.27
477.463	25980.02
477.668	25246.85
477.872	25357.44
478.077	24923.27
478.282	24278.16
478.486	23882.9
478.691	23594.14
478.895	23616.66
479.1	23364.76
479.304	22963.36
479.509	22279.34
479.713	22518.95
479.918	22072.5
480.122	21443.77
480.326	21929.14
480.531	21617.85
480.735	21200.06
480.94	20899.01
481.144	21447.86
481.348	20479.18
481.553	20391.11
481.757	20143.31
481.961	20536.52
482.166	20460.74
482.37	20114.64
482.574	19373.27
482.778	19403.99
482.983	20247.76
483.187	19516.63
483.391	19385.56
483.595	18816.22
483.8	18916.58
484.004	18836.7
484.208	19053.79
484.412	18584.8
484.616	18554.08
484.821	18031.85
485.025	17718.51
485.229	17773.81
485.433	17425.65
485.637	17358.07
485.841	17054.97
486.045	16837.89
486.249	16860.41
486.453	16137.48
486.657	16155.91
486.861	15938.83
487.065	15375.64
487.269	15232.28
487.473	14646.56
487.677	15027.48
487.881	14998.81
488.085	14490.91
488.289	14421.28
488.493	13751.6
488.697	14054.7
488.901	13616.43
489.105	13278.52
489.309	13243.7
489.512	13032.76
489.716	12547.39
489.92	12354.88
490.124	12072.26
490.328	12150.09
490.531	11738.44
490.735	11601.23
490.939	11318.61
491.143	10997.08
491.346	11079
491.55	10845.53
491.754	10550.62
491.958	10306.91
492.161	10106.21
492.365	10116.45
492.569	9942.38
492.772	9713
492.976	9743.72
493.18	9614.7
493.383	9379.18
493.587	9414
493.79	9293.17
493.994	8953.21
494.197	8791.42
494.401	9084.28
494.605	8783.23
494.808	8598.91
495.012	8738.17
495.215	8648.06
495.419	8420.74
495.622	8263.04
495.825	8357.25
496.029	8355.2
496.232	8248.71
496.436	8181.12
496.639	8377.73
496.843	8019.33
497.046	8127.88
497.249	8254.85
497.453	8185.22
497.656	8174.98
497.859	8015.24
498.063	8396.16
498.266	8246.66
498.469	8158.6
498.673	7949.7
498.876	8043.91
499.079	8103.3
499.282	8209.79
499.485	8400.26
499.689	8455.55
499.892	8484.22
500.095	8404.35
500.298	8586.62
500.501	8406.4
500.705	8531.33
500.908	8572.29
501.111	8828.28
501.314	8627.58
501.517	8869.24
501.72	8723.83
501.923	8953.21
502.126	9098.61
502.329	9149.81
502.532	9489.78
502.735	9317.75
502.938	9622.89
503.141	9586.03
503.344	9489.78
503.547	9788.78
503.75	9725.29
503.953	10067.3
504.156	10161.51
504.359	10171.75
504.562	10552.67
504.765	10456.42
504.968	10827.1
505.17	10777.95
505.373	11140.44
505.576	11394.39
505.779	11519.31
505.982	11257.17
506.185	11863.37
506.387	11717.97
506.59	12039.5
506.793	12324.16
506.996	12330.31
507.198	12784.96
507.401	12690.75
507.604	13227.32
507.807	13438.26
508.009	13595.95
508.212	13997.35
508.415	14028.07
508.617	14374.18
508.82	14589.22
509.022	14636.32
509.225	15422.74
509.428	15539.47
509.63	15756.56
509.833	16309.51
510.035	16479.49
510.238	16844.03
510.44	17450.23
510.643	17577.2
510.845	17849.58
511.048	17906.93
511.25	18818.27
511.453	19137.76
511.655	19864.78
511.858	19772.63
512.06	20557
512.262	20751.56
512.465	20821.19
512.667	21961.9
512.87	22209.71
513.072	22666.41
513.274	23106.72
513.477	23841.94
513.679	24050.83
513.881	24786.05
514.084	25322.62
514.286	25820.28
514.488	26252.4
514.69	27044.96
514.893	27683.93
515.095	27815
515.297	28701.77
515.499	28933.19
515.701	29746.23
515.904	30348.34
516.106	31464.48
516.308	31720.48
516.51	32037.91
516.712	32721.93
516.914	33598.46
517.116	34696.17
517.318	34804.72
517.52	35333.09
517.722	35953.63
517.925	36293.59
518.127	37399.49
518.329	37852.09
518.531	37993.4
518.733	39103.4
518.935	39576.48
519.136	40307.61
519.338	41188.24
519.54	41892.74
519.742	42105.73
519.944	42580.85
520.146	43527.02
520.348	43998.05
520.55	44559.19
520.752	44821.33
520.954	46054.21
521.155	45796.17
521.357	46607.16
521.559	47115.06
521.761	48349.98
521.963	47885.09
522.164	48579.35
522.366	48841.49
522.568	49142.55
522.77	49609.48
522.971	50432.77
523.173	49857.29
523.375	50699
523.576	50799.35
523.778	50854.65
523.98	51210.99
524.181	51710.7
524.383	51399.41
524.584	52103.91
524.786	51888.87
524.988	51964.65
525.189	52521.69
525.391	52527.84
525.592	52613.85
525.794	52865.75
525.995	52302.56
526.197	52460.26
526.398	52519.65
526.6	52503.26
526.801	51802.86
527.003	52292.32
527.204	51938.02
527.406	52067.05
527.607	51514.09
527.808	51708.65
528.01	50580.22
528.211	50645.76
528.412	51206.9
528.614	50270.98
528.815	50148.1
529.016	50211.59
529.218	48999.19
529.419	49152.79
529.62	48855.83
529.822	47868.71
530.023	47665.96
530.224	46981.94
530.425	46934.84
530.626	46160.7
530.828	45648.71
531.029	46543.67
531.23	44677.97
531.431	44325.72
531.632	44125.02
531.833	43592.55
532.035	43078.51
532.236	42572.66
532.437	42400.63
532.638	41532.29
532.839	41333.64
533.04	40795.03
533.241	39605.16
533.442	39898.02
533.643	38976.43
533.844	38917.04
534.045	38042.56
534.246	37284.81
534.447	37000.14
534.648	36185.05
534.849	36297.69
535.05	35269.61
535.251	35382.24
535.451	34604.02
535.652	34325.49
535.853	33676.29
536.054	33305.6
536.255	32738.32
536.456	32203.8
536.657	32384.02
536.857	31495.2
537.058	31104.04
537.259	30874.66
537.46	30313.52
537.66	29824.06
537.861	29344.83
538.062	29033.54
538.263	28656.71
538.463	28294.22
538.664	27997.27
538.865	27677.79
539.065	27485.28
539.266	27006.05
539.466	26696.81
539.667	25844.85
539.868	26147.95
540.068	25764.98
540.269	25513.08
540.469	25089.15
540.67	24829.06
540.87	24659.08
541.071	24431.76
541.271	23798.93
541.472	24011.92
541.672	23377.05
541.873	22944.93
542.073	22641.83
542.274	22881.44
542.474	22719.65
542.675	22125.74
542.875	22099.12
543.075	21562.55
543.276	21208.25
543.476	21173.44
543.676	20978.88
543.877	20671.68
544.077	20149.45
544.277	20249.8
544.478	19932.37
544.678	19766.48
544.878	19805.39
545.078	19457.24
545.279	18943.2
545.479	18805.99
545.679	18509.03
545.879	18429.16
546.079	18011.37
546.28	17906.93
546.48	17609.97
546.68	17743.09
546.88	17310.97
547.08	17286.39
547.28	16985.34
547.48	16758.02
547.68	16729.34
547.88	16282.89
548.081	16395.53
548.281	15959.31
548.481	15580.43
548.681	15719.7
548.881	15400.21
549.081	15256.86
549.28	14728.48
549.48	14769.44
549.68	14523.68
549.88	14372.13
550.08	14140.71
550.28	14193.96
550.48	13800.75
550.68	13632.82
550.88	13266.23
551.08	13282.61
551.279	13192.5
551.479	12672.32
551.679	12813.63
551.879	12584.26
552.079	12358.98
552.278	12012.87
552.478	11939.15
552.678	11787.6
552.878	11685.2
553.077	11261.27
553.277	11144.53
553.477	11363.67
553.676	11050.33
553.876	10716.51
554.076	10648.93
554.275	10225
554.475	9993.58
554.674	10089.83
554.874	10093.93
555.074	9502.06
555.273	9667.95
555.473	9399.66
555.672	9196.92
555.872	8973.69
556.071	8947.06
556.271	9047.41
556.47	8850.81
556.67	8705.4
556.869	8435.07
557.068	8387.97
557.268	8213.89
557.467	8183.17
557.667	7892.36
557.866	7984.52
558.065	7460.24
558.265	7493.01
558.464	7359.89
558.663	7298.45
558.863	7138.71
559.062	7249.3
559.261	7060.88
559.461	6976.92
559.66	6829.46
559.859	6448.54
560.058	6636.95
560.258	6366.62
560.457	6290.85
560.656	6335.9
560.855	6053.28
561.054	6120.87
561.253	5883.3
561.453	5846.44
561.652	5643.69
561.851	5739.94
562.05	5418.41
562.249	5379.5
562.448	5461.42
562.647	5432.75
562.846	5461.42
563.045	5252.53
563.244	4988.34
563.443	5000.63
563.642	4832.69
563.841	4900.28
564.04	4701.62
564.239	4758.97
564.438	4502.97
564.637	4496.83
564.836	4449.72
565.035	4439.48
565.234	4281.79
565.432	4234.69
565.631	4378.05
565.83	4068.8
566.029	4093.38
566.228	4015.55
566.427	4234.69
566.625	3902.92
566.824	3915.2
567.023	4027.84
567.222	3749.32
567.42	3628.49
567.619	3698.12
567.818	3651.02
568.016	3714.5
568.215	3546.57
568.414	3454.41
568.612	3448.27
568.811	3360.2
569.01	3462.6
569.208	3243.47
569.407	3249.61
569.605	3108.3
569.804	3216.85
570.002	3159.5
570.201	3032.53
570.4	2897.36
570.598	2928.08
570.797	2926.04
570.995	2696.66
571.193	2909.65
571.392	2823.64
571.59	2725.33
571.789	2782.68
571.987	2655.7
572.186	2702.81
572.384	2604.5
572.582	2590.17
572.781	2547.16
572.979	2461.15
573.177	2432.47
573.376	2323.93
573.574	2348.51
573.772	2246.11
573.971	2156
574.169	2246.11
574.367	2252.25
574.565	2102.75
574.763	2254.3
574.962	2262.49
575.16	2053.6
575.358	2018.79
575.556	2053.6
575.754	1924.58
575.952	1910.24
576.151	1926.63
576.349	1967.59
576.547	1795.56
576.745	1967.59
576.943	1900
577.141	1748.45
577.339	1682.92
577.537	1695.21
577.735	1793.51
577.933	1713.64
578.131	1594.86
578.329	1748.45
578.527	1586.66
578.725	1644.01
578.923	1433.07
579.121	1711.59
579.319	1406.44
579.516	1570.28
579.714	1734.12
579.912	1402.35
580.11	1410.54
580.308	1437.16
580.506	1273.32
580.704	1302
580.901	1230.32
581.099	1353.2
581.297	1299.95
581.495	1215.98
581.692	1183.21
581.89	1367.53
582.088	1234.41
582.285	1211.89
582.483	1105.39
582.681	1240.56
582.878	1121.77
583.076	1115.63
583.274	1150.45
583.471	1224.17
583.669	1129.97
583.866	964.08
584.064	1111.54
584.262	1011.18
584.459	992.75
584.657	951.79
584.854	1119.73
585.052	1046
585.249	1029.62
585.447	984.56
585.644	861.68
585.841	1068.53
586.039	916.98
586.236	988.66
586.434	843.25
586.631	800.24
586.828	939.51
587.026	884.21
587.223	781.81
587.42	853.49
587.618	859.63
587.815	886.26
588.012	779.76
588.21	775.67
588.407	820.72
588.604	714.23
588.801	763.38
588.999	796.15
589.196	767.48
589.393	730.61
589.59	712.18
589.787	814.58
589.984	732.66
590.182	693.75
590.379	740.85
590.576	763.38
590.773	718.33
590.97	673.27
591.167	759.28
591.364	730.61
591.561	628.21
591.758	878.07
591.955	708.09
592.152	597.49
592.349	577.02
592.546	642.55
592.743	634.36
592.94	701.94
593.137	714.23
593.334	699.89
593.531	697.85
593.727	744.95
593.924	751.09
594.121	749.04
594.318	626.17
594.515	749.04
594.712	835.06
594.908	818.68
595.105	665.08
595.302	755.19
595.499	755.19
595.696	1002.99
595.892	787.96
596.089	822.77
596.286	738.8
596.482	931.31
596.679	925.17
596.876	732.66
597.072	1011.18
597.269	914.93
597.466	904.69
597.662	835.06
597.859	988.66
598.055	966.13
598.252	929.27
598.448	1123.82
598.645	1138.16
598.841	1162.73
599.038	1342.96
599.234	1230.32
599.431	1398.25
599.627	1324.52
599.824	1437.16
600.02	1322.48
600.217	1498.6
600.413	1527.27
600.609	1572.33
600.806	1803.75
601.002	1703.4
601.198	1713.64
601.395	1842.66
601.591	1838.56
601.787	1932.77
601.984	2006.5
602.18	2078.18
602.376	2125.28
602.572	2409.95
602.769	2344.41
602.965	2440.67
603.161	2616.79
603.357	2643.42
603.553	2854.36
603.75	2690.52
603.946	2917.84
604.142	2928.08
604.338	3190.22
604.534	3243.47
604.73	3214.8
604.926	3341.77
605.122	3519.95
605.318	3544.52
605.514	3890.63
605.71	3775.94
605.906	3945.92
606.102	4101.57
606.298	4152.77
606.494	4341.18
606.69	4496.83
606.886	4433.34
607.082	4584.89
607.278	4814.26
607.474	4937.14
607.67	5137.84
607.866	5223.86
608.062	5574.06
608.257	5596.59
608.453	5553.58
608.649	5813.67
608.845	5858.73
609.041	5911.97
609.236	6368.67
609.432	6456.73
609.628	6798.74
609.824	6753.69
610.019	6890.9
610.215	7185.81
610.411	7396.75
610.606	7691.66
610.802	7767.43
610.998	7853.45
611.193	8299.91
611.389	8035.72
611.584	8586.62
611.78	8586.62
611.976	9033.08
612.171	9444.72
612.367	9639.28
612.562	9655.66
612.758	9784.68
612.953	9948.52
613.149	10421.6
613.344	10560.86
613.539	10902.87
613.735	11408.72
613.93	11517.26
614.126	11865.42
614.321	12346.69
614.517	12475.71
614.712	12981.56
614.907	12973.37
615.103	13774.13
615.298	13774.13
615.493	14259.49
615.688	14279.97
615.884	15179.03
616.079	15115.55
616.274	15654.16
616.47	15901.97
616.665	16327.94
616.86	16573.7
617.055	17106.17
617.25	17599.73
617.445	18234.6
617.641	18332.9
617.836	18744.55
618.031	19227.87
618.226	20171.98
618.421	20217.04
618.616	21036.22
618.811	21265.6
619.006	21865.65
619.201	22019.25
619.396	22695.08
619.591	22566.06
619.786	23723.16
619.981	23954.58
620.176	24818.82
620.371	24888.45
620.566	25746.55
620.761	26117.23
620.956	26819.69
621.151	26776.68
621.346	27970.65
621.541	27761.75
621.735	29203.52
621.93	28925
622.125	29518.91
622.32	29961.27
622.515	30684.2
622.709	31460.38
622.904	31693.85
623.099	32766.99
623.294	33291.27
623.488	33211.4
623.683	34315.25
623.878	34087.93
624.072	35449.83
624.267	35834.85
624.462	35748.83
624.656	36477.91
624.851	37209.03
625.046	37438.4
625.24	38417.33
625.435	38335.42
625.629	39123.88
625.824	39635.88
626.018	40545.17
626.213	40094.62
626.407	41106.32
626.602	41145.23
626.796	42173.31
626.991	42802.03
627.185	42898.29
627.38	42804.08
627.574	43133.81
627.768	43424.62
627.963	43461.48
628.157	43387.75
628.352	44094.3
628.546	43604.84
628.74	44419.93
628.935	43486.06
629.129	44026.72
629.323	43379.56
629.517	43221.87
629.712	43209.58
629.906	42627.96
630.1	42331
630.294	42285.95
630.489	41716.61
630.683	41513.86
630.877	40586.13
631.071	40008.61
631.265	39359.4
631.459	38986.67
631.653	37833.66
631.848	36944.84
632.042	35976.16
632.236	35111.91
632.43	34175.99
632.624	33862.65
632.818	32607.25
633.012	31478.82
633.206	30344.24
633.4	29541.44
633.594	28519.5
633.788	27743.32
633.982	26829.93
634.176	25844.85
634.369	24915.08
634.563	24085.65
634.757	22674.6
634.951	22265
635.145	21228.73
635.339	20456.65
635.533	19934.42
635.726	19006.69
635.92	17802.48
636.114	17224.95
636.308	16577.8
636.501	15959.31
636.695	15402.26
636.889	14726.43
637.083	13921.58
637.276	13522.23
637.47	12838.2
637.664	12158.28
637.857	12088.65
638.051	11691.34
638.244	10988.89
638.438	10409.31
638.632	10196.32
638.825	9565.55
639.019	9184.63
639.212	8985.97
639.406	8553.85
639.599	8060.29
639.793	7937.41
639.986	7669.13
640.18	7538.06
640.373	7142.8
640.567	6790.55
640.76	6550.94
640.954	6393.25
641.147	5967.27
641.34	5727.66
641.534	5694.89
641.727	5565.87
641.92	5234.1
642.114	4982.2
642.307	4654.52
642.5	4842.93
642.694	4543.93
642.887	4343.23
643.08	4222.4
643.273	3935.68
643.467	3755.46
643.66	3634.63
643.853	3419.6
644.046	3419.6
644.239	3173.84
644.432	3085.78
644.626	2950.61
644.819	2815.45
645.012	2794.97
645.205	2655.7
645.398	2665.94
645.591	2538.97
645.784	2282.97
645.977	2205.15
646.17	2149.86
646.363	2262.49
646.556	2074.08
646.749	1902.05
646.942	1912.29
647.135	1730.02
647.328	1859.04
647.521	1721.83
647.714	1656.29
647.907	1637.86
648.099	1488.36
648.292	1527.27
648.485	1435.11
648.678	1336.81
648.871	1240.56
649.064	1351.15
649.256	1154.54
649.449	1050.1
649.642	1041.9
649.835	1015.28
650.027	1058.29
650.22	1019.38
650.413	972.27
650.605	962.03
650.798	937.46
650.991	927.22
651.183	814.58
651.376	851.44
651.568	800.24
651.761	632.31
651.954	673.27
652.146	730.61
652.339	665.08
652.531	736.76
652.724	589.3
652.916	574.97
653.109	515.58
653.301	646.65
653.494	554.49
653.686	525.82
653.879	617.97
654.071	595.45
654.263	505.34
654.456	443.9
654.648	609.78
654.84	443.9
655.033	384.51
655.225	568.82
655.417	196.09
655.61	513.53
655.802	482.81
655.994	499.19
656.186	278.01
656.379	443.9
656.571	382.46
656.763	394.75
656.955	339.45
657.148	355.83
657.34	415.23
657.532	378.36
657.724	310.78
657.916	269.82
658.108	433.66
658.3	359.93
658.492	331.26
658.684	243.2
658.876	396.79
659.068	255.48
659.26	181.76
659.452	181.76
659.644	224.76
659.836	407.03
660.028	239.1
660.22	189.95
660.412	198.14
660.604	312.83
660.796	253.44
660.988	296.44
661.18	259.58
661.372	269.82
661.563	181.76
661.755	265.72
661.947	89.6
662.139	194.05
662.331	183.81
662.522	255.48
662.714	198.14
662.906	114.17
663.097	173.57
663.289	275.96
663.481	71.17
663.673	261.63
663.864	206.33
664.056	167.42
664.247	118.27
664.439	253.44
664.631	189.95
664.822	239.1
665.014	146.94
665.205	128.51
665.397	91.65
665.588	161.28
665.78	120.32
665.971	278.01
666.163	65.02
666.354	138.75
666.546	89.6
666.737	177.66
666.929	128.51
667.12	146.94
667.311	99.84
667.503	103.93
667.694	169.47
667.885	130.56
668.077	230.91
668.268	32.26
668.459	122.37
668.651	146.94
668.842	192
669.033	105.98
669.224	101.89
669.416	298.49
669.607	71.17
669.798	69.12
669.989	263.68
670.18	118.27
670.371	146.94
670.563	62.98
670.754	189.95
670.945	60.93
671.136	189.95
671.327	56.83
671.518	212.48
671.709	210.43
671.9	138.75
672.091	173.57
672.282	159.23
672.473	196.09
672.664	128.51
672.855	112.13
673.046	181.76
673.237	169.47
673.428	130.56
673.619	202.24
673.809	146.94
674	200.19
674.191	167.42
674.382	120.32
674.573	110.08
674.764	112.13
674.954	218.62
675.145	126.46
675.336	179.71
675.527	85.5
675.717	144.89
675.908	69.12
676.099	114.17
676.289	159.23
676.48	-2.56
676.671	206.33
676.861	48.64
677.052	151.04
677.243	173.57
677.433	83.45
677.624	237.05
677.814	155.13
678.005	101.89
678.195	206.33
678.386	89.6
678.576	144.89
678.767	13.82
678.957	171.52
679.148	62.98
679.338	210.43
679.529	167.42
679.719	144.89
679.909	232.96
680.1	173.57
680.29	146.94
680.481	44.54
680.671	255.48
680.861	239.1
681.052	224.76
681.242	132.61
681.432	263.68
681.622	105.98
681.813	83.45
682.003	128.51
682.193	67.07
682.383	210.43
682.573	163.33
682.764	99.84
682.954	153.09
683.144	249.34
683.334	136.7
683.524	161.28
683.714	177.66
683.904	263.68
684.094	128.51
684.284	175.61
684.474	251.39
684.664	292.35
684.854	267.77
685.044	194.05
685.234	196.09
685.424	185.85
685.614	153.09
685.804	267.77
685.994	206.33
686.184	165.37
686.374	253.44
686.564	151.04
686.753	179.71
686.943	110.08
687.133	173.57
687.323	214.52
687.513	257.53
687.702	198.14
687.892	146.94
688.082	269.82
688.272	253.44
688.461	175.61
688.651	331.26
688.841	210.43
689.03	101.89
689.22	194.05
689.41	235
689.599	220.67
689.789	116.22
689.979	261.63
690.168	181.76
690.358	202.24
690.547	237.05
690.737	245.24
690.926	169.47
691.116	321.02
691.305	192
691.495	243.2
691.684	128.51
691.874	214.52
692.063	159.23
692.252	226.81
692.442	235
692.631	200.19
692.82	112.13
693.01	153.09
693.199	148.99
693.388	204.28
693.578	148.99
693.767	239.1
693.956	194.05
694.146	126.46
694.335	218.62
694.524	122.37
694.713	175.61
694.902	204.28
695.092	192
695.281	210.43
695.47	177.66
695.659	144.89
695.848	187.9
696.037	114.17
696.226	290.3
696.415	144.89
696.604	273.92
696.793	232.96
696.982	214.52
697.171	278.01
697.36	198.14
697.549	208.38
697.738	22.02
697.927	136.7
698.116	105.98
698.305	214.52
698.494	148.99
698.683	138.75
698.872	316.92
699.061	81.41
699.25	136.7
699.438	136.7
699.627	101.89
699.816	255.48
700.005	89.6
700.193	140.8
700.382	243.2
700.571	237.05
700.76	230.91
700.948	239.1
701.137	243.2
701.326	261.63
701.514	124.41
701.703	167.42
701.892	245.24
702.08	304.64
702.269	175.61
702.457	157.18
702.646	204.28
702.834	67.07
703.023	286.2
703.212	192
703.4	148.99
703.589	108.03
703.777	132.61
703.965	95.74
704.154	134.65
704.342	206.33
704.531	148.99
704.719	144.89
704.907	269.82
705.096	136.7
705.284	179.71
705.472	165.37
705.661	214.52
705.849	255.48
706.037	247.29
706.226	192
706.414	228.86
706.602	132.61
706.79	187.9
706.979	132.61
707.167	198.14
707.355	83.45
707.543	202.24
707.731	146.94
707.919	194.05
708.107	153.09
708.296	114.17
708.484	95.74
708.672	161.28
708.86	187.9
709.048	91.65
709.236	116.22
709.424	171.52
709.612	196.09
709.8	67.07
709.988	167.42
710.176	327.16
710.364	206.33
710.551	103.93
710.739	202.24
710.927	132.61
711.115	128.51
711.303	339.45
711.491	261.63
711.679	38.4
711.866	220.67
712.054	62.98
712.242	273.92
712.43	265.72
712.617	247.29
712.805	294.4
712.993	185.85
713.181	79.36
713.368	187.9
713.556	228.86
713.744	52.74
713.931	343.55
714.119	210.43
714.306	167.42
714.494	116.22
714.682	108.03
714.869	157.18
715.057	161.28
715.244	75.26
715.432	175.61
715.619	165.37
715.807	202.24
715.994	194.05
716.182	177.66
716.369	261.63
716.556	245.24
716.744	101.89
716.931	65.02
717.119	210.43
717.306	173.57
717.493	237.05
717.681	124.41
717.868	105.98
718.055	173.57
718.242	230.91
718.43	155.13
718.617	251.39
718.804	167.42
718.991	302.59
719.179	200.19
719.366	210.43
719.553	245.24
719.74	151.04
719.927	181.76
720.114	214.52
720.301	159.23
720.488	116.22
720.676	48.64
720.863	388.6
721.05	304.64
721.237	243.2
721.424	251.39
721.611	226.81
721.798	83.45
721.985	136.7
722.172	214.52
722.358	161.28
722.545	194.05
722.732	230.91
722.919	292.35
723.106	210.43
723.293	138.75
723.48	134.65
723.667	183.81
723.853	265.72
724.04	282.11
724.227	249.34
724.414	230.91
724.6	308.73
724.787	298.49
724.974	366.07
725.161	198.14
725.347	134.65
725.534	165.37
725.72	216.57
725.907	257.53
726.094	171.52
726.28	308.73
726.467	218.62
726.653	218.62
726.84	382.46
727.027	374.27
727.213	200.19
727.4	255.48
727.586	114.17
727.773	202.24
727.959	241.15
728.145	202.24
728.332	165.37
728.518	206.33
728.705	265.72
728.891	273.92
729.077	235
729.264	218.62
729.45	288.25
729.636	288.25
729.823	181.76
730.009	220.67
730.195	206.33
730.382	284.16
730.568	187.9
730.754	194.05
730.94	220.67
731.126	249.34
731.313	247.29
731.499	198.14
731.685	235
731.871	359.93
732.057	208.38
732.243	237.05
732.429	304.64
732.615	337.4
732.801	185.85
732.987	214.52
733.173	208.38
733.359	200.19
733.545	286.2
733.731	189.95
733.917	210.43
734.103	273.92
734.289	263.68
734.475	120.32
734.661	384.51
734.847	275.96
735.033	292.35
735.219	304.64
735.404	249.34
735.59	173.57
735.776	247.29
735.962	216.57
736.148	323.07
736.333	249.34
736.519	226.81
736.705	196.09
736.89	259.58
737.076	263.68
737.262	214.52
737.447	202.24
737.633	255.48
737.819	314.88
738.004	237.05
738.19	169.47
738.375	226.81
738.561	265.72
738.747	261.63
738.932	163.33
739.118	376.31
739.303	261.63
739.489	249.34
739.674	230.91
739.859	206.33
740.045	323.07
740.23	241.15
740.416	54.78
740.601	275.96
740.786	210.43
740.972	196.09
741.157	132.61
741.342	112.13
741.528	222.72
741.713	312.83
741.898	124.41
742.084	253.44
742.269	284.16
742.454	255.48
742.639	341.5
742.824	261.63
743.01	351.74
743.195	402.94
743.38	173.57
743.565	226.81
743.75	349.69
743.935	333.31
744.12	265.72
744.305	163.33
744.49	189.95
744.675	249.34
744.86	214.52
745.045	296.44
745.23	267.77
745.415	167.42
745.6	278.01
745.785	202.24
745.97	292.35
746.155	282.11
746.34	325.12
746.525	247.29
746.71	355.83
746.895	151.04
747.079	148.99
747.264	136.7
747.449	306.68
747.634	300.54
747.819	216.57
748.003	173.57
748.188	128.51
748.373	278.01
748.557	210.43
748.742	204.28
748.927	171.52
749.111	187.9
749.296	140.8
749.481	333.31
749.665	181.76
749.85	112.13
750.034	261.63
750.219	255.48
750.404	136.7
750.588	189.95
750.773	210.43
750.957	187.9
751.141	126.46
751.326	226.81
751.51	148.99
751.695	177.66
751.879	198.14
752.064	351.74
752.248	132.61
752.432	278.01
752.617	245.24
752.801	237.05
752.985	122.37
753.17	271.87
753.354	245.24
753.538	169.47
753.722	97.79
753.907	83.45
754.091	159.23
754.275	263.68
754.459	120.32
754.643	142.85
754.828	196.09
755.012	177.66
755.196	15.87
755.38	177.66
755.564	89.6
755.748	153.09
755.932	155.13
756.116	198.14
756.3	216.57
756.484	114.17
756.668	230.91
756.852	89.6
757.036	103.93
757.22	214.52
757.404	142.85
757.588	112.13
757.772	54.78
757.956	124.41
758.14	249.34
758.323	71.17
758.507	112.13
758.691	91.65
758.875	192
759.059	134.65
759.242	126.46
759.426	99.84
759.61	157.18
759.794	38.4
759.977	151.04
760.161	245.24
760.345	239.1
760.528	153.09
760.712	83.45
760.895	208.38
761.079	220.67
761.263	87.55
761.446	67.07
761.63	138.75
761.813	165.37
761.997	3.58
762.18	-2.56
762.364	128.51
762.547	32.26
762.731	124.41
762.914	99.84
763.098	99.84
763.281	77.31
763.464	120.32
763.648	52.74
763.831	134.65
764.015	60.93
764.198	167.42
764.381	142.85
764.564	103.93
764.748	105.98
764.931	177.66
765.114	95.74
765.297	144.89
765.481	30.21
765.664	30.21
765.847	46.59
766.03	202.24
766.213	-4.61
766.397	114.17
766.58	3.58
766.763	220.67
766.946	75.26
767.129	105.98
767.312	136.7
767.495	42.5
767.678	-20.99
767.861	83.45
768.044	46.59
768.227	110.08
768.41	36.35
768.593	58.88
768.776	142.85
768.959	116.22
769.142	208.38
769.324	126.46
769.507	75.26
769.69	38.4
769.873	89.6
770.056	331.26
770.239	79.36
770.421	171.52
770.604	138.75
770.787	65.02
770.97	87.55
771.152	-12.8
771.335	138.75
771.518	15.87
771.7	83.45
771.883	179.71
772.066	108.03
772.248	161.28
772.431	116.22
772.613	69.12
772.796	110.08
772.978	136.7
773.161	118.27
773.343	42.5
773.526	1.54
773.708	-74.24
773.891	-70.14
774.073	-8.7
774.256	-23.04
774.438	214.52
774.621	56.83
774.803	89.6
774.985	30.21
775.168	54.78
775.35	108.03
775.532	155.13
775.715	46.59
775.897	32.26
776.079	32.26
776.261	56.83
776.444	48.64
776.626	81.41
776.808	32.26
776.99	-68.09
777.173	95.74
777.355	32.26
777.537	62.98
777.719	3.58
777.901	-27.14
778.083	32.26
778.265	-45.57
778.447	60.93
778.629	30.21
778.811	79.36
778.993	79.36
779.175	138.75
779.357	50.69
779.539	9.73
779.721	15.87
779.903	91.65
780.085	-51.71
780.267	42.5
780.449	30.21
780.631	71.17
780.812	169.47
780.994	36.35
781.176	56.83
781.358	54.78
781.54	-12.8
781.721	103.93
781.903	81.41
782.085	9.73
782.267	177.66
782.448	-53.76
782.63	-6.66
782.812	108.03
782.993	24.06
783.175	108.03
783.357	-10.75
783.538	-45.57
783.72	-14.85
783.901	60.93
784.083	67.07
784.264	24.06
784.446	-68.09
784.627	26.11
784.809	95.74
784.99	-29.18
785.172	75.26
785.353	32.26
785.535	60.93
785.716	-6.66
785.897	-47.62
786.079	-25.09
786.26	46.59
786.441	75.26
786.623	-135.68
786.804	28.16
786.985	36.35
787.167	93.69
787.348	-33.28
787.529	52.74
787.71	140.8
787.891	108.03
788.073	-23.04
788.254	-100.86
788.435	11.78
788.616	36.35
788.797	-88.57
788.978	40.45
789.159	26.11
789.34	17.92
789.522	-12.8
789.703	48.64
789.884	83.45
790.065	140.8
790.246	192
790.427	-72.19
790.607	132.61
790.788	65.02
790.969	28.16
791.15	110.08
791.331	-18.94
791.512	-23.04
791.693	-27.14
791.874	-12.8
792.054	198.14
792.235	93.69
792.416	-82.43
792.597	-39.42
792.778	69.12
792.958	-0.51
793.139	71.17
793.32	15.87
793.5	24.06
793.681	169.47
793.862	13.82
794.042	-0.51
794.223	-35.33
794.404	-37.38
794.584	-102.91
794.765	-8.7
794.945	15.87
795.126	87.55
795.306	79.36
795.487	-68.09
795.667	-23.04
795.848	48.64
796.028	65.02
796.209	56.83
796.389	9.73
796.57	71.17
796.75	-37.38
796.93	67.07
797.111	-4.61
797.291	-98.81
797.471	126.46
797.652	38.4
797.832	-18.94
798.012	79.36
798.192	-27.14
798.373	-45.57
798.553	38.4
798.733	15.87
798.913	50.69
799.093	-39.42
799.274	-27.14
799.454	114.17
799.634	144.89
799.814	99.84
799.994	-18.94
800.174	48.64
800.354	-6.66
800.534	-82.43
800.714	32.26
800.894	-31.23
801.074	-47.62
801.254	-29.18
801.434	62.98
801.614	-0.51
801.794	11.78
801.974	1768.93
802.154	-45.57
802.334	99.84
802.514	-74.24
802.693	60.93
802.873	-64
803.053	130.56
803.233	13.82
803.413	-4.61
803.592	-72.19
803.772	-59.9
803.952	38.4
804.131	-88.57
804.311	167.42
804.491	95.74
804.67	-35.33
804.85	-10.75
805.03	-6.66
805.209	38.4
805.389	-35.33
805.568	1.54
805.748	5.63
805.928	-4.61
806.107	26.11
806.287	44.54
806.466	40.45
806.646	-27.14
806.825	-20.99
807.004	17.92
807.184	50.69
807.363	134.65
807.543	-51.71
807.722	-64
807.901	77.31
808.081	50.69
808.26	-92.67
808.439	32.26
808.619	-29.18
808.798	-88.57
808.977	22.02
809.156	73.21
809.336	30.21
809.515	77.31
809.694	-31.23
809.873	-57.86
810.052	89.6
810.231	89.6
810.411	-64
810.59	50.69
810.769	-18.94
810.948	-8.7
811.127	-121.34
811.306	-61.95
811.485	-33.28
811.664	132.61
811.843	-14.85
812.022	28.16
812.201	-33.28
812.38	-10.75
812.559	-23.04
812.737	44.54
812.916	-96.77
813.095	-47.62
813.274	103.93
813.453	15.87
813.632	42.5
813.811	-14.85
813.989	-45.57
814.168	19.97
814.347	-23.04
814.526	9.73
814.704	112.13
814.883	112.13
815.062	13.82
815.24	-57.86
815.419	-27.14
815.598	-45.57
815.776	-113.15
815.955	5.63
816.133	-109.05
816.312	38.4
816.49	-84.48
816.669	-20.99
816.847	9.73
817.026	19.97
817.204	77.31
817.383	38.4
817.561	-96.77
817.74	9.73
817.918	85.5
818.097	-31.23
818.275	-76.29
818.453	73.21
818.632	19.97
818.81	-0.51
818.988	-66.05
819.167	-84.48
819.345	99.84
819.523	-39.42
819.701	40.45
819.879	26.11
820.058	-33.28
820.236	9.73
820.414	-4.61
820.592	-49.66
820.77	26.11
820.948	-53.76
821.127	-35.33
821.305	-43.52
821.483	-12.8
821.661	24.06
821.839	-8.7
822.017	-27.14
822.195	-47.62
822.373	122.37
822.551	5.63
822.729	81.41
822.907	-39.42
823.085	-16.9
823.262	-8.7
823.44	-37.38
823.618	-37.38
823.796	-20.99
823.974	-84.48
824.152	-88.57
824.329	-43.52
824.507	15.87
824.685	17.92
824.863	9.73
825.04	75.26
825.218	48.64
825.396	13.82
825.574	22.02
825.751	13.82
825.929	11.78
826.107	-107.01
826.284	67.07
826.462	34.3
826.639	-64
826.817	-160.25
826.994	-8.7
827.172	-72.19
827.349	120.32
827.527	-2.56
827.704	44.54
827.882	-23.04
828.059	22.02
828.237	13.82
828.414	83.45
828.591	-143.87
828.769	54.78
828.946	-2.56
829.124	85.5
829.301	60.93
829.478	-43.52
829.655	24.06
829.833	-59.9
830.01	-94.72
830.187	5.63
830.364	-31.23
830.542	46.59
830.719	62.98
830.896	5.63
831.073	7.68
831.25	110.08
831.427	-4.61
831.604	9.73
831.782	-45.57
831.959	48.64
832.136	-53.76
832.313	-25.09
832.49	-64
832.667	-8.7
832.844	-57.86
833.021	34.3
833.198	58.88
833.374	15.87
833.551	87.55
833.728	-43.52
833.905	36.35
834.082	-127.49
834.259	62.98
834.436	73.21
834.612	-96.77
834.789	103.93
834.966	-45.57
835.143	-10.75
835.319	-8.7
835.496	32.26
835.673	1.54
835.85	-6.66
836.026	73.21
836.203	50.69
836.38	-20.99
836.556	-33.28
836.733	-72.19
836.909	114.17
837.086	-29.18
837.262	-145.92
837.439	-82.43
837.616	24.06
837.792	-23.04
837.968	-23.04
838.145	-137.73
838.321	-20.99
838.498	71.17
838.674	-41.47
838.851	-2.56
839.027	-25.09
839.203	17.92
839.38	5.63
839.556	-33.28
839.732	120.32
839.909	-27.14
840.085	44.54
840.261	-31.23
840.437	-14.85
840.614	-45.57
840.79	108.03
840.966	38.4
841.142	-12.8
841.318	-76.29
841.494	-14.85
841.671	85.5
841.847	-102.91
842.023	-84.48
842.199	-4.61
842.375	101.89
842.551	-131.58
842.727	-66.05
842.903	91.65
843.079	-51.71
843.255	7.68
843.431	-66.05
843.607	71.17
843.783	-137.73
843.959	24.06
844.134	-33.28
844.31	112.13
844.486	-96.77
844.662	-66.05
844.838	-33.28
845.013	34.3
845.189	67.07
845.365	7.68
845.541	17.92
845.716	40.45
845.892	65.02
846.068	-51.71
846.244	-66.05
846.419	93.69
846.595	-57.86
846.77	-64
846.946	79.36
847.122	-78.33
847.297	-135.68
847.473	148.99
847.648	-127.49
847.824	77.31
847.999	-147.97
848.175	-16.9
848.35	40.45
848.526	99.84
848.701	140.8
848.876	65.02
849.052	36.35
849.227	-25.09
849.403	15.87
849.578	-35.33
849.753	44.54
849.929	22.02
850.104	-123.39
850.279	28.16
850.454	-2.56
850.63	54.78
850.805	19.97
850.98	-57.86
851.155	-33.28
851.33	32.26
851.505	-100.86
851.681	140.8
851.856	17.92
852.031	7.68
852.206	71.17
852.381	-139.77
852.556	13.82
852.731	-6.66
852.906	24.06
853.081	146.94
853.256	134.65
853.431	-64
853.606	-68.09
853.781	-78.33
853.956	-152.06
854.131	17.92
854.305	-80.38
854.48	-29.18
854.655	-66.05
854.83	-84.48
855.005	-41.47
855.18	13.82
855.354	-29.18
855.529	-74.24
855.704	30.21
855.879	32.26
856.053	-45.57
856.228	-0.51
856.403	-70.14
856.577	-2.56
856.752	-147.97
856.926	1.54
857.101	7.68
857.276	-100.86
857.45	-2.56
857.625	73.21
857.799	-6.66
857.974	13.82
858.148	-113.15
858.323	-8.7
858.497	5.63
858.672	-37.38
858.846	-88.57
859.02	50.69
859.195	-84.48
859.369	-25.09
859.543	62.98
859.718	26.11
859.892	15.87
860.066	-16.9
860.241	-72.19
860.415	-92.67
860.589	-51.71
860.763	-23.04
860.938	-51.71
861.112	19.97
861.286	-25.09
861.46	-31.23
861.634	-45.57
861.808	81.41
861.982	-90.62
862.157	-78.33
862.331	1.54
862.505	-61.95
862.679	-8.7
862.853	-92.67
863.027	-29.18
863.201	177.66
863.375	-64
863.549	73.21
863.722	81.41
863.896	42.5
864.07	-27.14
864.244	-14.85
864.418	30.21
864.592	9.73
864.766	-133.63
864.939	-4.61
865.113	-37.38
865.287	126.46
865.461	-55.81
865.634	30.21
865.808	-23.04
865.982	-59.9
866.156	-64
866.329	-59.9
866.503	-47.62
866.676	40.45
866.85	34.3
867.024	-78.33
867.197	30.21
867.371	50.69
867.544	-20.99
867.718	-84.48
867.891	136.7
868.065	-102.91
868.238	-0.51
868.412	151.04
868.585	-39.42
868.759	-61.95
868.932	9.73
869.105	-35.33
869.279	38.4
869.452	-16.9
869.625	17.92
869.799	56.83
869.972	-16.9
870.145	-68.09
870.319	73.21
870.492	-31.23
870.665	-70.14
870.838	-49.66
871.011	-164.35
871.185	-37.38
871.358	-37.38
871.531	58.88
871.704	34.3
871.877	1.54
872.05	-57.86
872.223	-113.15
872.396	19.97
872.569	52.74
872.742	-92.67
872.915	30.21
873.088	-139.77
873.261	-0.51
873.434	-18.94
873.607	69.12
873.78	99.84
873.953	-90.62
874.126	50.69
874.299	83.45
874.471	-49.66
874.644	-68.09
874.817	40.45
874.99	93.69
875.163	58.88
875.335	-20.99
875.508	1.54
875.681	48.64
875.853	19.97
876.026	62.98
876.199	71.17
876.371	7.68
876.544	-10.75
876.717	-45.57
876.889	-23.04
877.062	-49.66
877.234	-84.48
877.407	36.35
877.579	15.87
877.752	-27.14
877.924	3.58
878.097	36.35
878.269	15.87
878.442	-10.75
878.614	97.79
878.786	-10.75
878.959	13.82
879.131	-68.09
879.303	-113.15
879.476	-61.95
879.648	15.87
879.82	1.54
879.993	-43.52
880.165	-49.66
880.337	-43.52
880.509	13.82
880.681	-64
880.854	-70.14
881.026	69.12
881.198	183.81
881.37	7.68
881.542	-45.57
881.714	3.58
881.886	-6.66
882.058	67.07
882.23	-66.05
882.402	-6.66
882.574	26.11
882.746	114.17
882.918	60.93
883.09	48.64
883.262	-74.24
883.434	40.45
883.606	-154.11
883.778	-41.47
883.95	110.08
884.122	-70.14
884.293	56.83
884.465	-8.7
884.637	91.65
884.809	-66.05
884.98	38.4
885.152	71.17
885.324	30.21
885.496	-53.76
885.667	-20.99
885.839	11.78
886.011	91.65
886.182	1.54
886.354	87.55
886.525	-0.51
886.697	17.92
886.869	22.02
887.04	-12.8
887.212	85.5
887.383	50.69
887.555	30.21
887.726	-47.62
887.897	-45.57
888.069	34.3
888.24	65.02
888.412	3.58
888.583	22.02
888.754	-16.9
888.926	-111.1
889.097	-147.97
889.268	-76.29
889.44	-6.66
889.611	-115.2
889.782	-18.94
889.953	-16.9
890.125	140.8
890.296	-109.05
890.467	3.58
890.638	-102.91
890.809	-68.09
890.98	-16.9
891.151	-55.81
891.323	77.31
891.494	-66.05
891.665	-25.09
891.836	-53.76
892.007	17.92
892.178	11.78
892.349	-20.99
892.52	-23.04
892.691	36.35
892.862	-86.53
893.032	-68.09
893.203	-16.9
893.374	13.82
893.545	58.88
893.716	11.78
893.887	65.02
894.057	-37.38
894.228	7.68
894.399	-39.42
894.57	101.89
894.74	32.26
894.911	-23.04
895.082	-90.62
895.253	-45.57
895.423	-12.8
895.594	81.41
895.764	-35.33
895.935	-100.86
896.106	81.41
896.276	-80.38
896.447	-31.23
896.617	-78.33
896.788	-12.8
896.958	-0.51
897.129	38.4
897.299	-94.72
897.47	83.45
897.64	69.12
897.81	-12.8
897.981	-10.75
898.151	-80.38
898.322	3.58
898.492	44.54
898.662	-84.48
898.832	-23.04
899.003	-39.42
899.173	77.31
899.343	-98.81
899.513	-176.64
