Data from USB4F104151__54__10-43-33-176.txt Node

Date: Wed Feb 26 10:43:33 EST 2025
User: louis
Spectrometer: USB4F10415
Trigger mode: 4
Integration Time (sec): 1.000000E-1
Scans to average: 1
Electric dark correction enabled: true
Nonlinearity correction enabled: false
Boxcar width: 0
XAxis mode: Wavelengths
Number of Pixels in Spectrum: 3648
>>>>>Begin Spectral Data<<<<<
178.204	-455.33
178.424	-455.33
178.644	-455.33
178.864	-443.04
179.084	-463.52
179.304	42.32
179.524	-64.17
179.744	1.37
179.964	-17.07
180.184	-8.87
180.404	50.52
180.624	105.81
180.844	-8.87
181.064	-105.13
181.283	5.46
181.503	-29.35
181.723	27.99
181.943	-84.65
182.163	165.2
182.383	-27.31
182.602	-0.68
182.822	167.25
183.042	52.56
183.262	9.56
183.482	27.99
183.701	-23.21
183.921	13.65
184.141	-92.84
184.361	89.43
184.58	64.85
184.8	52.56
185.02	-92.84
185.239	122.2
185.459	46.42
185.679	34.13
185.898	-72.36
186.118	52.56
186.338	15.7
186.557	159.06
186.777	-17.07
186.997	-53.93
187.216	73.04
187.436	126.29
187.655	42.32
187.875	23.89
188.095	19.8
188.314	195.92
188.534	118.1
188.753	-105.13
188.973	154.96
189.192	183.63
189.412	-4.78
189.631	52.56
189.851	103.76
190.07	62.8
190.29	-51.88
190.509	-72.36
190.729	-29.35
190.948	87.38
191.168	202.07
191.387	60.76
191.607	15.7
191.826	99.67
192.045	-31.4
192.265	-0.68
192.484	109.91
192.704	109.91
192.923	-82.6
193.142	163.15
193.362	36.18
193.581	71
193.8	83.28
194.02	105.81
194.239	48.47
194.458	68.95
194.678	25.94
194.897	7.51
195.116	77.14
195.335	5.46
195.555	27.99
195.774	-4.78
195.993	120.15
196.212	79.19
196.432	-2.73
196.651	-80.55
196.87	68.95
197.089	202.07
197.308	81.24
197.528	9.56
197.747	-68.27
197.966	71
198.185	97.62
198.404	-107.18
198.623	159.06
198.842	130.39
199.062	97.62
199.281	136.53
199.5	87.38
199.719	27.99
199.938	75.09
200.157	95.57
200.376	93.52
200.595	81.24
200.814	19.8
201.033	5.46
201.252	232.79
201.471	1.37
201.69	60.76
201.909	48.47
202.128	73.04
202.347	103.76
202.566	54.61
202.785	-43.69
203.004	3.41
203.223	191.83
203.442	30.04
203.661	-84.65
203.879	-39.59
204.098	144.72
204.317	-49.83
204.536	13.65
204.755	77.14
204.974	64.85
205.193	-0.68
205.411	56.66
205.63	62.8
205.849	66.9
206.068	3.41
206.287	-60.07
206.505	75.09
206.724	-53.93
206.943	-90.79
207.162	-43.69
207.381	120.15
207.599	27.99
207.818	23.89
208.037	-15.02
208.255	58.71
208.474	25.94
208.693	58.71
208.911	48.47
209.13	85.33
209.349	64.85
209.567	99.67
209.786	-10.92
210.005	95.57
210.223	27.99
210.442	-107.18
210.661	-37.55
210.879	66.9
211.098	23.89
211.316	91.48
211.535	19.8
211.753	87.38
211.972	60.76
212.191	-58.03
212.409	-33.45
212.628	138.58
212.846	-33.45
213.065	27.99
213.283	75.09
213.502	77.14
213.72	48.47
213.938	68.95
214.157	13.65
214.375	68.95
214.594	54.61
214.812	32.08
215.031	23.89
215.249	-62.12
215.467	-19.11
215.686	-25.26
215.904	103.76
216.122	27.99
216.341	169.3
216.559	40.28
216.778	46.42
216.996	111.96
217.214	-37.55
217.432	46.42
217.651	-43.69
217.869	64.85
218.087	17.75
218.306	-23.21
218.524	68.95
218.742	1.37
218.96	83.28
219.179	40.28
219.397	-0.68
219.615	259.41
219.833	71
220.051	-25.26
220.27	79.19
220.488	134.48
220.706	15.7
220.924	-39.59
221.142	7.51
221.36	79.19
221.578	48.47
221.796	23.89
222.015	30.04
222.233	58.71
222.451	142.68
222.669	-23.21
222.887	58.71
223.105	-78.51
223.323	-72.36
223.541	-60.07
223.759	54.61
223.977	-2.73
224.195	140.63
224.413	50.52
224.631	7.51
224.849	93.52
225.067	208.21
225.285	-41.64
225.503	-35.5
225.721	-109.22
225.939	-25.26
226.157	60.76
226.375	165.2
226.592	-23.21
226.81	-2.73
227.028	25.94
227.246	116.05
227.464	68.95
227.682	150.87
227.9	54.61
228.117	36.18
228.335	23.89
228.553	134.48
228.771	71
228.989	-82.6
229.206	97.62
229.424	3.41
229.642	-6.83
229.86	-45.74
230.077	150.87
230.295	52.56
230.513	118.1
230.731	1.37
230.948	146.77
231.166	93.52
231.384	-66.22
231.601	-55.98
231.819	97.62
232.037	-25.26
232.254	-2.73
232.472	77.14
232.689	46.42
232.907	114
233.125	44.37
233.342	-55.98
233.56	-10.92
233.777	-10.92
233.995	54.61
234.213	146.77
234.43	34.13
234.648	25.94
234.865	3.41
235.083	48.47
235.3	-6.83
235.518	-45.74
235.735	120.15
235.953	89.43
236.17	-8.87
236.388	-2.73
236.605	-15.02
236.822	91.48
237.04	163.15
237.257	109.91
237.475	-47.79
237.692	-37.55
237.909	-10.92
238.127	-23.21
238.344	64.85
238.562	64.85
238.779	-10.92
238.996	17.75
239.214	7.51
239.431	48.47
239.648	11.61
239.865	19.8
240.083	103.76
240.3	27.99
240.517	46.42
240.735	36.18
240.952	105.81
241.169	91.48
241.386	58.71
241.603	25.94
241.821	-47.79
242.038	42.32
242.255	109.91
242.472	-82.6
242.689	154.96
242.907	56.66
243.124	85.33
243.341	50.52
243.558	40.28
243.775	-62.12
243.992	-41.64
244.209	99.67
244.426	111.96
244.643	79.19
244.86	93.52
245.078	91.48
245.295	32.08
245.512	-27.31
245.729	-51.88
245.946	11.61
246.163	1.37
246.38	77.14
246.597	124.24
246.814	13.65
247.031	-2.73
247.248	66.9
247.464	85.33
247.681	-12.97
247.898	17.75
248.115	60.76
248.332	25.94
248.549	116.05
248.766	134.48
248.983	116.05
249.2	105.81
249.417	95.57
249.633	36.18
249.85	42.32
250.067	42.32
250.284	36.18
250.501	77.14
250.717	107.86
250.934	-47.79
251.151	-55.98
251.368	-8.87
251.585	34.13
251.801	-15.02
252.018	-8.87
252.235	38.23
252.451	7.51
252.668	-6.83
252.885	40.28
253.102	15.7
253.318	19.8
253.535	-17.07
253.752	15.7
253.968	50.52
254.185	-141.99
254.401	30.04
254.618	64.85
254.835	-78.51
255.051	75.09
255.268	136.53
255.484	52.56
255.701	9.56
255.917	111.96
256.134	-25.26
256.351	-23.21
256.567	-19.11
256.784	11.61
257	-35.5
257.217	75.09
257.433	105.81
257.65	99.67
257.866	148.82
258.082	-152.23
258.299	-41.64
258.515	34.13
258.732	13.65
258.948	-19.11
259.165	-4.78
259.381	-21.16
259.597	58.71
259.814	30.04
260.03	-8.87
260.246	19.8
260.463	73.04
260.679	116.05
260.895	44.37
261.112	75.09
261.328	25.94
261.544	5.46
261.761	171.35
261.977	93.52
262.193	-125.61
262.409	11.61
262.626	60.76
262.842	11.61
263.058	56.66
263.274	107.86
263.49	19.8
263.707	136.53
263.923	99.67
264.139	-60.07
264.355	50.52
264.571	62.8
264.787	48.47
265.004	107.86
265.22	52.56
265.436	-37.55
265.652	-105.13
265.868	36.18
266.084	-66.22
266.3	-19.11
266.516	-58.03
266.732	42.32
266.948	79.19
267.164	17.75
267.38	179.54
267.596	52.56
267.812	175.44
268.028	91.48
268.244	-19.11
268.46	83.28
268.676	-35.5
268.892	48.47
269.108	27.99
269.324	-105.13
269.54	-49.83
269.756	40.28
269.972	-31.4
270.188	7.51
270.403	-131.75
270.619	19.8
270.835	81.24
271.051	-12.97
271.267	44.37
271.483	-70.31
271.698	81.24
271.914	79.19
272.13	-10.92
272.346	5.46
272.562	-58.03
272.777	71
272.993	-12.97
273.209	-27.31
273.425	118.1
273.64	-82.6
273.856	56.66
274.072	21.85
274.287	-55.98
274.503	101.72
274.719	99.67
274.934	-6.83
275.15	-41.64
275.366	5.46
275.581	-12.97
275.797	-17.07
276.012	7.51
276.228	-23.21
276.444	54.61
276.659	177.49
276.875	-53.93
277.09	75.09
277.306	60.76
277.521	34.13
277.737	-12.97
277.952	109.91
278.168	3.41
278.383	134.48
278.599	36.18
278.814	85.33
279.03	-4.78
279.245	167.25
279.461	42.32
279.676	64.85
279.892	-86.7
280.107	-70.31
280.322	-25.26
280.538	62.8
280.753	-29.35
280.969	11.61
281.184	-31.4
281.399	187.73
281.615	134.48
281.83	114
282.045	-29.35
282.26	30.04
282.476	73.04
282.691	40.28
282.906	13.65
283.122	91.48
283.337	-27.31
283.552	50.52
283.767	-72.36
283.983	50.52
284.198	-8.87
284.413	17.75
284.628	-39.59
284.843	-17.07
285.058	107.86
285.274	89.43
285.489	-80.55
285.704	114
285.919	9.56
286.134	-12.97
286.349	5.46
286.564	68.95
286.779	83.28
286.995	48.47
287.21	-144.04
287.425	85.33
287.64	3.41
287.855	50.52
288.07	-35.5
288.285	148.82
288.5	75.09
288.715	58.71
288.93	32.08
289.145	-39.59
289.36	128.34
289.575	-15.02
289.79	146.77
290.004	60.76
290.219	128.34
290.434	-10.92
290.649	-8.87
290.864	-2.73
291.079	-29.35
291.294	21.85
291.509	30.04
291.724	5.46
291.938	62.8
292.153	64.85
292.368	-15.02
292.583	44.37
292.798	58.71
293.012	95.57
293.227	83.28
293.442	5.46
293.657	118.1
293.871	243.03
294.086	85.33
294.301	181.59
294.516	101.72
294.73	-12.97
294.945	-109.22
295.16	136.53
295.374	66.9
295.589	144.72
295.804	-37.55
296.018	64.85
296.233	71
296.447	81.24
296.662	-49.83
296.877	40.28
297.091	60.76
297.306	42.32
297.52	5.46
297.735	19.8
297.949	71
298.164	105.81
298.378	25.94
298.593	-53.93
298.807	64.85
299.022	-6.83
299.236	193.87
299.451	-8.87
299.665	25.94
299.88	40.28
300.094	23.89
300.309	34.13
300.523	95.57
300.737	21.85
300.952	107.86
301.166	27.99
301.381	-37.55
301.595	-21.16
301.809	11.61
302.024	-39.59
302.238	3.41
302.452	101.72
302.667	19.8
302.881	60.76
303.095	103.76
303.309	95.57
303.524	-23.21
303.738	68.95
303.952	15.7
304.166	83.28
304.381	-60.07
304.595	105.81
304.809	-2.73
305.023	-6.83
305.237	-68.27
305.452	-45.74
305.666	44.37
305.88	-4.78
306.094	140.63
306.308	32.08
306.522	126.29
306.736	3.41
306.95	58.71
307.164	-39.59
307.379	-0.68
307.593	191.83
307.807	191.83
308.021	173.39
308.235	27.99
308.449	-129.7
308.663	40.28
308.877	189.78
309.091	87.38
309.305	40.28
309.519	-96.94
309.733	103.76
309.947	-117.42
310.161	11.61
310.374	120.15
310.588	97.62
310.802	48.47
311.016	-35.5
311.23	132.44
311.444	7.51
311.658	64.85
311.872	91.48
312.085	91.48
312.299	163.15
312.513	120.15
312.727	50.52
312.941	-0.68
313.154	101.72
313.368	-10.92
313.582	46.42
313.796	71
314.009	-27.31
314.223	138.58
314.437	17.75
314.651	30.04
314.864	-12.97
315.078	-10.92
315.292	-39.59
315.505	1.37
315.719	11.61
315.933	68.95
316.146	19.8
316.36	-133.8
316.573	150.87
316.787	40.28
317.001	-23.21
317.214	-8.87
317.428	21.85
317.641	23.89
317.855	-6.83
318.068	-21.16
318.282	-19.11
318.495	95.57
318.709	9.56
318.922	-6.83
319.136	103.76
319.349	103.76
319.563	46.42
319.776	79.19
319.99	-92.84
320.203	83.28
320.417	-41.64
320.63	21.85
320.843	206.16
321.057	-6.83
321.27	21.85
321.483	-2.73
321.697	185.68
321.91	58.71
322.124	109.91
322.337	9.56
322.55	17.75
322.763	-8.87
322.977	-23.21
323.19	-33.45
323.403	9.56
323.617	54.61
323.83	152.92
324.043	17.75
324.256	36.18
324.469	-86.7
324.683	1.37
324.896	32.08
325.109	-49.83
325.322	-55.98
325.535	103.76
325.748	32.08
325.962	38.23
326.175	77.14
326.388	87.38
326.601	130.39
326.814	1.37
327.027	52.56
327.24	64.85
327.453	-113.32
327.666	42.32
327.879	148.82
328.092	71
328.305	42.32
328.518	5.46
328.731	-55.98
328.944	-15.02
329.157	146.77
329.37	34.13
329.583	136.53
329.796	118.1
330.009	-119.46
330.222	62.8
330.435	122.2
330.648	32.08
330.861	3.41
331.073	11.61
331.286	64.85
331.499	21.85
331.712	-139.94
331.925	46.42
332.138	-17.07
332.35	103.76
332.563	-12.97
332.776	42.32
332.989	23.89
333.202	21.85
333.414	101.72
333.627	48.47
333.84	-4.78
334.053	3.41
334.265	-33.45
334.478	42.32
334.691	-33.45
334.903	-33.45
335.116	-39.59
335.329	-47.79
335.541	50.52
335.754	146.77
335.966	27.99
336.179	101.72
336.392	44.37
336.604	15.7
336.817	52.56
337.029	150.87
337.242	-10.92
337.454	208.21
337.667	38.23
337.88	75.09
338.092	54.61
338.305	40.28
338.517	-27.31
338.729	103.76
338.942	173.39
339.154	-66.22
339.367	-43.69
339.579	50.52
339.792	-37.55
340.004	9.56
340.217	13.65
340.429	36.18
340.641	-33.45
340.854	-25.26
341.066	13.65
341.278	62.8
341.491	161.11
341.703	109.91
341.915	38.23
342.128	30.04
342.34	64.85
342.552	-55.98
342.764	34.13
342.977	1.37
343.189	46.42
343.401	54.61
343.613	-10.92
343.826	99.67
344.038	-74.41
344.25	66.9
344.462	30.04
344.674	75.09
344.886	-33.45
345.099	42.32
345.311	103.76
345.523	-29.35
345.735	13.65
345.947	13.65
346.159	-21.16
346.371	-17.07
346.583	7.51
346.795	152.92
347.007	-12.97
347.219	64.85
347.431	19.8
347.643	163.15
347.855	9.56
348.067	206.16
348.279	-55.98
348.491	15.7
348.703	105.81
348.915	38.23
349.127	1.37
349.339	34.13
349.551	-25.26
349.763	114
349.975	50.52
350.187	64.85
350.399	118.1
350.61	136.53
350.822	-31.4
351.034	19.8
351.246	62.8
351.458	25.94
351.669	130.39
351.881	71
352.093	124.24
352.305	116.05
352.517	1.37
352.728	126.29
352.94	60.76
353.152	103.76
353.363	42.32
353.575	81.24
353.787	157.01
353.999	105.81
354.21	150.87
354.422	-94.89
354.633	-2.73
354.845	19.8
355.057	11.61
355.268	-15.02
355.48	165.2
355.692	-47.79
355.903	38.23
356.115	7.51
356.326	-88.75
356.538	220.5
356.749	54.61
356.961	142.68
357.172	75.09
357.384	-70.31
357.595	171.35
357.807	-55.98
358.018	15.7
358.23	38.23
358.441	216.4
358.653	79.19
358.864	-17.07
359.075	-6.83
359.287	62.8
359.498	136.53
359.709	13.65
359.921	15.7
360.132	25.94
360.344	52.56
360.555	-39.59
360.766	46.42
360.977	23.89
361.189	103.76
361.4	-29.35
361.611	99.67
361.823	197.97
362.034	23.89
362.245	-10.92
362.456	19.8
362.667	75.09
362.879	36.18
363.09	40.28
363.301	109.91
363.512	-29.35
363.723	19.8
363.935	-70.31
364.146	124.24
364.357	58.71
364.568	38.23
364.779	-123.56
364.99	111.96
365.201	-27.31
365.412	111.96
365.623	-133.8
365.834	79.19
366.045	38.23
366.256	99.67
366.467	105.81
366.678	15.7
366.889	111.96
367.1	-8.87
367.311	109.91
367.522	-41.64
367.733	56.66
367.944	107.86
368.155	15.7
368.366	40.28
368.577	87.38
368.788	87.38
368.999	-55.98
369.209	-4.78
369.42	175.44
369.631	240.98
369.842	103.76
370.053	60.76
370.264	140.63
370.474	3.41
370.685	48.47
370.896	25.94
371.107	77.14
371.317	118.1
371.528	-19.11
371.739	81.24
371.95	60.76
372.16	44.37
372.371	-19.11
372.582	-33.45
372.792	97.62
373.003	34.13
373.214	79.19
373.424	52.56
373.635	7.51
373.846	144.72
374.056	15.7
374.267	7.51
374.477	142.68
374.688	-8.87
374.898	144.72
375.109	44.37
375.319	-15.02
375.53	120.15
375.74	11.61
375.951	19.8
376.161	75.09
376.372	101.72
376.582	17.75
376.793	71
377.003	-64.17
377.214	34.13
377.424	87.38
377.635	21.85
377.845	5.46
378.055	79.19
378.266	11.61
378.476	50.52
378.686	109.91
378.897	7.51
379.107	130.39
379.317	34.13
379.528	138.58
379.738	134.48
379.948	-109.22
380.158	107.86
380.369	-49.83
380.579	21.85
380.789	30.04
380.999	130.39
381.21	105.81
381.42	154.96
381.63	-4.78
381.84	46.42
382.05	109.91
382.261	183.63
382.471	91.48
382.681	52.56
382.891	128.34
383.101	58.71
383.311	-35.5
383.521	30.04
383.731	157.01
383.941	99.67
384.151	19.8
384.361	25.94
384.571	25.94
384.781	83.28
384.991	142.68
385.201	132.44
385.411	103.76
385.621	32.08
385.831	116.05
386.041	36.18
386.251	60.76
386.461	173.39
386.671	50.52
386.881	101.72
387.091	-21.16
387.301	124.24
387.511	-0.68
387.72	103.76
387.93	114
388.14	-45.74
388.35	32.08
388.56	73.04
388.769	130.39
388.979	7.51
389.189	-31.4
389.399	40.28
389.609	11.61
389.818	44.37
390.028	79.19
390.238	89.43
390.447	-60.07
390.657	27.99
390.867	54.61
391.076	-47.79
391.286	30.04
391.496	32.08
391.705	75.09
391.915	87.38
392.125	64.85
392.334	54.61
392.544	124.24
392.753	105.81
392.963	-4.78
393.172	73.04
393.382	21.85
393.591	173.39
393.801	107.86
394.01	167.25
394.22	91.48
394.429	5.46
394.639	-10.92
394.848	79.19
395.058	44.37
395.267	30.04
395.477	54.61
395.686	1.37
395.895	134.48
396.105	122.2
396.314	19.8
396.524	15.7
396.733	-49.83
396.942	77.14
397.152	146.77
397.361	89.43
397.57	48.47
397.78	25.94
397.989	93.52
398.198	214.35
398.407	-53.93
398.617	103.76
398.826	120.15
399.035	38.23
399.244	50.52
399.453	62.8
399.663	83.28
399.872	111.96
400.081	-84.65
400.29	109.91
400.499	-0.68
400.708	114
400.917	36.18
401.127	66.9
401.336	52.56
401.545	159.06
401.754	144.72
401.963	48.47
402.172	15.7
402.381	-74.41
402.59	17.75
402.799	32.08
403.008	175.44
403.217	-0.68
403.426	56.66
403.635	-74.41
403.844	-0.68
404.053	-2.73
404.262	52.56
404.471	197.97
404.68	-10.92
404.888	15.7
405.097	36.18
405.306	103.76
405.515	109.91
405.724	81.24
405.933	75.09
406.142	83.28
406.35	161.11
406.559	3.41
406.768	105.81
406.977	159.06
407.185	107.86
407.394	118.1
407.603	9.56
407.812	75.09
408.02	73.04
408.229	46.42
408.438	93.52
408.646	-133.8
408.855	48.47
409.064	73.04
409.272	66.9
409.481	111.96
409.69	-76.46
409.898	44.37
410.107	66.9
410.315	95.57
410.524	-29.35
410.733	19.8
410.941	-0.68
411.15	144.72
411.358	95.57
411.567	150.87
411.775	95.57
411.984	30.04
412.192	89.43
412.401	25.94
412.609	173.39
412.818	136.53
413.026	25.94
413.234	77.14
413.443	73.04
413.651	-29.35
413.86	1.37
414.068	111.96
414.276	130.39
414.485	-6.83
414.693	212.31
414.901	224.59
415.11	79.19
415.318	15.7
415.526	73.04
415.734	128.34
415.943	48.47
416.151	130.39
416.359	52.56
416.567	91.48
416.776	66.9
416.984	85.33
417.192	161.11
417.4	52.56
417.608	7.51
417.817	-23.21
418.025	97.62
418.233	159.06
418.441	-55.98
418.649	13.65
418.857	93.52
419.065	152.92
419.273	109.91
419.481	38.23
419.689	95.57
419.897	3.41
420.105	-25.26
420.313	179.54
420.521	146.77
420.729	222.55
420.937	30.04
421.145	-53.93
421.353	120.15
421.561	181.59
421.769	114
421.977	3.41
422.185	128.34
422.393	40.28
422.601	132.44
422.809	85.33
423.017	40.28
423.224	71
423.432	66.9
423.64	93.52
423.848	66.9
424.056	-25.26
424.263	140.63
424.471	19.8
424.679	140.63
424.887	-15.02
425.094	193.87
425.302	107.86
425.51	21.85
425.718	128.34
425.925	81.24
426.133	30.04
426.341	212.31
426.548	40.28
426.756	-15.02
426.964	75.09
427.171	32.08
427.379	52.56
427.586	50.52
427.794	130.39
428.001	138.58
428.209	34.13
428.417	144.72
428.624	77.14
428.832	107.86
429.039	173.39
429.247	134.48
429.454	243.03
429.662	286.03
429.869	136.53
430.076	157.01
430.284	189.78
430.491	220.5
430.699	146.77
430.906	230.74
431.114	142.68
431.321	150.87
431.528	150.87
431.736	204.11
431.943	171.35
432.15	130.39
432.358	210.26
432.565	310.61
432.772	44.37
432.979	294.22
433.187	177.49
433.394	308.56
433.601	185.68
433.808	269.65
434.016	279.89
434.223	195.92
434.43	173.39
434.637	279.89
434.844	355.66
435.052	200.02
435.259	304.46
435.466	314.7
435.673	400.72
435.88	326.99
436.087	404.82
436.294	458.06
436.501	363.86
436.708	308.56
436.915	261.46
437.122	417.1
437.329	298.32
437.537	445.77
437.743	402.77
437.95	499.02
438.157	449.87
438.364	447.82
438.571	398.67
438.778	515.41
438.985	531.79
439.192	486.73
439.399	482.64
439.606	482.64
439.813	582.99
440.02	732.49
440.227	798.03
440.433	531.79
440.64	742.73
440.847	552.27
441.054	714.06
441.261	875.85
441.467	681.29
441.674	699.72
441.881	830.79
442.088	736.59
442.294	888.14
442.501	902.47
442.708	933.19
442.914	963.91
443.121	947.53
443.328	1068.36
443.534	1181
443.741	1131.84
443.948	992.58
444.154	1193.28
444.361	1498.43
444.568	1178.95
444.774	1203.52
444.981	1244.48
445.187	1510.72
445.394	1295.68
445.6	1396.03
445.807	1551.68
446.013	1623.36
446.22	1531.2
446.426	1713.47
446.633	1750.33
446.839	1996.09
447.046	1711.42
447.252	1948.98
447.459	1932.6
447.665	2057.53
447.871	2184.5
448.078	2338.1
448.284	2260.27
448.491	2551.09
448.697	2487.6
448.903	2620.72
449.11	2620.72
449.316	2706.73
449.522	2850.09
449.728	2856.23
449.935	3052.84
450.141	2944.3
450.347	3362.08
450.553	3278.12
450.76	3345.7
450.966	3685.66
451.172	3597.6
451.378	3912.99
451.584	3886.36
451.791	4244.76
451.997	4422.93
452.203	4414.74
452.409	4656.4
452.615	4842.76
452.821	4668.69
453.027	4578.58
453.233	5494.02
453.44	5272.84
453.646	5491.97
453.852	5592.32
454.058	5924.09
454.264	5885.18
454.47	6530.29
454.676	6474.99
454.882	7191.78
455.088	6724.85
455.294	7232.74
455.5	7707.87
455.705	8115.42
455.911	7884
456.117	8471.76
456.323	8617.17
456.529	8580.31
456.735	9344.2
456.941	9641.15
457.147	10147
457.352	10149.05
457.558	10695.86
457.764	11244.71
457.97	11261.1
458.176	12145.82
458.381	12739.73
458.587	12635.28
458.793	13350.03
458.999	13540.49
459.204	15055.98
459.41	15438.95
459.616	15201.39
459.821	16217.18
460.027	16944.21
460.233	17736.77
460.438	17531.98
460.644	18986.04
460.85	18830.39
461.055	19801.13
461.261	20782.1
461.466	20288.54
461.672	20683.8
461.878	23124.98
462.083	22838.26
462.289	23395.31
462.494	24255.46
462.7	24497.12
462.905	24742.88
463.111	26676.16
463.316	28316.58
463.522	28771.23
463.727	29258.65
463.932	30692.22
464.138	32136.04
464.343	32813.92
464.549	33096.54
464.754	35476.28
464.959	36440.87
465.165	37274.4
465.37	36674.34
465.575	36715.3
465.781	39207.68
465.986	40411.88
466.191	39805.69
466.397	40047.35
466.602	39224.06
466.807	41499.36
467.012	42117.84
467.218	43053.76
467.423	42873.54
467.628	44573.36
467.833	46523.02
468.038	45011.62
468.244	44831.4
468.449	46869.13
468.654	46013.08
468.859	45709.98
469.064	46088.85
469.269	45302.43
469.474	45501.09
469.679	46541.46
469.885	45322.91
470.09	45939.35
470.295	45910.68
470.5	45271.71
470.705	45423.26
470.91	44090.04
471.115	44145.33
471.32	44765.87
471.525	44272.31
471.73	43168.45
471.935	42922.69
472.139	40899.3
472.344	41347.81
472.549	40686.31
472.754	39860.98
472.959	39203.58
473.164	37847.83
473.369	37100.32
473.574	38341.39
473.778	37688.09
473.983	36834.08
474.188	36543.27
474.393	34827.07
474.598	34739.01
474.802	33968.97
475.007	33293.15
475.212	33153.88
475.417	31947.63
475.621	31294.33
475.826	31200.12
476.031	30403.46
476.235	29787.02
476.44	30253.96
476.645	29143.96
476.849	28922.78
477.054	28492.71
477.259	27315.12
477.463	27909.04
477.668	26932.15
477.872	26747.84
478.077	26295.24
478.282	25353.17
478.486	25408.47
478.691	24884.19
478.895	24933.34
479.1	24591.33
479.304	24624.09
479.509	23653.36
479.713	23852.01
479.918	23653.36
480.122	22768.63
480.326	23088.12
480.531	22821.88
480.735	22590.46
480.94	22420.48
481.144	22926.33
481.348	21988.36
481.553	21668.87
481.757	21146.64
481.961	21863.43
482.166	22023.17
482.37	21470.22
482.574	20739.1
482.778	20927.51
482.983	21253.14
483.187	20534.3
483.391	20700.19
483.595	20427.81
483.8	19815.46
484.004	20022.31
484.208	19846.18
484.412	19686.44
484.616	19436.59
484.821	19305.52
485.025	18836.53
485.229	19373.1
485.433	18431.04
485.637	18527.29
485.841	18232.38
486.045	17818.69
486.249	17689.67
486.453	17108.05
486.657	17386.57
486.861	16854.1
487.065	16172.13
487.269	16424.03
487.473	15881.31
487.677	16086.11
487.881	16094.3
488.085	15387.75
488.289	15213.68
488.493	14662.77
488.697	14724.21
488.901	14380.15
489.105	13919.36
489.309	13999.23
489.512	13804.67
489.716	13556.87
489.92	13327.5
490.124	12709.01
490.328	12878.99
490.531	12645.52
490.735	12422.3
490.939	12086.43
491.143	11707.55
491.346	11627.68
491.55	11357.35
491.754	11367.59
491.958	11371.69
492.161	10976.43
492.365	10716.34
492.569	10489.01
492.772	10441.91
492.976	10220.73
493.18	10290.36
493.383	10134.71
493.587	9776.32
493.79	10136.76
493.994	9630.91
494.197	9387.21
494.401	9575.62
494.605	9460.93
494.808	9295.05
495.012	9401.54
495.215	9358.53
495.419	9186.51
495.622	8801.49
495.825	8936.65
496.029	8862.93
496.232	8996.04
496.436	8629.46
496.639	8955.08
496.843	8725.71
497.046	8672.47
497.249	8856.78
497.453	8750.29
497.656	8787.15
497.859	8656.08
498.063	8817.87
498.266	8897.74
498.469	8623.31
498.673	8879.31
498.876	8676.56
499.079	8955.08
499.282	8756.43
499.485	9290.95
499.689	9055.44
499.892	9395.4
500.095	9065.67
500.298	9225.42
500.501	8959.18
500.705	9329.86
500.908	9444.55
501.111	9493.7
501.314	9649.35
501.517	9589.95
501.72	9692.35
501.923	9579.72
502.126	9712.83
502.329	10095.8
502.532	10030.27
502.735	10144.95
502.938	10212.54
503.141	10464.44
503.344	10388.66
503.547	10718.39
503.75	10648.75
503.953	10837.17
504.156	10921.13
504.359	11162.79
504.562	11285.67
504.765	11369.64
504.968	11697.31
505.17	11842.72
505.373	11924.64
505.576	12154.01
505.779	12362.9
505.982	12410.01
506.185	12874.9
506.387	12999.82
506.59	13309.07
506.793	13526.15
506.996	13601.93
507.198	13892.74
507.401	14218.36
507.604	14167.17
507.807	14677.11
508.009	14892.15
508.212	14881.91
508.415	15527.02
508.617	15705.19
508.82	16491.61
509.022	16039.01
509.225	16825.43
509.428	17200.21
509.63	17558.6
509.833	17450.06
510.035	18449.47
510.238	18588.73
510.44	18699.32
510.643	19524.65
510.845	19524.65
511.048	19858.47
511.25	20528.16
511.453	20722.71
511.655	21632.01
511.858	21902.34
512.06	22729.72
512.262	22627.32
512.465	23219.19
512.667	23784.43
512.87	24435.68
513.072	24720.35
513.274	25420.75
513.477	26106.82
513.679	26557.38
513.881	27026.36
514.084	27876.27
514.286	28042.15
514.488	28648.35
514.69	29963.15
514.893	30385.03
515.095	30524.29
515.297	31595.38
515.499	32416.61
515.701	33190.75
515.904	33280.86
516.106	34247.5
516.308	34573.13
516.51	35392.31
516.712	35896.11
516.914	36440.87
517.116	37851.92
517.318	38083.34
517.52	38742.79
517.722	39414.52
517.925	40278.77
518.127	40973.03
518.329	42144.47
518.531	41616.09
518.733	42961.61
518.935	43590.33
519.136	43909.82
519.338	44671.66
519.54	45443.74
519.742	46459.54
519.944	46901.9
520.146	47755.9
520.348	48161.4
520.55	49033.83
520.752	49255.01
520.954	50489.94
521.155	50258.52
521.357	50838.09
521.559	51788.35
521.761	52453.94
521.963	52711.99
522.164	52781.62
522.366	53309.99
522.568	53772.83
522.77	54110.75
522.971	55345.67
523.173	54727.19
523.375	55497.22
523.576	55769.6
523.778	55486.98
523.98	56218.11
524.181	56513.01
524.383	56574.45
524.584	57221.61
524.786	57117.17
524.988	56627.7
525.189	57278.96
525.391	57254.38
525.592	57065.97
525.794	57586.15
525.995	57051.63
526.197	56979.95
526.398	57158.13
526.6	57377.26
526.801	57172.46
527.003	57010.67
527.204	56740.34
527.406	56779.25
527.607	55931.39
527.808	56496.63
528.01	55079.44
528.211	55390.73
528.412	55763.46
528.614	55489.03
528.815	55054.86
529.016	54821.39
529.218	53420.58
529.419	53985.82
529.62	53004.84
529.822	52843.06
530.023	52433.46
530.224	51472.96
530.425	51286.6
530.626	50506.32
530.828	49889.88
531.029	50475.6
531.23	49089.13
531.431	48472.69
531.632	48351.86
531.833	47760
532.035	47424.13
532.236	46770.83
532.437	46467.73
532.638	45181.6
532.839	45238.95
533.04	44655.28
533.241	43819.7
533.442	44305.07
533.643	42963.65
533.844	42351.31
534.045	42113.75
534.246	41104.1
534.447	41034.47
534.648	40243.95
534.849	39625.46
535.05	38824.71
535.251	38826.76
535.451	38026
535.652	37833.49
535.853	37497.63
536.054	36547.37
536.255	36328.24
536.456	35171.13
536.657	35732.28
536.857	34409.29
537.058	34173.77
537.259	34231.11
537.46	33366.87
537.66	32947.04
537.861	32641.89
538.062	32281.45
538.263	31947.63
538.463	31466.36
538.664	31015.8
538.865	30862.21
539.065	30360.45
539.266	29432.72
539.466	29500.31
539.667	28873.63
539.868	29162.39
540.068	28363.68
540.269	28189.61
540.469	27945.9
540.67	27358.13
540.87	26981.31
541.071	26876.86
541.271	26170.31
541.472	26043.34
541.672	25945.03
541.873	25635.79
542.073	24808.41
542.274	25359.31
542.474	24376.29
542.675	24400.86
542.875	24267.75
543.075	24185.83
543.276	23491.57
543.476	23561.2
543.676	23163.89
543.877	22983.67
544.077	22649.85
544.277	22348.8
544.478	21947.4
544.678	21775.37
544.878	21773.32
545.078	21425.17
545.279	21058.58
545.479	20743.19
545.679	20632.6
545.879	20395.04
546.079	20093.99
546.28	19651.63
546.48	19690.54
546.68	19631.15
546.88	19235.89
547.08	19145.78
547.28	18650.17
547.48	18455.61
547.68	18474.04
547.88	17996.87
548.081	18031.68
548.281	17544.27
548.481	17439.82
548.681	17531.98
548.881	16673.88
549.081	16634.97
549.28	16428.12
549.48	16387.16
549.68	16276.57
549.88	16309.34
550.08	15400.04
550.28	15578.22
550.48	15578.22
550.68	15168.62
550.88	14945.39
551.08	14568.57
551.279	14685.3
551.479	13952.13
551.679	14087.29
551.879	13943.94
552.079	13755.52
552.278	13450.38
552.478	13384.84
552.678	13053.07
552.878	12991.63
553.077	12815.51
553.277	12199.07
553.477	12393.62
553.676	12024.99
553.876	11898.02
554.076	11799.71
554.275	11400.36
554.475	11134.12
554.674	11195.56
554.874	10804.4
555.074	10824.88
555.273	10652.85
555.473	10374.33
555.672	10286.26
555.872	10271.93
556.071	10067.13
556.271	10038.46
556.47	9579.72
556.67	9538.76
556.869	9479.36
557.068	9198.79
557.268	8932.56
557.467	8838.35
557.667	8877.26
557.866	8549.59
558.065	8494.29
558.265	8371.41
558.464	7998.68
558.663	8154.33
558.863	7777.5
559.062	7908.57
559.261	7681.25
559.461	7855.33
559.66	7331.05
559.859	7376.1
560.058	7171.3
560.258	7066.86
560.457	7070.95
560.656	6999.27
560.855	6581.49
561.054	6958.32
561.253	6616.3
561.453	6550.77
561.652	6382.84
561.851	6300.92
562.05	6178.04
562.249	6038.78
562.448	6053.11
562.647	5713.15
562.846	5659.9
563.045	5784.83
563.244	5713.15
563.443	5588.22
563.642	5401.86
563.841	5510.4
564.04	5379.33
564.239	5373.19
564.438	5117.19
564.637	5027.08
564.836	5063.94
565.035	4867.34
565.234	4789.52
565.432	4842.76
565.631	4758.8
565.83	4666.64
566.029	4654.35
566.228	4652.3
566.427	4504.85
566.625	4224.28
566.824	4375.83
567.023	4373.78
567.222	4267.28
567.42	4074.78
567.619	4009.24
567.818	3999
568.016	4160.79
568.215	4107.54
568.414	3851.55
568.612	3931.42
568.811	3816.73
569.01	3732.76
569.208	3599.65
569.407	3695.9
569.605	3558.69
569.804	3448.1
570.002	3437.86
570.201	3298.6
570.4	3468.58
570.598	3374.37
570.797	3331.36
570.995	3228.96
571.193	3079.46
571.392	3173.67
571.59	3073.32
571.789	3159.33
571.987	2993.45
572.186	3151.14
572.384	2811.18
572.582	2999.59
572.781	2923.82
572.979	2774.31
573.177	2661.68
573.376	2700.59
573.574	2661.68
573.772	2635.05
573.971	2542.89
574.169	2477.36
574.367	2491.7
574.565	2385.2
574.763	2385.2
574.962	2444.59
575.16	2276.66
575.358	2235.7
575.556	2305.33
575.754	2219.32
575.952	2293.04
576.151	2368.82
576.349	2250.03
576.547	1963.32
576.745	2112.82
576.943	2026.81
577.141	1963.32
577.339	1965.37
577.537	1885.5
577.735	1973.56
577.933	1924.41
578.131	1770.81
578.329	1922.36
578.527	1826.11
578.725	1828.15
578.923	1740.09
579.121	1834.3
579.319	1584.45
579.516	1613.12
579.714	1860.92
579.912	1635.64
580.11	1447.23
580.308	1598.78
580.506	1502.53
580.704	1439.04
580.901	1416.51
581.099	1498.43
581.297	1410.37
581.495	1404.22
581.692	1326.4
581.89	1463.62
582.088	1432.9
582.285	1367.36
582.483	1285.44
582.681	1346.88
582.878	1396.03
583.076	1226.05
583.274	1391.94
583.471	1348.93
583.669	1215.81
583.866	1146.18
584.064	1137.99
584.262	1113.41
584.459	1037.64
584.657	1125.7
584.854	1137.99
585.052	1140.04
585.249	1066.31
585.447	1094.98
585.644	951.62
585.841	1111.36
586.039	1183.04
586.236	1166.66
586.434	982.34
586.631	959.81
586.828	912.71
587.026	1131.84
587.223	853.32
587.42	847.18
587.618	1004.87
587.815	1068.36
588.012	908.62
588.21	861.51
588.407	951.62
588.604	965.96
588.801	769.35
588.999	824.65
589.196	955.72
589.393	812.36
589.59	861.51
589.787	867.66
589.984	920.9
590.182	922.95
590.379	703.82
590.576	877.9
590.773	775.5
590.97	769.35
591.167	798.03
591.364	830.79
591.561	851.27
591.758	820.55
591.955	806.22
592.152	726.35
592.349	691.53
592.546	734.54
592.743	712.01
592.94	804.17
593.137	881.99
593.334	847.18
593.531	814.41
593.727	832.84
593.924	738.63
594.121	771.4
594.318	834.89
594.515	726.35
594.712	894.28
594.908	978.25
595.105	638.28
595.302	728.39
595.499	859.46
595.696	922.95
595.892	826.7
596.089	877.9
596.286	785.74
596.482	984.39
596.679	881.99
596.876	949.57
597.072	1084.74
597.269	961.86
597.466	1056.07
597.662	976.2
597.859	1051.97
598.055	1094.98
598.252	1187.14
598.448	1217.86
598.645	1162.56
598.841	1246.53
599.038	1357.12
599.234	1486.14
599.431	1424.7
599.627	1449.28
599.824	1549.63
600.02	1545.53
600.217	1539.39
600.413	1668.41
600.609	1758.52
600.806	2084.15
601.002	1951.03
601.198	1813.82
601.395	2069.81
601.591	2016.57
601.787	2157.88
601.984	2295.09
602.18	2506.03
602.376	2364.72
602.572	2546.99
602.769	2485.55
602.965	2788.65
603.161	2815.27
603.357	2866.47
603.553	3169.57
603.75	3050.79
603.946	3138.85
604.142	3255.59
604.338	3575.07
604.534	3507.49
604.73	3716.38
604.926	3648.8
605.122	4085.02
605.318	3923.23
605.514	4179.22
605.71	4271.38
605.906	4298
606.102	4406.55
606.298	4574.48
606.494	4932.87
606.69	5070.09
606.886	5209.35
607.082	5268.74
607.278	5424.39
607.474	5494.02
607.67	5711.1
607.866	5772.54
608.062	5999.87
608.257	6280.44
608.453	6276.34
608.649	6393.08
608.845	6595.82
609.041	6821.1
609.236	7134.44
609.432	7226.6
609.628	7410.92
609.824	7560.42
610.019	7804.13
610.215	7990.49
610.411	8350.93
610.606	8670.42
610.802	8699.09
610.998	8735.95
611.193	9307.34
611.389	9350.34
611.584	9589.95
611.78	9657.54
611.976	10024.12
612.171	10613.94
612.367	10650.8
612.562	10812.59
612.758	11048.11
612.953	11508.9
613.149	11719.84
613.344	11969.69
613.539	12555.41
613.735	12666
613.93	13102.22
614.126	13151.37
614.321	14001.28
614.517	14167.17
614.712	14654.58
614.907	14781.56
615.103	15234.16
615.298	15494.25
615.493	16049.25
615.688	16362.59
615.884	17093.71
616.079	17034.32
616.274	18029.63
616.47	18166.85
616.665	18619.45
616.86	18998.32
617.055	19508.27
617.25	19911.72
617.445	20677.66
617.641	20737.05
617.836	21681.16
618.031	21681.16
618.226	22553.6
618.421	22973.43
618.616	23555.05
618.811	24148.96
619.006	24835.03
619.201	24968.15
619.396	25834.44
619.591	26004.42
619.786	27022.26
619.981	27059.13
620.176	28230.57
620.371	28439.46
620.566	29385.62
620.761	29672.34
620.956	30456.71
621.151	30948.22
621.346	31476.6
621.541	31992.69
621.735	33534.81
621.93	32977.76
622.125	33753.94
622.32	34200.4
622.515	35169.08
622.709	35668.79
622.904	36440.87
623.099	36741.92
623.294	37980.95
623.488	38003.47
623.683	39068.42
623.878	38898.44
624.072	40180.46
624.267	40919.78
624.462	41259.74
624.656	41493.21
624.851	42621.64
625.046	42914.5
625.24	44077.75
625.435	44243.63
625.629	44741.29
625.824	45566.62
626.018	46322.32
626.213	46027.42
626.407	46940.81
626.602	47086.21
626.796	48140.92
626.991	48505.46
627.185	48790.12
627.38	48738.93
627.574	48890.48
627.768	49517.15
627.963	49619.55
628.157	50002.52
628.352	50467.41
628.546	49762.91
628.74	50393.68
628.935	49844.83
629.129	50215.51
629.323	49656.42
629.517	49644.13
629.712	49619.55
629.906	49136.23
630.1	48288.37
630.294	48710.25
630.489	47477.38
630.683	47506.05
630.877	46281.36
631.071	45877.91
631.265	45089.45
631.459	44268.21
631.653	42975.94
631.848	42183.38
632.042	41345.76
632.236	40555.24
632.43	38740.74
632.624	38806.28
632.818	37425.95
633.012	35912.5
633.206	35140.41
633.4	34161.48
633.594	32412.52
633.788	32084.84
633.982	30997.37
634.176	29918.09
634.369	28226.47
634.563	27450.29
634.757	26262.47
634.951	25592.78
635.145	24669.15
635.339	23804.91
635.533	22567.93
635.726	21672.97
635.92	21015.57
636.114	20034.6
636.308	19326
636.501	18488.38
636.695	17816.65
636.889	17189.97
637.083	16303.2
637.276	15635.56
637.47	14894.19
637.664	14306.43
637.857	13710.47
638.051	13192.33
638.244	12786.83
638.438	12260.51
638.632	11967.65
638.825	11224.23
639.019	10962.09
639.212	10175.67
639.406	10091.71
639.599	9622.72
639.793	9147.59
639.986	8928.46
640.18	8613.07
640.373	7953.63
640.567	7941.34
640.76	7490.79
640.954	7226.6
641.147	6909.16
641.34	6911.21
641.534	6522.1
641.727	6331.64
641.92	6001.91
642.114	5790.97
642.307	5563.65
642.5	5287.17
642.694	5172.49
642.887	5031.18
643.08	4865.29
643.273	4551.95
643.467	4472.08
643.66	4369.68
643.853	4009.24
644.046	3976.47
644.239	3710.24
644.432	3530.02
644.626	3437.86
644.819	3396.9
645.012	3198.24
645.205	3312.93
645.398	3067.17
645.591	2817.32
645.784	2813.23
645.977	2522.41
646.17	2583.85
646.363	2483.5
646.556	2346.29
646.749	2243.89
646.942	2250.03
647.135	2174.26
647.328	2028.85
647.521	1959.22
647.714	2016.57
647.907	1846.59
648.099	1672.51
648.292	1660.22
648.485	1664.32
648.678	1555.77
648.871	1520.96
649.064	1486.14
649.256	1299.78
649.449	1389.89
649.642	1193.28
649.835	1162.56
650.027	1240.39
650.22	1207.62
650.413	1107.27
650.605	1115.46
650.798	1045.83
650.991	978.25
651.183	1047.88
651.376	855.37
651.568	982.34
651.761	734.54
651.954	834.89
652.146	867.66
652.339	916.81
652.531	859.46
652.724	697.67
652.916	634.19
653.109	566.6
653.301	763.21
653.494	744.78
653.686	626
653.879	730.44
654.071	687.43
654.263	527.69
654.456	572.75
654.648	580.94
654.84	642.38
655.033	462.16
655.225	550.22
655.417	421.2
655.61	582.99
655.802	476.49
655.994	496.97
656.186	443.73
656.379	476.49
656.571	380.24
656.763	355.66
656.955	337.23
657.148	370
657.34	593.23
657.532	456.01
657.724	351.57
657.916	320.85
658.108	376.14
658.3	435.53
658.492	367.95
658.684	216.4
658.876	390.48
659.068	189.78
659.26	189.78
659.452	251.22
659.644	384.34
659.836	423.25
660.028	316.75
660.22	148.82
660.412	230.74
660.604	243.03
660.796	306.51
660.988	302.42
661.18	286.03
661.372	314.7
661.563	277.84
661.755	314.7
661.947	173.39
662.139	169.3
662.331	152.92
662.522	290.13
662.714	191.83
662.906	238.93
663.097	224.59
663.289	148.82
663.481	32.08
663.673	177.49
663.864	122.2
664.056	271.7
664.247	128.34
664.439	234.83
664.631	224.59
664.822	216.4
665.014	179.54
665.205	132.44
665.397	161.11
665.588	234.83
665.78	271.7
665.971	238.93
666.163	109.91
666.354	200.02
666.546	114
666.737	122.2
666.929	77.14
667.12	107.86
667.311	126.29
667.503	150.87
667.694	146.77
667.885	279.89
668.077	238.93
668.268	-31.4
668.459	105.81
668.651	206.16
668.842	202.07
669.033	103.76
669.224	54.61
669.416	302.42
669.607	226.64
669.798	122.2
669.989	224.59
670.18	161.11
670.371	148.82
670.563	77.14
670.754	222.55
670.945	173.39
671.136	249.17
671.327	68.95
671.518	208.21
671.709	273.75
671.9	165.2
672.091	189.78
672.282	118.1
672.473	126.29
672.664	-64.17
672.855	101.72
673.046	224.59
673.237	187.73
673.428	111.96
673.619	238.93
673.809	109.91
674	189.78
674.191	128.34
674.382	126.29
674.573	134.48
674.764	171.35
674.954	161.11
675.145	38.23
675.336	44.37
675.527	91.48
675.717	109.91
675.908	60.76
676.099	27.99
676.289	146.77
676.48	32.08
676.671	134.48
676.861	138.58
677.052	111.96
677.243	99.67
677.433	71
677.624	191.83
677.814	144.72
678.005	169.3
678.195	271.7
678.386	54.61
678.576	161.11
678.767	58.71
678.957	101.72
679.148	216.4
679.338	218.45
679.529	146.77
679.719	140.63
679.909	255.31
680.1	200.02
680.29	181.59
680.481	30.04
680.671	232.79
680.861	120.15
681.052	140.63
681.242	56.66
681.432	171.35
681.622	191.83
681.813	-2.73
682.003	95.57
682.193	77.14
682.383	181.59
682.573	152.92
682.764	87.38
682.954	197.97
683.144	290.13
683.334	17.75
683.524	128.34
683.714	142.68
683.904	202.07
684.094	234.83
684.284	267.6
684.474	267.6
684.664	181.59
684.854	257.36
685.044	243.03
685.234	206.16
685.424	167.25
685.614	206.16
685.804	300.37
685.994	181.59
686.184	150.87
686.374	202.07
686.564	191.83
686.753	208.21
686.943	46.42
687.133	124.24
687.323	183.63
687.513	197.97
687.702	161.11
687.892	136.53
688.082	275.79
688.272	277.84
688.461	255.31
688.651	345.42
688.841	279.89
689.03	191.83
689.22	161.11
689.41	283.99
689.599	245.07
689.789	109.91
689.979	279.89
690.168	148.82
690.358	247.12
690.547	277.84
690.737	208.21
690.926	183.63
691.116	206.16
691.305	222.55
691.495	179.54
691.684	138.58
691.874	189.78
692.063	251.22
692.252	222.55
692.442	236.88
692.631	171.35
692.82	191.83
693.01	140.63
693.199	226.64
693.388	187.73
693.578	109.91
693.767	283.99
693.956	222.55
694.146	134.48
694.335	214.35
694.524	173.39
694.713	161.11
694.902	128.34
695.092	154.96
695.281	216.4
695.47	128.34
695.659	79.19
695.848	163.15
696.037	154.96
696.226	247.12
696.415	226.64
696.604	259.41
696.793	163.15
696.982	191.83
697.171	230.74
697.36	134.48
697.549	165.2
697.738	-21.16
697.927	146.77
698.116	48.47
698.305	320.85
698.494	177.49
698.683	124.24
698.872	304.46
699.061	132.44
699.25	107.86
699.438	130.39
699.627	83.28
699.816	263.51
700.005	-37.55
700.193	105.81
700.382	204.11
700.571	243.03
700.76	204.11
700.948	238.93
701.137	216.4
701.326	195.92
701.514	48.47
701.703	251.22
701.892	216.4
702.08	304.46
702.269	167.25
702.457	81.24
702.646	161.11
702.834	97.62
703.023	179.54
703.212	255.31
703.4	210.26
703.589	187.73
703.777	103.76
703.965	175.44
704.154	126.29
704.342	122.2
704.531	52.56
704.719	224.59
704.907	245.07
705.096	120.15
705.284	56.66
705.472	181.59
705.661	142.68
705.849	132.44
706.037	222.55
706.226	191.83
706.414	191.83
706.602	181.59
706.79	216.4
706.979	95.57
707.167	134.48
707.355	89.43
707.543	189.78
707.731	216.4
707.919	134.48
708.107	144.72
708.296	9.56
708.484	89.43
708.672	187.73
708.86	157.01
709.048	128.34
709.236	114
709.424	126.29
709.612	212.31
709.8	44.37
709.988	193.87
710.176	236.88
710.364	279.89
710.551	234.83
710.739	154.96
710.927	128.34
711.115	118.1
711.303	279.89
711.491	210.26
711.679	163.15
711.866	210.26
712.054	224.59
712.242	159.06
712.43	220.5
712.617	163.15
712.805	306.51
712.993	204.11
713.181	79.19
713.368	202.07
713.556	177.49
713.744	132.44
713.931	310.61
714.119	259.41
714.306	81.24
714.494	159.06
714.682	206.16
714.869	122.2
715.057	152.92
715.244	27.99
715.432	124.24
715.619	109.91
715.807	132.44
715.994	157.01
716.182	232.79
716.369	279.89
716.556	181.59
716.744	132.44
716.931	85.33
717.119	183.63
717.306	103.76
717.493	275.79
717.681	167.25
717.868	171.35
718.055	228.69
718.242	111.96
718.43	185.68
718.617	290.13
718.804	173.39
718.991	232.79
719.179	165.2
719.366	228.69
719.553	163.15
719.74	171.35
719.927	105.81
720.114	177.49
720.301	132.44
720.488	222.55
720.676	148.82
720.863	333.14
721.05	306.51
721.237	191.83
721.424	236.88
721.611	224.59
721.798	91.48
721.985	206.16
722.172	191.83
722.358	169.3
722.545	220.5
722.732	224.59
722.919	240.98
723.106	279.89
723.293	220.5
723.48	173.39
723.667	189.78
723.853	288.08
724.04	200.02
724.227	298.32
724.414	122.2
724.6	271.7
724.787	275.79
724.974	355.66
725.161	167.25
725.347	148.82
725.534	240.98
725.72	253.27
725.907	312.66
726.094	302.42
726.28	165.2
726.467	185.68
726.653	52.56
726.84	324.94
727.027	312.66
727.213	195.92
727.4	202.07
727.586	228.69
727.773	185.68
727.959	249.17
728.145	222.55
728.332	226.64
728.518	126.29
728.705	228.69
728.891	165.2
729.077	230.74
729.264	150.87
729.45	226.64
729.636	234.83
729.823	187.73
730.009	257.36
730.195	173.39
730.382	245.07
730.568	204.11
730.754	179.54
730.94	197.97
731.126	197.97
731.313	281.94
731.499	236.88
731.685	228.69
731.871	177.49
732.057	175.44
732.243	290.13
732.429	286.03
732.615	220.5
732.801	234.83
732.987	222.55
733.173	281.94
733.359	257.36
733.545	187.73
733.731	197.97
733.917	318.8
734.103	261.46
734.289	230.74
734.475	144.72
734.661	306.51
734.847	210.26
735.033	277.84
735.219	331.09
735.404	163.15
735.59	120.15
735.776	269.65
735.962	236.88
736.148	218.45
736.333	326.99
736.519	224.59
736.705	181.59
736.89	185.68
737.076	134.48
737.262	140.63
737.447	167.25
737.633	159.06
737.819	224.59
738.004	226.64
738.19	163.15
738.375	171.35
738.561	265.55
738.747	212.31
738.932	157.01
739.118	374.1
739.303	304.46
739.489	286.03
739.674	271.7
739.859	71
740.045	247.12
740.23	298.32
740.416	159.06
740.601	255.31
740.786	183.63
740.972	195.92
741.157	220.5
741.342	130.39
741.528	150.87
741.713	265.55
741.898	132.44
742.084	122.2
742.269	204.11
742.454	230.74
742.639	347.47
742.824	243.03
743.01	310.61
743.195	331.09
743.38	189.78
743.565	179.54
743.75	261.46
743.935	292.18
744.12	310.61
744.305	191.83
744.49	165.2
744.675	171.35
744.86	175.44
745.045	251.22
745.23	245.07
745.415	175.44
745.6	359.76
745.785	206.16
745.97	249.17
746.155	257.36
746.34	253.27
746.525	306.51
746.71	222.55
746.895	126.29
747.079	167.25
747.264	257.36
747.449	249.17
747.634	271.7
747.819	208.21
748.003	175.44
748.188	150.87
748.373	333.14
748.557	185.68
748.742	202.07
748.927	226.64
749.111	216.4
749.296	163.15
749.481	181.59
749.665	218.45
749.85	144.72
750.034	232.79
750.219	200.02
750.404	167.25
750.588	197.97
750.773	167.25
750.957	154.96
751.141	134.48
751.326	189.78
751.51	87.38
751.695	177.49
751.879	114
752.064	253.27
752.248	179.54
752.432	234.83
752.617	277.84
752.801	251.22
752.985	191.83
753.17	240.98
753.354	259.41
753.538	165.2
753.722	87.38
753.907	42.32
754.091	97.62
754.275	191.83
754.459	40.28
754.643	68.95
754.828	146.77
755.012	169.3
755.196	-21.16
755.38	193.87
755.564	89.43
755.748	120.15
755.932	263.51
756.116	159.06
756.3	206.16
756.484	142.68
756.668	136.53
756.852	48.47
757.036	136.53
757.22	146.77
757.404	114
757.588	175.44
757.772	103.76
757.956	122.2
758.14	249.17
758.323	114
758.507	105.81
758.691	71
758.875	173.39
759.059	130.39
759.242	81.24
759.426	122.2
759.61	154.96
759.794	40.28
759.977	183.63
760.161	306.51
760.345	306.51
760.528	189.78
760.712	103.76
760.895	175.44
761.079	169.3
761.263	30.04
761.446	50.52
761.63	120.15
761.813	193.87
761.997	-17.07
762.18	107.86
762.364	177.49
762.547	34.13
762.731	99.67
762.914	50.52
763.098	109.91
763.281	62.8
763.464	-10.92
763.648	93.52
763.831	81.24
764.015	-12.97
764.198	101.72
764.381	46.42
764.564	52.56
764.748	195.92
764.931	75.09
765.114	58.71
765.297	120.15
765.481	25.94
765.664	44.37
765.847	48.47
766.03	142.68
766.213	3.41
766.397	77.14
766.58	38.23
766.763	118.1
766.946	1.37
767.129	-15.02
767.312	101.72
767.495	75.09
767.678	58.71
767.861	68.95
768.044	30.04
768.227	9.56
768.41	44.37
768.593	54.61
768.776	122.2
768.959	64.85
769.142	134.48
769.324	73.04
769.507	38.23
769.69	-27.31
769.873	73.04
770.056	279.89
770.239	159.06
770.421	77.14
770.604	136.53
770.787	68.95
770.97	64.85
771.152	-19.11
771.335	97.62
771.518	-0.68
771.7	150.87
771.883	159.06
772.066	5.46
772.248	71
772.431	99.67
772.613	64.85
772.796	40.28
772.978	81.24
773.161	163.15
773.343	85.33
773.526	38.23
773.708	-82.6
773.891	-74.41
774.073	120.15
774.256	27.99
774.438	183.63
774.621	19.8
774.803	11.61
774.985	68.95
775.168	136.53
775.35	79.19
775.532	58.71
775.715	-17.07
775.897	42.32
776.079	56.66
776.261	71
776.444	93.52
776.626	30.04
776.808	54.61
776.99	30.04
777.173	105.81
777.355	30.04
777.537	60.76
777.719	44.37
777.901	27.99
778.083	-15.02
778.265	25.94
778.447	114
778.629	34.13
778.811	116.05
778.993	64.85
779.175	165.2
779.357	73.04
779.539	-19.11
779.721	48.47
779.903	89.43
780.085	-4.78
780.267	101.72
780.449	89.43
780.631	134.48
780.812	200.02
780.994	1.37
781.176	23.89
781.358	44.37
781.54	-2.73
781.721	87.38
781.903	-0.68
782.085	-10.92
782.267	48.47
782.448	40.28
782.63	-2.73
782.812	21.85
782.993	52.56
783.175	56.66
783.357	-12.97
783.538	42.32
783.72	-51.88
783.901	-29.35
784.083	85.33
784.264	68.95
784.446	-82.6
784.627	-78.51
784.809	93.52
784.99	-6.83
785.172	101.72
785.353	44.37
785.535	38.23
785.716	-45.74
785.897	-80.55
786.079	36.18
786.26	48.47
786.441	77.14
786.623	-45.74
786.804	-37.55
786.985	13.65
787.167	114
787.348	27.99
787.529	36.18
787.71	138.58
787.891	107.86
788.073	-68.27
788.254	1.37
788.435	154.96
788.616	30.04
788.797	-62.12
788.978	3.41
789.159	-66.22
789.34	21.85
789.522	42.32
789.703	-15.02
789.884	71
790.065	1.37
790.246	38.23
790.427	40.28
790.607	105.81
790.788	66.9
790.969	-27.31
791.15	-19.11
791.331	-58.03
791.512	32.08
791.693	-21.16
791.874	3.41
792.054	238.93
792.235	79.19
792.416	-10.92
792.597	-31.4
792.778	52.56
792.958	89.43
793.139	56.66
793.32	-96.94
793.5	-107.18
793.681	120.15
793.862	77.14
794.042	-33.45
794.223	-125.61
794.404	-25.26
794.584	-58.03
794.765	-39.59
794.945	5.46
795.126	32.08
795.306	56.66
795.487	27.99
795.667	19.8
795.848	64.85
796.028	-17.07
796.209	42.32
796.389	114
796.57	-39.59
796.75	15.7
796.93	-78.51
797.111	30.04
797.291	15.7
797.471	40.28
797.652	-2.73
797.832	-47.79
798.012	124.24
798.192	-21.16
798.373	-17.07
798.553	-49.83
798.733	36.18
798.913	-53.93
799.093	-41.64
799.274	-41.64
799.454	64.85
799.634	46.42
799.814	-33.45
799.994	27.99
800.174	91.48
800.354	114
800.534	-119.46
800.714	109.91
800.894	-101.03
801.074	-29.35
801.254	-76.46
801.434	95.57
801.614	23.89
801.794	-84.65
801.974	1836.35
802.154	-43.69
802.334	83.28
802.514	-49.83
802.693	-23.21
802.873	32.08
803.053	126.29
803.233	-25.26
803.413	-12.97
803.592	-45.74
803.772	-43.69
803.952	46.42
804.131	-70.31
804.311	79.19
804.491	87.38
804.67	-66.22
804.85	-117.42
805.03	-2.73
805.209	109.91
805.389	1.37
805.568	-78.51
805.748	-25.26
805.928	-98.99
806.107	85.33
806.287	50.52
806.466	3.41
806.646	-35.5
806.825	48.47
807.004	-90.79
807.184	46.42
807.363	-58.03
807.543	62.8
807.722	-88.75
807.901	126.29
808.081	134.48
808.26	-98.99
808.439	85.33
808.619	-21.16
808.798	-55.98
808.977	46.42
809.156	91.48
809.336	114
809.515	-19.11
809.694	-39.59
809.873	-10.92
810.052	5.46
810.231	66.9
810.411	97.62
810.59	95.57
810.769	-33.45
810.948	1.37
811.127	-70.31
811.306	27.99
811.485	-21.16
811.664	68.95
811.843	71
812.022	11.61
812.201	-15.02
812.38	11.61
812.559	-41.64
812.737	60.76
812.916	-55.98
813.095	-84.65
813.274	60.76
813.453	-27.31
813.632	1.37
813.811	40.28
813.989	-29.35
814.168	68.95
814.347	-62.12
814.526	-10.92
814.704	157.01
814.883	142.68
815.062	-119.46
815.24	38.23
815.419	-21.16
815.598	38.23
815.776	-55.98
815.955	64.85
816.133	-72.36
816.312	-10.92
816.49	-41.64
816.669	-25.26
816.847	-31.4
817.026	36.18
817.204	-21.16
817.383	-111.27
817.561	-82.6
817.74	25.94
817.918	-25.26
818.097	-33.45
818.275	-152.23
818.453	60.76
818.632	73.04
818.81	-47.79
818.988	-2.73
819.167	-15.02
819.345	-39.59
819.523	-119.46
819.701	-47.79
819.879	34.13
820.058	-17.07
820.236	-60.07
820.414	-19.11
820.592	71
820.77	-78.51
820.948	-78.51
821.127	-15.02
821.305	-41.64
821.483	-19.11
821.661	142.68
821.839	-51.88
822.017	-103.08
822.195	5.46
822.373	116.05
822.551	32.08
822.729	111.96
822.907	-45.74
823.085	116.05
823.262	13.65
823.44	-76.46
823.618	-86.7
823.796	5.46
823.974	-47.79
824.152	-15.02
824.329	13.65
824.507	-8.87
824.685	48.47
824.863	40.28
825.04	-12.97
825.218	81.24
825.396	21.85
825.574	25.94
825.751	-45.74
825.929	30.04
826.107	-111.27
826.284	9.56
826.462	40.28
826.639	-58.03
826.817	-86.7
826.994	-58.03
827.172	-168.62
827.349	114
827.527	-15.02
827.704	73.04
827.882	56.66
828.059	-21.16
828.237	-4.78
828.414	89.43
828.591	-107.18
828.769	-19.11
828.946	-76.46
829.124	-0.68
829.301	40.28
829.478	-23.21
829.655	15.7
829.833	3.41
830.01	-74.41
830.187	-6.83
830.364	34.13
830.542	54.61
830.719	79.19
830.896	30.04
831.073	40.28
831.25	73.04
831.427	-27.31
831.604	-43.69
831.782	-0.68
831.959	11.61
832.136	9.56
832.313	-82.6
832.49	-12.97
832.667	5.46
832.844	-80.55
833.021	3.41
833.198	27.99
833.374	-37.55
833.551	-51.88
833.728	-31.4
833.905	52.56
834.082	-94.89
834.259	13.65
834.436	111.96
834.612	-82.6
834.789	36.18
834.966	-12.97
835.143	9.56
835.319	-37.55
835.496	-15.02
835.673	34.13
835.85	107.86
836.026	120.15
836.203	85.33
836.38	17.75
836.556	-47.79
836.733	-29.35
836.909	134.48
837.086	1.37
837.262	-12.97
837.439	-19.11
837.616	-4.78
837.792	5.46
837.968	-8.87
838.145	-94.89
838.321	17.75
838.498	30.04
838.674	-19.11
838.851	23.89
839.027	-33.45
839.203	-6.83
839.38	-37.55
839.556	-6.83
839.732	17.75
839.909	-8.87
840.085	48.47
840.261	-2.73
840.437	44.37
840.614	1.37
840.79	21.85
840.966	-17.07
841.142	42.32
841.318	-86.7
841.494	13.65
841.671	15.7
841.847	-33.45
842.023	-15.02
842.199	-8.87
842.375	34.13
842.551	-76.46
842.727	-33.45
842.903	130.39
843.079	-86.7
843.255	64.85
843.431	19.8
843.607	54.61
843.783	-174.76
843.959	-76.46
844.134	-53.93
844.31	99.67
844.486	-103.08
844.662	-94.89
844.838	38.23
845.013	40.28
845.189	97.62
845.365	-60.07
845.541	-82.6
845.716	-27.31
845.892	58.71
846.068	-78.51
846.244	-164.52
846.419	48.47
846.595	-41.64
846.77	-98.99
846.946	77.14
847.122	-33.45
847.297	-15.02
847.473	101.72
847.648	-111.27
847.824	5.46
847.999	-146.09
848.175	-98.99
848.35	81.24
848.526	83.28
848.701	62.8
848.876	83.28
849.052	46.42
849.227	-66.22
849.403	-6.83
849.578	15.7
849.753	-37.55
849.929	107.86
850.104	-109.22
850.279	-47.79
850.454	15.7
850.63	17.75
850.805	32.08
850.98	-2.73
851.155	-43.69
851.33	-74.41
851.505	-8.87
851.681	83.28
851.856	-76.46
852.031	13.65
852.206	19.8
852.381	-33.45
852.556	7.51
852.731	30.04
852.906	54.61
853.081	-0.68
853.256	56.66
853.431	-8.87
853.606	-23.21
853.781	-23.21
853.956	-117.42
854.131	-37.55
854.305	-82.6
854.48	60.76
854.655	-64.17
854.83	-103.08
855.005	-62.12
855.18	-4.78
855.354	-47.79
855.529	13.65
855.704	-12.97
855.879	-27.31
856.053	-8.87
856.228	21.85
856.403	-82.6
856.577	3.41
856.752	-94.89
856.926	27.99
857.101	9.56
857.276	-156.33
857.45	-29.35
857.625	44.37
857.799	-35.5
857.974	-37.55
858.148	-101.03
858.323	5.46
858.497	-49.83
858.672	-25.26
858.846	-72.36
859.02	93.52
859.195	3.41
859.369	7.51
859.543	-37.55
859.718	-6.83
859.892	13.65
860.066	-12.97
860.241	-58.03
860.415	-84.65
860.589	-82.6
860.763	-29.35
860.938	-27.31
861.112	25.94
861.286	-62.12
861.46	-25.26
861.634	-66.22
861.808	75.09
861.982	-103.08
862.157	-103.08
862.331	13.65
862.505	-115.37
862.679	-150.18
862.853	-53.93
863.027	13.65
863.201	165.2
863.375	-25.26
863.549	34.13
863.722	25.94
863.896	7.51
864.07	-0.68
864.244	-41.64
864.418	32.08
864.592	38.23
864.766	1.37
864.939	-12.97
865.113	-64.17
865.287	52.56
865.461	-49.83
865.634	-19.11
865.808	-2.73
865.982	-21.16
866.156	-90.79
866.329	-129.7
866.503	-2.73
866.676	19.8
866.85	-49.83
867.024	-45.74
867.197	-35.5
867.371	-78.51
867.544	3.41
867.718	-55.98
867.891	87.38
868.065	-158.38
868.238	-29.35
868.412	116.05
868.585	-6.83
868.759	-58.03
868.932	-84.65
869.105	-51.88
869.279	48.47
869.452	-17.07
869.625	-4.78
869.799	-6.83
869.972	-127.66
870.145	-49.83
870.319	103.76
870.492	-17.07
870.665	-8.87
870.838	-66.22
871.011	-129.7
871.185	-2.73
871.358	-53.93
871.531	56.66
871.704	3.41
871.877	11.61
872.05	-43.69
872.223	-23.21
872.396	66.9
872.569	32.08
872.742	-131.75
872.915	62.8
873.088	-70.31
873.261	-123.56
873.434	19.8
873.607	-68.27
873.78	66.9
873.953	-55.98
874.126	-21.16
874.299	-25.26
874.471	-6.83
874.644	-25.26
874.817	-49.83
874.99	62.8
875.163	-0.68
875.335	-64.17
875.508	-37.55
875.681	44.37
875.853	-88.75
876.026	-15.02
876.199	66.9
876.371	-15.02
876.544	-41.64
876.717	-2.73
876.889	-45.74
877.062	97.62
877.234	-129.7
877.407	-12.97
877.579	-33.45
877.752	-68.27
877.924	60.76
878.097	54.61
878.269	50.52
878.442	3.41
878.614	-35.5
878.786	21.85
878.959	32.08
879.131	-10.92
879.303	-119.46
879.476	-37.55
879.648	7.51
879.82	-41.64
879.993	-47.79
880.165	19.8
880.337	-72.36
880.509	3.41
880.681	-113.32
880.854	-76.46
881.026	3.41
881.198	46.42
881.37	-58.03
881.542	-12.97
881.714	-103.08
881.886	-29.35
882.058	-29.35
882.23	-70.31
882.402	-72.36
882.574	-29.35
882.746	95.57
882.918	27.99
883.09	13.65
883.262	-68.27
883.434	34.13
883.606	-148.14
883.778	5.46
883.95	105.81
884.122	-62.12
884.293	71
884.465	-10.92
884.637	-4.78
884.809	-107.18
884.98	-2.73
885.152	62.8
885.324	56.66
885.496	-80.55
885.667	-27.31
885.839	-107.18
886.011	56.66
886.182	-47.79
886.354	30.04
886.525	5.46
886.697	-66.22
886.869	-88.75
887.04	-55.98
887.212	46.42
887.383	181.59
887.555	44.37
887.726	-47.79
887.897	-51.88
888.069	-29.35
888.24	62.8
888.412	1.37
888.583	-72.36
888.754	-4.78
888.926	-148.14
889.097	-74.41
889.268	-45.74
889.44	-0.68
889.611	-92.84
889.782	-115.37
889.953	-43.69
890.125	101.72
890.296	-111.27
890.467	-2.73
890.638	3.41
890.809	-37.55
890.98	-27.31
891.151	-19.11
891.323	146.77
891.494	-68.27
891.665	-33.45
891.836	-12.97
892.007	25.94
892.178	9.56
892.349	-25.26
892.52	-60.07
892.691	-0.68
892.862	-70.31
893.032	-127.66
893.203	-0.68
893.374	58.71
893.545	-17.07
893.716	-6.83
893.887	83.28
894.057	-58.03
894.228	-17.07
894.399	-88.75
894.57	77.14
894.74	-21.16
894.911	56.66
895.082	-58.03
895.253	-107.18
895.423	-12.97
895.594	64.85
895.764	-25.26
895.935	-70.31
896.106	-43.69
896.276	-58.03
896.447	-51.88
896.617	-74.41
896.788	-68.27
896.958	-82.6
897.129	-19.11
897.299	-131.75
897.47	122.2
897.64	13.65
897.81	87.38
897.981	17.75
898.151	-113.32
898.322	-84.65
898.492	-8.87
898.662	-176.81
898.832	-8.87
899.003	-90.79
899.173	27.99
899.343	-141.99
899.513	-72.36
