Data from USB4F104151__143__11-04-16-640.txt Node

Date: Wed Feb 26 11:04:16 EST 2025
User: louis
Spectrometer: USB4F10415
Trigger mode: 4
Integration Time (sec): 1.000000E-1
Scans to average: 1
Electric dark correction enabled: true
Nonlinearity correction enabled: false
Boxcar width: 0
XAxis mode: Wavelengths
Number of Pixels in Spectrum: 3648
>>>>>Begin Spectral Data<<<<<
178.204	-348.33
178.424	-348.33
178.644	-348.33
178.864	-450.72
179.084	-329.89
179.304	-61.61
179.524	10.07
179.744	-0.17
179.964	-12.46
180.184	-32.94
180.404	51.03
180.624	-43.18
180.844	-10.41
181.064	14.17
181.283	22.36
181.503	-22.7
181.723	85.84
181.943	-14.51
182.163	126.8
182.383	-18.6
182.602	-47.27
182.822	141.14
183.042	87.89
183.262	-53.42
183.482	73.56
183.701	14.17
183.921	44.88
184.141	-55.47
184.361	26.45
184.58	87.89
184.8	26.45
185.02	14.17
185.239	106.32
185.459	81.75
185.679	149.33
185.898	-51.37
186.118	32.6
186.338	100.18
186.557	161.62
186.777	-59.56
186.997	-22.7
187.216	81.75
187.436	173.91
187.655	14.17
187.875	104.28
188.095	24.4
188.314	104.28
188.534	163.67
188.753	-8.36
188.973	73.56
189.192	202.58
189.412	40.79
189.631	104.28
189.851	132.95
190.07	169.81
190.29	18.26
190.509	-4.27
190.729	63.32
190.948	69.46
191.168	274.26
191.387	106.32
191.607	-6.31
191.826	59.22
192.045	106.32
192.265	81.75
192.484	108.37
192.704	14.17
192.923	-41.13
193.142	137.04
193.362	151.38
193.581	100.18
193.8	48.98
194.02	149.33
194.239	89.94
194.458	147.28
194.678	96.08
194.897	63.32
195.116	65.36
195.335	106.32
195.555	83.8
195.774	51.03
195.993	124.76
196.212	-18.6
196.432	-22.7
196.651	24.4
196.87	-24.75
197.089	237.39
197.308	83.8
197.528	104.28
197.747	-57.51
197.966	75.6
198.185	202.58
198.404	-80.04
198.623	75.6
198.842	122.71
199.062	151.38
199.281	135
199.5	89.94
199.719	100.18
199.938	106.32
200.157	73.56
200.376	91.99
200.595	53.08
200.814	81.75
201.033	36.69
201.252	198.48
201.471	81.75
201.69	71.51
201.909	30.55
202.128	77.65
202.347	100.18
202.566	128.85
202.785	28.5
203.004	-34.99
203.223	270.16
203.442	51.03
203.661	59.22
203.879	114.52
204.098	139.09
204.317	-92.33
204.536	110.42
204.755	171.86
204.974	149.33
205.193	12.12
205.411	186.19
205.63	157.52
205.849	77.65
206.068	94.04
206.287	-69.8
206.505	157.52
206.724	104.28
206.943	-8.36
207.162	51.03
207.381	110.42
207.599	46.93
207.818	108.37
208.037	-20.65
208.255	36.69
208.474	77.65
208.693	-8.36
208.911	61.27
209.13	182.1
209.349	135
209.567	153.43
209.786	79.7
210.005	143.19
210.223	120.66
210.442	-4.27
210.661	30.55
210.879	79.7
211.098	102.23
211.316	36.69
211.535	100.18
211.753	65.36
211.972	67.41
212.191	36.69
212.409	-82.09
212.628	89.94
212.846	61.27
213.065	46.93
213.283	53.08
213.502	44.88
213.72	100.18
213.938	128.85
214.157	-2.22
214.375	153.43
214.594	57.17
214.812	53.08
215.031	-49.32
215.249	100.18
215.467	77.65
215.686	5.97
215.904	157.52
216.122	81.75
216.341	143.19
216.559	91.99
216.778	38.74
216.996	157.52
217.214	-57.51
217.432	20.31
217.651	-2.22
217.869	65.36
218.087	-10.41
218.306	34.64
218.524	73.56
218.742	44.88
218.96	130.9
219.179	63.32
219.397	122.71
219.615	171.86
219.833	159.57
220.051	-10.41
220.27	81.75
220.488	124.76
220.706	14.17
220.924	55.12
221.142	42.84
221.36	32.6
221.578	147.28
221.796	18.26
222.015	91.99
222.233	145.24
222.451	165.71
222.669	-41.13
222.887	120.66
223.105	-20.65
223.323	91.99
223.541	-22.7
223.759	55.12
223.977	34.64
224.195	153.43
224.413	57.17
224.631	18.26
224.849	10.07
225.067	192.34
225.285	67.41
225.503	42.84
225.721	-53.42
225.939	73.56
226.157	100.18
226.375	259.92
226.592	85.84
226.81	-61.61
227.028	98.13
227.246	100.18
227.464	118.61
227.682	89.94
227.9	135
228.117	132.95
228.335	75.6
228.553	104.28
228.771	20.31
228.989	87.89
229.206	98.13
229.424	5.97
229.642	-55.47
229.86	61.27
230.077	126.8
230.295	89.94
230.513	141.14
230.731	79.7
230.948	151.38
231.166	264.02
231.384	61.27
231.601	-16.55
231.819	180.05
232.037	18.26
232.254	1.88
232.472	1.88
232.689	69.46
232.907	186.19
233.125	137.04
233.342	26.45
233.56	-0.17
233.777	53.08
233.995	16.21
234.213	147.28
234.43	85.84
234.648	87.89
234.865	-30.89
235.083	77.65
235.3	67.41
235.518	91.99
235.735	163.67
235.953	51.03
236.17	-57.51
236.388	-26.79
236.605	91.99
236.822	79.7
237.04	108.37
237.257	65.36
237.475	5.97
237.692	48.98
237.909	96.08
238.127	85.84
238.344	53.08
238.562	139.09
238.779	-65.71
238.996	1.88
239.214	91.99
239.431	85.84
239.648	20.31
239.865	85.84
240.083	63.32
240.3	79.7
240.517	8.02
240.735	-8.36
240.952	89.94
241.169	38.74
241.386	63.32
241.603	120.66
241.821	-86.19
242.038	91.99
242.255	102.23
242.472	-2.22
242.689	55.12
242.907	98.13
243.124	20.31
243.341	61.27
243.558	48.98
243.775	-73.9
243.992	-45.23
244.209	120.66
244.426	210.77
244.643	18.26
244.86	28.5
245.078	132.95
245.295	73.56
245.512	24.4
245.729	48.98
245.946	132.95
246.163	96.08
246.38	63.32
246.597	110.42
246.814	89.94
247.031	24.4
247.248	-22.7
247.464	141.14
247.681	108.37
247.898	98.13
248.115	89.94
248.332	3.93
248.549	157.52
248.766	153.43
248.983	94.04
249.2	167.76
249.417	171.86
249.633	38.74
249.85	65.36
250.067	114.52
250.284	102.23
250.501	1.88
250.717	141.14
250.934	53.08
251.151	96.08
251.368	38.74
251.585	108.37
251.801	122.71
252.018	20.31
252.235	182.1
252.451	38.74
252.668	63.32
252.885	159.57
253.102	40.79
253.318	71.51
253.535	28.5
253.752	18.26
253.968	-14.51
254.185	-106.67
254.401	135
254.618	124.76
254.835	18.26
255.051	161.62
255.268	81.75
255.484	48.98
255.701	53.08
255.917	51.03
256.134	14.17
256.351	63.32
256.567	-26.79
256.784	91.99
257	-37.03
257.217	257.87
257.433	126.8
257.65	108.37
257.866	153.43
258.082	53.08
258.299	24.4
258.515	71.51
258.732	42.84
258.948	22.36
259.165	81.75
259.381	14.17
259.597	75.6
259.814	44.88
260.03	22.36
260.246	5.97
260.463	151.38
260.679	79.7
260.895	98.13
261.112	96.08
261.328	83.8
261.544	-30.89
261.761	153.43
261.977	42.84
262.193	-39.08
262.409	169.81
262.626	173.91
262.842	18.26
263.058	14.17
263.274	118.61
263.49	40.79
263.707	59.22
263.923	48.98
264.139	-47.27
264.355	26.45
264.571	128.85
264.787	94.04
265.004	73.56
265.22	34.64
265.436	-32.94
265.652	110.42
265.868	96.08
266.084	-4.27
266.3	57.17
266.516	-28.84
266.732	36.69
266.948	53.08
267.164	-18.6
267.38	126.8
267.596	147.28
267.812	216.91
268.028	81.75
268.244	-63.66
268.46	96.08
268.676	40.79
268.892	73.56
269.108	-18.6
269.324	20.31
269.54	-80.04
269.756	143.19
269.972	-28.84
270.188	61.27
270.403	16.21
270.619	112.47
270.835	157.52
271.051	12.12
271.267	-0.17
271.483	5.97
271.698	108.37
271.914	59.22
272.13	-10.41
272.346	22.36
272.562	5.97
272.777	91.99
272.993	-4.27
273.209	-43.18
273.425	53.08
273.64	-77.99
273.856	169.81
274.072	36.69
274.287	12.12
274.503	122.71
274.719	122.71
274.934	14.17
275.15	-2.22
275.366	-28.84
275.581	-18.6
275.797	98.13
276.012	59.22
276.228	1.88
276.444	53.08
276.659	85.84
276.875	22.36
277.09	106.32
277.306	-73.9
277.521	120.66
277.737	73.56
277.952	81.75
278.168	190.29
278.383	51.03
278.599	53.08
278.814	104.28
279.03	91.99
279.245	194.39
279.461	55.12
279.676	194.39
279.892	-6.31
280.107	-32.94
280.322	26.45
280.538	89.94
280.753	63.32
280.969	79.7
281.184	75.6
281.399	196.43
281.615	42.84
281.83	212.82
282.045	-71.85
282.26	46.93
282.476	46.93
282.691	44.88
282.906	108.37
283.122	96.08
283.337	-6.31
283.552	120.66
283.767	55.12
283.983	118.61
284.198	38.74
284.413	46.93
284.628	-14.51
284.843	89.94
285.058	108.37
285.274	124.76
285.489	-6.31
285.704	65.36
285.919	-0.17
286.134	-28.84
286.349	14.17
286.564	38.74
286.779	102.23
286.995	69.46
287.21	14.17
287.425	155.47
287.64	18.26
287.855	-18.6
288.07	-71.85
288.285	128.85
288.5	163.67
288.715	116.56
288.93	51.03
289.145	-14.51
289.36	188.24
289.575	61.27
289.79	126.8
290.004	85.84
290.219	157.52
290.434	-88.23
290.649	-41.13
290.864	55.12
291.079	16.21
291.294	94.04
291.509	85.84
291.724	91.99
291.938	63.32
292.153	83.8
292.368	57.17
292.583	100.18
292.798	91.99
293.012	61.27
293.227	130.9
293.442	91.99
293.657	114.52
293.871	175.95
294.086	87.89
294.301	130.9
294.516	196.43
294.73	71.51
294.945	12.12
295.16	102.23
295.374	141.14
295.589	28.5
295.804	24.4
296.018	79.7
296.233	169.81
296.447	110.42
296.662	-47.27
296.877	104.28
297.091	12.12
297.306	16.21
297.52	71.51
297.735	83.8
297.949	16.21
298.164	32.6
298.378	-53.42
298.593	24.4
298.807	16.21
299.022	-22.7
299.236	266.07
299.451	18.26
299.665	16.21
299.88	46.93
300.094	116.56
300.309	-22.7
300.523	85.84
300.737	69.46
300.952	118.61
301.166	77.65
301.381	-22.7
301.595	-69.8
301.809	69.46
302.024	122.71
302.238	-45.23
302.452	124.76
302.667	8.02
302.881	175.95
303.095	89.94
303.309	120.66
303.524	42.84
303.738	48.98
303.952	16.21
304.166	69.46
304.381	-37.03
304.595	241.49
304.809	-14.51
305.023	51.03
305.237	5.97
305.452	48.98
305.666	65.36
305.88	38.74
306.094	137.04
306.308	182.1
306.522	57.17
306.736	130.9
306.95	71.51
307.164	16.21
307.379	22.36
307.593	128.85
307.807	182.1
308.021	132.95
308.235	128.85
308.449	-47.27
308.663	40.79
308.877	163.67
309.091	106.32
309.305	71.51
309.519	-118.95
309.733	204.63
309.947	-32.94
310.161	89.94
310.374	151.38
310.588	163.67
310.802	-2.22
311.016	16.21
311.23	57.17
311.444	-2.22
311.658	55.12
311.872	141.14
312.085	141.14
312.299	132.95
312.513	159.57
312.727	100.18
312.941	-12.46
313.154	32.6
313.368	69.46
313.582	20.31
313.796	42.84
314.009	108.37
314.223	132.95
314.437	155.47
314.651	102.23
314.864	-28.84
315.078	14.17
315.292	-24.75
315.505	63.32
315.719	69.46
315.933	112.47
316.146	-16.55
316.36	16.21
316.573	135
316.787	22.36
317.001	-10.41
317.214	16.21
317.428	48.98
317.641	-82.09
317.855	46.93
318.068	57.17
318.282	85.84
318.495	202.58
318.709	173.91
318.922	28.5
319.136	167.76
319.349	89.94
319.563	94.04
319.776	85.84
319.99	-34.99
320.203	59.22
320.417	53.08
320.63	104.28
320.843	206.67
321.057	75.6
321.27	61.27
321.483	79.7
321.697	184.15
321.91	100.18
322.124	51.03
322.337	91.99
322.55	57.17
322.763	26.45
322.977	42.84
323.19	38.74
323.403	24.4
323.617	163.67
323.83	106.32
324.043	61.27
324.256	42.84
324.469	-28.84
324.683	178
324.896	14.17
325.109	73.56
325.322	-55.47
325.535	94.04
325.748	108.37
325.962	-12.46
326.175	120.66
326.388	69.46
326.601	149.33
326.814	20.31
327.027	36.69
327.24	208.72
327.453	-32.94
327.666	91.99
327.879	112.47
328.092	159.57
328.305	63.32
328.518	44.88
328.731	69.46
328.944	26.45
329.157	102.23
329.37	48.98
329.583	167.76
329.796	135
330.009	-63.66
330.222	128.85
330.435	110.42
330.648	124.76
330.861	34.64
331.073	98.13
331.286	114.52
331.499	18.26
331.712	20.31
331.925	38.74
332.138	32.6
332.35	73.56
332.563	61.27
332.776	153.43
332.989	18.26
333.202	83.8
333.414	118.61
333.627	46.93
333.84	71.51
334.053	124.76
334.265	75.6
334.478	73.56
334.691	30.55
334.903	130.9
335.116	18.26
335.329	-37.03
335.541	106.32
335.754	137.04
335.966	24.4
336.179	40.79
336.392	57.17
336.604	18.26
336.817	100.18
337.029	83.8
337.242	8.02
337.454	157.52
337.667	73.56
337.88	190.29
338.092	98.13
338.305	159.57
338.517	-22.7
338.729	57.17
338.942	151.38
339.154	3.93
339.367	20.31
339.579	116.56
339.792	-12.46
340.004	124.76
340.217	12.12
340.429	118.61
340.641	-18.6
340.854	-12.46
341.066	12.12
341.278	130.9
341.491	173.91
341.703	30.55
341.915	-69.8
342.128	57.17
342.34	48.98
342.552	-69.8
342.764	-24.75
342.977	61.27
343.189	79.7
343.401	69.46
343.613	-67.75
343.826	130.9
344.038	-22.7
344.25	126.8
344.462	89.94
344.674	85.84
344.886	36.69
345.099	57.17
345.311	75.6
345.523	61.27
345.735	-24.75
345.947	53.08
346.159	65.36
346.371	16.21
346.583	132.95
346.795	212.82
347.007	83.8
347.219	157.52
347.431	-2.22
347.643	157.52
347.855	34.64
348.067	135
348.279	12.12
348.491	67.41
348.703	104.28
348.915	98.13
349.127	-24.75
349.339	48.98
349.551	42.84
349.763	173.91
349.975	75.6
350.187	223.06
350.399	106.32
350.61	77.65
350.822	28.5
351.034	100.18
351.246	65.36
351.458	118.61
351.669	98.13
351.881	124.76
352.093	163.67
352.305	106.32
352.517	73.56
352.728	161.62
352.94	46.93
353.152	108.37
353.363	-67.75
353.575	94.04
353.787	130.9
353.999	16.21
354.21	173.91
354.422	22.36
354.633	-4.27
354.845	59.22
355.057	188.24
355.268	26.45
355.48	208.72
355.692	-14.51
355.903	79.7
356.115	18.26
356.326	-59.56
356.538	122.71
356.749	135
356.961	137.04
357.172	20.31
357.384	-30.89
357.595	202.58
357.807	-24.75
358.018	28.5
358.23	14.17
358.441	208.72
358.653	110.42
358.864	8.02
359.075	122.71
359.287	81.75
359.498	91.99
359.709	89.94
359.921	-16.55
360.132	163.67
360.344	-6.31
360.555	8.02
360.766	1.88
360.977	89.94
361.189	89.94
361.4	20.31
361.611	186.19
361.823	169.81
362.034	120.66
362.245	-32.94
362.456	116.56
362.667	216.91
362.879	-10.41
363.09	55.12
363.301	57.17
363.512	26.45
363.723	12.12
363.935	16.21
364.146	104.28
364.357	-6.31
364.568	53.08
364.779	30.55
364.99	167.76
365.201	18.26
365.412	118.61
365.623	-34.99
365.834	96.08
366.045	89.94
366.256	96.08
366.467	91.99
366.678	-8.36
366.889	-6.31
367.1	-6.31
367.311	210.77
367.522	-61.61
367.733	91.99
367.944	110.42
368.155	20.31
368.366	155.47
368.577	180.05
368.788	153.43
368.999	-39.08
369.209	110.42
369.42	227.15
369.631	257.87
369.842	126.8
370.053	63.32
370.264	132.95
370.474	-16.55
370.685	83.8
370.896	34.64
371.107	100.18
371.317	30.55
371.528	42.84
371.739	85.84
371.95	91.99
372.16	59.22
372.371	-32.94
372.582	-28.84
372.792	124.76
373.003	87.89
373.214	85.84
373.424	167.76
373.635	-34.99
373.846	223.06
374.056	36.69
374.267	73.56
374.477	38.74
374.688	10.07
374.898	81.75
375.109	18.26
375.319	98.13
375.53	149.33
375.74	186.19
375.951	38.74
376.161	112.47
376.372	91.99
376.582	18.26
376.793	79.7
377.003	-43.18
377.214	-37.03
377.424	38.74
377.635	61.27
377.845	3.93
378.055	141.14
378.266	-61.61
378.476	75.6
378.686	-2.22
378.897	63.32
379.107	155.47
379.317	102.23
379.528	10.07
379.738	180.05
379.948	-0.17
380.158	139.09
380.369	24.4
380.579	73.56
380.789	44.88
380.999	46.93
381.21	108.37
381.42	153.43
381.63	75.6
381.84	94.04
382.05	-2.22
382.261	175.95
382.471	153.43
382.681	63.32
382.891	155.47
383.101	94.04
383.311	-24.75
383.521	26.45
383.731	67.41
383.941	167.76
384.151	59.22
384.361	98.13
384.571	130.9
384.781	65.36
384.991	270.16
385.201	87.89
385.411	120.66
385.621	81.75
385.831	137.04
386.041	61.27
386.251	116.56
386.461	153.43
386.671	34.64
386.881	40.79
387.091	77.65
387.301	118.61
387.511	-2.22
387.72	167.76
387.93	32.6
388.14	32.6
388.35	48.98
388.56	51.03
388.769	61.27
388.979	67.41
389.189	40.79
389.399	34.64
389.609	120.66
389.818	153.43
390.028	22.36
390.238	100.18
390.447	-0.17
390.657	147.28
390.867	102.23
391.076	16.21
391.286	98.13
391.496	48.98
391.705	120.66
391.915	182.1
392.125	147.28
392.334	22.36
392.544	130.9
392.753	61.27
392.963	-30.89
393.172	55.12
393.382	-6.31
393.591	135
393.801	1.88
394.01	175.95
394.22	151.38
394.429	53.08
394.639	81.75
394.848	-0.17
395.058	1.88
395.267	61.27
395.477	118.61
395.686	89.94
395.895	167.76
396.105	210.77
396.314	73.56
396.524	79.7
396.733	61.27
396.942	81.75
397.152	126.8
397.361	83.8
397.57	71.51
397.78	124.76
397.989	130.9
398.198	192.34
398.407	59.22
398.617	48.98
398.826	116.56
399.035	63.32
399.244	69.46
399.453	63.32
399.663	79.7
399.872	130.9
400.081	22.36
400.29	161.62
400.499	24.4
400.708	98.13
400.917	65.36
401.127	40.79
401.336	-28.84
401.545	161.62
401.754	145.24
401.963	227.15
402.172	-43.18
402.381	26.45
402.59	22.36
402.799	5.97
403.008	178
403.217	112.47
403.426	122.71
403.635	-22.7
403.844	94.04
404.053	81.75
404.262	53.08
404.471	204.63
404.68	137.04
404.888	51.03
405.097	53.08
405.306	57.17
405.515	122.71
405.724	85.84
405.933	149.33
406.142	91.99
406.35	120.66
406.559	71.51
406.768	42.84
406.977	194.39
407.185	57.17
407.394	122.71
407.603	16.21
407.812	94.04
408.02	175.95
408.229	98.13
408.438	5.97
408.646	-39.08
408.855	124.76
409.064	73.56
409.272	75.6
409.481	98.13
409.69	18.26
409.898	34.64
410.107	149.33
410.315	118.61
410.524	-8.36
410.733	98.13
410.941	112.47
411.15	112.47
411.358	188.24
411.567	216.91
411.775	83.8
411.984	22.36
412.192	85.84
412.401	65.36
412.609	130.9
412.818	53.08
413.026	102.23
413.234	98.13
413.443	1.88
413.651	12.12
413.86	89.94
414.068	120.66
414.276	241.49
414.485	48.98
414.693	194.39
414.901	261.97
415.11	63.32
415.318	55.12
415.526	96.08
415.734	147.28
415.943	67.41
416.151	143.19
416.359	104.28
416.567	153.43
416.776	106.32
416.984	171.86
417.192	85.84
417.4	51.03
417.608	40.79
417.817	69.46
418.025	67.41
418.233	171.86
418.441	-55.47
418.649	73.56
418.857	128.85
419.065	184.15
419.273	-12.46
419.481	57.17
419.689	77.65
419.897	77.65
420.105	44.88
420.313	157.52
420.521	141.14
420.729	153.43
420.937	-4.27
421.145	14.17
421.353	108.37
421.561	155.47
421.769	38.74
421.977	53.08
422.185	147.28
422.393	114.52
422.601	182.1
422.809	77.65
423.017	79.7
423.224	75.6
423.432	192.34
423.64	26.45
423.848	153.43
424.056	67.41
424.263	108.37
424.471	132.95
424.679	184.15
424.887	46.93
425.094	196.43
425.302	69.46
425.51	124.76
425.718	163.67
425.925	87.89
426.133	28.5
426.341	202.58
426.548	118.61
426.756	118.61
426.964	130.9
427.171	79.7
427.379	128.85
427.586	110.42
427.794	110.42
428.001	184.15
428.209	106.32
428.417	171.86
428.624	118.61
428.832	87.89
429.039	40.79
429.247	116.56
429.454	171.86
429.662	241.49
429.869	137.04
430.076	161.62
430.284	208.72
430.491	208.72
430.699	135
430.906	169.81
431.114	167.76
431.321	143.19
431.528	135
431.736	175.95
431.943	145.24
432.15	161.62
432.358	178
432.565	327.5
432.772	42.84
432.979	264.02
433.187	159.57
433.394	292.69
433.601	192.34
433.808	192.34
434.016	259.92
434.223	239.44
434.43	300.88
434.637	296.78
434.844	317.26
435.052	288.59
435.259	319.31
435.466	384.85
435.673	218.96
435.88	298.83
436.087	409.42
436.294	386.9
436.501	388.94
436.708	266.07
436.915	307.02
437.122	376.66
437.329	251.73
437.537	309.07
437.743	196.43
437.95	495.44
438.157	403.28
438.364	466.77
438.571	431.95
438.778	436.05
438.985	501.58
439.192	505.68
439.399	544.59
439.606	528.21
439.813	577.36
440.02	665.42
440.227	634.7
440.433	603.98
440.64	491.34
440.847	468.81
441.054	710.47
441.261	786.25
441.467	669.52
441.674	587.6
441.881	753.48
442.088	700.23
442.294	831.3
442.501	847.69
442.708	847.69
442.914	810.82
443.121	894.79
443.328	939.85
443.534	1025.86
443.741	945.99
443.948	950.09
444.154	1111.88
444.361	1271.62
444.568	991.05
444.774	1066.82
444.981	1099.59
445.187	1333.06
445.394	1247.04
445.6	1275.71
445.807	1335.1
446.013	1335.1
446.22	1431.36
446.426	1488.7
446.633	1611.58
446.839	1756.99
447.046	1562.43
447.252	1691.45
447.459	1679.16
447.665	1607.48
447.871	1935.16
448.078	2047.8
448.284	2006.84
448.491	2127.67
448.697	2289.46
448.903	2219.83
449.11	2320.18
449.316	2336.56
449.522	2555.69
449.728	2584.37
449.935	2713.39
450.141	2713.39
450.347	3024.68
450.553	2969.38
450.76	3006.25
450.966	3041.06
451.172	3215.14
451.378	3362.59
451.584	3430.18
451.791	3589.92
451.997	3614.49
452.203	3675.93
452.409	3944.22
452.615	4222.74
452.821	4077.34
453.027	4093.72
453.233	4638.48
453.44	4624.14
453.646	4736.78
453.852	4898.57
454.058	5084.94
454.264	5203.72
454.47	5596.93
454.676	5527.3
454.882	6162.17
455.088	5846.78
455.294	6133.5
455.5	6520.56
455.705	6997.74
455.911	6893.29
456.117	7177.96
456.323	7257.83
456.529	7491.3
456.735	8025.82
456.941	8220.38
457.147	8574.67
457.352	8883.92
457.558	9086.67
457.764	9582.28
457.97	9778.88
458.176	10186.43
458.381	10888.88
458.587	10915.5
458.793	11468.45
458.999	11493.03
459.204	13008.53
459.41	13446.79
459.616	13158.03
459.821	13983.36
460.027	14564.98
460.233	15132.27
460.438	15470.19
460.644	16205.41
460.85	16213.6
461.055	17000.02
461.261	17917.51
461.466	17481.29
461.672	18032.19
461.878	20121.12
462.083	19678.76
462.289	20186.66
462.494	20491.8
462.7	20870.68
462.905	21308.94
463.111	23133.68
463.316	24202.72
463.522	24604.13
463.727	25052.63
463.932	26215.88
464.138	27252.15
464.343	28517.79
464.549	28425.64
464.754	30717.31
464.959	31135.1
465.165	31712.63
465.37	31180.15
465.575	31384.95
465.781	33647.96
465.986	34590.02
466.191	33951.06
466.397	34643.27
466.602	33824.08
466.807	35554.61
467.012	36222.25
467.218	36721.96
467.423	36650.28
467.628	37711.13
467.833	39789.81
468.038	39183.62
468.244	37809.43
468.449	40150.26
468.654	39423.23
468.859	39410.94
469.064	39343.36
469.269	38143.25
469.474	38395.15
469.679	39867.64
469.885	38745.35
470.09	39349.5
470.295	38978.82
470.5	38106.38
470.705	38802.69
470.91	37426.46
471.115	37047.58
471.32	37752.09
471.525	37565.72
471.73	36207.92
471.935	36009.26
472.139	34415.94
472.344	34919.74
472.549	34620.74
472.754	33744.21
472.959	32937.31
473.164	32152.94
473.369	31378.81
473.574	32144.75
473.778	31745.39
473.983	31192.44
474.188	30619.01
474.393	28769.69
474.598	29406.61
474.802	28401.06
475.007	28159.4
475.212	27766.19
475.417	26504.64
475.621	26586.56
475.826	26119.62
476.031	25511.38
476.235	24991.19
476.44	24808.92
476.645	24511.97
476.849	24430.05
477.054	23674.35
477.259	23274.99
477.463	23143.92
477.668	22629.88
477.872	22562.3
478.077	22103.56
478.282	20911.64
478.486	21024.28
478.691	20833.82
478.895	20497.95
479.1	20264.48
479.304	20274.72
479.509	19592.75
479.713	20112.93
479.918	19248.69
480.122	18951.73
480.326	19142.19
480.531	19269.17
480.735	18683.45
480.94	18419.26
481.144	19297.84
481.348	17849.92
481.553	18292.29
481.757	17583.69
481.961	18054.72
482.166	18046.53
482.37	18083.39
482.574	17378.89
482.778	17514.06
482.983	17669.7
483.187	17309.26
483.391	17077.84
483.595	16813.65
483.8	16686.68
484.004	16756.31
484.208	16721.49
484.412	16588.38
484.616	16254.56
484.821	16092.77
485.025	15627.88
485.229	15902.31
485.433	15332.97
485.637	15238.76
485.841	14995.06
486.045	15052.4
486.249	14861.94
486.453	14214.78
486.657	14466.68
486.861	14231.16
487.065	13594.25
487.269	13688.45
487.473	13319.82
487.677	13364.87
487.881	13239.95
488.085	12727.96
488.289	12746.39
488.493	12232.35
488.697	12172.96
488.901	12068.51
489.105	11597.48
489.309	11513.51
489.512	11429.54
489.716	11026.09
489.92	11026.09
490.124	10698.42
490.328	10692.27
490.531	10249.91
490.735	10469.05
490.939	10141.37
491.143	9768.64
491.346	9758.4
491.55	9395.91
491.754	9514.69
491.958	9416.39
492.161	9121.48
492.365	9150.15
492.569	8806.09
492.772	8812.24
492.976	8715.98
493.18	8574.67
493.383	8347.35
493.587	8433.36
493.79	8300.25
493.994	8060.63
494.197	8046.3
494.401	8011.48
494.605	7884.51
494.808	8029.91
495.012	7722.72
495.215	7724.77
495.419	7689.95
495.622	7530.21
495.825	7573.22
496.029	7509.73
496.232	7614.18
496.436	7419.62
496.639	7618.27
496.843	7515.87
497.046	7448.29
497.249	7571.17
497.453	7497.44
497.656	7462.63
497.859	7546.59
498.063	7528.16
498.266	7661.28
498.469	7294.69
498.673	7558.88
498.876	7470.82
499.079	7640.8
499.282	7554.79
499.485	7991
499.689	7628.51
499.892	7806.69
500.095	7628.51
500.298	7823.07
500.501	7530.21
500.705	8027.87
500.908	7816.93
501.111	7958.24
501.314	8263.38
501.517	8455.89
501.72	8480.47
501.923	8298.2
502.126	8459.99
502.329	8779.47
502.532	8687.31
502.735	8765.14
502.938	9055.95
503.141	9121.48
503.344	9215.69
503.547	9250.5
503.75	9313.99
503.953	9199.3
504.156	9451.21
504.359	9578.18
504.562	9701.06
504.765	10104.51
504.968	10194.62
505.17	10254.01
505.373	10565.3
505.576	10731.19
505.779	10688.18
505.982	10999.47
506.185	11136.68
506.387	11333.29
506.59	11497.13
506.793	11802.27
506.996	11925.15
507.198	12232.35
507.401	12310.17
507.604	12738.19
507.807	12738.19
508.009	13065.87
508.212	13256.33
508.415	13614.73
508.617	13672.07
508.82	14208.64
509.022	14286.46
509.225	14698.1
509.428	15165.04
509.63	15437.42
509.833	15486.57
510.035	16236.13
510.238	16375.39
510.44	16465.5
510.643	17204.81
510.845	17647.18
511.048	17796.68
511.25	18060.87
511.453	18486.84
511.655	19562.03
511.858	19578.41
512.06	20004.39
512.262	20219.42
512.465	20334.11
512.667	21157.39
512.87	21861.9
513.072	22076.93
513.274	22736.38
513.477	23121.4
513.679	23725.55
513.881	24215.01
514.084	24747.48
514.286	25161.17
514.488	25538
514.69	26699.2
514.893	26817.98
515.095	27434.42
515.297	28220.84
515.499	28308.9
515.701	29568.4
515.904	29719.95
516.106	30516.61
516.308	30938.49
516.51	31669.62
516.712	32109.93
516.914	32679.27
517.116	33772.88
517.318	34196.81
517.52	34465.1
517.722	35097.92
517.925	36095.28
518.127	36762.92
518.329	37672.21
518.531	37772.56
518.733	38434.06
518.935	38931.72
519.136	39625.98
519.338	40455.4
519.54	40774.89
519.742	41669.85
519.944	41995.48
520.146	42886.34
520.348	43355.33
520.55	43934.9
520.752	44041.4
520.954	45442.21
521.155	45032.61
521.357	45786.27
521.559	46419.09
521.761	47314.05
521.963	47338.63
522.164	48182.39
522.366	48036.98
522.568	48634.99
522.77	48698.48
522.971	49675.36
523.173	49744.99
523.375	49968.22
523.576	49871.96
523.778	50201.69
523.98	50680.91
524.181	50719.82
524.383	51074.12
524.584	51565.63
524.786	51313.73
524.988	51043.4
525.189	51639.36
525.391	51543.11
525.592	51967.04
525.794	51571.78
525.995	51778.62
526.197	51528.77
526.398	51639.36
526.6	51493.96
526.801	51424.32
527.003	51381.32
527.204	51207.24
527.406	51780.67
527.607	50517.07
527.808	50603.09
528.01	49632.35
528.211	50031.71
528.412	50068.57
528.614	49388.64
528.815	49261.67
529.016	49083.5
529.218	48143.48
529.419	48340.08
529.62	47256.71
529.822	47305.86
530.023	46896.27
530.224	46544.02
530.425	46283.92
530.626	45075.62
530.828	44324.02
531.029	45024.42
531.23	44455.09
531.431	43713.72
531.632	43119.81
531.833	42865.86
532.035	41854.17
532.236	41931.99
532.437	41528.54
532.638	40711.4
532.839	40228.08
533.04	39941.36
533.241	38927.62
533.442	39490.81
533.643	38665.48
533.844	37917.97
534.045	37594.39
534.246	36816.16
534.447	36445.48
534.648	35632.44
534.849	35243.32
535.05	34942.27
535.251	34284.87
535.451	33944.91
535.652	33662.29
535.853	33052
536.054	32337.26
536.255	32410.98
536.456	31540.6
536.657	31337.85
536.857	30684.55
537.058	30692.74
537.259	30123.4
537.46	29963.66
537.66	28988.83
537.861	29025.69
538.062	28505.51
538.263	28171.69
538.463	27807.15
538.664	27293.11
538.865	27033.02
539.065	26834.36
539.266	26463.68
539.466	26105.29
539.667	25519.57
539.868	25845.19
540.068	25531.86
540.269	24905.18
540.469	24831.45
540.67	24155.62
540.87	24004.07
541.071	23723.5
541.271	23551.47
541.472	23455.22
541.672	23090.68
541.873	22756.86
542.073	22025.73
542.274	22328.83
542.474	21831.18
542.675	21698.06
542.875	21462.54
543.075	21194.26
543.276	20723.23
543.476	20653.59
543.676	20321.82
543.877	20264.48
544.077	20045.35
544.277	19963.43
544.478	19480.11
544.678	19445.29
544.878	19082.8
545.078	18945.59
545.279	18452.03
545.479	18341.44
545.679	18431.55
545.879	18140.74
546.079	17913.41
546.28	17684.04
546.48	17364.56
546.68	17305.17
546.88	17118.8
547.08	16871
547.28	16655.96
547.48	16402.01
547.68	16305.76
547.88	16094.82
548.081	15926.88
548.281	15478.38
548.481	15304.3
548.681	15459.95
548.881	15019.63
549.081	14741.11
549.28	14538.36
549.48	14526.07
549.68	14513.78
549.88	14001.79
550.08	13756.04
550.28	13657.73
550.48	13434.5
550.68	13350.54
550.88	13016.72
551.08	12809.87
551.279	12750.48
551.479	12453.53
551.679	12433.05
551.879	12170.91
552.079	11830.94
552.278	11792.03
552.478	11771.55
552.678	11364.01
552.878	11351.72
553.077	11110.06
553.277	10772.14
553.477	10870.45
553.676	10663.6
553.876	10430.13
554.076	10211
554.275	10368.7
554.475	9795.26
554.674	10194.62
554.874	9633.47
555.074	9567.94
555.273	9266.89
555.473	9410.25
555.672	9041.61
555.872	9010.89
556.071	8888.01
556.271	8853.2
556.47	8603.35
556.67	8447.7
556.869	8191.7
557.068	8027.87
557.268	8054.49
557.467	7814.88
557.667	7886.56
557.866	7661.28
558.065	7485.16
558.265	7380.71
558.464	7349.99
558.663	7270.12
558.863	6993.64
559.062	6991.59
559.261	6680.3
559.461	6786.8
559.66	6522.61
559.859	6440.69
560.058	6364.92
560.258	6178.55
560.457	6252.28
560.656	6135.54
560.855	5949.18
561.054	5992.19
561.253	5865.21
561.453	5781.25
561.652	5558.02
561.851	5748.48
562.05	5322.5
562.249	5426.95
562.448	5291.78
562.647	5140.23
562.846	5185.29
563.045	5084.94
563.244	5041.93
563.443	4980.49
563.642	4704.01
563.841	4812.56
564.04	4667.15
564.239	4560.66
564.438	4536.08
564.637	4341.52
564.836	4335.38
565.035	4380.43
565.234	4245.27
565.432	4249.36
565.631	4189.97
565.83	4163.35
566.029	4003.61
566.228	3991.32
566.427	4038.42
566.625	3708.7
566.824	3882.78
567.023	3749.66
567.222	3591.97
567.42	3720.99
567.619	3587.87
567.818	3581.73
568.016	3657.5
568.215	3413.79
568.414	3381.03
568.612	3381.03
568.811	3440.42
569.01	3309.35
569.208	3141.41
569.407	3282.72
569.605	3127.08
569.804	3049.25
570.002	3106.6
570.201	2936.62
570.4	2965.29
570.598	2887.47
570.797	2864.94
570.995	2801.45
571.193	2873.13
571.392	2733.87
571.59	2674.48
571.789	2715.44
571.987	2684.72
572.186	2631.47
572.384	2531.12
572.582	2584.37
572.781	2400.05
572.979	2359.09
573.177	2375.47
573.376	2350.9
573.574	2500.4
573.772	2264.88
573.971	2203.44
574.169	2166.58
574.367	2213.68
574.565	2170.68
574.763	2051.89
574.962	2076.47
575.16	1998.65
575.358	1935.16
575.556	2021.17
575.754	1883.96
575.952	1773.37
576.151	1961.78
576.349	1939.26
576.547	1781.56
576.745	1806.14
576.943	1812.28
577.141	1730.36
577.339	1595.2
577.537	1617.72
577.735	1748.79
577.933	1718.08
578.131	1580.86
578.329	1699.64
578.527	1513.28
578.725	1580.86
578.923	1494.85
579.121	1597.24
579.319	1363.78
579.516	1408.83
579.714	1591.1
579.912	1406.78
580.11	1279.81
580.308	1269.57
580.506	1453.89
580.704	1175.36
580.901	1226.56
581.099	1429.31
581.297	1255.23
581.495	1283.91
581.692	1328.96
581.89	1333.06
582.088	1216.32
582.285	1199.94
582.483	1097.54
582.681	1118.02
582.878	1132.36
583.076	1132.36
583.274	1109.83
583.471	1302.34
583.669	931.66
583.866	1023.81
584.064	995.14
584.262	884.55
584.459	952.13
584.657	1034.05
584.854	1050.44
585.052	1062.73
585.249	980.81
585.447	978.76
585.644	771.91
585.841	1044.29
586.039	921.42
586.236	976.71
586.434	773.96
586.631	786.25
586.828	884.55
587.026	802.63
587.223	821.06
587.42	794.44
587.618	823.11
587.815	806.73
588.012	718.67
588.21	730.95
588.407	788.3
588.604	794.44
588.801	724.81
588.999	804.68
589.196	884.55
589.393	644.94
589.59	739.15
589.787	720.71
589.984	692.04
590.182	714.57
590.379	626.51
590.576	661.32
590.773	687.95
590.97	532.3
591.167	751.43
591.364	730.95
591.561	599.88
591.758	761.67
591.955	814.92
592.152	616.27
592.349	636.75
592.546	667.47
592.743	640.84
592.94	683.85
593.137	696.14
593.334	657.23
593.531	847.69
593.727	724.81
593.924	644.94
594.121	575.31
594.318	599.88
594.515	747.34
594.712	825.16
594.908	767.82
595.105	653.13
595.302	776.01
595.499	773.96
595.696	806.73
595.892	706.38
596.089	847.69
596.286	733
596.482	894.79
596.679	841.54
596.876	773.96
597.072	896.84
597.269	802.63
597.466	960.33
597.662	790.35
597.859	870.22
598.055	968.52
598.252	995.14
598.448	1007.43
598.645	1083.2
598.841	1187.65
599.038	1240.9
599.234	1267.52
599.431	1318.72
599.627	1308.48
599.824	1281.86
600.02	1324.87
600.217	1449.79
600.413	1417.02
600.609	1650.49
600.806	1873.72
601.002	1587.01
601.198	1699.64
601.395	1855.29
601.591	1703.74
601.787	1824.57
601.984	2115.38
602.18	2041.65
602.376	2189.11
602.572	2299.7
602.769	2309.94
602.965	2352.95
603.161	2545.45
603.357	2500.4
603.553	2744.11
603.75	2541.36
603.946	2752.3
604.142	2811.69
604.338	3000.1
604.534	2991.91
604.73	3129.13
604.926	3215.14
605.122	3356.45
605.318	3247.91
605.514	3602.21
605.71	3565.34
605.906	3733.28
606.102	3811.1
606.298	3954.46
606.494	3913.5
606.69	4210.45
606.886	4312.85
607.082	4386.58
607.278	4507.41
607.474	4683.53
607.67	4810.51
607.866	4749.07
608.062	5125.9
608.257	4998.92
608.453	5306.12
608.649	5439.23
608.845	5527.3
609.041	5627.65
609.236	5830.4
609.432	6072.06
609.628	6162.17
609.824	6360.82
610.019	6455.03
610.215	6555.38
610.411	6944.49
610.606	7290.6
610.802	7034.6
610.998	7452.39
611.193	7763.68
611.389	7821.02
611.584	8085.21
611.78	8066.78
611.976	8414.93
612.171	8660.69
612.367	8935.12
612.562	9098.95
612.758	9094.86
612.953	9283.27
613.149	9832.13
613.344	10008.25
613.539	10180.28
613.735	10456.76
613.93	10817.2
614.126	11099.82
614.321	11552.42
614.517	11816.61
614.712	11888.29
614.907	12172.96
615.103	12560.02
615.298	13129.36
615.493	13242
615.688	13235.85
615.884	14096
616.079	14136.96
616.274	14837.36
616.47	14929.52
616.665	15396.46
616.86	15638.12
617.055	16014.94
617.25	16391.77
617.445	16719.45
617.641	16926.29
617.836	17772.1
618.031	17995.33
618.226	18753.08
618.421	18757.18
618.616	19418.67
618.811	19433
619.006	20338.21
619.201	20454.94
619.396	21089.81
619.591	21083.67
619.786	22046.21
619.981	22234.63
620.176	23092.72
620.371	23164.4
620.566	23793.13
620.761	24282.59
620.956	25060.82
621.151	25103.83
621.346	26033.61
621.541	25943.5
621.735	26824.12
621.93	26922.43
622.125	27489.71
622.32	27700.65
622.515	28777.89
622.709	28966.3
622.904	29930.89
623.099	30358.92
623.294	30780.8
623.488	31171.96
623.683	31708.53
623.878	31733.11
624.072	32746.85
624.267	33068.38
624.462	33799.51
624.656	34094.41
624.851	34807.11
625.046	35374.39
625.24	35394.87
625.435	35853.62
625.629	36603.17
625.824	36687.14
626.018	37541.14
626.213	37035.3
626.407	38130.96
626.602	38014.23
626.796	38868.23
626.991	38937.86
627.185	39367.93
627.38	39404.8
627.574	39335.17
627.768	39746.81
627.963	39763.19
628.157	39812.34
628.352	40090.87
628.546	39781.62
628.74	40146.16
628.935	39711.99
629.129	39916.79
629.323	39331.07
629.517	39288.06
629.712	38835.46
629.906	38690.05
630.1	38067.47
630.294	38055.18
630.489	36984.1
630.683	37033.25
630.877	35532.09
631.071	35388.73
631.265	34882.88
631.459	34170.19
631.653	33353.05
631.848	32699.75
632.042	31550.84
632.236	31214.97
632.43	29797.77
632.624	29525.39
632.818	28054.95
633.012	27024.82
633.206	26217.93
633.4	25851.34
633.594	24237.54
633.788	23999.98
633.982	22996.47
634.176	22300.16
634.369	21077.52
634.563	20381.21
634.757	19422.76
634.951	19025.46
635.145	18357.82
635.339	17692.23
635.533	16678.49
635.726	16307.8
635.92	15609.45
636.114	14622.33
636.308	14257.79
636.501	13833.86
636.695	13139.6
636.889	12598.93
637.083	12011.17
637.276	11382.44
637.47	10856.11
637.664	10600.12
637.857	10264.25
638.051	9920.19
638.244	9361.09
638.438	9006.8
638.632	8847.05
638.825	8326.87
639.019	8216.28
639.212	7655.14
639.406	7294.69
639.599	6924.01
639.793	6799.09
639.986	6446.83
640.18	6412.02
640.373	6139.64
640.567	5846.78
640.76	5646.08
640.954	5383.94
641.147	5156.61
641.34	5029.64
641.534	4923.15
641.727	4710.16
641.92	4466.45
642.114	4251.41
642.307	4128.53
642.5	4022.04
642.694	3639.07
642.887	3725.08
643.08	3645.21
643.273	3315.49
643.467	3266.34
643.66	3086.12
643.853	2916.14
644.046	2776.87
644.239	2797.35
644.432	2563.89
644.626	2578.22
644.819	2451.25
645.012	2371.38
645.205	2436.91
645.398	2195.25
645.591	2113.33
645.784	2131.76
645.977	1908.54
646.17	1910.58
646.363	1828.67
646.556	1738.55
646.749	1576.77
646.942	1644.35
647.135	1705.79
647.328	1462.08
647.521	1443.65
647.714	1445.7
647.907	1433.41
648.099	1216.32
648.292	1333.06
648.485	1259.33
648.678	1140.55
648.871	1140.55
649.064	1122.12
649.256	925.51
649.449	911.18
649.642	868.17
649.835	884.55
650.027	812.87
650.22	931.66
650.413	902.98
650.605	935.75
650.798	769.87
650.991	745.29
651.183	739.15
651.376	745.29
651.568	790.35
651.761	606.03
651.954	649.04
652.146	526.16
652.339	759.63
652.531	599.88
652.724	563.02
652.916	421.71
653.109	423.76
653.301	587.6
653.494	628.56
653.686	577.36
653.879	628.56
654.071	483.15
654.263	376.66
654.456	417.61
654.648	468.81
654.84	460.62
655.033	423.76
655.225	585.55
655.417	171.86
655.61	538.45
655.802	413.52
655.994	534.35
656.186	270.16
656.379	472.91
656.571	288.59
656.763	337.74
656.955	249.68
657.148	315.22
657.34	407.38
657.532	343.89
657.724	272.21
657.916	329.55
658.108	438.09
658.3	350.03
658.492	292.69
658.684	298.83
658.876	388.94
659.068	247.63
659.26	110.42
659.452	192.34
659.644	255.83
659.836	386.9
660.028	302.93
660.22	239.44
660.412	288.59
660.604	223.06
660.796	257.87
660.988	266.07
661.18	206.67
661.372	261.97
661.563	124.76
661.755	221.01
661.947	184.15
662.139	171.86
662.331	243.54
662.522	229.2
662.714	137.04
662.906	126.8
663.097	124.76
663.289	116.56
663.481	83.8
663.673	155.47
663.864	67.41
664.056	249.68
664.247	100.18
664.439	231.25
664.631	130.9
664.822	255.83
665.014	151.38
665.205	184.15
665.397	182.1
665.588	114.52
665.78	120.66
665.971	218.96
666.163	159.57
666.354	169.81
666.546	108.37
666.737	196.43
666.929	132.95
667.12	163.67
667.311	221.01
667.503	227.15
667.694	180.05
667.885	159.57
668.077	151.38
668.268	110.42
668.459	120.66
668.651	161.62
668.842	221.01
669.033	96.08
669.224	10.07
669.416	272.21
669.607	12.12
669.798	91.99
669.989	221.01
670.18	77.65
670.371	188.24
670.563	38.74
670.754	225.11
670.945	126.8
671.136	233.3
671.327	106.32
671.518	161.62
671.709	227.15
671.9	161.62
672.091	225.11
672.282	122.71
672.473	161.62
672.664	83.8
672.855	137.04
673.046	194.39
673.237	194.39
673.428	98.13
673.619	204.63
673.809	132.95
674	149.33
674.191	214.87
674.382	106.32
674.573	108.37
674.764	85.84
674.954	231.25
675.145	63.32
675.336	102.23
675.527	100.18
675.717	61.27
675.908	108.37
676.099	100.18
676.289	204.63
676.48	83.8
676.671	175.95
676.861	124.76
677.052	163.67
677.243	24.4
677.433	167.76
677.624	194.39
677.814	149.33
678.005	98.13
678.195	264.02
678.386	36.69
678.576	186.19
678.767	44.88
678.957	122.71
679.148	151.38
679.338	227.15
679.529	180.05
679.719	145.24
679.909	132.95
680.1	194.39
680.29	165.71
680.481	28.5
680.671	241.49
680.861	159.57
681.052	282.45
681.242	91.99
681.432	182.1
681.622	245.59
681.813	124.76
682.003	165.71
682.193	122.71
682.383	200.53
682.573	221.01
682.764	98.13
682.954	286.54
683.144	292.69
683.334	69.46
683.524	196.43
683.714	251.73
683.904	223.06
684.094	233.3
684.284	188.24
684.474	300.88
684.664	245.59
684.854	212.82
685.044	229.2
685.234	159.57
685.424	141.14
685.614	110.42
685.804	237.39
685.994	276.31
686.184	184.15
686.374	218.96
686.564	159.57
686.753	280.4
686.943	114.52
687.133	116.56
687.323	149.33
687.513	221.01
687.702	272.21
687.892	75.6
688.082	296.78
688.272	274.26
688.461	196.43
688.651	284.5
688.841	247.63
689.03	145.24
689.22	216.91
689.41	292.69
689.599	137.04
689.789	85.84
689.979	290.64
690.168	165.71
690.358	276.31
690.547	178
690.737	294.74
690.926	212.82
691.116	261.97
691.305	274.26
691.495	259.92
691.684	149.33
691.874	200.53
692.063	155.47
692.252	212.82
692.442	249.68
692.631	120.66
692.82	151.38
693.01	180.05
693.199	157.52
693.388	255.83
693.578	178
693.767	239.44
693.956	307.02
694.146	194.39
694.335	237.39
694.524	116.56
694.713	204.63
694.902	169.81
695.092	210.77
695.281	272.21
695.47	157.52
695.659	194.39
695.848	165.71
696.037	159.57
696.226	286.54
696.415	147.28
696.604	313.17
696.793	270.16
696.982	227.15
697.171	317.26
697.36	178
697.549	186.19
697.738	26.45
697.927	151.38
698.116	135
698.305	192.34
698.494	175.95
698.683	178
698.872	307.02
699.061	149.33
699.25	200.53
699.438	214.87
699.627	155.47
699.816	331.6
700.005	20.31
700.193	188.24
700.382	235.35
700.571	214.87
700.76	229.2
700.948	186.19
701.137	237.39
701.326	245.59
701.514	200.53
701.703	210.77
701.892	184.15
702.08	376.66
702.269	202.58
702.457	116.56
702.646	223.06
702.834	165.71
703.023	235.35
703.212	182.1
703.4	196.43
703.589	116.56
703.777	216.91
703.965	130.9
704.154	186.19
704.342	135
704.531	108.37
704.719	225.11
704.907	229.2
705.096	169.81
705.284	114.52
705.472	235.35
705.661	186.19
705.849	253.78
706.037	218.96
706.226	161.62
706.414	194.39
706.602	159.57
706.79	212.82
706.979	137.04
707.167	169.81
707.355	20.31
707.543	184.15
707.731	202.58
707.919	192.34
708.107	180.05
708.296	169.81
708.484	200.53
708.672	190.29
708.86	159.57
709.048	165.71
709.236	98.13
709.424	229.2
709.612	251.73
709.8	130.9
709.988	233.3
710.176	276.31
710.364	280.4
710.551	163.67
710.739	198.48
710.927	173.91
711.115	204.63
711.303	335.7
711.491	241.49
711.679	147.28
711.866	255.83
712.054	192.34
712.242	229.2
712.43	347.98
712.617	116.56
712.805	274.26
712.993	85.84
713.181	161.62
713.368	237.39
713.556	167.76
713.744	149.33
713.931	280.4
714.119	192.34
714.306	135
714.494	178
714.682	202.58
714.869	128.85
715.057	159.57
715.244	46.93
715.432	204.63
715.619	190.29
715.807	155.47
715.994	208.72
716.182	180.05
716.369	247.63
716.556	218.96
716.744	67.41
716.931	91.99
717.119	223.06
717.306	241.49
717.493	235.35
717.681	141.14
717.868	171.86
718.055	253.78
718.242	198.48
718.43	274.26
718.617	218.96
718.804	196.43
718.991	333.65
719.179	182.1
719.366	304.98
719.553	223.06
719.74	259.92
719.927	202.58
720.114	204.63
720.301	112.47
720.488	161.62
720.676	139.09
720.863	272.21
721.05	315.22
721.237	325.46
721.424	227.15
721.611	274.26
721.798	102.23
721.985	171.86
722.172	198.48
722.358	178
722.545	266.07
722.732	253.78
722.919	182.1
723.106	225.11
723.293	198.48
723.48	214.87
723.667	135
723.853	239.44
724.04	319.31
724.227	323.41
724.414	214.87
724.6	270.16
724.787	333.65
724.974	431.95
725.161	194.39
725.347	110.42
725.534	225.11
725.72	210.77
725.907	304.98
726.094	300.88
726.28	122.71
726.467	145.24
726.653	182.1
726.84	352.08
727.027	325.46
727.213	223.06
727.4	249.68
727.586	155.47
727.773	221.01
727.959	300.88
728.145	239.44
728.332	192.34
728.518	188.24
728.705	255.83
728.891	294.74
729.077	249.68
729.264	171.86
729.45	180.05
729.636	259.92
729.823	274.26
730.009	339.79
730.195	218.96
730.382	206.67
730.568	186.19
730.754	304.98
730.94	206.67
731.126	268.11
731.313	229.2
731.499	216.91
731.685	292.69
731.871	304.98
732.057	227.15
732.243	296.78
732.429	261.97
732.615	319.31
732.801	210.77
732.987	184.15
733.173	257.87
733.359	194.39
733.545	335.7
733.731	261.97
733.917	329.55
734.103	274.26
734.289	253.78
734.475	192.34
734.661	325.46
734.847	266.07
735.033	290.64
735.219	274.26
735.404	165.71
735.59	266.07
735.776	237.39
735.962	192.34
736.148	253.78
736.333	313.17
736.519	200.53
736.705	274.26
736.89	302.93
737.076	257.87
737.262	204.63
737.447	278.35
737.633	221.01
737.819	261.97
738.004	202.58
738.19	231.25
738.375	302.93
738.561	268.11
738.747	253.78
738.932	153.43
739.118	427.85
739.303	294.74
739.489	296.78
739.674	173.91
739.859	190.29
740.045	274.26
740.23	261.97
740.416	147.28
740.601	317.26
740.786	266.07
740.972	130.9
741.157	249.68
741.342	227.15
741.528	143.19
741.713	350.03
741.898	237.39
742.084	128.85
742.269	239.44
742.454	255.83
742.639	290.64
742.824	229.2
743.01	352.08
743.195	321.36
743.38	323.41
743.565	229.2
743.75	331.6
743.935	255.83
744.12	327.5
744.305	188.24
744.49	186.19
744.675	237.39
744.86	259.92
745.045	309.07
745.23	276.31
745.415	178
745.6	380.75
745.785	319.31
745.97	317.26
746.155	245.59
746.34	292.69
746.525	206.67
746.71	290.64
746.895	118.61
747.079	104.28
747.264	163.67
747.449	276.31
747.634	317.26
747.819	319.31
748.003	202.58
748.188	128.85
748.373	247.63
748.557	337.74
748.742	182.1
748.927	313.17
749.111	200.53
749.296	151.38
749.481	218.96
749.665	251.73
749.85	196.43
750.034	227.15
750.219	200.53
750.404	163.67
750.588	259.92
750.773	67.41
750.957	112.47
751.141	171.86
751.326	180.05
751.51	130.9
751.695	167.76
751.879	180.05
752.064	382.8
752.248	196.43
752.432	309.07
752.617	257.87
752.801	182.1
752.985	161.62
753.17	206.67
753.354	175.95
753.538	214.87
753.722	112.47
753.907	175.95
754.091	79.7
754.275	268.11
754.459	100.18
754.643	153.43
754.828	171.86
755.012	184.15
755.196	77.65
755.38	253.78
755.564	157.52
755.748	194.39
755.932	196.43
756.116	132.95
756.3	175.95
756.484	128.85
756.668	206.67
756.852	-30.89
757.036	169.81
757.22	180.05
757.404	149.33
757.588	153.43
757.772	173.91
757.956	180.05
758.14	321.36
758.323	73.56
758.507	147.28
758.691	126.8
758.875	163.67
759.059	204.63
759.242	118.61
759.426	190.29
759.61	245.59
759.794	135
759.977	241.49
760.161	309.07
760.345	313.17
760.528	167.76
760.712	108.37
760.895	104.28
761.079	122.71
761.263	44.88
761.446	106.32
761.63	192.34
761.813	221.01
761.997	46.93
762.18	132.95
762.364	171.86
762.547	61.27
762.731	44.88
762.914	67.41
763.098	182.1
763.281	128.85
763.464	63.32
763.648	89.94
763.831	100.18
764.015	36.69
764.198	91.99
764.381	30.55
764.564	118.61
764.748	225.11
764.931	163.67
765.114	81.75
765.297	212.82
765.481	87.89
765.664	104.28
765.847	77.65
766.03	184.15
766.213	73.56
766.397	55.12
766.58	65.36
766.763	124.76
766.946	42.84
767.129	122.71
767.312	24.4
767.495	1.88
767.678	122.71
767.861	98.13
768.044	110.42
768.227	75.6
768.41	96.08
768.593	147.28
768.776	194.39
768.959	126.8
769.142	100.18
769.324	104.28
769.507	104.28
769.69	69.46
769.873	12.12
770.056	319.31
770.239	91.99
770.421	241.49
770.604	165.71
770.787	8.02
770.97	153.43
771.152	104.28
771.335	137.04
771.518	42.84
771.7	141.14
771.883	196.43
772.066	48.98
772.248	59.22
772.431	221.01
772.613	130.9
772.796	61.27
772.978	141.14
773.161	169.81
773.343	18.26
773.526	40.79
773.708	-73.9
773.891	-8.36
774.073	85.84
774.256	104.28
774.438	192.34
774.621	79.7
774.803	67.41
774.985	-34.99
775.168	73.56
775.35	38.74
775.532	81.75
775.715	-16.55
775.897	108.37
776.079	108.37
776.261	110.42
776.444	30.55
776.626	59.22
776.808	16.21
776.99	-16.55
777.173	71.51
777.355	143.19
777.537	108.37
777.719	114.52
777.901	77.65
778.083	46.93
778.265	108.37
778.447	94.04
778.629	3.93
778.811	63.32
778.993	120.66
779.175	143.19
779.357	91.99
779.539	-41.13
779.721	26.45
779.903	135
780.085	83.8
780.267	96.08
780.449	145.24
780.631	147.28
780.812	139.09
780.994	42.84
781.176	30.55
781.358	73.56
781.54	81.75
781.721	171.86
781.903	85.84
782.085	36.69
782.267	87.89
782.448	75.6
782.63	10.07
782.812	124.76
782.993	102.23
783.175	89.94
783.357	130.9
783.538	69.46
783.72	-2.22
783.901	36.69
784.083	8.02
784.264	48.98
784.446	8.02
784.627	-49.32
784.809	223.06
784.99	-6.31
785.172	77.65
785.353	3.93
785.535	-14.51
785.716	14.17
785.897	14.17
786.079	-4.27
786.26	12.12
786.441	132.95
786.623	-37.03
786.804	1.88
786.985	51.03
787.167	55.12
787.348	1.88
787.529	-10.41
787.71	147.28
787.891	79.7
788.073	30.55
788.254	20.31
788.435	145.24
788.616	3.93
788.797	28.5
788.978	32.6
789.159	20.31
789.34	65.36
789.522	63.32
789.703	-37.03
789.884	22.36
790.065	32.6
790.246	188.24
790.427	-24.75
790.607	147.28
790.788	120.66
790.969	14.17
791.15	114.52
791.331	85.84
791.512	63.32
791.693	-2.22
791.874	24.4
792.054	182.1
792.235	57.17
792.416	53.08
792.597	-34.99
792.778	132.95
792.958	8.02
793.139	28.5
793.32	44.88
793.5	59.22
793.681	98.13
793.862	12.12
794.042	8.02
794.223	-45.23
794.404	-43.18
794.584	8.02
794.765	61.27
794.945	10.07
795.126	-18.6
795.306	151.38
795.487	3.93
795.667	28.5
795.848	65.36
796.028	65.36
796.209	22.36
796.389	182.1
796.57	46.93
796.75	-49.32
796.93	-49.32
797.111	-14.51
797.291	-24.75
797.471	135
797.652	-34.99
797.832	-80.04
798.012	110.42
798.192	32.6
798.373	-51.37
798.553	-55.47
798.733	-4.27
798.913	18.26
799.093	46.93
799.274	40.79
799.454	67.41
799.634	36.69
799.814	128.85
799.994	102.23
800.174	40.79
800.354	-53.42
800.534	-67.75
800.714	3.93
800.894	-10.41
801.074	42.84
801.254	-8.36
801.434	120.66
801.614	8.02
801.794	-41.13
801.974	1933.11
802.154	-41.13
802.334	85.84
802.514	-37.03
802.693	10.07
802.873	-43.18
803.053	59.22
803.233	46.93
803.413	20.31
803.592	57.17
803.772	-24.75
803.952	91.99
804.131	-20.65
804.311	108.37
804.491	83.8
804.67	16.21
804.85	-18.6
805.03	57.17
805.209	98.13
805.389	-110.76
805.568	65.36
805.748	20.31
805.928	32.6
806.107	79.7
806.287	81.75
806.466	48.98
806.646	-55.47
806.825	-12.46
807.004	-28.84
807.184	77.65
807.363	57.17
807.543	53.08
807.722	5.97
807.901	57.17
808.081	98.13
808.26	-106.67
808.439	-10.41
808.619	51.03
808.798	16.21
808.977	-8.36
809.156	48.98
809.336	57.17
809.515	132.95
809.694	-24.75
809.873	-69.8
810.052	75.6
810.231	151.38
810.411	73.56
810.59	51.03
810.769	57.17
810.948	89.94
811.127	-65.71
811.306	-18.6
811.485	34.64
811.664	171.86
811.843	36.69
812.022	67.41
812.201	53.08
812.38	16.21
812.559	8.02
812.737	69.46
812.916	-20.65
813.095	-0.17
813.274	94.04
813.453	40.79
813.632	26.45
813.811	57.17
813.989	-161.96
814.168	75.6
814.347	-63.66
814.526	40.79
814.704	178
814.883	110.42
815.062	-12.46
815.24	73.56
815.419	-135.34
815.598	77.65
815.776	-59.56
815.955	3.93
816.133	-49.32
816.312	94.04
816.49	-18.6
816.669	77.65
816.847	34.64
817.026	14.17
817.204	-2.22
817.383	28.5
817.561	14.17
817.74	63.32
817.918	46.93
818.097	-53.42
818.275	-2.22
818.453	26.45
818.632	-30.89
818.81	57.17
818.988	34.64
819.167	-73.9
819.345	38.74
819.523	8.02
819.701	42.84
819.879	75.6
820.058	48.98
820.236	36.69
820.414	12.12
820.592	12.12
820.77	22.36
820.948	5.97
821.127	-26.79
821.305	-0.17
821.483	24.4
821.661	73.56
821.839	75.6
822.017	-30.89
822.195	-0.17
822.373	44.88
822.551	40.79
822.729	75.6
822.907	-45.23
823.085	57.17
823.262	-0.17
823.44	26.45
823.618	-73.9
823.796	-2.22
823.974	-55.47
824.152	-14.51
824.329	48.98
824.507	30.55
824.685	59.22
824.863	46.93
825.04	-43.18
825.218	81.75
825.396	94.04
825.574	46.93
825.751	83.8
825.929	55.12
826.107	-96.43
826.284	120.66
826.462	36.69
826.639	-16.55
826.817	-69.8
826.994	55.12
827.172	-14.51
827.349	126.8
827.527	-30.89
827.704	75.6
827.882	153.43
828.059	-10.41
828.237	24.4
828.414	114.52
828.591	-90.28
828.769	22.36
828.946	36.69
829.124	61.27
829.301	122.71
829.478	-45.23
829.655	30.55
829.833	-32.94
830.01	-75.95
830.187	44.88
830.364	-26.79
830.542	30.55
830.719	87.89
830.896	155.47
831.073	46.93
831.25	14.17
831.427	126.8
831.604	12.12
831.782	20.31
831.959	38.74
832.136	1.88
832.313	57.17
832.49	-14.51
832.667	85.84
832.844	-82.09
833.021	124.76
833.198	30.55
833.374	51.03
833.551	51.03
833.728	53.08
833.905	77.65
834.082	-63.66
834.259	55.12
834.436	128.85
834.612	-4.27
834.789	87.89
834.966	20.31
835.143	108.37
835.319	-73.9
835.496	89.94
835.673	71.51
835.85	100.18
836.026	75.6
836.203	59.22
836.38	-10.41
836.556	5.97
836.733	-39.08
836.909	85.84
837.086	14.17
837.262	-100.52
837.439	16.21
837.616	-0.17
837.792	10.07
837.968	14.17
838.145	-125.1
838.321	5.97
838.498	108.37
838.674	81.75
838.851	-28.84
839.027	-2.22
839.203	32.6
839.38	51.03
839.556	-6.31
839.732	24.4
839.909	-0.17
840.085	112.47
840.261	-24.75
840.437	16.21
840.614	-22.7
840.79	110.42
840.966	73.56
841.142	46.93
841.318	-22.7
841.494	10.07
841.671	155.47
841.847	-10.41
842.023	-2.22
842.199	55.12
842.375	98.13
842.551	-59.56
842.727	-112.81
842.903	124.76
843.079	-69.8
843.255	96.08
843.431	16.21
843.607	14.17
843.783	-131.24
843.959	53.08
844.134	-43.18
844.31	-0.17
844.486	-18.6
844.662	20.31
844.838	-2.22
845.013	3.93
845.189	102.23
845.365	8.02
845.541	83.8
845.716	20.31
845.892	143.19
846.068	-65.71
846.244	-65.71
846.419	20.31
846.595	-43.18
846.77	-4.27
846.946	116.56
847.122	85.84
847.297	-30.89
847.473	130.9
847.648	5.97
847.824	14.17
847.999	-69.8
848.175	46.93
848.35	69.46
848.526	87.89
848.701	87.89
848.876	59.22
849.052	91.99
849.227	38.74
849.403	65.36
849.578	36.69
849.753	63.32
849.929	81.75
850.104	-94.38
850.279	26.45
850.454	79.7
850.63	14.17
850.805	102.23
850.98	71.51
851.155	61.27
851.33	24.4
851.505	18.26
851.681	130.9
851.856	-22.7
852.031	44.88
852.206	94.04
852.381	-65.71
852.556	-55.47
852.731	63.32
852.906	100.18
853.081	-4.27
853.256	159.57
853.431	22.36
853.606	-32.94
853.781	-41.13
853.956	-104.62
854.131	44.88
854.305	8.02
854.48	3.93
854.655	-135.34
854.83	5.97
855.005	-12.46
855.18	-8.36
855.354	-69.8
855.529	34.64
855.704	-41.13
855.879	77.65
856.053	-34.99
856.228	42.84
856.403	-67.75
856.577	5.97
856.752	5.97
856.926	40.79
857.101	-26.79
857.276	16.21
857.45	55.12
857.625	36.69
857.799	1.88
857.974	22.36
858.148	-166.06
858.323	104.28
858.497	12.12
858.672	14.17
858.846	26.45
859.02	108.37
859.195	-12.46
859.369	-32.94
859.543	16.21
859.718	-39.08
859.892	71.51
860.066	-8.36
860.241	75.6
860.415	-6.31
860.589	-18.6
860.763	-39.08
860.938	65.36
861.112	116.56
861.286	5.97
861.46	1.88
861.634	-34.99
861.808	48.98
861.982	-45.23
862.157	-30.89
862.331	-65.71
862.505	-61.61
862.679	-69.8
862.853	-41.13
863.027	-143.53
863.201	120.66
863.375	-43.18
863.549	61.27
863.722	40.79
863.896	114.52
864.07	-37.03
864.244	-49.32
864.418	59.22
864.592	18.26
864.766	12.12
864.939	-8.36
865.113	22.36
865.287	51.03
865.461	-39.08
865.634	32.6
865.808	-14.51
865.982	-47.27
866.156	32.6
866.329	-94.38
866.503	51.03
866.676	73.56
866.85	-10.41
867.024	-26.79
867.197	143.19
867.371	46.93
867.544	-0.17
867.718	-133.29
867.891	67.41
868.065	-77.99
868.238	3.93
868.412	75.6
868.585	-4.27
868.759	65.36
868.932	-43.18
869.105	-18.6
869.279	-32.94
869.452	-0.17
869.625	190.29
869.799	-28.84
869.972	-92.33
870.145	-26.79
870.319	16.21
870.492	36.69
870.665	-6.31
870.838	16.21
871.011	-57.51
871.185	-45.23
871.358	-77.99
871.531	100.18
871.704	-59.56
871.877	-77.99
872.05	-6.31
872.223	-41.13
872.396	79.7
872.569	20.31
872.742	-98.47
872.915	81.75
873.088	38.74
873.261	-41.13
873.434	71.51
873.607	-61.61
873.78	67.41
873.953	-55.47
874.126	-4.27
874.299	71.51
874.471	10.07
874.644	16.21
874.817	94.04
874.99	126.8
875.163	114.52
875.335	59.22
875.508	8.02
875.681	102.23
875.853	24.4
876.026	-22.7
876.199	81.75
876.371	10.07
876.544	1.88
876.717	10.07
876.889	-28.84
877.062	18.26
877.234	-100.52
877.407	10.07
877.579	85.84
877.752	59.22
877.924	1.88
878.097	-30.89
878.269	67.41
878.442	69.46
878.614	14.17
878.786	5.97
878.959	77.65
879.131	75.6
879.303	-92.33
879.476	65.36
879.648	89.94
879.82	55.12
879.993	-41.13
880.165	-10.41
880.337	-69.8
880.509	-24.75
880.681	-43.18
880.854	-32.94
881.026	112.47
881.198	100.18
881.37	-18.6
881.542	40.79
881.714	14.17
881.886	-37.03
882.058	8.02
882.23	16.21
882.402	-82.09
882.574	38.74
882.746	61.27
882.918	147.28
883.09	77.65
883.262	10.07
883.434	59.22
883.606	-131.24
883.778	55.12
883.95	85.84
884.122	36.69
884.293	110.42
884.465	18.26
884.637	118.61
884.809	20.31
884.98	106.32
885.152	98.13
885.324	63.32
885.496	-6.31
885.667	16.21
885.839	32.6
886.011	141.14
886.182	44.88
886.354	104.28
886.525	1.88
886.697	40.79
886.869	-57.51
887.04	57.17
887.212	71.51
887.383	112.47
887.555	149.33
887.726	-86.19
887.897	28.5
888.069	-53.42
888.24	67.41
888.412	10.07
888.583	34.64
888.754	16.21
888.926	-90.28
889.097	-26.79
889.268	10.07
889.44	5.97
889.611	-184.49
889.782	-55.47
889.953	-106.67
890.125	89.94
890.296	-116.9
890.467	-49.32
890.638	24.4
890.809	-24.75
890.98	28.5
891.151	16.21
891.323	89.94
891.494	20.31
891.665	-4.27
891.836	63.32
892.007	-18.6
892.178	81.75
892.349	89.94
892.52	-34.99
892.691	20.31
892.862	-20.65
893.032	-92.33
893.203	-22.7
893.374	20.31
893.545	79.7
893.716	-32.94
893.887	67.41
894.057	-96.43
894.228	40.79
894.399	-14.51
894.57	180.05
894.74	-80.04
894.911	106.32
895.082	-22.7
895.253	-82.09
895.423	61.27
895.594	114.52
895.764	77.65
895.935	-59.56
896.106	85.84
896.276	-8.36
896.447	55.12
896.617	-32.94
896.788	-14.51
896.958	-28.84
897.129	48.98
897.299	20.31
897.47	79.7
897.64	12.12
897.81	-18.6
897.981	65.36
898.151	-37.03
898.322	26.45
898.492	53.08
898.662	-86.19
898.832	53.08
899.003	12.12
899.173	110.42
899.343	-6.31
899.513	-8.36
