Data from USB4F104151__252__11-20-05-534.txt Node

Date: Wed Feb 26 11:20:05 EST 2025
User: louis
Spectrometer: USB4F10415
Trigger mode: 4
Integration Time (sec): 1.000000E-1
Scans to average: 1
Electric dark correction enabled: true
Nonlinearity correction enabled: false
Boxcar width: 0
XAxis mode: Wavelengths
Number of Pixels in Spectrum: 3648
>>>>>Begin Spectral Data<<<<<
178.204	-411.13
178.424	-411.13
178.644	-411.13
178.864	-435.71
179.084	-378.36
179.304	-44.54
179.524	-15.87
179.744	96.77
179.964	49.66
180.184	31.23
180.404	-71.17
180.624	-79.36
180.844	-34.3
181.064	-69.12
181.283	2.56
181.503	45.57
181.723	88.57
181.943	-26.11
182.163	223.74
182.383	-22.02
182.602	94.72
182.822	107.01
183.042	51.71
183.262	-40.45
183.482	86.53
183.701	14.85
183.921	27.14
184.141	-50.69
184.361	68.09
184.58	33.28
184.8	-3.58
185.02	25.09
185.239	127.49
185.459	143.87
185.679	80.38
185.898	-71.17
186.118	61.95
186.338	72.19
186.557	37.38
186.777	41.47
186.997	-24.06
187.216	8.7
187.436	188.93
187.655	113.15
187.875	59.9
188.095	27.14
188.314	150.01
188.534	107.01
188.753	-48.64
188.973	133.63
189.192	201.21
189.412	57.86
189.631	29.18
189.851	78.33
190.07	86.53
190.29	6.66
190.509	82.43
190.729	25.09
190.948	94.72
191.168	188.93
191.387	0.51
191.607	35.33
191.826	94.72
192.045	68.09
192.265	10.75
192.484	70.14
192.704	66.05
192.923	-58.88
193.142	133.63
193.362	86.53
193.581	127.49
193.8	33.28
194.02	-28.16
194.239	84.48
194.458	51.71
194.678	45.57
194.897	35.33
195.116	-13.82
195.335	53.76
195.555	115.2
195.774	49.66
195.993	156.16
196.212	84.48
196.432	-26.11
196.651	8.7
196.87	61.95
197.089	215.55
197.308	31.23
197.528	35.33
197.747	-34.3
197.966	133.63
198.185	147.97
198.404	-32.26
198.623	141.82
198.842	145.92
199.062	113.15
199.281	74.24
199.5	14.85
199.719	109.05
199.938	98.81
200.157	111.1
200.376	84.48
200.595	139.77
200.814	49.66
201.033	8.7
201.252	61.95
201.471	78.33
201.69	66.05
201.909	57.86
202.128	88.57
202.347	57.86
202.566	29.18
202.785	-19.97
203.004	-42.5
203.223	242.17
203.442	109.05
203.661	25.09
203.879	57.86
204.098	90.62
204.317	8.7
204.536	137.73
204.755	80.38
204.974	158.21
205.193	111.1
205.411	129.53
205.63	104.96
205.849	111.1
206.068	-73.21
206.287	8.7
206.505	174.59
206.724	25.09
206.943	-38.4
207.162	-58.88
207.381	109.05
207.599	84.48
207.818	27.14
208.037	-52.74
208.255	57.86
208.474	47.62
208.693	23.04
208.911	-11.78
209.13	113.15
209.349	156.16
209.567	64
209.786	57.86
210.005	102.91
210.223	-22.02
210.442	-71.17
210.661	-5.63
210.879	23.04
211.098	96.77
211.316	6.66
211.535	37.38
211.753	84.48
211.972	92.67
212.191	23.04
212.409	16.9
212.628	209.4
212.846	-7.68
213.065	10.75
213.283	131.58
213.502	23.04
213.72	55.81
213.938	10.75
214.157	29.18
214.375	162.3
214.594	41.47
214.812	145.92
215.031	35.33
215.249	92.67
215.467	37.38
215.686	74.24
215.904	98.81
216.122	31.23
216.341	133.63
216.559	27.14
216.778	49.66
216.996	150.01
217.214	53.76
217.432	-30.21
217.651	-17.92
217.869	84.48
218.087	53.76
218.306	92.67
218.524	37.38
218.742	100.86
218.96	94.72
219.179	88.57
219.397	59.9
219.615	250.36
219.833	51.71
220.051	-52.74
220.27	113.15
220.488	64
220.706	86.53
220.924	51.71
221.142	39.42
221.36	55.81
221.578	147.97
221.796	-40.45
222.015	55.81
222.233	-9.73
222.451	213.5
222.669	-7.68
222.887	70.14
223.105	18.94
223.323	-3.58
223.541	-62.98
223.759	111.1
223.977	16.9
224.195	139.77
224.413	31.23
224.631	55.81
224.849	49.66
225.067	209.4
225.285	43.52
225.503	41.47
225.721	-22.02
225.939	4.61
226.157	53.76
226.375	254.46
226.592	14.85
226.81	68.09
227.028	125.44
227.246	92.67
227.464	94.72
227.682	18.94
227.9	109.05
228.117	-17.92
228.335	51.71
228.553	6.66
228.771	-3.58
228.989	33.28
229.206	162.3
229.424	12.8
229.642	45.57
229.86	-7.68
230.077	96.77
230.295	55.81
230.513	131.58
230.731	51.71
230.948	215.55
231.166	113.15
231.384	57.86
231.601	-5.63
231.819	164.35
232.037	0.51
232.254	-28.16
232.472	86.53
232.689	-42.5
232.907	76.29
233.125	-9.73
233.342	-7.68
233.56	35.33
233.777	31.23
233.995	18.94
234.213	53.76
234.43	98.81
234.648	109.05
234.865	-7.68
235.083	47.62
235.3	35.33
235.518	20.99
235.735	121.34
235.953	68.09
236.17	18.94
236.388	6.66
236.605	-22.02
236.822	135.68
237.04	133.63
237.257	74.24
237.475	-42.5
237.692	166.4
237.909	68.09
238.127	70.14
238.344	80.38
238.562	64
238.779	-28.16
238.996	-58.88
239.214	20.99
239.431	90.62
239.648	41.47
239.865	143.87
240.083	111.1
240.3	53.76
240.517	-48.64
240.735	51.71
240.952	117.25
241.169	68.09
241.386	119.29
241.603	51.71
241.821	-34.3
242.038	203.26
242.255	92.67
242.472	-52.74
242.689	57.86
242.907	129.53
243.124	12.8
243.341	20.99
243.558	-15.87
243.775	-65.02
243.992	-50.69
244.209	92.67
244.426	188.93
244.643	61.95
244.86	2.56
245.078	150.01
245.295	123.39
245.512	-9.73
245.729	-65.02
245.946	84.48
246.163	104.96
246.38	10.75
246.597	145.92
246.814	23.04
247.031	107.01
247.248	35.33
247.464	121.34
247.681	-9.73
247.898	102.91
248.115	12.8
248.332	6.66
248.549	113.15
248.766	131.58
248.983	29.18
249.2	94.72
249.417	78.33
249.633	64
249.85	127.49
250.067	41.47
250.284	74.24
250.501	55.81
250.717	68.09
250.934	-30.21
251.151	0.51
251.368	57.86
251.585	137.73
251.801	68.09
252.018	-22.02
252.235	141.82
252.451	-42.5
252.668	-38.4
252.885	84.48
253.102	33.28
253.318	90.62
253.535	37.38
253.752	-13.82
253.968	41.47
254.185	-17.92
254.401	74.24
254.618	8.7
254.835	-7.68
255.051	125.44
255.268	27.14
255.484	35.33
255.701	31.23
255.917	51.71
256.134	-28.16
256.351	16.9
256.567	-89.6
256.784	47.62
257	-83.45
257.217	117.25
257.433	150.01
257.65	78.33
257.866	197.12
258.082	0.51
258.299	-38.4
258.515	39.42
258.732	-1.54
258.948	35.33
259.165	82.43
259.381	23.04
259.597	84.48
259.814	18.94
260.03	51.71
260.246	20.99
260.463	143.87
260.679	166.4
260.895	66.05
261.112	68.09
261.328	47.62
261.544	59.9
261.761	238.08
261.977	-9.73
262.193	-30.21
262.409	88.57
262.626	-7.68
262.842	53.76
263.058	12.8
263.274	133.63
263.49	39.42
263.707	35.33
263.923	96.77
264.139	-93.69
264.355	4.61
264.571	123.39
264.787	109.05
265.004	199.16
265.22	51.71
265.436	45.57
265.652	8.7
265.868	100.86
266.084	-38.4
266.3	23.04
266.516	-19.97
266.732	61.95
266.948	18.94
267.164	-13.82
267.38	102.91
267.596	49.66
267.812	168.45
268.028	18.94
268.244	98.81
268.46	59.9
268.676	20.99
268.892	70.14
269.108	-54.78
269.324	-3.58
269.54	-19.97
269.756	53.76
269.972	-9.73
270.188	14.85
270.403	-30.21
270.619	18.94
270.835	129.53
271.051	0.51
271.267	16.9
271.483	35.33
271.698	113.15
271.914	86.53
272.13	-28.16
272.346	16.9
272.562	31.23
272.777	150.01
272.993	14.85
273.209	0.51
273.425	162.3
273.64	0.51
273.856	145.92
274.072	8.7
274.287	25.09
274.503	154.11
274.719	137.73
274.934	61.95
275.15	-99.84
275.366	72.19
275.581	-71.17
275.797	55.81
276.012	37.38
276.228	-5.63
276.444	80.38
276.659	162.3
276.875	-22.02
277.09	27.14
277.306	41.47
277.521	33.28
277.737	27.14
277.952	92.67
278.168	80.38
278.383	92.67
278.599	117.25
278.814	84.48
279.03	123.39
279.245	152.06
279.461	6.66
279.676	139.77
279.892	16.9
280.107	-11.78
280.322	20.99
280.538	39.42
280.753	23.04
280.969	64
281.184	70.14
281.399	180.73
281.615	-15.87
281.83	82.43
282.045	-83.45
282.26	-30.21
282.476	70.14
282.691	78.33
282.906	16.9
283.122	4.61
283.337	14.85
283.552	35.33
283.767	8.7
283.983	121.34
284.198	-5.63
284.413	88.57
284.628	-52.74
284.843	-26.11
285.058	113.15
285.274	88.57
285.489	8.7
285.704	115.2
285.919	43.52
286.134	86.53
286.349	86.53
286.564	0.51
286.779	139.77
286.995	-3.58
287.21	14.85
287.425	61.95
287.64	-26.11
287.855	84.48
288.07	14.85
288.285	96.77
288.5	100.86
288.715	43.52
288.93	43.52
289.145	14.85
289.36	74.24
289.575	-11.78
289.79	147.97
290.004	2.56
290.219	94.72
290.434	-32.26
290.649	4.61
290.864	27.14
291.079	43.52
291.294	20.99
291.509	49.66
291.724	-5.63
291.938	25.09
292.153	51.71
292.368	14.85
292.583	72.19
292.798	111.1
293.012	33.28
293.227	6.66
293.442	16.9
293.657	121.34
293.871	96.77
294.086	72.19
294.301	150.01
294.516	123.39
294.73	88.57
294.945	-13.82
295.16	115.2
295.374	88.57
295.589	178.69
295.804	0.51
296.018	20.99
296.233	98.81
296.447	61.95
296.662	74.24
296.877	166.4
297.091	76.29
297.306	0.51
297.52	35.33
297.735	31.23
297.949	20.99
298.164	29.18
298.378	35.33
298.593	-5.63
298.807	12.8
299.022	150.01
299.236	143.87
299.451	107.01
299.665	80.38
299.88	4.61
300.094	37.38
300.309	76.29
300.523	98.81
300.737	-15.87
300.952	90.62
301.166	49.66
301.381	-58.88
301.595	-22.02
301.809	45.57
302.024	16.9
302.238	47.62
302.452	207.36
302.667	100.86
302.881	82.43
303.095	25.09
303.309	117.25
303.524	57.86
303.738	-42.5
303.952	-5.63
304.166	80.38
304.381	-87.55
304.595	137.73
304.809	25.09
305.023	74.24
305.237	41.47
305.452	74.24
305.666	70.14
305.88	143.87
306.094	139.77
306.308	160.25
306.522	172.54
306.736	109.05
306.95	68.09
307.164	8.7
307.379	35.33
307.593	47.62
307.807	147.97
308.021	55.81
308.235	37.38
308.449	-5.63
308.663	45.57
308.877	205.31
309.091	25.09
309.305	96.77
309.519	-48.64
309.733	127.49
309.947	-19.97
310.161	18.94
310.374	102.91
310.588	66.05
310.802	-71.17
311.016	59.9
311.23	16.9
311.444	-50.69
311.658	2.56
311.872	98.81
312.085	137.73
312.299	178.69
312.513	158.21
312.727	35.33
312.941	-30.21
313.154	88.57
313.368	43.52
313.582	10.75
313.796	16.9
314.009	-9.73
314.223	117.25
314.437	84.48
314.651	104.96
314.864	-7.68
315.078	23.04
315.292	-83.45
315.505	-44.54
315.719	137.73
315.933	49.66
316.146	0.51
316.36	59.9
316.573	125.44
316.787	23.04
317.001	80.38
317.214	-62.98
317.428	-3.58
317.641	31.23
317.855	104.96
318.068	53.76
318.282	72.19
318.495	184.83
318.709	102.91
318.922	12.8
319.136	137.73
319.349	133.63
319.563	-26.11
319.776	133.63
319.99	-32.26
320.203	47.62
320.417	55.81
320.63	64
320.843	180.73
321.057	-15.87
321.27	66.05
321.483	39.42
321.697	133.63
321.91	131.58
322.124	64
322.337	64
322.55	-40.45
322.763	45.57
322.977	-40.45
323.19	-24.06
323.403	82.43
323.617	66.05
323.83	100.86
324.043	20.99
324.256	-22.02
324.469	-71.17
324.683	92.67
324.896	84.48
325.109	59.9
325.322	-19.97
325.535	107.01
325.748	55.81
325.962	119.29
326.175	18.94
326.388	-19.97
326.601	156.16
326.814	0.51
327.027	68.09
327.24	84.48
327.453	-52.74
327.666	137.73
327.879	164.35
328.092	139.77
328.305	102.91
328.518	8.7
328.731	-5.63
328.944	2.56
329.157	92.67
329.37	0.51
329.583	211.45
329.796	182.78
330.009	-73.21
330.222	102.91
330.435	76.29
330.648	2.56
330.861	64
331.073	53.76
331.286	113.15
331.499	18.94
331.712	-3.58
331.925	-28.16
332.138	94.72
332.35	111.1
332.563	74.24
332.776	129.53
332.989	-19.97
333.202	68.09
333.414	47.62
333.627	37.38
333.84	66.05
334.053	53.76
334.265	57.86
334.478	-1.54
334.691	111.1
334.903	70.14
335.116	-22.02
335.329	76.29
335.541	100.86
335.754	125.44
335.966	-60.93
336.179	166.4
336.392	45.57
336.604	72.19
336.817	121.34
337.029	41.47
337.242	82.43
337.454	113.15
337.667	92.67
337.88	180.73
338.092	37.38
338.305	-22.02
338.517	-22.02
338.729	78.33
338.942	254.46
339.154	-75.26
339.367	-42.5
339.579	51.71
339.792	-54.78
340.004	129.53
340.217	76.29
340.429	59.9
340.641	8.7
340.854	-13.82
341.066	51.71
341.278	43.52
341.491	221.69
341.703	127.49
341.915	35.33
342.128	135.68
342.34	113.15
342.552	-17.92
342.764	-30.21
342.977	35.33
343.189	145.92
343.401	23.04
343.613	-56.83
343.826	12.8
344.038	-1.54
344.25	102.91
344.462	-22.02
344.674	98.81
344.886	-52.74
345.099	111.1
345.311	16.9
345.523	8.7
345.735	-67.07
345.947	107.01
346.159	92.67
346.371	90.62
346.583	-34.3
346.795	217.6
347.007	74.24
347.219	113.15
347.431	66.05
347.643	135.68
347.855	51.71
348.067	203.26
348.279	-83.45
348.491	90.62
348.703	197.12
348.915	51.71
349.127	-71.17
349.339	-52.74
349.551	23.04
349.763	102.91
349.975	41.47
350.187	107.01
350.399	137.73
350.61	80.38
350.822	-24.06
351.034	72.19
351.246	45.57
351.458	123.39
351.669	47.62
351.881	113.15
352.093	199.16
352.305	102.91
352.517	80.38
352.728	78.33
352.94	90.62
353.152	94.72
353.363	-85.5
353.575	94.72
353.787	180.73
353.999	74.24
354.21	172.54
354.422	31.23
354.633	49.66
354.845	14.85
355.057	70.14
355.268	39.42
355.48	6.66
355.692	-22.02
355.903	29.18
356.115	-48.64
356.326	-24.06
356.538	109.05
356.749	25.09
356.961	141.82
357.172	39.42
357.384	-34.3
357.595	209.4
357.807	-69.12
358.018	18.94
358.23	-60.93
358.441	154.11
358.653	16.9
358.864	104.96
359.075	6.66
359.287	102.91
359.498	100.86
359.709	23.04
359.921	33.28
360.132	57.86
360.344	55.81
360.555	74.24
360.766	59.9
360.977	-7.68
361.189	57.86
361.4	35.33
361.611	113.15
361.823	145.92
362.034	94.72
362.245	-95.74
362.456	8.7
362.667	64
362.879	43.52
363.09	74.24
363.301	135.68
363.512	96.77
363.723	-62.98
363.935	37.38
364.146	123.39
364.357	-13.82
364.568	98.81
364.779	-42.5
364.99	223.74
365.201	-22.02
365.412	82.43
365.623	-50.69
365.834	55.81
366.045	100.86
366.256	96.77
366.467	96.77
366.678	84.48
366.889	20.99
367.1	61.95
367.311	41.47
367.522	55.81
367.733	47.62
367.944	20.99
368.155	72.19
368.366	127.49
368.577	182.78
368.788	156.16
368.999	-17.92
369.209	43.52
369.42	225.79
369.631	297.47
369.842	109.05
370.053	-28.16
370.264	129.53
370.474	-34.3
370.685	168.45
370.896	-11.78
371.107	92.67
371.317	8.7
371.528	43.52
371.739	135.68
371.95	121.34
372.16	-19.97
372.371	-34.3
372.582	18.94
372.792	61.95
373.003	111.1
373.214	66.05
373.424	137.73
373.635	-36.35
373.846	231.93
374.056	45.57
374.267	117.25
374.477	61.95
374.688	68.09
374.898	49.66
375.109	33.28
375.319	-11.78
375.53	111.1
375.74	80.38
375.951	8.7
376.161	119.29
376.372	29.18
376.582	61.95
376.793	14.85
377.003	27.14
377.214	-17.92
377.424	107.01
377.635	0.51
377.845	-3.58
378.055	150.01
378.266	-44.54
378.476	88.57
378.686	94.72
378.897	94.72
379.107	156.16
379.317	150.01
379.528	41.47
379.738	82.43
379.948	-46.59
380.158	94.72
380.369	158.21
380.579	104.96
380.789	121.34
380.999	84.48
381.21	137.73
381.42	227.84
381.63	70.14
381.84	129.53
382.05	94.72
382.261	92.67
382.471	47.62
382.681	49.66
382.891	238.08
383.101	94.72
383.311	0.51
383.521	-24.06
383.731	145.92
383.941	143.87
384.151	119.29
384.361	-32.26
384.571	78.33
384.781	25.09
384.991	188.93
385.201	107.01
385.411	88.57
385.621	84.48
385.831	49.66
386.041	35.33
386.251	37.38
386.461	129.53
386.671	45.57
386.881	74.24
387.091	-34.3
387.301	72.19
387.511	29.18
387.72	82.43
387.93	158.21
388.14	-17.92
388.35	33.28
388.56	139.77
388.769	133.63
388.979	35.33
389.189	78.33
389.399	76.29
389.609	164.35
389.818	51.71
390.028	82.43
390.238	82.43
390.447	-50.69
390.657	18.94
390.867	35.33
391.076	-73.21
391.286	113.15
391.496	139.77
391.705	78.33
391.915	219.64
392.125	84.48
392.334	25.09
392.544	172.54
392.753	135.68
392.963	-42.5
393.172	18.94
393.382	18.94
393.591	238.08
393.801	43.52
394.01	203.26
394.22	74.24
394.429	41.47
394.639	43.52
394.848	78.33
395.058	31.23
395.267	72.19
395.477	66.05
395.686	41.47
395.895	207.36
396.105	229.88
396.314	92.67
396.524	45.57
396.733	33.28
396.942	139.77
397.152	137.73
397.361	137.73
397.57	90.62
397.78	76.29
397.989	127.49
398.198	211.45
398.407	76.29
398.617	8.7
398.826	-38.4
399.035	94.72
399.244	94.72
399.453	33.28
399.663	-17.92
399.872	51.71
400.081	-19.97
400.29	100.86
400.499	47.62
400.708	154.11
400.917	29.18
401.127	-11.78
401.336	33.28
401.545	164.35
401.754	152.06
401.963	154.11
402.172	4.61
402.381	-9.73
402.59	4.61
402.799	113.15
403.008	47.62
403.217	-22.02
403.426	117.25
403.635	20.99
403.844	55.81
404.053	23.04
404.262	70.14
404.471	205.31
404.68	109.05
404.888	29.18
405.097	-22.02
405.306	98.81
405.515	94.72
405.724	33.28
405.933	111.1
406.142	115.2
406.35	113.15
406.559	-3.58
406.768	92.67
406.977	156.16
407.185	166.4
407.394	14.85
407.603	-81.41
407.812	-11.78
408.02	147.97
408.229	113.15
408.438	66.05
408.646	20.99
408.855	25.09
409.064	6.66
409.272	-54.78
409.481	139.77
409.69	-9.73
409.898	-65.02
410.107	49.66
410.315	131.58
410.524	45.57
410.733	57.86
410.941	16.9
411.15	168.45
411.358	123.39
411.567	80.38
411.775	100.86
411.984	76.29
412.192	164.35
412.401	72.19
412.609	147.97
412.818	102.91
413.026	84.48
413.234	100.86
413.443	86.53
413.651	23.04
413.86	31.23
414.068	113.15
414.276	172.54
414.485	-75.26
414.693	158.21
414.901	211.45
415.11	94.72
415.318	0.51
415.526	-3.58
415.734	92.67
415.943	88.57
416.151	72.19
416.359	86.53
416.567	64
416.776	72.19
416.984	164.35
417.192	160.25
417.4	6.66
417.608	64
417.817	-1.54
418.025	121.34
418.233	193.02
418.441	-24.06
418.649	16.9
418.857	119.29
419.065	182.78
419.273	88.57
419.481	80.38
419.689	12.8
419.897	-15.87
420.105	-42.5
420.313	92.67
420.521	115.2
420.729	135.68
420.937	115.2
421.145	-58.88
421.353	72.19
421.561	102.91
421.769	121.34
421.977	35.33
422.185	133.63
422.393	92.67
422.601	145.92
422.809	104.96
423.017	90.62
423.224	121.34
423.432	123.39
423.64	14.85
423.848	125.44
424.056	16.9
424.263	197.12
424.471	23.04
424.679	184.83
424.887	33.28
425.094	170.49
425.302	74.24
425.51	80.38
425.718	66.05
425.925	109.05
426.133	92.67
426.341	197.12
426.548	172.54
426.756	33.28
426.964	129.53
427.171	-3.58
427.379	117.25
427.586	164.35
427.794	68.09
428.001	113.15
428.209	107.01
428.417	156.16
428.624	158.21
428.832	145.92
429.039	111.1
429.247	98.81
429.454	92.67
429.662	254.46
429.869	119.29
430.076	115.2
430.284	145.92
430.491	207.36
430.699	129.53
430.906	217.6
431.114	84.48
431.321	123.39
431.528	113.15
431.736	117.25
431.943	74.24
432.15	145.92
432.358	190.97
432.565	270.84
432.772	61.95
432.979	150.01
433.187	125.44
433.394	184.83
433.601	150.01
433.808	219.64
434.016	295.42
434.223	248.32
434.43	260.6
434.637	176.64
434.844	358.91
435.052	242.17
435.259	309.76
435.466	272.89
435.673	285.18
435.88	336.38
436.087	307.71
436.294	356.86
436.501	303.61
436.708	266.75
436.915	352.76
437.122	322.04
437.329	397.82
437.537	432.63
437.743	268.8
437.95	463.35
438.157	444.92
438.364	414.2
438.571	389.63
438.778	453.11
438.985	397.82
439.192	520.7
439.399	420.35
439.606	416.25
439.813	528.89
440.02	612.85
440.227	680.44
440.433	555.51
440.64	561.66
440.847	586.23
441.054	662.01
441.261	756.21
441.467	682.49
441.674	586.23
441.881	784.88
442.088	680.44
442.294	772.6
442.501	735.73
442.708	823.8
442.914	854.51
443.121	879.09
443.328	901.62
443.534	1016.3
443.741	946.67
443.948	854.51
444.154	1047.02
444.361	1182.19
444.568	1124.85
444.774	1057.26
444.981	995.82
445.187	1327.6
445.394	1133.04
445.6	1122.8
445.807	1327.6
446.013	1253.87
446.22	1262.06
446.426	1509.86
446.633	1563.11
446.839	1688.04
447.046	1456.62
447.252	1720.81
447.459	1710.57
447.665	1655.27
447.871	1827.3
448.078	1903.07
448.284	1997.28
448.491	2040.29
448.697	2185.69
448.903	2286.05
449.11	2331.1
449.316	2167.26
449.522	2435.55
449.728	2513.37
449.935	2539.99
450.141	2652.63
450.347	2806.23
450.553	2826.71
450.76	2836.95
450.966	3131.86
451.172	3090.9
451.378	3316.17
451.584	3234.25
451.791	3504.59
451.997	3707.34
452.203	3684.81
452.409	3951.04
452.615	4059.59
452.821	4086.21
453.027	4071.87
453.233	4540.86
453.44	4250.05
453.646	4628.92
453.852	4874.68
454.058	4862.39
454.264	5140.91
454.47	5482.92
454.676	5403.05
454.882	5906.85
455.088	5644.71
455.294	5984.68
455.5	6468
455.705	6767
455.911	6840.73
456.117	6840.73
456.323	7346.58
456.529	7104.92
456.735	7819.66
456.941	8053.13
457.147	8190.34
457.352	8704.38
457.558	8679.8
457.764	9316.72
457.97	9732.46
458.176	9970.02
458.381	10465.63
458.587	10756.44
458.793	11231.57
458.999	11297.11
459.204	12775.74
459.41	13113.66
459.616	13134.14
459.821	13705.52
460.027	14143.78
460.233	14686.5
460.438	14754.08
460.644	15567.12
460.85	15984.91
461.055	16638.21
461.261	17414.39
461.466	16935.17
461.672	17393.91
461.878	19585.24
462.083	18981.09
462.289	19667.16
462.494	20459.72
462.7	20459.72
462.905	20844.74
463.111	22653.09
463.316	23814.29
463.522	23861.4
463.727	24885.38
463.932	25854.07
464.138	26511.47
464.343	27500.64
464.549	27713.63
464.754	29866.04
464.959	30269.49
465.165	31287.33
465.37	30722.09
465.575	30769.19
465.781	33026.06
465.986	33662.97
466.191	33261.57
466.397	33607.68
466.602	32653.33
466.807	34508.79
467.012	35456.99
467.218	35885.02
467.423	35815.39
467.628	37314.5
467.833	39153.58
468.038	37990.33
468.244	37638.08
468.449	39206.83
468.654	38567.86
468.859	38619.06
469.064	38920.11
469.269	37863.36
469.474	38531
469.679	39184.3
469.885	38092.73
470.09	38840.24
470.295	39143.34
470.5	37740.48
470.705	38168.51
470.91	37005.26
471.115	36933.58
471.32	37351.37
471.525	37193.67
471.73	36495.32
471.935	35964.89
472.139	34529.27
472.344	34863.08
472.549	34840.56
472.754	33904.63
472.959	33161.22
473.164	31901.72
473.369	31903.77
473.574	32210.96
473.778	31893.53
473.983	30767.15
474.188	30619.69
474.393	29556.8
474.598	29132.87
474.802	28520.52
475.007	28493.9
475.212	27947.09
475.417	26611.82
475.621	26603.63
475.826	26609.77
476.031	25428.09
476.235	25325.69
476.44	25059.46
476.645	24463.5
476.849	24381.58
477.054	24146.06
477.259	23367.84
477.463	23503
477.668	22675.62
477.872	22481.06
478.077	22038.7
478.282	21528.76
478.486	21227.71
478.691	20885.7
478.895	20814.02
479.1	20830.4
479.304	20355.27
479.509	19708.12
479.713	20416.71
479.918	19757.27
480.122	19259.61
480.326	19480.79
480.531	19325.15
480.735	19067.1
480.94	18794.72
481.144	19269.85
481.348	18043.12
481.553	18127.08
481.757	17682.67
481.961	18137.32
482.166	18122.99
482.37	18061.55
482.574	17541.36
482.778	17668.34
482.983	17758.45
483.187	17363.19
483.391	17383.67
483.595	17430.77
483.8	16781.57
484.004	16650.5
484.208	16941.31
484.412	16488.71
484.616	16656.64
484.821	16339.21
485.025	15870.22
485.229	15757.58
485.433	15393.05
485.637	15540.5
485.841	15296.79
486.045	15112.47
486.249	14866.72
486.453	14747.93
486.657	14391.59
486.861	14373.16
487.065	13719.85
487.269	13898.03
487.473	13371.7
487.677	13746.48
487.881	13785.39
488.085	12919.1
488.289	12794.17
488.493	12427.59
488.697	12593.47
488.901	12228.93
489.105	11977.03
489.309	11905.35
489.512	11575.63
489.716	11473.23
489.92	11030.87
490.124	11204.95
490.328	11108.69
490.531	10766.68
490.735	10672.48
490.939	10205.54
491.143	10084.71
491.346	9806.19
491.55	9855.34
491.754	9648.49
491.958	9507.18
492.161	9193.84
492.365	9113.97
492.569	8960.38
492.772	8837.5
492.976	8837.5
493.18	8878.46
493.383	8601.98
493.587	8704.38
493.79	8280.45
493.994	8296.83
494.197	8253.83
494.401	8141.19
494.605	7956.87
494.808	7934.34
495.012	8016.26
495.215	7952.77
495.419	7954.82
495.622	7578
495.825	7795.08
496.029	7666.06
496.232	7612.81
496.436	7608.72
496.639	7655.82
496.843	7563.66
497.046	7504.27
497.249	7659.92
497.453	7700.87
497.656	7410.06
497.859	7600.52
498.063	7592.33
498.266	7590.28
498.469	7410.06
498.673	7643.53
498.876	7643.53
499.079	7717.26
499.282	7500.17
499.485	7895.43
499.689	7829.9
499.892	7932.29
500.095	7879.05
500.298	8143.24
500.501	7883.14
500.705	8049.03
500.908	8313.22
501.111	8337.79
501.314	8087.94
501.517	8450.43
501.72	8337.79
501.923	8386.94
502.126	8579.45
502.329	8710.52
502.532	8745.34
502.735	8575.36
502.938	8698.24
503.141	8898.94
503.344	9156.98
503.547	9208.18
503.75	9202.04
503.953	9578.86
504.156	9376.11
504.359	9699.69
504.562	9730.41
504.765	10133.86
504.968	10314.08
505.17	10211.68
505.373	10426.72
505.576	10582.37
505.779	10711.39
505.982	10797.4
506.185	11305.3
506.387	11299.16
506.59	11649.36
506.793	11817.29
506.996	11741.52
507.198	12278.08
507.401	12364.1
507.604	12605.76
507.807	12736.83
508.009	13054.26
508.212	13250.87
508.415	13674.8
508.617	14055.72
508.82	13809.97
509.022	14352.68
509.225	14719.26
509.428	14848.29
509.63	15444.24
509.833	15528.21
510.035	16306.44
510.238	16216.33
510.44	16552.2
510.643	17260.79
510.845	17553.65
511.048	17774.83
511.25	18092.27
511.453	18538.73
511.655	19118.3
511.858	19228.89
512.06	19923.15
512.262	20242.64
512.465	20637.89
512.667	21115.07
512.87	21452.98
513.072	21930.16
513.274	22751.4
513.477	23011.49
513.679	23642.26
513.881	23974.03
514.084	24397.96
514.286	25081.99
514.488	25559.16
514.69	26663.02
514.893	26974.31
515.095	27394.14
515.297	28162.13
515.499	28348.5
515.701	28895.3
515.904	29634.62
516.106	30408.75
516.308	30877.74
516.51	31602.72
516.712	32071.7
516.914	32935.95
517.116	33458.18
517.318	34193.4
517.52	34824.17
517.722	34953.19
517.925	35921.88
518.127	36886.48
518.329	37212.1
518.531	37296.07
518.733	38471.6
518.935	39411.62
519.136	39444.39
519.338	40427.42
519.54	40777.62
519.742	41443.21
519.944	41760.64
520.146	42577.78
520.348	43263.85
520.55	43622.25
520.752	43884.39
520.954	45121.36
521.155	45371.21
521.357	45576.01
521.559	46358.33
521.761	46985.01
521.963	47099.7
522.164	47806.25
522.366	47976.23
522.568	48619.29
522.77	49235.73
522.971	50030.34
523.173	48955.16
523.375	49923.85
523.576	50026.24
523.778	50056.96
523.98	50898.68
524.181	50843.38
524.383	51052.28
524.584	51382
524.786	51562.22
524.988	51324.66
525.189	51869.42
525.391	51685.1
525.592	51779.31
525.794	52129.51
525.995	52299.49
526.197	51695.34
526.398	51941.1
526.6	51695.34
526.801	51580.65
527.003	51603.18
527.204	51504.88
527.406	51414.77
527.607	50958.07
527.808	51212.02
528.01	49823.5
528.211	50020.1
528.412	50786.04
528.614	50218.75
528.815	49307.41
529.016	49919.75
529.218	48852.76
529.419	48758.55
529.62	47916.84
529.822	47564.59
530.023	47583.02
530.224	47241.01
530.425	46419.77
530.626	45311.82
530.828	45203.28
531.029	45186.89
531.23	44707.67
531.431	43960.16
531.632	43577.19
531.833	43442.03
532.035	42917.75
532.236	42270.59
532.437	41981.82
532.638	41289.61
532.839	40716.18
533.04	40519.57
533.241	39767.97
533.442	39591.84
533.643	38993.84
533.844	38225.85
534.045	37904.32
534.246	36667.34
534.447	36581.33
534.648	36061.15
534.849	36069.34
535.05	35268.58
535.251	34971.63
535.451	34260.98
535.652	34260.98
535.853	33443.84
536.054	33009.67
536.255	33026.06
536.456	31772.7
536.657	32083.99
536.857	31066.15
537.058	30734.38
537.259	30513.2
537.46	29970.49
537.66	29489.21
537.861	29651
538.062	28874.82
538.263	28561.48
538.463	27943
538.664	28082.26
538.865	27422.81
539.065	27418.72
539.266	26462.32
539.466	26441.84
539.667	26126.45
539.868	25856.12
540.068	25745.53
540.269	25129.09
540.469	24963.2
540.67	24596.62
540.87	24643.72
541.071	24389.77
541.271	23539.86
541.472	23734.42
541.672	23167.13
541.873	23117.98
542.073	22366.38
542.274	22489.26
542.474	22311.08
542.675	21950.64
542.875	21950.64
543.075	21162.17
543.276	21086.4
543.476	21143.74
543.676	20852.93
543.877	20592.84
544.077	20400.33
544.277	20455.62
544.478	19874
544.678	19779.79
544.878	19202.27
545.078	19044.57
545.279	18825.44
545.479	18606.31
545.679	18399.46
545.879	18319.59
546.079	18282.73
546.28	17850.61
546.48	17512.69
546.68	17445.11
546.88	17379.57
547.08	17215.74
547.28	17115.39
547.48	16492.8
547.68	16875.77
547.88	16097.55
548.081	16038.16
548.281	15898.89
548.481	15606.03
548.681	15431.96
548.881	15040.79
549.081	14973.21
549.28	14561.57
549.48	14584.1
549.68	14543.14
549.88	14295.33
550.08	14088.49
550.28	13936.94
550.48	14053.67
550.68	13576.5
550.88	13224.25
551.08	13222.2
551.279	13214.01
551.479	12765.5
551.679	12767.55
551.879	12398.91
552.079	12425.54
552.278	11880.78
552.478	11817.29
552.678	11680.08
552.878	11563.34
553.077	11512.14
553.277	11106.65
553.477	11135.32
553.676	11016.54
553.876	10580.32
554.076	10502.5
554.275	10385.76
554.475	10185.06
554.674	10352.99
554.874	9896.3
555.074	9714.03
555.273	9654.64
555.473	9634.16
555.672	9238.9
555.872	9148.79
556.071	9017.72
556.271	8866.17
556.47	8737.15
556.67	8593.79
556.869	8685.95
557.068	8157.57
557.268	8173.96
557.467	8042.89
557.667	8028.55
557.866	8051.08
558.065	7717.26
558.265	7412.11
558.464	7225.75
558.663	7254.42
558.863	7195.03
559.062	7149.97
559.261	6773.14
559.461	6988.18
559.66	6799.77
559.859	6629.79
560.058	6461.85
560.258	6635.93
560.457	6224.29
560.656	6341.02
560.855	5978.53
561.054	6179.23
561.253	6042.02
561.453	6025.64
561.652	5820.84
561.851	5734.82
562.05	5613.99
562.249	5251.5
562.448	5419.44
562.647	5245.36
562.846	5206.45
563.045	5292.46
563.244	5032.37
563.443	5063.09
563.642	4739.51
563.841	4751.8
564.04	4708.79
564.239	4821.43
564.438	4610.49
564.637	4444.6
564.836	4497.85
565.035	4428.22
565.234	4231.62
565.432	4258.24
565.631	4329.92
565.83	4168.13
566.029	4045.25
566.228	4164.03
566.427	4184.51
566.625	3926.47
566.824	3875.27
567.023	3828.17
567.222	3754.44
567.42	3746.25
567.619	3719.62
567.818	3590.6
568.016	3711.43
568.215	3514.83
568.414	3576.27
568.612	3443.15
568.811	3418.57
569.01	3346.89
569.208	3271.12
569.407	3279.31
569.605	3316.17
569.804	3181.01
570.002	3127.76
570.201	3054.03
570.4	3058.13
570.598	2914.77
570.797	2855.38
570.995	2959.83
571.193	2910.68
571.392	2890.2
571.59	2562.52
571.789	2830.8
571.987	2791.89
572.186	2732.5
572.384	2650.58
572.582	2515.42
572.781	2642.39
572.979	2417.12
573.177	2527.71
573.376	2460.12
573.574	2468.31
573.772	2335.2
573.971	2187.74
574.169	2097.63
574.367	2286.05
574.565	2202.08
574.763	2148.83
574.962	2144.74
575.16	2107.87
575.358	2056.67
575.556	1960.42
575.754	2087.39
575.952	1946.08
576.151	2034.14
576.349	1946.08
576.547	1774.05
576.745	1798.63
576.943	1898.98
577.141	1835.49
577.339	1767.91
577.537	1737.19
577.735	1780.2
577.933	1708.52
578.131	1595.88
578.329	1772
578.527	1567.21
578.725	1675.75
578.923	1513.96
579.121	1440.23
579.319	1429.99
579.516	1434.09
579.714	1563.11
579.912	1372.65
580.11	1417.71
580.308	1413.61
580.506	1300.97
580.704	1257.96
580.901	1272.3
581.099	1354.22
581.297	1260.01
581.495	1372.65
581.692	1231.34
581.89	1382.89
582.088	1243.63
582.285	1180.14
582.483	1145.33
582.681	1198.57
582.878	1108.46
583.076	1241.58
583.274	1116.65
583.471	1163.76
583.669	1081.84
583.866	1069.55
584.064	1081.84
584.262	952.82
584.459	971.25
584.657	831.99
584.854	1049.07
585.052	889.33
585.249	1044.98
585.447	877.04
585.644	889.33
585.841	1032.69
586.039	999.92
586.236	977.39
586.434	809.46
586.631	793.08
586.828	754.16
587.026	944.63
587.223	813.56
587.42	821.75
587.618	897.52
587.815	879.09
588.012	842.23
588.21	862.71
588.407	793.08
588.604	797.17
588.801	764.4
588.999	813.56
589.196	821.75
589.393	694.77
589.59	692.73
589.787	698.87
589.984	815.6
590.182	815.6
590.379	608.76
590.576	739.83
590.773	670.2
590.97	762.36
591.167	731.64
591.364	709.11
591.561	750.07
591.758	657.91
591.955	811.51
592.152	737.78
592.349	655.86
592.546	803.32
592.743	725.49
592.94	678.39
593.137	637.43
593.334	705.01
593.531	727.54
593.727	674.29
593.924	711.16
594.121	772.6
594.318	729.59
594.515	664.05
594.712	735.73
594.908	768.5
595.105	684.53
595.302	754.16
595.499	688.63
595.696	903.67
595.892	729.59
596.089	778.74
596.286	733.68
596.482	907.76
596.679	913.91
596.876	782.84
597.072	1032.69
597.269	793.08
597.466	946.67
597.662	965.11
597.859	872.95
598.055	993.78
598.252	1001.97
598.448	1092.08
598.645	1094.13
598.841	1126.89
599.038	1270.25
599.234	1303.02
599.431	1290.73
599.627	1280.49
599.824	1456.62
600.02	1325.55
600.217	1391.08
600.413	1497.58
600.609	1548.78
600.806	1741.29
601.002	1692.13
601.198	1737.19
601.395	1919.46
601.591	1878.5
601.787	1800.68
601.984	2068.96
602.18	2130.4
602.376	2116.06
602.572	2208.22
602.769	2456.03
602.965	2347.48
603.161	2419.16
603.357	2511.32
603.553	2761.17
603.75	2707.93
603.946	2869.72
604.142	2855.38
604.338	3164.62
604.534	3162.58
604.73	3340.75
604.926	3281.36
605.122	3463.63
605.318	3547.59
605.514	3645.9
605.71	3754.44
605.906	3752.39
606.102	3938.76
606.298	4245.95
606.494	4180.42
606.69	4399.55
606.886	4467.13
607.082	4440.51
607.278	4557.24
607.474	4680.12
607.67	4979.12
607.866	5058.99
608.062	5321.13
608.257	5415.34
608.453	5517.74
608.649	5788.07
608.845	5681.58
609.041	5818.79
609.236	6138.27
609.432	6396.32
609.628	6672.79
609.824	6728.09
610.019	6674.84
610.215	6906.26
610.411	7258.51
610.606	7418.25
610.802	7565.71
610.998	7729.55
611.193	7899.53
611.389	7895.43
611.584	8274.31
611.78	8761.72
611.976	8782.2
612.171	9259.38
612.367	9302.39
612.562	9640.3
612.758	9724.27
612.953	9730.41
613.149	10307.94
613.344	10400.1
613.539	10842.46
613.735	11088.21
613.93	11422.03
614.126	11549.01
614.321	11942.22
614.517	12273.99
614.712	12667.2
614.907	12837.18
615.103	13494.58
615.298	13125.94
615.493	13820.21
615.688	13945.13
615.884	14635.3
616.079	14881.05
616.274	15126.81
616.47	15546.64
616.665	16099.59
616.86	16419.08
617.055	16828.67
617.25	17176.83
617.445	17846.51
617.641	17996.01
617.836	18766.05
618.031	18628.84
618.226	19605.72
618.421	19839.19
618.616	20609.22
618.811	20521.16
619.006	21442.74
619.201	21434.55
619.396	22323.37
619.591	22681.77
619.786	23290.01
619.981	23476.38
620.176	24281.23
620.371	24547.47
620.566	25002.11
620.761	25221.25
620.956	26073.2
621.151	26488.94
621.346	27527.26
621.541	27240.54
621.735	28371.02
621.93	28301.39
622.125	28987.46
622.32	29065.28
622.515	30083.12
622.709	30339.12
622.904	31428.64
623.099	31612.96
623.294	32526.35
623.488	32450.58
623.683	33429.51
623.878	33431.55
624.072	34242.55
624.267	34602.99
624.462	35252.2
624.656	35776.48
624.851	36675.54
625.046	36704.21
625.24	37562.31
625.435	37982.14
625.629	38195.13
625.824	39110.57
626.018	39604.13
626.213	38961.07
626.407	40218.52
626.602	40382.36
626.796	41099.15
626.991	41539.46
627.185	41768.83
627.38	41611.14
627.574	42098.56
627.768	42622.84
627.963	42442.62
628.157	42696.56
628.352	43296.62
628.546	42497.91
628.74	43327.34
628.935	42870.64
629.129	43204.46
629.323	42702.71
629.517	42385.27
629.712	42176.38
629.906	42057.6
630.1	41156.49
630.294	40857.49
630.489	40763.28
630.683	40644.5
630.877	39247.79
631.071	38741.94
631.265	38522.8
631.459	37339.08
631.653	36925.39
631.848	36014.04
632.042	34850.8
632.236	34717.68
632.43	33425.41
632.624	32686.09
632.818	31549.47
633.012	30855.21
633.206	29976.63
633.4	29204.55
633.594	27869.27
633.788	27082.85
633.982	26280.05
634.176	25284.73
634.369	24111.25
634.563	23087.26
634.757	22421.67
634.951	21735.6
635.145	20830.4
635.339	19830.99
635.533	18911.46
635.726	18598.12
635.92	17631.47
636.114	17160.44
636.308	16212.23
636.501	15919.37
636.695	14901.53
636.889	14356.77
637.083	13680.94
637.276	13297.97
637.47	12837.18
637.664	12161.35
637.857	11686.22
638.051	11127.13
638.244	10654.05
638.438	10344.8
638.632	9783.66
638.825	9367.92
639.019	9159.03
639.212	8753.53
639.406	8507.77
639.599	8251.78
639.793	7803.27
639.986	7541.13
640.18	7260.56
640.373	6877.59
640.567	6445.47
640.76	6351.26
640.954	6109.6
641.147	5913
641.34	5638.57
641.534	5355.95
641.727	5339.57
641.92	5034.42
642.114	4919.73
642.307	4669.88
642.5	4510.14
642.694	4221.38
642.887	4080.07
643.08	3985.86
643.273	3879.36
643.467	3725.77
643.66	3563.98
643.853	3353.04
644.046	3283.41
644.239	3205.58
644.432	3021.27
644.626	2918.87
644.819	2834.9
645.012	2664.92
645.205	2609.62
645.398	2632.15
645.591	2566.62
645.784	2300.38
645.977	2173.41
646.17	2132.45
646.363	2095.58
646.556	1913.31
646.749	1784.29
646.942	1704.42
647.135	1757.67
647.328	1704.42
647.521	1640.93
647.714	1532.39
647.907	1563.11
648.099	1524.2
648.292	1495.53
648.485	1511.91
648.678	1307.12
648.871	1235.44
649.064	1198.57
649.256	1124.85
649.449	1108.46
649.642	1042.93
649.835	932.34
650.027	950.77
650.22	1040.88
650.413	936.43
650.605	971.25
650.798	860.66
650.991	811.51
651.183	811.51
651.376	844.28
651.568	815.6
651.761	723.44
651.954	745.97
652.146	682.49
652.339	762.36
652.531	748.02
652.724	520.7
652.916	592.37
653.109	512.5
653.301	547.32
653.494	637.43
653.686	518.65
653.879	631.29
654.071	571.9
654.263	416.25
654.456	442.87
654.648	580.09
654.84	518.65
655.033	430.59
655.225	530.94
655.417	328.19
655.61	541.18
655.802	457.21
655.994	432.63
656.186	348.67
656.379	412.15
656.571	320
656.763	363
656.955	336.38
657.148	320
657.34	442.87
657.532	336.38
657.724	305.66
657.916	315.9
658.108	401.91
658.3	317.95
658.492	356.86
658.684	250.36
658.876	301.56
659.068	229.88
659.26	197.12
659.452	250.36
659.644	283.13
659.836	369.15
660.028	254.46
660.22	137.73
660.412	270.84
660.604	260.6
660.796	180.73
660.988	279.04
661.18	244.22
661.372	309.76
661.563	213.5
661.755	207.36
661.947	168.45
662.139	176.64
662.331	238.08
662.522	227.84
662.714	104.96
662.906	164.35
663.097	195.07
663.289	131.58
663.481	100.86
663.673	233.98
663.864	131.58
664.056	197.12
664.247	180.73
664.439	211.45
664.631	227.84
664.822	213.5
665.014	154.11
665.205	98.81
665.397	147.97
665.588	119.29
665.78	197.12
665.971	223.74
666.163	64
666.354	223.74
666.546	107.01
666.737	170.49
666.929	20.99
667.12	168.45
667.311	207.36
667.503	229.88
667.694	119.29
667.885	154.11
668.077	145.92
668.268	2.56
668.459	174.59
668.651	190.97
668.842	176.64
669.033	90.62
669.224	47.62
669.416	373.24
669.607	104.96
669.798	78.33
669.989	190.97
670.18	135.68
670.371	211.45
670.563	90.62
670.754	145.92
670.945	287.23
671.136	227.84
671.327	113.15
671.518	272.89
671.709	315.9
671.9	223.74
672.091	274.94
672.282	121.34
672.473	109.05
672.664	35.33
672.855	129.53
673.046	156.16
673.237	201.21
673.428	190.97
673.619	254.46
673.809	123.39
674	223.74
674.191	190.97
674.382	96.77
674.573	117.25
674.764	154.11
674.954	215.55
675.145	113.15
675.336	113.15
675.527	104.96
675.717	37.38
675.908	102.91
676.099	90.62
676.289	137.73
676.48	96.77
676.671	141.82
676.861	137.73
677.052	90.62
677.243	129.53
677.433	94.72
677.624	205.31
677.814	158.21
678.005	139.77
678.195	248.32
678.386	129.53
678.576	98.81
678.767	80.38
678.957	137.73
679.148	246.27
679.338	246.27
679.529	168.45
679.719	150.01
679.909	215.55
680.1	223.74
680.29	152.06
680.481	12.8
680.671	244.22
680.861	242.17
681.052	231.93
681.242	170.49
681.432	121.34
681.622	236.03
681.813	102.91
682.003	145.92
682.193	158.21
682.383	113.15
682.573	180.73
682.764	125.44
682.954	217.6
683.144	197.12
683.334	150.01
683.524	225.79
683.714	223.74
683.904	213.5
684.094	98.81
684.284	121.34
684.474	231.93
684.664	227.84
684.854	227.84
685.044	174.59
685.234	133.63
685.424	201.21
685.614	156.16
685.804	293.37
685.994	242.17
686.184	158.21
686.374	186.88
686.564	248.32
686.753	168.45
686.943	127.49
687.133	209.4
687.323	195.07
687.513	211.45
687.702	246.27
687.892	160.25
688.082	236.03
688.272	227.84
688.461	186.88
688.651	289.28
688.841	231.93
689.03	152.06
689.22	180.73
689.41	229.88
689.599	203.26
689.789	225.79
689.979	307.71
690.168	119.29
690.358	297.47
690.547	170.49
690.737	154.11
690.926	246.27
691.116	213.5
691.305	250.36
691.495	336.38
691.684	152.06
691.874	207.36
692.063	225.79
692.252	281.08
692.442	223.74
692.631	160.25
692.82	100.86
693.01	180.73
693.199	154.11
693.388	213.5
693.578	174.59
693.767	188.93
693.956	133.63
694.146	180.73
694.335	242.17
694.524	178.69
694.713	248.32
694.902	131.58
695.092	141.82
695.281	260.6
695.47	72.19
695.659	96.77
695.848	176.64
696.037	96.77
696.226	254.46
696.415	180.73
696.604	250.36
696.793	207.36
696.982	102.91
697.171	354.81
697.36	139.77
697.549	238.08
697.738	96.77
697.927	195.07
698.116	78.33
698.305	227.84
698.494	168.45
698.683	154.11
698.872	291.32
699.061	90.62
699.25	133.63
699.438	266.75
699.627	203.26
699.816	344.57
700.005	201.21
700.193	152.06
700.382	211.45
700.571	166.4
700.76	109.05
700.948	184.83
701.137	248.32
701.326	182.78
701.514	76.29
701.703	213.5
701.892	231.93
702.08	326.14
702.269	172.54
702.457	123.39
702.646	166.4
702.834	109.05
703.023	199.16
703.212	293.37
703.4	147.97
703.589	123.39
703.777	143.87
703.965	27.14
704.154	133.63
704.342	109.05
704.531	115.2
704.719	211.45
704.907	197.12
705.096	55.81
705.284	90.62
705.472	156.16
705.661	160.25
705.849	168.45
706.037	246.27
706.226	176.64
706.414	221.69
706.602	74.24
706.79	180.73
706.979	92.67
707.167	150.01
707.355	18.94
707.543	141.82
707.731	182.78
707.919	201.21
708.107	133.63
708.296	143.87
708.484	152.06
708.672	211.45
708.86	190.97
709.048	193.02
709.236	78.33
709.424	141.82
709.612	195.07
709.8	94.72
709.988	172.54
710.176	217.6
710.364	287.23
710.551	109.05
710.739	35.33
710.927	223.74
711.115	156.16
711.303	317.95
711.491	240.12
711.679	127.49
711.866	219.64
712.054	133.63
712.242	131.58
712.43	274.94
712.617	158.21
712.805	264.7
712.993	174.59
713.181	170.49
713.368	207.36
713.556	166.4
713.744	74.24
713.931	352.76
714.119	215.55
714.306	76.29
714.494	135.68
714.682	178.69
714.869	76.29
715.057	176.64
715.244	45.57
715.432	195.07
715.619	102.91
715.807	203.26
715.994	160.25
716.182	180.73
716.369	233.98
716.556	205.31
716.744	55.81
716.931	47.62
717.119	190.97
717.306	107.01
717.493	227.84
717.681	117.25
717.868	68.09
718.055	238.08
718.242	256.51
718.43	123.39
718.617	225.79
718.804	168.45
718.991	215.55
719.179	223.74
719.366	184.83
719.553	221.69
719.74	154.11
719.927	147.97
720.114	160.25
720.301	88.57
720.488	170.49
720.676	107.01
720.863	285.18
721.05	301.56
721.237	193.02
721.424	285.18
721.611	154.11
721.798	84.48
721.985	176.64
722.172	111.1
722.358	137.73
722.545	201.21
722.732	168.45
722.919	285.18
723.106	145.92
723.293	88.57
723.48	190.97
723.667	150.01
723.853	164.35
724.04	227.84
724.227	227.84
724.414	219.64
724.6	207.36
724.787	305.66
724.974	264.7
725.161	262.65
725.347	145.92
725.534	211.45
725.72	223.74
725.907	311.8
726.094	281.08
726.28	123.39
726.467	180.73
726.653	113.15
726.84	238.08
727.027	320
727.213	260.6
727.4	205.31
727.586	197.12
727.773	199.16
727.959	47.62
728.145	121.34
728.332	174.59
728.518	182.78
728.705	219.64
728.891	227.84
729.077	219.64
729.264	190.97
729.45	207.36
729.636	276.99
729.823	152.06
730.009	238.08
730.195	213.5
730.382	317.95
730.568	152.06
730.754	223.74
730.94	164.35
731.126	215.55
731.313	203.26
731.499	221.69
731.685	213.5
731.871	281.08
732.057	266.75
732.243	281.08
732.429	248.32
732.615	336.38
732.801	184.83
732.987	229.88
733.173	309.76
733.359	209.4
733.545	197.12
733.731	160.25
733.917	305.66
734.103	227.84
734.289	221.69
734.475	168.45
734.661	391.67
734.847	213.5
735.033	213.5
735.219	231.93
735.404	215.55
735.59	190.97
735.776	156.16
735.962	209.4
736.148	236.03
736.333	285.18
736.519	182.78
736.705	137.73
736.89	158.21
737.076	184.83
737.262	158.21
737.447	195.07
737.633	203.26
737.819	262.65
738.004	168.45
738.19	127.49
738.375	233.98
738.561	221.69
738.747	197.12
738.932	107.01
739.118	324.09
739.303	281.08
739.489	283.13
739.674	135.68
739.859	139.77
740.045	262.65
740.23	180.73
740.416	43.52
740.601	252.41
740.786	223.74
740.972	197.12
741.157	225.79
741.342	129.53
741.528	119.29
741.713	272.89
741.898	170.49
742.084	209.4
742.269	199.16
742.454	172.54
742.639	285.18
742.824	170.49
743.01	295.42
743.195	246.27
743.38	256.51
743.565	233.98
743.75	197.12
743.935	201.21
744.12	299.52
744.305	125.44
744.49	145.92
744.675	195.07
744.86	158.21
745.045	238.08
745.23	244.22
745.415	201.21
745.6	268.8
745.785	150.01
745.97	236.03
746.155	250.36
746.34	262.65
746.525	215.55
746.71	270.84
746.895	96.77
747.079	143.87
747.264	207.36
747.449	225.79
747.634	262.65
747.819	223.74
748.003	217.6
748.188	102.91
748.373	223.74
748.557	227.84
748.742	201.21
748.927	166.4
749.111	113.15
749.296	162.3
749.481	254.46
749.665	221.69
749.85	174.59
750.034	231.93
750.219	137.73
750.404	125.44
750.588	125.44
750.773	76.29
750.957	143.87
751.141	164.35
751.326	174.59
751.51	107.01
751.695	39.42
751.879	160.25
752.064	246.27
752.248	199.16
752.432	281.08
752.617	236.03
752.801	127.49
752.985	96.77
753.17	242.17
753.354	254.46
753.538	231.93
753.722	68.09
753.907	160.25
754.091	94.72
754.275	231.93
754.459	-36.35
754.643	61.95
754.828	172.54
755.012	107.01
755.196	109.05
755.38	221.69
755.564	139.77
755.748	156.16
755.932	129.53
756.116	193.02
756.3	178.69
756.484	129.53
756.668	170.49
756.852	94.72
757.036	96.77
757.22	178.69
757.404	74.24
757.588	94.72
757.772	94.72
757.956	100.86
758.14	287.23
758.323	49.66
758.507	215.55
758.691	20.99
758.875	225.79
759.059	215.55
759.242	92.67
759.426	193.02
759.61	166.4
759.794	37.38
759.977	207.36
760.161	287.23
760.345	90.62
760.528	160.25
760.712	184.83
760.895	80.38
761.079	113.15
761.263	49.66
761.446	115.2
761.63	102.91
761.813	150.01
761.997	-13.82
762.18	107.01
762.364	150.01
762.547	51.71
762.731	135.68
762.914	80.38
763.098	49.66
763.281	47.62
763.464	104.96
763.648	61.95
763.831	102.91
764.015	86.53
764.198	137.73
764.381	53.76
764.564	119.29
764.748	154.11
764.931	80.38
765.114	64
765.297	57.86
765.481	35.33
765.664	43.52
765.847	55.81
766.03	135.68
766.213	76.29
766.397	145.92
766.58	-24.06
766.763	49.66
766.946	88.57
767.129	49.66
767.312	20.99
767.495	74.24
767.678	27.14
767.861	92.67
768.044	129.53
768.227	133.63
768.41	123.39
768.593	98.81
768.776	129.53
768.959	43.52
769.142	233.98
769.324	57.86
769.507	59.9
769.69	92.67
769.873	68.09
770.056	178.69
770.239	64
770.421	190.97
770.604	156.16
770.787	18.94
770.97	117.25
771.152	20.99
771.335	70.14
771.518	-46.59
771.7	178.69
771.883	221.69
772.066	12.8
772.248	100.86
772.431	152.06
772.613	104.96
772.796	109.05
772.978	70.14
773.161	195.07
773.343	43.52
773.526	-3.58
773.708	-44.54
773.891	-9.73
774.073	29.18
774.256	49.66
774.438	223.74
774.621	-3.58
774.803	109.05
774.985	20.99
775.168	135.68
775.35	49.66
775.532	33.28
775.715	107.01
775.897	57.86
776.079	47.62
776.261	127.49
776.444	135.68
776.626	43.52
776.808	94.72
776.99	23.04
777.173	104.96
777.355	43.52
777.537	23.04
777.719	100.86
777.901	88.57
778.083	-13.82
778.265	-83.45
778.447	113.15
778.629	51.71
778.811	72.19
778.993	35.33
779.175	92.67
779.357	80.38
779.539	-24.06
779.721	43.52
779.903	158.21
780.085	90.62
780.267	29.18
780.449	6.66
780.631	111.1
780.812	115.2
780.994	119.29
781.176	39.42
781.358	25.09
781.54	31.23
781.721	102.91
781.903	199.16
782.085	-13.82
782.267	209.4
782.448	70.14
782.63	-7.68
782.812	8.7
782.993	109.05
783.175	137.73
783.357	41.47
783.538	27.14
783.72	-32.26
783.901	-9.73
784.083	43.52
784.264	109.05
784.446	-26.11
784.627	-1.54
784.809	53.76
784.99	2.56
785.172	109.05
785.353	35.33
785.535	53.76
785.716	10.75
785.897	-30.21
786.079	72.19
786.26	45.57
786.441	64
786.623	-30.21
786.804	0.51
786.985	94.72
787.167	70.14
787.348	33.28
787.529	70.14
787.71	203.26
787.891	27.14
788.073	-36.35
788.254	-44.54
788.435	98.81
788.616	107.01
788.797	-44.54
788.978	25.09
789.159	0.51
789.34	27.14
789.522	-58.88
789.703	-13.82
789.884	61.95
790.065	35.33
790.246	115.2
790.427	20.99
790.607	84.48
790.788	47.62
790.969	-97.79
791.15	-11.78
791.331	-15.87
791.512	55.81
791.693	-67.07
791.874	-9.73
792.054	158.21
792.235	141.82
792.416	10.75
792.597	23.04
792.778	98.81
792.958	82.43
793.139	133.63
793.32	25.09
793.5	-32.26
793.681	160.25
793.862	139.77
794.042	16.9
794.223	-26.11
794.404	35.33
794.584	-40.45
794.765	4.61
794.945	-48.64
795.126	57.86
795.306	98.81
795.487	-40.45
795.667	25.09
795.848	-22.02
796.028	70.14
796.209	-26.11
796.389	51.71
796.57	-5.63
796.75	-7.68
796.93	-19.97
797.111	-17.92
797.291	-26.11
797.471	115.2
797.652	35.33
797.832	-69.12
798.012	16.9
798.192	-3.58
798.373	-62.98
798.553	47.62
798.733	64
798.913	4.61
799.093	-30.21
799.274	6.66
799.454	72.19
799.634	82.43
799.814	141.82
799.994	68.09
800.174	76.29
800.354	47.62
800.534	-95.74
800.714	37.38
800.894	-44.54
801.074	-36.35
801.254	-48.64
801.434	143.87
801.614	-9.73
801.794	-17.92
801.974	1909.22
802.154	10.75
802.334	66.05
802.514	2.56
802.693	8.7
802.873	-75.26
803.053	82.43
803.233	61.95
803.413	8.7
803.592	-34.3
803.772	-9.73
803.952	18.94
804.131	10.75
804.311	94.72
804.491	104.96
804.67	-103.93
804.85	-46.59
805.03	29.18
805.209	96.77
805.389	-22.02
805.568	-42.5
805.748	-26.11
805.928	55.81
806.107	53.76
806.287	80.38
806.466	102.91
806.646	-9.73
806.825	-3.58
807.004	4.61
807.184	102.91
807.363	-7.68
807.543	27.14
807.722	8.7
807.901	92.67
808.081	131.58
808.26	-132.61
808.439	37.38
808.619	49.66
808.798	10.75
808.977	102.91
809.156	102.91
809.336	43.52
809.515	51.71
809.694	-42.5
809.873	-11.78
810.052	-17.92
810.231	147.97
810.411	49.66
810.59	68.09
810.769	-7.68
810.948	33.28
811.127	-81.41
811.306	41.47
811.485	4.61
811.664	84.48
811.843	-7.68
812.022	18.94
812.201	23.04
812.38	61.95
812.559	-44.54
812.737	96.77
812.916	-69.12
813.095	-103.93
813.274	45.57
813.453	8.7
813.632	14.85
813.811	129.53
813.989	-112.13
814.168	-19.97
814.347	-56.83
814.526	-42.5
814.704	123.39
814.883	125.44
815.062	-58.88
815.24	107.01
815.419	-67.07
815.598	76.29
815.776	-87.55
815.955	104.96
816.133	-60.93
816.312	6.66
816.49	-46.59
816.669	102.91
816.847	25.09
817.026	-71.17
817.204	-69.12
817.383	27.14
817.561	-110.08
817.74	35.33
817.918	80.38
818.097	-3.58
818.275	-38.4
818.453	51.71
818.632	29.18
818.81	-60.93
818.988	2.56
819.167	12.8
819.345	-69.12
819.523	-44.54
819.701	53.76
819.879	41.47
820.058	8.7
820.236	-9.73
820.414	33.28
820.592	-50.69
820.77	74.24
820.948	51.71
821.127	-5.63
821.305	78.33
821.483	8.7
821.661	-9.73
821.839	-91.65
822.017	14.85
822.195	-108.03
822.373	49.66
822.551	14.85
822.729	31.23
822.907	-19.97
823.085	14.85
823.262	25.09
823.44	-122.37
823.618	-5.63
823.796	-85.5
823.974	-67.07
824.152	-11.78
824.329	-60.93
824.507	-3.58
824.685	-28.16
824.863	-36.35
825.04	10.75
825.218	4.61
825.396	127.49
825.574	100.86
825.751	29.18
825.929	49.66
826.107	-95.74
826.284	-28.16
826.462	45.57
826.639	-69.12
826.817	-120.32
826.994	74.24
827.172	-99.84
827.349	137.73
827.527	23.04
827.704	18.94
827.882	53.76
828.059	-71.17
828.237	-46.59
828.414	78.33
828.591	-122.37
828.769	96.77
828.946	-73.21
829.124	80.38
829.301	-17.92
829.478	-3.58
829.655	76.29
829.833	-38.4
830.01	-40.45
830.187	76.29
830.364	-24.06
830.542	-1.54
830.719	96.77
830.896	137.73
831.073	76.29
831.25	53.76
831.427	66.05
831.604	41.47
831.782	0.51
831.959	35.33
832.136	-1.54
832.313	14.85
832.49	-3.58
832.667	16.9
832.844	-62.98
833.021	127.49
833.198	49.66
833.374	68.09
833.551	47.62
833.728	43.52
833.905	53.76
834.082	-77.31
834.259	82.43
834.436	35.33
834.612	12.8
834.789	23.04
834.966	-30.21
835.143	-69.12
835.319	-65.02
835.496	51.71
835.673	84.48
835.85	115.2
836.026	51.71
836.203	190.97
836.38	-99.84
836.556	31.23
836.733	-19.97
836.909	102.91
837.086	-85.5
837.262	-95.74
837.439	-38.4
837.616	-77.31
837.792	25.09
837.968	14.85
838.145	-99.84
838.321	-24.06
838.498	57.86
838.674	33.28
838.851	-50.69
839.027	-30.21
839.203	-1.54
839.38	35.33
839.556	4.61
839.732	109.05
839.909	59.9
840.085	113.15
840.261	-58.88
840.437	-17.92
840.614	-5.63
840.79	41.47
840.966	119.29
841.142	0.51
841.318	-54.78
841.494	-5.63
841.671	37.38
841.847	12.8
842.023	-32.26
842.199	39.42
842.375	154.11
842.551	-99.84
842.727	-36.35
842.903	121.34
843.079	-95.74
843.255	39.42
843.431	8.7
843.607	37.38
843.783	-140.8
843.959	-56.83
844.134	-28.16
844.31	168.45
844.486	-77.31
844.662	-9.73
844.838	-69.12
845.013	31.23
845.189	84.48
845.365	-19.97
845.541	0.51
845.716	41.47
845.892	102.91
846.068	-30.21
846.244	-3.58
846.419	39.42
846.595	-50.69
846.77	-5.63
846.946	113.15
847.122	-32.26
847.297	-120.32
847.473	109.05
847.648	-77.31
847.824	-9.73
847.999	-140.8
848.175	-38.4
848.35	41.47
848.526	115.2
848.701	80.38
848.876	64
849.052	141.82
849.227	-50.69
849.403	-118.27
849.578	-24.06
849.753	102.91
849.929	8.7
850.104	-46.59
850.279	-71.17
850.454	18.94
850.63	43.52
850.805	37.38
850.98	23.04
851.155	-87.55
851.33	127.49
851.505	-60.93
851.681	104.96
851.856	-17.92
852.031	49.66
852.206	33.28
852.381	-56.83
852.556	2.56
852.731	57.86
852.906	100.86
853.081	12.8
853.256	113.15
853.431	-5.63
853.606	2.56
853.781	-85.5
853.956	-97.79
854.131	20.99
854.305	6.66
854.48	-42.5
854.655	-62.98
854.83	-42.5
855.005	33.28
855.18	-15.87
855.354	31.23
855.529	-7.68
855.704	-22.02
855.879	80.38
856.053	-79.36
856.228	29.18
856.403	-95.74
856.577	2.56
856.752	4.61
856.926	27.14
857.101	43.52
857.276	-118.27
857.45	-42.5
857.625	90.62
857.799	31.23
857.974	-46.59
858.148	-46.59
858.323	-22.02
858.497	33.28
858.672	-30.21
858.846	-93.69
859.02	53.76
859.195	-112.13
859.369	-56.83
859.543	-5.63
859.718	18.94
859.892	-46.59
860.066	61.95
860.241	-40.45
860.415	-58.88
860.589	0.51
860.763	27.14
860.938	-11.78
861.112	74.24
861.286	-54.78
861.46	23.04
861.634	25.09
861.808	98.81
861.982	-75.26
862.157	-79.36
862.331	33.28
862.505	-52.74
862.679	-34.3
862.853	-9.73
863.027	-19.97
863.201	137.73
863.375	-3.58
863.549	70.14
863.722	74.24
863.896	68.09
864.07	-62.98
864.244	-44.54
864.418	-3.58
864.592	-3.58
864.766	23.04
864.939	16.9
865.113	20.99
865.287	27.14
865.461	-60.93
865.634	102.91
865.808	-28.16
865.982	-62.98
866.156	-52.74
866.329	-85.5
866.503	12.8
866.676	-13.82
866.85	53.76
867.024	-44.54
867.197	2.56
867.371	57.86
867.544	-1.54
867.718	-83.45
867.891	84.48
868.065	-108.03
868.238	-9.73
868.412	49.66
868.585	-54.78
868.759	-36.35
868.932	0.51
869.105	-34.3
869.279	18.94
869.452	-62.98
869.625	-42.5
869.799	-7.68
869.972	-99.84
870.145	6.66
870.319	49.66
870.492	-22.02
870.665	-17.92
870.838	-81.41
871.011	-167.42
871.185	-38.4
871.358	-105.98
871.531	37.38
871.704	-26.11
871.877	-1.54
872.05	-48.64
872.223	-71.17
872.396	123.39
872.569	31.23
872.742	-69.12
872.915	-17.92
873.088	27.14
873.261	-62.98
873.434	115.2
873.607	-58.88
873.78	80.38
873.953	-62.98
874.126	41.47
874.299	-26.11
874.471	-17.92
874.644	-87.55
874.817	74.24
874.99	133.63
875.163	-5.63
875.335	27.14
875.508	64
875.681	55.81
875.853	-56.83
876.026	0.51
876.199	23.04
876.371	-69.12
876.544	-34.3
876.717	-9.73
876.889	-50.69
877.062	-71.17
877.234	-30.21
877.407	-89.6
877.579	-38.4
877.752	33.28
877.924	49.66
878.097	0.51
878.269	70.14
878.442	49.66
878.614	2.56
878.786	33.28
878.959	-22.02
879.131	78.33
879.303	-140.8
879.476	-34.3
879.648	96.77
879.82	-15.87
879.993	16.9
880.165	-46.59
880.337	-32.26
880.509	113.15
880.681	-79.36
880.854	-54.78
881.026	127.49
881.198	113.15
881.37	-3.58
881.542	82.43
881.714	-13.82
881.886	-114.17
882.058	-11.78
882.23	8.7
882.402	27.14
882.574	92.67
882.746	57.86
882.918	102.91
883.09	64
883.262	0.51
883.434	-17.92
883.606	-97.79
883.778	-48.64
883.95	193.02
884.122	10.75
884.293	35.33
884.465	-5.63
884.637	94.72
884.809	-83.45
884.98	-52.74
885.152	-50.69
885.324	96.77
885.496	33.28
885.667	-36.35
885.839	-77.31
886.011	47.62
886.182	55.81
886.354	70.14
886.525	43.52
886.697	12.8
886.869	-81.41
887.04	16.9
887.212	117.25
887.383	164.35
887.555	84.48
887.726	4.61
887.897	23.04
888.069	12.8
888.24	61.95
888.412	-5.63
888.583	-69.12
888.754	-75.26
888.926	-108.03
889.097	-85.5
889.268	-101.89
889.44	16.9
889.611	2.56
889.782	-95.74
889.953	-140.8
890.125	10.75
890.296	-26.11
890.467	-71.17
890.638	-30.21
890.809	39.42
890.98	-48.64
891.151	-46.59
891.323	102.91
891.494	45.57
891.665	-42.5
891.836	31.23
892.007	-26.11
892.178	-38.4
892.349	-50.69
892.52	-38.4
892.691	-22.02
892.862	-38.4
893.032	-99.84
893.203	-52.74
893.374	45.57
893.545	131.58
893.716	-101.89
893.887	66.05
894.057	-46.59
894.228	-79.36
894.399	-9.73
894.57	27.14
894.74	-24.06
894.911	33.28
895.082	-93.69
895.253	-103.93
895.423	16.9
895.594	37.38
895.764	88.57
895.935	-36.35
896.106	90.62
896.276	-87.55
896.447	-24.06
896.617	-54.78
896.788	-65.02
896.958	-60.93
897.129	-5.63
897.299	-28.16
897.47	96.77
897.64	74.24
897.81	-19.97
897.981	-3.58
898.151	-48.64
898.322	41.47
898.492	66.05
898.662	-67.07
898.832	-40.45
899.003	-36.35
899.173	-3.58
899.343	-108.03
899.513	-40.45
