Data from USB4F104151__97__10-45-17-964.txt Node

Date: Wed Feb 26 10:45:17 EST 2025
User: louis
Spectrometer: USB4F10415
Trigger mode: 4
Integration Time (sec): 1.000000E-1
Scans to average: 1
Electric dark correction enabled: true
Nonlinearity correction enabled: false
Boxcar width: 0
XAxis mode: Wavelengths
Number of Pixels in Spectrum: 3648
>>>>>Begin Spectral Data<<<<<
178.204	-335.53
178.424	-335.53
178.644	-335.53
178.864	-390.82
179.084	-337.57
179.304	-63.15
179.524	-46.76
179.744	26.96
179.964	94.55
180.184	35.16
180.404	0.34
180.624	-5.8
180.844	-22.19
181.064	-59.05
181.283	84.31
181.503	-75.43
181.723	31.06
181.943	-106.15
182.163	198.99
182.383	-24.23
182.602	65.88
182.822	96.6
183.042	37.2
183.262	-48.81
183.482	55.64
183.701	51.54
183.921	-5.8
184.141	4.44
184.361	102.74
184.58	0.34
184.8	63.83
185.02	-24.23
185.239	176.47
185.459	6.49
185.679	139.6
185.898	-100.01
186.118	63.83
186.338	14.68
186.557	65.88
186.777	-48.81
186.997	16.73
187.216	106.84
187.436	207.19
187.655	59.73
187.875	47.44
188.095	-16.04
188.314	151.89
188.534	53.59
188.753	-34.47
188.973	139.6
189.192	196.95
189.412	-28.33
189.631	20.82
189.851	131.41
190.07	186.71
190.29	4.44
190.509	-9.9
190.729	6.49
190.948	133.46
191.168	184.66
191.387	160.08
191.607	14.68
191.826	24.92
192.045	6.49
192.265	20.82
192.484	55.64
192.704	29.01
192.923	-16.04
193.142	166.23
193.362	145.75
193.581	155.99
193.8	119.12
194.02	115.03
194.239	33.11
194.458	86.36
194.678	-24.23
194.897	6.49
195.116	72.02
195.335	41.3
195.555	76.12
195.774	6.49
195.993	129.36
196.212	96.6
196.432	80.21
196.651	-57
196.87	69.97
197.089	207.19
197.308	6.49
197.528	57.68
197.747	-28.33
197.966	131.41
198.185	104.79
198.404	43.35
198.623	117.08
198.842	67.92
199.062	149.84
199.281	104.79
199.5	82.26
199.719	151.89
199.938	72.02
200.157	125.27
200.376	63.83
200.595	129.36
200.814	100.69
201.033	39.25
201.252	160.08
201.471	145.75
201.69	117.08
201.909	127.32
202.128	82.26
202.347	67.92
202.566	63.83
202.785	-63.15
203.004	-28.33
203.223	266.58
203.442	92.5
203.661	-69.29
203.879	14.68
204.098	207.19
204.317	-63.15
204.536	78.16
204.755	104.79
204.974	102.74
205.193	35.16
205.411	119.12
205.63	78.16
205.849	110.93
206.068	2.39
206.287	16.73
206.505	61.78
206.724	18.77
206.943	-67.24
207.162	-61.1
207.381	106.84
207.599	22.87
207.818	98.64
208.037	-40.62
208.255	49.49
208.474	129.36
208.693	84.31
208.911	24.92
209.13	59.73
209.349	43.35
209.567	160.08
209.786	6.49
210.005	76.12
210.223	76.12
210.442	-116.39
210.661	-79.53
210.879	47.44
211.098	-54.95
211.316	24.92
211.535	96.6
211.753	67.92
211.972	110.93
212.191	-22.19
212.409	-67.24
212.628	72.02
212.846	-48.81
213.065	92.5
213.283	123.22
213.502	-42.67
213.72	-16.04
213.938	39.25
214.157	0.34
214.375	135.51
214.594	-26.28
214.812	39.25
215.031	24.92
215.249	20.82
215.467	88.4
215.686	39.25
215.904	61.78
216.122	35.16
216.341	160.08
216.559	12.63
216.778	141.65
216.996	127.32
217.214	6.49
217.432	-16.04
217.651	20.82
217.869	78.16
218.087	2.39
218.306	43.35
218.524	35.16
218.742	53.59
218.96	96.6
219.179	-95.91
219.397	35.16
219.615	221.52
219.833	12.63
220.051	-28.33
220.27	192.85
220.488	69.97
220.706	47.44
220.924	14.68
221.142	-1.71
221.36	100.69
221.578	96.6
221.796	72.02
222.015	-18.09
222.233	67.92
222.451	166.23
222.669	22.87
222.887	80.21
223.105	-71.34
223.323	63.83
223.541	6.49
223.759	35.16
223.977	4.44
224.195	164.18
224.413	94.55
224.631	80.21
224.849	22.87
225.067	162.13
225.285	18.77
225.503	67.92
225.721	-108.2
225.939	65.88
226.157	-7.85
226.375	201.04
226.592	-52.91
226.81	59.73
227.028	143.7
227.246	133.46
227.464	22.87
227.682	182.61
227.9	84.31
228.117	55.64
228.335	31.06
228.553	45.4
228.771	-9.9
228.989	45.4
229.206	92.5
229.424	39.25
229.642	0.34
229.86	-83.63
230.077	168.27
230.295	112.98
230.513	67.92
230.731	55.64
230.948	155.99
231.166	170.32
231.384	8.53
231.601	-95.91
231.819	106.84
232.037	-38.57
232.254	-26.28
232.472	-11.95
232.689	-3.75
232.907	100.69
233.125	74.07
233.342	-63.15
233.56	20.82
233.777	22.87
233.995	16.73
234.213	92.5
234.43	121.17
234.648	61.78
234.865	-36.52
235.083	69.97
235.3	88.4
235.518	137.56
235.735	155.99
235.953	123.22
236.17	63.83
236.388	26.96
236.605	84.31
236.822	106.84
237.04	139.6
237.257	10.58
237.475	-83.63
237.692	112.98
237.909	-38.57
238.127	35.16
238.344	31.06
238.562	37.2
238.779	-11.95
238.996	31.06
239.214	86.36
239.431	37.2
239.648	-30.38
239.865	112.98
240.083	59.73
240.3	29.01
240.517	14.68
240.735	18.77
240.952	143.7
241.169	102.74
241.386	43.35
241.603	53.59
241.821	-38.57
242.038	82.26
242.255	104.79
242.472	-24.23
242.689	98.64
242.907	59.73
243.124	41.3
243.341	84.31
243.558	6.49
243.775	-18.09
243.992	-32.43
244.209	129.36
244.426	145.75
244.643	41.3
244.86	45.4
245.078	137.56
245.295	90.45
245.512	45.4
245.729	37.2
245.946	14.68
246.163	74.07
246.38	-26.28
246.597	26.96
246.814	-9.9
247.031	24.92
247.248	10.58
247.464	155.99
247.681	6.49
247.898	131.41
248.115	55.64
248.332	-42.67
248.549	182.61
248.766	162.13
248.983	84.31
249.2	145.75
249.417	119.12
249.633	37.2
249.85	2.39
250.067	55.64
250.284	121.17
250.501	78.16
250.717	104.79
250.934	-48.81
251.151	-9.9
251.368	-20.14
251.585	35.16
251.801	65.88
252.018	-79.53
252.235	100.69
252.451	-5.8
252.668	6.49
252.885	104.79
253.102	6.49
253.318	47.44
253.535	-36.52
253.752	45.4
253.968	-7.85
254.185	-18.09
254.401	45.4
254.618	90.45
254.835	6.49
255.051	115.03
255.268	74.07
255.484	45.4
255.701	29.01
255.917	33.11
256.134	-3.75
256.351	78.16
256.567	-63.15
256.784	45.4
257	-106.15
257.217	45.4
257.433	135.51
257.65	-1.71
257.866	133.46
258.082	-34.47
258.299	-36.52
258.515	69.97
258.732	-32.43
258.948	-20.14
259.165	20.82
259.381	16.73
259.597	55.64
259.814	33.11
260.03	20.82
260.246	-42.67
260.463	39.25
260.679	82.26
260.895	55.64
261.112	51.54
261.328	4.44
261.544	-26.28
261.761	182.61
261.977	-50.86
262.193	59.73
262.409	59.73
262.626	-7.85
262.842	43.35
263.058	-5.8
263.274	135.51
263.49	63.83
263.707	92.5
263.923	72.02
264.139	-38.57
264.355	0.34
264.571	63.83
264.787	2.39
265.004	96.6
265.22	33.11
265.436	-38.57
265.652	33.11
265.868	86.36
266.084	-63.15
266.3	57.68
266.516	-122.54
266.732	31.06
266.948	74.07
267.164	35.16
267.38	137.56
267.596	78.16
267.812	153.94
268.028	-13.99
268.244	0.34
268.46	82.26
268.676	0.34
268.892	59.73
269.108	12.63
269.324	-16.04
269.54	6.49
269.756	92.5
269.972	-48.81
270.188	63.83
270.403	-36.52
270.619	61.78
270.835	63.83
271.051	-5.8
271.267	26.96
271.483	-9.9
271.698	135.51
271.914	72.02
272.13	33.11
272.346	-5.8
272.562	49.49
272.777	123.22
272.993	53.59
273.209	-65.19
273.425	100.69
273.64	16.73
273.856	147.8
274.072	84.31
274.287	29.01
274.503	63.83
274.719	74.07
274.934	16.73
275.15	-89.77
275.366	39.25
275.581	-40.62
275.797	90.45
276.012	-13.99
276.228	-3.75
276.444	22.87
276.659	137.56
276.875	-1.71
277.09	20.82
277.306	16.73
277.521	96.6
277.737	14.68
277.952	141.65
278.168	-26.28
278.383	57.68
278.599	33.11
278.814	100.69
279.03	18.77
279.245	158.03
279.461	72.02
279.676	96.6
279.892	-106.15
280.107	-28.33
280.322	-116.39
280.538	88.4
280.753	29.01
280.969	82.26
281.184	10.58
281.399	119.12
281.615	49.49
281.83	123.22
282.045	-1.71
282.26	-104.11
282.476	100.69
282.691	88.4
282.906	59.73
283.122	26.96
283.337	-20.14
283.552	49.49
283.767	0.34
283.983	102.74
284.198	-18.09
284.413	35.16
284.628	-46.76
284.843	59.73
285.058	37.2
285.274	18.77
285.489	55.64
285.704	92.5
285.919	-7.85
286.134	0.34
286.349	18.77
286.564	22.87
286.779	155.99
286.995	37.2
287.21	-73.39
287.425	112.98
287.64	61.78
287.855	86.36
288.07	-81.58
288.285	215.38
288.5	88.4
288.715	51.54
288.93	86.36
289.145	22.87
289.36	141.65
289.575	-46.76
289.79	196.95
290.004	-57
290.219	139.6
290.434	-34.47
290.649	8.53
290.864	-44.71
291.079	63.83
291.294	22.87
291.509	96.6
291.724	-26.28
291.938	43.35
292.153	45.4
292.368	-7.85
292.583	69.97
292.798	98.64
293.012	49.49
293.227	49.49
293.442	18.77
293.657	90.45
293.871	137.56
294.086	84.31
294.301	186.71
294.516	158.03
294.73	102.74
294.945	-22.19
295.16	-11.95
295.374	117.08
295.589	151.89
295.804	-34.47
296.018	55.64
296.233	90.45
296.447	22.87
296.662	14.68
296.877	82.26
297.091	180.56
297.306	16.73
297.52	-18.09
297.735	96.6
297.949	20.82
298.164	41.3
298.378	80.21
298.593	-48.81
298.807	2.39
299.022	18.77
299.236	145.75
299.451	78.16
299.665	12.63
299.88	-28.33
300.094	90.45
300.309	129.36
300.523	43.35
300.737	96.6
300.952	110.93
301.166	125.27
301.381	61.78
301.595	-20.14
301.809	63.83
302.024	-9.9
302.238	-44.71
302.452	57.68
302.667	8.53
302.881	149.84
303.095	84.31
303.309	-1.71
303.524	24.92
303.738	26.96
303.952	39.25
304.166	90.45
304.381	-97.96
304.595	139.6
304.809	24.92
305.023	119.12
305.237	-30.38
305.452	41.3
305.666	127.32
305.88	45.4
306.094	133.46
306.308	123.22
306.522	106.84
306.736	55.64
306.95	145.75
307.164	63.83
307.379	43.35
307.593	160.08
307.807	117.08
308.021	57.68
308.235	67.92
308.449	-114.34
308.663	-22.19
308.877	246.1
309.091	74.07
309.305	129.36
309.519	-104.11
309.733	80.21
309.947	-87.72
310.161	65.88
310.374	76.12
310.588	86.36
310.802	-1.71
311.016	10.58
311.23	57.68
311.444	49.49
311.658	57.68
311.872	186.71
312.085	145.75
312.299	190.8
312.513	94.55
312.727	45.4
312.941	16.73
313.154	78.16
313.368	-18.09
313.582	78.16
313.796	88.4
314.009	14.68
314.223	123.22
314.437	106.84
314.651	78.16
314.864	37.2
315.078	22.87
315.292	-16.04
315.505	-28.33
315.719	2.39
315.933	88.4
316.146	-36.52
316.36	-65.19
316.573	141.65
316.787	145.75
317.001	51.54
317.214	-3.75
317.428	92.5
317.641	-28.33
317.855	12.63
318.068	88.4
318.282	-11.95
318.495	172.37
318.709	59.73
318.922	86.36
319.136	170.32
319.349	92.5
319.563	-1.71
319.776	51.54
319.99	-44.71
320.203	82.26
320.417	84.31
320.63	92.5
320.843	164.18
321.057	67.92
321.27	-32.43
321.483	57.68
321.697	127.32
321.91	29.01
322.124	117.08
322.337	145.75
322.55	-13.99
322.763	131.41
322.977	47.44
323.19	8.53
323.403	-20.14
323.617	8.53
323.83	86.36
324.043	22.87
324.256	59.73
324.469	-61.1
324.683	84.31
324.896	59.73
325.109	51.54
325.322	-48.81
325.535	82.26
325.748	47.44
325.962	-22.19
326.175	57.68
326.388	69.97
326.601	192.85
326.814	31.06
327.027	41.3
327.24	174.42
327.453	-28.33
327.666	53.59
327.879	129.36
328.092	45.4
328.305	26.96
328.518	-3.75
328.731	-36.52
328.944	12.63
329.157	51.54
329.37	12.63
329.583	252.24
329.796	151.89
330.009	-52.91
330.222	82.26
330.435	78.16
330.648	-40.62
330.861	20.82
331.073	69.97
331.286	53.59
331.499	61.78
331.712	-54.95
331.925	88.4
332.138	82.26
332.35	108.88
332.563	-9.9
332.776	196.95
332.989	-13.99
333.202	-16.04
333.414	-46.76
333.627	61.78
333.84	18.77
334.053	106.84
334.265	-36.52
334.478	55.64
334.691	-46.76
334.903	29.01
335.116	-20.14
335.329	22.87
335.541	39.25
335.754	108.88
335.966	-11.95
336.179	98.64
336.392	18.77
336.604	39.25
336.817	76.12
337.029	31.06
337.242	26.96
337.454	141.65
337.667	65.88
337.88	104.79
338.092	67.92
338.305	84.31
338.517	2.39
338.729	151.89
338.942	90.45
339.154	-54.95
339.367	-38.57
339.579	106.84
339.792	-71.34
340.004	80.21
340.217	53.59
340.429	121.17
340.641	-22.19
340.854	-54.95
341.066	37.2
341.278	139.6
341.491	176.47
341.703	24.92
341.915	-32.43
342.128	35.16
342.34	14.68
342.552	-40.62
342.764	10.58
342.977	-20.14
343.189	43.35
343.401	92.5
343.613	14.68
343.826	117.08
344.038	61.78
344.25	16.73
344.462	22.87
344.674	123.22
344.886	-1.71
345.099	123.22
345.311	51.54
345.523	37.2
345.735	-159.4
345.947	65.88
346.159	63.83
346.371	-1.71
346.583	-38.57
346.795	205.14
347.007	-46.76
347.219	61.78
347.431	-9.9
347.643	59.73
347.855	-3.75
348.067	129.36
348.279	-50.86
348.491	-3.75
348.703	100.69
348.915	24.92
349.127	0.34
349.339	18.77
349.551	20.82
349.763	110.93
349.975	74.07
350.187	86.36
350.399	170.32
350.61	137.56
350.822	-18.09
351.034	63.83
351.246	16.73
351.458	51.54
351.669	104.79
351.881	47.44
352.093	84.31
352.305	117.08
352.517	84.31
352.728	147.8
352.94	29.01
353.152	22.87
353.363	-20.14
353.575	22.87
353.787	182.61
353.999	65.88
354.21	147.8
354.422	24.92
354.633	-63.15
354.845	74.07
355.057	67.92
355.268	22.87
355.48	102.74
355.692	-110.25
355.903	-18.09
356.115	47.44
356.326	-118.44
356.538	166.23
356.749	112.98
356.961	153.94
357.172	88.4
357.384	-3.75
357.595	248.15
357.807	39.25
358.018	-1.71
358.23	61.78
358.441	211.28
358.653	61.78
358.864	12.63
359.075	-106.15
359.287	96.6
359.498	61.78
359.709	78.16
359.921	88.4
360.132	96.6
360.344	55.64
360.555	-22.19
360.766	88.4
360.977	-26.28
361.189	141.65
361.4	53.59
361.611	145.75
361.823	182.61
362.034	106.84
362.245	-89.77
362.456	55.64
362.667	88.4
362.879	-77.48
363.09	26.96
363.301	55.64
363.512	92.5
363.723	26.96
363.935	-44.71
364.146	125.27
364.357	-9.9
364.568	43.35
364.779	-120.49
364.99	139.6
365.201	-5.8
365.412	164.18
365.623	-75.43
365.834	35.16
366.045	72.02
366.256	117.08
366.467	100.69
366.678	-42.67
366.889	108.88
367.1	-3.75
367.311	104.79
367.522	33.11
367.733	121.17
367.944	92.5
368.155	31.06
368.366	61.78
368.577	96.6
368.788	96.6
368.999	20.82
369.209	123.22
369.42	239.95
369.631	229.71
369.842	162.13
370.053	-9.9
370.264	112.98
370.474	20.82
370.685	61.78
370.896	57.68
371.107	164.18
371.317	84.31
371.528	53.59
371.739	155.99
371.95	72.02
372.16	69.97
372.371	-95.91
372.582	-5.8
372.792	84.31
373.003	94.55
373.214	82.26
373.424	78.16
373.635	14.68
373.846	151.89
374.056	65.88
374.267	74.07
374.477	92.5
374.688	6.49
374.898	59.73
375.109	63.83
375.319	63.83
375.53	153.94
375.74	53.59
375.951	10.58
376.161	88.4
376.372	131.41
376.582	-32.43
376.793	53.59
377.003	-3.75
377.214	-16.04
377.424	84.31
377.635	26.96
377.845	14.68
378.055	129.36
378.266	-24.23
378.476	45.4
378.686	33.11
378.897	43.35
379.107	164.18
379.317	45.4
379.528	104.79
379.738	63.83
379.948	-54.95
380.158	180.56
380.369	106.84
380.579	106.84
380.789	4.44
380.999	92.5
381.21	84.31
381.42	129.36
381.63	41.3
381.84	53.59
382.05	119.12
382.261	104.79
382.471	117.08
382.681	-34.47
382.891	131.41
383.101	84.31
383.311	-61.1
383.521	53.59
383.731	100.69
383.941	158.03
384.151	86.36
384.361	100.69
384.571	67.92
384.781	102.74
384.991	194.9
385.201	166.23
385.411	16.73
385.621	100.69
385.831	80.21
386.041	80.21
386.251	88.4
386.461	57.68
386.671	22.87
386.881	88.4
387.091	-5.8
387.301	112.98
387.511	59.73
387.72	74.07
387.93	186.71
388.14	-122.54
388.35	33.11
388.56	102.74
388.769	166.23
388.979	-38.57
389.189	35.16
389.399	63.83
389.609	127.32
389.818	18.77
390.028	16.73
390.238	41.3
390.447	6.49
390.657	129.36
390.867	26.96
391.076	16.73
391.286	33.11
391.496	16.73
391.705	57.68
391.915	117.08
392.125	108.88
392.334	14.68
392.544	141.65
392.753	37.2
392.963	-54.95
393.172	10.58
393.382	-20.14
393.591	160.08
393.801	59.73
394.01	184.66
394.22	45.4
394.429	61.78
394.639	-1.71
394.848	102.74
395.058	8.53
395.267	14.68
395.477	180.56
395.686	123.22
395.895	221.52
396.105	207.19
396.314	84.31
396.524	69.97
396.733	-79.53
396.942	88.4
397.152	98.64
397.361	131.41
397.57	31.06
397.78	2.39
397.989	26.96
398.198	254.29
398.407	72.02
398.617	-16.04
398.826	63.83
399.035	41.3
399.244	133.46
399.453	67.92
399.663	53.59
399.872	72.02
400.081	-34.47
400.29	131.41
400.499	-46.76
400.708	174.42
400.917	-18.09
401.127	-20.14
401.336	12.63
401.545	182.61
401.754	135.51
401.963	65.88
402.172	-7.85
402.381	24.92
402.59	12.63
402.799	51.54
403.008	112.98
403.217	72.02
403.426	145.75
403.635	-28.33
403.844	125.27
404.053	88.4
404.262	-3.75
404.471	143.7
404.68	108.88
404.888	151.89
405.097	86.36
405.306	117.08
405.515	129.36
405.724	47.44
405.933	129.36
406.142	53.59
406.35	90.45
406.559	29.01
406.768	8.53
406.977	104.79
407.185	78.16
407.394	-3.75
407.603	14.68
407.812	16.73
408.02	158.03
408.229	80.21
408.438	41.3
408.646	-1.71
408.855	86.36
409.064	43.35
409.272	29.01
409.481	115.03
409.69	6.49
409.898	-22.19
410.107	26.96
410.315	102.74
410.524	-30.38
410.733	35.16
410.941	37.2
411.15	139.6
411.358	149.84
411.567	69.97
411.775	37.2
411.984	65.88
412.192	51.54
412.401	65.88
412.609	153.94
412.818	110.93
413.026	166.23
413.234	2.39
413.443	47.44
413.651	-9.9
413.86	59.73
414.068	203.09
414.276	250.19
414.485	-26.28
414.693	170.32
414.901	110.93
415.11	43.35
415.318	102.74
415.526	59.73
415.734	67.92
415.943	26.96
416.151	151.89
416.359	100.69
416.567	61.78
416.776	55.64
416.984	78.16
417.192	188.75
417.4	57.68
417.608	22.87
417.817	84.31
418.025	61.78
418.233	160.08
418.441	-24.23
418.649	-42.67
418.857	94.55
419.065	178.51
419.273	-59.05
419.481	33.11
419.689	16.73
419.897	-38.57
420.105	-75.43
420.313	137.56
420.521	164.18
420.729	145.75
420.937	37.2
421.145	39.25
421.353	123.22
421.561	188.75
421.769	176.47
421.977	-40.62
422.185	14.68
422.393	53.59
422.601	72.02
422.809	110.93
423.017	125.27
423.224	94.55
423.432	192.85
423.64	90.45
423.848	164.18
424.056	18.77
424.263	205.14
424.471	49.49
424.679	121.17
424.887	-63.15
425.094	125.27
425.302	102.74
425.51	74.07
425.718	141.65
425.925	110.93
426.133	72.02
426.341	215.38
426.548	82.26
426.756	22.87
426.964	78.16
427.171	51.54
427.379	84.31
427.586	149.84
427.794	141.65
428.001	215.38
428.209	92.5
428.417	188.75
428.624	201.04
428.832	108.88
429.039	123.22
429.247	80.21
429.454	170.32
429.662	166.23
429.869	182.61
430.076	86.36
430.284	119.12
430.491	254.29
430.699	96.6
430.906	235.86
431.114	69.97
431.321	155.99
431.528	139.6
431.736	125.27
431.943	194.9
432.15	176.47
432.358	127.32
432.565	297.3
432.772	-5.8
432.979	211.28
433.187	172.37
433.394	276.82
433.601	131.41
433.808	192.85
434.016	270.67
434.223	221.52
434.43	211.28
434.637	246.1
434.844	258.39
435.052	311.63
435.259	231.76
435.466	342.35
435.673	227.67
435.88	217.43
436.087	350.54
436.294	391.5
436.501	420.17
436.708	162.13
436.915	358.74
437.122	293.2
437.329	321.87
437.537	340.3
437.743	354.64
437.95	457.04
438.157	344.4
438.364	426.32
438.571	383.31
438.778	495.95
438.985	457.04
439.192	508.24
439.399	418.13
439.606	481.61
439.813	559.44
440.02	606.54
440.227	676.17
440.433	608.59
440.64	508.24
440.847	592.2
441.054	678.22
441.261	731.47
441.467	645.45
441.674	616.78
441.881	768.33
442.088	637.26
442.294	780.62
442.501	899.4
442.708	870.73
442.914	866.63
443.121	928.07
443.328	907.59
443.534	960.84
443.741	936.26
443.948	770.38
444.154	1048.9
444.361	1259.84
444.568	1100.1
444.774	1165.64
444.981	1104.2
445.187	1208.64
445.394	1206.59
445.6	1220.93
445.807	1411.39
446.013	1290.56
446.22	1368.38
446.426	1495.36
446.633	1528.13
446.839	1665.34
447.046	1501.5
447.252	1849.66
447.459	1605.95
447.665	1745.21
447.871	1892.66
448.078	2031.93
448.284	1960.25
448.491	2158.9
448.697	2171.19
448.903	2214.2
449.11	2242.87
449.316	2396.46
449.522	2566.45
449.728	2554.16
449.935	2658.6
450.141	2679.08
450.347	2844.97
450.553	2838.83
450.76	2898.22
450.966	3111.21
451.172	3076.39
451.378	3346.72
451.584	3270.95
451.791	3541.28
451.997	3557.66
452.203	3528.99
452.409	3868.95
452.615	4170.01
452.821	3975.45
453.027	4075.8
453.233	4628.75
453.44	4284.69
453.646	4706.57
453.852	4780.3
454.058	5085.45
454.264	5290.24
454.47	5654.78
454.676	5617.92
454.882	6086.9
455.088	5740.8
455.294	6058.23
455.5	6441.2
455.705	6906.09
455.911	6879.47
456.117	6889.71
456.323	7268.58
456.529	7407.84
456.735	7895.26
456.941	8161.5
457.147	8437.97
457.352	8749.26
457.558	8843.47
457.764	9648.32
457.97	9795.78
458.176	9976
458.381	10676.4
458.587	10809.52
458.793	11378.86
458.999	11405.48
459.204	12652.69
459.41	13146.25
459.616	12814.48
459.821	13711.49
460.027	14295.16
460.233	14923.89
460.438	15014
460.644	15884.39
460.85	16083.04
461.055	16738.39
461.261	17399.88
461.466	17145.94
461.672	17446.99
461.878	19456.04
462.083	19355.69
462.289	19886.12
462.494	20494.36
462.7	20473.88
462.905	20879.38
463.111	22867.96
463.316	23635.95
463.522	24029.16
463.727	25104.34
463.932	26267.59
464.138	26767.29
464.343	27721.65
464.549	28307.37
464.754	30085
464.959	30699.39
465.165	31246.2
465.37	30979.96
465.575	31219.58
465.781	33306.46
465.986	34199.37
466.191	33492.82
466.397	34035.53
466.602	33159
466.807	35346.23
467.012	35667.77
467.218	36278.06
467.423	36161.33
467.628	37533.46
467.833	39710.46
468.038	38811.4
468.244	38113.04
468.449	39804.66
468.654	39020.29
468.859	39089.92
469.064	38952.71
469.269	37803.8
469.474	38649.61
469.679	39575.29
469.885	38649.61
470.09	39061.25
470.295	39476.99
470.5	38197.01
470.705	38502.15
470.91	37926.67
471.115	37091.1
471.32	37459.74
471.525	37703.45
471.73	36402.99
471.935	36255.53
472.139	35135.29
472.344	35428.15
472.549	34813.76
472.754	34129.74
472.959	33314.65
473.164	32423.78
473.369	32006
473.574	32595.81
473.778	31954.8
473.983	31520.63
474.188	30904.19
474.393	29439.89
474.598	29257.62
474.802	28696.48
475.007	28428.2
475.212	28075.94
475.417	26611.65
475.621	26671.04
475.826	26552.26
476.031	25624.53
476.235	25329.62
476.44	25329.62
476.645	24842.2
476.849	24418.27
477.054	23785.45
477.259	23494.64
477.463	23375.86
477.668	22599.68
477.872	22902.78
478.077	22296.58
478.282	21913.61
478.486	21311.5
478.691	21237.78
478.895	20992.02
479.1	20928.53
479.304	20846.62
479.509	20027.43
479.713	20381.73
479.918	19822.63
480.122	19345.45
480.326	19462.19
480.531	19546.16
480.735	19126.32
480.94	18976.82
481.144	19398.7
481.348	18337.85
481.553	18440.25
481.757	18042.95
481.961	18292.8
482.166	18284.61
482.37	18194.5
482.574	17569.87
482.778	17606.73
482.983	18006.08
483.187	17700.94
483.391	17352.78
483.595	17393.74
483.8	16863.32
484.004	16830.55
484.208	16652.38
484.412	16482.39
484.616	16541.78
484.821	16269.41
485.025	16009.31
485.229	15956.07
485.433	15777.89
485.637	15698.02
485.841	15392.87
486.045	15118.45
486.249	14989.42
486.453	14704.76
486.657	14753.91
486.861	14313.59
487.065	13740.16
487.269	13981.82
487.473	13330.57
487.677	13418.63
487.881	13437.06
488.085	13205.64
488.289	12933.26
488.493	12757.14
488.697	12566.68
488.901	12208.28
489.105	11964.57
489.309	11700.39
489.512	11757.73
489.716	11552.93
489.92	11131.05
490.124	11030.7
490.328	10989.74
490.531	10430.65
490.735	10490.04
490.939	10322.1
491.143	10166.46
491.346	9826.5
491.55	9836.74
491.754	9625.79
491.958	9431.24
492.161	9230.54
492.365	9132.23
492.569	8857.81
492.772	8657.11
492.976	8827.09
493.18	8456.4
493.383	8564.95
493.587	8411.35
493.79	8462.55
493.994	8126.68
494.197	8124.63
494.401	8089.82
494.605	7956.7
494.808	7901.4
495.012	7741.66
495.215	8083.67
495.419	7805.15
495.622	7743.71
495.825	7764.19
496.029	7647.46
496.232	7631.07
496.436	7426.28
496.639	7684.32
496.843	7579.87
497.046	7358.69
497.249	7762.14
497.453	7538.91
497.656	7510.24
497.859	7454.95
498.063	7592.16
498.266	7669.98
498.469	7493.86
498.673	7416.04
498.876	7508.19
499.079	7555.3
499.282	7639.26
499.485	7846.11
499.689	7624.93
499.892	7792.86
500.095	7684.32
500.298	7893.21
500.501	7661.79
500.705	8124.63
500.908	8085.72
501.111	7956.7
501.314	8231.13
501.517	8394.97
501.72	8161.5
501.923	8253.66
502.126	8214.74
502.329	8548.56
502.532	8724.69
502.735	8571.09
502.938	8851.66
503.141	8976.59
503.344	8771.79
503.547	8941.77
503.75	9040.08
503.953	9390.28
504.156	9410.76
504.359	9547.97
504.562	9629.89
504.765	9832.64
504.968	9900.22
505.17	10193.08
505.373	10320.06
505.576	10338.49
505.779	10483.89
505.982	10674.35
506.185	10940.59
506.387	10854.58
506.59	11323.56
506.793	11614.37
506.996	11477.16
507.198	11940
507.401	11966.62
507.604	12335.26
507.807	12482.71
508.009	12583.06
508.212	12894.35
508.415	13426.82
508.617	13523.08
508.82	13576.33
509.022	13805.7
509.225	14340.22
509.428	14581.88
509.63	14932.08
509.833	15003.76
510.035	15868
510.238	15591.53
510.44	16222.3
510.643	16635.99
510.845	16926.8
511.048	17127.5
511.25	17559.63
511.453	17903.68
511.655	18573.37
511.858	18888.76
512.06	18919.48
512.262	19435.56
512.465	19834.92
512.667	20897.81
512.87	20836.38
513.072	21223.44
513.274	21989.38
513.477	22118.4
513.679	22800.38
513.881	23281.65
514.084	23865.32
514.286	24166.37
514.488	24764.38
514.69	25882.57
514.893	25974.73
515.095	26402.75
515.297	27006.91
515.499	27467.7
515.701	27930.54
515.904	28602.27
516.106	29306.77
516.308	29771.66
516.51	30822.27
516.712	30760.83
516.914	31608.69
517.116	32386.92
517.318	32681.83
517.52	33281.88
517.722	33613.65
517.925	34254.67
518.127	35295.03
518.329	35911.47
518.531	36054.83
518.733	36538.15
518.935	37678.87
519.136	37914.39
519.338	38575.88
519.54	39014.15
519.742	39919.35
519.944	40236.78
520.146	41283.3
520.348	41645.79
520.55	41770.71
520.752	42024.66
520.954	43579.07
521.155	43427.52
521.357	43925.18
521.559	44766.89
521.761	45356.71
521.963	45432.48
522.164	45934.23
522.366	46274.2
522.568	46659.21
522.77	46698.12
522.971	47568.51
523.173	47382.15
523.375	48322.16
523.576	47937.15
523.778	48303.73
523.98	48758.38
524.181	48615.02
524.383	48635.5
524.584	49524.32
524.786	49270.37
524.988	48893.55
525.189	49137.26
525.391	49323.62
525.592	50181.72
525.794	49870.43
525.995	49702.49
526.197	49581.66
526.398	49557.09
526.6	49841.76
526.801	49632.86
527.003	49229.41
527.204	48946.79
527.406	49444.45
527.607	48967.27
527.808	48993.9
528.01	47779.45
528.211	48234.1
528.412	48455.28
528.614	47568.51
528.815	47629.95
529.016	47818.36
529.218	46442.13
529.419	46200.47
529.62	45866.65
529.822	45758.11
530.023	45166.24
530.224	44652.2
530.425	44453.55
530.626	43671.23
530.828	43241.15
531.029	43570.88
531.23	42643.15
531.431	42090.2
531.632	41735.9
531.833	41471.71
532.035	40949.48
532.236	40457.96
532.437	40179.44
532.638	39386.88
532.839	38954.75
533.04	38465.29
533.241	37910.29
533.442	38229.77
533.643	36921.12
533.844	36648.74
534.045	36153.13
534.246	35465.02
534.447	35118.91
534.648	34559.81
534.849	34275.15
535.05	33734.48
535.251	33498.97
535.451	32843.62
535.652	32290.66
535.853	31979.37
536.054	31829.87
536.255	31731.57
536.456	30414.73
536.657	30283.66
536.857	29968.27
537.058	29575.06
537.259	29269.91
537.46	29081.5
537.66	28331.94
537.861	27914.16
538.062	27692.97
538.263	27310
538.463	26750.91
538.664	26769.34
538.865	26228.68
539.065	26290.12
539.266	25352.15
539.466	25335.76
539.667	24770.52
539.868	25036.76
540.068	24664.03
540.269	24141.8
540.469	24100.84
540.67	23678.96
540.87	23474.16
541.071	23218.16
541.271	22681.6
541.472	22603.77
541.672	22439.93
541.873	21889.03
542.073	21995.53
542.274	21598.22
542.474	21544.97
542.675	20992.02
542.875	20873.24
543.075	20551.71
543.276	19814.44
543.476	20197.41
543.676	19972.13
543.877	19748.9
544.077	19574.83
544.277	19337.26
544.478	19103.79
544.678	19107.89
544.878	18657.34
545.078	18464.83
545.279	18317.37
545.479	18036.8
545.679	17688.65
545.879	17541.19
546.079	17406.03
546.28	17131.6
546.48	16836.69
546.68	16908.37
546.88	16619.61
547.08	16425.05
547.28	16240.73
547.48	15994.98
547.68	15765.6
547.88	15353.96
548.081	15652.97
548.281	15157.36
548.481	14993.52
548.681	15022.19
548.881	14790.77
549.081	14542.97
549.28	14102.65
549.48	14039.17
549.68	13801.6
549.88	14065.79
550.08	13482.12
550.28	13254.8
550.48	13277.32
550.68	13099.15
550.88	12660.88
551.08	12726.42
551.279	12464.28
551.479	12122.27
551.679	12146.84
551.879	12056.73
552.079	11763.87
552.278	11833.5
552.478	11608.23
552.678	11440.29
552.878	11229.35
553.077	10928.3
553.277	10717.36
553.477	10756.27
553.676	10414.26
553.876	10238.14
554.076	10217.66
554.275	10045.63
554.475	9877.69
554.674	9775.3
554.874	9687.23
555.074	9146.57
555.273	9330.89
555.473	9124.04
555.672	8841.42
555.872	8618.19
556.071	8777.94
556.271	8691.92
556.47	8380.63
556.67	8294.61
556.869	8065.24
557.068	8057.05
557.268	7819.49
557.467	7751.9
557.667	7524.58
557.866	7440.61
558.065	7614.69
558.265	7209.19
558.464	7151.85
558.663	6973.67
558.863	6869.23
559.062	6838.51
559.261	6699.25
559.461	6746.35
559.66	6453.49
559.859	6187.25
560.058	6375.67
560.258	6217.97
560.457	5937.4
560.656	6291.7
560.855	5662.97
561.054	6097.14
561.253	5734.65
561.453	5714.17
561.652	5615.87
561.851	5488.9
562.05	5128.46
562.249	5243.14
562.448	5208.33
562.647	4968.71
562.846	4940.04
563.045	5085.45
563.244	4804.88
563.443	4913.42
563.642	4628.75
563.841	4696.33
564.04	4632.85
564.239	4643.09
564.438	4438.29
564.637	4284.69
564.836	4423.95
565.035	4374.8
565.234	4237.59
565.432	4065.56
565.631	4106.52
565.83	4098.33
566.029	3983.64
566.228	3952.92
566.427	3969.3
566.625	3729.69
566.824	3784.99
567.023	3803.42
567.222	3670.3
567.42	3610.91
567.619	3502.37
567.818	3709.21
568.016	3619.1
568.215	3549.47
568.414	3404.07
568.612	3213.6
568.811	3342.63
569.01	3248.42
569.208	3273
569.407	3141.93
569.605	3051.81
569.804	3019.05
570.002	3002.66
570.201	2822.44
570.4	2918.7
570.598	2855.21
570.797	2847.02
570.995	2730.28
571.193	2758.96
571.392	2703.66
571.59	2545.97
571.789	2668.84
571.987	2611.5
572.186	2636.08
572.384	2578.73
572.582	2382.13
572.781	2486.58
572.979	2365.75
573.177	2318.64
573.376	2371.89
573.574	2343.22
573.772	2234.68
573.971	2294.07
574.169	2142.52
574.367	2228.53
574.565	2195.76
574.763	2072.89
574.962	2013.49
575.16	2003.25
575.358	1960.25
575.556	1898.81
575.754	1956.15
575.952	1882.42
576.151	1970.49
576.349	1962.3
576.547	1808.7
576.745	1904.95
576.943	1835.32
577.141	1638.72
577.339	1689.92
577.537	1786.17
577.735	1792.31
577.933	1683.77
578.131	1698.11
578.329	1769.79
578.527	1704.25
578.725	1585.47
578.923	1397.06
579.121	1587.52
579.319	1399.1
579.516	1335.62
579.714	1630.52
579.912	1401.15
580.11	1319.23
580.308	1405.25
580.506	1352
580.704	1171.78
580.901	1251.65
581.099	1419.58
581.297	1282.37
581.495	1229.12
581.692	1247.55
581.89	1329.47
582.088	1126.72
582.285	1173.83
582.483	1114.44
582.681	1116.48
582.878	1018.18
583.076	1122.63
583.274	1085.76
583.471	1173.83
583.669	1083.72
583.866	874.82
584.064	989.51
584.262	930.12
584.459	889.16
584.657	1040.71
584.854	977.22
585.052	989.51
585.249	997.7
585.447	989.51
585.644	788.81
585.841	952.65
586.039	944.45
586.236	948.55
586.434	807.24
586.631	805.19
586.828	837.96
587.026	854.34
587.223	753.99
587.42	745.8
587.618	846.15
587.815	876.87
588.012	825.67
588.21	774.47
588.407	844.1
588.604	860.49
588.801	684.36
588.999	702.79
589.196	817.48
589.393	719.18
589.59	766.28
589.787	715.08
589.984	737.61
590.182	751.95
590.379	661.84
590.576	745.8
590.773	641.36
590.97	708.94
591.167	823.62
591.364	725.32
591.561	696.65
591.758	872.78
591.955	758.09
592.152	633.16
592.349	745.8
592.546	637.26
592.743	682.31
592.94	674.12
593.137	723.27
593.334	903.5
593.531	743.75
593.727	751.95
593.924	596.3
594.121	735.56
594.318	706.89
594.515	631.12
594.712	829.77
594.908	885.06
595.105	690.51
595.302	803.15
595.499	721.23
595.696	797
595.892	661.84
596.089	913.74
596.286	741.71
596.482	821.58
596.679	833.86
596.876	760.14
597.072	905.54
597.269	809.29
597.466	840.01
597.662	887.11
597.859	973.13
598.055	973.13
598.252	1089.86
598.448	997.7
598.645	1216.83
598.841	1165.64
599.038	1222.98
599.234	1362.24
599.431	1278.27
599.627	1319.23
599.824	1343.81
600.02	1364.29
600.217	1388.86
600.413	1448.26
600.609	1493.31
600.806	1794.36
601.002	1648.96
601.198	1624.38
601.395	1870.14
601.591	1714.49
601.787	1861.94
601.984	2007.35
602.18	2115.89
602.376	2269.49
602.572	2289.97
602.769	2490.67
602.965	2351.41
603.161	2480.43
603.357	2666.8
603.553	2658.6
603.75	2640.17
603.946	2941.22
604.142	2769.2
604.338	3219.75
604.534	3162.41
604.73	3281.19
604.926	3420.45
605.122	3496.22
605.318	3549.47
605.514	3520.8
605.71	3799.32
605.906	3901.72
606.102	3985.69
606.298	4137.24
606.494	4325.65
606.69	4522.26
606.886	4546.83
607.082	4604.18
607.278	4665.61
607.474	4944.14
607.67	5206.28
607.866	5005.58
608.062	5503.23
608.257	5540.1
608.453	5519.62
608.649	5902.59
608.845	5789.95
609.041	5972.22
609.236	6246.65
609.432	6406.39
609.628	6674.67
609.824	6836.46
610.019	6844.65
610.215	6994.15
610.411	7485.67
610.606	7487.72
610.802	7647.46
610.998	7741.66
611.193	8343.77
611.389	8272.09
611.584	8507.6
611.78	8779.98
611.976	8792.27
612.171	9277.64
612.367	9400.52
612.562	9519.3
612.758	9924.8
612.953	10057.92
613.149	10580.15
613.344	10733.75
613.539	11065.52
613.735	11389.1
613.93	11911.33
614.126	11890.85
614.321	12533.91
614.517	12746.9
614.712	12869.78
614.907	13189.26
615.103	13570.18
615.298	13783.17
615.493	14385.27
615.688	14553.21
615.884	15028.34
616.079	15145.07
616.274	15741.03
616.47	15872.1
616.665	16664.66
616.86	16824.4
617.055	17391.69
617.25	17633.35
617.445	18446.4
617.641	18559.03
617.836	19114.03
618.031	19320.88
618.226	20191.27
618.421	20557.85
618.616	21166.1
618.811	21374.99
619.006	22069.25
619.201	22222.85
619.396	23023.61
619.591	23083
619.786	24170.47
619.981	24137.7
620.176	25010.14
620.371	25114.58
620.566	26044.36
620.761	26189.77
620.956	27328.44
621.151	27549.62
621.346	28116.9
621.541	28323.75
621.735	29663.12
621.93	29480.85
622.125	29992.84
622.32	30809.98
622.515	31266.68
622.709	32026.48
622.904	32538.47
623.099	33410.9
623.294	33910.61
623.488	34013.01
623.683	34660.16
623.878	35166.01
624.072	35700.53
624.267	36579.11
624.462	37050.14
624.656	37424.92
624.851	38352.65
625.046	38631.18
625.24	39182.08
625.435	39298.81
625.629	40165.1
625.824	40349.42
626.018	41160.42
626.213	40982.24
626.407	41983.7
626.602	42286.8
626.796	43065.03
626.991	43398.85
627.185	43732.67
627.38	44043.96
627.574	44588.72
627.768	44240.56
627.963	44553.9
628.157	44531.37
628.352	45461.15
628.546	44736.17
628.74	45280.93
628.935	45002.41
629.129	45104.81
629.323	44740.27
629.517	44764.84
629.712	44476.08
629.906	43912.89
630.1	43290.3
630.294	43531.97
630.489	42688.2
630.683	42753.74
630.877	41668.31
631.071	40627.95
631.265	40539.88
631.459	39659.26
631.653	38954.75
631.848	38340.36
632.042	37003.04
632.236	36949.79
632.43	35174.2
632.624	34701.12
632.818	33627.99
633.012	32493.41
633.206	31297.4
633.4	30703.49
633.594	29249.43
633.788	28391.33
633.982	27295.67
634.176	26554.3
634.369	25378.77
634.563	24928.22
634.757	23578.61
634.951	22921.21
635.145	22210.56
635.339	21481.49
635.533	20555.8
635.726	19757.1
635.92	18675.77
636.114	18448.44
636.308	17119.31
636.501	16777.3
636.695	16076.9
636.889	15335.53
637.083	14747.76
637.276	13760.64
637.47	13430.92
637.664	12947.6
637.857	12521.62
638.051	12120.22
638.244	11466.92
638.438	10985.65
638.632	10588.34
638.825	10047.68
639.019	9824.45
639.212	9201.86
639.406	9177.29
639.599	8638.67
639.793	8401.11
639.986	8022.23
640.18	7743.71
640.373	7407.84
640.567	7112.94
640.76	6945
640.954	6609.14
641.147	6187.25
641.34	6015.23
641.534	5767.42
641.727	5632.26
641.92	5388.55
642.114	5218.57
642.307	5044.49
642.5	4919.56
642.694	4614.41
642.887	4610.32
643.08	4485.39
643.273	4202.77
643.467	4047.13
643.66	3801.37
643.853	3649.82
644.046	3488.03
644.239	3451.17
644.432	3242.28
644.626	3039.53
644.819	2922.79
645.012	2885.93
645.205	2879.79
645.398	2840.87
645.591	2656.56
645.784	2521.39
645.977	2332.98
646.17	2441.52
646.363	2261.3
646.556	2058.55
646.749	2029.88
646.942	2029.88
647.135	1880.38
647.328	1894.71
647.521	1757.5
647.714	1853.75
647.907	1585.47
648.099	1571.13
648.292	1509.69
648.485	1575.23
648.678	1446.21
648.871	1325.38
649.064	1374.53
649.256	1112.39
649.449	1286.47
649.642	1093.96
649.835	1122.63
650.027	1057.09
650.22	1167.68
650.413	975.17
650.605	1030.47
650.798	944.45
650.991	885.06
651.183	940.36
651.376	870.73
651.568	883.02
651.761	713.03
651.954	774.47
652.146	739.66
652.339	827.72
652.531	766.28
652.724	692.55
652.916	696.65
653.109	477.52
653.301	715.08
653.494	602.44
653.686	653.64
653.879	647.5
654.071	753.99
654.263	584.01
654.456	579.92
654.648	547.15
654.84	545.1
655.033	426.32
655.225	641.36
655.417	356.69
655.61	561.48
655.802	530.77
655.994	502.09
656.186	334.16
656.379	430.41
656.571	319.82
656.763	383.31
656.955	323.92
657.148	317.78
657.34	452.94
657.532	348.5
657.724	362.83
657.916	364.88
658.108	477.52
658.3	389.46
658.492	336.21
658.684	330.06
658.876	389.46
659.068	196.95
659.26	260.43
659.452	198.99
659.644	336.21
659.836	430.41
660.028	328.02
660.22	201.04
660.412	303.44
660.604	270.67
660.796	325.97
660.988	332.11
661.18	295.25
661.372	264.53
661.563	270.67
661.755	213.33
661.947	143.7
662.139	184.66
662.331	149.84
662.522	229.71
662.714	196.95
662.906	231.76
663.097	158.03
663.289	186.71
663.481	67.92
663.673	194.9
663.864	198.99
664.056	274.77
664.247	170.32
664.439	270.67
664.631	260.43
664.822	303.44
665.014	184.66
665.205	106.84
665.397	145.75
665.588	145.75
665.78	100.69
665.971	209.23
666.163	98.64
666.354	192.85
666.546	112.98
666.737	215.38
666.929	149.84
667.12	127.32
667.311	211.28
667.503	194.9
667.694	215.38
667.885	209.23
668.077	207.19
668.268	94.55
668.459	194.9
668.651	106.84
668.842	242
669.033	141.65
669.224	18.77
669.416	379.22
669.607	98.64
669.798	78.16
669.989	198.99
670.18	108.88
670.371	178.51
670.563	78.16
670.754	209.23
670.945	207.19
671.136	252.24
671.327	26.96
671.518	155.99
671.709	221.52
671.9	221.52
672.091	307.54
672.282	172.37
672.473	133.46
672.664	72.02
672.855	176.47
673.046	184.66
673.237	201.04
673.428	82.26
673.619	254.29
673.809	158.03
674	266.58
674.191	190.8
674.382	123.22
674.573	166.23
674.764	151.89
674.954	168.27
675.145	86.36
675.336	174.42
675.527	61.78
675.717	121.17
675.908	207.19
676.099	102.74
676.289	106.84
676.48	33.11
676.671	106.84
676.861	135.51
677.052	153.94
677.243	104.79
677.433	172.37
677.624	174.42
677.814	129.36
678.005	104.79
678.195	235.86
678.386	112.98
678.576	98.64
678.767	100.69
678.957	168.27
679.148	244.05
679.338	235.86
679.529	186.71
679.719	69.97
679.909	254.29
680.1	141.65
680.29	160.08
680.481	80.21
680.671	252.24
680.861	217.43
681.052	205.14
681.242	106.84
681.432	153.94
681.622	133.46
681.813	96.6
682.003	115.03
682.193	98.64
682.383	182.61
682.573	166.23
682.764	121.17
682.954	254.29
683.144	289.1
683.334	143.7
683.524	88.4
683.714	229.71
683.904	178.51
684.094	178.51
684.284	155.99
684.474	323.92
684.664	213.33
684.854	227.67
685.044	127.32
685.234	237.91
685.424	129.36
685.614	125.27
685.804	299.34
685.994	313.68
686.184	143.7
686.374	217.43
686.564	223.57
686.753	225.62
686.943	69.97
687.133	186.71
687.323	166.23
687.513	209.23
687.702	158.03
687.892	151.89
688.082	215.38
688.272	248.15
688.461	149.84
688.651	352.59
688.841	235.86
689.03	196.95
689.22	176.47
689.41	252.24
689.599	219.47
689.789	123.22
689.979	303.44
690.168	151.89
690.358	209.23
690.547	196.95
690.737	205.14
690.926	215.38
691.116	289.1
691.305	182.61
691.495	225.62
691.684	170.32
691.874	233.81
692.063	229.71
692.252	248.15
692.442	254.29
692.631	170.32
692.82	201.04
693.01	233.81
693.199	256.34
693.388	203.09
693.578	155.99
693.767	190.8
693.956	110.93
694.146	129.36
694.335	252.24
694.524	125.27
694.713	194.9
694.902	211.28
695.092	188.75
695.281	194.9
695.47	153.94
695.659	131.41
695.848	209.23
696.037	104.79
696.226	223.57
696.415	196.95
696.604	268.63
696.793	209.23
696.982	155.99
697.171	350.54
697.36	55.64
697.549	115.03
697.738	45.4
697.927	168.27
698.116	149.84
698.305	190.8
698.494	248.15
698.683	115.03
698.872	334.16
699.061	166.23
699.25	158.03
699.438	207.19
699.627	223.57
699.816	282.96
700.005	67.92
700.193	180.56
700.382	141.65
700.571	246.1
700.76	176.47
700.948	203.09
701.137	168.27
701.326	246.1
701.514	72.02
701.703	194.9
701.892	78.16
702.08	295.25
702.269	108.88
702.457	141.65
702.646	244.05
702.834	125.27
703.023	188.75
703.212	264.53
703.4	158.03
703.589	149.84
703.777	125.27
703.965	104.79
704.154	239.95
704.342	129.36
704.531	213.33
704.719	117.08
704.907	311.63
705.096	127.32
705.284	47.44
705.472	252.24
705.661	164.18
705.849	215.38
706.037	227.67
706.226	231.76
706.414	166.23
706.602	209.23
706.79	215.38
706.979	158.03
707.167	176.47
707.355	0.34
707.543	188.75
707.731	196.95
707.919	196.95
708.107	196.95
708.296	145.75
708.484	63.83
708.672	115.03
708.86	205.14
709.048	133.46
709.236	153.94
709.424	227.67
709.612	256.34
709.8	59.73
709.988	141.65
710.176	221.52
710.364	223.57
710.551	131.41
710.739	147.8
710.927	123.22
711.115	137.56
711.303	172.37
711.491	209.23
711.679	88.4
711.866	172.37
712.054	125.27
712.242	223.57
712.43	328.02
712.617	205.14
712.805	196.95
712.993	166.23
713.181	137.56
713.368	338.26
713.556	198.99
713.744	125.27
713.931	366.93
714.119	211.28
714.306	160.08
714.494	180.56
714.682	176.47
714.869	125.27
715.057	172.37
715.244	145.75
715.432	188.75
715.619	137.56
715.807	170.32
715.994	192.85
716.182	174.42
716.369	231.76
716.556	231.76
716.744	43.35
716.931	35.16
717.119	211.28
717.306	160.08
717.493	254.29
717.681	180.56
717.868	160.08
718.055	209.23
718.242	137.56
718.43	254.29
718.617	272.72
718.804	145.75
718.991	268.63
719.179	250.19
719.366	149.84
719.553	246.1
719.74	268.63
719.927	133.46
720.114	151.89
720.301	170.32
720.488	178.51
720.676	166.23
720.863	340.3
721.05	328.02
721.237	233.81
721.424	242
721.611	233.81
721.798	115.03
721.985	121.17
722.172	133.46
722.358	194.9
722.545	315.73
722.732	260.43
722.919	229.71
723.106	188.75
723.293	110.93
723.48	180.56
723.667	192.85
723.853	297.3
724.04	278.87
724.227	219.47
724.414	153.94
724.6	272.72
724.787	364.88
724.974	391.5
725.161	225.62
725.347	137.56
725.534	276.82
725.72	203.09
725.907	246.1
726.094	268.63
726.28	201.04
726.467	190.8
726.653	172.37
726.84	297.3
727.027	344.4
727.213	205.14
727.4	248.15
727.586	221.52
727.773	235.86
727.959	170.32
728.145	266.58
728.332	201.04
728.518	209.23
728.705	254.29
728.891	268.63
729.077	209.23
729.264	219.47
729.45	252.24
729.636	198.99
729.823	278.87
730.009	244.05
730.195	239.95
730.382	203.09
730.568	213.33
730.754	158.03
730.94	330.06
731.126	233.81
731.313	264.53
731.499	254.29
731.685	147.8
731.871	256.34
732.057	170.32
732.243	231.76
732.429	188.75
732.615	309.58
732.801	307.54
732.987	198.99
733.173	301.39
733.359	172.37
733.545	260.43
733.731	289.1
733.917	330.06
734.103	274.77
734.289	198.99
734.475	125.27
734.661	375.12
734.847	264.53
735.033	295.25
735.219	254.29
735.404	237.91
735.59	219.47
735.776	219.47
735.962	285.01
736.148	387.41
736.333	319.82
736.519	201.04
736.705	217.43
736.89	201.04
737.076	217.43
737.262	143.7
737.447	119.12
737.633	260.43
737.819	276.82
738.004	264.53
738.19	221.52
738.375	203.09
738.561	295.25
738.747	215.38
738.932	217.43
739.118	377.17
739.303	332.11
739.489	278.87
739.674	170.32
739.859	205.14
740.045	287.06
740.23	366.93
740.416	112.98
740.601	291.15
740.786	317.78
740.972	211.28
741.157	215.38
741.342	227.67
741.528	196.95
741.713	276.82
741.898	149.84
742.084	227.67
742.269	221.52
742.454	278.87
742.639	248.15
742.824	260.43
743.01	377.17
743.195	362.83
743.38	280.91
743.565	266.58
743.75	260.43
743.935	242
744.12	325.97
744.305	221.52
744.49	102.74
744.675	158.03
744.86	221.52
745.045	233.81
745.23	196.95
745.415	137.56
745.6	301.39
745.785	174.42
745.97	233.81
746.155	246.1
746.34	311.63
746.525	297.3
746.71	301.39
746.895	121.17
747.079	198.99
747.264	244.05
747.449	209.23
747.634	233.81
747.819	268.63
748.003	231.76
748.188	141.65
748.373	205.14
748.557	256.34
748.742	235.86
748.927	237.91
749.111	190.8
749.296	172.37
749.481	227.67
749.665	149.84
749.85	127.32
750.034	174.42
750.219	180.56
750.404	131.41
750.588	186.71
750.773	117.08
750.957	147.8
751.141	160.08
751.326	215.38
751.51	147.8
751.695	184.66
751.879	166.23
752.064	274.77
752.248	92.5
752.432	287.06
752.617	137.56
752.801	295.25
752.985	180.56
753.17	233.81
753.354	209.23
753.538	221.52
753.722	207.19
753.907	98.64
754.091	53.59
754.275	258.39
754.459	49.49
754.643	78.16
754.828	133.46
755.012	184.66
755.196	35.16
755.38	182.61
755.564	69.97
755.748	139.6
755.932	260.43
756.116	192.85
756.3	223.57
756.484	141.65
756.668	143.7
756.852	104.79
757.036	145.75
757.22	137.56
757.404	41.3
757.588	143.7
757.772	162.13
757.956	125.27
758.14	258.39
758.323	98.64
758.507	115.03
758.691	149.84
758.875	231.76
759.059	223.57
759.242	131.41
759.426	170.32
759.61	143.7
759.794	39.25
759.977	188.75
760.161	235.86
760.345	252.24
760.528	229.71
760.712	139.6
760.895	149.84
761.079	125.27
761.263	51.54
761.446	80.21
761.63	94.55
761.813	264.53
761.997	47.44
762.18	94.55
762.364	174.42
762.547	-32.43
762.731	80.21
762.914	67.92
763.098	61.78
763.281	94.55
763.464	-7.85
763.648	51.54
763.831	82.26
764.015	94.55
764.198	119.12
764.381	108.88
764.564	110.93
764.748	96.6
764.931	196.95
765.114	102.74
765.297	225.62
765.481	86.36
765.664	94.55
765.847	63.83
766.03	262.48
766.213	20.82
766.397	129.36
766.58	-9.9
766.763	135.51
766.946	18.77
767.129	20.82
767.312	102.74
767.495	86.36
767.678	51.54
767.861	39.25
768.044	121.17
768.227	45.4
768.41	82.26
768.593	119.12
768.776	100.69
768.959	155.99
769.142	186.71
769.324	96.6
769.507	90.45
769.69	86.36
769.873	39.25
770.056	276.82
770.239	102.74
770.421	168.27
770.604	153.94
770.787	112.98
770.97	67.92
771.152	-40.62
771.335	108.88
771.518	33.11
771.7	90.45
771.883	170.32
772.066	98.64
772.248	123.22
772.431	131.41
772.613	102.74
772.796	47.44
772.978	178.51
773.161	203.09
773.343	35.16
773.526	84.31
773.708	-95.91
773.891	-57
774.073	-5.8
774.256	18.77
774.438	166.23
774.621	43.35
774.803	26.96
774.985	26.96
775.168	129.36
775.35	69.97
775.532	137.56
775.715	39.25
775.897	125.27
776.079	57.68
776.261	80.21
776.444	82.26
776.626	12.63
776.808	135.51
776.99	4.44
777.173	112.98
777.355	18.77
777.537	41.3
777.719	123.22
777.901	24.92
778.083	-7.85
778.265	-40.62
778.447	92.5
778.629	35.16
778.811	100.69
778.993	76.12
779.175	59.73
779.357	102.74
779.539	-30.38
779.721	-26.28
779.903	123.22
780.085	45.4
780.267	80.21
780.449	84.31
780.631	98.64
780.812	178.51
780.994	74.07
781.176	26.96
781.358	35.16
781.54	106.84
781.721	88.4
781.903	72.02
782.085	-38.57
782.267	84.31
782.448	-18.09
782.63	20.82
782.812	108.88
782.993	59.73
783.175	151.89
783.357	67.92
783.538	31.06
783.72	-32.43
783.901	45.4
784.083	110.93
784.264	59.73
784.446	20.82
784.627	4.44
784.809	90.45
784.99	12.63
785.172	82.26
785.353	20.82
785.535	88.4
785.716	4.44
785.897	16.73
786.079	49.49
786.26	55.64
786.441	82.26
786.623	18.77
786.804	-1.71
786.985	41.3
787.167	47.44
787.348	-52.91
787.529	31.06
787.71	215.38
787.891	-3.75
788.073	4.44
788.254	-30.38
788.435	131.41
788.616	29.01
788.797	-36.52
788.978	-1.71
789.159	29.01
789.34	59.73
789.522	39.25
789.703	33.11
789.884	35.16
790.065	65.88
790.246	153.94
790.427	20.82
790.607	112.98
790.788	108.88
790.969	-52.91
791.15	55.64
791.331	-67.24
791.512	41.3
791.693	-67.24
791.874	39.25
792.054	198.99
792.235	74.07
792.416	16.73
792.597	-71.34
792.778	108.88
792.958	76.12
793.139	76.12
793.32	67.92
793.5	-28.33
793.681	90.45
793.862	65.88
794.042	-36.52
794.223	-75.43
794.404	16.73
794.584	-46.76
794.765	22.87
794.945	2.39
795.126	57.68
795.306	92.5
795.487	-11.95
795.667	-30.38
795.848	96.6
796.028	29.01
796.209	20.82
796.389	59.73
796.57	57.68
796.75	-81.58
796.93	-20.14
797.111	16.73
797.291	-40.62
797.471	4.44
797.652	-34.47
797.832	-50.86
798.012	92.5
798.192	-44.71
798.373	-87.72
798.553	43.35
798.733	47.44
798.913	-63.15
799.093	-34.47
799.274	20.82
799.454	55.64
799.634	121.17
799.814	-7.85
799.994	18.77
800.174	18.77
800.354	-5.8
800.534	29.01
800.714	72.02
800.894	-79.53
801.074	-40.62
801.254	-30.38
801.434	141.65
801.614	-28.33
801.794	-63.15
801.974	1663.29
802.154	49.49
802.334	92.5
802.514	-24.23
802.693	14.68
802.873	-73.39
803.053	147.8
803.233	26.96
803.413	-85.67
803.592	-52.91
803.772	-112.3
803.952	88.4
804.131	-112.3
804.311	69.97
804.491	110.93
804.67	-1.71
804.85	-67.24
805.03	55.64
805.209	153.94
805.389	-44.71
805.568	-38.57
805.748	-1.71
805.928	20.82
806.107	80.21
806.287	-1.71
806.466	18.77
806.646	-16.04
806.825	-44.71
807.004	-32.43
807.184	2.39
807.363	162.13
807.543	-26.28
807.722	26.96
807.901	88.4
808.081	53.59
808.26	-54.95
808.439	31.06
808.619	4.44
808.798	-46.76
808.977	49.49
809.156	37.2
809.336	-34.47
809.515	-13.99
809.694	-32.43
809.873	-40.62
810.052	4.44
810.231	147.8
810.411	59.73
810.59	80.21
810.769	10.58
810.948	112.98
811.127	-1.71
811.306	-13.99
811.485	22.87
811.664	59.73
811.843	45.4
812.022	139.6
812.201	-18.09
812.38	4.44
812.559	-5.8
812.737	90.45
812.916	-75.43
813.095	-42.67
813.274	53.59
813.453	55.64
813.632	49.49
813.811	-3.75
813.989	-26.28
814.168	37.2
814.347	39.25
814.526	18.77
814.704	82.26
814.883	37.2
815.062	-36.52
815.24	10.58
815.419	-59.05
815.598	100.69
815.776	-93.87
815.955	-13.99
816.133	-143.02
816.312	84.31
816.49	-44.71
816.669	45.4
816.847	31.06
817.026	72.02
817.204	26.96
817.383	-1.71
817.561	-89.77
817.74	72.02
817.918	74.07
818.097	-69.29
818.275	-79.53
818.453	-3.75
818.632	8.53
818.81	-54.95
818.988	-3.75
819.167	-59.05
819.345	49.49
819.523	-79.53
819.701	0.34
819.879	45.4
820.058	61.78
820.236	51.54
820.414	-11.95
820.592	-18.09
820.77	-36.52
820.948	-69.29
821.127	-69.29
821.305	4.44
821.483	-116.39
821.661	131.41
821.839	-20.14
822.017	-22.19
822.195	53.59
822.373	115.03
822.551	18.77
822.729	102.74
822.907	-28.33
823.085	59.73
823.262	90.45
823.44	-42.67
823.618	-59.05
823.796	59.73
823.974	-54.95
824.152	-91.82
824.329	33.11
824.507	-11.95
824.685	80.21
824.863	39.25
825.04	63.83
825.218	57.68
825.396	65.88
825.574	-9.9
825.751	39.25
825.929	-11.95
826.107	-54.95
826.284	78.16
826.462	47.44
826.639	-87.72
826.817	-48.81
826.994	39.25
827.172	-71.34
827.349	51.54
827.527	8.53
827.704	-22.19
827.882	12.63
828.059	29.01
828.237	12.63
828.414	78.16
828.591	-100.01
828.769	-1.71
828.946	-97.96
829.124	14.68
829.301	53.59
829.478	4.44
829.655	18.77
829.833	-9.9
830.01	-95.91
830.187	69.97
830.364	24.92
830.542	-5.8
830.719	196.95
830.896	12.63
831.073	67.92
831.25	63.83
831.427	10.58
831.604	63.83
831.782	-50.86
831.959	-7.85
832.136	-16.04
832.313	145.75
832.49	-108.2
832.667	-5.8
832.844	18.77
833.021	104.79
833.198	29.01
833.374	-18.09
833.551	22.87
833.728	-3.75
833.905	-18.09
834.082	-91.82
834.259	61.78
834.436	106.84
834.612	-40.62
834.789	108.88
834.966	37.2
835.143	-38.57
835.319	-151.21
835.496	45.4
835.673	84.31
835.85	90.45
836.026	37.2
836.203	98.64
836.38	-20.14
836.556	45.4
836.733	-85.67
836.909	100.69
837.086	-87.72
837.262	-161.45
837.439	0.34
837.616	-57
837.792	0.34
837.968	76.12
838.145	-112.3
838.321	-61.1
838.498	10.58
838.674	92.5
838.851	31.06
839.027	-40.62
839.203	-52.91
839.38	10.58
839.556	-59.05
839.732	78.16
839.909	-24.23
840.085	92.5
840.261	-28.33
840.437	-18.09
840.614	-20.14
840.79	98.64
840.966	57.68
841.142	31.06
841.318	10.58
841.494	76.12
841.671	125.27
841.847	-5.8
842.023	-13.99
842.199	24.92
842.375	151.89
842.551	-161.45
842.727	-147.11
842.903	141.65
843.079	-85.67
843.255	108.88
843.431	6.49
843.607	104.79
843.783	-136.87
843.959	-40.62
844.134	29.01
844.31	72.02
844.486	-5.8
844.662	-34.47
844.838	12.63
845.013	37.2
845.189	76.12
845.365	-22.19
845.541	45.4
845.716	-46.76
845.892	78.16
846.068	10.58
846.244	-34.47
846.419	-16.04
846.595	-28.33
846.77	-114.34
846.946	63.83
847.122	-106.15
847.297	-36.52
847.473	112.98
847.648	-85.67
847.824	-11.95
847.999	-124.58
848.175	-26.28
848.35	35.16
848.526	88.4
848.701	-34.47
848.876	72.02
849.052	57.68
849.227	55.64
849.403	-59.05
849.578	8.53
849.753	43.35
849.929	67.92
850.104	-112.3
850.279	-1.71
850.454	29.01
850.63	86.36
850.805	-40.62
850.98	6.49
851.155	16.73
851.33	35.16
851.505	-50.86
851.681	69.97
851.856	-38.57
852.031	57.68
852.206	47.44
852.381	-30.38
852.556	-65.19
852.731	-26.28
852.906	43.35
853.081	10.58
853.256	125.27
853.431	-61.1
853.606	-18.09
853.781	-69.29
853.956	-71.34
854.131	-11.95
854.305	-126.63
854.48	-11.95
854.655	-50.86
854.83	-126.63
855.005	-38.57
855.18	2.39
855.354	-48.81
855.529	37.2
855.704	-5.8
855.879	12.63
856.053	4.44
856.228	-18.09
856.403	4.44
856.577	6.49
856.752	-147.11
856.926	-24.23
857.101	39.25
857.276	-50.86
857.45	-100.01
857.625	92.5
857.799	74.07
857.974	-18.09
858.148	-122.54
858.323	92.5
858.497	-9.9
858.672	-28.33
858.846	-54.95
859.02	16.73
859.195	-108.2
859.369	-26.28
859.543	-44.71
859.718	41.3
859.892	-18.09
860.066	55.64
860.241	-44.71
860.415	-69.29
860.589	39.25
860.763	-52.91
860.938	-3.75
861.112	47.44
861.286	-104.11
861.46	29.01
861.634	-3.75
861.808	104.79
861.982	-46.76
862.157	-102.06
862.331	-61.1
862.505	-67.24
862.679	-132.78
862.853	-38.57
863.027	10.58
863.201	137.56
863.375	-108.2
863.549	74.07
863.722	-11.95
863.896	108.88
864.07	-40.62
864.244	22.87
864.418	84.31
864.592	-54.95
864.766	2.39
864.939	20.82
865.113	-20.14
865.287	102.74
865.461	-13.99
865.634	10.58
865.808	51.54
865.982	-3.75
866.156	-112.3
866.329	-91.82
866.503	31.06
866.676	55.64
866.85	47.44
867.024	-50.86
867.197	45.4
867.371	104.79
867.544	43.35
867.718	-128.68
867.891	92.5
868.065	-79.53
868.238	16.73
868.412	88.4
868.585	-22.19
868.759	-50.86
868.932	-38.57
869.105	-95.91
869.279	51.54
869.452	-32.43
869.625	-18.09
869.799	-81.58
869.972	-83.63
870.145	-81.58
870.319	141.65
870.492	-44.71
870.665	-73.39
870.838	-50.86
871.011	-130.73
871.185	-34.47
871.358	-65.19
871.531	39.25
871.704	-57
871.877	-22.19
872.05	37.2
872.223	-116.39
872.396	55.64
872.569	8.53
872.742	-118.44
872.915	41.3
873.088	-61.1
873.261	-181.93
873.434	67.92
873.607	-7.85
873.78	115.03
873.953	-3.75
874.126	-13.99
874.299	31.06
874.471	-67.24
874.644	-28.33
874.817	29.01
874.99	133.46
875.163	-50.86
875.335	-11.95
875.508	0.34
875.681	106.84
875.853	14.68
876.026	-28.33
876.199	43.35
876.371	-57
876.544	-59.05
876.717	51.54
876.889	-69.29
877.062	37.2
877.234	-63.15
877.407	-3.75
877.579	31.06
877.752	-11.95
877.924	74.07
878.097	86.36
878.269	88.4
878.442	-24.23
878.614	10.58
878.786	8.53
878.959	14.68
879.131	6.49
879.303	-116.39
879.476	84.31
879.648	47.44
879.82	-26.28
879.993	-34.47
880.165	-28.33
880.337	-100.01
880.509	55.64
880.681	-145.06
880.854	-95.91
881.026	-7.85
881.198	108.88
881.37	-48.81
881.542	-3.75
881.714	-50.86
881.886	-102.06
882.058	18.77
882.23	61.78
882.402	-81.58
882.574	-46.76
882.746	106.84
882.918	-11.95
883.09	-9.9
883.262	-52.91
883.434	51.54
883.606	-57
883.778	-26.28
883.95	115.03
884.122	-44.71
884.293	16.73
884.465	6.49
884.637	49.49
884.809	-128.68
884.98	43.35
885.152	12.63
885.324	29.01
885.496	-126.63
885.667	-18.09
885.839	2.39
886.011	59.73
886.182	104.79
886.354	117.08
886.525	29.01
886.697	-20.14
886.869	-63.15
887.04	10.58
887.212	55.64
887.383	151.89
887.555	-20.14
887.726	-95.91
887.897	-3.75
888.069	6.49
888.24	-3.75
888.412	-28.33
888.583	37.2
888.754	-3.75
888.926	-128.68
889.097	55.64
889.268	-50.86
889.44	-36.52
889.611	-104.11
889.782	-63.15
889.953	-24.23
890.125	53.59
890.296	-130.73
890.467	-44.71
890.638	-93.87
890.809	-32.43
890.98	-28.33
891.151	0.34
891.323	92.5
891.494	-9.9
891.665	16.73
891.836	6.49
892.007	45.4
892.178	8.53
892.349	24.92
892.52	-63.15
892.691	78.16
892.862	-9.9
893.032	-124.58
893.203	-77.48
893.374	33.11
893.545	137.56
893.716	-89.77
893.887	112.98
894.057	-59.05
894.228	-50.86
894.399	-20.14
894.57	98.64
894.74	-30.38
894.911	22.87
895.082	-50.86
895.253	-16.04
895.423	-18.09
895.594	69.97
895.764	26.96
895.935	-73.39
896.106	29.01
896.276	-20.14
896.447	-1.71
896.617	-77.48
896.788	-52.91
896.958	-61.1
897.129	-79.53
897.299	-28.33
897.47	37.2
897.64	100.69
897.81	-24.23
897.981	-13.99
898.151	-28.33
898.322	72.02
898.492	18.77
898.662	-32.43
898.832	-73.39
899.003	26.96
899.173	22.87
899.343	-81.58
899.513	-71.34
