Data from USB4F104151__91__10-44-41-467.txt Node

Date: Wed Feb 26 10:44:41 EST 2025
User: louis
Spectrometer: USB4F10415
Trigger mode: 4
Integration Time (sec): 1.000000E-1
Scans to average: 1
Electric dark correction enabled: true
Nonlinearity correction enabled: false
Boxcar width: 0
XAxis mode: Wavelengths
Number of Pixels in Spectrum: 3648
>>>>>Begin Spectral Data<<<<<
178.204	-341.5
178.424	-341.5
178.644	-341.5
178.864	-433.66
179.084	-421.37
179.304	41.47
179.524	-46.59
179.744	27.14
179.964	12.8
180.184	0.51
180.404	16.9
180.624	-77.31
180.844	86.53
181.064	-46.59
181.283	37.38
181.503	-108.03
181.723	55.81
181.943	-22.02
182.163	197.12
182.383	51.71
182.602	53.76
182.822	190.97
183.042	86.53
183.262	-5.63
183.482	27.14
183.701	-19.97
183.921	31.23
184.141	-38.4
184.361	8.7
184.58	119.29
184.8	37.38
185.02	-44.54
185.239	72.19
185.459	107.01
185.679	119.29
185.898	-13.82
186.118	70.14
186.338	70.14
186.557	154.11
186.777	-36.35
186.997	-58.88
187.216	14.85
187.436	201.21
187.655	88.57
187.875	100.86
188.095	80.38
188.314	100.86
188.534	113.15
188.753	-26.11
188.973	12.8
189.192	174.59
189.412	-52.74
189.631	23.04
189.851	59.9
190.07	135.68
190.29	-48.64
190.509	-9.73
190.729	29.18
190.948	160.25
191.168	256.51
191.387	35.33
191.607	61.95
191.826	66.05
192.045	145.92
192.265	-28.16
192.484	-19.97
192.704	-28.16
192.923	-48.64
193.142	109.05
193.362	131.58
193.581	104.96
193.8	68.09
194.02	18.94
194.239	57.86
194.458	14.85
194.678	37.38
194.897	59.9
195.116	-15.87
195.335	18.94
195.555	102.91
195.774	23.04
195.993	162.3
196.212	72.19
196.432	2.56
196.651	41.47
196.87	70.14
197.089	260.6
197.308	16.9
197.528	14.85
197.747	8.7
197.966	68.09
198.185	143.87
198.404	-5.63
198.623	100.86
198.842	131.58
199.062	90.62
199.281	16.9
199.5	94.72
199.719	102.91
199.938	27.14
200.157	115.2
200.376	123.39
200.595	78.33
200.814	64
201.033	-22.02
201.252	117.25
201.471	16.9
201.69	107.01
201.909	-17.92
202.128	119.29
202.347	39.42
202.566	98.81
202.785	-87.55
203.004	-1.54
203.223	236.03
203.442	57.86
203.661	-79.36
203.879	115.2
204.098	164.35
204.317	-93.69
204.536	117.25
204.755	66.05
204.974	33.28
205.193	4.61
205.411	100.86
205.63	121.34
205.849	174.59
206.068	27.14
206.287	-9.73
206.505	57.86
206.724	2.56
206.943	-36.35
207.162	29.18
207.381	86.53
207.599	59.9
207.818	119.29
208.037	-3.58
208.255	10.75
208.474	68.09
208.693	72.19
208.911	4.61
209.13	104.96
209.349	18.94
209.567	98.81
209.786	64
210.005	84.48
210.223	76.29
210.442	-120.32
210.661	70.14
210.879	102.91
211.098	6.66
211.316	39.42
211.535	166.4
211.753	82.43
211.972	43.52
212.191	-26.11
212.409	70.14
212.628	117.25
212.846	29.18
213.065	25.09
213.283	109.05
213.502	49.66
213.72	70.14
213.938	-7.68
214.157	43.52
214.375	55.81
214.594	-3.58
214.812	70.14
215.031	-26.11
215.249	25.09
215.467	86.53
215.686	27.14
215.904	61.95
216.122	35.33
216.341	127.49
216.559	78.33
216.778	154.11
216.996	125.44
217.214	-28.16
217.432	37.38
217.651	-28.16
217.869	121.34
218.087	35.33
218.306	78.33
218.524	25.09
218.742	-19.97
218.96	78.33
219.179	16.9
219.397	78.33
219.615	227.84
219.833	47.62
220.051	-54.78
220.27	166.4
220.488	84.48
220.706	70.14
220.924	-32.26
221.142	6.66
221.36	31.23
221.578	94.72
221.796	41.47
222.015	55.81
222.233	78.33
222.451	119.29
222.669	-77.31
222.887	4.61
223.105	14.85
223.323	31.23
223.541	82.43
223.759	43.52
223.977	-1.54
224.195	162.3
224.413	43.52
224.631	47.62
224.849	100.86
225.067	178.69
225.285	-81.41
225.503	31.23
225.721	-93.69
225.939	115.2
226.157	27.14
226.375	254.46
226.592	33.28
226.81	-44.54
227.028	96.77
227.246	143.87
227.464	109.05
227.682	104.96
227.9	25.09
228.117	82.43
228.335	41.47
228.553	88.57
228.771	111.1
228.989	37.38
229.206	123.39
229.424	-28.16
229.642	31.23
229.86	-62.98
230.077	147.97
230.295	78.33
230.513	119.29
230.731	98.81
230.948	195.07
231.166	143.87
231.384	29.18
231.601	31.23
231.819	131.58
232.037	-13.82
232.254	4.61
232.472	61.95
232.689	10.75
232.907	135.68
233.125	-24.06
233.342	-34.3
233.56	20.99
233.777	-65.02
233.995	66.05
234.213	70.14
234.43	6.66
234.648	10.75
234.865	10.75
235.083	98.81
235.3	102.91
235.518	82.43
235.735	100.86
235.953	98.81
236.17	107.01
236.388	78.33
236.605	47.62
236.822	158.21
237.04	139.77
237.257	23.04
237.475	-17.92
237.692	39.42
237.909	25.09
238.127	-73.21
238.344	66.05
238.562	68.09
238.779	39.42
238.996	-15.87
239.214	18.94
239.431	145.92
239.648	37.38
239.865	45.57
240.083	137.73
240.3	12.8
240.517	-7.68
240.735	84.48
240.952	174.59
241.169	8.7
241.386	94.72
241.603	-22.02
241.821	0.51
242.038	76.29
242.255	59.9
242.472	-93.69
242.689	57.86
242.907	59.9
243.124	86.53
243.341	35.33
243.558	8.7
243.775	-73.21
243.992	-91.65
244.209	43.52
244.426	72.19
244.643	53.76
244.86	-34.3
245.078	18.94
245.295	33.28
245.512	25.09
245.729	-144.89
245.946	16.9
246.163	57.86
246.38	80.38
246.597	111.1
246.814	47.62
247.031	78.33
247.248	8.7
247.464	61.95
247.681	68.09
247.898	-38.4
248.115	68.09
248.332	0.51
248.549	35.33
248.766	158.21
248.983	80.38
249.2	55.81
249.417	166.4
249.633	39.42
249.85	80.38
250.067	-44.54
250.284	86.53
250.501	90.62
250.717	84.48
250.934	-75.26
251.151	-32.26
251.368	43.52
251.585	94.72
251.801	102.91
252.018	-30.21
252.235	107.01
252.451	4.61
252.668	-15.87
252.885	109.05
253.102	4.61
253.318	61.95
253.535	6.66
253.752	-40.45
253.968	74.24
254.185	-54.78
254.401	31.23
254.618	117.25
254.835	8.7
255.051	141.82
255.268	43.52
255.484	-1.54
255.701	8.7
255.917	31.23
256.134	12.8
256.351	6.66
256.567	-11.78
256.784	-7.68
257	-36.35
257.217	107.01
257.433	92.67
257.65	76.29
257.866	115.2
258.082	-95.74
258.299	6.66
258.515	117.25
258.732	61.95
258.948	-71.17
259.165	20.99
259.381	-34.3
259.597	-3.58
259.814	-7.68
260.03	49.66
260.246	-11.78
260.463	113.15
260.679	117.25
260.895	8.7
261.112	55.81
261.328	-7.68
261.544	-3.58
261.761	227.84
261.977	25.09
262.193	-19.97
262.409	10.75
262.626	16.9
262.842	2.56
263.058	-26.11
263.274	6.66
263.49	59.9
263.707	109.05
263.923	127.49
264.139	-34.3
264.355	43.52
264.571	12.8
264.787	57.86
265.004	94.72
265.22	53.76
265.436	-34.3
265.652	-11.78
265.868	20.99
266.084	-60.93
266.3	41.47
266.516	4.61
266.732	49.66
266.948	82.43
267.164	23.04
267.38	94.72
267.596	137.73
267.812	150.01
268.028	90.62
268.244	107.01
268.46	-5.63
268.676	27.14
268.892	29.18
269.108	10.75
269.324	-17.92
269.54	10.75
269.756	152.06
269.972	-118.27
270.188	23.04
270.403	47.62
270.619	25.09
270.835	107.01
271.051	-19.97
271.267	53.76
271.483	-42.5
271.698	86.53
271.914	82.43
272.13	68.09
272.346	-44.54
272.562	82.43
272.777	119.29
272.993	-30.21
273.209	94.72
273.425	96.77
273.64	-1.54
273.856	86.53
274.072	59.9
274.287	-17.92
274.503	82.43
274.719	143.87
274.934	27.14
275.15	4.61
275.366	8.7
275.581	-7.68
275.797	-3.58
276.012	55.81
276.228	107.01
276.444	-1.54
276.659	143.87
276.875	-3.58
277.09	2.56
277.306	-15.87
277.521	80.38
277.737	25.09
277.952	96.77
278.168	20.99
278.383	4.61
278.599	45.57
278.814	123.39
279.03	47.62
279.245	92.67
279.461	31.23
279.676	100.86
279.892	-28.16
280.107	-24.06
280.322	-73.21
280.538	82.43
280.753	-81.41
280.969	53.76
281.184	115.2
281.399	47.62
281.615	31.23
281.83	109.05
282.045	41.47
282.26	-24.06
282.476	80.38
282.691	119.29
282.906	0.51
283.122	31.23
283.337	-38.4
283.552	88.57
283.767	4.61
283.983	213.5
284.198	59.9
284.413	14.85
284.628	-67.07
284.843	0.51
285.058	98.81
285.274	-3.58
285.489	20.99
285.704	188.93
285.919	-110.08
286.134	-5.63
286.349	-42.5
286.564	4.61
286.779	168.45
286.995	35.33
287.21	-75.26
287.425	-36.35
287.64	-9.73
287.855	45.57
288.07	8.7
288.285	188.93
288.5	104.96
288.715	86.53
288.93	80.38
289.145	57.86
289.36	113.15
289.575	-52.74
289.79	156.16
290.004	-30.21
290.219	82.43
290.434	74.24
290.649	0.51
290.864	-46.59
291.079	0.51
291.294	121.34
291.509	96.77
291.724	-19.97
291.938	14.85
292.153	18.94
292.368	-3.58
292.583	78.33
292.798	76.29
293.012	154.11
293.227	2.56
293.442	27.14
293.657	70.14
293.871	82.43
294.086	57.86
294.301	197.12
294.516	127.49
294.73	27.14
294.945	-22.02
295.16	92.67
295.374	86.53
295.589	207.36
295.804	86.53
296.018	43.52
296.233	78.33
296.447	37.38
296.662	-62.98
296.877	100.86
297.091	127.49
297.306	55.81
297.52	-7.68
297.735	25.09
297.949	107.01
298.164	20.99
298.378	20.99
298.593	-50.69
298.807	-44.54
299.022	37.38
299.236	78.33
299.451	27.14
299.665	41.47
299.88	10.75
300.094	90.62
300.309	98.81
300.523	88.57
300.737	-40.45
300.952	80.38
301.166	102.91
301.381	107.01
301.595	80.38
301.809	43.52
302.024	49.66
302.238	-34.3
302.452	98.81
302.667	90.62
302.881	119.29
303.095	139.77
303.309	10.75
303.524	-105.98
303.738	0.51
303.952	-17.92
304.166	88.57
304.381	-157.18
304.595	117.25
304.809	-42.5
305.023	84.48
305.237	84.48
305.452	-26.11
305.666	107.01
305.88	104.96
306.094	133.63
306.308	43.52
306.522	88.57
306.736	55.81
306.95	49.66
307.164	94.72
307.379	10.75
307.593	164.35
307.807	72.19
308.021	59.9
308.235	98.81
308.449	-3.58
308.663	-19.97
308.877	199.16
309.091	12.8
309.305	61.95
309.519	-13.82
309.733	176.64
309.947	57.86
310.161	92.67
310.374	33.28
310.588	20.99
310.802	-1.54
311.016	-7.68
311.23	66.05
311.444	-36.35
311.658	20.99
311.872	84.48
312.085	88.57
312.299	172.54
312.513	156.16
312.727	115.2
312.941	-13.82
313.154	51.71
313.368	55.81
313.582	-24.06
313.796	33.28
314.009	16.9
314.223	104.96
314.437	47.62
314.651	8.7
314.864	14.85
315.078	59.9
315.292	-3.58
315.505	16.9
315.719	102.91
315.933	10.75
316.146	70.14
316.36	-24.06
316.573	184.83
316.787	68.09
317.001	-24.06
317.214	12.8
317.428	90.62
317.641	8.7
317.855	29.18
318.068	72.19
318.282	109.05
318.495	117.25
318.709	4.61
318.922	31.23
319.136	113.15
319.349	49.66
319.563	94.72
319.776	41.47
319.99	-73.21
320.203	25.09
320.417	20.99
320.63	37.38
320.843	223.74
321.057	33.28
321.27	43.52
321.483	147.97
321.697	98.81
321.91	88.57
322.124	29.18
322.337	98.81
322.55	-44.54
322.763	72.19
322.977	25.09
323.19	-7.68
323.403	68.09
323.617	8.7
323.83	64
324.043	29.18
324.256	20.99
324.469	-34.3
324.683	125.44
324.896	78.33
325.109	27.14
325.322	-77.31
325.535	66.05
325.748	141.82
325.962	35.33
326.175	35.33
326.388	74.24
326.601	127.49
326.814	47.62
327.027	16.9
327.24	76.29
327.453	-73.21
327.666	104.96
327.879	2.56
328.092	51.71
328.305	25.09
328.518	10.75
328.731	0.51
328.944	2.56
329.157	80.38
329.37	-28.16
329.583	190.97
329.796	102.91
330.009	-46.59
330.222	57.86
330.435	158.21
330.648	107.01
330.861	16.9
331.073	45.57
331.286	78.33
331.499	119.29
331.712	-56.83
331.925	-17.92
332.138	12.8
332.35	90.62
332.563	20.99
332.776	117.25
332.989	-77.31
333.202	43.52
333.414	43.52
333.627	90.62
333.84	47.62
334.053	25.09
334.265	6.66
334.478	84.48
334.691	-17.92
334.903	109.05
335.116	37.38
335.329	0.51
335.541	78.33
335.754	72.19
335.966	-13.82
336.179	8.7
336.392	57.86
336.604	2.56
336.817	53.76
337.029	61.95
337.242	14.85
337.454	20.99
337.667	53.76
337.88	33.28
338.092	84.48
338.305	59.9
338.517	-9.73
338.729	-11.78
338.942	158.21
339.154	-7.68
339.367	-24.06
339.579	88.57
339.792	-103.93
340.004	41.47
340.217	25.09
340.429	31.23
340.641	57.86
340.854	-50.69
341.066	-38.4
341.278	121.34
341.491	152.06
341.703	53.76
341.915	27.14
342.128	68.09
342.34	92.67
342.552	-5.63
342.764	33.28
342.977	-71.17
343.189	55.81
343.401	96.77
343.613	-9.73
343.826	55.81
344.038	-19.97
344.25	49.66
344.462	0.51
344.674	86.53
344.886	33.28
345.099	109.05
345.311	14.85
345.523	-44.54
345.735	-155.13
345.947	-17.92
346.159	33.28
346.371	-7.68
346.583	-3.58
346.795	229.88
347.007	82.43
347.219	41.47
347.431	6.66
347.643	111.1
347.855	-38.4
348.067	66.05
348.279	-28.16
348.491	53.76
348.703	102.91
348.915	53.76
349.127	-15.87
349.339	31.23
349.551	37.38
349.763	115.2
349.975	2.56
350.187	109.05
350.399	94.72
350.61	74.24
350.822	14.85
351.034	-30.21
351.246	117.25
351.458	78.33
351.669	147.97
351.881	123.39
352.093	127.49
352.305	168.45
352.517	55.81
352.728	119.29
352.94	31.23
353.152	6.66
353.363	-52.74
353.575	64
353.787	109.05
353.999	41.47
354.21	182.78
354.422	-5.63
354.633	37.38
354.845	61.95
355.057	29.18
355.268	82.43
355.48	107.01
355.692	-26.11
355.903	98.81
356.115	-9.73
356.326	-60.93
356.538	127.49
356.749	127.49
356.961	125.44
357.172	37.38
357.384	41.47
357.595	182.78
357.807	-19.97
358.018	41.47
358.23	23.04
358.441	145.92
358.653	55.81
358.864	23.04
359.075	88.57
359.287	35.33
359.498	147.97
359.709	47.62
359.921	64
360.132	43.52
360.344	35.33
360.555	49.66
360.766	-5.63
360.977	20.99
361.189	113.15
361.4	25.09
361.611	78.33
361.823	129.53
362.034	23.04
362.245	-30.21
362.456	-3.58
362.667	137.73
362.879	18.94
363.09	23.04
363.301	78.33
363.512	45.57
363.723	-38.4
363.935	47.62
364.146	27.14
364.357	-15.87
364.568	29.18
364.779	2.56
364.99	170.49
365.201	-36.35
365.412	113.15
365.623	-71.17
365.834	53.76
366.045	41.47
366.256	47.62
366.467	57.86
366.678	76.29
366.889	66.05
367.1	-1.54
367.311	123.39
367.522	66.05
367.733	70.14
367.944	156.16
368.155	-1.54
368.366	66.05
368.577	55.81
368.788	43.52
368.999	-46.59
369.209	-5.63
369.42	233.98
369.631	260.6
369.842	86.53
370.053	14.85
370.264	86.53
370.474	4.61
370.685	29.18
370.896	12.8
371.107	223.74
371.317	18.94
371.528	39.42
371.739	121.34
371.95	33.28
372.16	14.85
372.371	2.56
372.582	-36.35
372.792	51.71
373.003	64
373.214	43.52
373.424	109.05
373.635	12.8
373.846	78.33
374.056	53.76
374.267	82.43
374.477	84.48
374.688	68.09
374.898	145.92
375.109	51.71
375.319	94.72
375.53	135.68
375.74	100.86
375.951	-15.87
376.161	59.9
376.372	98.81
376.582	53.76
376.793	123.39
377.003	-58.88
377.214	-83.45
377.424	12.8
377.635	-48.64
377.845	-32.26
378.055	129.53
378.266	-24.06
378.476	16.9
378.686	121.34
378.897	119.29
379.107	86.53
379.317	78.33
379.528	33.28
379.738	6.66
379.948	-13.82
380.158	127.49
380.369	14.85
380.579	78.33
380.789	107.01
380.999	84.48
381.21	98.81
381.42	176.64
381.63	61.95
381.84	68.09
382.05	41.47
382.261	86.53
382.471	133.63
382.681	4.61
382.891	113.15
383.101	92.67
383.311	-36.35
383.521	-26.11
383.731	180.73
383.941	90.62
384.151	115.2
384.361	6.66
384.571	74.24
384.781	20.99
384.991	221.69
385.201	174.59
385.411	123.39
385.621	33.28
385.831	82.43
386.041	27.14
386.251	-28.16
386.461	111.1
386.671	86.53
386.881	41.47
387.091	-87.55
387.301	90.62
387.511	82.43
387.72	39.42
387.93	76.29
388.14	-87.55
388.35	43.52
388.56	123.39
388.769	147.97
388.979	84.48
389.189	-26.11
389.399	14.85
389.609	133.63
389.818	84.48
390.028	45.57
390.238	82.43
390.447	31.23
390.657	68.09
390.867	45.57
391.076	10.75
391.286	76.29
391.496	-81.41
391.705	78.33
391.915	195.07
392.125	37.38
392.334	72.19
392.544	117.25
392.753	74.24
392.963	33.28
393.172	45.57
393.382	55.81
393.591	205.31
393.801	33.28
394.01	123.39
394.22	154.11
394.429	35.33
394.639	-7.68
394.848	92.67
395.058	98.81
395.267	-44.54
395.477	92.67
395.686	92.67
395.895	186.88
396.105	207.36
396.314	68.09
396.524	61.95
396.733	-5.63
396.942	121.34
397.152	143.87
397.361	147.97
397.57	92.67
397.78	6.66
397.989	10.75
398.198	240.12
398.407	-11.78
398.617	-22.02
398.826	25.09
399.035	14.85
399.244	94.72
399.453	102.91
399.663	66.05
399.872	109.05
400.081	-30.21
400.29	104.96
400.499	10.75
400.708	88.57
400.917	31.23
401.127	57.86
401.336	59.9
401.545	215.55
401.754	109.05
401.963	123.39
402.172	55.81
402.381	-34.3
402.59	6.66
402.799	53.76
403.008	88.57
403.217	2.56
403.426	68.09
403.635	-5.63
403.844	55.81
404.053	-1.54
404.262	43.52
404.471	139.77
404.68	12.8
404.888	100.86
405.097	70.14
405.306	53.76
405.515	41.47
405.724	55.81
405.933	137.73
406.142	16.9
406.35	119.29
406.559	55.81
406.768	82.43
406.977	201.21
407.185	104.96
407.394	127.49
407.603	-19.97
407.812	80.38
408.02	168.45
408.229	29.18
408.438	49.66
408.646	-56.83
408.855	55.81
409.064	23.04
409.272	-3.58
409.481	37.38
409.69	-1.54
409.898	12.8
410.107	64
410.315	109.05
410.524	-5.63
410.733	57.86
410.941	-17.92
411.15	131.58
411.358	166.4
411.567	156.16
411.775	59.9
411.984	55.81
412.192	150.01
412.401	25.09
412.609	174.59
412.818	113.15
413.026	57.86
413.234	-30.21
413.443	-24.06
413.651	-15.87
413.86	-5.63
414.068	176.64
414.276	203.26
414.485	61.95
414.693	100.86
414.901	152.06
415.11	143.87
415.318	-52.74
415.526	53.76
415.734	86.53
415.943	47.62
416.151	188.93
416.359	41.47
416.567	152.06
416.776	70.14
416.984	102.91
417.192	135.68
417.4	55.81
417.608	33.28
417.817	8.7
418.025	90.62
418.233	166.4
418.441	-19.97
418.649	33.28
418.857	16.9
419.065	143.87
419.273	10.75
419.481	119.29
419.689	70.14
419.897	-7.68
420.105	-9.73
420.313	94.72
420.521	96.77
420.729	150.01
420.937	31.23
421.145	23.04
421.353	129.53
421.561	154.11
421.769	55.81
421.977	-15.87
422.185	117.25
422.393	31.23
422.601	170.49
422.809	59.9
423.017	59.9
423.224	82.43
423.432	102.91
423.64	-9.73
423.848	113.15
424.056	6.66
424.263	109.05
424.471	4.61
424.679	139.77
424.887	-26.11
425.094	129.53
425.302	70.14
425.51	64
425.718	107.01
425.925	20.99
426.133	-1.54
426.341	156.16
426.548	102.91
426.756	31.23
426.964	184.83
427.171	-5.63
427.379	94.72
427.586	133.63
427.794	115.2
428.001	109.05
428.209	117.25
428.417	115.2
428.624	115.2
428.832	137.73
429.039	31.23
429.247	6.66
429.454	102.91
429.662	193.02
429.869	135.68
430.076	104.96
430.284	156.16
430.491	211.45
430.699	195.07
430.906	178.69
431.114	135.68
431.321	107.01
431.528	74.24
431.736	92.67
431.943	160.25
432.15	176.64
432.358	197.12
432.565	227.84
432.772	0.51
432.979	291.32
433.187	104.96
433.394	150.01
433.601	88.57
433.808	233.98
434.016	330.23
434.223	168.45
434.43	141.82
434.637	262.65
434.844	295.42
435.052	317.95
435.259	309.76
435.466	244.22
435.673	315.9
435.88	301.56
436.087	330.23
436.294	317.95
436.501	324.09
436.708	246.27
436.915	293.37
437.122	389.63
437.329	231.93
437.537	221.69
437.743	287.23
437.95	418.3
438.157	367.1
438.364	340.47
438.571	322.04
438.778	397.82
438.985	408.06
439.192	512.5
439.399	446.97
439.606	420.35
439.813	512.5
440.02	612.85
440.227	688.63
440.433	553.46
440.64	545.27
440.847	496.12
441.054	598.52
441.261	713.21
441.467	649.72
441.674	590.33
441.881	723.44
442.088	662.01
442.294	801.27
442.501	791.03
442.708	793.08
442.914	754.16
443.121	811.51
443.328	879.09
443.534	901.62
443.741	895.47
443.948	821.75
444.154	997.87
444.361	1135.09
444.568	1067.5
444.774	1106.42
444.981	918
445.187	1116.65
445.394	1223.15
445.6	1178.09
445.807	1366.51
446.013	1270.25
446.22	1196.53
446.426	1475.05
446.633	1409.51
446.839	1640.93
447.046	1454.57
447.252	1589.74
447.459	1708.52
447.665	1642.98
447.871	1905.12
448.078	1991.14
448.284	1964.51
448.491	2040.29
448.697	2183.65
448.903	2122.21
449.11	2161.12
449.316	2204.13
449.522	2335.2
449.728	2370.01
449.935	2539.99
450.141	2564.57
450.347	2709.97
450.553	2658.78
450.76	2806.23
450.966	2929.11
451.172	3109.33
451.378	3172.82
451.584	3334.61
451.791	3447.24
451.997	3453.39
452.203	3533.26
452.409	3912.13
452.615	3942.85
452.821	3938.76
453.027	3887.56
453.233	4452.8
453.44	4291.01
453.646	4514.24
453.852	4583.87
454.058	4753.85
454.264	4985.27
454.47	5271.98
454.676	5226.93
454.882	5831.08
455.088	5538.22
455.294	5923.24
455.5	6115.75
455.705	6605.21
455.911	6648.22
456.117	6754.71
456.323	7131.54
456.529	7098.77
456.735	7811.46
456.941	7799.18
457.147	8309.12
457.352	8403.33
457.558	8618.36
457.764	9136.5
457.97	9300.34
458.176	9791.85
458.381	10494.3
458.587	10449.25
458.793	11055.45
458.999	10893.66
459.204	12325.19
459.41	12689.73
459.616	12575.04
459.821	13336.88
460.027	13758.77
460.233	14463.27
460.438	14516.51
460.644	15452.44
460.85	15493.4
461.055	16128.27
461.261	16935.17
461.466	16474.37
461.672	16900.35
461.878	18755.81
462.083	18680.03
462.289	18981.09
462.494	19796.18
462.7	19814.61
462.905	20375.75
463.111	22188.21
463.316	23167.13
463.522	23480.47
463.727	24334.48
463.932	25028.74
464.138	25860.21
464.343	26652.78
464.549	27005.03
464.754	29114.44
464.959	29993.01
465.165	30367.79
465.37	29978.68
465.575	30320.69
465.781	32000.02
465.986	32958.47
466.191	32497.68
466.397	32679.95
466.602	31928.34
466.807	34281.46
467.012	34568.18
467.218	35080.17
467.423	35106.79
467.628	36239.32
467.833	37695.42
468.038	37259.21
468.244	36691.92
468.449	38385.59
468.654	37676.99
468.859	37701.57
469.064	38111.16
469.269	37210.06
469.474	37343.17
469.679	38449.08
469.885	37271.5
470.09	37951.42
470.295	37750.72
470.5	36806.61
470.705	37320.65
470.91	36392.92
471.115	36009.95
471.32	36628.43
471.525	36311
471.73	35493.86
471.935	35016.68
472.139	33505.28
472.344	33873.92
472.549	33673.21
472.754	33218.57
472.959	32368.66
473.164	31213.6
473.369	30844.97
473.574	31660.06
473.778	30943.27
473.983	30611.5
474.188	29960.25
474.393	28690.51
474.598	28586.06
474.802	28045.4
475.007	27465.82
475.212	27435.1
475.417	26161.26
475.621	25950.32
475.826	25569.4
476.031	24848.52
476.235	24545.42
476.44	24492.17
476.645	23832.72
476.849	23365.79
477.054	23535.77
477.259	22585.51
477.463	22747.3
477.668	22100.14
477.872	22149.29
478.077	21539
478.282	20576.45
478.486	20773.06
478.691	20754.63
478.895	20240.59
479.1	20515.01
479.304	20089.04
479.509	19327.19
479.713	19568.85
479.918	19011.81
480.122	18694.37
480.326	19110.11
480.531	19022.05
480.735	18704.61
480.94	18536.68
481.144	18976.99
481.348	17973.49
481.553	17983.73
481.757	17563.89
481.961	17787.12
482.166	17656.05
482.37	17746.16
482.574	17307.9
482.778	17051.9
482.983	17475.83
483.187	17010.94
483.391	17139.96
483.595	16873.73
483.8	16271.62
484.004	16595.2
484.208	16720.13
484.412	16261.38
484.616	16054.54
484.821	15880.46
485.025	15376.66
485.229	15593.75
485.433	15114.52
485.637	15218.97
485.841	14874.91
486.045	14670.11
486.249	14813.47
486.453	14252.33
486.657	13977.9
486.861	14264.61
487.065	13474.1
487.269	13553.97
487.473	13123.9
487.677	13267.25
487.881	13373.75
488.085	12757.31
488.289	12704.06
488.493	12134.73
488.697	12413.25
488.901	12044.62
489.105	11616.59
489.309	11546.96
489.512	11356.5
489.716	11133.27
489.92	11000.15
490.124	10662.24
490.328	10875.23
490.531	10223.97
490.735	10402.15
490.939	9963.88
491.143	9853.29
491.346	9650.54
491.55	9568.62
491.754	9503.09
491.958	9320.82
492.161	9107.83
492.365	9208.18
492.569	8753.53
492.772	8659.32
492.976	8892.79
493.18	8737.15
493.383	8452.48
493.587	8202.63
493.79	8436.1
493.994	7881.1
494.197	8046.98
494.401	7887.24
494.605	7649.68
494.808	7735.69
495.012	7870.86
495.215	7739.79
495.419	7680.39
495.622	7784.84
495.825	7653.77
496.029	7385.49
496.232	7522.7
496.436	7455.12
496.639	7651.72
496.843	7393.68
497.046	7442.83
497.249	7520.65
497.453	7446.93
497.656	7469.45
497.859	7557.52
498.063	7473.55
498.266	7596.43
498.469	7455.12
498.673	7573.9
498.876	7330.19
499.079	7610.76
499.282	7600.52
499.485	8010.12
499.689	7743.88
499.892	7942.53
500.095	7635.34
500.298	7997.83
500.501	7862.66
500.705	8126.85
500.908	8049.03
501.111	7975.3
501.314	8165.76
501.517	8339.84
501.72	8288.64
501.923	8290.69
502.126	8417.66
502.329	8526.21
502.532	8675.71
502.735	8726.91
502.938	9124.21
503.141	8915.32
503.344	8968.57
503.547	9257.33
503.75	9111.92
503.953	9255.28
504.156	9462.13
504.359	9521.52
504.562	9849.19
504.765	9886.06
504.968	10250.6
505.17	9974.12
505.373	10250.6
505.576	10707.29
505.779	10613.09
505.982	10635.61
506.185	11071.83
506.387	11374.93
506.59	11606.35
506.793	11798.86
506.996	11751.76
507.198	12122.44
507.401	12276.04
507.604	12564.8
507.807	12845.37
508.009	13156.66
508.212	13252.92
508.415	13381.94
508.617	13685.04
508.82	14207.27
509.022	14133.54
509.225	14668.06
509.428	14811.42
509.63	15487.25
509.833	15223.06
510.035	16212.23
510.238	16259.34
510.44	16423.17
510.643	17006.84
510.845	17328.38
511.048	17694.96
511.25	17975.53
511.453	18467.05
511.655	19095.77
511.858	19259.61
512.06	19738.83
512.262	20308.17
512.465	20478.15
512.667	21000.38
512.87	21430.46
513.072	22143.15
513.274	22716.58
513.477	22941.86
513.679	23398.55
513.881	24223.89
514.084	24477.83
514.286	24905.86
514.488	25403.52
514.69	26239.09
514.893	26439.79
515.095	26876.01
515.297	27564.12
515.499	28149.84
515.701	28991.56
515.904	29630.52
516.106	30396.46
516.308	30844.97
516.51	31569.95
516.712	31813.66
516.914	32325.65
517.116	33118.21
517.318	33705.98
517.52	33968.12
517.722	34740.21
517.925	35276.77
518.127	36179.93
518.329	36923.34
518.531	36931.53
518.733	37943.23
518.935	38635.44
519.136	39077.8
519.338	39839.65
519.54	40492.95
519.742	41105.29
519.944	41394.06
520.146	42696.56
520.348	42911.6
520.55	43022.19
520.752	43435.88
520.954	44500.82
521.155	44242.78
521.357	45219.66
521.559	45743.94
521.761	46587.71
521.963	46733.11
522.164	47093.55
522.366	47535.91
522.568	47943.46
522.77	48541.47
522.971	49080.08
523.173	48607
523.375	49389.33
523.576	49481.48
523.778	49483.53
523.98	49753.86
524.181	50362.11
524.383	50056.96
524.584	50837.24
524.786	50716.41
524.988	50618.11
525.189	50939.64
525.391	51250.93
525.592	51111.67
525.794	51279.6
525.995	50616.06
526.197	50882.3
526.398	51035.89
526.6	51035.89
526.801	51037.94
527.003	51121.91
527.204	50231.04
527.406	50476.8
527.607	50073.35
527.808	50218.75
528.01	49141.52
528.211	49749.77
528.412	49694.47
528.614	49450.77
528.815	49116.95
529.016	48738.07
529.218	48142.11
529.419	47769.38
529.62	47122.22
529.822	46636.86
530.023	46133.06
530.224	46223.17
530.425	45713.22
530.626	44396.38
530.828	44392.28
531.029	44734.29
531.23	43702.12
531.431	43298.67
531.632	43061.1
531.833	42938.22
532.035	41953.15
532.236	41191.31
532.437	41164.68
532.638	40239
532.839	40472.47
533.04	39761.83
533.241	38799.28
533.442	39159.72
533.643	38733.74
533.844	37631.94
534.045	36788.17
534.246	36382.68
534.447	35979.23
534.648	35954.65
534.849	35121.13
535.05	34449.39
535.251	34238.45
535.451	33497.09
535.652	33099.78
535.853	32526.35
536.054	32372.75
536.255	32231.44
536.456	31318.05
536.657	31500.32
536.857	30726.19
537.058	30056.5
537.259	30220.34
537.46	29587.52
537.66	29028.42
537.861	28690.51
538.062	28244.05
538.263	27924.57
538.463	27426.91
538.664	27113.57
538.865	26855.53
539.065	26822.76
539.266	26239.09
539.466	26339.44
539.667	25311.36
539.868	25686.14
540.068	25004.16
540.269	24715.4
540.469	24672.39
540.67	24275.09
540.87	23863.44
541.071	23898.26
541.271	23392.41
541.472	23265.44
541.672	22784.16
541.873	22493.35
542.073	21954.74
542.274	22372.52
542.474	21649.59
542.675	21215.42
542.875	21373.11
543.075	20787.39
543.276	20633.8
543.476	20584.65
543.676	20316.36
543.877	20226.25
544.077	19763.41
544.277	19525.85
544.478	19597.52
544.678	19476.69
544.878	19151.07
545.078	18948.32
545.279	18651.36
545.479	18383.08
545.679	18249.96
545.879	17772.78
546.079	17862.9
546.28	17447.16
546.48	17164.54
546.68	17189.11
546.88	17281.27
547.08	16883.97
547.28	16783.62
547.48	16357.64
547.68	16296.2
547.88	15921.42
548.081	15911.18
548.281	15601.94
548.481	15231.26
548.681	15364.37
548.881	15194.39
549.081	14825.76
549.28	14561.57
549.48	14500.13
549.68	14006.57
549.88	14170.41
550.08	13639.98
550.28	13639.98
550.48	13582.64
550.68	13132.09
550.88	12927.29
551.08	12828.99
551.279	12947.77
551.479	12443.97
551.679	12507.46
551.879	12114.25
552.079	12276.04
552.278	11837.77
552.478	11870.54
552.678	11553.1
552.878	11460.95
553.077	11141.46
553.277	10838.36
553.477	10862.94
553.676	10910.04
553.876	10608.99
554.076	10338.66
554.275	10215.78
554.475	9849.19
554.674	10193.25
554.874	9709.93
555.074	9542
555.273	9353.59
555.473	9130.36
555.672	9144.69
555.872	9163.12
556.071	8769.91
556.271	8903.03
556.47	8565.12
556.67	8309.12
556.869	8372.61
557.068	8216.96
557.268	7885.19
557.467	7874.95
557.667	7887.24
557.866	7680.39
558.065	7416.21
558.265	7225.75
558.464	7195.03
558.663	7348.62
558.863	6873.5
559.062	7115.16
559.261	6670.75
559.461	6775.19
559.66	6554.01
559.859	6414.75
560.058	6132.13
560.258	6214.05
560.457	6222.24
560.656	6212
560.855	5724.58
561.054	6164.9
561.253	5913
561.453	5734.82
561.652	6050.21
561.851	5628.33
562.05	5452.2
562.249	5247.41
562.448	5349.81
562.647	5294.51
562.846	5134.77
563.045	5366.19
563.244	4981.17
563.443	5044.66
563.642	4764.09
563.841	4784.57
564.04	4749.75
564.239	4755.9
564.438	4608.44
564.637	4422.08
564.836	4413.88
565.035	4413.88
565.234	4377.02
565.432	4313.53
565.631	4311.49
565.83	4229.57
566.029	4000.19
566.228	3973.57
566.427	4131.26
566.625	3877.32
566.824	3799.49
567.023	3934.66
567.222	3797.45
567.42	3783.11
567.619	3572.17
567.818	3580.36
568.016	3580.36
568.215	3523.02
568.414	3484.11
568.612	3477.96
568.811	3183.06
569.01	3334.61
569.208	3201.49
569.407	3203.54
569.605	3201.49
569.804	3117.52
570.002	3123.66
570.201	2894.29
570.4	2953.68
570.598	2974.16
570.797	2847.19
570.995	2746.84
571.193	2906.58
571.392	2777.56
571.59	2640.34
571.789	2707.93
571.987	2865.62
572.186	2709.97
572.384	2488.79
572.582	2669.02
572.781	2595.29
572.979	2470.36
573.177	2466.27
573.376	2318.81
573.574	2384.35
573.772	2302.43
573.971	2286.05
574.169	2154.98
574.367	2314.72
574.565	2165.21
574.763	1999.33
574.962	2011.62
575.16	2101.73
575.358	1984.99
575.556	2058.72
575.754	2032.1
575.952	1841.64
576.151	1847.78
576.349	2032.1
576.547	1673.7
576.745	1833.44
576.943	1821.16
577.141	1755.62
577.339	1583.59
577.537	1735.14
577.735	1722.85
577.933	1665.51
578.131	1528.3
578.329	1579.5
578.527	1638.89
578.725	1620.46
578.923	1436.14
579.121	1597.93
579.319	1417.71
579.516	1407.47
579.714	1642.98
579.912	1440.23
580.11	1266.16
580.308	1376.75
580.506	1315.31
580.704	1190.38
580.901	1300.97
581.099	1309.16
581.297	1350.12
581.495	1382.89
581.692	1174
581.89	1376.75
582.088	1262.06
582.285	1110.51
582.483	1090.03
582.681	1135.09
582.878	1036.78
583.076	1165.81
583.274	1139.18
583.471	1253.87
583.669	1022.45
583.866	1038.83
584.064	1038.83
584.262	981.49
584.459	952.82
584.657	1083.89
584.854	1073.65
585.052	1081.84
585.249	1040.88
585.447	913.91
585.644	965.11
585.841	934.39
586.039	891.38
586.236	958.96
586.434	905.71
586.631	850.42
586.828	819.7
587.026	831.99
587.223	745.97
587.42	809.46
587.618	858.61
587.815	864.75
588.012	797.17
588.21	782.84
588.407	854.51
588.604	836.08
588.801	670.2
588.999	698.87
589.196	887.28
589.393	692.73
589.59	774.64
589.787	758.26
589.984	799.22
590.182	762.36
590.379	598.52
590.576	727.54
590.773	715.25
590.97	676.34
591.167	762.36
591.364	684.53
591.561	653.81
591.758	711.16
591.955	797.17
592.152	782.84
592.349	655.86
592.546	723.44
592.743	571.9
592.94	616.95
593.137	713.21
593.334	772.6
593.531	780.79
593.727	735.73
593.924	795.12
594.121	627.19
594.318	655.86
594.515	676.34
594.712	700.92
594.908	895.47
595.105	598.52
595.302	735.73
595.499	778.74
595.696	766.45
595.892	741.88
596.089	852.47
596.286	745.97
596.482	918
596.679	834.04
596.876	860.66
597.072	795.12
597.269	858.61
597.466	946.67
597.662	897.52
597.859	909.81
598.055	987.63
598.252	1057.26
598.448	1155.57
598.645	1130.99
598.841	1155.57
599.038	1278.44
599.234	1339.88
599.431	1315.31
599.627	1341.93
599.824	1292.78
600.02	1448.43
600.217	1450.47
600.413	1534.44
600.609	1524.2
600.806	1833.44
601.002	1743.33
601.198	1567.21
601.395	1800.68
601.591	1946.08
601.787	1915.36
601.984	2077.15
602.18	2038.24
602.376	2109.92
602.572	2335.2
602.769	2376.16
602.965	2449.88
603.161	2453.98
603.357	2580.95
603.553	2726.36
603.75	2693.59
603.946	2894.29
604.142	2894.29
604.338	3051.99
604.534	3099.09
604.73	3232.21
604.926	3168.72
605.122	3600.84
605.318	3586.51
605.514	3791.3
605.71	3797.45
605.906	3938.76
606.102	3918.28
606.298	4133.31
606.494	4342.21
606.69	4579.77
606.886	4567.48
607.082	4635.07
607.278	4651.45
607.474	5030.32
607.67	5177.78
607.866	5138.87
608.062	5345.71
608.257	5446.06
608.453	5593.51
608.649	5851.56
608.845	5917.09
609.041	5923.24
609.236	6035.88
609.432	6369.69
609.628	6898.07
609.824	6648.22
610.019	6963.61
610.215	7195.03
610.411	7309.71
610.606	7625.1
610.802	7645.58
610.998	7778.7
611.193	8001.93
611.389	8118.66
611.584	8638.84
611.78	8655.23
611.976	8759.67
612.171	9277.81
612.367	9685.36
612.562	9818.47
612.758	9836.91
612.953	10197.35
613.149	10443.1
613.344	10658.14
613.539	11047.26
613.735	11391.31
613.93	11764.04
614.126	11667.79
614.321	12061
614.517	12603.71
614.712	13019.45
614.907	13183.29
615.103	13588.78
615.298	13828.4
615.493	14303.53
615.688	14317.86
615.884	15143.19
616.079	15075.61
616.274	15841.55
616.47	16040.2
616.665	16638.21
616.86	17004.8
617.055	17152.25
617.25	17836.27
617.445	18290.92
617.641	18397.42
617.836	19103.96
618.031	19230.94
618.226	20113.61
618.421	20361.42
618.616	21047.49
618.811	21231.8
619.006	21795
619.201	22128.81
619.396	23099.55
619.591	23083.17
619.786	23879.83
619.981	24006.8
620.176	24916.1
620.371	25303.17
620.566	26036.34
620.761	26308.72
620.956	26964.07
621.151	27299.94
621.346	27844.7
621.541	28098.64
621.735	28876.87
621.93	29276.23
622.125	29925.43
622.32	30462
622.515	30883.88
622.709	31539.23
622.904	32399.38
623.099	33044.49
623.294	33570.82
623.488	33523.71
623.683	34719.73
623.878	34840.56
624.072	35538.91
624.267	36298.71
624.462	36454.36
624.656	37097.42
624.851	37777.34
625.046	37918.65
625.24	38762.42
625.435	39145.39
625.629	39878.56
625.824	40257.43
626.018	40916.88
626.213	40593.3
626.407	41779.07
626.602	41828.23
626.796	42665.84
626.991	43091.82
627.185	43353.96
627.38	43421.55
627.574	43671.4
627.768	44058.46
627.963	44201.82
628.157	44238.68
628.352	44969.81
628.546	44312.41
628.74	44816.21
628.935	44533.59
629.129	44455.77
629.323	44296.03
629.517	44212.06
629.712	43779.94
629.906	43908.96
630.1	42829.68
630.294	42833.78
630.489	42715
630.683	41987.97
630.877	41142.16
631.071	40581.01
631.265	40118.17
631.459	39321.51
631.653	38332.34
631.848	37550.02
632.042	36356.05
632.236	36014.04
632.43	34648.05
632.624	34260.98
632.818	33052.68
633.012	31860.76
633.206	30912.55
633.4	30275.63
633.594	28934.21
633.788	28332.11
633.982	27594.84
634.176	26452.08
634.369	25092.23
634.563	24467.59
634.757	23257.25
634.951	22841.51
635.145	21911.73
635.339	20887.75
635.533	19884.24
635.726	19093.72
635.92	18475.24
636.114	17713.39
636.308	17056
636.501	16474.37
636.695	15640.85
636.889	15030.55
637.083	14358.82
637.276	13941.04
637.47	13119.8
637.664	12749.12
637.857	12210.5
638.051	11745.61
638.244	11215.19
638.438	10500.45
638.632	10414.43
638.825	9748.84
639.019	9503.09
639.212	9212.28
639.406	9075.06
639.599	8309.12
639.793	8325.5
639.986	7840.14
640.18	7731.59
640.373	7127.44
640.567	7014.8
640.76	6746.52
640.954	6584.73
641.147	6144.42
641.34	6011.3
641.534	5808.55
641.727	5603.75
641.92	5300.66
642.114	5054.9
642.307	4862.39
642.5	4768.18
642.694	4452.8
642.887	4379.07
643.08	4237.76
643.273	4039.11
643.467	3959.24
643.66	3940.8
643.853	3613.13
644.046	3471.82
644.239	3322.32
644.432	3248.59
644.626	2941.4
644.819	2968.02
645.012	2822.61
645.205	2759.13
645.398	2707.93
645.591	2609.62
645.784	2316.76
645.977	2300.38
646.17	2208.22
646.363	2167.26
646.556	1989.09
646.749	2077.15
646.942	1991.14
647.135	1989.09
647.328	1792.48
647.521	1749.48
647.714	1599.98
647.907	1655.27
648.099	1520.1
648.292	1685.99
648.485	1483.24
648.678	1376.75
648.871	1323.5
649.064	1294.83
649.256	1196.53
649.449	1171.95
649.642	1092.08
649.835	1061.36
650.027	1094.13
650.22	1090.03
650.413	1055.22
650.605	1022.45
650.798	870.9
650.991	838.13
651.183	846.32
651.376	868.85
651.568	809.46
651.761	817.65
651.954	797.17
652.146	750.07
652.339	858.61
652.531	850.42
652.724	606.71
652.916	553.46
653.109	485.88
653.301	614.9
653.494	588.28
653.686	623.09
653.879	598.52
654.071	496.12
654.263	502.26
654.456	510.46
654.648	602.61
654.84	522.74
655.033	477.69
655.225	627.19
655.417	348.67
655.61	494.07
655.802	475.64
655.994	600.57
656.186	426.49
656.379	510.46
656.571	301.56
656.763	363
656.955	358.91
657.148	350.71
657.34	383.48
657.532	266.75
657.724	428.54
657.916	324.09
658.108	391.67
658.3	356.86
658.492	315.9
658.684	225.79
658.876	401.91
659.068	225.79
659.26	229.88
659.452	227.84
659.644	340.47
659.836	399.87
660.028	274.94
660.22	137.73
660.412	240.12
660.604	217.6
660.796	188.93
660.988	262.65
661.18	283.13
661.372	285.18
661.563	182.78
661.755	229.88
661.947	199.16
662.139	209.4
662.331	201.21
662.522	209.4
662.714	184.83
662.906	205.31
663.097	229.88
663.289	143.87
663.481	18.94
663.673	137.73
663.864	156.16
664.056	254.46
664.247	115.2
664.439	244.22
664.631	141.82
664.822	299.52
665.014	98.81
665.205	168.45
665.397	195.07
665.588	229.88
665.78	166.4
665.971	225.79
666.163	82.43
666.354	199.16
666.546	121.34
666.737	92.67
666.929	170.49
667.12	111.1
667.311	168.45
667.503	164.35
667.694	195.07
667.885	180.73
668.077	129.53
668.268	100.86
668.459	107.01
668.651	162.3
668.842	156.16
669.033	92.67
669.224	98.81
669.416	369.15
669.607	111.1
669.798	12.8
669.989	217.6
670.18	129.53
670.371	160.25
670.563	16.9
670.754	213.5
670.945	260.6
671.136	221.69
671.327	141.82
671.518	221.69
671.709	262.65
671.9	197.12
672.091	334.33
672.282	82.43
672.473	172.54
672.664	37.38
672.855	68.09
673.046	219.64
673.237	250.36
673.428	178.69
673.619	162.3
673.809	156.16
674	201.21
674.191	215.55
674.382	213.5
674.573	111.1
674.764	195.07
674.954	174.59
675.145	184.83
675.336	188.93
675.527	139.77
675.717	109.05
675.908	121.34
676.099	160.25
676.289	143.87
676.48	82.43
676.671	176.64
676.861	141.82
677.052	221.69
677.243	131.58
677.433	209.4
677.624	162.3
677.814	231.93
678.005	176.64
678.195	324.09
678.386	107.01
678.576	176.64
678.767	68.09
678.957	139.77
679.148	266.75
679.338	227.84
679.529	119.29
679.719	129.53
679.909	299.52
680.1	240.12
680.29	248.32
680.481	100.86
680.671	326.14
680.861	262.65
681.052	272.89
681.242	107.01
681.432	219.64
681.622	293.37
681.813	131.58
682.003	244.22
682.193	102.91
682.383	176.64
682.573	184.83
682.764	104.96
682.954	209.4
683.144	283.13
683.334	162.3
683.524	223.74
683.714	215.55
683.904	211.45
684.094	190.97
684.284	152.06
684.474	301.56
684.664	236.03
684.854	266.75
685.044	236.03
685.234	195.07
685.424	207.36
685.614	180.73
685.804	373.24
685.994	283.13
686.184	207.36
686.374	233.98
686.564	154.11
686.753	254.46
686.943	78.33
687.133	223.74
687.323	250.36
687.513	266.75
687.702	229.88
687.892	147.97
688.082	311.8
688.272	193.02
688.461	274.94
688.651	338.43
688.841	270.84
689.03	188.93
689.22	272.89
689.41	360.95
689.599	215.55
689.789	176.64
689.979	344.57
690.168	135.68
690.358	266.75
690.547	266.75
690.737	244.22
690.926	186.88
691.116	201.21
691.305	254.46
691.495	283.13
691.684	147.97
691.874	180.73
692.063	184.83
692.252	272.89
692.442	227.84
692.631	150.01
692.82	166.4
693.01	102.91
693.199	227.84
693.388	233.98
693.578	258.56
693.767	199.16
693.956	266.75
694.146	178.69
694.335	213.5
694.524	197.12
694.713	307.71
694.902	201.21
695.092	211.45
695.281	233.98
695.47	172.54
695.659	129.53
695.848	182.78
696.037	125.44
696.226	244.22
696.415	164.35
696.604	258.56
696.793	260.6
696.982	188.93
697.171	379.39
697.36	174.59
697.549	143.87
697.738	117.25
697.927	205.31
698.116	96.77
698.305	133.63
698.494	217.6
698.683	186.88
698.872	344.57
699.061	211.45
699.25	242.17
699.438	240.12
699.627	137.73
699.816	272.89
700.005	227.84
700.193	125.44
700.382	254.46
700.571	215.55
700.76	209.4
700.948	258.56
701.137	281.08
701.326	272.89
701.514	72.19
701.703	225.79
701.892	166.4
702.08	395.77
702.269	158.21
702.457	188.93
702.646	174.59
702.834	213.5
703.023	252.41
703.212	242.17
703.4	238.08
703.589	201.21
703.777	205.31
703.965	193.02
704.154	180.73
704.342	123.39
704.531	133.63
704.719	229.88
704.907	262.65
705.096	100.86
705.284	209.4
705.472	182.78
705.661	219.64
705.849	217.6
706.037	279.04
706.226	262.65
706.414	176.64
706.602	131.58
706.79	242.17
706.979	154.11
707.167	162.3
707.355	94.72
707.543	207.36
707.731	207.36
707.919	168.45
708.107	195.07
708.296	178.69
708.484	178.69
708.672	258.56
708.86	152.06
709.048	295.42
709.236	135.68
709.424	246.27
709.612	209.4
709.8	109.05
709.988	182.78
710.176	262.65
710.364	258.56
710.551	133.63
710.739	168.45
710.927	154.11
711.115	270.84
711.303	236.03
711.491	324.09
711.679	150.01
711.866	240.12
712.054	211.45
712.242	166.4
712.43	244.22
712.617	223.74
712.805	254.46
712.993	190.97
713.181	86.53
713.368	209.4
713.556	225.79
713.744	225.79
713.931	365.05
714.119	248.32
714.306	133.63
714.494	201.21
714.682	229.88
714.869	107.01
715.057	195.07
715.244	121.34
715.432	227.84
715.619	154.11
715.807	258.56
715.994	221.69
716.182	172.54
716.369	193.02
716.556	219.64
716.744	125.44
716.931	182.78
717.119	244.22
717.306	266.75
717.493	303.61
717.681	160.25
717.868	115.2
718.055	217.6
718.242	168.45
718.43	145.92
718.617	317.95
718.804	180.73
718.991	238.08
719.179	248.32
719.366	215.55
719.553	160.25
719.74	221.69
719.927	121.34
720.114	178.69
720.301	131.58
720.488	250.36
720.676	184.83
720.863	272.89
721.05	344.57
721.237	184.83
721.424	324.09
721.611	264.7
721.798	162.3
721.985	231.93
722.172	182.78
722.358	287.23
722.545	180.73
722.732	233.98
722.919	279.04
723.106	225.79
723.293	193.02
723.48	203.26
723.667	201.21
723.853	246.27
724.04	254.46
724.227	317.95
724.414	178.69
724.6	303.61
724.787	408.06
724.974	336.38
725.161	262.65
725.347	160.25
725.534	297.47
725.72	375.29
725.907	262.65
726.094	291.32
726.28	217.6
726.467	225.79
726.653	221.69
726.84	293.37
727.027	287.23
727.213	160.25
727.4	248.32
727.586	309.76
727.773	252.41
727.959	295.42
728.145	258.56
728.332	229.88
728.518	147.97
728.705	184.83
728.891	252.41
729.077	238.08
729.264	125.44
729.45	248.32
729.636	283.13
729.823	184.83
730.009	203.26
730.195	326.14
730.382	242.17
730.568	147.97
730.754	211.45
730.94	229.88
731.126	258.56
731.313	305.66
731.499	258.56
731.685	193.02
731.871	289.28
732.057	285.18
732.243	373.24
732.429	256.51
732.615	328.19
732.801	326.14
732.987	246.27
733.173	217.6
733.359	193.02
733.545	305.66
733.731	244.22
733.917	260.6
734.103	326.14
734.289	295.42
734.475	154.11
734.661	358.91
734.847	270.84
735.033	248.32
735.219	391.67
735.404	264.7
735.59	92.67
735.776	195.07
735.962	279.04
736.148	291.32
736.333	297.47
736.519	272.89
736.705	197.12
736.89	240.12
737.076	262.65
737.262	170.49
737.447	178.69
737.633	250.36
737.819	248.32
738.004	260.6
738.19	322.04
738.375	274.94
738.561	215.55
738.747	227.84
738.932	162.3
739.118	438.78
739.303	281.08
739.489	281.08
739.674	279.04
739.859	137.73
740.045	231.93
740.23	236.03
740.416	135.68
740.601	256.51
740.786	217.6
740.972	233.98
741.157	176.64
741.342	119.29
741.528	145.92
741.713	326.14
741.898	193.02
742.084	217.6
742.269	279.04
742.454	254.46
742.639	279.04
742.824	268.8
743.01	279.04
743.195	358.91
743.38	266.75
743.565	305.66
743.75	211.45
743.935	240.12
744.12	363
744.305	90.62
744.49	227.84
744.675	231.93
744.86	215.55
745.045	303.61
745.23	248.32
745.415	201.21
745.6	399.87
745.785	231.93
745.97	227.84
746.155	369.15
746.34	289.28
746.525	258.56
746.71	301.56
746.895	109.05
747.079	143.87
747.264	281.08
747.449	289.28
747.634	354.81
747.819	272.89
748.003	246.27
748.188	152.06
748.373	248.32
748.557	274.94
748.742	295.42
748.927	188.93
749.111	170.49
749.296	166.4
749.481	264.7
749.665	160.25
749.85	231.93
750.034	317.95
750.219	150.01
750.404	141.82
750.588	209.4
750.773	199.16
750.957	178.69
751.141	123.39
751.326	176.64
751.51	90.62
751.695	123.39
751.879	250.36
752.064	369.15
752.248	252.41
752.432	324.09
752.617	236.03
752.801	225.79
752.985	219.64
753.17	295.42
753.354	147.97
753.538	184.83
753.722	104.96
753.907	133.63
754.091	43.52
754.275	207.36
754.459	168.45
754.643	107.01
754.828	186.88
755.012	217.6
755.196	90.62
755.38	170.49
755.564	125.44
755.748	199.16
755.932	188.93
756.116	139.77
756.3	162.3
756.484	156.16
756.668	197.12
756.852	66.05
757.036	164.35
757.22	168.45
757.404	113.15
757.588	109.05
757.772	254.46
757.956	78.33
758.14	207.36
758.323	119.29
758.507	150.01
758.691	49.66
758.875	217.6
759.059	274.94
759.242	94.72
759.426	98.81
759.61	172.54
759.794	145.92
759.977	170.49
760.161	350.71
760.345	256.51
760.528	193.02
760.712	176.64
760.895	158.21
761.079	76.29
761.263	72.19
761.446	115.2
761.63	227.84
761.813	166.4
761.997	59.9
762.18	10.75
762.364	145.92
762.547	6.66
762.731	82.43
762.914	107.01
763.098	109.05
763.281	119.29
763.464	90.62
763.648	199.16
763.831	2.56
764.015	68.09
764.198	166.4
764.381	111.1
764.564	59.9
764.748	25.09
764.931	197.12
765.114	119.29
765.297	154.11
765.481	64
765.664	164.35
765.847	37.38
766.03	244.22
766.213	55.81
766.397	119.29
766.58	-7.68
766.763	162.3
766.946	61.95
767.129	59.9
767.312	72.19
767.495	158.21
767.678	49.66
767.861	37.38
768.044	109.05
768.227	123.39
768.41	43.52
768.593	68.09
768.776	121.34
768.959	74.24
769.142	209.4
769.324	-9.73
769.507	78.33
769.69	41.47
769.873	53.76
770.056	317.95
770.239	59.9
770.421	96.77
770.604	133.63
770.787	78.33
770.97	76.29
771.152	0.51
771.335	92.67
771.518	45.57
771.7	268.8
771.883	246.27
772.066	-13.82
772.248	80.38
772.431	166.4
772.613	90.62
772.796	57.86
772.978	109.05
773.161	207.36
773.343	18.94
773.526	35.33
773.708	-99.84
773.891	-77.31
774.073	10.75
774.256	61.95
774.438	180.73
774.621	-11.78
774.803	121.34
774.985	104.96
775.168	76.29
775.35	129.53
775.532	59.9
775.715	25.09
775.897	76.29
776.079	90.62
776.261	20.99
776.444	51.71
776.626	27.14
776.808	45.57
776.99	0.51
777.173	123.39
777.355	84.48
777.537	25.09
777.719	16.9
777.901	74.24
778.083	-5.63
778.265	-116.22
778.447	76.29
778.629	-7.68
778.811	33.28
778.993	164.35
779.175	137.73
779.357	23.04
779.539	-44.54
779.721	74.24
779.903	78.33
780.085	70.14
780.267	111.1
780.449	-40.45
780.631	96.77
780.812	156.16
780.994	49.66
781.176	4.61
781.358	102.91
781.54	-22.02
781.721	109.05
781.903	195.07
782.085	-28.16
782.267	158.21
782.448	-28.16
782.63	-15.87
782.812	109.05
782.993	68.09
783.175	143.87
783.357	-40.45
783.538	64
783.72	25.09
783.901	6.66
784.083	147.97
784.264	86.53
784.446	-15.87
784.627	-65.02
784.809	162.3
784.99	23.04
785.172	61.95
785.353	43.52
785.535	98.81
785.716	-99.84
785.897	-3.58
786.079	31.23
786.26	45.57
786.441	90.62
786.623	-11.78
786.804	-36.35
786.985	66.05
787.167	27.14
787.348	8.7
787.529	20.99
787.71	102.91
787.891	127.49
788.073	-11.78
788.254	-56.83
788.435	117.25
788.616	-17.92
788.797	-30.21
788.978	51.71
789.159	-13.82
789.34	147.97
789.522	45.57
789.703	14.85
789.884	-44.54
790.065	92.67
790.246	139.77
790.427	55.81
790.607	78.33
790.788	121.34
790.969	-34.3
791.15	86.53
791.331	96.77
791.512	-36.35
791.693	-54.78
791.874	78.33
792.054	236.03
792.235	96.77
792.416	-40.45
792.597	-48.64
792.778	39.42
792.958	39.42
793.139	66.05
793.32	-71.17
793.5	-15.87
793.681	96.77
793.862	158.21
794.042	37.38
794.223	-122.37
794.404	47.62
794.584	-7.68
794.765	47.62
794.945	84.48
795.126	61.95
795.306	98.81
795.487	4.61
795.667	-60.93
795.848	100.86
796.028	4.61
796.209	94.72
796.389	59.9
796.57	88.57
796.75	-28.16
796.93	-56.83
797.111	6.66
797.291	12.8
797.471	61.95
797.652	29.18
797.832	8.7
798.012	51.71
798.192	27.14
798.373	-60.93
798.553	-1.54
798.733	33.28
798.913	-28.16
799.093	-28.16
799.274	-19.97
799.454	29.18
799.634	86.53
799.814	37.38
799.994	14.85
800.174	0.51
800.354	82.43
800.534	-110.08
800.714	-1.54
800.894	-24.06
801.074	-30.21
801.254	-17.92
801.434	27.14
801.614	-15.87
801.794	-69.12
801.974	1378.79
802.154	78.33
802.334	70.14
802.514	-9.73
802.693	59.9
802.873	-11.78
803.053	14.85
803.233	-73.21
803.413	12.8
803.592	-1.54
803.772	-71.17
803.952	16.9
804.131	-77.31
804.311	76.29
804.491	94.72
804.67	-5.63
804.85	-62.98
805.03	-15.87
805.209	137.73
805.389	-73.21
805.568	33.28
805.748	133.63
805.928	23.04
806.107	20.99
806.287	64
806.466	33.28
806.646	-34.3
806.825	27.14
807.004	-32.26
807.184	29.18
807.363	109.05
807.543	18.94
807.722	-26.11
807.901	98.81
808.081	-32.26
808.26	-40.45
808.439	-48.64
808.619	84.48
808.798	-44.54
808.977	12.8
809.156	98.81
809.336	-1.54
809.515	70.14
809.694	-50.69
809.873	-46.59
810.052	2.56
810.231	72.19
810.411	-3.58
810.59	55.81
810.769	-15.87
810.948	76.29
811.127	-112.13
811.306	-97.79
811.485	55.81
811.664	143.87
811.843	123.39
812.022	2.56
812.201	-17.92
812.38	-5.63
812.559	-87.55
812.737	72.19
812.916	-87.55
813.095	4.61
813.274	70.14
813.453	-71.17
813.632	55.81
813.811	72.19
813.989	-54.78
814.168	18.94
814.347	-58.88
814.526	-22.02
814.704	119.29
814.883	25.09
815.062	-71.17
815.24	35.33
815.419	-60.93
815.598	76.29
815.776	-116.22
815.955	-5.63
816.133	-114.17
816.312	64
816.49	43.52
816.669	-1.54
816.847	-34.3
817.026	-19.97
817.204	10.75
817.383	-17.92
817.561	-71.17
817.74	-36.35
817.918	-15.87
818.097	-17.92
818.275	-40.45
818.453	16.9
818.632	-11.78
818.81	-65.02
818.988	23.04
819.167	-99.84
819.345	2.56
819.523	-103.93
819.701	6.66
819.879	-22.02
820.058	33.28
820.236	25.09
820.414	25.09
820.592	55.81
820.77	-7.68
820.948	-83.45
821.127	16.9
821.305	39.42
821.483	-62.98
821.661	68.09
821.839	29.18
822.017	-89.6
822.195	-60.93
822.373	80.38
822.551	2.56
822.729	84.48
822.907	41.47
823.085	47.62
823.262	53.76
823.44	-93.69
823.618	-56.83
823.796	-44.54
823.974	18.94
824.152	-42.5
824.329	-1.54
824.507	39.42
824.685	31.23
824.863	-44.54
825.04	-36.35
825.218	29.18
825.396	-9.73
825.574	-9.73
825.751	-9.73
825.929	6.66
826.107	-112.13
826.284	-97.79
826.462	64
826.639	-91.65
826.817	-108.03
826.994	33.28
827.172	-134.65
827.349	145.92
827.527	-22.02
827.704	-15.87
827.882	6.66
828.059	-46.59
828.237	6.66
828.414	84.48
828.591	-1.54
828.769	27.14
828.946	-1.54
829.124	131.58
829.301	98.81
829.478	-42.5
829.655	31.23
829.833	-48.64
830.01	-89.6
830.187	35.33
830.364	-28.16
830.542	51.71
830.719	156.16
830.896	100.86
831.073	-48.64
831.25	92.67
831.427	-15.87
831.604	6.66
831.782	10.75
831.959	31.23
832.136	-19.97
832.313	-7.68
832.49	37.38
832.667	-54.78
832.844	-89.6
833.021	104.96
833.198	49.66
833.374	-1.54
833.551	33.28
833.728	27.14
833.905	45.57
834.082	-69.12
834.259	86.53
834.436	109.05
834.612	-34.3
834.789	-50.69
834.966	-32.26
835.143	20.99
835.319	-50.69
835.496	20.99
835.673	2.56
835.85	76.29
836.026	4.61
836.203	76.29
836.38	-52.74
836.556	8.7
836.733	-24.06
836.909	143.87
837.086	-38.4
837.262	-73.21
837.439	-3.58
837.616	-11.78
837.792	-11.78
837.968	35.33
838.145	-112.13
838.321	41.47
838.498	47.62
838.674	43.52
838.851	61.95
839.027	12.8
839.203	37.38
839.38	66.05
839.556	-44.54
839.732	66.05
839.909	-7.68
840.085	20.99
840.261	2.56
840.437	23.04
840.614	-19.97
840.79	29.18
840.966	20.99
841.142	10.75
841.318	-77.31
841.494	10.75
841.671	51.71
841.847	-73.21
842.023	-71.17
842.199	16.9
842.375	84.48
842.551	-185.85
842.727	-58.88
842.903	51.71
843.079	-122.37
843.255	86.53
843.431	-9.73
843.607	20.99
843.783	-134.65
843.959	23.04
844.134	-36.35
844.31	70.14
844.486	-3.58
844.662	-65.02
844.838	-65.02
845.013	61.95
845.189	88.57
845.365	72.19
845.541	31.23
845.716	-9.73
845.892	113.15
846.068	-15.87
846.244	-28.16
846.419	20.99
846.595	-52.74
846.77	-1.54
846.946	100.86
847.122	-97.79
847.297	-7.68
847.473	150.01
847.648	-71.17
847.824	-36.35
847.999	-128.51
848.175	76.29
848.35	25.09
848.526	57.86
848.701	51.71
848.876	55.81
849.052	86.53
849.227	61.95
849.403	64
849.578	2.56
849.753	66.05
849.929	-38.4
850.104	-44.54
850.279	-3.58
850.454	2.56
850.63	33.28
850.805	96.77
850.98	43.52
851.155	16.9
851.33	0.51
851.505	-99.84
851.681	109.05
851.856	-71.17
852.031	98.81
852.206	31.23
852.381	-69.12
852.556	-17.92
852.731	10.75
852.906	70.14
853.081	25.09
853.256	102.91
853.431	-46.59
853.606	-52.74
853.781	-22.02
853.956	-157.18
854.131	-11.78
854.305	-17.92
854.48	-36.35
854.655	-50.69
854.83	8.7
855.005	-30.21
855.18	-24.06
855.354	-60.93
855.529	6.66
855.704	-46.59
855.879	41.47
856.053	-65.02
856.228	78.33
856.403	-81.41
856.577	96.77
856.752	-38.4
856.926	-95.74
857.101	88.57
857.276	-58.88
857.45	6.66
857.625	80.38
857.799	14.85
857.974	-32.26
858.148	-22.02
858.323	-28.16
858.497	31.23
858.672	-28.16
858.846	-5.63
859.02	57.86
859.195	-46.59
859.369	-38.4
859.543	27.14
859.718	-1.54
859.892	-15.87
860.066	4.61
860.241	-40.45
860.415	4.61
860.589	0.51
860.763	59.9
860.938	35.33
861.112	-26.11
861.286	-3.58
861.46	-65.02
861.634	-85.5
861.808	127.49
861.982	-50.69
862.157	-83.45
862.331	-22.02
862.505	-91.65
862.679	-58.88
862.853	-17.92
863.027	-22.02
863.201	107.01
863.375	-62.98
863.549	35.33
863.722	20.99
863.896	31.23
864.07	-101.89
864.244	-9.73
864.418	-9.73
864.592	-34.3
864.766	31.23
864.939	-7.68
865.113	-1.54
865.287	31.23
865.461	-85.5
865.634	4.61
865.808	-58.88
865.982	25.09
866.156	-48.64
866.329	-56.83
866.503	2.56
866.676	90.62
866.85	23.04
867.024	-36.35
867.197	0.51
867.371	2.56
867.544	59.9
867.718	-163.33
867.891	-15.87
868.065	-118.27
868.238	6.66
868.412	61.95
868.585	-32.26
868.759	-67.07
868.932	39.42
869.105	-83.45
869.279	-5.63
869.452	-89.6
869.625	35.33
869.799	-52.74
869.972	8.7
870.145	-83.45
870.319	78.33
870.492	-120.32
870.665	-69.12
870.838	-22.02
871.011	-194.05
871.185	-28.16
871.358	-50.69
871.531	70.14
871.704	-116.22
871.877	29.18
872.05	-36.35
872.223	-30.21
872.396	119.29
872.569	47.62
872.742	-95.74
872.915	-3.58
873.088	-36.35
873.261	-34.3
873.434	6.66
873.607	-67.07
873.78	27.14
873.953	-38.4
874.126	45.57
874.299	59.9
874.471	-42.5
874.644	-62.98
874.817	-24.06
874.99	119.29
875.163	-5.63
875.335	-22.02
875.508	-77.31
875.681	2.56
875.853	-77.31
876.026	-11.78
876.199	-42.5
876.371	53.76
876.544	-62.98
876.717	25.09
876.889	-91.65
877.062	-19.97
877.234	-138.75
877.407	-34.3
877.579	80.38
877.752	-3.58
877.924	39.42
878.097	31.23
878.269	25.09
878.442	-60.93
878.614	18.94
878.786	41.47
878.959	80.38
879.131	25.09
879.303	-136.7
879.476	-46.59
879.648	6.66
879.82	-24.06
879.993	-157.18
880.165	-11.78
880.337	-85.5
880.509	61.95
880.681	-157.18
880.854	-19.97
881.026	74.24
881.198	178.69
881.37	0.51
881.542	-19.97
881.714	-26.11
881.886	-3.58
882.058	-26.11
882.23	-22.02
882.402	-5.63
882.574	-44.54
882.746	117.25
882.918	115.2
883.09	-3.58
883.262	-11.78
883.434	-58.88
883.606	-134.65
883.778	-101.89
883.95	94.72
884.122	-38.4
884.293	158.21
884.465	0.51
884.637	76.29
884.809	-79.36
884.98	82.43
885.152	88.57
885.324	25.09
885.496	-54.78
885.667	-77.31
885.839	-54.78
886.011	76.29
886.182	-32.26
886.354	100.86
886.525	84.48
886.697	43.52
886.869	-54.78
887.04	53.76
887.212	47.62
887.383	154.11
887.555	20.99
887.726	-81.41
887.897	-42.5
888.069	41.47
888.24	78.33
888.412	-46.59
888.583	-19.97
888.754	-15.87
888.926	-103.93
889.097	-46.59
889.268	-73.21
889.44	39.42
889.611	-95.74
889.782	-38.4
889.953	-118.27
890.125	102.91
890.296	-93.69
890.467	-28.16
890.638	-17.92
890.809	-58.88
890.98	-73.21
891.151	2.56
891.323	31.23
891.494	-40.45
891.665	-34.3
891.836	41.47
892.007	-67.07
892.178	72.19
892.349	12.8
892.52	-44.54
892.691	45.57
892.862	-46.59
893.032	-116.22
893.203	-50.69
893.374	6.66
893.545	-26.11
893.716	-89.6
893.887	43.52
894.057	-91.65
894.228	-50.69
894.399	-116.22
894.57	12.8
894.74	-22.02
894.911	-28.16
895.082	-13.82
895.253	-81.41
895.423	-1.54
895.594	100.86
895.764	-32.26
895.935	-79.36
896.106	31.23
896.276	-54.78
896.447	10.75
896.617	-58.88
896.788	-73.21
896.958	-101.89
897.129	-34.3
897.299	-69.12
897.47	119.29
897.64	43.52
897.81	-56.83
897.981	31.23
898.151	-73.21
898.322	57.86
898.492	-7.68
898.662	-67.07
898.832	12.8
899.003	37.38
899.173	-32.26
899.343	-101.89
899.513	-116.22
