Data from USB4F104151__27__10-42-10-271.txt Node

Date: Wed Feb 26 10:42:10 EST 2025
User: louis
Spectrometer: USB4F10415
Trigger mode: 4
Integration Time (sec): 1.000000E-1
Scans to average: 1
Electric dark correction enabled: true
Nonlinearity correction enabled: false
Boxcar width: 0
XAxis mode: Wavelengths
Number of Pixels in Spectrum: 3648
>>>>>Begin Spectral Data<<<<<
178.204	-456.7
178.424	-456.7
178.644	-456.7
178.864	-462.84
179.084	-389.11
179.304	10.24
179.524	-49.15
179.744	14.34
179.964	32.77
180.184	20.48
180.404	36.86
180.624	-34.82
180.844	-2.05
181.064	-69.63
181.283	2.05
181.503	12.29
181.723	26.62
181.943	-90.11
182.163	126.97
182.383	-43.01
182.602	79.87
182.822	141.31
183.042	65.53
183.262	14.34
183.482	30.72
183.701	122.88
183.921	90.11
184.141	-8.19
184.361	69.63
184.58	36.86
184.8	22.53
185.02	-6.14
185.239	126.97
185.459	51.2
185.679	145.41
185.898	-110.59
186.118	43.01
186.338	43.01
186.557	149.5
186.777	-98.3
186.997	55.3
187.216	83.97
187.436	133.12
187.655	149.5
187.875	4.1
188.095	81.92
188.314	163.84
188.534	94.21
188.753	-75.77
188.973	75.77
189.192	165.89
189.412	65.53
189.631	20.48
189.851	30.72
190.07	139.26
190.29	-135.17
190.509	36.86
190.729	36.86
190.948	149.5
191.168	286.72
191.387	143.36
191.607	61.44
191.826	-2.05
192.045	88.06
192.265	43.01
192.484	108.54
192.704	73.73
192.923	12.29
193.142	233.47
193.362	131.07
193.581	192.51
193.8	94.21
194.02	96.25
194.239	57.34
194.458	36.86
194.678	77.82
194.897	8.19
195.116	-6.14
195.335	92.16
195.555	65.53
195.774	-20.48
195.993	153.6
196.212	49.15
196.432	49.15
196.651	20.48
196.87	61.44
197.089	155.65
197.308	122.88
197.528	133.12
197.747	10.24
197.966	63.49
198.185	202.75
198.404	57.34
198.623	163.84
198.842	122.88
199.062	94.21
199.281	135.17
199.5	36.86
199.719	100.35
199.938	118.78
200.157	184.32
200.376	145.41
200.595	172.03
200.814	47.1
201.033	-65.54
201.252	192.51
201.471	34.82
201.69	112.64
201.909	126.97
202.128	180.22
202.347	77.82
202.566	106.49
202.785	-61.44
203.004	-12.29
203.223	303.1
203.442	102.4
203.661	-32.77
203.879	102.4
204.098	98.3
204.317	2.05
204.536	65.53
204.755	96.25
204.974	182.27
205.193	-6.14
205.411	288.76
205.63	151.55
205.849	81.92
206.068	-14.34
206.287	-40.96
206.505	102.4
206.724	-32.77
206.943	10.24
207.162	26.62
207.381	157.69
207.599	51.2
207.818	2.05
208.037	4.1
208.255	18.43
208.474	104.45
208.693	26.62
208.911	61.44
209.13	120.83
209.349	88.06
209.567	106.49
209.786	133.12
210.005	57.34
210.223	75.77
210.442	-10.24
210.661	118.78
210.879	59.39
211.098	88.06
211.316	69.63
211.535	94.21
211.753	106.49
211.972	-8.19
212.191	71.68
212.409	165.89
212.628	165.89
212.846	47.1
213.065	149.5
213.283	98.3
213.502	122.88
213.72	61.44
213.938	32.77
214.157	77.82
214.375	145.41
214.594	49.15
214.812	172.03
215.031	20.48
215.249	55.3
215.467	124.93
215.686	90.11
215.904	53.25
216.122	86.01
216.341	151.55
216.559	124.93
216.778	190.46
216.996	59.39
217.214	106.49
217.432	34.82
217.651	-24.58
217.869	22.53
218.087	22.53
218.306	61.44
218.524	77.82
218.742	92.16
218.96	94.21
219.179	22.53
219.397	112.64
219.615	237.56
219.833	126.97
220.051	26.62
220.27	100.35
220.488	135.17
220.706	102.4
220.924	-22.53
221.142	26.62
221.36	124.93
221.578	77.82
221.796	-63.49
222.015	110.59
222.233	36.86
222.451	81.92
222.669	51.2
222.887	100.35
223.105	20.48
223.323	67.58
223.541	26.62
223.759	55.3
223.977	75.77
224.195	120.83
224.413	79.87
224.631	57.34
224.849	61.44
225.067	192.51
225.285	4.1
225.503	38.91
225.721	-47.1
225.939	86.01
226.157	69.63
226.375	352.25
226.592	10.24
226.81	100.35
227.028	88.06
227.246	94.21
227.464	98.3
227.682	149.5
227.9	79.87
228.117	98.3
228.335	151.55
228.553	59.39
228.771	79.87
228.989	49.15
229.206	65.53
229.424	47.1
229.642	2.05
229.86	14.34
230.077	200.7
230.295	-14.34
230.513	120.83
230.731	-0
230.948	204.8
231.166	176.13
231.384	24.58
231.601	-6.14
231.819	163.84
232.037	-22.53
232.254	61.44
232.472	61.44
232.689	73.73
232.907	102.4
233.125	32.77
233.342	34.82
233.56	-22.53
233.777	-10.24
233.995	100.35
234.213	102.4
234.43	116.73
234.648	18.43
234.865	67.58
235.083	110.59
235.3	-8.19
235.518	45.06
235.735	102.4
235.953	110.59
236.17	86.01
236.388	71.68
236.605	10.24
236.822	114.69
237.04	163.84
237.257	100.35
237.475	75.77
237.692	79.87
237.909	57.34
238.127	22.53
238.344	59.39
238.562	36.86
238.779	-8.19
238.996	24.58
239.214	38.91
239.431	139.26
239.648	-14.34
239.865	122.88
240.083	94.21
240.3	-65.54
240.517	43.01
240.735	47.1
240.952	143.36
241.169	104.45
241.386	151.55
241.603	98.3
241.821	2.05
242.038	145.41
242.255	110.59
242.472	-18.43
242.689	38.91
242.907	122.88
243.124	94.21
243.341	86.01
243.558	38.91
243.775	-81.92
243.992	38.91
244.209	45.06
244.426	137.21
244.643	133.12
244.86	77.82
245.078	133.12
245.295	75.77
245.512	6.14
245.729	16.38
245.946	88.06
246.163	61.44
246.38	-32.77
246.597	83.97
246.814	90.11
247.031	4.1
247.248	67.58
247.464	122.88
247.681	43.01
247.898	102.4
248.115	151.55
248.332	-108.54
248.549	108.54
248.766	182.27
248.983	151.55
249.2	141.31
249.417	153.6
249.633	16.38
249.85	65.53
250.067	14.34
250.284	104.45
250.501	77.82
250.717	124.93
250.934	43.01
251.151	59.39
251.368	-22.53
251.585	112.64
251.801	12.29
252.018	-38.91
252.235	145.41
252.451	-34.82
252.668	43.01
252.885	81.92
253.102	-36.86
253.318	6.14
253.535	45.06
253.752	40.96
253.968	2.05
254.185	18.43
254.401	126.97
254.618	120.83
254.835	36.86
255.051	108.54
255.268	188.41
255.484	51.2
255.701	55.3
255.917	59.39
256.134	22.53
256.351	112.64
256.567	-14.34
256.784	75.77
257	-75.77
257.217	94.21
257.433	180.22
257.65	88.06
257.866	184.32
258.082	32.77
258.299	-45.06
258.515	61.44
258.732	24.58
258.948	-28.67
259.165	102.4
259.381	-45.06
259.597	135.17
259.814	77.82
260.03	77.82
260.246	53.25
260.463	159.74
260.679	32.77
260.895	-12.29
261.112	71.68
261.328	49.15
261.544	-73.73
261.761	155.65
261.977	30.72
262.193	-63.49
262.409	112.64
262.626	104.45
262.842	-38.91
263.058	8.19
263.274	65.53
263.49	79.87
263.707	155.65
263.923	79.87
264.139	-69.63
264.355	124.93
264.571	126.97
264.787	157.69
265.004	75.77
265.22	94.21
265.436	30.72
265.652	-14.34
265.868	22.53
266.084	-0
266.3	65.53
266.516	-10.24
266.732	118.78
266.948	86.01
267.164	24.58
267.38	204.8
267.596	135.17
267.812	206.84
268.028	71.68
268.244	55.3
268.46	26.62
268.676	24.58
268.892	79.87
269.108	32.77
269.324	-18.43
269.54	-12.29
269.756	88.06
269.972	-57.34
270.188	34.82
270.403	36.86
270.619	51.2
270.835	79.87
271.051	-26.62
271.267	59.39
271.483	-73.73
271.698	137.21
271.914	75.77
272.13	83.97
272.346	61.44
272.562	110.59
272.777	176.13
272.993	6.14
273.209	106.49
273.425	102.4
273.64	-73.73
273.856	116.73
274.072	10.24
274.287	-40.96
274.503	159.74
274.719	34.82
274.934	-8.19
275.15	-86.01
275.366	147.45
275.581	-2.05
275.797	28.67
276.012	67.58
276.228	-63.49
276.444	-16.38
276.659	239.61
276.875	-100.35
277.09	18.43
277.306	104.45
277.521	67.58
277.737	75.77
277.952	149.5
278.168	77.82
278.383	51.2
278.599	108.54
278.814	159.74
279.03	77.82
279.245	131.07
279.461	51.2
279.676	131.07
279.892	-28.67
280.107	-36.86
280.322	-0
280.538	131.07
280.753	8.19
280.969	65.53
281.184	45.06
281.399	149.5
281.615	102.4
281.83	40.96
282.045	4.1
282.26	49.15
282.476	126.97
282.691	108.54
282.906	92.16
283.122	86.01
283.337	32.77
283.552	116.73
283.767	-40.96
283.983	147.45
284.198	100.35
284.413	8.19
284.628	-77.82
284.843	79.87
285.058	131.07
285.274	34.82
285.489	-32.77
285.704	153.6
285.919	24.58
286.134	61.44
286.349	53.25
286.564	-10.24
286.779	196.6
286.995	63.49
287.21	6.14
287.425	137.21
287.64	-32.77
287.855	14.34
288.07	-45.06
288.285	114.69
288.5	151.55
288.715	75.77
288.93	59.39
289.145	-4.1
289.36	108.54
289.575	47.1
289.79	102.4
290.004	-0
290.219	45.06
290.434	86.01
290.649	51.2
290.864	47.1
291.079	-10.24
291.294	67.58
291.509	96.25
291.724	8.19
291.938	86.01
292.153	77.82
292.368	18.43
292.583	86.01
292.798	141.31
293.012	108.54
293.227	43.01
293.442	-40.96
293.657	94.21
293.871	120.83
294.086	18.43
294.301	241.66
294.516	163.84
294.73	71.68
294.945	-28.67
295.16	-4.1
295.374	153.6
295.589	151.55
295.804	98.3
296.018	110.59
296.233	116.73
296.447	38.91
296.662	94.21
296.877	129.02
297.091	159.74
297.306	43.01
297.52	49.15
297.735	139.26
297.949	47.1
298.164	53.25
298.378	139.26
298.593	59.39
298.807	-30.72
299.022	69.63
299.236	149.5
299.451	149.5
299.665	-8.19
299.88	12.29
300.094	157.69
300.309	55.3
300.523	88.06
300.737	63.49
300.952	55.3
301.166	106.49
301.381	22.53
301.595	12.29
301.809	92.16
302.024	49.15
302.238	-61.44
302.452	180.22
302.667	65.53
302.881	200.7
303.095	88.06
303.309	65.53
303.524	43.01
303.738	26.62
303.952	38.91
304.166	126.97
304.381	-135.17
304.595	233.47
304.809	45.06
305.023	100.35
305.237	94.21
305.452	102.4
305.666	165.89
305.88	126.97
306.094	98.3
306.308	45.06
306.522	79.87
306.736	49.15
306.95	57.34
307.164	20.48
307.379	47.1
307.593	169.98
307.807	147.45
308.021	86.01
308.235	112.64
308.449	-38.91
308.663	22.53
308.877	161.79
309.091	40.96
309.305	153.6
309.519	-28.67
309.733	88.06
309.947	-16.38
310.161	120.83
310.374	149.5
310.588	124.93
310.802	4.1
311.016	106.49
311.23	57.34
311.444	-38.91
311.658	-0
311.872	90.11
312.085	94.21
312.299	165.89
312.513	10.24
312.727	108.54
312.941	-77.82
313.154	169.98
313.368	40.96
313.582	8.19
313.796	96.25
314.009	98.3
314.223	137.21
314.437	104.45
314.651	139.26
314.864	51.2
315.078	14.34
315.292	-4.1
315.505	86.01
315.719	106.49
315.933	143.36
316.146	36.86
316.36	43.01
316.573	120.83
316.787	176.13
317.001	38.91
317.214	-0
317.428	126.97
317.641	12.29
317.855	-8.19
318.068	104.45
318.282	57.34
318.495	126.97
318.709	55.3
318.922	26.62
319.136	141.31
319.349	124.93
319.563	-4.1
319.776	137.21
319.99	-8.19
320.203	94.21
320.417	-8.19
320.63	172.03
320.843	172.03
321.057	139.26
321.27	122.88
321.483	141.31
321.697	147.45
321.91	47.1
322.124	55.3
322.337	118.78
322.55	14.34
322.763	16.38
322.977	126.97
323.19	43.01
323.403	32.77
323.617	157.69
323.83	223.23
324.043	-12.29
324.256	139.26
324.469	32.77
324.683	73.73
324.896	77.82
325.109	180.22
325.322	53.25
325.535	155.65
325.748	133.12
325.962	83.97
326.175	102.4
326.388	73.73
326.601	96.25
326.814	12.29
327.027	133.12
327.24	186.37
327.453	-55.3
327.666	79.87
327.879	149.5
328.092	90.11
328.305	12.29
328.518	4.1
328.731	51.2
328.944	63.49
329.157	96.25
329.37	102.4
329.583	153.6
329.796	225.28
330.009	6.14
330.222	139.26
330.435	157.69
330.648	116.73
330.861	124.93
331.073	114.69
331.286	122.88
331.499	59.39
331.712	30.72
331.925	75.77
332.138	153.6
332.35	57.34
332.563	40.96
332.776	147.45
332.989	34.82
333.202	-0
333.414	59.39
333.627	73.73
333.84	-40.96
334.053	110.59
334.265	6.14
334.478	4.1
334.691	94.21
334.903	8.19
335.116	71.68
335.329	67.58
335.541	106.49
335.754	186.37
335.966	61.44
336.179	38.91
336.392	36.86
336.604	51.2
336.817	165.89
337.029	67.58
337.242	67.58
337.454	122.88
337.667	75.77
337.88	131.07
338.092	79.87
338.305	77.82
338.517	47.1
338.729	75.77
338.942	96.25
339.154	-32.77
339.367	-30.72
339.579	124.93
339.792	-55.3
340.004	90.11
340.217	86.01
340.429	45.06
340.641	-14.34
340.854	2.05
341.066	90.11
341.278	122.88
341.491	188.41
341.703	61.44
341.915	-26.62
342.128	163.84
342.34	71.68
342.552	-22.53
342.764	45.06
342.977	81.92
343.189	129.02
343.401	112.64
343.613	47.1
343.826	63.49
344.038	-12.29
344.25	81.92
344.462	133.12
344.674	51.2
344.886	69.63
345.099	139.26
345.311	133.12
345.523	43.01
345.735	-20.48
345.947	135.17
346.159	73.73
346.371	45.06
346.583	104.45
346.795	172.03
347.007	-8.19
347.219	65.53
347.431	16.38
347.643	139.26
347.855	81.92
348.067	153.6
348.279	65.53
348.491	16.38
348.703	133.12
348.915	57.34
349.127	-59.39
349.339	100.35
349.551	55.3
349.763	137.21
349.975	88.06
350.187	112.64
350.399	129.02
350.61	100.35
350.822	32.77
351.034	8.19
351.246	-18.43
351.458	34.82
351.669	118.78
351.881	157.69
352.093	100.35
352.305	161.79
352.517	108.54
352.728	149.5
352.94	104.45
353.152	155.65
353.363	-12.29
353.575	143.36
353.787	241.66
353.999	49.15
354.21	159.74
354.422	79.87
354.633	49.15
354.845	90.11
355.057	-8.19
355.268	149.5
355.48	167.93
355.692	2.05
355.903	49.15
356.115	4.1
356.326	-47.1
356.538	217.08
356.749	124.93
356.961	114.69
357.172	67.58
357.384	38.91
357.595	198.65
357.807	2.05
358.018	51.2
358.23	65.53
358.441	227.32
358.653	110.59
358.864	53.25
359.075	57.34
359.287	81.92
359.498	75.77
359.709	108.54
359.921	55.3
360.132	163.84
360.344	-20.48
360.555	12.29
360.766	133.12
360.977	114.69
361.189	153.6
361.4	-18.43
361.611	135.17
361.823	194.56
362.034	81.92
362.245	-73.73
362.456	61.44
362.667	112.64
362.879	22.53
363.09	88.06
363.301	51.2
363.512	51.2
363.723	22.53
363.935	-8.19
364.146	151.55
364.357	47.1
364.568	40.96
364.779	-73.73
364.99	180.22
365.201	83.97
365.412	120.83
365.623	-40.96
365.834	81.92
366.045	63.49
366.256	57.34
366.467	79.87
366.678	40.96
366.889	24.58
367.1	51.2
367.311	129.02
367.522	14.34
367.733	49.15
367.944	73.73
368.155	63.49
368.366	122.88
368.577	137.21
368.788	104.45
368.999	-49.15
369.209	63.49
369.42	174.08
369.631	251.9
369.842	122.88
370.053	-28.67
370.264	126.97
370.474	-51.2
370.685	24.58
370.896	169.98
371.107	88.06
371.317	79.87
371.528	45.06
371.739	145.41
371.95	135.17
372.16	12.29
372.371	-67.58
372.582	86.01
372.792	6.14
373.003	104.45
373.214	83.97
373.424	71.68
373.635	-34.82
373.846	196.6
374.056	81.92
374.267	51.2
374.477	69.63
374.688	94.21
374.898	118.78
375.109	116.73
375.319	116.73
375.53	83.97
375.74	198.65
375.951	51.2
376.161	106.49
376.372	96.25
376.582	-10.24
376.793	71.68
377.003	32.77
377.214	59.39
377.424	88.06
377.635	69.63
377.845	-43.01
378.055	133.12
378.266	-26.62
378.476	55.3
378.686	43.01
378.897	49.15
379.107	4.1
379.317	153.6
379.528	81.92
379.738	57.34
379.948	-83.97
380.158	163.84
380.369	102.4
380.579	94.21
380.789	104.45
380.999	151.55
381.21	120.83
381.42	217.08
381.63	153.6
381.84	167.93
382.05	114.69
382.261	174.08
382.471	147.45
382.681	-12.29
382.891	206.84
383.101	131.07
383.311	-20.48
383.521	75.77
383.731	112.64
383.941	114.69
384.151	6.14
384.361	96.25
384.571	110.59
384.781	86.01
384.991	192.51
385.201	198.65
385.411	108.54
385.621	108.54
385.831	186.37
386.041	36.86
386.251	28.67
386.461	126.97
386.671	92.16
386.881	61.44
387.091	100.35
387.301	98.3
387.511	129.02
387.72	116.73
387.93	104.45
388.14	-40.96
388.35	102.4
388.56	161.79
388.769	200.7
388.979	38.91
389.189	73.73
389.399	94.21
389.609	96.25
389.818	28.67
390.028	53.25
390.238	40.96
390.447	-0
390.657	75.77
390.867	81.92
391.076	-4.1
391.286	102.4
391.496	-28.67
391.705	83.97
391.915	258.04
392.125	79.87
392.334	34.82
392.544	180.22
392.753	71.68
392.963	8.19
393.172	71.68
393.382	-26.62
393.591	237.56
393.801	-16.38
394.01	286.72
394.22	151.55
394.429	71.68
394.639	106.49
394.848	63.49
395.058	120.83
395.267	71.68
395.477	61.44
395.686	49.15
395.895	190.46
396.105	247.8
396.314	73.73
396.524	26.62
396.733	38.91
396.942	86.01
397.152	106.49
397.361	139.26
397.57	77.82
397.78	102.4
397.989	163.84
398.198	243.71
398.407	20.48
398.617	-40.96
398.826	49.15
399.035	34.82
399.244	172.03
399.453	141.31
399.663	86.01
399.872	129.02
400.081	28.67
400.29	180.22
400.499	24.58
400.708	147.45
400.917	55.3
401.127	10.24
401.336	-4.1
401.545	229.37
401.754	161.79
401.963	14.34
402.172	53.25
402.381	4.1
402.59	-24.58
402.799	6.14
403.008	176.13
403.217	67.58
403.426	96.25
403.635	-61.44
403.844	118.78
404.053	71.68
404.262	94.21
404.471	139.26
404.68	96.25
404.888	86.01
405.097	-22.53
405.306	55.3
405.515	92.16
405.724	34.82
405.933	225.28
406.142	96.25
406.35	196.6
406.559	49.15
406.768	26.62
406.977	260.09
407.185	83.97
407.394	114.69
407.603	-38.91
407.812	143.36
408.02	137.21
408.229	57.34
408.438	104.45
408.646	8.19
408.855	86.01
409.064	106.49
409.272	40.96
409.481	63.49
409.69	40.96
409.898	-59.39
410.107	49.15
410.315	59.39
410.524	57.34
410.733	61.44
410.941	96.25
411.15	210.94
411.358	108.54
411.567	184.32
411.775	67.58
411.984	59.39
412.192	94.21
412.401	-6.14
412.609	188.41
412.818	165.89
413.026	90.11
413.234	86.01
413.443	102.4
413.651	-18.43
413.86	104.45
414.068	186.37
414.276	202.75
414.485	36.86
414.693	241.66
414.901	266.24
415.11	104.45
415.318	153.6
415.526	73.73
415.734	133.12
415.943	106.49
416.151	235.52
416.359	126.97
416.567	114.69
416.776	61.44
416.984	112.64
417.192	151.55
417.4	-30.72
417.608	51.2
417.817	14.34
418.025	196.6
418.233	190.46
418.441	-43.01
418.649	30.72
418.857	104.45
419.065	202.75
419.273	8.19
419.481	55.3
419.689	133.12
419.897	40.96
420.105	30.72
420.313	169.98
420.521	133.12
420.729	208.89
420.937	24.58
421.145	20.48
421.353	143.36
421.561	180.22
421.769	120.83
421.977	20.48
422.185	145.41
422.393	81.92
422.601	135.17
422.809	92.16
423.017	92.16
423.224	149.5
423.432	98.3
423.64	69.63
423.848	223.23
424.056	32.77
424.263	182.27
424.471	73.73
424.679	126.97
424.887	-28.67
425.094	169.98
425.302	88.06
425.51	86.01
425.718	178.17
425.925	124.93
426.133	77.82
426.341	217.08
426.548	75.77
426.756	-2.05
426.964	247.8
427.171	92.16
427.379	118.78
427.586	118.78
427.794	151.55
428.001	182.27
428.209	174.08
428.417	217.08
428.624	186.37
428.832	153.6
429.039	131.07
429.247	135.17
429.454	139.26
429.662	221.18
429.869	147.45
430.076	120.83
430.284	249.85
430.491	264.19
430.699	245.76
430.906	325.63
431.114	151.55
431.321	208.89
431.528	233.47
431.736	313.34
431.943	221.18
432.15	233.47
432.358	245.76
432.565	315.39
432.772	131.07
432.979	192.51
433.187	247.8
433.394	309.24
433.601	174.08
433.808	323.58
434.016	247.8
434.223	317.44
434.43	266.24
434.637	268.28
434.844	311.29
435.052	315.39
435.259	333.82
435.466	348.15
435.673	317.44
435.88	323.58
436.087	423.93
436.294	411.64
436.501	403.45
436.708	346.11
436.915	413.69
437.122	354.3
437.329	378.87
437.537	401.4
437.743	466.94
437.95	514.04
438.157	503.8
438.364	423.93
438.571	452.6
438.778	585.72
438.985	563.19
439.192	587.77
439.399	571.38
439.606	616.44
439.813	573.43
440.02	780.28
440.227	757.75
440.433	790.52
440.64	690.17
440.847	620.53
441.054	657.4
441.261	872.43
441.467	860.15
441.674	739.32
441.881	888.82
442.088	800.76
442.294	925.68
442.501	989.17
442.708	1089.52
442.914	983.02
443.121	1060.85
443.328	1116.14
443.534	1079.28
443.741	1169.39
443.948	1087.47
444.154	1277.93
444.361	1355.76
444.568	1411.05
444.774	1224.69
444.981	1269.74
445.187	1630.18
445.394	1441.77
445.6	1452.01
445.807	1679.33
446.013	1597.42
446.22	1617.9
446.426	1791.97
446.633	1855.46
446.839	2111.46
447.046	1853.41
447.252	2007.01
447.459	2035.68
447.665	2007.01
447.871	2330.59
448.078	2502.62
448.284	2287.58
448.491	2549.72
448.697	2578.39
448.903	2729.94
449.11	2666.46
449.316	2668.5
449.522	3033.04
449.728	3020.75
449.935	3176.4
450.141	3194.83
450.347	3528.65
450.553	3252.17
450.76	3452.88
450.966	3768.26
451.172	3616.71
451.378	3915.72
451.584	3991.49
451.791	4276.16
451.997	4372.41
452.203	4458.43
452.409	4595.64
452.615	4874.17
452.821	4652.98
453.027	4837.3
453.233	5517.23
453.44	5285.81
453.646	5521.32
453.852	5726.12
454.058	5955.49
454.264	6193.06
454.47	6659.99
454.676	6782.87
454.882	7352.21
455.088	7038.87
455.294	7268.24
455.5	7882.63
455.705	8202.11
455.911	8312.71
456.117	8449.92
456.323	8820.6
456.529	8656.76
456.735	9412.46
456.941	9688.94
457.147	10112.87
457.352	10280.8
457.558	10577.76
457.764	11425.62
457.97	11663.18
458.176	12066.63
458.381	12721.98
458.587	12781.37
458.793	13379.38
458.999	13606.7
459.204	15320.85
459.41	15970.06
459.616	15435.54
459.821	16531.2
460.027	17180.41
460.233	18087.66
460.438	18165.48
460.644	19201.75
460.85	19158.75
461.055	20166.35
461.261	21264.06
461.466	20737.73
461.672	21118.65
461.878	23668.37
462.083	23221.92
462.289	23658.14
462.494	24465.03
462.7	25015.94
462.905	25079.43
463.111	27242.08
463.316	28659.27
463.522	29232.71
463.727	30008.89
463.932	31346.21
464.138	32134.68
464.343	33482.24
464.549	33322.5
464.754	36050.39
464.959	37254.6
465.165	37639.62
465.37	37445.06
465.575	37576.13
465.781	39724.45
465.986	41250.19
466.191	40549.78
466.397	40754.58
466.602	39597.48
466.807	42081.66
467.012	42640.76
467.218	43210.09
467.423	43765.09
467.628	45135.18
467.833	47084.85
468.038	46329.15
468.244	45567.3
468.449	47572.27
468.654	46574.91
468.859	46495.03
469.064	46929.2
469.269	45829.44
469.474	45831.49
469.679	47306.03
469.885	46044.48
470.09	46814.52
470.295	46767.41
470.5	45774.15
470.705	46171.46
470.91	44526.94
471.115	44287.32
471.32	45352.27
471.525	44705.11
471.73	43529.58
471.935	43226.48
472.139	41928.06
472.344	41813.38
472.549	41747.84
472.754	40832.4
472.959	39953.82
473.164	38559.16
473.369	38346.17
473.574	39022
473.778	38503.86
473.983	37754.3
474.188	37246.41
474.393	35235.3
474.598	35108.33
474.802	34491.89
475.007	34100.73
475.212	33750.53
475.417	32400.91
475.621	32101.91
475.826	31606.3
476.031	31098.41
476.235	30721.58
476.44	30727.72
476.645	29775.42
476.849	29431.36
477.054	28804.68
477.259	27844.18
477.463	28329.55
477.668	27446.88
477.872	27233.89
478.077	26895.97
478.282	25802.36
478.486	25779.83
478.691	25464.44
478.895	25224.83
479.1	25015.94
479.304	24837.76
479.509	23821.97
479.713	24082.06
479.918	23717.53
480.122	23293.6
480.326	23533.21
480.531	23439
480.735	23226.01
480.94	22597.29
481.144	23369.37
481.348	22073.01
481.553	22617.77
481.757	21823.15
481.961	21870.26
482.166	22175.41
482.37	21855.92
482.574	21231.29
482.778	21182.14
482.983	21456.57
483.187	21171.9
483.391	21143.23
483.595	20661.96
483.8	20319.95
484.004	20410.06
484.208	20371.15
484.412	20317.9
484.616	20178.64
484.821	19721.94
485.025	19185.37
485.229	19359.45
485.433	19029.73
485.637	18665.19
485.841	18353.9
486.045	18378.47
486.249	17907.44
486.453	17657.59
486.657	17714.93
486.861	17229.56
487.065	16756.48
487.269	16721.66
487.473	16113.42
487.677	16584.45
487.881	16176.91
488.085	15572.75
488.289	15685.39
488.493	15042.33
488.697	14915.36
488.901	14681.89
489.105	14343.97
489.309	14198.57
489.512	14032.68
489.716	13664.05
489.92	13240.12
490.124	13027.13
490.328	13195.06
490.531	12615.49
490.735	12746.56
490.939	12162.89
491.143	12003.14
491.346	11849.55
491.55	11765.58
491.754	11370.32
491.958	11534.16
492.161	10895.19
492.365	11173.72
492.569	10946.39
492.772	10508.13
492.976	10444.64
493.18	10434.4
493.383	10233.7
493.587	10131.3
493.79	10024.81
493.994	9676.65
494.197	9668.46
494.401	9576.3
494.605	9289.59
494.808	9465.71
495.012	9131.89
495.215	9238.39
495.419	9297.78
495.622	9072.5
495.825	9068.41
496.029	8966.01
496.232	8968.06
496.436	8990.58
496.639	8861.56
496.843	8660.86
497.046	8980.34
497.249	8750.97
497.453	8728.44
497.656	8808.31
497.859	8658.81
498.063	8660.86
498.266	8728.44
498.469	8726.39
498.673	8574.85
498.876	8728.44
499.079	8896.38
499.282	8791.93
499.485	9023.35
499.689	8814.46
499.892	9146.23
500.095	8888.18
500.298	8986.49
500.501	8808.31
500.705	9043.83
500.908	9277.3
501.111	9219.96
501.314	9334.64
501.517	9488.24
501.72	9365.36
501.923	9424.75
502.126	9539.44
502.329	9930.6
502.532	9824.11
502.735	9946.98
502.938	10051.43
503.141	10172.26
503.344	10303.33
503.547	10176.36
503.75	10422.11
503.953	10542.94
504.156	10809.18
504.359	10766.17
504.562	10827.61
504.765	11024.22
504.968	11183.96
505.17	11439.95
505.373	11665.23
505.576	11804.49
505.779	11915.08
505.982	12074.82
506.185	12308.29
506.387	12347.2
506.59	12607.3
506.793	12937.02
506.996	12859.2
507.198	13621.04
507.401	13539.12
507.604	13858.6
507.807	14270.25
508.009	14337.83
508.212	14268.2
508.415	14823.2
508.617	15202.07
508.82	15279.89
509.022	15480.6
509.225	16281.35
509.428	16021.26
509.63	16484.1
509.833	16924.41
510.035	17446.65
510.238	17491.7
510.44	17932.01
510.643	18605.8
510.845	18706.15
511.048	19019.49
511.25	19394.26
511.453	19877.58
511.655	21135.04
511.858	20799.17
512.06	21378.75
512.262	21845.68
512.465	22230.7
512.667	22699.69
512.87	23178.91
513.072	23473.82
513.274	24602.25
513.477	24843.91
513.679	25241.21
513.881	25808.5
514.084	26752.62
514.286	27053.67
514.488	27356.77
514.69	28479.05
514.893	28685.9
515.095	29318.72
515.297	29949.49
515.499	30547.5
515.701	31127.08
515.904	31725.08
516.106	32345.62
516.308	33267.2
516.51	33943.03
516.712	34319.86
516.914	34792.94
517.116	35902.94
517.318	36394.45
517.52	37111.24
517.722	37234.12
517.925	38108.6
518.127	39361.96
518.329	39450.02
518.531	39802.27
518.733	41192.84
518.935	41350.54
519.136	41778.56
519.338	43160.94
519.54	43201.9
519.742	44256.6
519.944	44647.77
520.146	45831.49
520.348	45706.57
520.55	46562.62
520.752	46705.98
520.954	47883.56
521.155	47721.77
521.357	49214.74
521.559	49202.45
521.761	50263.3
521.963	49763.59
522.164	50681.08
522.366	51254.51
522.568	51373.3
522.77	52268.26
522.971	52651.23
523.173	52468.96
523.375	53179.6
523.576	53460.18
523.778	53097.69
523.98	53986.5
524.181	54072.52
524.383	54052.04
524.584	54512.83
524.786	54469.82
524.988	54596.8
525.189	55172.28
525.391	55141.56
525.592	55391.41
525.794	55162.04
525.995	54766.78
526.197	54877.37
526.398	55096.5
526.6	54838.46
526.801	55092.41
527.003	54869.18
527.204	54348.99
527.406	55039.16
527.607	54244.55
527.808	54201.54
528.01	53564.62
528.211	52958.42
528.412	53736.65
528.614	53343.44
528.815	52813.02
529.016	53134.55
529.218	51422.45
529.419	51250.42
529.62	50918.65
529.822	50681.08
530.023	50332.93
530.224	50103.56
530.425	49198.35
530.626	48473.37
530.828	48063.78
531.029	48731.42
531.23	47303.98
531.431	47115.57
531.632	46681.4
531.833	45864.26
532.035	45563.21
532.236	45204.81
532.437	44612.95
532.638	43668.84
532.839	43386.22
533.04	43160.94
533.241	42231.16
533.442	42122.62
533.643	41577.86
533.844	40854.93
534.045	40512.92
534.246	39470.5
534.447	39507.37
534.648	38677.94
534.849	38600.11
535.05	37342.66
535.251	37393.86
535.451	36752.85
535.652	36296.15
535.853	35642.85
536.054	35188.2
536.255	35044.84
536.456	34022.9
536.657	34399.73
536.857	33207.81
537.058	32970.25
537.259	32400.91
537.46	31854.11
537.66	31456.8
537.861	31516.19
538.062	30772.78
538.263	30971.43
538.463	30254.64
538.664	29824.57
538.865	29265.47
539.065	29408.83
539.266	28286.54
539.466	28446.29
539.667	27885.14
539.868	28012.12
540.068	27582.04
540.269	27022.95
540.469	26912.36
540.67	26459.76
540.87	26152.56
541.071	25859.7
541.271	25327.23
541.472	25028.23
541.672	25058.95
541.873	24882.82
542.073	23848.6
542.274	24501.9
542.474	23803.54
542.675	23391.9
542.875	23762.58
543.075	22896.29
543.276	22693.54
543.476	22630.05
543.676	22105.77
543.877	22134.45
544.077	22025.9
544.277	21384.89
544.478	21153.47
544.678	21178.04
544.878	20952.77
545.078	20600.52
545.279	20385.48
545.479	19877.58
545.679	20045.52
545.879	19734.23
546.079	19363.54
546.28	19076.83
546.48	18691.81
546.68	19101.4
546.88	18734.82
547.08	18249.45
547.28	18097.9
547.48	17667.83
547.68	17676.02
547.88	17370.87
548.081	17372.92
548.281	16877.31
548.481	16787.2
548.681	16971.52
548.881	16408.33
549.081	16324.36
549.28	15851.28
549.48	16082.7
549.68	15677.2
549.88	15603.47
550.08	14921.5
550.28	14769.95
550.48	14946.08
550.68	14593.83
550.88	14403.36
551.08	14296.87
551.279	14137.13
551.479	13784.88
551.679	13770.54
551.879	13332.28
552.079	13098.81
552.278	13018.94
552.478	12830.52
552.678	12689.21
552.878	12435.27
553.077	12099.4
553.277	12169.03
553.477	11857.74
553.676	11652.94
553.876	11542.35
554.076	11259.73
554.275	11259.73
554.475	10755.93
554.674	10874.71
554.874	10561.37
555.074	10559.33
555.273	10248.04
555.473	10159.97
555.672	9938.79
555.872	9885.55
556.071	9631.6
556.271	9523.05
556.47	9275.25
556.67	9090.93
556.869	8898.42
557.068	8871.8
557.268	8955.77
557.467	8769.4
557.667	8779.64
557.866	8396.67
558.065	8247.17
558.265	7968.65
558.464	7802.76
558.663	8003.46
558.863	7688.07
559.062	7774.09
559.261	7452.56
559.461	7520.14
559.66	7178.13
559.859	7249.81
560.058	6866.84
560.258	6813.59
560.457	6766.49
560.656	6756.25
560.855	6588.32
561.054	6528.92
561.253	6313.89
561.453	6348.7
561.652	6227.87
561.851	6154.15
562.05	6041.51
562.249	5746.6
562.448	5767.08
562.647	5801.9
562.846	5609.39
563.045	5599.15
563.244	5595.05
563.443	5506.99
563.642	5265.33
563.841	5273.52
564.04	5119.92
564.239	5230.51
564.438	4982.71
564.637	4872.12
564.836	4839.35
565.035	4831.16
565.234	4677.56
565.432	4575.16
565.631	4546.49
565.83	4671.42
566.029	4460.48
566.228	4310.97
566.427	4366.27
566.625	4202.43
566.824	4243.39
567.023	4153.28
567.222	4007.87
567.42	4038.59
567.619	3985.35
567.818	3874.76
568.016	3954.63
568.215	3798.98
568.414	3950.53
568.612	3649.48
568.811	3653.58
569.01	3663.82
569.208	3577.8
569.407	3588.04
569.605	3610.57
569.804	3459.02
570.002	3407.82
570.201	3301.33
570.4	3172.3
570.598	3039.19
570.797	3131.34
570.995	3086.29
571.193	3121.1
571.392	3155.92
571.59	2928.6
571.789	3018.71
571.987	2985.94
572.186	2910.16
572.384	2787.29
572.582	2752.47
572.781	2908.12
572.979	2582.49
573.177	2711.51
573.376	2512.86
573.574	2740.18
573.772	2574.3
573.971	2443.23
574.169	2306.01
574.367	2297.82
574.565	2326.49
574.763	2332.64
574.962	2367.45
575.16	2267.1
575.358	2205.66
575.556	2185.18
575.754	2138.08
575.952	2033.63
576.151	2068.45
576.349	2146.27
576.547	1953.76
576.745	1920.99
576.943	2027.49
577.141	1949.67
577.339	1841.12
577.537	1914.85
577.735	1939.43
577.933	1951.71
578.131	1789.92
578.329	1892.32
578.527	1773.54
578.725	1718.25
578.923	1609.7
579.121	1718.25
579.319	1439.72
579.516	1630.18
579.714	1785.83
579.912	1581.03
580.11	1478.63
580.308	1480.68
580.506	1415.15
580.704	1269.74
580.901	1363.95
581.099	1509.35
581.297	1406.95
581.495	1398.76
581.692	1376.23
581.89	1523.69
582.088	1361.9
582.285	1294.32
582.483	1279.98
582.681	1286.12
582.878	1224.69
583.076	1175.53
583.274	1296.36
583.471	1308.65
583.669	1208.3
583.866	1118.19
584.064	1101.81
584.262	1085.42
584.459	989.17
584.657	1103.86
584.854	1130.48
585.052	1089.52
585.249	1150.96
585.447	1048.56
585.644	956.4
585.841	1155.05
586.039	1019.89
586.236	1161.2
586.434	966.64
586.631	960.5
586.828	899.06
587.026	901.11
587.223	782.32
587.42	937.97
587.618	856.05
587.815	952.31
588.012	827.38
588.21	800.76
588.407	985.07
588.604	950.26
588.801	866.29
588.999	811
589.196	919.54
589.393	710.65
589.59	919.54
589.787	907.25
589.984	886.77
590.182	813.04
590.379	813.04
590.576	815.09
590.773	786.42
590.97	780.28
591.167	759.8
591.364	878.58
591.561	706.55
591.758	901.11
591.955	821.24
592.152	733.17
592.349	696.31
592.546	704.5
592.743	698.36
592.94	763.89
593.137	778.23
593.334	911.35
593.531	815.09
593.727	858.1
593.924	798.71
594.121	731.12
594.318	638.97
594.515	811
594.712	888.82
594.908	927.73
595.105	729.08
595.302	888.82
595.499	708.6
595.696	989.17
595.892	778.23
596.089	976.88
596.286	847.86
596.482	964.59
596.679	952.31
596.876	940.02
597.072	1052.66
597.269	993.26
597.466	978.93
597.662	1079.28
597.859	1023.98
598.055	1101.81
598.252	1171.44
598.448	1179.63
598.645	1316.84
598.841	1265.64
599.038	1425.39
599.234	1452.01
599.431	1361.9
599.627	1468.39
599.824	1511.4
600.02	1587.18
600.217	1593.32
600.413	1658.85
600.609	1828.84
600.806	1957.86
601.002	1927.14
601.198	1839.08
601.395	2017.25
601.591	2031.58
601.787	2183.13
601.984	2226.14
602.18	2449.37
602.376	2322.4
602.572	2473.95
602.769	2691.03
602.965	2574.3
603.161	2719.7
603.357	2871.25
603.553	3067.86
603.75	2947.03
603.946	3071.95
604.142	3348.43
604.338	3549.13
604.534	3397.58
604.73	3596.23
604.926	3633.1
605.122	3901.38
605.318	3919.81
605.514	4020.16
605.71	3997.63
605.906	4300.73
606.102	4313.02
606.298	4618.17
606.494	4802.49
606.69	4943.8
606.886	4915.12
607.082	4986.8
607.278	5351.34
607.474	5382.06
607.67	5543.85
607.866	5541.8
608.062	5889.96
608.257	6004.64
608.453	6168.48
608.649	6406.05
608.845	6385.57
609.041	6659.99
609.236	6895.51
609.432	7161.75
609.628	7331.73
609.824	7624.59
610.019	7679.88
610.215	7853.96
610.411	8175.49
610.606	8224.64
610.802	8339.33
610.998	8707.96
611.193	8998.77
611.389	8933.24
611.584	9418.61
611.78	9668.46
611.976	9924.46
612.171	10448.74
612.367	10506.08
612.562	10712.92
612.758	10938.2
612.953	11091.8
613.149	11528.02
613.344	11683.66
613.539	12185.41
613.735	12363.59
613.93	12896.06
614.126	13107
614.321	13311.8
614.517	13913.9
614.712	14118.7
614.907	14122.79
615.103	14638.88
615.298	15036.19
615.493	15425.3
615.688	15828.75
615.884	16508.68
616.079	16621.31
616.274	17215.23
616.47	17688.31
616.665	17719.03
616.86	18560.74
617.055	18816.74
617.25	19265.24
617.445	20201.16
617.641	20373.19
617.836	20821.7
618.031	21116.61
618.226	22156.97
618.421	22324.91
618.616	23000.74
618.811	23385.76
619.006	24123.02
619.201	24440.46
619.396	24796.81
619.591	25151.1
619.786	25890.42
619.981	26564.2
620.176	27633.24
620.371	27575.9
620.566	28264.02
620.761	28945.99
620.956	30092.85
621.151	29935.16
621.346	30766.63
621.541	30711.34
621.735	32341.52
621.93	32259.6
622.125	32912.91
622.32	32943.63
622.515	34125.3
622.709	34831.85
622.904	35395.04
623.099	35571.17
623.294	36517.33
623.488	37004.75
623.683	38139.32
623.878	37682.62
624.072	39595.43
624.267	39497.13
624.462	40000.93
624.656	40277.4
624.851	41399.69
625.046	41649.54
625.24	42351.99
625.435	42743.16
625.629	43586.92
625.824	44334.43
626.018	44506.46
626.213	44344.67
626.407	45514.06
626.602	45380.94
626.796	46486.84
626.991	46875.96
627.185	46957.88
627.38	47734.06
627.574	47729.96
627.768	47971.62
627.963	48364.83
628.157	48413.98
628.352	49227.02
628.546	48278.82
628.74	48979.22
628.935	48180.51
629.129	48936.21
629.323	48330.01
629.517	48309.53
629.712	47904.04
629.906	47703.34
630.1	46863.67
630.294	47181.1
630.489	45954.37
630.683	46021.95
630.877	44567.9
631.071	44201.31
631.265	43715.94
631.459	42780.02
631.653	41983.36
631.848	41190.8
632.042	40132
632.236	39720.35
632.43	38352.31
632.624	37549.51
632.818	36283.86
633.012	34969.07
633.206	34201.08
633.4	33234.44
633.594	31962.65
633.788	31360.55
633.982	30363.18
634.176	29122.12
634.369	27899.48
634.563	26738.28
634.757	25753.21
634.951	24960.64
635.145	24223.37
635.339	23295.64
635.533	22228.65
635.726	21558.97
635.92	20197.07
636.114	19535.57
636.308	18710.24
636.501	18353.9
636.695	17192.7
636.889	16529.16
637.083	15908.62
637.276	15365.91
637.47	14466.85
637.664	13838.12
637.857	13643.57
638.051	12990.27
638.244	12451.65
638.438	11990.86
638.632	11403.09
638.825	11024.22
639.019	10633.05
639.212	10157.92
639.406	9897.83
639.599	9434.99
639.793	9031.54
639.986	8628.09
640.18	8529.79
640.373	8003.46
640.567	7657.36
640.76	7499.66
640.954	7165.84
641.147	6848.41
641.34	6516.64
641.534	6207.39
641.727	6283.17
641.92	5963.68
642.114	5853.09
642.307	5359.53
642.5	5328.81
642.694	4929.46
642.887	4902.84
643.08	4880.31
643.273	4526.01
643.467	4310.97
643.66	4138.94
643.853	3960.77
644.046	3889.09
644.239	3723.21
644.432	3493.83
644.626	3405.77
644.819	3258.32
645.012	3123.15
645.205	3223.5
645.398	2961.36
645.591	2713.56
645.784	2705.37
645.977	2588.63
646.17	2471.9
646.363	2516.95
646.556	2228.19
646.749	2256.86
646.942	2238.43
647.135	2158.56
647.328	2090.98
647.521	2002.91
647.714	1875.94
647.907	1900.51
648.099	1644.52
648.292	1732.58
648.485	1585.13
648.678	1529.83
648.871	1411.05
649.064	1388.52
649.256	1421.29
649.449	1314.8
649.642	1222.64
649.835	1177.58
650.027	1120.24
650.22	1191.92
650.413	1185.77
650.605	1179.63
650.798	962.55
650.991	915.44
651.183	968.69
651.376	993.26
651.568	987.12
651.761	878.58
651.954	903.15
652.146	831.48
652.339	868.34
652.531	884.72
652.724	677.88
652.916	737.27
653.109	591.86
653.301	798.71
653.494	718.84
653.686	714.74
653.879	798.71
654.071	679.93
654.263	550.9
654.456	573.43
654.648	643.06
654.84	604.15
655.033	669.69
655.225	643.06
655.417	471.03
655.61	708.6
655.802	632.82
655.994	716.79
656.186	481.27
656.379	514.04
656.571	364.54
656.763	425.98
656.955	354.3
657.148	397.31
657.34	501.75
657.532	397.31
657.724	440.31
657.916	438.27
658.108	438.27
658.3	421.88
658.492	415.74
658.684	280.57
658.876	432.12
659.068	239.61
659.26	292.86
659.452	288.76
659.644	335.87
659.836	397.31
660.028	258.04
660.22	256
660.412	362.49
660.604	325.63
660.796	296.96
660.988	423.93
661.18	268.28
661.372	354.3
661.563	372.73
661.755	288.76
661.947	239.61
662.139	251.9
662.331	317.44
662.522	249.85
662.714	184.32
662.906	229.37
663.097	247.8
663.289	241.66
663.481	92.16
663.673	241.66
663.864	186.37
664.056	305.15
664.247	106.49
664.439	299
664.631	268.28
664.822	292.86
665.014	233.47
665.205	137.21
665.397	155.65
665.588	276.48
665.78	235.52
665.971	274.43
666.163	143.36
666.354	163.84
666.546	122.88
666.737	180.22
666.929	196.6
667.12	147.45
667.311	262.14
667.503	184.32
667.694	163.84
667.885	266.24
668.077	266.24
668.268	88.06
668.459	133.12
668.651	206.84
668.842	198.65
669.033	167.93
669.224	108.54
669.416	425.98
669.607	178.17
669.798	108.54
669.989	286.72
670.18	118.78
670.371	212.99
670.563	90.11
670.754	190.46
670.945	186.37
671.136	239.61
671.327	118.78
671.518	284.67
671.709	405.5
671.9	253.95
672.091	247.8
672.282	241.66
672.473	215.04
672.664	106.49
672.855	176.13
673.046	282.62
673.237	196.6
673.428	251.9
673.619	221.18
673.809	151.55
674	286.72
674.191	333.82
674.382	237.56
674.573	215.04
674.764	204.8
674.954	245.76
675.145	163.84
675.336	210.94
675.527	83.97
675.717	249.85
675.908	135.17
676.099	167.93
676.289	225.28
676.48	167.93
676.671	266.24
676.861	206.84
677.052	260.09
677.243	104.45
677.433	206.84
677.624	266.24
677.814	223.23
678.005	223.23
678.195	305.15
678.386	208.89
678.576	286.72
678.767	108.54
678.957	288.76
679.148	260.09
679.338	329.72
679.529	284.67
679.719	245.76
679.909	331.77
680.1	249.85
680.29	393.21
680.481	172.03
680.671	352.25
680.861	256
681.052	385.02
681.242	303.1
681.432	333.82
681.622	270.33
681.813	296.96
682.003	235.52
682.193	284.67
682.383	274.43
682.573	235.52
682.764	163.84
682.954	344.06
683.144	352.25
683.334	294.91
683.524	260.09
683.714	268.28
683.904	294.91
684.094	241.66
684.284	247.8
684.474	413.69
684.664	284.67
684.854	323.58
685.044	264.19
685.234	307.2
685.424	323.58
685.614	237.56
685.804	350.2
685.994	327.67
686.184	294.91
686.374	290.81
686.564	335.87
686.753	313.34
686.943	180.22
687.133	303.1
687.323	280.57
687.513	311.29
687.702	272.38
687.892	233.47
688.082	413.69
688.272	278.52
688.461	288.76
688.651	395.26
688.841	303.1
689.03	260.09
689.22	278.52
689.41	290.81
689.599	337.91
689.789	294.91
689.979	378.87
690.168	210.94
690.358	358.39
690.547	219.13
690.737	217.08
690.926	296.96
691.116	296.96
691.305	350.2
691.495	286.72
691.684	229.37
691.874	210.94
692.063	256
692.252	321.53
692.442	296.96
692.631	274.43
692.82	237.56
693.01	335.87
693.199	303.1
693.388	315.39
693.578	268.28
693.767	305.15
693.956	266.24
694.146	190.46
694.335	247.8
694.524	225.28
694.713	327.67
694.902	299
695.092	229.37
695.281	303.1
695.47	215.04
695.659	190.46
695.848	221.18
696.037	215.04
696.226	372.73
696.415	256
696.604	372.73
696.793	348.15
696.982	243.71
697.171	313.34
697.36	120.83
697.549	315.39
697.738	161.79
697.927	241.66
698.116	180.22
698.305	266.24
698.494	264.19
698.683	251.9
698.872	409.59
699.061	315.39
699.25	231.42
699.438	237.56
699.627	227.32
699.816	450.55
700.005	202.75
700.193	159.74
700.382	389.11
700.571	327.67
700.76	282.62
700.948	299
701.137	290.81
701.326	339.96
701.514	151.55
701.703	262.14
701.892	278.52
702.08	432.12
702.269	253.95
702.457	155.65
702.646	239.61
702.834	315.39
703.023	303.1
703.212	348.15
703.4	280.57
703.589	194.56
703.777	212.99
703.965	149.5
704.154	239.61
704.342	221.18
704.531	155.65
704.719	217.08
704.907	327.67
705.096	196.6
705.284	118.78
705.472	290.81
705.661	231.42
705.849	339.96
706.037	233.47
706.226	272.38
706.414	282.62
706.602	202.75
706.79	270.33
706.979	270.33
707.167	241.66
707.355	106.49
707.543	237.56
707.731	212.99
707.919	231.42
708.107	180.22
708.296	245.76
708.484	223.23
708.672	272.38
708.86	219.13
709.048	262.14
709.236	143.36
709.424	348.15
709.612	237.56
709.8	178.17
709.988	249.85
710.176	337.91
710.364	319.48
710.551	282.62
710.739	223.23
710.927	299
711.115	323.58
711.303	319.48
711.491	225.28
711.679	188.41
711.866	337.91
712.054	204.8
712.242	378.87
712.43	339.96
712.617	251.9
712.805	335.87
712.993	233.47
713.181	264.19
713.368	286.72
713.556	264.19
713.744	206.84
713.931	415.74
714.119	251.9
714.306	229.37
714.494	258.04
714.682	167.93
714.869	198.65
715.057	251.9
715.244	200.7
715.432	266.24
715.619	172.03
715.807	190.46
715.994	243.71
716.182	204.8
716.369	370.68
716.556	321.53
716.744	161.79
716.931	182.27
717.119	278.52
717.306	333.82
717.493	319.48
717.681	194.56
717.868	188.41
718.055	268.28
718.242	208.89
718.43	256
718.617	342.01
718.804	253.95
718.991	344.06
719.179	294.91
719.366	335.87
719.553	239.61
719.74	262.14
719.927	260.09
720.114	299
720.301	198.65
720.488	212.99
720.676	241.66
720.863	372.73
721.05	362.49
721.237	342.01
721.424	378.87
721.611	325.63
721.798	174.08
721.985	219.13
722.172	268.28
722.358	225.28
722.545	327.67
722.732	282.62
722.919	430.07
723.106	305.15
723.293	253.95
723.48	241.66
723.667	223.23
723.853	362.49
724.04	364.54
724.227	307.2
724.414	202.75
724.6	262.14
724.787	440.31
724.974	407.55
725.161	348.15
725.347	239.61
725.534	270.33
725.72	344.06
725.907	382.97
726.094	438.27
726.28	258.04
726.467	299
726.653	266.24
726.84	284.67
727.027	378.87
727.213	274.43
727.4	382.97
727.586	292.86
727.773	266.24
727.959	333.82
728.145	286.72
728.332	329.72
728.518	223.23
728.705	387.07
728.891	249.85
729.077	374.78
729.264	139.26
729.45	319.48
729.636	415.74
729.823	286.72
730.009	397.31
730.195	272.38
730.382	344.06
730.568	153.6
730.754	323.58
730.94	292.86
731.126	342.01
731.313	327.67
731.499	235.52
731.685	360.44
731.871	370.68
732.057	333.82
732.243	464.89
732.429	319.48
732.615	417.79
732.801	428.03
732.987	288.76
733.173	344.06
733.359	313.34
733.545	266.24
733.731	290.81
733.917	393.21
734.103	272.38
734.289	325.63
734.475	219.13
734.661	413.69
734.847	313.34
735.033	352.25
735.219	413.69
735.404	311.29
735.59	294.91
735.776	258.04
735.962	401.4
736.148	335.87
736.333	380.92
736.519	274.43
736.705	276.48
736.89	260.09
737.076	296.96
737.262	280.57
737.447	329.72
737.633	229.37
737.819	415.74
738.004	378.87
738.19	311.29
738.375	329.72
738.561	362.49
738.747	327.67
738.932	268.28
739.118	434.17
739.303	364.54
739.489	389.11
739.674	301.05
739.859	217.08
740.045	325.63
740.23	352.25
740.416	194.56
740.601	372.73
740.786	311.29
740.972	272.38
741.157	329.72
741.342	258.04
741.528	264.19
741.713	397.31
741.898	233.47
742.084	374.78
742.269	241.66
742.454	317.44
742.639	348.15
742.824	272.38
743.01	382.97
743.195	432.12
743.38	296.96
743.565	301.05
743.75	313.34
743.935	284.67
744.12	407.55
744.305	249.85
744.49	319.48
744.675	358.39
744.86	299
745.045	405.5
745.23	292.86
745.415	288.76
745.6	501.75
745.785	217.08
745.97	382.97
746.155	352.25
746.34	405.5
746.525	219.13
746.71	327.67
746.895	198.65
747.079	188.41
747.264	243.71
747.449	356.35
747.634	380.92
747.819	311.29
748.003	256
748.188	153.6
748.373	333.82
748.557	264.19
748.742	333.82
748.927	264.19
749.111	270.33
749.296	210.94
749.481	231.42
749.665	329.72
749.85	247.8
750.034	329.72
750.219	319.48
750.404	221.18
750.588	292.86
750.773	217.08
750.957	313.34
751.141	184.32
751.326	264.19
751.51	139.26
751.695	212.99
751.879	268.28
752.064	346.11
752.248	202.75
752.432	366.59
752.617	348.15
752.801	290.81
752.985	182.27
753.17	339.96
753.354	321.53
753.538	237.56
753.722	133.12
753.907	229.37
754.091	198.65
754.275	352.25
754.459	96.25
754.643	174.08
754.828	247.8
755.012	231.42
755.196	167.93
755.38	180.22
755.564	200.7
755.748	239.61
755.932	233.47
756.116	243.71
756.3	315.39
756.484	200.7
756.668	278.52
756.852	102.4
757.036	178.17
757.22	163.84
757.404	149.5
757.588	196.6
757.772	256
757.956	92.16
758.14	331.77
758.323	129.02
758.507	292.86
758.691	180.22
758.875	276.48
759.059	278.52
759.242	194.56
759.426	163.84
759.61	184.32
759.794	161.79
759.977	245.76
760.161	376.83
760.345	266.24
760.528	206.84
760.712	126.97
760.895	219.13
761.079	165.89
761.263	124.93
761.446	77.82
761.63	206.84
761.813	335.87
761.997	86.01
762.18	219.13
762.364	215.04
762.547	4.1
762.731	206.84
762.914	155.65
763.098	137.21
763.281	104.45
763.464	133.12
763.648	237.56
763.831	186.37
764.015	90.11
764.198	225.28
764.381	61.44
764.564	73.73
764.748	118.78
764.931	180.22
765.114	129.02
765.297	188.41
765.481	124.93
765.664	174.08
765.847	198.65
766.03	284.67
766.213	67.58
766.397	151.55
766.58	59.39
766.763	159.74
766.946	155.65
767.129	79.87
767.312	102.4
767.495	139.26
767.678	124.93
767.861	200.7
768.044	88.06
768.227	131.07
768.41	118.78
768.593	182.27
768.776	104.45
768.959	61.44
769.142	157.69
769.324	94.21
769.507	118.78
769.69	114.69
769.873	63.49
770.056	253.95
770.239	71.68
770.421	194.56
770.604	139.26
770.787	88.06
770.97	159.74
771.152	45.06
771.335	215.04
771.518	26.62
771.7	163.84
771.883	180.22
772.066	120.83
772.248	188.41
772.431	169.98
772.613	147.45
772.796	43.01
772.978	55.3
773.161	217.08
773.343	202.75
773.526	83.97
773.708	-0
773.891	69.63
774.073	86.01
774.256	77.82
774.438	260.09
774.621	53.25
774.803	180.22
774.985	100.35
775.168	126.97
775.35	145.41
775.532	147.45
775.715	63.49
775.897	92.16
776.079	77.82
776.261	110.59
776.444	71.68
776.626	157.69
776.808	30.72
776.99	34.82
777.173	83.97
777.355	73.73
777.537	90.11
777.719	100.35
777.901	43.01
778.083	18.43
778.265	-2.05
778.447	208.89
778.629	69.63
778.811	106.49
778.993	208.89
779.175	135.17
779.357	53.25
779.539	92.16
779.721	45.06
779.903	126.97
780.085	86.01
780.267	73.73
780.449	51.2
780.631	106.49
780.812	233.47
780.994	139.26
781.176	106.49
781.358	32.77
781.54	67.58
781.721	129.02
781.903	157.69
782.085	32.77
782.267	210.94
782.448	20.48
782.63	57.34
782.812	73.73
782.993	36.86
783.175	108.54
783.357	18.43
783.538	57.34
783.72	2.05
783.901	14.34
784.083	96.25
784.264	126.97
784.446	14.34
784.627	49.15
784.809	102.4
784.99	120.83
785.172	139.26
785.353	12.29
785.535	126.97
785.716	-28.67
785.897	-96.25
786.079	77.82
786.26	55.3
786.441	51.2
786.623	-38.91
786.804	-49.15
786.985	100.35
787.167	45.06
787.348	16.38
787.529	90.11
787.71	149.5
787.891	43.01
788.073	34.82
788.254	-57.34
788.435	153.6
788.616	94.21
788.797	-26.62
788.978	55.3
789.159	-38.91
789.34	67.58
789.522	51.2
789.703	-18.43
789.884	32.77
790.065	94.21
790.246	176.13
790.427	38.91
790.607	184.32
790.788	172.03
790.969	-45.06
791.15	51.2
791.331	16.38
791.512	-24.58
791.693	-20.48
791.874	16.38
792.054	239.61
792.235	176.13
792.416	45.06
792.597	-49.15
792.778	104.45
792.958	57.34
793.139	79.87
793.32	106.49
793.5	36.86
793.681	126.97
793.862	104.45
794.042	63.49
794.223	-55.3
794.404	47.1
794.584	20.48
794.765	38.91
794.945	18.43
795.126	81.92
795.306	110.59
795.487	-14.34
795.667	163.84
795.848	30.72
796.028	38.91
796.209	36.86
796.389	71.68
796.57	47.1
796.75	8.19
796.93	28.67
797.111	-38.91
797.291	-69.63
797.471	53.25
797.652	36.86
797.832	-59.39
798.012	172.03
798.192	16.38
798.373	-4.1
798.553	-20.48
798.733	79.87
798.913	-34.82
799.093	-0
799.274	104.45
799.454	139.26
799.634	126.97
799.814	49.15
799.994	96.25
800.174	49.15
800.354	59.39
800.534	-38.91
800.714	36.86
800.894	-0
801.074	-12.29
801.254	-67.58
801.434	135.17
801.614	20.48
801.794	4.1
801.974	1814.5
802.154	-4.1
802.334	129.02
802.514	-94.21
802.693	141.31
802.873	90.11
803.053	102.4
803.233	61.44
803.413	45.06
803.592	-102.4
803.772	94.21
803.952	108.54
804.131	-67.58
804.311	79.87
804.491	51.2
804.67	47.1
804.85	-0
805.03	126.97
805.209	147.45
805.389	-14.34
805.568	24.58
805.748	-38.91
805.928	86.01
806.107	94.21
806.287	61.44
806.466	51.2
806.646	-32.77
806.825	4.1
807.004	-20.48
807.184	108.54
807.363	106.49
807.543	36.86
807.722	-79.87
807.901	114.69
808.081	108.54
808.26	-137.21
808.439	55.3
808.619	-49.15
808.798	-12.29
808.977	77.82
809.156	53.25
809.336	63.49
809.515	63.49
809.694	8.19
809.873	-0
810.052	104.45
810.231	122.88
810.411	18.43
810.59	118.78
810.769	14.34
810.948	83.97
811.127	-59.39
811.306	-28.67
811.485	-59.39
811.664	188.41
811.843	-14.34
812.022	67.58
812.201	-24.58
812.38	36.86
812.559	16.38
812.737	112.64
812.916	-49.15
813.095	30.72
813.274	135.17
813.453	24.58
813.632	61.44
813.811	71.68
813.989	-65.54
814.168	104.45
814.347	24.58
814.526	-0
814.704	110.59
814.883	178.17
815.062	-112.64
815.24	108.54
815.419	-45.06
815.598	77.82
815.776	-45.06
815.955	-4.1
816.133	-112.64
816.312	69.63
816.49	-59.39
816.669	8.19
816.847	10.24
817.026	79.87
817.204	36.86
817.383	14.34
817.561	-106.49
817.74	61.44
817.918	34.82
818.097	-45.06
818.275	-53.25
818.453	114.69
818.632	43.01
818.81	-8.19
818.988	8.19
819.167	-96.25
819.345	28.67
819.523	-53.25
819.701	32.77
819.879	133.12
820.058	6.14
820.236	24.58
820.414	-4.1
820.592	81.92
820.77	-4.1
820.948	65.53
821.127	-67.58
821.305	106.49
821.483	-30.72
821.661	102.4
821.839	-24.58
822.017	-16.38
822.195	-65.54
822.373	26.62
822.551	71.68
822.729	79.87
822.907	-26.62
823.085	14.34
823.262	28.67
823.44	-0
823.618	28.67
823.796	49.15
823.974	-12.29
824.152	-2.05
824.329	-2.05
824.507	104.45
824.685	18.43
824.863	67.58
825.04	96.25
825.218	169.98
825.396	45.06
825.574	47.1
825.751	-28.67
825.929	-12.29
826.107	-47.1
826.284	53.25
826.462	57.34
826.639	-102.4
826.817	-126.97
826.994	22.53
827.172	-110.59
827.349	174.08
827.527	40.96
827.704	83.97
827.882	36.86
828.059	24.58
828.237	61.44
828.414	65.53
828.591	-110.59
828.769	16.38
828.946	-112.64
829.124	108.54
829.301	194.56
829.478	20.48
829.655	69.63
829.833	4.1
830.01	-139.26
830.187	108.54
830.364	2.05
830.542	36.86
830.719	73.73
830.896	32.77
831.073	67.58
831.25	24.58
831.427	133.12
831.604	-55.3
831.782	55.3
831.959	106.49
832.136	-20.48
832.313	75.77
832.49	-14.34
832.667	69.63
832.844	-24.58
833.021	137.21
833.198	43.01
833.374	-12.29
833.551	4.1
833.728	24.58
833.905	69.63
834.082	-120.83
834.259	45.06
834.436	153.6
834.612	-8.19
834.789	63.49
834.966	-0
835.143	34.82
835.319	-81.92
835.496	145.41
835.673	53.25
835.85	53.25
836.026	-6.14
836.203	81.92
836.38	-63.49
836.556	26.62
836.733	-6.14
836.909	100.35
837.086	-4.1
837.262	-131.07
837.439	-18.43
837.616	-0
837.792	-53.25
837.968	2.05
838.145	-106.49
838.321	-32.77
838.498	149.5
838.674	137.21
838.851	30.72
839.027	-32.77
839.203	49.15
839.38	96.25
839.556	-24.58
839.732	40.96
839.909	-16.38
840.085	45.06
840.261	-30.72
840.437	10.24
840.614	-26.62
840.79	133.12
840.966	98.3
841.142	38.91
841.318	-55.3
841.494	167.93
841.671	47.1
841.847	-28.67
842.023	4.1
842.199	22.53
842.375	141.31
842.551	-90.11
842.727	-116.73
842.903	131.07
843.079	-45.06
843.255	118.78
843.431	24.58
843.607	-0
843.783	-118.78
843.959	45.06
844.134	-38.91
844.31	129.02
844.486	-61.44
844.662	-6.14
844.838	2.05
845.013	-2.05
845.189	8.19
845.365	65.53
845.541	24.58
845.716	26.62
845.892	30.72
846.068	-28.67
846.244	-61.44
846.419	-8.19
846.595	-36.86
846.77	-4.1
846.946	12.29
847.122	10.24
847.297	-79.87
847.473	176.13
847.648	-71.68
847.824	47.1
847.999	-124.93
848.175	-6.14
848.35	28.67
848.526	116.73
848.701	79.87
848.876	133.12
849.052	184.32
849.227	-12.29
849.403	18.43
849.578	-110.59
849.753	36.86
849.929	79.87
850.104	12.29
850.279	-2.05
850.454	-36.86
850.63	77.82
850.805	24.58
850.98	30.72
851.155	34.82
851.33	32.77
851.505	-8.19
851.681	106.49
851.856	-34.82
852.031	86.01
852.206	22.53
852.381	-28.67
852.556	18.43
852.731	102.4
852.906	79.87
853.081	77.82
853.256	137.21
853.431	2.05
853.606	-24.58
853.781	-40.96
853.956	-83.97
854.131	45.06
854.305	-28.67
854.48	-14.34
854.655	-55.3
854.83	-18.43
855.005	45.06
855.18	65.53
855.354	12.29
855.529	20.48
855.704	-2.05
855.879	45.06
856.053	-47.1
856.228	6.14
856.403	-12.29
856.577	55.3
856.752	4.1
856.926	-55.3
857.101	-63.49
857.276	-45.06
857.45	47.1
857.625	116.73
857.799	-32.77
857.974	-30.72
858.148	-143.36
858.323	26.62
858.497	-6.14
858.672	-18.43
858.846	-53.25
859.02	131.07
859.195	-28.67
859.369	10.24
859.543	71.68
859.718	18.43
859.892	16.38
860.066	26.62
860.241	-22.53
860.415	-14.34
860.589	-8.19
860.763	-12.29
860.938	-53.25
861.112	26.62
861.286	-40.96
861.46	75.77
861.634	6.14
861.808	-12.29
861.982	-20.48
862.157	-34.82
862.331	6.14
862.505	-18.43
862.679	-112.64
862.853	-34.82
863.027	-14.34
863.201	182.27
863.375	-14.34
863.549	63.49
863.722	-2.05
863.896	116.73
864.07	12.29
864.244	53.25
864.418	6.14
864.592	28.67
864.766	32.77
864.939	6.14
865.113	-14.34
865.287	67.58
865.461	-30.72
865.634	-43.01
865.808	-4.1
865.982	45.06
866.156	36.86
866.329	-28.67
866.503	59.39
866.676	53.25
866.85	81.92
867.024	-20.48
867.197	45.06
867.371	16.38
867.544	28.67
867.718	-51.2
867.891	86.01
868.065	-53.25
868.238	45.06
868.412	36.86
868.585	-36.86
868.759	53.25
868.932	-77.82
869.105	-34.82
869.279	53.25
869.452	-61.44
869.625	53.25
869.799	20.48
869.972	-129.02
870.145	-40.96
870.319	83.97
870.492	40.96
870.665	-20.48
870.838	-30.72
871.011	-149.5
871.185	-12.29
871.358	-24.58
871.531	165.89
871.704	-36.86
871.877	45.06
872.05	-38.91
872.223	-112.64
872.396	61.44
872.569	55.3
872.742	-40.96
872.915	67.58
873.088	-45.06
873.261	-81.92
873.434	63.49
873.607	112.64
873.78	172.03
873.953	-83.97
874.126	81.92
874.299	83.97
874.471	-49.15
874.644	-102.4
874.817	12.29
874.99	65.53
875.163	-57.34
875.335	69.63
875.508	-88.06
875.681	43.01
875.853	-45.06
876.026	40.96
876.199	18.43
876.371	63.49
876.544	8.19
876.717	-24.58
876.889	-4.1
877.062	49.15
877.234	-71.68
877.407	-36.86
877.579	-22.53
877.752	40.96
877.924	143.36
878.097	40.96
878.269	-6.14
878.442	-8.19
878.614	69.63
878.786	79.87
878.959	30.72
879.131	90.11
879.303	-108.54
879.476	32.77
879.648	106.49
879.82	-10.24
879.993	-32.77
880.165	32.77
880.337	-98.3
880.509	14.34
880.681	-71.68
880.854	-36.86
881.026	118.78
881.198	192.51
881.37	63.49
881.542	-20.48
881.714	16.38
881.886	8.19
882.058	34.82
882.23	57.34
882.402	20.48
882.574	61.44
882.746	36.86
882.918	135.17
883.09	114.69
883.262	6.14
883.434	-6.14
883.606	-63.49
883.778	51.2
883.95	155.65
884.122	24.58
884.293	45.06
884.465	49.15
884.637	4.1
884.809	-94.21
884.98	38.91
885.152	26.62
885.324	55.3
885.496	-118.78
885.667	-43.01
885.839	-57.34
886.011	122.88
886.182	10.24
886.354	79.87
886.525	4.1
886.697	32.77
886.869	-57.34
887.04	-108.54
887.212	137.21
887.383	114.69
887.555	10.24
887.726	-94.21
887.897	12.29
888.069	-6.14
888.24	94.21
888.412	45.06
888.583	-20.48
888.754	4.1
888.926	-118.78
889.097	-16.38
889.268	-112.64
889.44	55.3
889.611	-49.15
889.782	-18.43
889.953	-6.14
890.125	90.11
890.296	-77.82
890.467	6.14
890.638	32.77
890.809	-63.49
890.98	18.43
891.151	75.77
891.323	96.25
891.494	26.62
891.665	-2.05
891.836	-14.34
892.007	4.1
892.178	-34.82
892.349	40.96
892.52	-2.05
892.691	-59.39
892.862	4.1
893.032	-102.4
893.203	-26.62
893.374	38.91
893.545	-2.05
893.716	-69.63
893.887	116.73
894.057	-26.62
894.228	-18.43
894.399	59.39
894.57	65.53
894.74	10.24
894.911	69.63
895.082	-12.29
895.253	-43.01
895.423	-6.14
895.594	120.83
895.764	32.77
895.935	-22.53
896.106	32.77
896.276	-22.53
896.447	-30.72
896.617	-67.58
896.788	-26.62
896.958	47.1
897.129	-34.82
897.299	-55.3
897.47	155.65
897.64	110.59
897.81	-2.05
897.981	24.58
898.151	-4.1
898.322	55.3
898.492	-16.38
898.662	-100.35
898.832	-53.25
899.003	-0
899.173	57.34
899.343	-90.11
899.513	-108.54
