Data from USB4F104151__281__11-20-58-614.txt Node

Date: Wed Feb 26 11:20:58 EST 2025
User: louis
Spectrometer: USB4F10415
Trigger mode: 4
Integration Time (sec): 1.000000E-1
Scans to average: 1
Electric dark correction enabled: true
Nonlinearity correction enabled: false
Boxcar width: 0
XAxis mode: Wavelengths
Number of Pixels in Spectrum: 3648
>>>>>Begin Spectral Data<<<<<
178.204	-405.84
178.424	-405.84
178.644	-405.84
178.864	-430.41
179.084	-403.79
179.304	18.09
179.524	-24.92
179.744	52.91
179.964	42.67
180.184	-4.44
180.404	48.81
180.624	-41.3
180.844	50.86
181.064	-110.93
181.283	38.57
181.503	-106.84
181.723	36.52
181.943	-65.88
182.163	208.55
182.383	-35.16
182.602	-20.82
182.822	112.3
183.042	-8.53
183.262	32.43
183.482	-63.83
183.701	42.67
183.921	93.87
184.141	-55.64
184.361	91.82
184.58	83.63
184.8	87.72
185.02	-45.4
185.239	106.15
185.459	-16.73
185.679	134.82
185.898	-94.55
186.118	69.29
186.338	69.29
186.557	132.78
186.777	-26.96
186.997	30.38
187.216	46.76
187.436	169.64
187.655	22.19
187.875	24.23
188.095	5.8
188.314	163.5
188.534	116.39
188.753	-72.02
188.973	151.21
189.192	186.02
189.412	7.85
189.631	13.99
189.851	65.19
190.07	210.6
190.29	-16.73
190.509	-47.44
190.729	46.76
190.948	61.1
191.168	267.94
191.387	38.57
191.607	46.76
191.826	114.34
192.045	16.04
192.265	40.62
192.484	69.29
192.704	83.63
192.923	-12.63
193.142	188.07
193.362	118.44
193.581	198.31
193.8	89.77
194.02	95.91
194.239	102.06
194.458	161.45
194.678	40.62
194.897	-2.39
195.116	77.48
195.335	7.85
195.555	81.58
195.774	-12.63
195.993	167.59
196.212	7.85
196.432	-2.39
196.651	1.71
196.87	67.24
197.089	212.65
197.308	52.91
197.528	54.95
197.747	-55.64
197.966	11.95
198.185	89.77
198.404	11.95
198.623	118.44
198.842	171.69
199.062	75.43
199.281	46.76
199.5	9.9
199.719	157.35
199.938	102.06
200.157	134.82
200.376	77.48
200.595	106.15
200.814	77.48
201.033	-2.39
201.252	136.87
201.471	85.67
201.69	120.49
201.909	63.15
202.128	145.06
202.347	65.19
202.566	44.71
202.785	20.14
203.004	-74.07
203.223	208.55
203.442	63.15
203.661	16.04
203.879	57
204.098	114.34
204.317	-69.97
204.536	83.63
204.755	73.39
204.974	165.54
205.193	-26.96
205.411	147.11
205.63	48.81
205.849	57
206.068	1.71
206.287	-12.63
206.505	126.63
206.724	71.34
206.943	-12.63
207.162	-4.44
207.381	59.05
207.599	20.14
207.818	79.53
208.037	-51.54
208.255	122.54
208.474	110.25
208.693	54.95
208.911	44.71
209.13	75.43
209.349	89.77
209.567	44.71
209.786	63.15
210.005	116.39
210.223	44.71
210.442	-76.12
210.661	44.71
210.879	108.2
211.098	61.1
211.316	44.71
211.535	102.06
211.753	20.14
211.972	114.34
212.191	-4.44
212.409	26.28
212.628	116.39
212.846	-12.63
213.065	46.76
213.283	126.63
213.502	13.99
213.72	1.71
213.938	-6.49
214.157	7.85
214.375	95.91
214.594	63.15
214.812	1.71
215.031	-29.01
215.249	57
215.467	20.14
215.686	48.81
215.904	54.95
216.122	79.53
216.341	153.26
216.559	24.23
216.778	143.02
216.996	161.45
217.214	-10.58
217.432	7.85
217.651	-76.12
217.869	89.77
218.087	18.09
218.306	-41.3
218.524	20.14
218.742	38.57
218.96	52.91
219.179	40.62
219.397	-12.63
219.615	204.46
219.833	138.92
220.051	34.47
220.27	85.67
220.488	102.06
220.706	79.53
220.924	-12.63
221.142	24.23
221.36	77.48
221.578	22.19
221.796	24.23
222.015	34.47
222.233	71.34
222.451	239.27
222.669	24.23
222.887	83.63
223.105	-39.25
223.323	-39.25
223.541	-53.59
223.759	67.24
223.977	1.71
224.195	151.21
224.413	48.81
224.631	16.04
224.849	50.86
225.067	231.08
225.285	24.23
225.503	61.1
225.721	-102.74
225.939	-2.39
226.157	54.95
226.375	247.46
226.592	-53.59
226.81	-20.82
227.028	48.81
227.246	186.02
227.464	102.06
227.682	18.09
227.9	120.49
228.117	-0.34
228.335	13.99
228.553	26.28
228.771	42.67
228.989	61.1
229.206	91.82
229.424	-10.58
229.642	-18.77
229.86	-10.58
230.077	126.63
230.295	42.67
230.513	95.91
230.731	46.76
230.948	173.74
231.166	157.35
231.384	-24.92
231.601	-35.16
231.819	100.01
232.037	46.76
232.254	-47.44
232.472	-10.58
232.689	3.75
232.907	91.82
233.125	-63.83
233.342	-22.87
233.56	18.09
233.777	42.67
233.995	40.62
234.213	3.75
234.43	91.82
234.648	30.38
234.865	50.86
235.083	30.38
235.3	75.43
235.518	91.82
235.735	93.87
235.953	83.63
236.17	7.85
236.388	-18.77
236.605	38.57
236.822	97.96
237.04	100.01
237.257	75.43
237.475	-84.31
237.692	52.91
237.909	63.15
238.127	42.67
238.344	38.57
238.562	89.77
238.779	-26.96
238.996	9.9
239.214	46.76
239.431	28.33
239.648	20.14
239.865	65.19
240.083	40.62
240.3	24.23
240.517	-39.25
240.735	108.2
240.952	147.11
241.169	83.63
241.386	134.82
241.603	48.81
241.821	-45.4
242.038	63.15
242.255	118.44
242.472	7.85
242.689	38.57
242.907	5.8
243.124	-8.53
243.341	1.71
243.558	-55.64
243.775	-24.92
243.992	-43.35
244.209	106.15
244.426	263.85
244.643	67.24
244.86	46.76
245.078	143.02
245.295	44.71
245.512	-33.11
245.729	54.95
245.946	112.3
246.163	54.95
246.38	18.09
246.597	85.67
246.814	91.82
247.031	30.38
247.248	120.49
247.464	79.53
247.681	32.43
247.898	34.47
248.115	110.25
248.332	-47.44
248.549	136.87
248.766	145.06
248.983	134.82
249.2	128.68
249.417	114.34
249.633	-61.78
249.85	134.82
250.067	20.14
250.284	108.2
250.501	102.06
250.717	46.76
250.934	44.71
251.151	34.47
251.368	46.76
251.585	85.67
251.801	75.43
252.018	-18.77
252.235	132.78
252.451	-43.35
252.668	-20.82
252.885	91.82
253.102	57
253.318	11.95
253.535	-35.16
253.752	22.19
253.968	26.28
254.185	-35.16
254.401	18.09
254.618	22.19
254.835	24.23
255.051	151.21
255.268	171.69
255.484	46.76
255.701	-4.44
255.917	85.67
256.134	48.81
256.351	112.3
256.567	20.14
256.784	59.05
257	-67.92
257.217	161.45
257.433	87.72
257.65	-14.68
257.866	93.87
258.082	-45.4
258.299	-55.64
258.515	95.91
258.732	34.47
258.948	-4.44
259.165	63.15
259.381	-55.64
259.597	42.67
259.814	42.67
260.03	-6.49
260.246	-94.55
260.463	138.92
260.679	116.39
260.895	40.62
261.112	5.8
261.328	61.1
261.544	48.81
261.761	206.5
261.977	-24.92
262.193	44.71
262.409	69.29
262.626	87.72
262.842	34.47
263.058	-10.58
263.274	-16.73
263.49	54.95
263.707	147.11
263.923	169.64
264.139	-51.54
264.355	3.75
264.571	231.08
264.787	22.19
265.004	165.54
265.22	93.87
265.436	20.14
265.652	7.85
265.868	87.72
266.084	-26.96
266.3	-41.3
266.516	-67.92
266.732	67.24
266.948	73.39
267.164	18.09
267.38	54.95
267.596	65.19
267.812	177.83
268.028	26.28
268.244	5.8
268.46	67.24
268.676	-53.59
268.892	-18.77
269.108	18.09
269.324	50.86
269.54	-10.58
269.756	151.21
269.972	-55.64
270.188	11.95
270.403	16.04
270.619	102.06
270.835	59.05
271.051	-0.34
271.267	11.95
271.483	-8.53
271.698	91.82
271.914	22.19
272.13	13.99
272.346	32.43
272.562	40.62
272.777	116.39
272.993	73.39
273.209	-18.77
273.425	65.19
273.64	-65.88
273.856	138.92
274.072	-6.49
274.287	59.05
274.503	149.16
274.719	63.15
274.934	28.33
275.15	-92.5
275.366	-22.87
275.581	-16.73
275.797	85.67
276.012	-10.58
276.228	7.85
276.444	71.34
276.659	147.11
276.875	-39.25
277.09	28.33
277.306	26.28
277.521	87.72
277.737	87.72
277.952	69.29
278.168	-12.63
278.383	79.53
278.599	57
278.814	89.77
279.03	34.47
279.245	173.74
279.461	73.39
279.676	112.3
279.892	-2.39
280.107	-16.73
280.322	38.57
280.538	34.47
280.753	-39.25
280.969	20.14
281.184	13.99
281.399	93.87
281.615	38.57
281.83	147.11
282.045	18.09
282.26	-12.63
282.476	11.95
282.691	130.73
282.906	54.95
283.122	102.06
283.337	-35.16
283.552	34.47
283.767	-37.2
283.983	114.34
284.198	67.24
284.413	57
284.628	-53.59
284.843	143.02
285.058	11.95
285.274	-4.44
285.489	32.43
285.704	167.59
285.919	-63.83
286.134	89.77
286.349	5.8
286.564	-41.3
286.779	116.39
286.995	3.75
287.21	-67.92
287.425	40.62
287.64	46.76
287.855	93.87
288.07	-63.83
288.285	171.69
288.5	95.91
288.715	20.14
288.93	-45.4
289.145	-10.58
289.36	89.77
289.575	-4.44
289.79	83.63
290.004	61.1
290.219	81.58
290.434	-10.58
290.649	61.1
290.864	18.09
291.079	-43.35
291.294	79.53
291.509	122.54
291.724	91.82
291.938	-16.73
292.153	61.1
292.368	-78.16
292.583	-12.63
292.798	126.63
293.012	136.87
293.227	-53.59
293.442	-10.58
293.657	75.43
293.871	114.34
294.086	42.67
294.301	126.63
294.516	134.82
294.73	50.86
294.945	-10.58
295.16	-0.34
295.374	73.39
295.589	128.68
295.804	3.75
296.018	95.91
296.233	163.5
296.447	75.43
296.662	73.39
296.877	7.85
297.091	118.44
297.306	-20.82
297.52	32.43
297.735	73.39
297.949	-6.49
298.164	67.24
298.378	67.24
298.593	-63.83
298.807	-29.01
299.022	46.76
299.236	61.1
299.451	7.85
299.665	7.85
299.88	52.91
300.094	54.95
300.309	124.58
300.523	38.57
300.737	36.52
300.952	46.76
301.166	52.91
301.381	-39.25
301.595	-53.59
301.809	59.05
302.024	34.47
302.238	42.67
302.452	104.11
302.667	34.47
302.881	48.81
303.095	134.82
303.309	100.01
303.524	73.39
303.738	-31.06
303.952	-84.31
304.166	24.23
304.381	-127.32
304.595	177.83
304.809	-45.4
305.023	22.19
305.237	-35.16
305.452	59.05
305.666	91.82
305.88	89.77
306.094	83.63
306.308	116.39
306.522	122.54
306.736	136.87
306.95	143.02
307.164	-24.92
307.379	67.24
307.593	140.97
307.807	95.91
308.021	77.48
308.235	102.06
308.449	-69.97
308.663	75.43
308.877	233.13
309.091	26.28
309.305	-0.34
309.519	-67.92
309.733	114.34
309.947	9.9
310.161	18.09
310.374	132.78
310.588	97.96
310.802	-2.39
311.016	-22.87
311.23	83.63
311.444	-2.39
311.658	26.28
311.872	120.49
312.085	73.39
312.299	120.49
312.513	153.26
312.727	87.72
312.941	30.38
313.154	57
313.368	-0.34
313.582	20.14
313.796	28.33
314.009	44.71
314.223	106.15
314.437	44.71
314.651	116.39
314.864	28.33
315.078	57
315.292	-39.25
315.505	24.23
315.719	-8.53
315.933	73.39
316.146	-26.96
316.36	-33.11
316.573	143.02
316.787	63.15
317.001	104.11
317.214	-57.68
317.428	32.43
317.641	-53.59
317.855	-4.44
318.068	-20.82
318.282	52.91
318.495	118.44
318.709	52.91
318.922	-29.01
319.136	136.87
319.349	165.54
319.563	16.04
319.776	75.43
319.99	-74.07
320.203	30.38
320.417	46.76
320.63	132.78
320.843	124.58
321.057	110.25
321.27	-22.87
321.483	85.67
321.697	138.92
321.91	7.85
322.124	11.95
322.337	46.76
322.55	-12.63
322.763	-18.77
322.977	-16.73
323.19	-20.82
323.403	7.85
323.617	87.72
323.83	126.63
324.043	73.39
324.256	124.58
324.469	-31.06
324.683	79.53
324.896	28.33
325.109	79.53
325.322	-41.3
325.535	102.06
325.748	54.95
325.962	-31.06
326.175	89.77
326.388	73.39
326.601	138.92
326.814	120.49
327.027	143.02
327.24	216.74
327.453	-127.32
327.666	67.24
327.879	81.58
328.092	54.95
328.305	65.19
328.518	11.95
328.731	-14.68
328.944	26.28
329.157	73.39
329.37	73.39
329.583	183.98
329.796	102.06
330.009	-65.88
330.222	136.87
330.435	95.91
330.648	69.29
330.861	32.43
331.073	-2.39
331.286	91.82
331.499	59.05
331.712	-14.68
331.925	57
332.138	34.47
332.35	97.96
332.563	-31.06
332.776	153.26
332.989	46.76
333.202	-49.49
333.414	1.71
333.627	128.68
333.84	38.57
334.053	83.63
334.265	-22.87
334.478	-80.21
334.691	-6.49
334.903	52.91
335.116	-80.21
335.329	44.71
335.541	77.48
335.754	169.64
335.966	36.52
336.179	22.19
336.392	57
336.604	26.28
336.817	118.44
337.029	91.82
337.242	48.81
337.454	85.67
337.667	26.28
337.88	118.44
338.092	95.91
338.305	106.15
338.517	-12.63
338.729	128.68
338.942	190.12
339.154	-49.49
339.367	-12.63
339.579	75.43
339.792	-39.25
340.004	81.58
340.217	59.05
340.429	3.75
340.641	5.8
340.854	24.23
341.066	3.75
341.278	155.3
341.491	145.06
341.703	91.82
341.915	-35.16
342.128	120.49
342.34	71.34
342.552	-41.3
342.764	-59.73
342.977	97.96
343.189	87.72
343.401	89.77
343.613	18.09
343.826	11.95
344.038	-0.34
344.25	61.1
344.462	-35.16
344.674	48.81
344.886	79.53
345.099	20.14
345.311	116.39
345.523	91.82
345.735	-12.63
345.947	36.52
346.159	67.24
346.371	5.8
346.583	54.95
346.795	153.26
347.007	59.05
347.219	130.73
347.431	-39.25
347.643	134.82
347.855	3.75
348.067	194.22
348.279	-61.78
348.491	73.39
348.703	59.05
348.915	46.76
349.127	1.71
349.339	52.91
349.551	-26.96
349.763	36.52
349.975	61.1
350.187	87.72
350.399	151.21
350.61	128.68
350.822	20.14
351.034	59.05
351.246	26.28
351.458	48.81
351.669	173.74
351.881	63.15
352.093	108.2
352.305	81.58
352.517	91.82
352.728	87.72
352.94	40.62
353.152	61.1
353.363	5.8
353.575	71.34
353.787	112.3
353.999	77.48
354.21	134.82
354.422	-57.68
354.633	-4.44
354.845	85.67
355.057	36.52
355.268	57
355.48	67.24
355.692	-8.53
355.903	-41.3
356.115	-41.3
356.326	-125.27
356.538	134.82
356.749	73.39
356.961	102.06
357.172	30.38
357.384	-14.68
357.595	206.5
357.807	26.28
358.018	50.86
358.23	48.81
358.441	159.4
358.653	85.67
358.864	-41.3
359.075	34.47
359.287	71.34
359.498	122.54
359.709	-2.39
359.921	-14.68
360.132	75.43
360.344	-47.44
360.555	-90.45
360.766	77.48
360.977	9.9
361.189	106.15
361.4	-33.11
361.611	159.4
361.823	87.72
362.034	89.77
362.245	-0.34
362.456	32.43
362.667	116.39
362.879	-53.59
363.09	54.95
363.301	13.99
363.512	71.34
363.723	36.52
363.935	93.87
364.146	75.43
364.357	-6.49
364.568	114.34
364.779	-63.83
364.99	132.78
365.201	24.23
365.412	136.87
365.623	-86.36
365.834	26.28
366.045	59.05
366.256	79.53
366.467	22.19
366.678	-8.53
366.889	118.44
367.1	44.71
367.311	42.67
367.522	71.34
367.733	5.8
367.944	110.25
368.155	-0.34
368.366	161.45
368.577	145.06
368.788	50.86
368.999	13.99
369.209	71.34
369.42	198.31
369.631	269.99
369.842	116.39
370.053	20.14
370.264	63.15
370.474	-12.63
370.685	67.24
370.896	-98.64
371.107	163.5
371.317	42.67
371.528	48.81
371.739	110.25
371.95	95.91
372.16	63.15
372.371	-55.64
372.582	-8.53
372.792	75.43
373.003	63.15
373.214	24.23
373.424	77.48
373.635	36.52
373.846	75.43
374.056	-6.49
374.267	102.06
374.477	36.52
374.688	75.43
374.898	165.54
375.109	52.91
375.319	16.04
375.53	106.15
375.74	120.49
375.951	65.19
376.161	24.23
376.372	87.72
376.582	-65.88
376.793	110.25
377.003	106.15
377.214	11.95
377.424	42.67
377.635	116.39
377.845	18.09
378.055	149.16
378.266	-78.16
378.476	100.01
378.686	26.28
378.897	89.77
379.107	134.82
379.317	81.58
379.528	63.15
379.738	118.44
379.948	-72.02
380.158	140.97
380.369	40.62
380.579	91.82
380.789	30.38
380.999	46.76
381.21	50.86
381.42	149.16
381.63	11.95
381.84	75.43
382.05	112.3
382.261	165.54
382.471	179.88
382.681	16.04
382.891	226.98
383.101	57
383.311	-24.92
383.521	-53.59
383.731	77.48
383.941	69.29
384.151	89.77
384.361	77.48
384.571	100.01
384.781	108.2
384.991	149.16
385.201	177.83
385.411	140.97
385.621	77.48
385.831	40.62
386.041	50.86
386.251	69.29
386.461	132.78
386.671	11.95
386.881	132.78
387.091	42.67
387.301	102.06
387.511	63.15
387.72	153.26
387.93	97.96
388.14	-4.44
388.35	85.67
388.56	130.73
388.769	112.3
388.979	46.76
389.189	-39.25
389.399	71.34
389.609	116.39
389.818	118.44
390.028	57
390.238	59.05
390.447	-43.35
390.657	-2.39
390.867	-16.73
391.076	-115.03
391.286	153.26
391.496	63.15
391.705	18.09
391.915	130.73
392.125	81.58
392.334	-69.97
392.544	204.46
392.753	22.19
392.963	-45.4
393.172	83.63
393.382	24.23
393.591	149.16
393.801	24.23
394.01	140.97
394.22	95.91
394.429	36.52
394.639	18.09
394.848	93.87
395.058	63.15
395.267	54.95
395.477	128.68
395.686	120.49
395.895	161.45
396.105	210.6
396.314	-6.49
396.524	75.43
396.733	48.81
396.942	67.24
397.152	157.35
397.361	97.96
397.57	52.91
397.78	50.86
397.989	46.76
398.198	237.22
398.407	83.63
398.617	57
398.826	38.57
399.035	32.43
399.244	126.63
399.453	73.39
399.663	75.43
399.872	22.19
400.081	77.48
400.29	97.96
400.499	-43.35
400.708	145.06
400.917	102.06
401.127	-57.68
401.336	63.15
401.545	106.15
401.754	138.92
401.963	102.06
402.172	16.04
402.381	-39.25
402.59	18.09
402.799	75.43
403.008	63.15
403.217	36.52
403.426	173.74
403.635	-84.31
403.844	13.99
404.053	1.71
404.262	46.76
404.471	231.08
404.68	87.72
404.888	59.05
405.097	36.52
405.306	50.86
405.515	93.87
405.724	-0.34
405.933	149.16
406.142	54.95
406.35	102.06
406.559	30.38
406.768	61.1
406.977	177.83
407.185	75.43
407.394	71.34
407.603	-106.84
407.812	145.06
408.02	157.35
408.229	63.15
408.438	-22.87
408.646	-26.96
408.855	132.78
409.064	71.34
409.272	26.28
409.481	54.95
409.69	57
409.898	-112.98
410.107	28.33
410.315	120.49
410.524	22.19
410.733	50.86
410.941	30.38
411.15	24.23
411.358	145.06
411.567	175.78
411.775	130.73
411.984	63.15
412.192	83.63
412.401	28.33
412.609	163.5
412.818	206.5
413.026	71.34
413.234	-4.44
413.443	116.39
413.651	-20.82
413.86	118.44
414.068	198.31
414.276	128.68
414.485	9.9
414.693	128.68
414.901	190.12
415.11	112.3
415.318	-20.82
415.526	65.19
415.734	173.74
415.943	28.33
416.151	110.25
416.359	44.71
416.567	79.53
416.776	112.3
416.984	54.95
417.192	255.65
417.4	1.71
417.608	-98.64
417.817	63.15
418.025	124.58
418.233	153.26
418.441	-4.44
418.649	-18.77
418.857	126.63
419.065	100.01
419.273	-53.59
419.481	104.11
419.689	-20.82
419.897	7.85
420.105	-8.53
420.313	97.96
420.521	251.56
420.729	143.02
420.937	63.15
421.145	-8.53
421.353	114.34
421.561	243.37
421.769	91.82
421.977	30.38
422.185	149.16
422.393	73.39
422.601	138.92
422.809	108.2
423.017	18.09
423.224	102.06
423.432	118.44
423.64	59.05
423.848	102.06
424.056	50.86
424.263	95.91
424.471	112.3
424.679	153.26
424.887	-4.44
425.094	93.87
425.302	73.39
425.51	40.62
425.718	128.68
425.925	112.3
426.133	16.04
426.341	188.07
426.548	91.82
426.756	106.15
426.964	63.15
427.171	38.57
427.379	71.34
427.586	130.73
427.794	106.15
428.001	169.64
428.209	87.72
428.417	224.94
428.624	126.63
428.832	108.2
429.039	87.72
429.247	30.38
429.454	81.58
429.662	183.98
429.869	151.21
430.076	126.63
430.284	159.4
430.491	229.03
430.699	159.4
430.906	255.65
431.114	169.64
431.321	175.78
431.528	153.26
431.736	231.08
431.943	239.27
432.15	208.55
432.358	222.89
432.565	313
432.772	52.91
432.979	265.89
433.187	157.35
433.394	257.7
433.601	226.98
433.808	229.03
434.016	235.18
434.223	243.37
434.43	274.09
434.637	335.53
434.844	347.81
435.052	319.14
435.259	294.57
435.466	327.33
435.673	210.6
435.88	333.48
436.087	423.59
436.294	403.11
436.501	366.25
436.708	304.81
436.915	329.38
437.122	452.26
437.329	335.53
437.537	401.06
437.743	472.74
437.95	513.7
438.157	474.79
438.364	392.87
438.571	493.22
438.778	493.22
438.985	480.93
439.192	550.56
439.399	542.37
439.606	530.08
439.813	593.57
440.02	755.36
440.227	695.97
440.433	698.02
440.64	628.39
440.847	587.43
441.054	683.68
441.261	863.9
441.467	759.46
441.674	730.78
441.881	833.18
442.088	833.18
442.294	923.29
442.501	865.95
442.708	1011.36
442.914	935.58
443.121	1003.16
443.328	960.16
443.534	1050.27
443.741	1035.93
443.948	984.73
444.154	1089.18
444.361	1328.79
444.568	1160.86
444.774	1167
444.981	1148.57
445.187	1373.85
445.394	1418.9
445.6	1353.37
445.807	1556.11
446.013	1494.68
446.22	1488.53
446.426	1605.27
446.633	1754.77
446.839	1926.8
447.046	1812.11
447.252	1910.41
447.459	2016.91
447.665	1914.51
447.871	2137.74
448.078	2268.81
448.284	2295.43
448.491	2363.01
448.697	2483.84
448.903	2606.72
449.11	2557.57
449.316	2602.63
449.522	2895.49
449.728	2879.1
449.935	2993.79
450.141	3010.17
450.347	3370.62
450.553	3266.17
450.76	3225.21
450.966	3681.91
451.172	3690.1
451.378	3802.74
451.584	3798.64
451.791	4001.39
451.997	4124.27
452.203	4253.29
452.409	4554.34
452.615	4615.78
452.821	4634.21
453.027	4638.31
453.233	5121.63
453.44	4959.84
453.646	5342.81
453.852	5492.31
454.058	5844.56
454.264	5889.62
454.47	6331.98
454.676	6434.38
454.882	6747.72
455.088	6520.39
455.294	7026.24
455.5	7194.17
455.705	7845.43
455.911	7800.37
456.117	8050.22
456.323	8437.29
456.529	8316.46
456.735	9078.3
456.941	9258.53
457.147	9596.44
457.352	9993.75
457.558	10147.34
457.764	10765.83
457.97	11218.43
458.176	11560.44
458.381	12092.91
458.587	12408.3
458.793	13102.56
458.999	13020.64
459.204	14671.31
459.41	15162.82
459.616	15021.51
459.821	15742.39
460.027	16694.7
460.233	17198.5
460.438	17401.25
460.644	18154.9
460.85	18374.03
461.055	19174.79
461.261	20004.22
461.466	19711.36
461.672	19975.55
461.878	22343
462.083	22338.9
462.289	22519.12
462.494	23352.65
462.7	24051
462.905	23852.35
463.111	25824.54
463.316	27237.64
463.522	27569.41
463.727	28232.96
463.932	29682.92
464.138	30715.09
464.343	31968.45
464.549	32005.31
464.754	34135.2
464.959	35345.55
465.165	35961.99
465.37	35554.44
465.575	36119.68
465.781	37817.45
465.986	39144.53
466.191	38642.78
466.397	39093.33
466.602	37866.6
466.807	40111.17
467.012	40825.92
467.218	41319.48
467.423	41876.52
467.628	43258.9
467.833	44985.34
468.038	43963.4
468.244	43607.06
468.449	45829.1
468.654	44747.78
468.859	44379.14
469.064	44422.15
469.269	44084.23
469.474	44106.76
469.679	45306.87
469.885	43584.53
470.09	44391.43
470.295	44958.72
470.5	43695.12
470.705	44321.8
470.91	42753.05
471.115	42859.55
471.32	43187.22
471.525	43119.64
471.73	41700.4
471.935	41225.27
472.139	40045.64
472.344	39869.51
472.549	40156.23
472.754	39312.47
472.959	38513.76
473.164	37420.14
473.369	36674.68
473.574	37565.55
473.778	36514.94
473.983	36281.47
474.188	36162.69
474.393	33735.85
474.598	33995.94
474.802	33000.63
475.007	32576.7
475.212	32255.17
475.417	30981.33
475.621	30852.31
475.826	30842.07
476.031	29570.28
476.235	28941.55
476.44	29369.58
476.645	28687.6
476.849	28261.63
477.054	27763.97
477.259	27006.22
477.463	27159.82
477.668	26232.09
477.872	26103.07
478.077	25365.8
478.282	24913.2
478.486	24591.67
478.691	24460.6
478.895	24083.77
479.1	23987.52
479.304	24216.89
479.509	23207.24
479.713	23446.85
479.918	22842.7
480.122	21964.12
480.326	22586.71
480.531	22447.44
480.735	22414.68
480.94	21679.46
481.144	22545.75
481.348	21265.77
481.553	21728.61
481.757	20884.84
481.961	21241.19
482.166	21310.82
482.37	20872.56
482.574	20350.32
482.778	20718.96
482.983	20745.58
483.187	20153.72
483.391	20071.8
483.595	19844.48
483.8	19473.79
484.004	19684.73
484.208	19844.48
484.412	19367.3
484.616	19197.32
484.821	18832.78
485.025	18320.79
485.229	18513.3
485.433	18179.48
485.637	17958.3
485.841	17700.25
486.045	17503.65
486.249	17411.49
486.453	16967.08
486.657	17151.4
486.861	16575.92
487.065	16188.85
487.269	16371.12
487.473	15365.57
487.677	15893.94
487.881	15893.94
488.085	15142.34
488.289	15062.47
488.493	14720.46
488.697	14702.03
488.901	14247.38
489.105	13962.71
489.309	13684.19
489.512	13479.39
489.716	13348.32
489.92	13063.65
490.124	13022.69
490.328	12922.34
490.531	12246.51
490.735	12180.98
490.939	12088.82
491.143	11728.38
491.346	11427.32
491.55	11376.13
491.754	11294.21
491.958	11009.54
492.161	10720.78
492.365	10556.94
492.569	10280.46
492.772	10290.7
492.976	10323.47
493.18	10167.82
493.383	10071.57
493.587	10069.52
493.79	10042.9
493.994	9686.55
494.197	9750.04
494.401	9645.59
494.605	9317.92
494.808	9356.83
495.012	9287.2
495.215	9068.06
495.419	9139.74
495.622	8889.89
495.825	9047.58
496.029	8857.12
496.232	8986.15
496.436	8953.38
496.639	8818.21
496.843	8726.05
497.046	8830.5
497.249	8850.98
497.453	8830.5
497.656	8883.75
497.859	8724.01
498.063	8977.95
498.266	8988.19
498.469	8695.33
498.673	8947.23
498.876	8973.86
499.079	9104.93
499.282	8984.1
499.485	9375.26
499.689	9170.46
499.892	9340.44
500.095	9205.28
500.298	9367.07
500.501	9109.02
500.705	9489.95
500.908	9395.74
501.111	9397.79
501.314	9907.73
501.517	9879.06
501.72	9842.2
501.923	9903.64
502.126	9967.12
502.329	10147.34
502.532	10272.27
502.735	10290.7
502.938	10515.98
503.141	10731.01
503.344	10569.23
503.547	10771.97
503.75	10898.95
503.953	11120.13
504.156	11247.1
504.359	11382.27
504.562	11501.05
504.765	11752.95
504.968	12002.8
505.17	12037.62
505.373	12332.53
505.576	12670.44
505.779	12768.74
505.982	12602.86
506.185	12916.2
506.387	13215.2
506.59	13307.36
506.793	13649.37
506.996	13829.59
507.198	14364.11
507.401	14253.52
507.604	14691.79
507.807	15085
508.009	15230.4
508.212	15574.46
508.415	15900.09
508.617	16231.86
508.82	16557.49
509.022	16422.32
509.225	17001.9
509.428	17282.47
509.63	17708.44
509.833	17964.44
510.035	18503.06
510.238	18740.62
510.44	19293.57
510.643	19672.45
510.845	20057.46
511.048	20397.43
511.25	20753.77
511.453	21228.9
511.655	22486.36
511.858	22560.08
512.06	22687.06
512.262	23358.79
512.465	23639.36
512.667	24513.84
512.87	24810.8
513.072	25099.56
513.274	26281.24
513.477	26563.86
513.679	27084.05
513.881	27860.23
514.084	28519.67
514.286	28845.3
514.488	29398.25
514.69	30289.12
514.893	30495.96
515.095	31237.33
515.297	31943.88
515.499	32367.8
515.701	33279.15
515.904	33940.64
516.106	34563.23
516.308	35249.3
516.51	36062.34
516.712	36361.34
516.914	37278.83
517.116	38114.41
517.318	38376.55
517.52	38999.13
517.722	39758.92
517.925	40678.46
518.127	41391.16
518.329	41933.87
518.531	42282.02
518.733	43318.29
518.935	43721.74
519.136	44504.07
519.338	45292.54
519.54	45788.14
519.742	46517.22
519.944	47037.4
520.146	48452.55
520.348	49017.79
520.55	49048.51
520.752	49726.39
520.954	50656.17
521.155	50213.8
521.357	51243.93
521.559	51778.45
521.761	53107.58
521.963	53115.78
522.164	53373.82
522.366	53564.28
522.568	54371.18
522.77	54446.96
522.971	55565.15
523.173	54852.45
523.375	55372.64
523.576	55933.78
523.778	55737.18
523.98	56347.47
524.181	56810.31
524.383	56261.46
524.584	56730.44
524.786	56898.37
524.988	56744.78
525.189	56875.85
525.391	57256.77
525.592	57561.92
525.794	57434.94
525.995	57406.27
526.197	57027.4
526.398	57140.03
526.6	57283.39
526.801	57201.47
527.003	56902.47
527.204	56771.4
527.406	56978.25
527.607	56406.86
527.808	56308.56
528.01	54905.7
528.211	55518.04
528.412	55784.28
528.614	55231.33
528.815	54934.37
529.016	54647.66
529.218	53818.23
529.419	53433.21
529.62	52931.46
529.822	52626.31
530.023	52095.89
530.224	52001.68
530.425	51248.03
530.626	50351.02
530.828	49910.71
531.029	50322.35
531.23	49056.7
531.431	48247.75
531.632	48200.65
531.833	47780.82
532.035	46668.77
532.236	46730.21
532.437	46171.11
532.638	45526
532.839	45290.49
533.04	44854.27
533.241	43285.53
533.442	43867.15
533.643	42890.27
533.844	42261.54
534.045	42153
534.246	40778.81
534.447	40932.41
534.648	39822.41
534.849	39773.26
535.05	38753.37
535.251	38534.24
535.451	37909.61
535.652	37461.1
535.853	36648.06
536.054	36447.36
536.255	36211.84
536.456	35425.42
536.657	35505.29
536.857	34442.4
537.058	33807.53
537.259	33764.52
537.46	33297.58
537.66	32685.24
537.861	32437.44
538.062	31966.4
538.263	31648.97
538.463	30926.03
538.664	30641.37
538.865	30307.55
539.065	30239.97
539.266	29543.66
539.466	29535.46
539.667	28783.86
539.868	28970.22
540.068	28232.96
540.269	27749.64
540.469	27870.47
540.67	27243.79
540.87	27159.82
541.071	26443.03
541.271	26443.03
541.472	26187.04
541.672	25707.81
541.873	25363.75
542.073	24839.47
542.274	24714.55
542.474	24431.93
542.675	24094.01
542.875	24137.02
543.075	23690.56
543.276	23379.27
543.476	23428.42
543.676	22738.26
543.877	22705.49
544.077	22697.3
544.277	22527.31
544.478	22160.73
544.678	21587.3
544.878	21507.43
545.078	21103.98
545.279	21179.75
545.479	20870.51
545.679	20493.68
545.879	20241.78
546.079	20153.72
546.28	19699.07
546.48	19410.31
546.68	19541.38
546.88	19240.33
547.08	19185.03
547.28	18658.7
547.48	18279.83
547.68	18181.53
547.88	17784.22
548.081	17786.27
548.281	17384.87
548.481	17130.92
548.681	17474.98
548.881	17192.36
549.081	16756.14
549.28	16569.77
549.48	16358.83
549.68	15865.27
549.88	15920.57
550.08	15443.39
550.28	15400.38
550.48	15332.8
550.68	15234.5
550.88	14931.4
551.08	14497.23
551.279	14656.97
551.479	13938.13
551.679	14187.99
551.879	13561.31
552.079	13901.27
552.278	12948.97
552.478	13426.14
552.678	13284.83
552.878	12770.79
553.077	12666.35
553.277	12416.49
553.477	12383.73
553.676	12363.25
553.876	12019.19
554.076	11570.68
554.275	11613.69
554.475	11251.2
554.674	11283.97
554.874	11136.51
555.074	10810.89
555.273	10690.06
555.473	10710.54
555.672	10296.85
555.872	10184.21
556.071	10262.03
556.271	9950.74
556.47	9760.28
556.67	9405.98
556.869	9510.43
557.068	9135.65
557.268	8939.04
557.467	8672.81
557.667	8703.53
557.866	8572.46
558.065	8283.69
558.265	8328.75
558.464	8197.68
558.663	8269.36
558.863	7945.78
559.062	8031.79
559.261	7632.44
559.461	7734.84
559.66	7407.16
559.859	7540.28
560.058	7077.44
560.258	7077.44
560.457	6917.7
560.656	7120.45
560.855	6710.85
561.054	6764.1
561.253	6596.17
561.453	6477.38
561.652	6428.23
561.851	6329.93
562.05	6178.38
562.249	5897.81
562.448	5998.16
562.647	5871.19
562.846	5799.51
563.045	5754.45
563.244	5619.28
563.443	5627.48
563.642	5600.85
563.841	5518.93
564.04	5367.38
564.239	5289.56
564.438	5168.73
564.637	5013.09
564.836	5052
565.035	4965.98
565.234	4980.32
565.432	4738.66
565.631	4875.87
565.83	4580.96
566.029	4453.99
566.228	4638.31
566.427	4658.79
566.625	4212.33
566.824	4443.75
567.023	4388.46
567.222	4159.08
567.42	4124.27
567.619	4060.78
567.818	4109.93
568.016	4284.01
568.215	3915.37
568.414	3882.61
568.612	3847.79
568.811	3872.37
569.01	3716.72
569.208	3608.18
569.407	3645.04
569.605	3583.6
569.804	3569.27
570.002	3581.56
570.201	3393.14
570.4	3327.61
570.598	3241.59
570.797	3229.31
570.995	3182.2
571.193	3274.36
571.392	3245.69
571.59	3055.23
571.789	3061.37
571.987	3053.18
572.186	3135.1
572.384	2864.77
572.582	3006.08
572.781	2985.6
572.979	2670.21
573.177	2778.75
573.376	2836.1
573.574	2764.42
573.772	2729.6
573.971	2596.48
574.169	2528.9
574.367	2446.98
574.565	2459.27
574.763	2481.8
574.962	2446.98
575.16	2438.79
575.358	2334.34
575.556	2225.8
575.754	2274.95
575.952	2166.41
576.151	2174.6
576.349	2238.09
576.547	2074.25
576.745	2209.42
576.943	2119.31
577.141	1978
577.339	1959.56
577.537	1939.09
577.735	1971.85
577.933	2053.77
578.131	1853.07
578.329	2018.96
578.527	1857.17
578.725	1824.4
578.923	1668.75
579.121	1836.69
579.319	1760.91
579.516	1664.66
579.714	1834.64
579.912	1744.53
580.11	1515.16
580.308	1592.98
580.506	1537.68
580.704	1392.28
580.901	1486.48
581.099	1660.56
581.297	1466
581.495	1472.15
581.692	1423
581.89	1556.11
582.088	1447.57
582.285	1429.14
582.483	1369.75
582.681	1302.17
582.878	1300.12
583.076	1414.81
583.274	1300.12
583.471	1427.09
583.669	1220.25
583.866	1216.15
584.064	1232.54
584.262	1097.37
584.459	1259.16
584.657	1373.85
584.854	1240.73
585.052	1191.58
585.249	1169.05
585.447	1033.88
585.644	1033.88
585.841	1242.78
586.039	1078.94
586.236	1236.63
586.434	1076.89
586.631	1033.88
586.828	1040.03
587.026	1060.51
587.223	865.95
587.42	919.2
587.618	1054.36
587.815	1027.74
588.012	1011.36
588.21	927.39
588.407	994.97
588.604	1007.26
588.801	829.09
588.999	994.97
589.196	1015.45
589.393	822.94
589.59	888.48
589.787	882.33
589.984	935.58
590.182	870.05
590.379	745.12
590.576	847.52
590.773	843.42
590.97	757.41
591.167	814.75
591.364	865.95
591.561	788.13
591.758	880.29
591.955	786.08
592.152	804.51
592.349	798.37
592.546	904.86
592.743	794.27
592.94	749.22
593.137	870.05
593.334	849.57
593.531	788.13
593.727	919.2
593.924	777.89
594.121	911
594.318	691.87
594.515	755.36
594.712	962.2
594.908	958.11
595.105	755.36
595.302	843.42
595.499	827.04
595.696	1007.26
595.892	847.52
596.089	974.49
596.286	861.85
596.482	1060.51
596.679	962.2
596.876	949.92
597.072	1040.03
597.269	1029.79
597.466	1015.45
597.662	1060.51
597.859	1103.51
598.055	1181.34
598.252	1275.54
598.448	1144.47
598.645	1412.76
598.841	1363.61
599.038	1468.05
599.234	1535.64
599.431	1484.44
599.627	1478.29
599.824	1529.49
600.02	1572.5
600.217	1635.99
600.413	1808.02
600.609	1851.02
600.806	2129.55
601.002	2000.52
601.198	1877.65
601.395	2182.79
601.591	2221.7
601.787	2326.15
601.984	2387.59
602.18	2322.06
602.376	2395.78
602.572	2469.51
602.769	2733.7
602.965	2637.44
603.161	2899.58
603.357	2977.41
603.553	3255.93
603.75	3077.76
603.946	3368.57
604.142	3325.56
604.338	3612.28
604.534	3536.5
604.73	3729.01
604.926	3772.02
605.122	3948.14
605.318	4050.54
605.514	4195.95
605.71	4341.35
605.906	4482.66
606.102	4562.53
606.298	4767.33
606.494	4949.6
606.69	5070.43
606.886	5168.73
607.082	5330.52
607.278	5385.82
607.474	5543.51
607.67	5666.39
607.866	5776.98
608.062	6075.98
608.257	6307.4
608.453	6305.35
608.649	6805.06
608.845	6766.15
609.041	6872.64
609.236	7167.55
609.432	7292.48
609.628	7577.14
609.824	7583.29
610.019	7749.17
610.215	8136.24
610.411	8525.35
610.606	8611.37
610.802	8721.96
610.998	8965.67
611.193	9207.33
611.389	9428.51
611.584	9827.86
611.78	9893.4
611.976	9965.07
612.171	10522.12
612.367	10911.24
612.562	11068.93
612.758	11283.97
612.953	11374.08
613.149	11853.3
613.344	12207.6
613.539	12565.99
613.735	12873.19
613.93	13342.18
614.126	13508.06
614.321	14157.27
614.517	14431.69
614.712	14431.69
614.907	14931.4
615.103	15398.34
615.298	15689.15
615.493	16231.86
615.688	16502.19
615.884	17231.27
616.079	17268.13
616.274	18003.35
616.47	18245.01
616.665	18611.6
616.86	19144.07
617.055	19611.01
617.25	19996.03
617.445	20731.25
617.641	20958.57
617.836	21601.63
618.031	21589.35
618.226	22824.27
618.421	23188.81
618.616	23903.55
618.811	24173.88
619.006	24982.83
619.201	25031.98
619.396	25988.38
619.591	25797.92
619.786	27147.53
619.981	27202.83
620.176	28353.79
620.371	28288.25
620.566	29121.77
620.761	29777.12
620.956	30692.57
621.151	30973.14
621.346	31583.43
621.541	31855.81
621.735	33332.4
621.93	32990.39
622.125	33586.35
622.32	33676.46
622.515	35011.73
622.709	35548.3
622.904	36433.02
623.099	36924.54
623.294	37645.42
623.488	37940.33
623.683	38974.55
623.878	38800.47
624.072	39898.19
624.267	40399.94
624.462	41632.82
624.656	41595.95
624.851	42454.05
625.046	42658.85
625.24	43596.82
625.435	44407.81
625.629	44755.97
625.824	45216.76
626.018	45544.44
626.213	45517.81
626.407	46787.55
626.602	46754.79
626.796	47987.66
626.991	48587.72
627.185	48434.12
627.38	48864.19
627.574	49173.44
627.768	49187.77
627.963	49859.51
628.157	49609.65
628.352	49925.04
628.546	49316.79
628.74	50281.39
628.935	49677.24
629.129	50334.63
629.323	49316.79
629.517	49701.81
629.712	49290.17
629.906	49232.83
630.1	47946.7
630.294	47942.61
630.489	47051.74
630.683	47156.19
630.877	45825.01
631.071	45333.49
631.265	44958.72
631.459	43815.95
631.653	43019.29
631.848	42429.48
632.042	41063.48
632.236	40447.04
632.43	39062.61
632.624	37985.38
632.818	37205.11
633.012	36086.92
633.206	35005.59
633.4	33666.22
633.594	32238.78
633.788	31540.43
633.982	30633.18
634.176	29697.25
634.369	27864.32
634.563	27397.38
634.757	26201.37
634.951	25312.55
635.145	24479.03
635.339	23625.03
635.533	22508.88
635.726	21556.58
635.92	20403.57
636.114	19809.66
636.308	19115.4
636.501	18429.33
636.695	17769.88
636.889	16885.16
637.083	16059.83
637.276	15418.82
637.47	14771.66
637.664	14380.5
637.857	13753.82
638.051	13168.1
638.244	12539.37
638.438	11918.84
638.632	11705.85
638.825	11138.56
639.019	10700.3
639.212	10221.07
639.406	9696.79
639.599	9475.61
639.793	9248.29
639.986	8764.96
640.18	8420.91
640.373	8064.56
640.567	7687.73
640.76	7349.82
640.954	7163.45
641.147	6780.48
641.34	6549.06
641.534	6438.47
641.727	6141.52
641.92	6008.4
642.114	5613.14
642.307	5508.69
642.5	5414.49
642.694	5168.73
642.887	4836.96
643.08	4734.56
643.273	4681.32
643.467	4529.77
643.66	4181.61
643.853	4005.49
644.046	3853.94
644.239	3735.15
644.432	3460.73
644.626	3282.55
644.819	3221.11
645.012	3235.45
645.205	3061.37
645.398	3018.36
645.591	2866.81
645.784	2721.41
645.977	2565.76
646.17	2551.43
646.363	2385.54
646.556	2344.58
646.749	2109.07
646.942	2240.14
647.135	2088.59
647.328	2014.86
647.521	1986.19
647.714	1885.84
647.907	1822.35
648.099	1711.76
648.292	1803.92
648.485	1629.84
648.678	1529.49
648.871	1404.57
649.064	1353.37
649.256	1396.37
649.449	1328.79
649.642	1150.62
649.835	1261.21
650.027	1064.6
650.22	1134.23
650.413	1177.24
650.605	1134.23
650.798	1072.79
650.991	992.92
651.183	921.24
651.376	904.86
651.568	908.96
651.761	853.66
651.954	898.72
652.146	800.41
652.339	900.76
652.531	896.67
652.724	605.86
652.916	753.31
653.109	609.95
653.301	761.5
653.494	695.97
653.686	620.19
653.879	626.34
654.071	626.34
654.263	560.8
654.456	568.99
654.648	683.68
654.84	544.42
655.033	495.27
655.225	663.2
655.417	376.48
655.61	663.2
655.802	585.38
655.994	534.18
656.186	452.26
656.379	577.19
656.571	313
656.763	390.82
656.955	386.72
657.148	388.77
657.34	472.74
657.532	460.45
657.724	421.54
657.916	364.2
658.108	394.92
658.3	390.82
658.492	448.16
658.684	233.13
658.876	415.4
659.068	282.28
659.26	200.36
659.452	249.51
659.644	265.89
659.836	491.17
660.028	302.76
660.22	298.66
660.412	286.37
660.604	243.37
660.796	276.13
660.988	380.58
661.18	288.42
661.372	333.48
661.563	339.62
661.755	259.75
661.947	253.61
662.139	272.04
662.331	159.4
662.522	188.07
662.714	153.26
662.906	306.85
663.097	294.57
663.289	179.88
663.481	104.11
663.673	204.46
663.864	194.22
664.056	261.8
664.247	95.91
664.439	237.22
664.631	210.6
664.822	249.51
665.014	173.74
665.205	175.78
665.397	155.3
665.588	190.12
665.78	188.07
665.971	222.89
666.163	143.02
666.354	112.3
666.546	132.78
666.737	136.87
666.929	196.26
667.12	165.54
667.311	220.84
667.503	179.88
667.694	210.6
667.885	171.69
668.077	167.59
668.268	112.3
668.459	83.63
668.651	143.02
668.842	171.69
669.033	128.68
669.224	91.82
669.416	327.33
669.607	128.68
669.798	93.87
669.989	300.71
670.18	132.78
670.371	231.08
670.563	89.77
670.754	235.18
670.945	206.5
671.136	224.94
671.327	100.01
671.518	263.85
671.709	317.09
671.9	226.98
672.091	296.61
672.282	198.31
672.473	181.93
672.664	138.92
672.855	71.34
673.046	235.18
673.237	104.11
673.428	100.01
673.619	251.56
673.809	116.39
674	274.09
674.191	251.56
674.382	257.7
674.573	202.41
674.764	138.92
674.954	249.51
675.145	163.5
675.336	140.97
675.527	177.83
675.717	118.44
675.908	140.97
676.099	192.17
676.289	278.18
676.48	63.15
676.671	149.16
676.861	202.41
677.052	206.5
677.243	140.97
677.433	247.46
677.624	294.57
677.814	196.26
678.005	194.22
678.195	343.72
678.386	149.16
678.576	143.02
678.767	118.44
678.957	210.6
679.148	253.61
679.338	288.42
679.529	327.33
679.719	220.84
679.909	370.34
680.1	257.7
680.29	280.23
680.481	145.06
680.671	302.76
680.861	229.03
681.052	245.41
681.242	190.12
681.432	269.99
681.622	229.03
681.813	169.64
682.003	278.18
682.193	214.7
682.383	272.04
682.573	245.41
682.764	284.33
682.954	282.28
683.144	370.34
683.334	261.8
683.524	263.85
683.714	337.57
683.904	233.13
684.094	269.99
684.284	265.89
684.474	376.48
684.664	329.38
684.854	325.29
685.044	249.51
685.234	255.65
685.424	296.61
685.614	233.13
685.804	448.16
685.994	349.86
686.184	286.37
686.374	231.08
686.564	298.66
686.753	251.56
686.943	85.67
687.133	192.17
687.323	243.37
687.513	272.04
687.702	167.59
687.892	229.03
688.082	399.01
688.272	296.61
688.461	286.37
688.651	362.15
688.841	220.84
689.03	222.89
689.22	202.41
689.41	265.89
689.599	196.26
689.789	239.27
689.979	362.15
690.168	331.43
690.358	290.47
690.547	302.76
690.737	286.37
690.926	253.61
691.116	280.23
691.305	310.95
691.495	265.89
691.684	235.18
691.874	222.89
692.063	190.12
692.252	356.01
692.442	296.61
692.631	208.55
692.82	233.13
693.01	210.6
693.199	333.48
693.388	257.7
693.578	175.78
693.767	222.89
693.956	265.89
694.146	226.98
694.335	306.85
694.524	272.04
694.713	261.8
694.902	179.88
695.092	169.64
695.281	317.09
695.47	255.65
695.659	171.69
695.848	245.41
696.037	196.26
696.226	233.13
696.415	216.74
696.604	317.09
696.793	282.28
696.982	183.98
697.171	374.44
697.36	153.26
697.549	224.94
697.738	157.35
697.927	124.58
698.116	173.74
698.305	267.94
698.494	249.51
698.683	220.84
698.872	439.97
699.061	214.7
699.25	198.31
699.438	310.95
699.627	251.56
699.816	323.24
700.005	104.11
700.193	161.45
700.382	267.94
700.571	267.94
700.76	163.5
700.948	335.53
701.137	292.52
701.326	269.99
701.514	128.68
701.703	247.46
701.892	298.66
702.08	356.01
702.269	210.6
702.457	208.55
702.646	243.37
702.834	177.83
703.023	241.32
703.212	265.89
703.4	249.51
703.589	190.12
703.777	149.16
703.965	167.59
704.154	165.54
704.342	102.06
704.531	167.59
704.719	179.88
704.907	292.52
705.096	204.46
705.284	136.87
705.472	257.7
705.661	257.7
705.849	251.56
706.037	235.18
706.226	241.32
706.414	247.46
706.602	163.5
706.79	218.79
706.979	183.98
707.167	245.41
707.355	112.3
707.543	222.89
707.731	321.19
707.919	325.29
708.107	190.12
708.296	239.27
708.484	95.91
708.672	237.22
708.86	298.66
709.048	186.02
709.236	216.74
709.424	173.74
709.612	265.89
709.8	132.78
709.988	183.98
710.176	294.57
710.364	245.41
710.551	235.18
710.739	169.64
710.927	126.63
711.115	253.61
711.303	313
711.491	220.84
711.679	200.36
711.866	304.81
712.054	114.34
712.242	267.94
712.43	294.57
712.617	106.15
712.805	302.76
712.993	198.31
713.181	171.69
713.368	280.23
713.556	169.64
713.744	194.22
713.931	396.96
714.119	274.09
714.306	108.2
714.494	100.01
714.682	226.98
714.869	120.49
715.057	216.74
715.244	126.63
715.432	222.89
715.619	122.54
715.807	288.42
715.994	155.3
716.182	253.61
716.369	331.43
716.556	308.9
716.744	159.4
716.931	143.02
717.119	263.85
717.306	247.46
717.493	274.09
717.681	220.84
717.868	167.59
718.055	245.41
718.242	222.89
718.43	284.33
718.617	349.86
718.804	237.22
718.991	335.53
719.179	306.85
719.366	345.77
719.553	214.7
719.74	267.94
719.927	253.61
720.114	362.15
720.301	155.3
720.488	177.83
720.676	155.3
720.863	331.43
721.05	345.77
721.237	202.41
721.424	278.18
721.611	259.75
721.798	190.12
721.985	241.32
722.172	241.32
722.358	222.89
722.545	372.39
722.732	321.19
722.919	413.35
723.106	378.53
723.293	253.61
723.48	239.27
723.667	204.46
723.853	319.14
724.04	241.32
724.227	317.09
724.414	290.47
724.6	222.89
724.787	376.48
724.974	413.35
725.161	226.98
725.347	247.46
725.534	358.05
725.72	308.9
725.907	290.47
726.094	347.81
726.28	177.83
726.467	292.52
726.653	253.61
726.84	313
727.027	433.83
727.213	263.85
727.4	353.96
727.586	306.85
727.773	206.5
727.959	296.61
728.145	267.94
728.332	366.25
728.518	198.31
728.705	347.81
728.891	278.18
729.077	306.85
729.264	177.83
729.45	226.98
729.636	380.58
729.823	247.46
730.009	335.53
730.195	276.13
730.382	302.76
730.568	198.31
730.754	288.42
730.94	190.12
731.126	286.37
731.313	364.2
731.499	253.61
731.685	282.28
731.871	382.63
732.057	358.05
732.243	292.52
732.429	253.61
732.615	452.26
732.801	288.42
732.987	325.29
733.173	356.01
733.359	239.27
733.545	325.29
733.731	327.33
733.917	349.86
734.103	331.43
734.289	358.05
734.475	241.32
734.661	419.49
734.847	239.27
735.033	296.61
735.219	265.89
735.404	327.33
735.59	265.89
735.776	247.46
735.962	376.48
736.148	366.25
736.333	360.1
736.519	323.24
736.705	276.13
736.89	304.81
737.076	353.96
737.262	290.47
737.447	343.72
737.633	282.28
737.819	353.96
738.004	177.83
738.19	288.42
738.375	341.67
738.561	349.86
738.747	317.09
738.932	243.37
739.118	511.65
739.303	411.3
739.489	274.09
739.674	218.79
739.859	181.93
740.045	317.09
740.23	286.37
740.416	132.78
740.601	298.66
740.786	331.43
740.972	351.91
741.157	337.57
741.342	261.8
741.528	165.54
741.713	415.4
741.898	286.37
742.084	243.37
742.269	224.94
742.454	329.38
742.639	317.09
742.824	331.43
743.01	388.77
743.195	419.49
743.38	288.42
743.565	374.44
743.75	247.46
743.935	300.71
744.12	446.12
744.305	208.55
744.49	280.23
744.675	218.79
744.86	261.8
745.045	188.07
745.23	286.37
745.415	276.13
745.6	358.05
745.785	284.33
745.97	315.05
746.155	296.61
746.34	419.49
746.525	216.74
746.71	370.34
746.895	304.81
747.079	259.75
747.264	212.65
747.449	341.67
747.634	272.04
747.819	280.23
748.003	251.56
748.188	239.27
748.373	239.27
748.557	247.46
748.742	302.76
748.927	257.7
749.111	278.18
749.296	280.23
749.481	272.04
749.665	286.37
749.85	163.5
750.034	257.7
750.219	292.52
750.404	206.5
750.588	265.89
750.773	218.79
750.957	216.74
751.141	212.65
751.326	329.38
751.51	136.87
751.695	120.49
751.879	231.08
752.064	302.76
752.248	161.45
752.432	333.48
752.617	212.65
752.801	339.62
752.985	145.06
753.17	267.94
753.354	267.94
753.538	188.07
753.722	169.64
753.907	147.11
754.091	183.98
754.275	216.74
754.459	59.05
754.643	194.22
754.828	220.84
755.012	247.46
755.196	132.78
755.38	190.12
755.564	163.5
755.748	194.22
755.932	286.37
756.116	222.89
756.3	259.75
756.484	120.49
756.668	288.42
756.852	134.82
757.036	151.21
757.22	155.3
757.404	67.24
757.588	122.54
757.772	145.06
757.956	183.98
758.14	317.09
758.323	116.39
758.507	198.31
758.691	102.06
758.875	190.12
759.059	247.46
759.242	122.54
759.426	151.21
759.61	194.22
759.794	71.34
759.977	165.54
760.161	388.77
760.345	239.27
760.528	245.41
760.712	108.2
760.895	169.64
761.079	143.02
761.263	95.91
761.446	79.53
761.63	89.77
761.813	157.35
761.997	69.29
762.18	169.64
762.364	208.55
762.547	-24.92
762.731	159.4
762.914	114.34
763.098	149.16
763.281	87.72
763.464	32.43
763.648	110.25
763.831	83.63
764.015	28.33
764.198	198.31
764.381	140.97
764.564	79.53
764.748	112.3
764.931	167.59
765.114	81.58
765.297	145.06
765.481	46.76
765.664	77.48
765.847	38.57
766.03	181.93
766.213	-6.49
766.397	155.3
766.58	24.23
766.763	183.98
766.946	11.95
767.129	83.63
767.312	30.38
767.495	136.87
767.678	44.71
767.861	173.74
768.044	165.54
768.227	116.39
768.41	95.91
768.593	30.38
768.776	167.59
768.959	40.62
769.142	177.83
769.324	100.01
769.507	57
769.69	104.11
769.873	110.25
770.056	343.72
770.239	75.43
770.421	175.78
770.604	136.87
770.787	63.15
770.97	106.15
771.152	120.49
771.335	114.34
771.518	69.29
771.7	163.5
771.883	239.27
772.066	102.06
772.248	181.93
772.431	224.94
772.613	153.26
772.796	89.77
772.978	61.1
773.161	175.78
773.343	36.52
773.526	26.28
773.708	-22.87
773.891	30.38
774.073	67.24
774.256	65.19
774.438	171.69
774.621	77.48
774.803	104.11
774.985	38.57
775.168	77.48
775.35	54.95
775.532	63.15
775.715	28.33
775.897	75.43
776.079	3.75
776.261	100.01
776.444	7.85
776.626	57
776.808	102.06
776.99	-0.34
777.173	79.53
777.355	13.99
777.537	89.77
777.719	112.3
777.901	9.9
778.083	5.8
778.265	-22.87
778.447	136.87
778.629	24.23
778.811	36.52
778.993	46.76
779.175	89.77
779.357	52.91
779.539	-45.4
779.721	46.76
779.903	89.77
780.085	22.19
780.267	85.67
780.449	52.91
780.631	155.3
780.812	153.26
780.994	77.48
781.176	42.67
781.358	69.29
781.54	24.23
781.721	52.91
781.903	128.68
782.085	-49.49
782.267	157.35
782.448	-18.77
782.63	61.1
782.812	7.85
782.993	67.24
783.175	48.81
783.357	61.1
783.538	13.99
783.72	-10.58
783.901	63.15
784.083	44.71
784.264	138.92
784.446	-49.49
784.627	-41.3
784.809	116.39
784.99	28.33
785.172	91.82
785.353	1.71
785.535	54.95
785.716	28.33
785.897	-26.96
786.079	13.99
786.26	67.24
786.441	140.97
786.623	-39.25
786.804	63.15
786.985	-8.53
787.167	122.54
787.348	-31.06
787.529	65.19
787.71	128.68
787.891	130.73
788.073	18.09
788.254	5.8
788.435	93.87
788.616	-20.82
788.797	11.95
788.978	-18.77
789.159	57
789.34	44.71
789.522	-14.68
789.703	-18.77
789.884	106.15
790.065	77.48
790.246	194.22
790.427	7.85
790.607	198.31
790.788	63.15
790.969	20.14
791.15	46.76
791.331	73.39
791.512	63.15
791.693	34.47
791.874	73.39
792.054	134.82
792.235	36.52
792.416	7.85
792.597	-22.87
792.778	93.87
792.958	-26.96
793.139	89.77
793.32	69.29
793.5	-61.78
793.681	61.1
793.862	85.67
794.042	26.28
794.223	-18.77
794.404	52.91
794.584	-123.22
794.765	36.52
794.945	-92.5
795.126	57
795.306	122.54
795.487	13.99
795.667	20.14
795.848	81.58
796.028	-39.25
796.209	16.04
796.389	40.62
796.57	-10.58
796.75	-51.54
796.93	-4.44
797.111	-69.97
797.291	-26.96
797.471	97.96
797.652	20.14
797.832	-69.97
798.012	30.38
798.192	-31.06
798.373	-12.63
798.553	7.85
798.733	24.23
798.913	-63.83
799.093	28.33
799.274	30.38
799.454	73.39
799.634	63.15
799.814	120.49
799.994	124.58
800.174	30.38
800.354	57
800.534	-82.26
800.714	124.58
800.894	-92.5
801.074	-10.58
801.254	26.28
801.434	163.5
801.614	-29.01
801.794	-22.87
801.974	1926.8
802.154	40.62
802.334	126.63
802.514	-84.31
802.693	44.71
802.873	-31.06
803.053	93.87
803.233	-0.34
803.413	13.99
803.592	-22.87
803.772	-65.88
803.952	44.71
804.131	-67.92
804.311	22.19
804.491	67.24
804.67	-43.35
804.85	-112.98
805.03	130.73
805.209	108.2
805.389	-35.16
805.568	9.9
805.748	9.9
805.928	-22.87
806.107	18.09
806.287	67.24
806.466	91.82
806.646	32.43
806.825	-14.68
807.004	-43.35
807.184	63.15
807.363	48.81
807.543	13.99
807.722	-43.35
807.901	-10.58
808.081	110.25
808.26	-162.13
808.439	5.8
808.619	-12.63
808.798	50.86
808.977	30.38
809.156	93.87
809.336	50.86
809.515	30.38
809.694	-80.21
809.873	-8.53
810.052	54.95
810.231	91.82
810.411	5.8
810.59	102.06
810.769	-8.53
810.948	38.57
811.127	-63.83
811.306	59.05
811.485	-31.06
811.664	167.59
811.843	-63.83
812.022	118.44
812.201	5.8
812.38	7.85
812.559	-57.68
812.737	59.05
812.916	-78.16
813.095	-76.12
813.274	34.47
813.453	-22.87
813.632	71.34
813.811	18.09
813.989	-78.16
814.168	50.86
814.347	-35.16
814.526	-2.39
814.704	71.34
814.883	155.3
815.062	-59.73
815.24	59.05
815.419	-59.73
815.598	20.14
815.776	-147.8
815.955	5.8
816.133	-117.08
816.312	-29.01
816.49	-51.54
816.669	-43.35
816.847	-51.54
817.026	85.67
817.204	32.43
817.383	22.19
817.561	-4.44
817.74	5.8
817.918	7.85
818.097	-14.68
818.275	-10.58
818.453	-8.53
818.632	36.52
818.81	-84.31
818.988	-35.16
819.167	-22.87
819.345	81.58
819.523	-29.01
819.701	42.67
819.879	100.01
820.058	-14.68
820.236	-31.06
820.414	63.15
820.592	-55.64
820.77	-14.68
820.948	34.47
821.127	-55.64
821.305	100.01
821.483	-8.53
821.661	52.91
821.839	46.76
822.017	11.95
822.195	-14.68
822.373	132.78
822.551	-14.68
822.729	-10.58
822.907	-78.16
823.085	100.01
823.262	34.47
823.44	-33.11
823.618	-10.58
823.796	38.57
823.974	-53.59
824.152	-57.68
824.329	1.71
824.507	11.95
824.685	46.76
824.863	-39.25
825.04	-2.39
825.218	95.91
825.396	-0.34
825.574	-6.49
825.751	13.99
825.929	36.52
826.107	-112.98
826.284	32.43
826.462	-6.49
826.639	-72.02
826.817	-78.16
826.994	-35.16
827.172	-88.4
827.349	132.78
827.527	-29.01
827.704	5.8
827.882	42.67
828.059	26.28
828.237	-0.34
828.414	30.38
828.591	-127.32
828.769	-33.11
828.946	-18.77
829.124	143.02
829.301	95.91
829.478	-14.68
829.655	18.09
829.833	-61.78
830.01	-127.32
830.187	46.76
830.364	5.8
830.542	18.09
830.719	114.34
830.896	26.28
831.073	85.67
831.25	52.91
831.427	38.57
831.604	63.15
831.782	-84.31
831.959	1.71
832.136	20.14
832.313	22.19
832.49	-22.87
832.667	104.11
832.844	30.38
833.021	102.06
833.198	-26.96
833.374	-20.82
833.551	26.28
833.728	7.85
833.905	79.53
834.082	-69.97
834.259	77.48
834.436	93.87
834.612	-74.07
834.789	128.68
834.966	69.29
835.143	-51.54
835.319	-121.17
835.496	138.92
835.673	-76.12
835.85	26.28
836.026	87.72
836.203	30.38
836.38	-0.34
836.556	5.8
836.733	-43.35
836.909	186.02
837.086	-4.44
837.262	-90.45
837.439	42.67
837.616	67.24
837.792	16.04
837.968	7.85
838.145	-100.69
838.321	20.14
838.498	16.04
838.674	-10.58
838.851	-39.25
839.027	-43.35
839.203	26.28
839.38	30.38
839.556	-47.44
839.732	65.19
839.909	-47.44
840.085	81.58
840.261	-51.54
840.437	-84.31
840.614	5.8
840.79	67.24
840.966	18.09
841.142	61.1
841.318	-41.3
841.494	42.67
841.671	89.77
841.847	-24.92
842.023	-26.96
842.199	-24.92
842.375	122.54
842.551	-104.79
842.727	-110.93
842.903	95.91
843.079	-96.6
843.255	9.9
843.431	-29.01
843.607	83.63
843.783	-184.66
843.959	9.9
844.134	-104.79
844.31	122.54
844.486	30.38
844.662	-100.69
844.838	-20.82
845.013	79.53
845.189	9.9
845.365	32.43
845.541	-18.77
845.716	52.91
845.892	24.23
846.068	-47.44
846.244	-106.84
846.419	24.23
846.595	-49.49
846.77	-22.87
846.946	-0.34
847.122	-110.93
847.297	-69.97
847.473	130.73
847.648	-127.32
847.824	20.14
847.999	-14.68
848.175	-29.01
848.35	95.91
848.526	91.82
848.701	77.48
848.876	102.06
849.052	108.2
849.227	-26.96
849.403	-4.44
849.578	30.38
849.753	32.43
849.929	65.19
850.104	-108.88
850.279	36.52
850.454	79.53
850.63	50.86
850.805	-4.44
850.98	11.95
851.155	-59.73
851.33	-0.34
851.505	-86.36
851.681	61.1
851.856	-74.07
852.031	91.82
852.206	-4.44
852.381	-80.21
852.556	-35.16
852.731	-65.88
852.906	50.86
853.081	-35.16
853.256	61.1
853.431	-26.96
853.606	52.91
853.781	-45.4
853.956	-43.35
854.131	-8.53
854.305	-59.73
854.48	3.75
854.655	-72.02
854.83	63.15
855.005	-2.39
855.18	22.19
855.354	-10.58
855.529	-8.53
855.704	-4.44
855.879	16.04
856.053	-149.84
856.228	44.71
856.403	-31.06
856.577	48.81
856.752	-104.79
856.926	-41.3
857.101	13.99
857.276	-39.25
857.45	18.09
857.625	7.85
857.799	-41.3
857.974	-18.77
858.148	-115.03
858.323	22.19
858.497	5.8
858.672	-72.02
858.846	-0.34
859.02	42.67
859.195	-84.31
859.369	28.33
859.543	36.52
859.718	-53.59
859.892	-55.64
860.066	42.67
860.241	-80.21
860.415	22.19
860.589	26.28
860.763	61.1
860.938	-49.49
861.112	13.99
861.286	26.28
861.46	-69.97
861.634	-20.82
861.808	112.3
861.982	-37.2
862.157	-55.64
862.331	-22.87
862.505	-59.73
862.679	-96.6
862.853	-47.44
863.027	-76.12
863.201	59.05
863.375	26.28
863.549	-26.96
863.722	-0.34
863.896	85.67
864.07	-53.59
864.244	-14.68
864.418	71.34
864.592	71.34
864.766	-37.2
864.939	-84.31
865.113	-16.73
865.287	93.87
865.461	-55.64
865.634	-22.87
865.808	-22.87
865.982	-106.84
866.156	-41.3
866.329	-98.64
866.503	-18.77
866.676	7.85
866.85	69.29
867.024	-33.11
867.197	75.43
867.371	52.91
867.544	-63.83
867.718	-82.26
867.891	59.05
868.065	-43.35
868.238	-22.87
868.412	102.06
868.585	22.19
868.759	-22.87
868.932	-63.83
869.105	-127.32
869.279	-2.39
869.452	-59.73
869.625	48.81
869.799	-39.25
869.972	-106.84
870.145	-90.45
870.319	59.05
870.492	-72.02
870.665	-14.68
870.838	-18.77
871.011	-207.19
871.185	-59.73
871.358	1.71
871.531	40.62
871.704	-2.39
871.877	-20.82
872.05	-47.44
872.223	-74.07
872.396	83.63
872.569	7.85
872.742	-80.21
872.915	22.19
873.088	-26.96
873.261	18.09
873.434	110.25
873.607	-78.16
873.78	40.62
873.953	-164.18
874.126	28.33
874.299	32.43
874.471	-37.2
874.644	-49.49
874.817	40.62
874.99	145.06
875.163	-43.35
875.335	16.04
875.508	-72.02
875.681	120.49
875.853	30.38
876.026	18.09
876.199	48.81
876.371	1.71
876.544	-100.69
876.717	-0.34
876.889	1.71
877.062	83.63
877.234	-117.08
877.407	-90.45
877.579	46.76
877.752	-31.06
877.924	181.93
878.097	38.57
878.269	48.81
878.442	-35.16
878.614	57
878.786	-20.82
878.959	-35.16
879.131	3.75
879.303	-55.64
879.476	-53.59
879.648	69.29
879.82	136.87
879.993	-35.16
880.165	-33.11
880.337	-78.16
880.509	20.14
880.681	-69.97
880.854	-26.96
881.026	91.82
881.198	165.54
881.37	-49.49
881.542	-41.3
881.714	-47.44
881.886	-49.49
882.058	24.23
882.23	1.71
882.402	5.8
882.574	57
882.746	52.91
882.918	173.74
883.09	-10.58
883.262	7.85
883.434	-61.78
883.606	-39.25
883.778	46.76
883.95	186.02
884.122	54.95
884.293	79.53
884.465	100.01
884.637	38.57
884.809	5.8
884.98	16.04
885.152	48.81
885.324	83.63
885.496	-57.68
885.667	-26.96
885.839	13.99
886.011	126.63
886.182	102.06
886.354	134.82
886.525	3.75
886.697	18.09
886.869	-108.88
887.04	-78.16
887.212	63.15
887.383	147.11
887.555	-31.06
887.726	-4.44
887.897	-33.11
888.069	-51.54
888.24	73.39
888.412	-6.49
888.583	-12.63
888.754	22.19
888.926	-94.55
889.097	40.62
889.268	-47.44
889.44	3.75
889.611	-51.54
889.782	-33.11
889.953	-92.5
890.125	52.91
890.296	-49.49
890.467	7.85
890.638	-35.16
890.809	-18.77
890.98	-10.58
891.151	13.99
891.323	69.29
891.494	13.99
891.665	-35.16
891.836	26.28
892.007	-12.63
892.178	16.04
892.349	18.09
892.52	-33.11
892.691	-10.58
892.862	-8.53
893.032	-47.44
893.203	-35.16
893.374	5.8
893.545	65.19
893.716	-69.97
893.887	61.1
894.057	-4.44
894.228	-51.54
894.399	-41.3
894.57	54.95
894.74	-49.49
894.911	-84.31
895.082	44.71
895.253	-49.49
895.423	-0.34
895.594	9.9
895.764	108.2
895.935	-94.55
896.106	26.28
896.276	-18.77
896.447	46.76
896.617	-76.12
896.788	-33.11
896.958	-6.49
897.129	-2.39
897.299	-59.73
897.47	132.78
897.64	104.11
897.81	-12.63
897.981	28.33
898.151	30.38
898.322	40.62
898.492	11.95
898.662	-72.02
898.832	-49.49
899.003	-63.83
899.173	-8.53
899.343	-22.87
899.513	-96.6
