Data from USB4F104151__102__10-45-25-863.txt Node

Date: Wed Feb 26 10:45:25 EST 2025
User: louis
Spectrometer: USB4F10415
Trigger mode: 4
Integration Time (sec): 1.000000E-1
Scans to average: 1
Electric dark correction enabled: true
Nonlinearity correction enabled: false
Boxcar width: 0
XAxis mode: Wavelengths
Number of Pixels in Spectrum: 3648
>>>>>Begin Spectral Data<<<<<
178.204	-364.54
178.424	-364.54
178.644	-364.54
178.864	-409.59
179.084	-399.35
179.304	-22.53
179.524	-65.53
179.744	57.34
179.964	75.77
180.184	-12.29
180.404	55.3
180.624	-26.62
180.844	-51.2
181.064	-45.06
181.283	38.91
181.503	-55.3
181.723	51.2
181.943	-81.92
182.163	223.23
182.383	-12.29
182.602	67.58
182.822	192.51
183.042	108.54
183.262	-53.25
183.482	0
183.701	53.25
183.921	-16.38
184.141	-36.86
184.361	106.49
184.58	55.3
184.8	40.96
185.02	-43.01
185.239	28.67
185.459	47.1
185.679	106.49
185.898	-98.3
186.118	-40.96
186.338	34.82
186.557	86.01
186.777	-24.58
186.997	-2.05
187.216	73.73
187.436	262.14
187.655	151.55
187.875	67.58
188.095	34.82
188.314	176.13
188.534	96.25
188.753	18.43
188.973	83.97
189.192	178.17
189.412	114.69
189.631	118.78
189.851	75.77
190.07	217.08
190.29	-88.06
190.509	24.58
190.729	32.77
190.948	174.08
191.168	247.8
191.387	61.44
191.607	-24.58
191.826	88.06
192.045	-71.68
192.265	-4.1
192.484	79.87
192.704	2.05
192.923	-20.48
193.142	200.7
193.362	112.64
193.581	116.73
193.8	147.45
194.02	57.34
194.239	51.2
194.458	53.25
194.678	-8.19
194.897	32.77
195.116	-51.2
195.335	63.49
195.555	45.06
195.774	-4.1
195.993	139.26
196.212	10.24
196.432	94.21
196.651	47.1
196.87	47.1
197.089	331.77
197.308	51.2
197.528	108.54
197.747	10.24
197.966	65.54
198.185	143.36
198.404	40.96
198.623	61.44
198.842	63.49
199.062	124.93
199.281	153.6
199.5	24.58
199.719	49.15
199.938	79.87
200.157	135.17
200.376	57.34
200.595	116.73
200.814	63.49
201.033	24.58
201.252	178.17
201.471	65.54
201.69	88.06
201.909	75.77
202.128	45.06
202.347	36.86
202.566	34.82
202.785	-45.06
203.004	12.29
203.223	258.04
203.442	86.01
203.661	10.24
203.879	79.87
204.098	143.36
204.317	-20.48
204.536	126.97
204.755	135.17
204.974	77.82
205.193	77.82
205.411	172.03
205.63	131.07
205.849	86.01
206.068	69.63
206.287	20.48
206.505	172.03
206.724	-73.73
206.943	12.29
207.162	24.58
207.381	61.44
207.599	8.19
207.818	30.72
208.037	-32.77
208.255	90.11
208.474	108.54
208.693	75.77
208.911	51.2
209.13	120.83
209.349	92.16
209.567	90.11
209.786	194.56
210.005	124.93
210.223	47.1
210.442	-100.35
210.661	-22.53
210.879	26.62
211.098	90.11
211.316	81.92
211.535	65.54
211.753	-12.29
211.972	51.2
212.191	83.97
212.409	34.82
212.628	215.04
212.846	14.34
213.065	51.2
213.283	137.21
213.502	34.82
213.72	36.86
213.938	96.25
214.157	4.1
214.375	34.82
214.594	57.34
214.812	120.83
215.031	47.1
215.249	36.86
215.467	4.1
215.686	-10.24
215.904	118.78
216.122	49.15
216.341	112.64
216.559	47.1
216.778	114.69
216.996	141.31
217.214	28.67
217.432	57.34
217.651	-57.34
217.869	102.4
218.087	59.39
218.306	75.77
218.524	49.15
218.742	36.86
218.96	79.87
219.179	-28.67
219.397	43.01
219.615	317.44
219.833	16.38
220.051	-67.58
220.27	114.69
220.488	139.26
220.706	51.2
220.924	34.82
221.142	-45.06
221.36	135.17
221.578	69.63
221.796	-36.86
222.015	55.3
222.233	108.54
222.451	145.41
222.669	16.38
222.887	47.1
223.105	14.34
223.323	2.05
223.541	-90.11
223.759	38.91
223.977	102.4
224.195	81.92
224.413	114.69
224.631	71.68
224.849	40.96
225.067	165.89
225.285	-22.53
225.503	34.82
225.721	-30.72
225.939	83.97
226.157	47.1
226.375	194.56
226.592	45.06
226.81	12.29
227.028	104.45
227.246	180.22
227.464	2.05
227.682	98.3
227.9	45.06
228.117	69.63
228.335	120.83
228.553	71.68
228.771	-49.15
228.989	73.73
229.206	208.89
229.424	47.1
229.642	4.1
229.86	32.77
230.077	184.32
230.295	90.11
230.513	153.6
230.731	139.26
230.948	55.3
231.166	126.97
231.384	18.43
231.601	-24.58
231.819	157.69
232.037	2.05
232.254	-26.62
232.472	10.24
232.689	-26.62
232.907	106.49
233.125	-4.1
233.342	-10.24
233.56	-12.29
233.777	90.11
233.995	18.43
234.213	124.93
234.43	65.54
234.648	28.67
234.865	-51.2
235.083	32.77
235.3	10.24
235.518	28.67
235.735	131.07
235.953	34.82
236.17	90.11
236.388	45.06
236.605	86.01
236.822	92.16
237.04	147.45
237.257	-14.34
237.475	6.14
237.692	129.02
237.909	67.58
238.127	36.86
238.344	100.35
238.562	145.41
238.779	-45.06
238.996	10.24
239.214	129.02
239.431	79.87
239.648	63.49
239.865	157.69
240.083	112.64
240.3	-12.29
240.517	16.38
240.735	51.2
240.952	147.45
241.169	36.86
241.386	116.73
241.603	98.3
241.821	-24.58
242.038	110.59
242.255	79.87
242.472	20.48
242.689	67.58
242.907	4.1
243.124	57.34
243.341	2.05
243.558	-61.44
243.775	-45.06
243.992	-16.38
244.209	126.97
244.426	235.52
244.643	114.69
244.86	36.86
245.078	88.06
245.295	106.49
245.512	16.38
245.729	6.14
245.946	51.2
246.163	114.69
246.38	6.14
246.597	71.68
246.814	36.86
247.031	51.2
247.248	67.58
247.464	88.06
247.681	96.25
247.898	65.54
248.115	77.82
248.332	-18.43
248.549	200.7
248.766	110.59
248.983	69.63
249.2	67.58
249.417	102.4
249.633	-10.24
249.85	133.12
250.067	-6.14
250.284	-28.67
250.501	0
250.717	79.87
250.934	-16.38
251.151	20.48
251.368	-45.06
251.585	45.06
251.801	77.82
252.018	-61.44
252.235	90.11
252.451	-8.19
252.668	10.24
252.885	90.11
253.102	83.97
253.318	34.82
253.535	135.17
253.752	26.62
253.968	14.34
254.185	-47.1
254.401	61.44
254.618	90.11
254.835	36.86
255.051	147.45
255.268	159.74
255.484	67.58
255.701	79.87
255.917	40.96
256.134	-4.1
256.351	47.1
256.567	-16.38
256.784	71.68
257	-36.86
257.217	161.79
257.433	169.98
257.65	96.25
257.866	139.26
258.082	-53.25
258.299	28.67
258.515	8.19
258.732	79.87
258.948	-32.77
259.165	90.11
259.381	-10.24
259.597	104.45
259.814	79.87
260.03	57.34
260.246	77.82
260.463	139.26
260.679	71.68
260.895	4.1
261.112	86.01
261.328	81.92
261.544	-6.14
261.761	192.51
261.977	40.96
262.193	-43.01
262.409	153.6
262.626	59.39
262.842	61.44
263.058	-6.14
263.274	102.4
263.49	94.21
263.707	81.92
263.923	86.01
264.139	-79.87
264.355	73.73
264.571	174.08
264.787	75.77
265.004	116.73
265.22	61.44
265.436	40.96
265.652	38.91
265.868	108.54
266.084	38.91
266.3	81.92
266.516	40.96
266.732	45.06
266.948	61.44
267.164	28.67
267.38	90.11
267.596	102.4
267.812	202.75
268.028	28.67
268.244	-24.58
268.46	81.92
268.676	77.82
268.892	2.05
269.108	-32.77
269.324	-55.3
269.54	-81.92
269.756	92.16
269.972	-16.38
270.188	94.21
270.403	0
270.619	-63.49
270.835	114.69
271.051	100.35
271.267	163.84
271.483	-40.96
271.698	149.5
271.914	71.68
272.13	2.05
272.346	-22.53
272.562	110.59
272.777	79.87
272.993	-14.34
273.209	34.82
273.425	73.73
273.64	-38.91
273.856	104.45
274.072	8.19
274.287	22.53
274.503	40.96
274.719	18.43
274.934	-14.34
275.15	-49.15
275.366	28.67
275.581	-2.05
275.797	45.06
276.012	73.73
276.228	40.96
276.444	100.35
276.659	43.01
276.875	24.58
277.09	79.87
277.306	28.67
277.521	112.64
277.737	-18.43
277.952	116.73
278.168	28.67
278.383	67.58
278.599	-6.14
278.814	63.49
279.03	-6.14
279.245	184.32
279.461	30.72
279.676	137.21
279.892	22.53
280.107	-55.3
280.322	-6.14
280.538	79.87
280.753	-65.53
280.969	114.69
281.184	26.62
281.399	118.78
281.615	110.59
281.83	129.02
282.045	-73.73
282.26	-20.48
282.476	81.92
282.691	176.13
282.906	114.69
283.122	65.54
283.337	-22.53
283.552	90.11
283.767	34.82
283.983	102.4
284.198	51.2
284.413	98.3
284.628	-51.2
284.843	34.82
285.058	104.45
285.274	40.96
285.489	18.43
285.704	51.2
285.919	28.67
286.134	-8.19
286.349	38.91
286.564	71.68
286.779	157.69
286.995	-22.53
287.21	20.48
287.425	55.3
287.64	-10.24
287.855	65.54
288.07	-10.24
288.285	126.97
288.5	131.07
288.715	57.34
288.93	32.77
289.145	6.14
289.36	180.22
289.575	98.3
289.79	57.34
290.004	26.62
290.219	116.73
290.434	-22.53
290.649	49.15
290.864	14.34
291.079	65.54
291.294	67.58
291.509	51.2
291.724	133.12
291.938	59.39
292.153	114.69
292.368	61.44
292.583	90.11
292.798	129.02
293.012	38.91
293.227	110.59
293.442	4.1
293.657	92.16
293.871	182.27
294.086	43.01
294.301	194.56
294.516	118.78
294.73	124.93
294.945	-30.72
295.16	28.67
295.374	155.65
295.589	28.67
295.804	8.19
296.018	69.63
296.233	120.83
296.447	12.29
296.662	-43.01
296.877	139.26
297.091	94.21
297.306	8.19
297.52	55.3
297.735	139.26
297.949	88.06
298.164	92.16
298.378	73.73
298.593	6.14
298.807	-22.53
299.022	96.25
299.236	120.83
299.451	-86.01
299.665	30.72
299.88	47.1
300.094	71.68
300.309	61.44
300.523	0
300.737	-24.58
300.952	65.54
301.166	36.86
301.381	-14.34
301.595	16.38
301.809	10.24
302.024	10.24
302.238	-73.73
302.452	112.64
302.667	16.38
302.881	141.31
303.095	79.87
303.309	118.78
303.524	20.48
303.738	34.82
303.952	40.96
304.166	77.82
304.381	-61.44
304.595	182.27
304.809	65.54
305.023	69.63
305.237	49.15
305.452	-4.1
305.666	69.63
305.88	28.67
306.094	94.21
306.308	147.45
306.522	137.21
306.736	6.14
306.95	112.64
307.164	77.82
307.379	67.58
307.593	75.77
307.807	182.27
308.021	71.68
308.235	67.58
308.449	-63.49
308.663	30.72
308.877	239.61
309.091	79.87
309.305	65.54
309.519	-106.49
309.733	102.4
309.947	28.67
310.161	75.77
310.374	145.41
310.588	96.25
310.802	10.24
311.016	10.24
311.23	77.82
311.444	-55.3
311.658	86.01
311.872	55.3
312.085	151.55
312.299	137.21
312.513	194.56
312.727	71.68
312.941	-14.34
313.154	8.19
313.368	40.96
313.582	77.82
313.796	73.73
314.009	71.68
314.223	202.75
314.437	131.07
314.651	77.82
314.864	53.25
315.078	34.82
315.292	28.67
315.505	4.1
315.719	51.2
315.933	116.73
316.146	108.54
316.36	-10.24
316.573	118.78
316.787	69.63
317.001	-4.1
317.214	-24.58
317.428	4.1
317.641	-57.34
317.855	-4.1
318.068	71.68
318.282	30.72
318.495	194.56
318.709	36.86
318.922	59.39
319.136	143.36
319.349	192.51
319.563	4.1
319.776	77.82
319.99	-120.83
320.203	118.78
320.417	24.58
320.63	100.35
320.843	223.23
321.057	20.48
321.27	96.25
321.483	79.87
321.697	114.69
321.91	65.54
322.124	2.05
322.337	92.16
322.55	75.77
322.763	12.29
322.977	-4.1
323.19	16.38
323.403	55.3
323.617	102.4
323.83	147.45
324.043	26.62
324.256	36.86
324.469	-61.44
324.683	137.21
324.896	49.15
325.109	67.58
325.322	-26.62
325.535	129.02
325.748	147.45
325.962	51.2
326.175	94.21
326.388	43.01
326.601	122.88
326.814	-22.53
327.027	118.78
327.24	167.93
327.453	-65.53
327.666	51.2
327.879	122.88
328.092	88.06
328.305	110.59
328.518	51.2
328.731	94.21
328.944	2.05
329.157	67.58
329.37	34.82
329.583	133.12
329.796	88.06
330.009	-8.19
330.222	120.83
330.435	124.93
330.648	36.86
330.861	100.35
331.073	51.2
331.286	112.64
331.499	-36.86
331.712	-2.05
331.925	40.96
332.138	61.44
332.35	79.87
332.563	55.3
332.776	176.13
332.989	-12.29
333.202	30.72
333.414	22.53
333.627	18.43
333.84	-40.96
334.053	86.01
334.265	4.1
334.478	34.82
334.691	26.62
334.903	-18.43
335.116	71.68
335.329	16.38
335.541	79.87
335.754	200.7
335.966	43.01
336.179	63.49
336.392	36.86
336.604	12.29
336.817	116.73
337.029	133.12
337.242	104.45
337.454	88.06
337.667	86.01
337.88	174.08
338.092	65.54
338.305	96.25
338.517	22.53
338.729	133.12
338.942	135.17
339.154	2.05
339.367	-18.43
339.579	118.78
339.792	-40.96
340.004	73.73
340.217	53.25
340.429	139.26
340.641	20.48
340.854	43.01
341.066	-69.63
341.278	30.72
341.491	149.5
341.703	16.38
341.915	-61.44
342.128	102.4
342.34	88.06
342.552	-28.67
342.764	14.34
342.977	59.39
343.189	106.49
343.401	79.87
343.613	-36.86
343.826	28.67
344.038	-36.86
344.25	43.01
344.462	0
344.674	75.77
344.886	51.2
345.099	83.97
345.311	81.92
345.523	0
345.735	-51.2
345.947	-16.38
346.159	77.82
346.371	69.63
346.583	96.25
346.795	243.71
347.007	-10.24
347.219	69.63
347.431	-4.1
347.643	96.25
347.855	12.29
348.067	81.92
348.279	-51.2
348.491	81.92
348.703	96.25
348.915	34.82
349.127	-40.96
349.339	40.96
349.551	47.1
349.763	98.3
349.975	38.91
350.187	57.34
350.399	63.49
350.61	55.3
350.822	32.77
351.034	55.3
351.246	126.97
351.458	51.2
351.669	94.21
351.881	186.37
352.093	114.69
352.305	120.83
352.517	145.41
352.728	120.83
352.94	83.97
353.152	133.12
353.363	-14.34
353.575	92.16
353.787	253.95
353.999	61.44
354.21	149.5
354.422	-32.77
354.633	104.45
354.845	61.44
355.057	100.35
355.268	45.06
355.48	180.22
355.692	-30.72
355.903	38.91
356.115	24.58
356.326	-16.38
356.538	102.4
356.749	47.1
356.961	153.6
357.172	10.24
357.384	-30.72
357.595	241.66
357.807	14.34
358.018	38.91
358.23	38.91
358.441	120.83
358.653	-2.05
358.864	86.01
359.075	-71.68
359.287	51.2
359.498	53.25
359.709	98.3
359.921	69.63
360.132	143.36
360.344	45.06
360.555	45.06
360.766	59.39
360.977	24.58
361.189	198.65
361.4	51.2
361.611	137.21
361.823	71.68
362.034	36.86
362.245	-16.38
362.456	14.34
362.667	92.16
362.879	16.38
363.09	75.77
363.301	88.06
363.512	96.25
363.723	-32.77
363.935	43.01
364.146	116.73
364.357	20.48
364.568	-10.24
364.779	-112.64
364.99	159.74
365.201	-12.29
365.412	174.08
365.623	-28.67
365.834	86.01
366.045	30.72
366.256	18.43
366.467	129.02
366.678	-14.34
366.889	81.92
367.1	-24.58
367.311	100.35
367.522	24.58
367.733	94.21
367.944	108.54
368.155	-18.43
368.366	143.36
368.577	104.45
368.788	69.63
368.999	20.48
369.209	96.25
369.42	135.17
369.631	262.14
369.842	118.78
370.053	12.29
370.264	2.05
370.474	-10.24
370.685	94.21
370.896	16.38
371.107	77.82
371.317	83.97
371.528	-36.86
371.739	161.79
371.95	167.93
372.16	77.82
372.371	65.54
372.582	36.86
372.792	28.67
373.003	36.86
373.214	43.01
373.424	6.14
373.635	69.63
373.846	112.64
374.056	75.77
374.267	94.21
374.477	61.44
374.688	65.54
374.898	83.97
375.109	43.01
375.319	30.72
375.53	159.74
375.74	71.68
375.951	108.54
376.161	110.59
376.372	219.13
376.582	8.19
376.793	12.29
377.003	55.3
377.214	-14.34
377.424	135.17
377.635	90.11
377.845	34.82
378.055	249.85
378.266	0
378.476	-12.29
378.686	124.93
378.897	36.86
379.107	110.59
379.317	161.79
379.528	12.29
379.738	114.69
379.948	-10.24
380.158	57.34
380.369	38.91
380.579	90.11
380.789	28.67
380.999	192.51
381.21	163.84
381.42	153.6
381.63	51.2
381.84	102.4
382.05	114.69
382.261	49.15
382.471	159.74
382.681	30.72
382.891	153.6
383.101	83.97
383.311	-36.86
383.521	16.38
383.731	75.77
383.941	124.93
384.151	-14.34
384.361	18.43
384.571	139.26
384.781	149.5
384.991	126.97
385.201	88.06
385.411	71.68
385.621	75.77
385.831	65.54
386.041	79.87
386.251	57.34
386.461	94.21
386.671	63.49
386.881	108.54
387.091	-63.49
387.301	94.21
387.511	88.06
387.72	61.44
387.93	133.12
388.14	-53.25
388.35	108.54
388.56	124.93
388.769	137.21
388.979	22.53
389.189	-8.19
389.399	34.82
389.609	163.84
389.818	96.25
390.028	116.73
390.238	98.3
390.447	10.24
390.657	153.6
390.867	51.2
391.076	-8.19
391.286	36.86
391.496	30.72
391.705	38.91
391.915	116.73
392.125	155.65
392.334	36.86
392.544	190.46
392.753	51.2
392.963	26.62
393.172	32.77
393.382	22.53
393.591	202.75
393.801	53.25
394.01	112.64
394.22	104.45
394.429	67.58
394.639	131.07
394.848	40.96
395.058	96.25
395.267	63.49
395.477	124.93
395.686	90.11
395.895	227.32
396.105	151.55
396.314	100.35
396.524	12.29
396.733	-30.72
396.942	120.83
397.152	120.83
397.361	126.97
397.57	14.34
397.78	88.06
397.989	69.63
398.198	192.51
398.407	-22.53
398.617	88.06
398.826	-6.14
399.035	43.01
399.244	88.06
399.453	153.6
399.663	104.45
399.872	118.78
400.081	-20.48
400.29	180.22
400.499	-40.96
400.708	94.21
400.917	90.11
401.127	-18.43
401.336	22.53
401.545	253.95
401.754	94.21
401.963	159.74
402.172	2.05
402.381	-43.01
402.59	57.34
402.799	63.49
403.008	137.21
403.217	137.21
403.426	100.35
403.635	-98.3
403.844	100.35
404.053	40.96
404.262	83.97
404.471	204.8
404.68	16.38
404.888	94.21
405.097	18.43
405.306	51.2
405.515	59.39
405.724	61.44
405.933	102.4
406.142	167.93
406.35	122.88
406.559	10.24
406.768	90.11
406.977	129.02
407.185	40.96
407.394	163.84
407.603	-28.67
407.812	102.4
408.02	215.04
408.229	83.97
408.438	63.49
408.646	-16.38
408.855	26.62
409.064	59.39
409.272	47.1
409.481	88.06
409.69	57.34
409.898	-28.67
410.107	104.45
410.315	118.78
410.524	14.34
410.733	106.49
410.941	34.82
411.15	86.01
411.358	131.07
411.567	186.37
411.775	24.58
411.984	73.73
412.192	47.1
412.401	83.97
412.609	194.56
412.818	163.84
413.026	59.39
413.234	75.77
413.443	83.97
413.651	6.14
413.86	53.25
414.068	139.26
414.276	169.98
414.485	53.25
414.693	174.08
414.901	118.78
415.11	73.73
415.318	69.63
415.526	81.92
415.734	106.49
415.943	90.11
416.151	86.01
416.359	-2.05
416.567	79.87
416.776	149.5
416.984	172.03
417.192	208.89
417.4	49.15
417.608	36.86
417.817	8.19
418.025	112.64
418.233	174.08
418.441	-14.34
418.649	-12.29
418.857	57.34
419.065	110.59
419.273	57.34
419.481	92.16
419.689	104.45
419.897	61.44
420.105	-110.59
420.313	139.26
420.521	176.13
420.729	102.4
420.937	-6.14
421.145	2.05
421.353	106.49
421.561	231.42
421.769	100.35
421.977	16.38
422.185	71.68
422.393	53.25
422.601	120.83
422.809	98.3
423.017	110.59
423.224	71.68
423.432	67.58
423.64	102.4
423.848	157.69
424.056	122.88
424.263	120.83
424.471	18.43
424.679	143.36
424.887	-104.45
425.094	77.82
425.302	135.17
425.51	12.29
425.718	120.83
425.925	75.77
426.133	36.86
426.341	231.42
426.548	63.49
426.756	53.25
426.964	116.73
427.171	18.43
427.379	63.49
427.586	139.26
427.794	124.93
428.001	163.84
428.209	75.77
428.417	172.03
428.624	196.61
428.832	163.84
429.039	49.15
429.247	137.21
429.454	122.88
429.662	196.61
429.869	126.97
430.076	94.21
430.284	174.08
430.491	190.46
430.699	182.27
430.906	225.28
431.114	118.78
431.321	227.32
431.528	131.07
431.736	182.27
431.943	167.93
432.15	192.51
432.358	309.24
432.565	243.71
432.772	18.43
432.979	235.52
433.187	178.17
433.394	182.27
433.601	198.65
433.808	358.39
434.016	309.24
434.223	208.89
434.43	178.17
434.637	206.84
434.844	296.96
435.052	194.56
435.259	262.14
435.466	360.44
435.673	186.37
435.88	333.82
436.087	307.2
436.294	430.07
436.501	331.77
436.708	309.24
436.915	317.44
437.122	346.11
437.329	385.02
437.537	352.25
437.743	378.87
437.95	485.37
438.157	401.4
438.364	370.68
438.571	421.88
438.778	421.88
438.985	526.33
439.192	571.38
439.399	526.33
439.606	559.1
439.813	544.76
440.02	653.3
440.227	692.21
440.433	643.06
440.64	540.66
440.847	600.05
441.054	655.35
441.261	718.84
441.467	745.46
441.674	641.01
441.881	847.86
442.088	702.45
442.294	784.37
442.501	897.01
442.708	860.15
442.914	872.43
443.121	919.54
443.328	962.55
443.534	1030.13
443.741	999.41
443.948	897.01
444.154	1126.38
444.361	1273.84
444.568	1058.8
444.774	1118.19
444.981	1026.03
445.187	1355.76
445.394	1251.31
445.6	1226.73
445.807	1480.68
446.013	1466.35
446.22	1251.31
446.426	1589.22
446.633	1552.36
446.839	1789.92
447.046	1417.19
447.252	1671.14
447.459	1724.39
447.665	1796.07
447.871	1941.47
448.078	2152.42
448.284	2021.35
448.491	2228.19
448.697	2160.61
448.903	2328.54
449.11	2357.21
449.316	2246.62
449.522	2519
449.728	2633.69
449.935	2707.41
450.141	2746.33
450.347	2904.02
450.553	2832.34
450.76	2877.4
450.966	3123.15
451.172	3170.26
451.378	3422.16
451.584	3377.1
451.791	3643.34
451.997	3850.18
452.203	3790.79
452.409	4075.46
452.615	4317.12
452.821	4157.38
453.027	4091.84
453.233	4712.38
453.44	4462.52
453.646	4724.66
453.852	5117.87
454.058	5232.56
454.264	5308.34
454.47	5683.11
454.676	5785.51
454.882	6209.44
455.088	5937.06
455.294	6260.64
455.5	6547.36
455.705	7012.24
455.911	7063.44
456.117	7214.99
456.323	7516.05
456.529	7311.25
456.735	8177.54
456.941	8277.89
457.147	8601.47
457.352	8949.62
457.558	9193.33
457.764	9707.37
457.97	9953.13
458.176	10280.8
458.381	10846.04
458.587	11245.4
458.793	11661.13
458.999	11654.99
459.204	13055.8
459.41	13651.76
459.616	13240.12
459.821	14149.42
460.027	14636.83
460.233	15445.78
460.438	15265.56
460.644	16224.01
460.85	16326.41
461.055	16918.27
461.261	17950.45
461.466	17514.23
461.672	17946.35
461.878	19922.64
462.083	19588.82
462.289	20078.29
462.494	20995.78
462.7	21262.01
462.905	21454.52
463.111	23152.29
463.316	24311.44
463.522	24827.53
463.727	25558.65
463.932	26863.21
464.138	27258.46
464.343	28368.46
464.549	28667.47
464.754	30572.08
464.959	31624.73
465.165	32007.7
465.37	31774.24
465.575	31720.99
465.781	34033.14
465.986	35208.68
466.191	34272.76
466.397	34680.3
466.602	33990.14
466.807	35888.6
467.012	36302.29
467.218	37062.09
467.423	36883.92
467.628	38061.5
467.833	40113.56
468.038	39355.82
468.244	38880.69
468.449	40441.24
468.654	39744.93
468.859	39734.69
469.064	39988.64
469.269	38677.94
469.474	39456.17
469.679	40641.94
469.885	39425.45
470.09	39851.42
470.295	39695.78
470.5	39095.72
470.705	39437.73
470.91	38165.95
471.115	38106.55
471.32	38759.86
471.525	38122.94
471.73	36812.24
471.935	37031.37
472.139	35646.94
472.344	35548.64
472.549	35175.91
472.754	34672.11
472.959	33897.98
473.164	33091.08
473.369	32019.99
473.574	33250.82
473.778	32366.1
473.983	32118.29
474.188	31499.81
474.393	30320.18
474.598	29929.02
474.802	29189.7
475.007	28859.98
475.212	28499.53
475.417	27471.45
475.621	27205.22
475.826	27068
476.031	26199.66
476.235	25736.82
476.44	25810.55
476.645	25257.6
476.849	24944.26
477.054	24315.53
477.259	23508.63
477.463	23447.19
477.668	23086.75
477.872	23043.74
478.077	22490.79
478.282	21599.93
478.486	21835.44
478.691	21292.73
478.895	21372.6
479.1	20950.72
479.304	20885.19
479.509	20098.77
479.713	20555.46
479.918	19957.46
480.122	19496.66
480.326	19830.48
480.531	19816.15
480.735	19560.15
480.94	19119.84
481.144	19656.4
481.348	18734.82
481.553	18863.84
481.757	18343.66
481.961	18478.82
482.166	18509.54
482.37	18388.71
482.574	18015.98
482.778	17815.28
482.983	18136.81
483.187	17915.63
483.391	17649.39
483.595	17313.53
483.8	17166.07
484.004	17186.55
484.208	17252.09
484.412	16934.65
484.616	16885.5
484.821	16480
485.025	16191.24
485.229	16236.3
485.433	15861.52
485.637	15652.63
485.841	15574.8
486.045	15269.65
486.249	15294.23
486.453	14769.95
486.657	14667.55
486.861	14489.38
487.065	14118.7
487.269	14063.4
487.473	13680.43
487.677	13670.19
487.881	13684.53
488.085	13197.11
488.289	12980.03
488.493	12506.95
488.697	12638.02
488.901	12633.92
489.105	12113.74
489.309	11997
489.512	11792.2
489.716	11427.67
489.92	11308.88
490.124	10932.06
490.328	11149.14
490.531	10665.82
490.735	10553.18
490.939	10243.94
491.143	10057.57
491.346	10014.57
491.55	9707.37
491.754	9623.41
491.958	9535.34
492.161	9338.74
492.365	9400.18
492.569	9084.79
492.772	8963.96
492.976	8968.06
493.18	8798.07
493.383	8865.66
493.587	8556.41
493.79	8517.5
493.994	8206.21
494.197	8320.9
494.401	8159.11
494.605	7931.78
494.808	7982.98
495.012	7991.17
495.215	8062.85
495.419	7882.63
495.622	7583.63
495.825	7724.94
496.029	7610.25
496.232	7757.71
496.436	7563.15
496.639	7726.99
496.843	7358.35
497.046	7444.37
497.249	7675.79
497.453	7511.95
497.656	7298.96
497.859	7526.29
498.063	7475.09
498.266	7694.22
498.469	7423.89
498.673	7475.09
498.876	7647.12
499.079	7589.77
499.282	7430.03
499.485	7993.22
499.689	7638.92
499.892	7815.05
500.095	7786.38
500.298	7790.47
500.501	7837.58
500.705	8163.2
500.908	8091.52
501.111	8058.76
501.314	8212.35
501.517	8304.51
501.72	8400.77
501.923	8376.19
502.126	8634.24
502.329	8636.28
502.532	8800.12
502.735	8834.94
502.938	8763.26
503.141	8857.46
503.344	9052.02
503.547	9244.53
503.75	9271.15
503.953	9320.31
504.156	9305.97
504.359	9629.55
504.562	9668.46
504.765	9967.46
504.968	10233.7
505.17	10221.41
505.373	10293.09
505.576	10426.21
505.779	10622.81
505.982	10704.73
506.185	10952.54
506.387	11106.13
506.59	11300.69
506.793	11661.13
506.996	11845.45
507.198	12048.2
507.401	12066.63
507.604	12465.99
507.807	12642.11
508.009	12932.92
508.212	13076.28
508.415	13403.96
508.617	13649.71
508.82	13979.43
509.022	14141.22
509.225	14608.16
509.428	14958.36
509.63	14989.08
509.833	15210.26
510.035	16117.51
510.238	15818.51
510.44	16092.94
510.643	16830.21
510.845	17145.59
511.048	17114.87
511.25	17645.3
511.453	18194.15
511.655	18767.59
511.858	18659.04
512.06	19193.56
512.262	19775.19
512.465	20072.14
512.667	20477.64
512.87	21075.65
513.072	21391.03
513.274	22056.62
513.477	22204.08
513.679	22847.14
513.881	23764.63
514.084	23715.48
514.286	24671.88
514.488	25011.84
514.69	26093.17
514.893	26025.59
515.095	26701.42
515.297	27160.16
515.499	27561.56
515.701	27997.78
515.904	28997.19
516.106	29601.34
516.308	30150.2
516.51	30529.07
516.712	31010.34
516.914	31913.5
517.116	32204.31
517.318	32648.72
517.52	33041.93
517.722	33881.6
517.925	34555.38
518.127	35571.17
518.329	36021.72
518.531	35868.12
518.733	36879.82
518.935	37752.26
519.136	38254.01
519.338	38817.2
519.54	39267.75
519.742	40043.93
519.944	40424.86
520.146	41332.11
520.348	41764.23
520.55	41737.6
520.752	42616.18
520.954	43238.76
521.155	43341.16
521.357	44197.21
521.559	44776.79
521.761	45712.71
521.963	45190.48
522.164	45819.2
522.366	45974.85
522.568	46726.46
522.77	46585.15
522.971	47795.49
523.173	47072.56
523.375	47949.09
523.576	47721.77
523.778	48176.42
523.98	48792.86
524.181	48985.36
524.383	49112.34
524.584	49493.26
524.786	49224.98
524.988	49276.18
525.189	49458.45
525.391	49851.66
525.592	49677.58
525.794	49642.76
525.995	48999.7
526.197	49493.26
526.398	49327.38
526.6	49298.7
526.801	49376.53
527.003	49267.98
527.204	49132.82
527.406	48950.55
527.607	48657.69
527.808	48747.8
528.01	47744.3
528.211	47764.78
528.412	48135.46
528.614	47357.23
528.815	46744.89
529.016	47086.9
529.218	46411.07
529.419	46271.81
529.62	45256.01
529.822	45049.17
530.023	44891.47
530.224	44414.3
530.425	44033.38
530.626	43117.93
530.828	42786.16
531.029	43296.11
531.23	42325.37
531.431	41596.29
531.632	41618.82
531.833	40648.08
532.035	40279.45
532.236	40166.81
532.437	39519.65
532.638	38725.04
532.839	38946.22
533.04	38280.63
533.241	37385.67
533.442	37508.55
533.643	36761.04
533.844	35898.84
534.045	36034.01
534.246	35075.56
534.447	34579.95
534.648	34213.37
534.849	34031.1
535.05	33281.54
535.251	33218.05
535.451	32523.79
535.652	32300.56
535.853	31890.97
536.054	31508
536.255	30799.4
536.456	30336.56
536.657	30580.27
536.857	29457.98
537.058	29120.07
537.259	28976.71
537.46	28526.16
537.66	27940.44
537.861	27518.56
538.062	27108.96
538.263	27178.59
538.463	26549.87
538.664	26529.39
538.865	25722.49
539.065	25597.56
539.266	25020.03
539.466	25026.18
539.667	24692.36
539.868	24565.39
540.068	24088.21
540.269	23686.81
540.469	23690.9
540.67	23299.74
540.87	23088.8
541.071	22957.73
541.271	22367.91
541.472	22159.02
541.672	22034.1
541.873	21425.85
542.073	21120.7
542.274	21554.87
542.474	21081.79
542.675	20666.05
542.875	20561.61
543.075	20254.41
543.276	19744.47
543.476	20000.46
543.676	19775.19
543.877	19404.5
544.077	18865.89
544.277	18960.09
544.478	18712.29
544.678	18560.74
544.878	18161.39
545.078	18194.15
545.279	17925.87
545.479	17661.68
545.679	17524.47
545.879	17239.8
546.079	17088.25
546.28	17014.52
546.48	16568.07
546.68	16656.13
546.88	16340.74
547.08	16310.02
547.28	15744.78
547.48	15474.45
547.68	15714.06
547.88	15267.61
548.081	15290.13
548.281	14896.92
548.481	14866.21
548.681	14839.58
548.881	14450.47
549.081	14313.25
549.28	14112.55
549.48	13817.65
549.68	13985.58
549.88	13793.07
550.08	13016.89
550.28	13041.47
550.48	12855.1
550.68	12863.29
550.88	12425.03
551.08	12560.19
551.279	12328.77
551.479	12150.6
551.679	11999.05
551.879	11622.22
552.079	11595.6
552.278	11444.05
552.478	11317.08
552.678	11220.82
552.878	10956.63
553.077	10698.59
553.277	10532.7
553.477	10665.82
553.676	10401.63
553.876	10076.01
554.076	10014.57
554.275	9858.92
554.475	9570.16
554.674	9506.67
554.874	9219.96
555.074	9242.48
555.273	9187.19
555.473	8904.57
555.672	8576.89
555.872	8585.08
556.071	8517.5
556.271	8552.32
556.47	8316.8
556.67	7913.35
556.869	7886.73
557.068	7833.48
557.268	7614.35
557.467	7497.61
557.667	7628.68
557.866	7374.74
558.065	7178.13
558.265	7116.69
558.464	6862.74
558.663	6977.43
558.863	6752.15
559.062	6754.2
559.261	6426.53
559.461	6473.63
559.66	6367.13
559.859	6250.4
560.058	6176.67
560.258	6045.6
560.457	5965.73
560.656	6117.28
560.855	5672.87
561.054	5672.87
561.253	5636.01
561.453	5609.39
561.652	5332.91
561.851	5504.94
562.05	5085.11
562.249	5216.18
562.448	5226.42
562.647	4904.89
562.846	4925.36
563.045	4990.9
563.244	4859.83
563.443	4833.21
563.642	4556.73
563.841	4650.94
564.04	4562.87
564.239	4609.98
564.438	4454.33
564.637	4419.52
564.836	4329.41
565.035	4173.76
565.234	4149.18
565.432	4220.86
565.631	4403.13
565.83	3862.47
566.029	3907.52
566.228	3872.71
566.427	3921.86
566.625	3798.98
566.824	3643.34
567.023	3590.09
567.222	3610.57
567.42	3479.5
567.619	3432.4
567.818	3405.77
568.016	3532.75
568.215	3399.63
568.414	3262.41
568.612	3286.99
568.811	3237.84
569.01	3106.77
569.208	3069.91
569.407	3184.59
569.605	3139.54
569.804	2912.21
570.002	3043.28
570.201	2803.67
570.4	3018.71
570.598	2899.92
570.797	2760.66
570.995	2637.78
571.193	2713.56
571.392	2695.13
571.59	2545.63
571.789	2686.94
571.987	2691.03
572.186	2627.54
572.384	2467.8
572.582	2365.4
572.781	2590.68
572.979	2240.48
573.177	2277.34
573.376	2342.88
573.574	2248.67
573.772	2244.57
573.971	2123.74
574.169	2115.55
574.367	2191.33
574.565	2035.68
574.763	2129.89
574.962	2011.11
575.16	2041.82
575.358	1970.15
575.556	1937.38
575.754	1832.93
575.952	1945.57
576.151	1859.56
576.349	1980.39
576.547	1656.81
576.745	1851.36
576.943	1783.78
577.141	1742.82
577.339	1697.77
577.537	1681.38
577.735	1736.68
577.933	1669.09
578.131	1519.59
578.329	1728.49
578.527	1529.83
578.725	1587.18
578.923	1464.3
579.121	1495.02
579.319	1320.94
579.516	1419.24
579.714	1638.38
579.912	1439.72
580.11	1312.75
580.308	1257.45
580.506	1355.76
580.704	1337.32
580.901	1277.93
581.099	1325.04
581.297	1259.5
581.495	1189.87
581.692	1142.77
581.89	1347.56
582.088	1204.21
582.285	1126.38
582.483	1062.9
582.681	1054.7
582.878	1056.75
583.076	1107.95
583.274	1069.04
583.471	1126.38
583.669	1064.94
583.866	954.35
584.064	999.41
584.262	976.88
584.459	954.35
584.657	933.87
584.854	1046.51
585.052	1021.94
585.249	997.36
585.447	854
585.644	800.76
585.841	1073.14
586.039	933.87
586.236	976.88
586.434	802.8
586.631	864.24
586.828	763.89
587.026	800.76
587.223	854
587.42	811
587.618	929.78
587.815	923.63
588.012	813.04
588.21	765.94
588.407	825.33
588.604	806.9
588.801	681.97
588.999	731.12
589.196	831.48
589.393	753.65
589.59	737.27
589.787	800.76
589.984	753.65
590.182	708.6
590.379	645.11
590.576	634.87
590.773	735.22
590.97	722.93
591.167	780.28
591.364	741.36
591.561	626.68
591.758	804.85
591.955	661.49
592.152	653.3
592.349	503.8
592.546	665.59
592.743	593.91
592.94	632.82
593.137	659.45
593.334	714.74
593.531	677.88
593.727	665.59
593.924	608.25
594.121	706.55
594.318	692.21
594.515	757.75
594.712	782.32
594.908	841.72
595.105	620.53
595.302	755.7
595.499	749.56
595.696	798.71
595.892	684.02
596.089	825.33
596.286	718.84
596.482	901.11
596.679	845.81
596.876	737.27
597.072	897.01
597.269	944.11
597.466	937.97
597.662	878.58
597.859	862.19
598.055	913.39
598.252	980.98
598.448	1019.89
598.645	1081.33
598.841	1079.28
599.038	1325.04
599.234	1169.39
599.431	1150.96
599.627	1210.35
599.824	1290.22
600.02	1427.43
600.217	1339.37
600.413	1437.67
600.609	1478.63
600.806	1765.35
601.002	1728.49
601.198	1597.42
601.395	1902.56
601.591	1818.6
601.787	1943.52
601.984	1943.52
602.18	2068.45
602.376	2070.5
602.572	2183.13
602.769	2285.53
602.965	2265.05
603.161	2430.94
603.357	2510.81
603.553	2607.06
603.75	2758.61
603.946	2779.09
604.142	2842.58
604.338	3000.27
604.534	3112.91
604.73	3088.34
604.926	3082.19
605.122	3483.59
605.318	3338.19
605.514	3610.57
605.71	3768.26
605.906	3696.58
606.102	3928
606.298	4095.94
606.494	4188.1
606.69	4288.45
606.886	4454.33
607.082	4587.45
607.278	4579.26
607.474	4685.75
607.67	4915.12
607.866	4790.2
608.062	5300.14
608.257	5216.18
608.453	5459.88
608.649	5562.28
608.845	5515.18
609.041	5760.94
609.236	6059.94
609.432	6287.26
609.628	6449.05
609.824	6535.07
610.019	6709.15
610.215	6932.37
610.411	7292.82
610.606	7292.82
610.802	7407.5
610.998	7550.86
611.193	8066.95
611.389	7972.74
611.584	8368
611.78	8462.21
611.976	8630.14
612.171	9097.08
612.367	9123.7
612.562	9269.11
612.758	9762.67
612.953	9609.07
613.149	10106.73
613.344	10489.7
613.539	10743.64
613.735	10923.87
613.93	11376.47
614.126	11378.51
614.321	12021.58
614.517	12250.95
614.712	12240.71
614.907	12588.86
615.103	12969.79
615.298	13283.13
615.493	13872.94
615.688	13782.83
615.884	14524.19
616.079	14661.41
616.274	15367.96
616.47	15494.93
616.665	16031.5
616.86	16312.07
617.055	16629.51
617.25	16717.57
617.445	17669.87
617.641	17860.34
617.836	18642.66
618.031	18714.34
618.226	19584.73
618.421	19859.15
618.616	20365
618.811	20760.26
619.006	21329.59
619.201	21444.28
619.396	22179.5
619.591	22226.6
619.786	23287.45
619.981	23395.99
620.176	23996.05
620.371	24192.65
620.566	25093.76
620.761	25429.63
620.956	26386.03
621.151	26441.32
621.346	27287.14
621.541	27272.8
621.735	28180.05
621.93	28251.73
622.125	29103.68
622.32	29273.67
622.515	30455.34
622.709	30668.33
622.904	31413.79
623.099	31581.73
623.294	32634.38
623.488	32658.96
623.683	33447.43
623.878	33351.17
624.072	34819.56
624.267	34952.68
624.462	35196.39
624.656	35681.76
624.851	36619.73
625.046	37010.89
625.24	37772.74
625.435	38077.88
625.629	38641.07
625.824	39243.18
626.018	40005.02
626.213	39425.45
626.407	40396.18
626.602	40486.29
626.796	41620.87
626.991	41424.26
627.185	41774.47
627.38	42356.09
627.574	42431.86
627.768	42505.59
627.963	42704.24
628.157	42765.68
628.352	43074.93
628.546	42894.71
628.74	43644.26
628.935	43111.79
629.129	43337.07
629.323	43095.41
629.517	43048.3
629.712	42603.89
629.906	42378.62
630.1	41528.71
630.294	41913.73
630.489	40977.81
630.683	40662.42
630.877	39527.84
631.071	39357.86
631.265	38835.63
631.459	37909.95
631.653	36933.07
631.848	36322.77
632.042	35710.43
632.236	34745.84
632.43	33527.3
632.624	33252.87
632.818	31819.29
633.012	30797.35
633.206	30062.13
633.4	29361.73
633.594	27754.07
633.788	27475.55
633.982	26125.94
634.176	25618.04
634.369	24422.03
634.563	23436.95
634.757	22505.13
634.951	21958.32
635.145	20889.28
635.339	20426.44
635.533	19435.22
635.726	18702.05
635.92	17755.89
636.114	17227.51
636.308	16350.98
636.501	15920.91
636.695	15273.75
636.889	14505.76
637.083	13944.62
637.276	13434.67
637.47	12908.35
637.664	12357.44
637.857	11951.95
638.051	11480.91
638.244	10870.62
638.438	10407.78
638.632	10151.78
638.825	9621.36
639.019	9338.74
639.212	8843.13
639.406	8738.68
639.599	8286.08
639.793	8093.57
639.986	7530.38
640.18	7434.13
640.373	7133.08
640.567	6838.17
640.76	6465.44
640.954	6172.58
641.147	5840.81
641.34	5926.82
641.534	5658.54
641.727	5347.25
641.92	5353.39
642.114	4935.6
642.307	4644.79
642.5	4597.69
642.694	4485.05
642.887	4339.65
643.08	4265.92
643.273	4032.45
643.467	3893.19
643.66	3643.34
643.853	3520.46
644.046	3362.76
644.239	3297.23
644.432	3137.49
644.626	2807.77
644.819	2987.99
645.012	2846.68
645.205	2756.57
645.398	2799.57
645.591	2549.72
645.784	2220
645.977	2197.47
646.17	2199.52
646.363	2201.57
646.556	2015.2
646.749	1890.28
646.942	1834.98
647.135	1867.75
647.328	1691.62
647.521	1701.86
647.714	1595.37
647.907	1529.83
648.099	1517.54
648.292	1679.33
648.485	1462.25
648.678	1441.77
648.871	1374.19
649.064	1226.73
649.256	1226.73
649.449	1112.05
649.642	1038.32
649.835	1038.32
650.027	1062.9
650.22	970.74
650.413	944.11
650.605	907.25
650.798	806.9
650.991	858.1
651.183	767.99
651.376	864.24
651.568	911.35
651.761	729.08
651.954	819.19
652.146	706.55
652.339	712.69
652.531	776.18
652.724	628.73
652.916	655.35
653.109	528.38
653.301	714.74
653.494	665.59
653.686	698.36
653.879	649.21
654.071	638.97
654.263	540.66
654.456	460.79
654.648	581.62
654.84	534.52
655.033	503.8
655.225	569.34
655.417	413.69
655.61	436.22
655.802	417.79
655.994	571.38
656.186	366.59
656.379	452.6
656.571	317.44
656.763	380.92
656.955	346.11
657.148	309.24
657.34	471.03
657.532	346.11
657.724	458.74
657.916	376.83
658.108	456.7
658.3	339.96
658.492	315.39
658.684	229.37
658.876	395.26
659.068	217.08
659.26	169.98
659.452	225.28
659.644	288.76
659.836	337.91
660.028	329.72
660.22	206.84
660.412	325.63
660.604	235.52
660.796	260.09
660.988	366.59
661.18	278.52
661.372	395.26
661.563	262.14
661.755	335.87
661.947	262.14
662.139	253.95
662.331	219.13
662.522	280.57
662.714	135.17
662.906	253.95
663.097	221.18
663.289	149.5
663.481	149.5
663.673	208.89
663.864	135.17
664.056	235.52
664.247	106.49
664.439	235.52
664.631	192.51
664.822	258.04
665.014	247.8
665.205	163.84
665.397	118.78
665.588	221.18
665.78	188.41
665.971	172.03
666.163	198.65
666.354	270.33
666.546	159.74
666.737	126.97
666.929	165.89
667.12	124.93
667.311	210.94
667.503	247.8
667.694	212.99
667.885	247.8
668.077	231.42
668.268	88.06
668.459	172.03
668.651	217.08
668.842	190.46
669.033	157.69
669.224	120.83
669.416	401.4
669.607	77.82
669.798	126.97
669.989	268.28
670.18	212.99
670.371	182.27
670.563	32.77
670.754	290.81
670.945	227.32
671.136	331.77
671.327	182.27
671.518	274.43
671.709	288.76
671.9	204.8
672.091	280.57
672.282	169.98
672.473	149.5
672.664	98.3
672.855	253.95
673.046	260.09
673.237	206.84
673.428	151.55
673.619	317.44
673.809	184.32
674	270.33
674.191	208.89
674.382	151.55
674.573	212.99
674.764	200.7
674.954	260.09
675.145	126.97
675.336	184.32
675.527	200.7
675.717	243.71
675.908	184.32
676.099	133.12
676.289	270.33
676.48	247.8
676.671	167.93
676.861	188.41
677.052	241.66
677.243	237.56
677.433	155.65
677.624	309.24
677.814	251.9
678.005	190.46
678.195	346.11
678.386	192.51
678.576	253.95
678.767	239.61
678.957	309.24
679.148	280.57
679.338	389.11
679.529	294.91
679.719	270.33
679.909	278.52
680.1	376.83
680.29	268.28
680.481	184.32
680.671	364.54
680.861	260.09
681.052	266.24
681.242	200.7
681.432	276.48
681.622	270.33
681.813	206.84
682.003	212.99
682.193	198.65
682.383	303.1
682.573	284.67
682.764	331.77
682.954	280.57
683.144	389.11
683.334	296.96
683.524	266.24
683.714	348.15
683.904	294.91
684.094	286.72
684.284	307.2
684.474	436.22
684.664	382.97
684.854	329.72
685.044	301.05
685.234	305.15
685.424	337.91
685.614	276.48
685.804	501.75
685.994	376.83
686.184	348.15
686.374	387.07
686.564	292.86
686.753	391.16
686.943	227.32
687.133	229.37
687.323	243.71
687.513	360.44
687.702	419.83
687.892	270.33
688.082	321.53
688.272	292.86
688.461	262.14
688.651	393.21
688.841	319.48
689.03	301.05
689.22	303.1
689.41	385.02
689.599	335.87
689.789	284.67
689.979	366.59
690.168	301.05
690.358	364.54
690.547	290.81
690.737	362.49
690.926	266.24
691.116	323.58
691.305	432.12
691.495	378.87
691.684	172.03
691.874	305.15
692.063	278.52
692.252	276.48
692.442	278.52
692.631	169.98
692.82	206.84
693.01	264.19
693.199	270.33
693.388	272.38
693.578	229.37
693.767	286.72
693.956	333.82
694.146	227.32
694.335	294.91
694.524	272.38
694.713	325.63
694.902	219.13
695.092	237.56
695.281	333.82
695.47	235.52
695.659	305.15
695.848	290.81
696.037	251.9
696.226	389.11
696.415	239.61
696.604	305.15
696.793	356.35
696.982	268.28
697.171	264.19
697.36	258.04
697.549	309.24
697.738	215.04
697.927	186.37
698.116	176.13
698.305	268.28
698.494	215.04
698.683	221.18
698.872	333.82
699.061	260.09
699.25	270.33
699.438	305.15
699.627	212.99
699.816	391.16
700.005	163.84
700.193	321.53
700.382	419.83
700.571	317.44
700.76	319.48
700.948	305.15
701.137	301.05
701.326	331.77
701.514	131.07
701.703	208.89
701.892	229.37
702.08	397.31
702.269	245.76
702.457	270.33
702.646	286.72
702.834	249.85
703.023	380.92
703.212	301.05
703.4	194.56
703.589	167.93
703.777	233.47
703.965	225.28
704.154	221.18
704.342	188.41
704.531	239.61
704.719	305.15
704.907	348.15
705.096	231.42
705.284	188.41
705.472	245.76
705.661	219.13
705.849	333.82
706.037	294.91
706.226	266.24
706.414	215.04
706.602	192.51
706.79	266.24
706.979	176.13
707.167	200.7
707.355	206.84
707.543	276.48
707.731	315.39
707.919	251.9
708.107	192.51
708.296	176.13
708.484	167.93
708.672	225.28
708.86	202.75
709.048	268.28
709.236	176.13
709.424	249.85
709.612	292.86
709.8	137.21
709.988	223.23
710.176	288.76
710.364	346.11
710.551	194.56
710.739	241.66
710.927	180.22
711.115	206.84
711.303	286.72
711.491	280.57
711.679	145.41
711.866	227.32
712.054	212.99
712.242	196.61
712.43	356.35
712.617	239.61
712.805	311.29
712.993	260.09
713.181	133.12
713.368	335.87
713.556	204.8
713.744	262.14
713.931	413.69
714.119	276.48
714.306	221.18
714.494	174.08
714.682	323.58
714.869	98.3
715.057	239.61
715.244	141.31
715.432	243.71
715.619	253.95
715.807	237.56
715.994	192.51
716.182	256
716.369	323.58
716.556	354.3
716.744	184.32
716.931	126.97
717.119	278.52
717.306	258.04
717.493	180.22
717.681	143.36
717.868	223.23
718.055	245.76
718.242	190.46
718.43	256
718.617	294.91
718.804	210.94
718.991	350.2
719.179	294.91
719.366	272.38
719.553	221.18
719.74	276.48
719.927	172.03
720.114	288.76
720.301	245.76
720.488	139.26
720.676	215.04
720.863	378.87
721.05	436.22
721.237	299
721.424	286.72
721.611	303.1
721.798	194.56
721.985	258.04
722.172	223.23
722.358	202.75
722.545	356.35
722.732	305.15
722.919	374.78
723.106	196.61
723.293	235.52
723.48	262.14
723.667	204.8
723.853	387.07
724.04	325.63
724.227	380.92
724.414	280.57
724.6	407.55
724.787	370.68
724.974	452.6
725.161	251.9
725.347	169.98
725.534	208.89
725.72	321.53
725.907	387.07
726.094	342.01
726.28	210.94
726.467	346.11
726.653	253.95
726.84	382.97
727.027	460.79
727.213	260.09
727.4	425.98
727.586	319.48
727.773	360.44
727.959	301.05
728.145	301.05
728.332	278.52
728.518	260.09
728.705	307.2
728.891	245.76
729.077	270.33
729.264	184.32
729.45	258.04
729.636	333.82
729.823	307.2
730.009	331.77
730.195	305.15
730.382	329.72
730.568	260.09
730.754	311.29
730.94	264.19
731.126	331.77
731.313	348.15
731.499	362.49
731.685	327.68
731.871	348.15
732.057	374.78
732.243	344.06
732.429	352.25
732.615	366.59
732.801	313.34
732.987	339.96
733.173	317.44
733.359	284.67
733.545	309.24
733.731	323.58
733.917	423.93
734.103	364.54
734.289	380.92
734.475	258.04
734.661	456.7
734.847	303.1
735.033	264.19
735.219	294.91
735.404	290.81
735.59	325.63
735.776	395.26
735.962	337.91
736.148	360.44
736.333	423.93
736.519	382.97
736.705	249.85
736.89	333.82
737.076	243.71
737.262	249.85
737.447	292.86
737.633	278.52
737.819	325.63
738.004	241.66
738.19	251.9
738.375	335.87
738.561	317.44
738.747	321.53
738.932	182.27
739.118	528.38
739.303	385.02
739.489	372.73
739.674	266.24
739.859	337.91
740.045	350.2
740.23	333.82
740.416	172.03
740.601	342.01
740.786	284.67
740.972	284.67
741.157	288.76
741.342	233.47
741.528	196.61
741.713	415.74
741.898	294.91
742.084	280.57
742.269	301.05
742.454	337.91
742.639	413.69
742.824	299
743.01	413.69
743.195	387.07
743.38	321.53
743.565	374.78
743.75	186.37
743.935	329.72
744.12	374.78
744.305	272.38
744.49	272.38
744.675	296.96
744.86	247.8
745.045	264.19
745.23	329.72
745.415	237.56
745.6	397.31
745.785	256
745.97	350.2
746.155	274.43
746.34	421.88
746.525	282.62
746.71	385.02
746.895	231.42
747.079	161.79
747.264	249.85
747.449	346.11
747.634	335.87
747.819	262.14
748.003	229.37
748.188	184.32
748.373	360.44
748.557	227.32
748.742	305.15
748.927	253.95
749.111	208.89
749.296	182.27
749.481	292.86
749.665	266.24
749.85	243.71
750.034	356.35
750.219	325.63
750.404	239.61
750.588	264.19
750.773	180.22
750.957	294.91
751.141	260.09
751.326	305.15
751.51	272.38
751.695	194.56
751.879	215.04
752.064	335.87
752.248	215.04
752.432	360.44
752.617	272.38
752.801	270.33
752.985	249.85
753.17	309.24
753.354	309.24
753.538	215.04
753.722	126.97
753.907	165.89
754.091	143.36
754.275	206.84
754.459	129.02
754.643	69.63
754.828	305.15
755.012	235.52
755.196	188.41
755.38	231.42
755.564	149.5
755.748	219.13
755.932	245.76
756.116	233.47
756.3	237.56
756.484	221.18
756.668	204.8
756.852	88.06
757.036	178.17
757.22	253.95
757.404	110.59
757.588	268.28
757.772	249.85
757.956	241.66
758.14	227.32
758.323	77.82
758.507	223.23
758.691	145.41
758.875	337.91
759.059	290.81
759.242	135.17
759.426	188.41
759.61	157.69
759.794	57.34
759.977	180.22
760.161	374.78
760.345	256
760.528	262.14
760.712	165.89
760.895	98.3
761.079	159.74
761.263	92.16
761.446	28.67
761.63	163.84
761.813	249.85
761.997	106.49
762.18	149.5
762.364	186.37
762.547	73.73
762.731	92.16
762.914	155.65
763.098	65.54
763.281	120.83
763.464	182.27
763.648	231.42
763.831	120.83
764.015	67.58
764.198	159.74
764.381	51.2
764.564	135.17
764.748	122.88
764.931	108.54
765.114	79.87
765.297	151.55
765.481	86.01
765.664	116.73
765.847	155.65
766.03	251.9
766.213	112.64
766.397	149.5
766.58	65.54
766.763	155.65
766.946	45.06
767.129	88.06
767.312	73.73
767.495	30.72
767.678	45.06
767.861	151.55
768.044	147.45
768.227	114.69
768.41	172.03
768.593	94.21
768.776	118.78
768.959	55.3
769.142	212.99
769.324	153.6
769.507	100.35
769.69	100.35
769.873	137.21
770.056	313.34
770.239	47.1
770.421	202.75
770.604	100.35
770.787	118.78
770.97	129.02
771.152	45.06
771.335	106.49
771.518	24.58
771.7	145.41
771.883	247.8
772.066	34.82
772.248	149.5
772.431	200.7
772.613	151.55
772.796	73.73
772.978	98.3
773.161	206.84
773.343	47.1
773.526	61.44
773.708	-12.29
773.891	-4.1
774.073	106.49
774.256	118.78
774.438	200.7
774.621	88.06
774.803	106.49
774.985	2.05
775.168	153.6
775.35	88.06
775.532	102.4
775.715	86.01
775.897	219.13
776.079	69.63
776.261	165.89
776.444	83.97
776.626	83.97
776.808	61.44
776.99	-16.38
777.173	38.91
777.355	90.11
777.537	65.54
777.719	53.25
777.901	8.19
778.083	55.3
778.265	40.96
778.447	192.51
778.629	10.24
778.811	75.77
778.993	65.54
779.175	106.49
779.357	75.77
779.539	40.96
779.721	98.3
779.903	96.25
780.085	40.96
780.267	149.5
780.449	122.88
780.631	135.17
780.812	120.83
780.994	135.17
781.176	145.41
781.358	77.82
781.54	61.44
781.721	153.6
781.903	137.21
782.085	24.58
782.267	188.41
782.448	69.63
782.63	51.2
782.812	112.64
782.993	69.63
783.175	47.1
783.357	0
783.538	47.1
783.72	2.05
783.901	8.19
784.083	55.3
784.264	30.72
784.446	-16.38
784.627	-12.29
784.809	135.17
784.99	67.58
785.172	79.87
785.353	20.48
785.535	40.96
785.716	43.01
785.897	10.24
786.079	67.58
786.26	0
786.441	131.07
786.623	-4.1
786.804	-22.53
786.985	28.67
787.167	71.68
787.348	-2.05
787.529	61.44
787.71	151.55
787.891	96.25
788.073	-2.05
788.254	-30.72
788.435	196.61
788.616	61.44
788.797	-8.19
788.978	6.14
789.159	20.48
789.34	151.55
789.522	65.54
789.703	-4.1
789.884	108.54
790.065	129.02
790.246	108.54
790.427	22.53
790.607	133.12
790.788	108.54
790.969	-34.82
791.15	96.25
791.331	49.15
791.512	-24.58
791.693	20.48
791.874	36.86
792.054	161.79
792.235	75.77
792.416	-45.06
792.597	45.06
792.778	57.34
792.958	43.01
793.139	118.78
793.32	55.3
793.5	-45.06
793.681	163.84
793.862	92.16
794.042	-30.72
794.223	-94.21
794.404	-40.96
794.584	2.05
794.765	-100.35
794.945	81.92
795.126	145.41
795.306	83.97
795.487	51.2
795.667	-43.01
795.848	47.1
796.028	-10.24
796.209	100.35
796.389	71.68
796.57	-4.1
796.75	-40.96
796.93	26.62
797.111	-51.2
797.291	-57.34
797.471	83.97
797.652	36.86
797.832	-36.86
798.012	145.41
798.192	-22.53
798.373	-40.96
798.553	-6.14
798.733	124.93
798.913	4.1
799.093	73.73
799.274	55.3
799.454	100.35
799.634	79.87
799.814	47.1
799.994	83.97
800.174	57.34
800.354	79.87
800.534	-88.06
800.714	65.54
800.894	-47.1
801.074	-49.15
801.254	-20.48
801.434	120.83
801.614	45.06
801.794	4.1
801.974	1710.05
802.154	28.67
802.334	100.35
802.514	2.05
802.693	-22.53
802.873	-12.29
803.053	81.92
803.233	43.01
803.413	92.16
803.592	-49.15
803.772	12.29
803.952	22.53
804.131	22.53
804.311	122.88
804.491	12.29
804.67	-2.05
804.85	-26.62
805.03	79.87
805.209	188.41
805.389	57.34
805.568	-8.19
805.748	0
805.928	12.29
806.107	45.06
806.287	86.01
806.466	30.72
806.646	53.25
806.825	20.48
807.004	-75.77
807.184	86.01
807.363	102.4
807.543	28.67
807.722	-28.67
807.901	38.91
808.081	110.59
808.26	-118.78
808.439	36.86
808.619	51.2
808.798	57.34
808.977	49.15
809.156	120.83
809.336	112.64
809.515	126.97
809.694	6.14
809.873	-28.67
810.052	34.82
810.231	124.93
810.411	53.25
810.59	161.79
810.769	0
810.948	90.11
811.127	-77.82
811.306	12.29
811.485	4.1
811.664	194.56
811.843	61.44
812.022	131.07
812.201	-22.53
812.38	-34.82
812.559	57.34
812.737	69.63
812.916	-110.59
813.095	30.72
813.274	-16.38
813.453	30.72
813.632	36.86
813.811	100.35
813.989	-28.67
814.168	61.44
814.347	-47.1
814.526	-6.14
814.704	147.45
814.883	16.38
815.062	-51.2
815.24	94.21
815.419	-57.34
815.598	-26.62
815.776	-110.59
815.955	32.77
816.133	-86.01
816.312	-4.1
816.49	-63.49
816.669	-6.14
816.847	90.11
817.026	4.1
817.204	-4.1
817.383	20.48
817.561	-34.82
817.74	71.68
817.918	118.78
818.097	51.2
818.275	-28.67
818.453	36.86
818.632	16.38
818.81	18.43
818.988	-18.43
819.167	-65.53
819.345	-6.14
819.523	-43.01
819.701	49.15
819.879	73.73
820.058	63.49
820.236	36.86
820.414	32.77
820.592	-63.49
820.77	-16.38
820.948	8.19
821.127	-65.53
821.305	-51.2
821.483	-55.3
821.661	77.82
821.839	61.44
822.017	-49.15
822.195	16.38
822.373	-28.67
822.551	32.77
822.729	43.01
822.907	-49.15
823.085	51.2
823.262	16.38
823.44	-63.49
823.618	-65.53
823.796	6.14
823.974	-16.38
824.152	26.62
824.329	0
824.507	32.77
824.685	28.67
824.863	-18.43
825.04	-53.25
825.218	-2.05
825.396	36.86
825.574	28.67
825.751	-24.58
825.929	88.06
826.107	-88.06
826.284	26.62
826.462	22.53
826.639	-81.92
826.817	-4.1
826.994	-77.82
827.172	-104.45
827.349	143.36
827.527	81.92
827.704	-40.96
827.882	69.63
828.059	-14.34
828.237	57.34
828.414	36.86
828.591	-18.43
828.769	-86.01
828.946	-88.06
829.124	61.44
829.301	71.68
829.478	-2.05
829.655	-14.34
829.833	55.3
830.01	-112.64
830.187	108.54
830.364	-53.25
830.542	-12.29
830.719	98.3
830.896	32.77
831.073	51.2
831.25	14.34
831.427	92.16
831.604	16.38
831.782	-51.2
831.959	20.48
832.136	14.34
832.313	57.34
832.49	40.96
832.667	69.63
832.844	-38.91
833.021	73.73
833.198	110.59
833.374	-47.1
833.551	57.34
833.728	-4.1
833.905	18.43
834.082	-88.06
834.259	-14.34
834.436	116.73
834.612	-14.34
834.789	77.82
834.966	-53.25
835.143	61.44
835.319	-88.06
835.496	65.54
835.673	98.3
835.85	47.1
836.026	24.58
836.203	38.91
836.38	-63.49
836.556	-12.29
836.733	-83.97
836.909	75.77
837.086	-83.97
837.262	-88.06
837.439	22.53
837.616	26.62
837.792	-38.91
837.968	40.96
838.145	-79.87
838.321	-6.14
838.498	63.49
838.674	36.86
838.851	36.86
839.027	36.86
839.203	67.58
839.38	49.15
839.556	-30.72
839.732	120.83
839.909	57.34
840.085	67.58
840.261	-4.1
840.437	-20.48
840.614	-14.34
840.79	47.1
840.966	36.86
841.142	86.01
841.318	-34.82
841.494	22.53
841.671	104.45
841.847	30.72
842.023	26.62
842.199	96.25
842.375	61.44
842.551	-100.35
842.727	12.29
842.903	145.41
843.079	-59.39
843.255	135.17
843.431	14.34
843.607	71.68
843.783	-55.3
843.959	81.92
844.134	-88.06
844.31	100.35
844.486	-32.77
844.662	-67.58
844.838	0
845.013	108.54
845.189	22.53
845.365	73.73
845.541	40.96
845.716	-10.24
845.892	100.35
846.068	-2.05
846.244	-40.96
846.419	71.68
846.595	-18.43
846.77	-45.06
846.946	116.73
847.122	-43.01
847.297	-59.39
847.473	65.54
847.648	-53.25
847.824	86.01
847.999	-55.3
848.175	32.77
848.35	-8.19
848.526	53.25
848.701	43.01
848.876	69.63
849.052	104.45
849.227	18.43
849.403	-10.24
849.578	36.86
849.753	-122.88
849.929	45.06
850.104	-49.15
850.279	6.14
850.454	-65.53
850.63	30.72
850.805	-34.82
850.98	55.3
851.155	18.43
851.33	36.86
851.505	10.24
851.681	94.21
851.856	-167.93
852.031	30.72
852.206	71.68
852.381	6.14
852.556	-45.06
852.731	55.3
852.906	83.97
853.081	34.82
853.256	36.86
853.431	-24.58
853.606	-92.16
853.781	-43.01
853.956	-38.91
854.131	-12.29
854.305	-20.48
854.48	-38.91
854.655	-73.73
854.83	-57.34
855.005	10.24
855.18	8.19
855.354	-34.82
855.529	81.92
855.704	-40.96
855.879	67.58
856.053	-40.96
856.228	22.53
856.403	-20.48
856.577	51.2
856.752	-124.93
856.926	-30.72
857.101	86.01
857.276	-83.97
857.45	59.39
857.625	131.07
857.799	79.87
857.974	-40.96
858.148	-135.17
858.323	12.29
858.497	-38.91
858.672	-59.39
858.846	-34.82
859.02	45.06
859.195	-81.92
859.369	43.01
859.543	47.1
859.718	75.77
859.892	16.38
860.066	77.82
860.241	2.05
860.415	10.24
860.589	16.38
860.763	18.43
860.938	-94.21
861.112	28.67
861.286	-47.1
861.46	-28.67
861.634	-43.01
861.808	94.21
861.982	-38.91
862.157	-77.82
862.331	14.34
862.505	-86.01
862.679	-92.16
862.853	-49.15
863.027	-38.91
863.201	106.49
863.375	16.38
863.549	63.49
863.722	-12.29
863.896	102.4
864.07	-61.44
864.244	12.29
864.418	59.39
864.592	8.19
864.766	-4.1
864.939	51.2
865.113	-40.96
865.287	75.77
865.461	-73.73
865.634	59.39
865.808	30.72
865.982	-4.1
866.156	2.05
866.329	-83.97
866.503	-38.91
866.676	92.16
866.85	14.34
867.024	-36.86
867.197	81.92
867.371	-36.86
867.544	40.96
867.718	-86.01
867.891	77.82
868.065	-104.45
868.238	-8.19
868.412	131.07
868.585	65.54
868.759	-104.45
868.932	-65.53
869.105	-108.54
869.279	-30.72
869.452	-14.34
869.625	30.72
869.799	22.53
869.972	-40.96
870.145	-24.58
870.319	79.87
870.492	8.19
870.665	-47.1
870.838	-124.93
871.011	-131.07
871.185	-49.15
871.358	24.58
871.531	118.78
871.704	-45.06
871.877	0
872.05	-32.77
872.223	-75.77
872.396	30.72
872.569	-4.1
872.742	-57.34
872.915	24.58
873.088	18.43
873.261	-22.53
873.434	40.96
873.607	-12.29
873.78	73.73
873.953	-81.92
874.126	61.44
874.299	14.34
874.471	-8.19
874.644	32.77
874.817	112.64
874.99	104.45
875.163	-2.05
875.335	34.82
875.508	-4.1
875.681	40.96
875.853	-26.62
876.026	6.14
876.199	6.14
876.371	-16.38
876.544	-20.48
876.717	98.3
876.889	45.06
877.062	10.24
877.234	24.58
877.407	-20.48
877.579	26.62
877.752	28.67
877.924	57.34
878.097	-40.96
878.269	20.48
878.442	55.3
878.614	69.63
878.786	12.29
878.959	59.39
879.131	-77.82
879.303	-86.01
879.476	-26.62
879.648	-4.1
879.82	45.06
879.993	0
880.165	-49.15
880.337	-73.73
880.509	30.72
880.681	-75.77
880.854	-49.15
881.026	2.05
881.198	178.17
881.37	10.24
881.542	45.06
881.714	-53.25
881.886	2.05
882.058	-53.25
882.23	45.06
882.402	-69.63
882.574	-8.19
882.746	102.4
882.918	114.69
883.09	83.97
883.262	-51.2
883.434	-65.53
883.606	-135.17
883.778	-40.96
883.95	133.12
884.122	-36.86
884.293	75.77
884.465	-26.62
884.637	10.24
884.809	-47.1
884.98	22.53
885.152	36.86
885.324	0
885.496	-65.53
885.667	-20.48
885.839	-38.91
886.011	104.45
886.182	-34.82
886.354	47.1
886.525	-26.62
886.697	-75.77
886.869	-49.15
887.04	-32.77
887.212	38.91
887.383	120.83
887.555	43.01
887.726	102.4
887.897	-43.01
888.069	-32.77
888.24	126.97
888.412	8.19
888.583	-12.29
888.754	-8.19
888.926	-88.06
889.097	-73.73
889.268	-165.89
889.44	-2.05
889.611	-8.19
889.782	-129.02
889.953	0
890.125	57.34
890.296	-86.01
890.467	-26.62
890.638	-34.82
890.809	-24.58
890.98	-20.48
891.151	14.34
891.323	92.16
891.494	-30.72
891.665	0
891.836	79.87
892.007	-8.19
892.178	-2.05
892.349	-49.15
892.52	36.86
892.691	24.58
892.862	-34.82
893.032	-61.44
893.203	12.29
893.374	0
893.545	47.1
893.716	-51.2
893.887	2.05
894.057	26.62
894.228	112.64
894.399	47.1
894.57	75.77
894.74	-40.96
894.911	57.34
895.082	-65.53
895.253	-114.69
895.423	-16.38
895.594	61.44
895.764	12.29
895.935	-94.21
896.106	55.3
896.276	-30.72
896.447	47.1
896.617	-61.44
896.788	-88.06
896.958	-73.73
897.129	-65.53
897.299	-51.2
897.47	75.77
897.64	110.59
897.81	10.24
897.981	16.38
898.151	-69.63
898.322	57.34
898.492	6.14
898.662	-28.67
898.832	4.1
899.003	-45.06
899.173	38.91
899.343	-57.34
899.513	-77.82
