Data from USB4F104151__246__11-19-55-836.txt Node

Date: Wed Feb 26 11:19:55 EST 2025
User: louis
Spectrometer: USB4F10415
Trigger mode: 4
Integration Time (sec): 1.000000E-1
Scans to average: 1
Electric dark correction enabled: true
Nonlinearity correction enabled: false
Boxcar width: 0
XAxis mode: Wavelengths
Number of Pixels in Spectrum: 3648
>>>>>Begin Spectral Data<<<<<
178.204	-367.27
178.424	-367.27
178.644	-367.27
178.864	-391.84
179.084	-412.32
179.304	-25.26
179.524	40.28
179.744	15.7
179.964	177.49
180.184	34.13
180.404	-2.73
180.624	-80.55
180.844	-19.11
181.064	-49.83
181.283	27.99
181.503	-98.99
181.723	-19.11
181.943	-64.17
182.163	240.98
182.383	52.56
182.602	152.91
182.822	165.2
183.042	64.85
183.262	-25.26
183.482	-17.07
183.701	109.91
183.921	-33.45
184.141	11.61
184.361	64.85
184.58	91.48
184.8	62.8
185.02	-2.73
185.239	105.81
185.459	62.8
185.679	146.77
185.898	13.65
186.118	40.28
186.338	122.2
186.557	91.48
186.777	36.18
186.997	-43.69
187.216	-2.73
187.436	279.89
187.655	93.52
187.875	120.15
188.095	25.94
188.314	126.29
188.534	52.56
188.753	-51.88
188.973	122.2
189.192	161.11
189.412	79.19
189.631	103.76
189.851	56.66
190.07	142.68
190.29	3.41
190.509	1.37
190.729	-37.55
190.948	107.86
191.168	240.98
191.387	120.15
191.607	48.47
191.826	144.72
192.045	58.71
192.265	87.38
192.484	103.76
192.704	46.42
192.923	-62.12
193.142	187.73
193.362	216.4
193.581	120.15
193.8	62.8
194.02	169.3
194.239	66.9
194.458	150.87
194.678	75.09
194.897	11.61
195.116	36.18
195.335	66.9
195.555	50.52
195.774	46.42
195.993	91.48
196.212	120.15
196.432	91.48
196.651	5.46
196.87	19.8
197.089	236.88
197.308	52.56
197.528	114
197.747	23.89
197.966	107.86
198.185	124.24
198.404	50.52
198.623	144.72
198.842	214.35
199.062	107.86
199.281	126.29
199.5	3.41
199.719	109.91
199.938	93.52
200.157	128.34
200.376	79.19
200.595	130.39
200.814	114
201.033	-21.16
201.252	142.68
201.471	38.23
201.69	114
201.909	77.14
202.128	75.09
202.347	93.52
202.566	83.28
202.785	-15.02
203.004	-68.27
203.223	331.09
203.442	-29.35
203.661	-39.59
203.879	116.05
204.098	128.34
204.317	3.41
204.536	130.39
204.755	132.44
204.974	134.48
205.193	-45.74
205.411	167.25
205.63	54.61
205.849	77.14
206.068	85.33
206.287	-4.78
206.505	146.77
206.724	11.61
206.943	32.08
207.162	7.51
207.381	144.72
207.599	-15.02
207.818	62.8
208.037	13.65
208.255	30.04
208.474	83.28
208.693	116.05
208.911	-55.98
209.13	87.38
209.349	79.19
209.567	97.62
209.786	130.39
210.005	75.09
210.223	81.24
210.442	-43.69
210.661	-4.78
210.879	73.04
211.098	81.24
211.316	79.19
211.535	7.51
211.753	175.44
211.972	40.28
212.191	-0.68
212.409	62.8
212.628	99.67
212.846	-70.31
213.065	146.77
213.283	144.72
213.502	50.52
213.72	5.46
213.938	56.66
214.157	42.32
214.375	134.48
214.594	77.14
214.812	77.14
215.031	11.61
215.249	81.24
215.467	81.24
215.686	25.94
215.904	97.62
216.122	19.8
216.341	152.91
216.559	75.09
216.778	159.06
216.996	128.34
217.214	-8.87
217.432	11.61
217.651	-45.74
217.869	9.56
218.087	38.23
218.306	-103.08
218.524	54.61
218.742	46.42
218.96	79.19
219.179	5.46
219.397	1.37
219.615	263.51
219.833	159.06
220.051	-8.87
220.27	128.34
220.488	118.1
220.706	126.29
220.924	-17.07
221.142	52.56
221.36	54.61
221.578	140.63
221.796	-0.68
222.015	3.41
222.233	91.48
222.451	171.35
222.669	-43.69
222.887	193.87
223.105	34.13
223.323	118.1
223.541	-39.59
223.759	103.76
223.977	105.81
224.195	146.77
224.413	144.72
224.631	46.42
224.849	27.99
225.067	189.78
225.285	-2.73
225.503	19.8
225.721	-62.12
225.939	38.23
226.157	116.05
226.375	177.49
226.592	89.43
226.81	32.08
227.028	159.06
227.246	120.15
227.464	77.14
227.682	132.44
227.9	56.66
228.117	105.81
228.335	159.06
228.553	138.58
228.771	64.85
228.989	-8.87
229.206	144.72
229.424	-33.45
229.642	15.7
229.86	-2.73
230.077	169.3
230.295	68.95
230.513	134.48
230.731	154.96
230.948	210.26
231.166	240.98
231.384	7.51
231.601	48.47
231.819	163.15
232.037	40.28
232.254	-27.31
232.472	46.42
232.689	-47.79
232.907	122.2
233.125	1.37
233.342	-113.32
233.56	66.9
233.777	13.65
233.995	50.52
234.213	81.24
234.43	85.33
234.648	75.09
234.865	9.56
235.083	66.9
235.3	62.8
235.518	161.11
235.735	177.49
235.953	89.43
236.17	91.48
236.388	1.37
236.605	30.04
236.822	103.76
237.04	138.58
237.257	50.52
237.475	-17.07
237.692	87.38
237.909	181.59
238.127	60.76
238.344	114
238.562	68.95
238.779	21.85
238.996	32.08
239.214	15.7
239.431	97.62
239.648	-0.68
239.865	77.14
240.083	111.96
240.3	15.7
240.517	5.46
240.735	52.56
240.952	173.39
241.169	36.18
241.386	138.58
241.603	58.71
241.821	54.61
242.038	62.8
242.255	120.15
242.472	9.56
242.689	118.1
242.907	50.52
243.124	42.32
243.341	64.85
243.558	56.66
243.775	1.37
243.992	-2.73
244.209	197.97
244.426	232.79
244.643	128.34
244.86	9.56
245.078	89.43
245.295	60.76
245.512	116.05
245.729	23.89
245.946	40.28
246.163	32.08
246.38	122.2
246.597	7.51
246.814	85.33
247.031	58.71
247.248	73.04
247.464	34.13
247.681	50.52
247.898	46.42
248.115	40.28
248.332	-53.93
248.549	152.91
248.766	187.73
248.983	89.43
249.2	140.63
249.417	122.2
249.633	36.18
249.85	132.44
250.067	93.52
250.284	50.52
250.501	25.94
250.717	93.52
250.934	-68.27
251.151	62.8
251.368	3.41
251.585	91.48
251.801	25.94
252.018	52.56
252.235	91.48
252.451	30.04
252.668	58.71
252.885	134.48
253.102	73.04
253.318	77.14
253.535	68.95
253.752	-8.87
253.968	-25.26
254.185	-23.21
254.401	107.86
254.618	111.96
254.835	-55.98
255.051	144.72
255.268	64.85
255.484	58.71
255.701	25.94
255.917	95.57
256.134	5.46
256.351	83.28
256.567	-17.07
256.784	105.81
257	-55.98
257.217	122.2
257.433	101.72
257.65	-6.83
257.866	81.24
258.082	-37.55
258.299	-8.87
258.515	58.71
258.732	27.99
258.948	-35.5
259.165	93.52
259.381	-15.02
259.597	103.76
259.814	52.56
260.03	52.56
260.246	91.48
260.463	109.91
260.679	154.96
260.895	50.52
261.112	114
261.328	46.42
261.544	-10.92
261.761	210.26
261.977	1.37
262.193	-41.64
262.409	140.63
262.626	114
262.842	66.9
263.058	-6.83
263.274	116.05
263.49	30.04
263.707	118.1
263.923	146.77
264.139	44.37
264.355	83.28
264.571	128.34
264.787	134.48
265.004	228.69
265.22	36.18
265.436	15.7
265.652	1.37
265.868	44.37
266.084	-29.35
266.3	79.19
266.516	-21.16
266.732	87.38
266.948	32.08
267.164	7.51
267.38	157.01
267.596	42.32
267.812	140.63
268.028	75.09
268.244	1.37
268.46	40.28
268.676	58.71
268.892	3.41
269.108	-27.31
269.324	36.18
269.54	-29.35
269.756	107.86
269.972	-35.5
270.188	32.08
270.403	-84.65
270.619	58.71
270.835	79.19
271.051	99.67
271.267	5.46
271.483	21.85
271.698	75.09
271.914	64.85
272.13	44.37
272.346	40.28
272.562	21.85
272.777	165.2
272.993	83.28
273.209	87.38
273.425	148.82
273.64	32.08
273.856	75.09
274.072	7.51
274.287	-19.11
274.503	128.34
274.719	77.14
274.934	-45.74
275.15	-78.51
275.366	73.04
275.581	9.56
275.797	66.9
276.012	34.13
276.228	32.08
276.444	30.04
276.659	130.39
276.875	-8.87
277.09	44.37
277.306	11.61
277.521	99.67
277.737	73.04
277.952	71
278.168	44.37
278.383	71
278.599	79.19
278.814	73.04
279.03	23.89
279.245	144.72
279.461	97.62
279.676	136.53
279.892	-27.31
280.107	34.13
280.322	-15.02
280.538	126.29
280.753	-23.21
280.969	193.87
281.184	122.2
281.399	171.35
281.615	91.48
281.83	54.61
282.045	-19.11
282.26	46.42
282.476	19.8
282.691	34.13
282.906	150.87
283.122	150.87
283.337	66.9
283.552	66.9
283.767	34.13
283.983	66.9
284.198	52.56
284.413	42.32
284.628	21.85
284.843	71
285.058	79.19
285.274	-0.68
285.489	3.41
285.704	75.09
285.919	79.19
286.134	5.46
286.349	46.42
286.564	68.95
286.779	161.11
286.995	7.51
287.21	19.8
287.425	105.81
287.64	34.13
287.855	114
288.07	9.56
288.285	89.43
288.5	150.87
288.715	116.05
288.93	71
289.145	5.46
289.36	48.47
289.575	64.85
289.79	134.48
290.004	1.37
290.219	101.72
290.434	126.29
290.649	38.23
290.864	38.23
291.079	13.65
291.294	68.95
291.509	48.47
291.724	-8.87
291.938	62.8
292.153	75.09
292.368	87.38
292.583	89.43
292.798	73.04
293.012	46.42
293.227	27.99
293.442	56.66
293.657	23.89
293.871	91.48
294.086	75.09
294.301	228.69
294.516	114
294.73	68.95
294.945	-53.93
295.16	44.37
295.374	144.72
295.589	105.81
295.804	13.65
296.018	120.15
296.233	134.48
296.447	56.66
296.662	75.09
296.877	187.73
297.091	79.19
297.306	95.57
297.52	32.08
297.735	126.29
297.949	103.76
298.164	52.56
298.378	89.43
298.593	19.8
298.807	44.37
299.022	103.76
299.236	161.11
299.451	32.08
299.665	21.85
299.88	83.28
300.094	48.47
300.309	3.41
300.523	44.37
300.737	-58.03
300.952	7.51
301.166	60.76
301.381	48.47
301.595	36.18
301.809	107.86
302.024	-8.87
302.238	-55.98
302.452	136.53
302.667	89.43
302.881	103.76
303.095	111.96
303.309	89.43
303.524	68.95
303.738	56.66
303.952	-2.73
304.166	52.56
304.381	-109.23
304.595	144.72
304.809	56.66
305.023	52.56
305.237	9.56
305.452	111.96
305.666	107.86
305.88	36.18
306.094	161.11
306.308	58.71
306.522	62.8
306.736	95.57
306.95	93.52
307.164	73.04
307.379	154.96
307.593	208.21
307.807	161.11
308.021	71
308.235	77.14
308.449	52.56
308.663	42.32
308.877	197.97
309.091	77.14
309.305	81.24
309.519	-10.92
309.733	128.34
309.947	5.46
310.161	85.33
310.374	124.24
310.588	118.1
310.802	32.08
311.016	-41.64
311.23	103.76
311.444	17.75
311.658	58.71
311.872	169.3
312.085	103.76
312.299	216.4
312.513	105.81
312.727	73.04
312.941	-15.02
313.154	32.08
313.368	50.52
313.582	103.76
313.796	15.7
314.009	52.56
314.223	150.87
314.437	71
314.651	111.96
314.864	-19.11
315.078	85.33
315.292	-43.69
315.505	81.24
315.719	93.52
315.933	93.52
316.146	79.19
316.36	13.65
316.573	99.67
316.787	154.96
317.001	99.67
317.214	-39.59
317.428	58.71
317.641	15.7
317.855	50.52
318.068	95.57
318.282	144.72
318.495	161.11
318.709	109.91
318.922	114
319.136	95.57
319.349	62.8
319.563	-41.64
319.776	11.61
319.99	-15.02
320.203	87.38
320.417	46.42
320.63	68.95
320.843	226.64
321.057	42.32
321.27	44.37
321.483	177.49
321.697	161.11
321.91	87.38
322.124	118.1
322.337	161.11
322.55	93.52
322.763	62.8
322.977	1.37
323.19	38.23
323.403	77.14
323.617	107.86
323.83	120.15
324.043	17.75
324.256	48.47
324.469	54.61
324.683	77.14
324.896	7.51
325.109	52.56
325.322	-68.27
325.535	40.28
325.748	189.78
325.962	89.43
326.175	116.05
326.388	109.91
326.601	126.29
326.814	66.9
327.027	73.04
327.24	161.11
327.453	-19.11
327.666	105.81
327.879	193.87
328.092	36.18
328.305	79.19
328.518	44.37
328.731	62.8
328.944	46.42
329.157	132.44
329.37	-55.98
329.583	167.25
329.796	193.87
330.009	-29.35
330.222	54.61
330.435	128.34
330.648	46.42
330.861	93.52
331.073	73.04
331.286	154.96
331.499	79.19
331.712	30.04
331.925	30.04
332.138	23.89
332.35	68.95
332.563	25.94
332.776	107.86
332.989	-49.83
333.202	5.46
333.414	5.46
333.627	54.61
333.84	11.61
334.053	77.14
334.265	-23.21
334.478	54.61
334.691	105.81
334.903	56.66
335.116	27.99
335.329	30.04
335.541	107.86
335.754	161.11
335.966	5.46
336.179	5.46
336.392	58.71
336.604	-8.87
336.817	144.72
337.029	105.81
337.242	95.57
337.454	99.67
337.667	38.23
337.88	169.3
338.092	95.57
338.305	126.29
338.517	-0.68
338.729	40.28
338.942	122.2
339.154	-29.35
339.367	-15.02
339.579	101.72
339.792	13.65
340.004	138.58
340.217	73.04
340.429	66.9
340.641	-45.74
340.854	-25.26
341.066	21.85
341.278	136.53
341.491	130.39
341.703	27.99
341.915	-15.02
342.128	97.62
342.34	9.56
342.552	-33.45
342.764	101.72
342.977	30.04
343.189	56.66
343.401	120.15
343.613	-45.74
343.826	11.61
344.038	-10.92
344.25	3.41
344.462	34.13
344.674	105.81
344.886	46.42
345.099	58.71
345.311	97.62
345.523	95.57
345.735	-62.12
345.947	23.89
346.159	85.33
346.371	46.42
346.583	42.32
346.795	234.83
347.007	30.04
347.219	111.96
347.431	75.09
347.643	83.28
347.855	66.9
348.067	191.83
348.279	50.52
348.491	116.05
348.703	50.52
348.915	169.3
349.127	75.09
349.339	-17.07
349.551	-27.31
349.763	126.29
349.975	32.08
350.187	130.39
350.399	120.15
350.61	95.57
350.822	46.42
351.034	120.15
351.246	27.99
351.458	93.52
351.669	68.95
351.881	114
352.093	163.15
352.305	140.63
352.517	23.89
352.728	204.11
352.94	107.86
353.152	27.99
353.363	3.41
353.575	56.66
353.787	218.45
353.999	138.58
354.21	175.44
354.422	-27.31
354.633	23.89
354.845	116.05
355.057	19.8
355.268	64.85
355.48	157.01
355.692	-37.55
355.903	130.39
356.115	-49.83
356.326	23.89
356.538	101.72
356.749	95.57
356.961	273.75
357.172	91.48
357.384	23.89
357.595	216.4
357.807	75.09
358.018	-39.59
358.23	58.71
358.441	208.21
358.653	73.04
358.864	73.04
359.075	-6.83
359.287	79.19
359.498	85.33
359.709	138.58
359.921	107.86
360.132	101.72
360.344	120.15
360.555	68.95
360.766	-2.73
360.977	101.72
361.189	126.29
361.4	60.76
361.611	159.06
361.823	257.36
362.034	66.9
362.245	36.18
362.456	77.14
362.667	116.05
362.879	48.47
363.09	87.38
363.301	73.04
363.512	71
363.723	60.76
363.935	-4.78
364.146	103.76
364.357	75.09
364.568	132.44
364.779	-92.84
364.99	157.01
365.201	9.56
365.412	154.96
365.623	-33.45
365.834	68.95
366.045	58.71
366.256	54.61
366.467	66.9
366.678	144.72
366.889	48.47
367.1	-33.45
367.311	95.57
367.522	36.18
367.733	97.62
367.944	173.39
368.155	71
368.366	144.72
368.577	44.37
368.788	122.2
368.999	11.61
369.209	87.38
369.42	161.11
369.631	281.94
369.842	116.05
370.053	54.61
370.264	124.24
370.474	32.08
370.685	132.44
370.896	75.09
371.107	132.44
371.317	128.34
371.528	-41.64
371.739	148.82
371.95	128.34
372.16	50.52
372.371	-43.69
372.582	32.08
372.792	77.14
373.003	85.33
373.214	60.76
373.424	159.06
373.635	-39.59
373.846	169.3
374.056	73.04
374.267	58.71
374.477	120.15
374.688	5.46
374.898	103.76
375.109	140.63
375.319	-10.92
375.53	77.14
375.74	157.01
375.951	15.7
376.161	87.38
376.372	120.15
376.582	27.99
376.793	73.04
377.003	52.56
377.214	42.32
377.424	200.02
377.635	62.8
377.845	60.76
378.055	175.44
378.266	11.61
378.476	56.66
378.686	44.37
378.897	66.9
379.107	101.72
379.317	81.24
379.528	5.46
379.738	71
379.948	-64.17
380.158	134.48
380.369	40.28
380.579	111.96
380.789	54.61
380.999	191.83
381.21	163.15
381.42	259.41
381.63	42.32
381.84	77.14
382.05	99.67
382.261	138.58
382.471	128.34
382.681	-8.87
382.891	163.15
383.101	62.8
383.311	7.51
383.521	36.18
383.731	107.86
383.941	75.09
384.151	71
384.361	83.28
384.571	25.94
384.781	134.48
384.991	142.68
385.201	177.49
385.411	134.48
385.621	68.95
385.831	189.78
386.041	21.85
386.251	95.57
386.461	165.2
386.671	68.95
386.881	77.14
387.091	-10.92
387.301	132.44
387.511	64.85
387.72	179.54
387.93	73.04
388.14	19.8
388.35	116.05
388.56	163.15
388.769	97.62
388.979	64.85
389.189	11.61
389.399	64.85
389.609	54.61
389.818	118.1
390.028	56.66
390.238	52.56
390.447	48.47
390.657	173.39
390.867	95.57
391.076	-135.85
391.286	140.63
391.496	52.56
391.705	77.14
391.915	105.81
392.125	77.14
392.334	-4.78
392.544	185.68
392.753	111.96
392.963	-21.16
393.172	32.08
393.382	40.28
393.591	195.92
393.801	-10.92
394.01	210.26
394.22	111.96
394.429	15.7
394.639	19.8
394.848	71
395.058	83.28
395.267	13.65
395.477	81.24
395.686	124.24
395.895	247.12
396.105	183.63
396.314	107.86
396.524	15.7
396.733	30.04
396.942	79.19
397.152	118.1
397.361	126.29
397.57	97.62
397.78	27.99
397.989	163.15
398.198	269.65
398.407	52.56
398.617	3.41
398.826	36.18
399.035	40.28
399.244	179.54
399.453	1.37
399.663	111.96
399.872	152.91
400.081	-86.7
400.29	150.87
400.499	-8.87
400.708	185.68
400.917	87.38
401.127	27.99
401.336	-41.64
401.545	146.77
401.754	101.72
401.963	114
402.172	42.32
402.381	21.85
402.59	93.52
402.799	27.99
403.008	132.44
403.217	130.39
403.426	130.39
403.635	-51.88
403.844	73.04
404.053	52.56
404.262	27.99
404.471	218.45
404.68	132.44
404.888	103.76
405.097	85.33
405.306	75.09
405.515	66.9
405.724	93.52
405.933	150.87
406.142	48.47
406.35	118.1
406.559	77.14
406.768	58.71
406.977	212.31
407.185	75.09
407.394	124.24
407.603	9.56
407.812	105.81
408.02	185.68
408.229	77.14
408.438	105.81
408.646	-4.78
408.855	95.57
409.064	75.09
409.272	87.38
409.481	150.87
409.69	-60.07
409.898	9.56
410.107	134.48
410.315	95.57
410.524	3.41
410.733	118.1
410.941	-2.73
411.15	97.62
411.358	150.87
411.567	142.68
411.775	128.34
411.984	128.34
412.192	81.24
412.401	38.23
412.609	294.22
412.818	202.07
413.026	134.48
413.234	36.18
413.443	111.96
413.651	7.51
413.86	146.77
414.068	171.35
414.276	179.54
414.485	-8.87
414.693	132.44
414.901	216.4
415.11	85.33
415.318	25.94
415.526	50.52
415.734	165.2
415.943	60.76
416.151	138.58
416.359	97.62
416.567	93.52
416.776	75.09
416.984	103.76
417.192	167.25
417.4	52.56
417.608	46.42
417.817	-37.55
418.025	165.2
418.233	189.78
418.441	56.66
418.649	25.94
418.857	89.43
419.065	175.44
419.273	17.75
419.481	36.18
419.689	52.56
419.897	38.23
420.105	-29.35
420.313	202.07
420.521	146.77
420.729	157.01
420.937	46.42
421.145	38.23
421.353	152.91
421.561	243.03
421.769	75.09
421.977	73.04
422.185	122.2
422.393	77.14
422.601	228.69
422.809	144.72
423.017	148.82
423.224	95.57
423.432	218.45
423.64	87.38
423.848	95.57
424.056	-10.92
424.263	52.56
424.471	95.57
424.679	148.82
424.887	-0.68
425.094	154.96
425.302	91.48
425.51	58.71
425.718	159.06
425.925	77.14
426.133	-58.03
426.341	181.59
426.548	9.56
426.756	95.57
426.964	118.1
427.171	97.62
427.379	118.1
427.586	126.29
427.794	218.45
428.001	134.48
428.209	140.63
428.417	234.83
428.624	157.01
428.832	173.39
429.039	150.87
429.247	105.81
429.454	126.29
429.662	263.51
429.869	116.05
430.076	130.39
430.284	140.63
430.491	157.01
430.699	216.4
430.906	208.21
431.114	187.73
431.321	95.57
431.528	175.44
431.736	146.77
431.943	249.17
432.15	232.79
432.358	214.35
432.565	290.13
432.772	54.61
432.979	279.89
433.187	212.31
433.394	310.61
433.601	167.25
433.808	193.87
434.016	279.89
434.223	263.51
434.43	306.51
434.637	275.79
434.844	331.09
435.052	269.65
435.259	335.18
435.466	333.14
435.673	257.36
435.88	275.79
436.087	361.81
436.294	392.53
436.501	300.37
436.708	329.04
436.915	308.56
437.122	384.34
437.329	271.7
437.537	384.34
437.743	451.92
437.95	492.88
438.157	480.59
438.364	402.77
438.571	470.35
438.778	447.82
438.985	587.08
439.192	533.84
439.399	490.83
439.606	499.02
439.813	599.37
440.02	722.25
440.227	724.3
440.433	646.48
440.64	607.56
440.847	488.78
441.054	580.94
441.261	785.74
441.467	734.54
441.674	675.15
441.881	695.63
442.088	777.55
442.294	830.79
442.501	873.8
442.708	900.42
442.914	910.66
443.121	963.91
443.328	1033.54
443.534	1068.36
443.741	1101.12
443.948	884.04
444.154	1168.71
444.361	1242.43
444.568	1115.46
444.774	1346.88
444.981	1092.93
445.187	1365.31
445.394	1338.69
445.6	1398.08
445.807	1510.72
446.013	1428.8
446.22	1350.98
446.426	1639.74
446.633	1582.4
446.839	1789.24
447.046	1654.08
447.252	1838.39
447.459	1908.02
447.665	1836.35
447.871	2125.11
448.078	2129.2
448.284	2231.6
448.491	2301.23
448.697	2411.82
448.903	2510.13
449.11	2506.03
449.316	2530.61
449.522	2790.7
449.728	2698.54
449.935	2891.05
450.141	2805.03
450.347	3065.13
450.553	3085.61
450.76	3147.05
450.966	3409.19
451.172	3448.1
451.378	3525.92
451.584	3691.81
451.791	3878.17
451.997	4017.43
452.203	4107.54
452.409	4240.66
452.615	4279.57
452.821	4281.62
453.027	4435.22
453.233	4900.11
453.44	4934.92
453.646	5121.29
453.852	5289.22
454.058	5506.31
454.264	5782.78
454.47	6094.07
454.676	6110.46
454.882	6583.54
455.088	6411.51
455.294	6655.22
455.5	7240.93
455.705	7337.19
455.911	7324.9
456.117	7609.57
456.323	7898.33
456.529	7718.11
456.735	8651.99
456.941	8901.84
457.147	9178.31
457.352	9567.43
457.558	9739.46
457.764	10263.74
457.97	10585.27
458.176	10833.07
458.381	11381.93
458.587	11998.37
458.793	12192.92
458.999	12293.27
459.204	14046.33
459.41	14326.91
459.616	14259.32
459.821	14941.3
460.027	15811.68
460.233	16512.09
460.438	16575.58
460.644	17550.41
460.85	17654.86
461.055	17951.81
461.261	19176.5
461.466	18881.59
461.672	18902.07
461.878	21611.53
462.083	21290
462.289	21619.72
462.494	22455.29
462.7	22602.75
462.905	22868.98
463.111	24722.4
463.316	25813.96
463.522	26422.21
463.727	27143.1
463.932	28418.98
464.138	29076.38
464.343	30364.55
464.549	30608.26
464.754	32752.48
464.959	33475.41
465.165	34388.81
465.37	33823.57
465.575	33954.64
465.781	36358.95
465.986	37274.4
466.191	36713.25
466.397	37151.52
466.602	36266.8
466.807	38431.5
467.012	38738.69
467.218	39535.35
467.423	39848.69
467.628	40725.22
467.833	42773.19
468.038	42101.46
468.244	41380.57
468.449	43098.82
468.654	42398.41
468.859	42597.07
469.064	42744.52
469.269	41712.34
469.474	41849.56
469.679	43274.94
469.885	41781.98
470.09	42619.6
470.295	42681.03
470.5	41519.84
470.705	41824.98
470.91	40925.92
471.115	40680.17
471.32	41034.47
471.525	40946.4
471.73	39539.45
471.935	39713.53
472.139	38073.1
472.344	38322.96
472.549	38083.34
472.754	37444.38
472.959	36424.49
473.164	34966.34
473.369	34552.65
473.574	35842.87
473.778	34700.1
473.983	34093.9
474.188	33694.55
474.393	31884.14
474.598	32248.68
474.802	31300.47
475.007	31107.96
475.212	30585.73
475.417	29240.22
475.621	29176.73
475.826	28830.62
476.031	28335.01
476.235	27564.98
476.44	27773.87
476.645	26876.86
476.849	26571.71
477.054	26338.24
477.259	25449.42
477.463	25416.66
477.668	25011.16
477.872	25267.16
478.077	24607.71
478.282	23524.33
478.486	23423.98
478.691	23170.04
478.895	22774.78
479.1	22778.87
479.304	22447.1
479.509	21703.69
479.713	22182.91
479.918	21842.95
480.122	21111.83
480.326	21294.1
480.531	21302.29
480.735	20837.4
480.94	20474.91
481.144	21312.53
481.348	20452.38
481.553	20139.04
481.757	19840.04
481.961	19977.25
482.166	20188.19
482.37	19870.76
482.574	19473.45
482.778	19074.1
482.983	19801.13
483.187	19072.05
483.391	19063.86
483.595	18740.28
483.8	18603.07
484.004	18623.55
484.208	18633.78
484.412	18226.24
484.616	17962.05
484.821	17806.41
485.025	17312.85
485.229	17521.74
485.433	16837.72
485.637	16821.33
485.841	16643.16
486.045	16469.08
486.249	16421.98
486.453	16061.54
486.657	15758.44
486.861	15770.72
487.065	15076.46
487.269	15244.4
487.473	14818.42
487.677	14910.58
487.881	14613.62
488.085	14152.83
488.289	14109.82
488.493	13413.51
488.697	13610.12
488.901	13286.54
489.105	13112.46
489.309	13059.21
489.512	12844.18
489.716	12481.69
489.92	12217.5
490.124	11904.16
490.328	11994.27
490.531	11609.25
490.735	11508.9
490.939	11248.81
491.143	11070.64
491.346	10833.07
491.55	10640.56
491.754	10482.87
491.958	10470.58
492.161	10187.96
492.365	10040.51
492.569	9845.95
492.772	9567.43
492.976	9766.08
493.18	9374.92
493.383	9245.9
493.587	9264.33
493.79	9194.7
493.994	8881.36
494.197	8885.45
494.401	8967.37
494.605	8559.83
494.808	8705.23
495.012	8408.28
495.215	8676.56
495.419	8565.97
495.622	8244.44
495.825	8355.03
496.029	8131.8
496.232	8180.95
496.436	8101.08
496.639	8301.78
496.843	8154.33
497.046	8187.1
497.249	8342.74
497.453	8180.95
497.656	8004.83
497.859	7994.59
498.063	8150.23
498.266	8297.69
498.469	8060.12
498.673	8244.44
498.876	8279.25
499.079	8248.54
499.282	7984.35
499.485	8449.24
499.689	8508.63
499.892	8504.53
500.095	8191.19
500.298	8367.32
500.501	8250.58
500.705	8365.27
500.908	8643.79
501.111	8772.82
501.314	8729.81
501.517	8942.8
501.72	9049.29
501.923	8936.65
502.126	8944.84
502.329	9395.4
502.532	9331.91
502.735	9293
502.938	9682.11
503.141	9592
503.344	9764.03
503.547	9909.44
503.75	9807.04
503.953	9972.93
504.156	10106.04
504.359	10282.17
504.562	10339.51
504.765	10710.19
504.968	10726.58
505.17	10867.89
505.373	10890.42
505.576	11060.4
505.779	11312.3
505.982	11519.14
506.185	11863.2
506.387	11807.91
506.59	11979.93
506.793	12422.3
506.996	12299.42
507.198	12811.41
507.401	12962.96
507.604	13249.68
507.807	13470.86
508.009	13866.11
508.212	14087.29
508.415	14339.19
508.617	14541.94
508.82	14691.45
509.022	15053.94
509.225	15404.14
509.428	15594.6
509.63	16092.26
509.833	16266.33
510.035	16860.24
510.238	17079.38
510.44	17392.72
510.643	18074.69
510.845	18181.18
511.048	18336.83
511.25	18820.15
511.453	19371.05
511.655	20126.75
511.858	19985.44
512.06	20917.27
512.262	21171.22
512.465	21025.81
512.667	22090.76
512.87	22268.93
513.072	22973.43
513.274	23819.24
513.477	24294.37
513.679	24654.81
513.881	25285.59
514.084	25719.76
514.286	25850.83
514.488	26842.04
514.69	27605.94
514.893	28109.74
515.095	28572.58
515.297	29189.02
515.499	29793.17
515.701	30407.56
515.904	30940.03
516.106	31734.64
516.308	32215.91
516.51	32789.35
516.712	33196.89
516.914	34032.46
517.116	35101.5
517.318	35633.97
517.52	36145.97
517.722	36573.99
517.925	37341.98
518.127	38009.62
518.329	38906.63
518.531	39076.61
518.733	40035.06
518.935	40737.51
519.136	40835.81
519.338	41730.78
519.54	42470.09
519.742	43662.01
519.944	43907.77
520.146	44870.31
520.348	45263.52
520.55	45703.84
520.752	45904.54
520.954	46869.13
521.155	47078.02
521.357	47966.84
521.559	48538.22
521.761	49572.45
521.963	49214.05
522.164	49668.7
522.366	49867.36
522.568	50580.05
522.77	51061.32
522.971	52202.04
523.173	51282.5
523.375	52292.15
523.576	52208.18
523.778	52144.7
523.98	52992.56
524.181	53271.08
524.383	53383.72
524.584	53670.43
524.786	53611.04
524.988	53385.77
525.189	53916.19
525.391	53828.13
525.592	54217.24
525.794	53989.92
525.995	53666.34
526.197	53555.75
526.398	53600.8
526.6	53914.14
526.801	53987.87
527.003	53418.53
527.204	53631.52
527.406	53543.46
527.607	52759.09
527.808	53365.29
528.01	51661.38
528.211	52091.45
528.412	52818.48
528.614	52009.53
528.815	51589.7
529.016	52007.48
529.218	50768.46
529.419	50885.2
529.62	50102.87
529.822	49351.27
530.023	49287.78
530.224	49101.42
530.425	48665.2
530.626	47426.18
530.828	47297.16
531.029	47471.23
531.23	46396.05
531.431	46072.47
531.632	45595.29
531.833	45085.35
532.035	44389.04
532.236	43842.23
532.437	43354.82
532.638	42719.95
532.839	42994.37
533.04	42224.34
533.241	41165.54
533.442	41476.83
533.643	40569.58
533.844	39951.09
534.045	39373.56
534.246	38699.78
534.447	38388.49
534.648	37770
534.849	37565.21
535.05	36875.04
535.251	36277.04
535.451	36066.1
535.652	35248.96
535.853	35068.73
536.054	34761.54
536.255	33975.12
536.456	33223.51
536.657	33553.24
536.857	32506.73
537.058	32058.22
537.259	31855.47
537.46	31486.84
537.66	30765.95
537.861	30905.21
538.062	30344.07
538.263	29817.74
538.463	29254.55
538.664	29047.71
538.865	28756.89
539.065	28601.25
539.266	27888.56
539.466	28154.79
539.667	27300.79
539.868	27128.76
540.068	26733.5
540.269	26213.32
540.469	26031.05
540.67	25897.93
540.87	25598.93
541.071	24880.09
541.271	24835.03
541.472	24785.88
541.672	24112.1
541.873	24067.05
542.073	23661.55
542.274	23765.99
542.474	23428.08
542.675	22985.72
542.875	22731.77
543.075	22490.11
543.276	21865.48
543.476	22375.42
543.676	21652.49
543.877	21435.41
544.077	21369.87
544.277	21382.16
544.478	20804.63
544.678	20517.92
544.878	20433.95
545.078	20122.66
545.279	19575.85
545.479	19326
545.679	19205.17
545.879	19184.69
546.079	19270.7
546.28	18578.49
546.48	18306.11
546.68	18590.78
546.88	18093.12
547.08	18086.98
547.28	17624.14
547.48	17065.04
547.68	17237.07
547.88	16759.89
548.081	16749.65
548.281	16608.34
548.481	16045.15
548.681	16297.05
548.881	16155.74
549.081	15664.23
549.28	15481.96
549.48	15451.24
549.68	15273.07
549.88	15107.18
550.08	14556.28
550.28	14681.21
550.48	14449.78
550.68	14118.01
550.88	13986.94
551.08	13862.02
551.279	13640.84
551.479	13110.41
551.679	13329.55
551.879	12821.65
552.079	13024.4
552.278	12637.33
552.478	12438.68
552.678	12412.06
552.878	12104.86
553.077	11574.44
553.277	11793.57
553.477	11572.39
553.676	11168.94
553.876	11263.15
554.076	11058.35
554.275	10763.44
554.475	10497.21
554.674	10622.13
554.874	10466.49
555.074	10233.02
555.273	9940.16
555.473	9901.25
555.672	9626.82
555.872	9446.6
556.071	9391.3
556.271	9368.77
556.47	9067.72
556.67	9041.1
556.869	8783.06
557.068	8697.04
557.268	8414.42
557.467	8500.44
557.667	8512.72
557.866	8291.54
558.065	7894.24
558.265	8037.59
558.464	7722.21
558.663	7466.21
558.863	7458.02
559.062	7611.62
559.261	7093.48
559.461	7187.69
559.66	7029.99
559.859	6927.6
560.058	6661.36
560.258	6548.72
560.457	6608.11
560.656	6753.52
560.855	6329.59
561.054	6331.64
561.253	6194.42
561.453	6130.94
561.652	6118.65
561.851	6122.74
562.05	5733.63
562.249	5680.38
562.448	5829.88
562.647	5491.97
562.846	5338.37
563.045	5551.36
563.244	5373.19
563.443	5321.99
563.642	5100.81
563.841	4977.93
564.04	5045.51
564.239	5166.34
564.438	4820.24
564.637	4828.43
564.836	4678.93
565.035	4482.32
565.234	4607.25
565.432	4474.13
565.631	4398.35
565.83	4521.23
566.029	4263.19
566.228	4293.91
566.427	4336.92
566.625	3970.33
566.824	4087.06
567.023	3968.28
567.222	3925.27
567.42	3859.74
567.619	3896.6
567.818	3833.11
568.016	3867.93
568.215	3814.68
568.414	3745.05
568.612	3640.61
568.811	3462.43
569.01	3376.42
569.208	3454.24
569.407	3515.68
569.605	3233.06
569.804	3341.6
570.002	3284.26
570.201	3321.12
570.4	3208.48
570.598	3253.54
570.797	3087.65
570.995	3018.02
571.193	3038.5
571.392	2909.48
571.59	2899.24
571.789	2807.08
571.987	2921.77
572.186	2860.33
572.384	2630.96
572.582	2755.88
572.781	2809.13
572.979	2475.31
573.177	2516.27
573.376	2460.98
573.574	2512.18
573.772	2520.37
573.971	2274.61
574.169	2354.48
574.367	2442.54
574.565	2329.91
574.763	2219.32
574.962	2278.71
575.16	2198.84
575.358	2221.36
575.556	2157.88
575.754	2110.77
575.952	2071.86
576.151	2073.91
576.349	2055.48
576.547	1889.59
576.745	1944.89
576.943	1975.61
577.141	1951.03
577.339	1719.61
577.537	2000.18
577.735	1844.54
577.933	1789.24
578.131	1611.07
578.329	1828.15
578.527	1684.8
578.725	1592.64
578.923	1533.25
579.121	1744.19
579.319	1537.34
579.516	1625.4
579.714	1715.52
579.912	1586.49
580.11	1463.62
580.308	1471.81
580.506	1393.98
580.704	1334.59
580.901	1402.18
581.099	1557.82
581.297	1332.54
581.495	1363.26
581.692	1338.69
581.89	1484.09
582.088	1312.07
582.285	1340.74
582.483	1176.9
582.681	1258.82
582.878	1215.81
583.076	1181
583.274	1289.54
583.471	1262.91
583.669	1021.25
583.866	1035.59
584.064	1160.52
584.262	1070.4
584.459	1070.4
584.657	1115.46
584.854	1123.65
585.052	1092.93
585.249	1082.69
585.447	1082.69
585.644	847.18
585.841	1131.84
586.039	1037.64
586.236	1135.94
586.434	1023.3
586.631	1056.07
586.828	861.51
587.026	1019.21
587.223	851.27
587.42	783.69
587.618	927.05
587.815	939.33
588.012	941.38
588.21	877.9
588.407	869.7
588.604	863.56
588.801	736.59
588.999	787.79
589.196	888.14
589.393	683.34
589.59	859.46
589.787	906.57
589.984	855.37
590.182	752.97
590.379	775.5
590.576	761.16
590.773	683.34
590.97	683.34
591.167	761.16
591.364	775.5
591.561	779.59
591.758	847.18
591.955	785.74
592.152	800.07
592.349	705.87
592.546	734.54
592.743	691.53
592.94	658.76
593.137	765.26
593.334	771.4
593.531	818.5
593.727	800.07
593.924	822.6
594.121	757.07
594.318	689.48
594.515	759.11
594.712	888.14
594.908	849.22
595.105	654.67
595.302	757.07
595.499	824.65
595.696	933.19
595.892	810.31
596.089	986.44
596.286	750.92
596.482	951.62
596.679	871.75
596.876	814.41
597.072	941.38
597.269	957.77
597.466	1004.87
597.662	982.34
597.859	1060.17
598.055	1068.36
598.252	1049.93
598.448	1115.46
598.645	1178.95
598.841	1201.47
599.038	1363.26
599.234	1416.51
599.431	1391.94
599.627	1398.08
599.824	1518.91
600.02	1473.85
600.217	1488.19
600.413	1649.98
600.609	1707.32
600.806	1983.8
601.002	1858.87
601.198	1893.69
601.395	1996.09
601.591	2141.49
601.787	2112.82
601.984	2241.84
602.18	2340.15
602.376	2325.81
602.572	2463.02
602.769	2649.39
602.965	2585.9
603.161	2690.35
603.357	2893.1
603.553	3056.93
603.75	2975.02
603.946	3091.75
604.142	3177.76
604.338	3376.42
604.534	3429.66
604.73	3534.11
604.926	3607.84
605.122	3904.79
605.318	3790.11
605.514	4080.92
605.71	4125.97
605.906	4338.96
606.102	4341.01
606.298	4590.86
606.494	4689.17
606.69	4846.86
606.886	4939.02
607.082	4955.4
607.278	5041.42
607.474	5389.57
607.67	5481.73
607.866	5514.5
608.062	6044.92
608.257	5915.9
608.453	6135.03
608.649	6288.63
608.845	6415.6
609.041	6524.15
609.236	6786.29
609.432	7013.61
609.628	7236.84
609.824	7359.72
610.019	7431.4
610.215	7793.89
610.411	8015.07
610.606	8129.75
610.802	8400.09
610.998	8633.55
611.193	8842.45
611.389	8897.74
611.584	9360.58
611.78	9395.4
611.976	9714.88
612.171	10308.79
612.367	10187.96
612.562	10568.88
612.758	10626.23
612.953	10812.59
613.149	11187.37
613.344	11660.45
613.539	12194.97
613.735	12211.35
613.93	12940.43
614.126	12903.57
614.321	13423.75
614.517	13636.74
614.712	13847.68
614.907	14290.04
615.103	14693.49
615.298	15092.85
615.493	15492.2
615.688	15586.41
615.884	16456.79
616.079	16366.68
616.274	17351.76
616.47	17382.48
616.665	17847.37
616.86	18261.05
617.055	18635.83
617.25	19301.42
617.445	19876.9
617.641	19731.5
617.836	20626.46
618.031	20694.04
618.226	21685.26
618.421	21793.8
618.616	22662.14
618.811	22903.8
619.006	23739.37
619.201	24030.18
619.396	24675.29
619.591	24566.75
619.786	25646.03
619.981	26069.96
620.176	26784.7
620.371	27120.57
620.566	27634.61
620.761	28330.92
620.956	29393.81
621.151	29182.87
621.346	30032.78
621.541	30528.39
621.735	31454.07
621.93	31019.9
622.125	32252.78
622.32	32502.63
622.515	33547.09
622.709	33635.16
622.904	34620.23
623.099	35259.2
623.294	35791.67
623.488	36143.92
623.683	37092.13
623.878	37102.37
624.072	38253.33
624.267	38963.97
624.462	39152.38
624.656	39852.79
624.851	40405.74
625.046	40864.49
625.24	41376.48
625.435	42037.97
625.629	42681.03
625.824	43025.09
626.018	43625.15
626.213	43348.67
626.407	44991.14
626.602	44516.01
626.796	45554.33
626.991	46002.84
627.185	46381.71
627.38	46955.14
627.574	46598.8
627.768	47020.68
627.963	47293.06
628.157	47262.34
628.352	47997.56
628.546	47354.5
628.74	48024.18
628.935	47485.57
629.129	47280.77
629.323	47039.11
629.517	47336.07
629.712	46922.38
629.906	46822.03
630.1	45957.78
630.294	45978.26
630.489	44952.23
630.683	44892.84
630.877	43516.61
631.071	42887.88
631.265	42689.23
631.459	41908.95
631.653	40745.7
631.848	40049.39
632.042	39103.23
632.236	38368.01
632.43	37372.7
632.624	36651.81
632.818	34933.57
633.012	34034.51
633.206	32985.95
633.4	32279.4
633.594	30858.11
633.788	30280.58
633.982	29033.37
634.176	28136.36
634.369	26899.39
634.563	25906.12
634.757	24804.31
634.951	24222.69
635.145	23221.24
635.339	22180.87
635.533	21548.04
635.726	20642.84
635.92	19543.08
636.114	18824.25
636.308	17904.71
636.501	17407.05
636.695	16847.96
636.889	15817.83
637.083	15289.45
637.276	14580.85
637.47	14060.67
637.664	13397.13
637.857	12899.47
638.051	12524.69
638.244	12031.13
638.438	11562.15
638.632	11164.84
638.825	10740.91
639.019	10298.55
639.212	9694.4
639.406	9555.14
639.599	8836.3
639.793	8699.09
639.986	8303.83
640.18	8148.19
640.373	7650.53
640.567	7462.12
640.76	7171.3
640.954	6968.55
641.147	6626.54
641.34	6358.26
641.534	5926.14
641.727	6001.91
641.92	5801.21
642.114	5375.24
642.307	5295.36
642.5	5018.89
642.694	4715.79
642.887	4685.07
643.08	4506.9
643.273	4435.22
643.467	4226.32
643.66	3786.01
643.853	3728.67
644.046	3644.7
644.239	3527.97
644.432	3343.65
644.626	3388.71
644.819	3067.17
645.012	3185.96
645.205	2929.96
645.398	2770.22
645.591	2616.62
645.784	2622.77
645.977	2481.46
646.17	2469.17
646.363	2366.77
646.556	2202.93
646.749	2030.9
646.942	2065.72
647.135	2012.47
647.328	1989.94
647.521	1936.7
647.714	1697.08
647.907	1733.95
648.099	1674.56
648.292	1580.35
648.485	1535.29
648.678	1457.47
648.871	1430.85
649.064	1469.76
649.256	1264.96
649.449	1287.49
649.642	1099.08
649.835	1168.71
650.027	1074.5
650.22	1181
650.413	1023.3
650.605	1109.32
650.798	918.86
650.991	900.42
651.183	1023.3
651.376	976.2
651.568	931.14
651.761	832.84
651.954	824.65
652.146	775.5
652.339	789.83
652.531	824.65
652.724	730.44
652.916	623.95
653.109	623.95
653.301	673.1
653.494	752.97
653.686	673.1
653.879	662.86
654.071	611.66
654.263	558.41
654.456	544.08
654.648	603.47
654.84	576.84
655.033	554.32
655.225	634.19
655.417	390.48
655.61	580.94
655.802	511.31
655.994	613.71
656.186	361.81
656.379	564.56
656.571	386.38
656.763	394.58
656.955	339.28
657.148	376.14
657.34	456.01
657.532	359.76
657.724	324.94
657.916	322.9
658.108	410.96
658.3	431.44
658.492	394.58
658.684	367.95
658.876	365.9
659.068	339.28
659.26	181.59
659.452	251.22
659.644	310.61
659.836	396.62
660.028	370
660.22	281.94
660.412	310.61
660.604	326.99
660.796	290.13
660.988	372.05
661.18	271.7
661.372	335.18
661.563	226.64
661.755	283.98
661.947	154.96
662.139	163.15
662.331	243.03
662.522	310.61
662.714	177.49
662.906	247.12
663.097	183.63
663.289	177.49
663.481	134.48
663.673	302.42
663.864	191.83
664.056	228.69
664.247	132.44
664.439	251.22
664.631	206.16
664.822	265.55
665.014	277.84
665.205	150.87
665.397	159.06
665.588	197.97
665.78	214.35
665.971	177.49
666.163	85.33
666.354	183.63
666.546	91.48
666.737	120.15
666.929	130.39
667.12	243.03
667.311	195.92
667.503	208.21
667.694	204.11
667.885	159.06
668.077	165.2
668.268	-12.97
668.459	165.2
668.651	159.06
668.842	216.4
669.033	46.42
669.224	56.66
669.416	333.14
669.607	130.39
669.798	122.2
669.989	226.64
670.18	163.15
670.371	189.78
670.563	79.19
670.754	308.56
670.945	171.35
671.136	212.31
671.327	101.72
671.518	202.07
671.709	347.47
671.9	216.4
672.091	208.21
672.282	142.68
672.473	109.91
672.664	122.2
672.855	144.72
673.046	214.35
673.237	251.22
673.428	159.06
673.619	216.4
673.809	193.87
674	234.83
674.191	261.46
674.382	132.44
674.573	169.3
674.764	154.96
674.954	230.74
675.145	85.33
675.336	130.39
675.527	128.34
675.717	68.95
675.908	200.02
676.099	118.1
676.289	226.64
676.48	46.42
676.671	228.69
676.861	77.14
677.052	148.82
677.243	216.4
677.433	105.81
677.624	234.83
677.814	134.48
678.005	163.15
678.195	253.27
678.386	40.28
678.576	161.11
678.767	87.38
678.957	122.2
679.148	259.41
679.338	273.75
679.529	185.68
679.719	175.44
679.909	218.45
680.1	265.55
680.29	238.93
680.481	85.33
680.671	204.11
680.861	173.39
681.052	200.02
681.242	136.53
681.432	154.96
681.622	200.02
681.813	103.76
682.003	218.45
682.193	177.49
682.383	193.87
682.573	191.83
682.764	124.24
682.954	169.3
683.144	238.93
683.334	228.69
683.524	103.76
683.714	181.59
683.904	187.73
684.094	132.44
684.284	138.58
684.474	261.46
684.664	163.15
684.854	161.11
685.044	103.76
685.234	157.01
685.424	204.11
685.614	144.72
685.804	363.86
685.994	259.41
686.184	214.35
686.374	255.31
686.564	136.53
686.753	200.02
686.943	150.87
687.133	128.34
687.323	247.12
687.513	230.74
687.702	185.68
687.892	146.77
688.082	312.66
688.272	247.12
688.461	240.98
688.651	382.29
688.841	238.93
689.03	191.83
689.22	206.16
689.41	234.83
689.599	181.59
689.789	189.78
689.979	337.23
690.168	218.45
690.358	261.46
690.547	202.07
690.737	218.45
690.926	204.11
691.116	220.5
691.305	294.22
691.495	185.68
691.684	114
691.874	136.53
692.063	216.4
692.252	271.7
692.442	234.83
692.631	177.49
692.82	228.69
693.01	144.72
693.199	257.36
693.388	171.35
693.578	177.49
693.767	220.5
693.956	157.01
694.146	195.92
694.335	236.88
694.524	138.58
694.713	257.36
694.902	193.87
695.092	210.26
695.281	197.97
695.47	193.87
695.659	175.44
695.848	191.83
696.037	136.53
696.226	263.51
696.415	118.1
696.604	208.21
696.793	288.08
696.982	150.87
697.171	359.76
697.36	105.81
697.549	249.17
697.738	56.66
697.927	114
698.116	118.1
698.305	220.5
698.494	157.01
698.683	118.1
698.872	251.22
699.061	148.82
699.25	154.96
699.438	228.69
699.627	124.24
699.816	283.98
700.005	191.83
700.193	144.72
700.382	189.78
700.571	200.02
700.76	294.22
700.948	283.98
701.137	195.92
701.326	269.65
701.514	111.96
701.703	214.35
701.892	132.44
702.08	353.62
702.269	134.48
702.457	134.48
702.646	195.92
702.834	171.35
703.023	259.41
703.212	234.83
703.4	179.54
703.589	255.31
703.777	167.25
703.965	187.73
704.154	157.01
704.342	130.39
704.531	197.97
704.719	204.11
704.907	259.41
705.096	126.29
705.284	193.87
705.472	240.98
705.661	220.5
705.849	214.35
706.037	310.61
706.226	236.88
706.414	159.06
706.602	161.11
706.79	271.7
706.979	189.78
707.167	210.26
707.355	87.38
707.543	300.37
707.731	220.5
707.919	171.35
708.107	157.01
708.296	75.09
708.484	105.81
708.672	206.16
708.86	269.65
709.048	200.02
709.236	62.8
709.424	163.15
709.612	177.49
709.8	171.35
709.988	185.68
710.176	232.79
710.364	306.51
710.551	161.11
710.739	193.87
710.927	200.02
711.115	173.39
711.303	273.75
711.491	286.03
711.679	183.63
711.866	240.98
712.054	77.14
712.242	152.91
712.43	343.38
712.617	204.11
712.805	263.51
712.993	167.25
713.181	101.72
713.368	273.75
713.556	245.07
713.744	167.25
713.931	359.76
714.119	273.75
714.306	159.06
714.494	142.68
714.682	218.45
714.869	214.35
715.057	206.16
715.244	105.81
715.432	279.89
715.619	91.48
715.807	202.07
715.994	111.96
716.182	234.83
716.369	212.31
716.556	275.79
716.744	185.68
716.931	93.52
717.119	238.93
717.306	150.87
717.493	226.64
717.681	101.72
717.868	138.58
718.055	185.68
718.242	187.73
718.43	167.25
718.617	302.42
718.804	236.88
718.991	263.51
719.179	259.41
719.366	236.88
719.553	185.68
719.74	169.3
719.927	148.82
720.114	175.44
720.301	116.05
720.488	152.91
720.676	46.42
720.863	294.22
721.05	359.76
721.237	318.8
721.424	296.27
721.611	179.54
721.798	142.68
721.985	171.35
722.172	152.91
722.358	271.7
722.545	275.79
722.732	271.7
722.919	259.41
723.106	255.31
723.293	224.59
723.48	206.16
723.667	165.2
723.853	257.36
724.04	253.27
724.227	326.99
724.414	130.39
724.6	251.22
724.787	318.8
724.974	320.85
725.161	236.88
725.347	183.63
725.534	214.35
725.72	214.35
725.907	265.55
726.094	275.79
726.28	238.93
726.467	208.21
726.653	46.42
726.84	333.14
727.027	339.28
727.213	224.59
727.4	255.31
727.586	261.46
727.773	243.03
727.959	191.83
728.145	171.35
728.332	197.97
728.518	165.2
728.705	318.8
728.891	281.94
729.077	273.75
729.264	224.59
729.45	159.06
729.636	337.23
729.823	159.06
730.009	290.13
730.195	197.97
730.382	240.98
730.568	204.11
730.754	257.36
730.94	169.3
731.126	218.45
731.313	279.89
731.499	154.96
731.685	245.07
731.871	243.03
732.057	292.18
732.243	353.62
732.429	236.88
732.615	337.23
732.801	271.7
732.987	159.06
733.173	261.46
733.359	200.02
733.545	255.31
733.731	185.68
733.917	259.41
734.103	228.69
734.289	275.79
734.475	152.91
734.661	400.72
734.847	206.16
735.033	290.13
735.219	312.66
735.404	134.48
735.59	179.54
735.776	171.35
735.962	202.07
736.148	245.07
736.333	372.05
736.519	275.79
736.705	208.21
736.89	257.36
737.076	275.79
737.262	165.2
737.447	249.17
737.633	197.97
737.819	228.69
738.004	273.75
738.19	208.21
738.375	263.51
738.561	257.36
738.747	286.03
738.932	222.55
739.118	372.05
739.303	384.34
739.489	277.84
739.674	208.21
739.859	89.43
740.045	316.75
740.23	267.6
740.416	56.66
740.601	200.02
740.786	216.4
740.972	109.91
741.157	134.48
741.342	228.69
741.528	204.11
741.713	318.8
741.898	263.51
742.084	210.26
742.269	259.41
742.454	277.84
742.639	310.61
742.824	228.69
743.01	259.41
743.195	308.56
743.38	236.88
743.565	243.03
743.75	259.41
743.935	275.79
744.12	322.9
744.305	169.3
744.49	238.93
744.675	249.17
744.86	134.48
745.045	232.79
745.23	181.59
745.415	169.3
745.6	294.22
745.785	191.83
745.97	224.59
746.155	281.94
746.34	240.98
746.525	251.22
746.71	288.08
746.895	159.06
747.079	132.44
747.264	210.26
747.449	273.75
747.634	292.18
747.819	218.45
748.003	191.83
748.188	185.68
748.373	267.6
748.557	157.01
748.742	236.88
748.927	204.11
749.111	179.54
749.296	212.31
749.481	187.73
749.665	214.35
749.85	220.5
750.034	247.12
750.219	159.06
750.404	269.65
750.588	279.89
750.773	111.96
750.957	167.25
751.141	204.11
751.326	154.96
751.51	150.87
751.695	210.26
751.879	183.63
752.064	263.51
752.248	122.2
752.432	263.51
752.617	240.98
752.801	236.88
752.985	202.07
753.17	249.17
753.354	202.07
753.538	177.49
753.722	114
753.907	140.63
754.091	36.18
754.275	232.79
754.459	71
754.643	93.52
754.828	183.63
755.012	171.35
755.196	118.1
755.38	171.35
755.564	116.05
755.748	159.06
755.932	243.03
756.116	130.39
756.3	191.83
756.484	195.92
756.668	240.98
756.852	-66.22
757.036	128.34
757.22	206.16
757.404	91.48
757.588	87.38
757.772	138.58
757.956	167.25
758.14	195.92
758.323	93.52
758.507	171.35
758.691	183.63
758.875	197.97
759.059	230.74
759.242	134.48
759.426	150.87
759.61	116.05
759.794	111.96
759.977	185.68
760.161	417.1
760.345	275.79
760.528	228.69
760.712	128.34
760.895	132.44
761.079	132.44
761.263	97.62
761.446	79.19
761.63	42.32
761.813	167.25
761.997	75.09
762.18	87.38
762.364	208.21
762.547	52.56
762.731	62.8
762.914	154.96
763.098	97.62
763.281	148.82
763.464	71
763.648	134.48
763.831	122.2
764.015	83.28
764.198	202.07
764.381	109.91
764.564	146.77
764.748	124.24
764.931	116.05
765.114	40.28
765.297	222.55
765.481	101.72
765.664	157.01
765.847	114
766.03	236.88
766.213	-6.83
766.397	91.48
766.58	19.8
766.763	118.1
766.946	36.18
767.129	7.51
767.312	136.53
767.495	103.76
767.678	-8.87
767.861	161.11
768.044	58.71
768.227	93.52
768.41	93.52
768.593	134.48
768.776	-6.83
768.959	71
769.142	197.97
769.324	114
769.507	58.71
769.69	48.47
769.873	32.08
770.056	267.6
770.239	114
770.421	103.76
770.604	148.82
770.787	89.43
770.97	128.34
771.152	38.23
771.335	220.5
771.518	27.99
771.7	189.78
771.883	150.87
772.066	48.47
772.248	89.43
772.431	91.48
772.613	226.64
772.796	97.62
772.978	177.49
773.161	234.83
773.343	52.56
773.526	13.65
773.708	-53.93
773.891	7.51
774.073	87.38
774.256	13.65
774.438	247.12
774.621	-0.68
774.803	109.91
774.985	95.57
775.168	73.04
775.35	58.71
775.532	169.3
775.715	44.37
775.897	163.15
776.079	134.48
776.261	179.54
776.444	66.9
776.626	87.38
776.808	99.67
776.99	36.18
777.173	32.08
777.355	64.85
777.537	95.57
777.719	42.32
777.901	81.24
778.083	89.43
778.265	-15.02
778.447	157.01
778.629	15.7
778.811	36.18
778.993	87.38
779.175	251.22
779.357	99.67
779.539	-55.98
779.721	75.09
779.903	68.95
780.085	60.76
780.267	11.61
780.449	75.09
780.631	122.2
780.812	171.35
780.994	109.91
781.176	99.67
781.358	11.61
781.54	36.18
781.721	114
781.903	25.94
782.085	15.7
782.267	122.2
782.448	-27.31
782.63	54.61
782.812	114
782.993	101.72
783.175	124.24
783.357	25.94
783.538	81.24
783.72	-27.31
783.901	73.04
784.083	87.38
784.264	79.19
784.446	-78.51
784.627	-0.68
784.809	30.04
784.99	25.94
785.172	34.13
785.353	126.29
785.535	50.52
785.716	91.48
785.897	62.8
786.079	73.04
786.26	81.24
786.441	118.1
786.623	-62.12
786.804	-35.5
786.985	54.61
787.167	66.9
787.348	11.61
787.529	13.65
787.71	150.87
787.891	93.52
788.073	73.04
788.254	-4.78
788.435	206.16
788.616	13.65
788.797	-41.64
788.978	103.76
789.159	-6.83
789.34	132.44
789.522	64.85
789.703	15.7
789.884	-23.21
790.065	32.08
790.246	150.87
790.427	-19.11
790.607	161.11
790.788	118.1
790.969	17.75
791.15	126.29
791.331	11.61
791.512	54.61
791.693	-41.64
791.874	42.32
792.054	185.68
792.235	97.62
792.416	38.23
792.597	3.41
792.778	120.15
792.958	32.08
793.139	64.85
793.32	13.65
793.5	-86.7
793.681	118.1
793.862	128.34
794.042	91.48
794.223	-49.83
794.404	40.28
794.584	-101.03
794.765	40.28
794.945	34.13
795.126	99.67
795.306	68.95
795.487	66.9
795.667	46.42
795.848	48.47
796.028	17.75
796.209	52.56
796.389	124.24
796.57	-10.92
796.75	19.8
796.93	-37.55
797.111	9.56
797.291	5.46
797.471	-21.16
797.652	-21.16
797.832	15.7
798.012	30.04
798.192	60.76
798.373	-86.7
798.553	27.99
798.733	56.66
798.913	-37.55
799.093	5.46
799.274	87.38
799.454	83.28
799.634	114
799.814	101.72
799.994	30.04
800.174	126.29
800.354	62.8
800.534	-6.83
800.714	77.14
800.894	-49.83
801.074	-25.26
801.254	-12.97
801.434	89.43
801.614	-84.65
801.794	71
801.974	1729.85
802.154	-29.35
802.334	58.71
802.514	-25.26
802.693	27.99
802.873	-25.26
803.053	161.11
803.233	52.56
803.413	-21.16
803.592	17.75
803.772	-4.78
803.952	81.24
804.131	-45.74
804.311	48.47
804.491	152.91
804.67	-41.64
804.85	-27.31
805.03	-23.21
805.209	107.86
805.389	-10.92
805.568	-45.74
805.748	71
805.928	30.04
806.107	91.48
806.287	46.42
806.466	138.58
806.646	48.47
806.825	118.1
807.004	-25.26
807.184	25.94
807.363	95.57
807.543	91.48
807.722	-66.22
807.901	79.19
808.081	109.91
808.26	-168.62
808.439	140.63
808.619	-17.07
808.798	-15.02
808.977	17.75
809.156	138.58
809.336	5.46
809.515	44.37
809.694	-60.07
809.873	-25.26
810.052	91.48
810.231	138.58
810.411	81.24
810.59	101.72
810.769	-35.5
810.948	66.9
811.127	-64.17
811.306	15.7
811.485	32.08
811.664	177.49
811.843	23.89
812.022	17.75
812.201	62.8
812.38	11.61
812.559	3.41
812.737	-43.69
812.916	-47.79
813.095	-6.83
813.274	132.44
813.453	3.41
813.632	83.28
813.811	101.72
813.989	-47.79
814.168	46.42
814.347	17.75
814.526	44.37
814.704	161.11
814.883	89.43
815.062	-33.45
815.24	114
815.419	-15.02
815.598	87.38
815.776	-29.35
815.955	19.8
816.133	-105.13
816.312	48.47
816.49	34.13
816.669	-53.93
816.847	-19.11
817.026	-0.68
817.204	-21.16
817.383	7.51
817.561	40.28
817.74	-41.64
817.918	62.8
818.097	30.04
818.275	21.85
818.453	50.52
818.632	-12.97
818.81	58.71
818.988	89.43
819.167	-2.73
819.345	27.99
819.523	-19.11
819.701	-25.26
819.879	58.71
820.058	38.23
820.236	32.08
820.414	75.09
820.592	-23.21
820.77	30.04
820.948	-68.27
821.127	34.13
821.305	68.95
821.483	-41.64
821.661	77.14
821.839	101.72
822.017	-35.5
822.195	-4.78
822.373	97.62
822.551	30.04
822.729	58.71
822.907	-27.31
823.085	54.61
823.262	23.89
823.44	27.99
823.618	73.04
823.796	5.46
823.974	36.18
824.152	3.41
824.329	83.28
824.507	68.95
824.685	89.43
824.863	77.14
825.04	103.76
825.218	130.39
825.396	75.09
825.574	-2.73
825.751	23.89
825.929	66.9
826.107	5.46
826.284	15.7
826.462	120.15
826.639	-2.73
826.817	-29.35
826.994	-6.83
827.172	-4.78
827.349	64.85
827.527	42.32
827.704	-53.93
827.882	116.05
828.059	32.08
828.237	50.52
828.414	111.96
828.591	-96.94
828.769	-10.92
828.946	27.99
829.124	124.24
829.301	38.23
829.478	-76.46
829.655	25.94
829.833	-51.88
830.01	-66.22
830.187	19.8
830.364	3.41
830.542	30.04
830.719	148.82
830.896	48.47
831.073	23.89
831.25	13.65
831.427	7.51
831.604	46.42
831.782	13.65
831.959	83.28
832.136	-68.27
832.313	81.24
832.49	-2.73
832.667	19.8
832.844	-19.11
833.021	85.33
833.198	56.66
833.374	46.42
833.551	103.76
833.728	27.99
833.905	73.04
834.082	-127.66
834.259	19.8
834.436	62.8
834.612	-53.93
834.789	87.38
834.966	-0.68
835.143	85.33
835.319	-45.74
835.496	58.71
835.673	87.38
835.85	73.04
836.026	15.7
836.203	64.85
836.38	-27.31
836.556	-41.64
836.733	17.75
836.909	107.86
837.086	3.41
837.262	-174.76
837.439	9.56
837.616	11.61
837.792	5.46
837.968	19.8
838.145	-113.32
838.321	73.04
838.498	-0.68
838.674	60.76
838.851	3.41
839.027	-21.16
839.203	-21.16
839.38	54.61
839.556	-31.4
839.732	132.44
839.909	1.37
840.085	126.29
840.261	-45.74
840.437	27.99
840.614	-123.56
840.79	36.18
840.966	81.24
841.142	-25.26
841.318	-6.83
841.494	36.18
841.671	105.81
841.847	-37.55
842.023	27.99
842.199	-6.83
842.375	128.34
842.551	-47.79
842.727	-84.65
842.903	206.16
843.079	-211.62
843.255	-8.87
843.431	15.7
843.607	-8.87
843.783	-101.03
843.959	58.71
844.134	-86.7
844.31	154.96
844.486	-35.5
844.662	-53.93
844.838	-29.35
845.013	77.14
845.189	138.58
845.365	42.32
845.541	17.75
845.716	15.7
845.892	48.47
846.068	-35.5
846.244	-35.5
846.419	42.32
846.595	-43.69
846.77	46.42
846.946	140.63
847.122	-2.73
847.297	-37.55
847.473	185.68
847.648	-84.65
847.824	87.38
847.999	-70.31
848.175	-58.03
848.35	91.48
848.526	136.53
848.701	99.67
848.876	56.66
849.052	95.57
849.227	-25.26
849.403	-35.5
849.578	7.51
849.753	25.94
849.929	-41.64
850.104	-43.69
850.279	-8.87
850.454	21.85
850.63	68.95
850.805	9.56
850.98	-2.73
851.155	66.9
851.33	30.04
851.505	-62.12
851.681	148.82
851.856	-51.88
852.031	46.42
852.206	-2.73
852.381	-17.07
852.556	-2.73
852.731	9.56
852.906	58.71
853.081	-6.83
853.256	116.05
853.431	-51.88
853.606	-12.97
853.781	-12.97
853.956	-90.79
854.131	15.7
854.305	-74.41
854.48	-37.55
854.655	-31.4
854.83	-21.16
855.005	-33.45
855.18	95.57
855.354	-2.73
855.529	68.95
855.704	3.41
855.879	58.71
856.053	-49.83
856.228	13.65
856.403	-51.88
856.577	9.56
856.752	-19.11
856.926	-12.97
857.101	15.7
857.276	-70.31
857.45	34.13
857.625	85.33
857.799	107.86
857.974	-43.69
858.148	-15.02
858.323	42.32
858.497	36.18
858.672	-39.59
858.846	-43.69
859.02	68.95
859.195	-43.69
859.369	11.61
859.543	19.8
859.718	13.65
859.892	52.56
860.066	13.65
860.241	-90.79
860.415	-23.21
860.589	-12.97
860.763	36.18
860.938	-43.69
861.112	60.76
861.286	-43.69
861.46	-35.5
861.634	-2.73
861.808	105.81
861.982	27.99
862.157	-45.74
862.331	-60.07
862.505	-12.97
862.679	-41.64
862.853	-82.6
863.027	-37.55
863.201	152.91
863.375	-21.16
863.549	25.94
863.722	77.14
863.896	169.3
864.07	-55.98
864.244	3.41
864.418	46.42
864.592	68.95
864.766	21.85
864.939	73.04
865.113	1.37
865.287	99.67
865.461	-90.79
865.634	17.75
865.808	-43.69
865.982	-2.73
866.156	-121.51
866.329	-62.12
866.503	-29.35
866.676	66.9
866.85	-37.55
867.024	-53.93
867.197	71
867.371	25.94
867.544	5.46
867.718	-33.45
867.891	150.87
868.065	-80.55
868.238	27.99
868.412	73.04
868.585	9.56
868.759	-8.87
868.932	-80.55
869.105	-43.69
869.279	54.61
869.452	-29.35
869.625	118.1
869.799	21.85
869.972	-105.13
870.145	7.51
870.319	89.43
870.492	-17.07
870.665	-21.16
870.838	-37.55
871.011	-80.55
871.185	56.66
871.358	-12.97
871.531	-27.31
871.704	-84.65
871.877	25.94
872.05	30.04
872.223	-84.65
872.396	64.85
872.569	-12.97
872.742	-125.61
872.915	13.65
873.088	-6.83
873.261	-68.27
873.434	111.96
873.607	11.61
873.78	46.42
873.953	-23.21
874.126	44.37
874.299	11.61
874.471	-31.4
874.644	-27.31
874.817	-27.31
874.99	122.2
875.163	-6.83
875.335	58.71
875.508	3.41
875.681	89.43
875.853	-29.35
876.026	-17.07
876.199	25.94
876.371	5.46
876.544	9.56
876.717	-31.4
876.889	1.37
877.062	54.61
877.234	-35.5
877.407	-72.36
877.579	9.56
877.752	21.85
877.924	52.56
878.097	50.52
878.269	58.71
878.442	3.41
878.614	-55.98
878.786	9.56
878.959	11.61
879.131	-47.79
879.303	-117.42
879.476	25.94
879.648	23.89
879.82	27.99
879.993	64.85
880.165	9.56
880.337	-68.27
880.509	-19.11
880.681	-90.79
880.854	-119.46
881.026	66.9
881.198	148.82
881.37	64.85
881.542	1.37
881.714	-70.31
881.886	-33.45
882.058	40.28
882.23	79.19
882.402	-2.73
882.574	83.28
882.746	107.86
882.918	97.62
883.09	56.66
883.262	64.85
883.434	60.76
883.606	-45.74
883.778	-15.02
883.95	128.34
884.122	-2.73
884.293	62.8
884.465	79.19
884.637	99.67
884.809	-8.87
884.98	13.65
885.152	-6.83
885.324	144.72
885.496	-12.97
885.667	-72.36
885.839	-10.92
886.011	62.8
886.182	77.14
886.354	103.76
886.525	56.66
886.697	-0.68
886.869	-137.9
887.04	-98.99
887.212	120.15
887.383	193.87
887.555	11.61
887.726	30.04
887.897	-31.4
888.069	5.46
888.24	17.75
888.412	-23.21
888.583	-23.21
888.754	11.61
888.926	-94.89
889.097	11.61
889.268	-121.51
889.44	44.37
889.611	-12.97
889.782	-41.64
889.953	-51.88
890.125	75.09
890.296	-43.69
890.467	-88.75
890.638	3.41
890.809	40.28
890.98	-8.87
891.151	19.8
891.323	101.72
891.494	40.28
891.665	36.18
891.836	-17.07
892.007	5.46
892.178	5.46
892.349	-10.92
892.52	-92.84
892.691	48.47
892.862	21.85
893.032	-25.26
893.203	-37.55
893.374	68.95
893.545	79.19
893.716	-53.93
893.887	1.37
894.057	30.04
894.228	-2.73
894.399	19.8
894.57	120.15
894.74	-21.16
894.911	25.94
895.082	5.46
895.253	-45.74
895.423	38.23
895.594	101.72
895.764	38.23
895.935	-19.11
896.106	-8.87
896.276	3.41
896.447	25.94
896.617	-33.45
896.788	-92.84
896.958	-21.16
897.129	9.56
897.299	-94.89
897.47	128.34
897.64	89.43
897.81	-49.83
897.981	32.08
898.151	-10.92
898.322	48.47
898.492	56.66
898.662	-49.83
898.832	-31.4
899.003	-19.11
899.173	27.99
899.343	-74.41
899.513	-84.65
