Data from USB4F104151__211__11-05-48-929.txt Node

Date: Wed Feb 26 11:05:48 EST 2025
User: louis
Spectrometer: USB4F10415
Trigger mode: 4
Integration Time (sec): 1.000000E-1
Scans to average: 1
Electric dark correction enabled: true
Nonlinearity correction enabled: false
Boxcar width: 0
XAxis mode: Wavelengths
Number of Pixels in Spectrum: 3648
>>>>>Begin Spectral Data<<<<<
178.204	-427.34
178.424	-427.34
178.644	-427.34
178.864	-435.53
179.084	-390.48
179.304	23.21
179.524	-32.08
179.744	-5.46
179.964	2.73
180.184	21.16
180.404	119.46
180.624	-30.04
180.844	-38.23
181.064	-128.34
181.283	6.83
181.503	-9.56
181.723	70.31
181.943	-114
182.163	178.86
182.383	10.92
182.602	-44.37
182.822	60.07
183.042	68.27
183.262	-99.67
183.482	-9.56
183.701	8.87
183.921	41.64
184.141	-120.15
184.361	94.89
184.58	103.08
184.8	2.73
185.02	-38.23
185.239	90.79
185.459	-17.75
185.679	55.98
185.898	-146.77
186.118	12.97
186.338	17.07
186.557	12.97
186.777	-87.38
186.997	2.73
187.216	6.83
187.436	185
187.655	29.35
187.875	64.17
188.095	-19.8
188.314	107.18
188.534	51.88
188.753	-71
188.973	29.35
189.192	154.28
189.412	0.68
189.631	0.68
189.851	168.62
190.07	166.57
190.29	-73.04
190.509	-25.94
190.729	2.73
190.948	98.99
191.168	232.1
191.387	111.27
191.607	-1.37
191.826	17.07
192.045	60.07
192.265	33.45
192.484	31.4
192.704	29.35
192.923	-81.24
193.142	154.28
193.362	39.59
193.581	172.71
193.8	82.6
194.02	55.98
194.239	-66.9
194.458	37.55
194.678	17.07
194.897	-105.81
195.116	39.59
195.335	-58.71
195.555	31.4
195.774	-21.85
195.993	111.27
196.212	-56.66
196.432	6.83
196.651	-58.71
196.87	-52.56
197.089	215.72
197.308	25.26
197.528	58.03
197.747	8.87
197.966	2.73
198.185	68.27
198.404	33.45
198.623	133.8
198.842	66.22
199.062	27.31
199.281	19.11
199.5	49.83
199.719	39.59
199.938	27.31
200.157	160.42
200.376	53.93
200.595	64.17
200.814	6.83
201.033	25.26
201.252	127.66
201.471	-19.8
201.69	76.46
201.909	-79.19
202.128	47.79
202.347	8.87
202.566	-3.41
202.785	-99.67
203.004	27.31
203.223	307.88
203.442	19.11
203.661	-62.8
203.879	45.74
204.098	107.18
204.317	-48.47
204.536	68.27
204.755	78.51
204.974	117.42
205.193	-21.85
205.411	160.42
205.63	92.84
205.849	115.37
206.068	6.83
206.287	-46.42
206.505	148.14
206.724	47.79
206.943	-9.56
207.162	-32.08
207.381	60.07
207.599	4.78
207.818	29.35
208.037	-52.56
208.255	39.59
208.474	84.65
208.693	84.65
208.911	-52.56
209.13	117.42
209.349	19.11
209.567	107.18
209.786	62.12
210.005	62.12
210.223	55.98
210.442	-99.67
210.661	12.97
210.879	86.7
211.098	70.31
211.316	86.7
211.535	70.31
211.753	-21.85
211.972	113.32
212.191	-17.75
212.409	0.68
212.628	156.33
212.846	-111.96
213.065	21.16
213.283	133.8
213.502	31.4
213.72	17.07
213.938	41.64
214.157	109.23
214.375	113.32
214.594	-3.41
214.812	31.4
215.031	-1.37
215.249	174.76
215.467	47.79
215.686	-50.52
215.904	113.32
216.122	76.46
216.341	176.81
216.559	6.83
216.778	103.08
216.996	150.18
217.214	-1.37
217.432	31.4
217.651	-165.2
217.869	-17.75
218.087	15.02
218.306	-23.89
218.524	-13.65
218.742	27.31
218.96	88.75
219.179	27.31
219.397	8.87
219.615	189.1
219.833	127.66
220.051	-32.08
220.27	90.79
220.488	131.75
220.706	111.27
220.924	25.26
221.142	-11.61
221.36	41.64
221.578	49.83
221.796	-3.41
222.015	-13.65
222.233	72.36
222.451	105.13
222.669	6.83
222.887	62.12
223.105	-1.37
223.323	-27.99
223.541	19.11
223.759	47.79
223.977	29.35
224.195	158.38
224.413	6.83
224.631	78.51
224.849	76.46
225.067	182.95
225.285	49.83
225.503	-71
225.721	-132.44
225.939	70.31
226.157	-3.41
226.375	246.44
226.592	-62.8
226.81	-15.7
227.028	113.32
227.246	178.86
227.464	29.35
227.682	55.98
227.9	-5.46
228.117	45.74
228.335	88.75
228.553	62.12
228.771	-30.04
228.989	15.02
229.206	76.46
229.424	-13.65
229.642	4.78
229.86	-23.89
230.077	101.03
230.295	72.36
230.513	43.69
230.731	31.4
230.948	199.34
231.166	133.8
231.384	-54.61
231.601	-36.18
231.819	164.52
232.037	39.59
232.254	-99.67
232.472	-38.23
232.689	2.73
232.907	68.27
233.125	-50.52
233.342	-11.61
233.56	-54.61
233.777	21.16
233.995	43.69
234.213	78.51
234.43	148.14
234.648	-1.37
234.865	-7.51
235.083	45.74
235.3	33.45
235.518	101.03
235.735	127.66
235.953	49.83
236.17	-25.94
236.388	-7.51
236.605	2.73
236.822	119.46
237.04	88.75
237.257	64.17
237.475	-42.32
237.692	25.26
237.909	64.17
238.127	-5.46
238.344	111.27
238.562	60.07
238.779	21.16
238.996	-68.95
239.214	51.88
239.431	41.64
239.648	-7.51
239.865	109.23
240.083	64.17
240.3	-7.51
240.517	51.88
240.735	21.16
240.952	117.42
241.169	98.99
241.386	8.87
241.603	55.98
241.821	-101.72
242.038	109.23
242.255	90.79
242.472	-130.39
242.689	82.6
242.907	39.59
243.124	45.74
243.341	12.97
243.558	-5.46
243.775	-40.28
243.992	-30.04
244.209	72.36
244.426	158.38
244.643	64.17
244.86	-71
245.078	74.41
245.295	31.4
245.512	10.92
245.729	45.74
245.946	51.88
246.163	64.17
246.38	-81.24
246.597	15.02
246.814	-3.41
247.031	-27.99
247.248	-38.23
247.464	88.75
247.681	-21.85
247.898	74.41
248.115	72.36
248.332	12.97
248.549	101.03
248.766	256.68
248.983	96.94
249.2	47.79
249.417	58.03
249.633	-27.99
249.85	107.18
250.067	-21.85
250.284	62.12
250.501	-9.56
250.717	135.85
250.934	-56.66
251.151	19.11
251.368	-1.37
251.585	58.03
251.801	-17.75
252.018	2.73
252.235	127.66
252.451	-32.08
252.668	-30.04
252.885	105.13
253.102	15.02
253.318	47.79
253.535	-11.61
253.752	-23.89
253.968	-21.85
254.185	-1.37
254.401	62.12
254.618	53.93
254.835	-54.61
255.051	92.84
255.268	23.21
255.484	82.6
255.701	96.94
255.917	86.7
256.134	-7.51
256.351	-27.99
256.567	-66.9
256.784	19.11
257	-89.43
257.217	76.46
257.433	113.32
257.65	45.74
257.866	207.53
258.082	-7.51
258.299	-64.85
258.515	41.64
258.732	-34.13
258.948	23.21
259.165	62.12
259.381	-120.15
259.597	68.27
259.814	58.03
260.03	2.73
260.246	86.7
260.463	80.55
260.679	176.81
260.895	53.93
261.112	76.46
261.328	17.07
261.544	-19.8
261.761	139.94
261.977	-13.65
262.193	-17.75
262.409	84.65
262.626	27.31
262.842	17.07
263.058	33.45
263.274	158.38
263.49	55.98
263.707	53.93
263.923	41.64
264.139	17.07
264.355	94.89
264.571	94.89
264.787	113.32
265.004	86.7
265.22	2.73
265.436	-17.75
265.652	15.02
265.868	-7.51
266.084	15.02
266.3	0.68
266.516	-36.18
266.732	25.26
266.948	-34.13
267.164	-13.65
267.38	141.99
267.596	39.59
267.812	182.95
268.028	47.79
268.244	45.74
268.46	68.27
268.676	-1.37
268.892	139.94
269.108	-30.04
269.324	-34.13
269.54	-58.71
269.756	53.93
269.972	-38.23
270.188	-71
270.403	-58.71
270.619	23.21
270.835	86.7
271.051	86.7
271.267	70.31
271.483	-21.85
271.698	111.27
271.914	70.31
272.13	41.64
272.346	-99.67
272.562	15.02
272.777	156.33
272.993	43.69
273.209	-25.94
273.425	182.95
273.64	-81.24
273.856	119.46
274.072	-64.85
274.287	-1.37
274.503	76.46
274.719	27.31
274.934	-19.8
275.15	-97.62
275.366	33.45
275.581	15.02
275.797	-34.13
276.012	68.27
276.228	-15.7
276.444	12.97
276.659	133.8
276.875	8.87
277.09	-5.46
277.306	15.02
277.521	33.45
277.737	25.26
277.952	21.16
278.168	-19.8
278.383	88.75
278.599	88.75
278.814	76.46
279.03	37.55
279.245	160.42
279.461	39.59
279.676	70.31
279.892	-60.76
280.107	-73.04
280.322	-64.85
280.538	-13.65
280.753	-50.52
280.969	62.12
281.184	39.59
281.399	137.9
281.615	-9.56
281.83	66.22
282.045	-73.04
282.26	35.5
282.476	29.35
282.691	-13.65
282.906	25.26
283.122	23.21
283.337	101.03
283.552	144.04
283.767	4.78
283.983	172.71
284.198	-81.24
284.413	37.55
284.628	-77.14
284.843	70.31
285.058	78.51
285.274	-58.71
285.489	-48.47
285.704	80.55
285.919	-48.47
286.134	2.73
286.349	-19.8
286.564	17.07
286.779	205.48
286.995	-27.99
287.21	-87.38
287.425	33.45
287.64	-15.7
287.855	-5.46
288.07	-93.52
288.285	74.41
288.5	115.37
288.715	94.89
288.93	62.12
289.145	0.68
289.36	29.35
289.575	27.31
289.79	29.35
290.004	-58.71
290.219	90.79
290.434	-44.37
290.649	23.21
290.864	41.64
291.079	-21.85
291.294	2.73
291.509	27.31
291.724	21.16
291.938	17.07
292.153	-36.18
292.368	-19.8
292.583	43.69
292.798	103.08
293.012	105.13
293.227	115.37
293.442	-25.94
293.657	64.17
293.871	94.89
294.086	55.98
294.301	139.94
294.516	23.21
294.73	31.4
294.945	-21.85
295.16	70.31
295.374	94.89
295.589	64.17
295.804	19.11
296.018	15.02
296.233	80.55
296.447	31.4
296.662	29.35
296.877	123.56
297.091	86.7
297.306	-107.86
297.52	84.65
297.735	37.55
297.949	23.21
298.164	17.07
298.378	35.5
298.593	-44.37
298.807	-30.04
299.022	-19.8
299.236	125.61
299.451	-58.71
299.665	55.98
299.88	41.64
300.094	31.4
300.309	-36.18
300.523	33.45
300.737	47.79
300.952	43.69
301.166	74.41
301.381	-58.71
301.595	0.68
301.809	6.83
302.024	-27.99
302.238	0.68
302.452	148.14
302.667	4.78
302.881	199.34
303.095	78.51
303.309	27.31
303.524	25.26
303.738	-17.75
303.952	33.45
304.166	0.68
304.381	-118.1
304.595	37.55
304.809	-30.04
305.023	2.73
305.237	4.78
305.452	-1.37
305.666	31.4
305.88	51.88
306.094	98.99
306.308	80.55
306.522	43.69
306.736	25.26
306.95	103.08
307.164	-34.13
307.379	0.68
307.593	107.18
307.807	103.08
308.021	82.6
308.235	39.59
308.449	2.73
308.663	15.02
308.877	215.72
309.091	-21.85
309.305	80.55
309.519	-68.95
309.733	92.84
309.947	-38.23
310.161	92.84
310.374	66.22
310.588	33.45
310.802	-54.61
311.016	45.74
311.23	51.88
311.444	-116.05
311.658	19.11
311.872	82.6
312.085	98.99
312.299	135.85
312.513	111.27
312.727	49.83
312.941	-30.04
313.154	19.11
313.368	94.89
313.582	-58.71
313.796	92.84
314.009	58.03
314.223	103.08
314.437	121.51
314.651	64.17
314.864	25.26
315.078	15.02
315.292	-25.94
315.505	10.92
315.719	103.08
315.933	-13.65
316.146	-15.7
316.36	49.83
316.573	137.9
316.787	51.88
317.001	109.23
317.214	-21.85
317.428	80.55
317.641	-87.38
317.855	17.07
318.068	15.02
318.282	19.11
318.495	170.66
318.709	43.69
318.922	39.59
319.136	154.28
319.349	76.46
319.563	-27.99
319.776	84.65
319.99	-107.86
320.203	96.94
320.417	51.88
320.63	80.55
320.843	144.04
321.057	8.87
321.27	-15.7
321.483	15.02
321.697	176.81
321.91	68.27
322.124	94.89
322.337	-11.61
322.55	-54.61
322.763	129.7
322.977	4.78
323.19	-27.99
323.403	27.31
323.617	-1.37
323.83	76.46
324.043	58.03
324.256	53.93
324.469	-5.46
324.683	148.14
324.896	-40.28
325.109	27.31
325.322	-79.19
325.535	88.75
325.748	141.99
325.962	43.69
326.175	43.69
326.388	-1.37
326.601	33.45
326.814	-21.85
327.027	53.93
327.24	60.07
327.453	-99.67
327.666	123.56
327.879	113.32
328.092	51.88
328.305	31.4
328.518	53.93
328.731	-42.32
328.944	-11.61
329.157	60.07
329.37	-15.7
329.583	174.76
329.796	98.99
330.009	-27.99
330.222	103.08
330.435	47.79
330.648	0.68
330.861	25.26
331.073	49.83
331.286	55.98
331.499	29.35
331.712	-66.9
331.925	-58.71
332.138	-3.41
332.35	109.23
332.563	-1.37
332.776	117.42
332.989	-77.14
333.202	-19.8
333.414	-42.32
333.627	55.98
333.84	47.79
334.053	-27.99
334.265	-9.56
334.478	37.55
334.691	-17.75
334.903	17.07
335.116	-32.08
335.329	-15.7
335.541	21.16
335.754	139.94
335.966	-50.52
336.179	-3.41
336.392	-11.61
336.604	58.03
336.817	66.22
337.029	0.68
337.242	51.88
337.454	105.13
337.667	-30.04
337.88	137.9
338.092	101.03
338.305	10.92
338.517	-46.42
338.729	68.27
338.942	133.8
339.154	-23.89
339.367	-62.8
339.579	35.5
339.792	10.92
340.004	49.83
340.217	68.27
340.429	80.55
340.641	-52.56
340.854	-85.33
341.066	119.46
341.278	148.14
341.491	178.86
341.703	19.11
341.915	-25.94
342.128	68.27
342.34	92.84
342.552	-7.51
342.764	58.03
342.977	35.5
343.189	15.02
343.401	111.27
343.613	8.87
343.826	17.07
344.038	-3.41
344.25	43.69
344.462	-13.65
344.674	47.79
344.886	0.68
345.099	113.32
345.311	-9.56
345.523	-15.7
345.735	-120.15
345.947	58.03
346.159	35.5
346.371	35.5
346.583	49.83
346.795	221.86
347.007	-34.13
347.219	23.21
347.431	0.68
347.643	80.55
347.855	-19.8
348.067	107.18
348.279	-34.13
348.491	66.22
348.703	41.64
348.915	35.5
349.127	29.35
349.339	-19.8
349.551	37.55
349.763	51.88
349.975	58.03
350.187	228.01
350.399	96.94
350.61	31.4
350.822	17.07
351.034	31.4
351.246	21.16
351.458	148.14
351.669	49.83
351.881	117.42
352.093	109.23
352.305	119.46
352.517	82.6
352.728	103.08
352.94	10.92
353.152	45.74
353.363	-144.72
353.575	33.45
353.787	121.51
353.999	47.79
354.21	107.18
354.422	-30.04
354.633	47.79
354.845	88.75
355.057	-1.37
355.268	76.46
355.48	76.46
355.692	-83.28
355.903	31.4
356.115	-7.51
356.326	-126.29
356.538	127.66
356.749	47.79
356.961	152.23
357.172	17.07
357.384	2.73
357.595	191.14
357.807	-73.04
358.018	8.87
358.23	51.88
358.441	115.37
358.653	148.14
358.864	37.55
359.075	-9.56
359.287	15.02
359.498	37.55
359.709	-52.56
359.921	47.79
360.132	55.98
360.344	-38.23
360.555	0.68
360.766	43.69
360.977	0.68
361.189	117.42
361.4	31.4
361.611	111.27
361.823	176.81
362.034	12.97
362.245	-122.2
362.456	35.5
362.667	68.27
362.879	-64.85
363.09	78.51
363.301	53.93
363.512	-5.46
363.723	-52.56
363.935	35.5
364.146	90.79
364.357	35.5
364.568	74.41
364.779	-89.43
364.99	88.75
365.201	-38.23
365.412	180.9
365.623	-101.72
365.834	37.55
366.045	64.17
366.256	127.66
366.467	115.37
366.678	4.78
366.889	84.65
367.1	47.79
367.311	60.07
367.522	78.51
367.733	94.89
367.944	64.17
368.155	105.13
368.366	101.03
368.577	10.92
368.788	84.65
368.999	-30.04
369.209	66.22
369.42	203.43
369.631	168.62
369.842	76.46
370.053	2.73
370.264	55.98
370.474	8.87
370.685	12.97
370.896	-25.94
371.107	107.18
371.317	35.5
371.528	-60.76
371.739	96.94
371.95	111.27
372.16	62.12
372.371	-48.47
372.582	0.68
372.792	37.55
373.003	51.88
373.214	74.41
373.424	55.98
373.635	2.73
373.846	76.46
374.056	-13.65
374.267	23.21
374.477	29.35
374.688	-83.28
374.898	72.36
375.109	19.11
375.319	6.83
375.53	141.99
375.74	60.07
375.951	-27.99
376.161	60.07
376.372	96.94
376.582	-17.75
376.793	103.08
377.003	29.35
377.214	17.07
377.424	123.56
377.635	37.55
377.845	-46.42
378.055	125.61
378.266	-50.52
378.476	-44.37
378.686	51.88
378.897	53.93
379.107	139.94
379.317	92.84
379.528	-75.09
379.738	68.27
379.948	-23.89
380.158	80.55
380.369	31.4
380.579	0.68
380.789	-21.85
380.999	68.27
381.21	53.93
381.42	209.58
381.63	15.02
381.84	105.13
382.05	96.94
382.261	33.45
382.471	109.23
382.681	-30.04
382.891	135.85
383.101	33.45
383.311	-21.85
383.521	-27.99
383.731	94.89
383.941	96.94
384.151	60.07
384.361	-32.08
384.571	58.03
384.781	78.51
384.991	170.66
385.201	176.81
385.411	86.7
385.621	70.31
385.831	101.03
386.041	62.12
386.251	70.31
386.461	103.08
386.671	51.88
386.881	-38.23
387.091	25.26
387.301	109.23
387.511	-19.8
387.72	51.88
387.93	117.42
388.14	-60.76
388.35	-19.8
388.56	180.9
388.769	115.37
388.979	8.87
389.189	-81.24
389.399	29.35
389.609	49.83
389.818	43.69
390.028	47.79
390.238	55.98
390.447	-11.61
390.657	43.69
390.867	-40.28
391.076	-23.89
391.286	-1.37
391.496	41.64
391.705	6.83
391.915	60.07
392.125	105.13
392.334	-52.56
392.544	135.85
392.753	-3.41
392.963	53.93
393.172	39.59
393.382	-71
393.591	127.66
393.801	-50.52
394.01	162.47
394.22	107.18
394.429	19.11
394.639	-25.94
394.848	21.16
395.058	35.5
395.267	66.22
395.477	98.99
395.686	-1.37
395.895	260.77
396.105	207.53
396.314	72.36
396.524	23.21
396.733	-42.32
396.942	131.75
397.152	82.6
397.361	135.85
397.57	58.03
397.78	23.21
397.989	119.46
398.198	180.9
398.407	60.07
398.617	21.16
398.826	45.74
399.035	12.97
399.244	70.31
399.453	-44.37
399.663	74.41
399.872	58.03
400.081	35.5
400.29	88.75
400.499	-54.61
400.708	117.42
400.917	-30.04
401.127	21.16
401.336	-3.41
401.545	139.94
401.754	68.27
401.963	60.07
402.172	-19.8
402.381	-85.33
402.59	31.4
402.799	29.35
403.008	29.35
403.217	-15.7
403.426	35.5
403.635	-73.04
403.844	29.35
404.053	-73.04
404.262	-27.99
404.471	115.37
404.68	139.94
404.888	-11.61
405.097	35.5
405.306	39.59
405.515	31.4
405.724	58.03
405.933	111.27
406.142	17.07
406.35	41.64
406.559	-11.61
406.768	25.26
406.977	78.51
407.185	70.31
407.394	117.42
407.603	8.87
407.812	-21.85
408.02	146.09
408.229	62.12
408.438	37.55
408.646	-25.94
408.855	0.68
409.064	35.5
409.272	39.59
409.481	121.51
409.69	27.31
409.898	-19.8
410.107	8.87
410.315	31.4
410.524	-19.8
410.733	35.5
410.941	76.46
411.15	92.84
411.358	123.56
411.567	121.51
411.775	12.97
411.984	6.83
412.192	49.83
412.401	-36.18
412.609	168.62
412.818	68.27
413.026	107.18
413.234	-1.37
413.443	2.73
413.651	-30.04
413.86	12.97
414.068	37.55
414.276	209.58
414.485	-30.04
414.693	113.32
414.901	203.43
415.11	62.12
415.318	103.08
415.526	55.98
415.734	92.84
415.943	4.78
416.151	170.66
416.359	70.31
416.567	119.46
416.776	88.75
416.984	62.12
417.192	209.58
417.4	-34.13
417.608	4.78
417.817	23.21
418.025	55.98
418.233	185
418.441	-17.75
418.649	6.83
418.857	76.46
419.065	144.04
419.273	2.73
419.481	-44.37
419.689	-9.56
419.897	-64.85
420.105	-40.28
420.313	111.27
420.521	117.42
420.729	103.08
420.937	64.17
421.145	-38.23
421.353	74.41
421.561	146.09
421.769	33.45
421.977	23.21
422.185	111.27
422.393	31.4
422.601	101.03
422.809	60.07
423.017	55.98
423.224	76.46
423.432	129.7
423.64	-11.61
423.848	94.89
424.056	47.79
424.263	121.51
424.471	64.17
424.679	162.47
424.887	-11.61
425.094	88.75
425.302	168.62
425.51	64.17
425.718	154.28
425.925	72.36
426.133	-21.85
426.341	211.62
426.548	-40.28
426.756	47.79
426.964	47.79
427.171	4.78
427.379	62.12
427.586	45.74
427.794	98.99
428.001	133.8
428.209	129.7
428.417	137.9
428.624	70.31
428.832	146.09
429.039	203.43
429.247	58.03
429.454	115.37
429.662	228.01
429.869	139.94
430.076	141.99
430.284	174.76
430.491	234.15
430.699	105.13
430.906	217.77
431.114	94.89
431.321	180.9
431.528	187.05
431.736	170.66
431.943	113.32
432.15	195.24
432.358	166.57
432.565	187.05
432.772	21.16
432.979	244.39
433.187	98.99
433.394	264.87
433.601	76.46
433.808	230.06
434.016	221.86
434.223	244.39
434.43	273.06
434.637	215.72
434.844	332.45
435.052	273.06
435.259	197.29
435.466	242.34
435.673	301.73
435.88	295.59
436.087	299.69
436.294	414.37
436.501	371.37
436.708	205.48
436.915	334.5
437.122	455.33
437.329	246.44
437.537	385.7
437.743	340.65
437.95	436.9
438.157	451.24
438.364	402.08
438.571	449.19
438.778	516.77
438.985	445.09
439.192	504.48
439.399	494.24
439.606	477.86
439.813	592.55
440.02	651.94
440.227	770.72
440.433	647.84
440.64	592.55
440.847	494.24
441.054	641.7
441.261	770.72
441.467	678.56
441.674	604.83
441.881	860.83
442.088	699.04
442.294	871.07
442.501	848.54
442.708	950.94
442.914	877.21
443.121	932.51
443.328	893.6
443.534	1098.39
443.741	991.9
443.948	993.95
444.154	1065.63
444.361	1274.52
444.568	1135.26
444.774	1073.82
444.981	1047.19
445.187	1364.63
445.394	1313.43
445.6	1264.28
445.807	1344.15
446.013	1401.49
446.22	1419.92
446.426	1682.06
446.633	1641.11
446.839	1763.98
447.046	1680.02
447.252	1862.29
447.459	1817.23
447.665	1745.55
447.871	2001.55
448.078	2278.02
448.284	2157.19
448.491	2202.25
448.697	2353.8
448.903	2411.14
449.11	2568.84
449.316	2558.6
449.522	2599.56
449.728	2718.34
449.935	2833.02
450.141	2845.31
450.347	3048.06
450.553	2955.9
450.76	3211.9
450.966	3369.59
451.172	3404.41
451.378	3547.76
451.584	3519.09
451.791	3803.76
451.997	3922.54
452.203	4022.89
452.409	4297.32
452.615	4440.68
452.821	4352.62
453.027	4354.66
453.233	5116.51
453.44	4809.31
453.646	5075.55
453.852	5399.13
454.058	5317.21
454.264	5595.73
454.47	6062.67
454.676	6011.47
454.882	6718.02
455.088	6320.71
455.294	6769.22
455.5	7041.6
455.705	7387.71
455.911	7455.29
456.117	7576.12
456.323	7967.28
456.529	7993.9
456.735	8581.67
456.941	8964.64
457.147	9222.69
457.352	9404.96
457.558	9554.46
457.764	10228.24
457.97	10715.66
458.176	11065.86
458.381	11657.72
458.587	11704.82
458.793	12499.44
458.999	12313.07
459.204	14086.61
459.41	14338.51
459.616	14139.86
459.821	15053.25
460.027	15905.21
460.233	16265.65
460.438	16382.38
460.644	17258.92
460.85	17490.34
461.055	18276.76
461.261	19104.14
461.466	18823.56
461.672	18925.96
461.878	21299.56
462.083	20892.01
462.289	21629.28
462.494	22288.73
462.7	22559.06
462.905	22995.28
463.111	24705.33
463.316	26065.18
463.522	26231.07
463.727	27138.32
463.932	28240.12
464.138	29487.34
464.343	30652.63
464.549	30257.37
464.754	32837.81
464.959	33824.93
465.165	34205.86
465.37	33896.61
465.575	33573.03
465.781	36495.49
465.986	37228.66
466.191	36808.82
466.397	37165.17
466.602	35958.92
466.807	38131.81
467.012	38672.48
467.218	39379.03
467.423	39362.64
467.628	40773.69
467.833	42866.72
468.038	42151.98
468.244	40941.63
468.449	43487.25
468.654	42446.88
468.859	42418.21
469.064	42518.56
469.269	41472.05
469.474	42139.69
469.679	43044.89
469.885	41488.43
470.09	42631.2
470.295	42266.66
470.5	41728.05
470.705	41945.13
470.91	41013.3
471.115	40570.94
471.32	41025.59
471.525	40407.11
471.73	39450.7
471.935	39268.44
472.139	37750.89
472.344	38037.61
472.549	37916.78
472.754	36733.05
472.959	35848.33
473.164	35078.29
473.369	34363.55
473.574	35481.74
473.778	34631.83
473.983	34156.71
474.188	33700.01
474.393	31402.19
474.598	31604.94
474.802	31004.88
475.007	31045.84
475.212	30355.68
475.417	29296.88
475.621	28672.25
475.826	28643.57
476.031	27891.97
476.235	27791.62
476.44	27455.75
476.645	26515.73
476.849	26429.72
477.054	25932.06
477.259	25332.01
477.463	24881.45
477.668	24342.84
477.872	24604.98
478.077	23863.61
478.282	22929.74
478.486	22966.6
478.691	22714.7
478.895	22573.39
479.1	22337.88
479.304	22450.52
479.509	21428.58
479.713	21674.34
479.918	21180.78
480.122	20578.67
480.326	20924.78
480.531	20881.77
480.735	20554.1
480.94	20511.09
481.144	21148.01
481.348	19859.84
481.553	19818.88
481.757	19337.6
481.961	19775.87
482.166	19970.43
482.37	19577.22
482.574	18848.14
482.778	19014.02
482.983	19122.57
483.187	18719.12
483.391	18692.49
483.595	18483.6
483.8	18100.63
484.004	18155.93
484.208	18022.81
484.412	18024.86
484.616	17803.67
484.821	17584.54
485.025	17105.32
485.229	17148.33
485.433	16816.55
485.637	16638.38
485.841	16398.77
486.045	15966.65
486.249	15962.55
486.453	15714.75
486.657	15571.39
486.861	15243.71
487.065	14668.23
487.269	14946.76
487.473	14475.73
487.677	14526.92
487.881	14250.45
488.085	14064.08
488.289	14062.04
488.493	13421.02
488.697	13519.32
488.901	12876.26
489.105	12773.86
489.309	12384.75
489.512	12399.09
489.716	12132.85
489.92	11639.29
490.124	11696.63
490.328	11774.45
490.531	11225.6
490.735	11166.21
490.939	10871.3
491.143	10641.93
491.346	10670.6
491.55	10435.08
491.754	10211.85
491.958	10177.04
492.161	9802.26
492.365	9738.77
492.569	9617.94
492.772	9284.12
492.976	9353.76
493.18	9097.76
493.383	9069.09
493.587	9019.94
493.79	8966.69
493.994	8710.69
494.197	8639.01
494.401	8405.55
494.605	8532.52
494.808	8333.87
495.012	8497.7
495.215	8483.37
495.419	8213.04
495.622	8012.34
495.825	7942.71
496.029	8002.1
496.232	8208.94
496.436	7887.41
496.639	8073.78
496.843	7840.31
497.046	7840.31
497.249	8032.82
497.453	7973.43
497.656	7832.12
497.859	7909.94
498.063	7852.59
498.266	7995.95
498.469	7832.12
498.673	7791.16
498.876	7909.94
499.079	8006.19
499.282	8086.06
499.485	8213.04
499.689	8063.54
499.892	8120.88
500.095	8032.82
500.298	8227.37
500.501	8208.94
500.705	8340.01
500.908	8391.21
501.111	8272.43
501.314	8483.37
501.517	8907.3
501.72	8546.86
501.923	8641.06
502.126	8878.63
502.329	8999.46
502.532	8997.41
502.735	8974.88
502.938	9271.84
503.141	9302.56
503.344	9255.45
503.547	9617.94
503.75	9605.66
503.953	9599.51
504.156	9939.47
504.359	9935.38
504.562	10129.94
504.765	10412.56
504.968	10517
505.17	10588.68
505.373	10615.3
505.576	10723.85
505.779	11174.4
505.982	11203.07
506.185	11379.2
506.387	11553.27
506.59	11719.16
506.793	12216.82
506.996	11917.81
507.198	12747.24
507.401	12671.47
507.604	12841.45
507.807	13076.96
508.009	13259.23
508.212	13685.21
508.415	13793.75
508.617	14078.42
508.82	14526.92
509.022	14686.67
509.225	15137.22
509.428	15344.06
509.63	15522.24
509.833	15765.95
510.035	16499.12
510.238	16593.33
510.44	16804.27
510.643	17478.05
510.845	17846.68
511.048	17891.74
511.25	18200.98
511.453	18753.93
511.655	19669.37
511.858	19632.51
512.06	20263.29
512.262	20685.17
512.465	20967.79
512.667	21526.88
512.87	21842.27
513.072	22384.98
513.274	23052.62
513.477	23298.38
513.679	23937.34
513.881	24545.59
514.084	25157.93
514.286	25545
514.488	26104.09
514.69	27031.82
514.893	27672.84
515.095	27914.5
515.297	28389.63
515.499	28840.18
515.701	29661.41
515.904	30273.76
516.106	31013.07
516.308	31703.24
516.51	32325.82
516.712	32585.91
516.914	33292.46
517.116	34177.19
517.318	34611.35
517.52	35268.75
517.722	35952.77
517.925	36569.21
518.127	37372.02
518.329	38320.23
518.531	38107.24
518.733	39055.45
518.935	39764.04
519.136	40181.83
519.338	41412.66
519.54	41498.67
519.742	42055.72
519.944	42594.34
520.146	43986.96
520.348	44646.4
520.55	44759.04
520.752	44996.6
520.954	46227.43
521.155	45832.18
521.357	46835.68
521.559	47394.78
521.761	48429
521.963	48633.8
522.164	48762.82
522.366	49260.47
522.568	49774.52
522.77	50282.41
522.971	50960.29
523.173	50737.06
523.375	51400.6
523.576	51539.86
523.778	51779.48
523.98	51851.16
524.181	52254.61
524.383	52283.28
524.584	52869
524.786	52727.69
524.988	52592.52
525.189	53049.22
525.391	53305.21
525.592	53249.92
525.794	53444.48
525.995	52893.57
526.197	53084.03
526.398	52967.3
526.6	53317.5
526.801	53063.55
527.003	52627.34
527.204	52723.59
527.406	53231.49
527.607	52760.45
527.808	52733.83
528.01	51244.96
528.211	51443.61
528.412	51838.87
528.614	51257.24
528.815	50978.72
529.016	51027.87
529.218	50032.56
529.419	49721.27
529.62	49450.94
529.822	48910.27
530.023	48590.79
530.224	48267.21
530.425	47771.6
530.626	46960.61
530.828	46317.54
531.029	46901.21
531.23	45760.5
531.431	45084.67
531.632	44939.26
531.833	44515.33
532.035	43597.84
532.236	43610.13
532.437	43225.11
532.638	42119.21
532.839	41920.55
533.04	41590.83
533.241	40607.81
533.442	40734.78
533.643	40001.61
533.844	39231.57
534.045	38953.05
534.246	37859.43
534.447	37697.64
534.648	37281.91
534.849	36950.13
535.05	36139.14
535.251	36032.64
535.451	35461.26
535.652	34879.64
535.853	34351.26
536.054	34103.46
536.255	33566.89
536.456	32821.43
536.657	32606.39
536.857	32166.08
537.058	31707.33
537.259	31772.87
537.46	31205.58
537.66	30466.27
537.861	30085.34
538.062	29544.68
538.263	29407.47
538.463	28770.55
538.664	28614.9
538.865	28272.89
539.065	28170.49
539.266	27570.44
539.466	27529.48
539.667	27001.1
539.868	26986.77
540.068	26337.56
540.269	26059.04
540.469	25792.8
540.67	25289
540.87	24981.81
541.071	24795.44
541.271	24729.91
541.472	24232.25
541.672	23732.54
541.873	23380.29
542.073	23036.24
542.274	23058.76
542.474	22714.7
542.675	22593.87
542.875	22554.96
543.075	21920.09
543.276	21563.75
543.476	21786.97
543.676	21166.44
543.877	21219.69
544.077	20705.65
544.277	20511.09
544.478	20164.98
544.678	20232.57
544.878	20054.39
545.078	19868.03
545.279	19079.56
545.479	19104.14
545.679	18801.04
545.879	18846.09
546.079	18575.76
546.28	18080.15
546.48	17852.83
546.68	18014.62
546.88	17899.93
547.08	17605.02
547.28	17160.61
547.48	16820.65
547.68	17111.46
547.88	16423.34
548.081	16413.1
548.281	16421.3
548.481	15722.94
548.681	15854.01
548.881	15585.72
549.081	15405.5
549.28	15086.02
549.48	15020.49
549.68	14606.8
549.88	14584.27
550.08	14408.14
550.28	14358.99
550.48	14066.13
550.68	13875.67
550.88	13591
551.08	13408.73
551.279	13484.51
551.479	12952.04
551.679	13011.43
551.879	12562.92
552.079	12761.58
552.278	12462.57
552.478	12315.12
552.678	11895.29
552.878	11858.42
553.077	11647.48
553.277	11454.97
553.477	11491.84
553.676	11041.28
553.876	10957.32
554.076	10654.22
554.275	10508.81
554.475	10398.22
554.674	10140.18
554.874	10162.7
555.074	9888.28
555.273	10039.83
555.473	9617.94
555.672	9462.3
555.872	9316.89
556.071	9247.26
556.271	9157.15
556.47	8903.2
556.67	8772.13
556.869	8458.79
557.068	8442.41
557.268	8303.15
557.467	7995.95
557.667	8133.17
557.866	8006.19
558.065	7709.24
558.265	7377.47
558.464	7438.91
558.663	7352.89
558.863	7242.3
559.062	7117.37
559.261	7113.28
559.461	6984.26
559.66	6715.97
559.859	6593.09
560.058	6636.1
560.258	6328.91
560.457	6507.08
560.656	6361.67
560.855	6050.38
561.054	6187.6
561.253	5927.5
561.453	5677.65
561.652	5956.18
561.851	5796.43
562.05	5526.1
562.249	5456.47
562.448	5419.61
562.647	5161.56
562.846	5390.94
563.045	5251.67
563.244	4915.81
563.443	5245.53
563.642	5034.59
563.841	4981.34
564.04	4647.52
564.239	4792.93
564.438	4639.33
564.637	4571.75
564.836	4538.98
565.035	4434.53
565.234	4377.19
565.432	4268.65
565.631	4311.66
565.83	4371.05
566.029	4139.63
566.228	4102.76
566.427	4074.09
566.625	3877.49
566.824	3988.08
567.023	3852.91
567.222	3789.42
567.42	3598.96
567.619	3621.49
567.818	3611.25
568.016	3805.81
568.215	3551.86
568.414	3566.2
568.612	3471.99
568.811	3369.59
569.01	3433.08
569.208	3357.3
569.407	3201.66
569.605	3136.12
569.804	3191.42
570.002	3150.46
570.201	3017.34
570.4	2957.95
570.598	2878.08
570.797	2822.78
570.995	2806.4
571.193	2826.88
571.392	2767.49
571.59	2587.27
571.789	2640.51
571.987	2765.44
572.186	2779.78
572.384	2609.79
572.582	2640.51
572.781	2572.93
572.979	2480.77
573.177	2450.05
573.376	2462.34
573.574	2462.34
573.772	2218.63
573.971	2130.57
574.169	2267.78
574.367	2312.84
574.565	2181.77
574.763	2149
574.962	2110.09
575.16	2005.64
575.358	2108.04
575.556	1833.61
575.754	1979.02
575.952	1823.37
576.151	2040.46
576.349	1944.21
576.547	1725.07
576.745	1833.61
576.943	1847.95
577.141	1733.26
577.339	1780.37
577.537	1677.97
577.735	1704.59
577.933	1737.36
578.131	1610.39
578.329	1604.24
578.527	1573.52
578.725	1602.19
578.923	1442.45
579.121	1583.76
579.319	1442.45
579.516	1485.46
579.714	1618.58
579.912	1397.4
580.11	1268.38
580.308	1309.33
580.506	1182.36
580.704	1180.31
580.901	1333.91
581.099	1405.59
581.297	1292.95
581.495	1239.7
581.692	1251.99
581.89	1362.58
582.088	1231.51
582.285	1168.02
582.483	1145.5
582.681	1116.83
582.878	1094.3
583.076	1157.79
583.274	1178.26
583.471	1194.65
583.669	1082.01
583.866	893.6
584.064	1014.43
584.262	975.52
584.459	979.61
584.657	1020.57
584.854	1049.24
585.052	1094.3
585.249	901.79
585.447	955.04
585.644	854.69
585.841	1022.62
586.039	889.5
586.236	961.18
586.434	823.97
586.631	768.67
586.828	887.45
587.026	840.35
587.223	696.99
587.42	787.1
587.618	854.69
587.815	907.93
588.012	768.67
588.21	740
588.407	756.38
588.604	801.44
588.801	651.94
588.999	717.47
589.196	735.9
589.393	754.34
589.59	762.53
589.787	774.81
589.984	793.25
590.182	719.52
590.379	590.5
590.576	684.7
590.773	651.94
590.97	606.88
591.167	789.15
591.364	723.62
591.561	639.65
591.758	789.15
591.955	670.37
592.152	639.65
592.349	531.11
592.546	629.41
592.743	647.84
592.94	572.07
593.137	731.81
593.334	764.58
593.531	723.62
593.727	750.24
593.924	709.28
594.121	602.79
594.318	629.41
594.515	776.86
594.712	811.68
594.908	821.92
595.105	647.84
595.302	723.62
595.499	774.81
595.696	799.39
595.892	678.56
596.089	809.63
596.286	772.77
596.482	873.12
596.679	838.3
596.876	787.1
597.072	920.22
597.269	864.93
597.466	852.64
597.662	942.75
597.859	889.5
598.055	959.13
598.252	963.23
598.448	1032.86
598.645	1075.87
598.841	1125.02
599.038	1235.61
599.234	1268.38
599.431	1284.76
599.627	1309.33
599.824	1356.44
600.02	1258.14
600.217	1403.54
600.413	1495.7
600.609	1464.98
600.806	1819.28
601.002	1727.12
601.198	1663.63
601.395	1788.56
601.591	1874.57
601.787	1917.58
601.984	1999.5
602.18	2017.93
602.376	2077.32
602.572	2255.5
602.769	2357.89
602.965	2472.58
603.161	2552.45
603.357	2628.23
603.553	2779.78
603.75	2601.6
603.946	2781.82
604.142	2900.61
604.338	3072.64
604.534	3091.07
604.73	3185.27
604.926	3211.9
605.122	3607.16
605.318	3502.71
605.514	3691.12
605.71	3828.34
605.906	3891.82
606.102	3822.19
606.298	4080.24
606.494	4262.51
606.69	4373.1
606.886	4317.8
607.082	4557.41
607.278	4696.68
607.474	4735.59
607.67	5050.97
607.866	4954.72
608.062	5384.79
608.257	5497.43
608.453	5431.9
608.649	5534.29
608.845	5780.05
609.041	5947.98
609.236	6062.67
609.432	6486.6
609.628	6498.89
609.824	6740.55
610.019	6705.73
610.215	7000.64
610.411	7404.09
610.606	7475.77
610.802	7318.07
610.998	7629.37
611.193	8151.6
611.389	8198.7
611.584	8383.02
611.78	8391.21
611.976	8776.23
612.171	9368.09
612.367	9495.07
612.562	9497.11
612.758	9585.18
612.953	10029.59
613.149	10332.68
613.344	10394.12
613.539	10887.68
613.735	11037.19
613.93	11543.03
614.126	11672.06
614.321	12130.8
614.517	12257.78
614.712	12562.92
614.907	12796.39
615.103	13218.27
615.298	13482.46
615.493	13920.73
615.688	14016.98
615.884	14602.7
616.079	14963.14
616.274	15411.65
616.47	15677.88
616.665	16300.47
616.86	16286.13
617.055	16906.66
617.25	17420.7
617.445	17996.18
617.641	18291.09
617.836	18735.5
618.031	18919.82
618.226	19779.96
618.421	20074.87
618.616	20670.83
618.811	20779.37
619.006	21504.35
619.201	21680.48
619.396	22450.52
619.591	22483.28
619.786	23451.97
619.981	23386.44
620.176	24275.26
620.371	24813.87
620.566	25487.65
620.761	25880.86
620.956	26579.22
621.151	26409.24
621.346	27365.64
621.541	27529.48
621.735	27949.31
621.93	28547.32
622.125	29303.02
622.32	29448.43
622.515	30546.14
622.709	31066.32
622.904	31545.55
623.099	31998.15
623.294	32583.87
623.488	33038.51
623.683	33706.15
623.878	33648.81
624.072	34932.89
624.267	35025.04
624.462	35735.69
624.656	36163.71
624.851	36722.81
625.046	37197.94
625.24	37585.01
625.435	38150.24
625.629	38871.13
625.824	39192.66
626.018	39530.58
626.213	39710.8
626.407	40695.87
626.602	40636.48
626.796	41289.78
626.991	42096.68
627.185	41793.58
627.38	42250.28
627.574	42913.82
627.768	42889.24
627.963	42684.45
628.157	42803.23
628.352	43313.17
628.546	42446.88
628.74	43356.18
628.935	43126.81
629.129	42823.71
629.323	42600.48
629.517	42496.03
629.712	42258.47
629.906	42301.48
630.1	41218.1
630.294	41023.54
630.489	40544.32
630.683	40509.5
630.877	39274.58
631.071	38791.26
631.265	38520.93
631.459	37394.54
631.653	36683.9
631.848	36159.62
632.042	34746.52
632.236	34451.61
632.43	32886.96
632.624	32833.72
632.818	31457.48
633.012	30689.49
633.206	29513.96
633.4	28985.58
633.594	27611.4
633.788	26824.98
633.982	25923.87
634.176	25129.26
634.369	23949.63
634.563	23134.54
634.757	21676.38
634.951	21281.13
635.145	20689.26
635.339	19659.13
635.533	19009.93
635.726	18307.48
635.92	17346.98
636.114	16550.32
636.308	15987.13
636.501	15555.01
636.695	14715.34
636.889	13892.05
637.083	13457.89
637.276	12849.64
637.47	12313.07
637.664	11999.73
637.857	11485.69
638.051	11149.82
638.244	10748.42
638.438	10056.21
638.632	9767.45
638.825	9374.24
639.019	9026.08
639.212	8555.05
639.406	8346.16
639.599	8006.19
639.793	7746.1
639.986	7277.12
640.18	7199.29
640.373	6650.44
640.567	6580.81
640.76	6273.61
640.954	6169.16
641.147	5853.78
641.34	5665.36
641.534	5407.32
641.727	5223
641.92	4997.73
642.114	4747.87
642.307	4661.86
642.5	4452.97
642.694	4233.83
642.887	3961.45
643.08	4016.75
643.273	3891.82
643.467	3633.78
643.66	3453.56
643.853	3500.66
644.046	3338.87
644.239	3220.09
644.432	2863.74
644.626	2933.37
644.819	2763.39
645.012	2564.74
645.205	2531.97
645.398	2505.35
645.591	2310.79
645.784	2202.25
645.977	2093.71
646.17	2124.43
646.363	2069.13
646.556	1927.82
646.749	1692.3
646.942	1874.57
647.135	1831.57
647.328	1620.63
647.521	1667.73
647.714	1567.38
647.907	1530.52
648.099	1362.58
648.292	1456.79
648.485	1389.21
648.678	1366.68
648.871	1284.76
649.064	1217.18
649.256	1108.63
649.449	1045.15
649.642	963.23
649.835	952.99
650.027	1010.33
650.22	969.37
650.413	932.51
650.605	993.95
650.798	807.58
650.991	826.01
651.183	783.01
651.376	768.67
651.568	834.21
651.761	658.08
651.954	711.33
652.146	572.07
652.339	768.67
652.531	694.94
652.724	629.41
652.916	570.02
653.109	510.63
653.301	625.31
653.494	527.01
653.686	580.26
653.879	553.63
654.071	506.53
654.263	357.03
654.456	408.23
654.648	518.82
654.84	510.63
655.033	361.13
655.225	537.25
655.417	193.19
655.61	512.67
655.802	498.34
655.994	467.62
656.186	326.31
656.379	397.99
656.571	346.79
656.763	301.73
656.955	346.79
657.148	346.79
657.34	414.37
657.532	342.69
657.724	309.93
657.916	332.45
658.108	346.79
658.3	316.07
658.492	307.88
658.684	244.39
658.876	281.25
659.068	174.76
659.26	152.23
659.452	162.47
659.644	244.39
659.836	348.84
660.028	217.77
660.22	131.75
660.412	291.49
660.604	164.52
660.796	201.38
660.988	309.93
661.18	199.34
661.372	268.97
661.563	205.48
661.755	176.81
661.947	74.41
662.139	176.81
662.331	193.19
662.522	219.82
662.714	127.66
662.906	133.8
663.097	174.76
663.289	166.57
663.481	62.12
663.673	217.77
663.864	129.7
664.056	215.72
664.247	125.61
664.439	193.19
664.631	199.34
664.822	211.62
665.014	178.86
665.205	121.51
665.397	117.42
665.588	160.42
665.78	82.6
665.971	117.42
666.163	98.99
666.354	80.55
666.546	101.03
666.737	107.18
666.929	129.7
667.12	92.84
667.311	170.66
667.503	170.66
667.694	174.76
667.885	193.19
668.077	207.53
668.268	58.03
668.459	162.47
668.651	205.48
668.842	176.81
669.033	78.51
669.224	39.59
669.416	215.72
669.607	125.61
669.798	47.79
669.989	266.92
670.18	103.08
670.371	217.77
670.563	92.84
670.754	168.62
670.945	228.01
671.136	172.71
671.327	72.36
671.518	187.05
671.709	283.3
671.9	178.86
672.091	297.64
672.282	62.12
672.473	129.7
672.664	-30.04
672.855	88.75
673.046	211.62
673.237	168.62
673.428	88.75
673.619	238.25
673.809	94.89
674	176.81
674.191	189.1
674.382	111.27
674.573	123.56
674.764	131.75
674.954	256.68
675.145	84.65
675.336	105.13
675.527	94.89
675.717	139.94
675.908	252.58
676.099	107.18
676.289	164.52
676.48	70.31
676.671	170.66
676.861	92.84
677.052	193.19
677.243	178.86
677.433	113.32
677.624	201.38
677.814	158.38
678.005	123.56
678.195	221.86
678.386	101.03
678.576	70.31
678.767	68.27
678.957	107.18
679.148	256.68
679.338	211.62
679.529	176.81
679.719	137.9
679.909	230.06
680.1	211.62
680.29	166.57
680.481	215.72
680.671	189.1
680.861	162.47
681.052	207.53
681.242	96.94
681.432	219.82
681.622	107.18
681.813	94.89
682.003	119.46
682.193	180.9
682.383	164.52
682.573	172.71
682.764	246.44
682.954	203.43
683.144	203.43
683.334	45.74
683.524	191.14
683.714	213.67
683.904	287.4
684.094	172.71
684.284	234.15
684.474	215.72
684.664	236.2
684.854	146.09
685.044	121.51
685.234	246.44
685.424	197.29
685.614	148.14
685.804	297.64
685.994	254.63
686.184	182.95
686.374	211.62
686.564	228.01
686.753	160.42
686.943	162.47
687.133	172.71
687.323	166.57
687.513	254.63
687.702	199.34
687.892	131.75
688.082	228.01
688.272	299.69
688.461	217.77
688.651	338.6
688.841	244.39
689.03	178.86
689.22	176.81
689.41	254.63
689.599	199.34
689.789	84.65
689.979	260.77
690.168	225.96
690.358	207.53
690.547	252.58
690.737	236.2
690.926	172.71
691.116	168.62
691.305	266.92
691.495	225.96
691.684	166.57
691.874	141.99
692.063	127.66
692.252	254.63
692.442	250.53
692.631	148.14
692.82	191.14
693.01	281.25
693.199	166.57
693.388	191.14
693.578	203.43
693.767	178.86
693.956	160.42
694.146	211.62
694.335	207.53
694.524	168.62
694.713	346.79
694.902	197.29
695.092	109.23
695.281	217.77
695.47	182.95
695.659	146.09
695.848	176.81
696.037	162.47
696.226	217.77
696.415	164.52
696.604	268.97
696.793	197.29
696.982	193.19
697.171	314.02
697.36	146.09
697.549	117.42
697.738	105.13
697.927	250.53
698.116	80.55
698.305	238.25
698.494	189.1
698.683	109.23
698.872	357.03
699.061	170.66
699.25	191.14
699.438	170.66
699.627	41.64
699.816	264.87
700.005	150.18
700.193	115.37
700.382	168.62
700.571	203.43
700.76	111.27
700.948	258.73
701.137	244.39
701.326	144.04
701.514	105.13
701.703	109.23
701.892	199.34
702.08	342.69
702.269	135.85
702.457	146.09
702.646	176.81
702.834	113.32
703.023	193.19
703.212	223.91
703.4	219.82
703.589	135.85
703.777	185
703.965	119.46
704.154	127.66
704.342	158.38
704.531	113.32
704.719	197.29
704.907	322.21
705.096	232.1
705.284	64.17
705.472	158.38
705.661	113.32
705.849	258.73
706.037	330.41
706.226	164.52
706.414	172.71
706.602	150.18
706.79	287.4
706.979	170.66
707.167	115.37
707.355	125.61
707.543	228.01
707.731	209.58
707.919	207.53
708.107	213.67
708.296	162.47
708.484	131.75
708.672	158.38
708.86	195.24
709.048	156.33
709.236	152.23
709.424	309.93
709.612	176.81
709.8	10.92
709.988	189.1
710.176	271.01
710.364	250.53
710.551	156.33
710.739	129.7
710.927	248.49
711.115	189.1
711.303	148.14
711.491	295.59
711.679	113.32
711.866	217.77
712.054	146.09
712.242	225.96
712.43	232.1
712.617	96.94
712.805	242.34
712.993	275.11
713.181	53.93
713.368	258.73
713.556	154.28
713.744	37.55
713.931	412.32
714.119	299.69
714.306	148.14
714.494	148.14
714.682	195.24
714.869	148.14
715.057	146.09
715.244	37.55
715.432	150.18
715.619	84.65
715.807	144.04
715.994	180.9
716.182	232.1
716.369	225.96
716.556	195.24
716.744	103.08
716.931	107.18
717.119	221.86
717.306	209.58
717.493	197.29
717.681	123.56
717.868	162.47
718.055	232.1
718.242	131.75
718.43	125.61
718.617	199.34
718.804	123.56
718.991	297.64
719.179	230.06
719.366	228.01
719.553	225.96
719.74	185
719.927	158.38
720.114	166.57
720.301	160.42
720.488	199.34
720.676	182.95
720.863	238.25
721.05	400.04
721.237	283.3
721.424	240.3
721.611	166.57
721.798	92.84
721.985	76.46
722.172	117.42
722.358	223.91
722.545	338.6
722.732	178.86
722.919	262.82
723.106	250.53
723.293	258.73
723.48	162.47
723.667	185
723.853	316.07
724.04	252.58
724.227	260.77
724.414	180.9
724.6	236.2
724.787	369.32
724.974	391.84
725.161	158.38
725.347	111.27
725.534	199.34
725.72	309.93
725.907	311.97
726.094	291.49
726.28	164.52
726.467	299.69
726.653	127.66
726.84	225.96
727.027	363.17
727.213	236.2
727.4	205.48
727.586	203.43
727.773	211.62
727.959	193.19
728.145	219.82
728.332	187.05
728.518	199.34
728.705	268.97
728.891	277.16
729.077	205.48
729.264	82.6
729.45	201.38
729.636	254.63
729.823	262.82
730.009	354.98
730.195	258.73
730.382	297.64
730.568	125.61
730.754	295.59
730.94	242.34
731.126	228.01
731.313	219.82
731.499	205.48
731.685	264.87
731.871	283.3
732.057	252.58
732.243	309.93
732.429	344.74
732.615	338.6
732.801	277.16
732.987	207.53
733.173	199.34
733.359	189.1
733.545	228.01
733.731	217.77
733.917	342.69
734.103	207.53
734.289	225.96
734.475	139.94
734.661	383.65
734.847	254.63
735.033	209.58
735.219	248.49
735.404	121.51
735.59	150.18
735.776	180.9
735.962	176.81
736.148	285.35
736.333	289.45
736.519	209.58
736.705	240.3
736.89	199.34
737.076	207.53
737.262	174.76
737.447	201.38
737.633	199.34
737.819	281.25
738.004	207.53
738.19	242.34
738.375	240.3
738.561	289.45
738.747	164.52
738.932	170.66
739.118	307.88
739.303	228.01
739.489	266.92
739.674	248.49
739.859	160.42
740.045	309.93
740.23	287.4
740.416	162.47
740.601	211.62
740.786	283.3
740.972	228.01
741.157	187.05
741.342	123.56
741.528	219.82
741.713	271.01
741.898	217.77
742.084	271.01
742.269	174.76
742.454	254.63
742.639	273.06
742.824	193.19
743.01	266.92
743.195	383.65
743.38	158.38
743.565	180.9
743.75	242.34
743.935	232.1
744.12	287.4
744.305	160.42
744.49	156.33
744.675	230.06
744.86	205.48
745.045	242.34
745.23	223.91
745.415	244.39
745.6	205.48
745.785	230.06
745.97	246.44
746.155	262.82
746.34	256.68
746.525	174.76
746.71	248.49
746.895	103.08
747.079	129.7
747.264	160.42
747.449	209.58
747.634	201.38
747.819	254.63
748.003	185
748.188	123.56
748.373	256.68
748.557	191.14
748.742	203.43
748.927	205.48
749.111	172.71
749.296	164.52
749.481	242.34
749.665	189.1
749.85	121.51
750.034	252.58
750.219	244.39
750.404	150.18
750.588	152.23
750.773	178.86
750.957	146.09
751.141	82.6
751.326	242.34
751.51	121.51
751.695	141.99
751.879	117.42
752.064	217.77
752.248	254.63
752.432	297.64
752.617	252.58
752.801	230.06
752.985	152.23
753.17	383.65
753.354	191.14
753.538	180.9
753.722	148.14
753.907	137.9
754.091	129.7
754.275	191.14
754.459	82.6
754.643	141.99
754.828	217.77
755.012	266.92
755.196	8.87
755.38	154.28
755.564	125.61
755.748	90.79
755.932	131.75
756.116	232.1
756.3	166.57
756.484	76.46
756.668	139.94
756.852	148.14
757.036	172.71
757.22	166.57
757.404	137.9
757.588	82.6
757.772	205.48
757.956	111.27
758.14	258.73
758.323	109.23
758.507	209.58
758.691	211.62
758.875	236.2
759.059	129.7
759.242	66.22
759.426	131.75
759.61	86.7
759.794	88.75
759.977	164.52
760.161	301.73
760.345	236.2
760.528	154.28
760.712	178.86
760.895	199.34
761.079	139.94
761.263	-30.04
761.446	80.55
761.63	135.85
761.813	166.57
761.997	12.97
762.18	113.32
762.364	260.77
762.547	66.22
762.731	105.13
762.914	82.6
763.098	82.6
763.281	76.46
763.464	78.51
763.648	45.74
763.831	148.14
764.015	60.07
764.198	168.62
764.381	47.79
764.564	86.7
764.748	86.7
764.931	76.46
765.114	58.03
765.297	176.81
765.481	8.87
765.664	80.55
765.847	-3.41
766.03	262.82
766.213	-25.94
766.397	115.37
766.58	-17.75
766.763	209.58
766.946	25.26
767.129	-1.37
767.312	-44.37
767.495	82.6
767.678	-1.37
767.861	31.4
768.044	92.84
768.227	35.5
768.41	82.6
768.593	86.7
768.776	111.27
768.959	45.74
769.142	127.66
769.324	12.97
769.507	35.5
769.69	55.98
769.873	-13.65
770.056	228.01
770.239	35.5
770.421	103.08
770.604	115.37
770.787	49.83
770.97	80.55
771.152	0.68
771.335	88.75
771.518	6.83
771.7	129.7
771.883	223.91
772.066	41.64
772.248	39.59
772.431	152.23
772.613	78.51
772.796	37.55
772.978	86.7
773.161	162.47
773.343	27.31
773.526	-73.04
773.708	-134.48
773.891	-23.89
774.073	62.12
774.256	45.74
774.438	172.71
774.621	-27.99
774.803	82.6
774.985	47.79
775.168	74.41
775.35	-44.37
775.532	127.66
775.715	37.55
775.897	162.47
776.079	58.03
776.261	43.69
776.444	55.98
776.626	41.64
776.808	60.07
776.99	-103.76
777.173	111.27
777.355	58.03
777.537	109.23
777.719	41.64
777.901	10.92
778.083	27.31
778.265	-25.94
778.447	121.51
778.629	0.68
778.811	82.6
778.993	148.14
779.175	76.46
779.357	2.73
779.539	-32.08
779.721	-3.41
779.903	94.89
780.085	-7.51
780.267	21.16
780.449	35.5
780.631	133.8
780.812	160.42
780.994	21.16
781.176	-7.51
781.358	-3.41
781.54	64.17
781.721	37.55
781.903	105.13
782.085	35.5
782.267	70.31
782.448	-54.61
782.63	64.17
782.812	68.27
782.993	84.65
783.175	84.65
783.357	17.07
783.538	72.36
783.72	-17.75
783.901	19.11
784.083	90.79
784.264	66.22
784.446	-23.89
784.627	-89.43
784.809	111.27
784.99	55.98
785.172	49.83
785.353	-68.95
785.535	-17.75
785.716	12.97
785.897	-42.32
786.079	62.12
786.26	43.69
786.441	193.19
786.623	-73.04
786.804	-19.8
786.985	72.36
787.167	133.8
787.348	-13.65
787.529	6.83
787.71	219.82
787.891	45.74
788.073	6.83
788.254	-60.76
788.435	127.66
788.616	39.59
788.797	-48.47
788.978	15.02
789.159	10.92
789.34	37.55
789.522	86.7
789.703	-50.52
789.884	74.41
790.065	31.4
790.246	189.1
790.427	17.07
790.607	109.23
790.788	164.52
790.969	19.11
791.15	-17.75
791.331	-3.41
791.512	0.68
791.693	-21.85
791.874	25.26
792.054	166.57
792.235	58.03
792.416	-46.42
792.597	-17.75
792.778	76.46
792.958	-46.42
793.139	43.69
793.32	64.17
793.5	-71
793.681	90.79
793.862	51.88
794.042	-21.85
794.223	-85.33
794.404	-42.32
794.584	-91.48
794.765	-1.37
794.945	-15.7
795.126	78.51
795.306	0.68
795.487	-34.13
795.667	33.45
795.848	-71
796.028	-19.8
796.209	4.78
796.389	64.17
796.57	-11.61
796.75	-68.95
796.93	29.35
797.111	-52.56
797.291	-7.51
797.471	80.55
797.652	21.16
797.832	2.73
798.012	60.07
798.192	-64.85
798.373	-38.23
798.553	-9.56
798.733	55.98
798.913	-40.28
799.093	-62.8
799.274	-34.13
799.454	33.45
799.634	41.64
799.814	49.83
799.994	15.02
800.174	51.88
800.354	-44.37
800.534	-122.2
800.714	66.22
800.894	-91.48
801.074	-114
801.254	-107.86
801.434	66.22
801.614	45.74
801.794	-11.61
801.974	1772.18
802.154	-91.48
802.334	74.41
802.514	-17.75
802.693	23.21
802.873	23.21
803.053	107.18
803.233	6.83
803.413	-3.41
803.592	-50.52
803.772	35.5
803.952	0.68
804.131	-101.72
804.311	74.41
804.491	62.12
804.67	-56.66
804.85	-64.85
805.03	-7.51
805.209	53.93
805.389	8.87
805.568	-3.41
805.748	-64.85
805.928	-38.23
806.107	70.31
806.287	92.84
806.466	10.92
806.646	-46.42
806.825	12.97
807.004	-36.18
807.184	35.5
807.363	35.5
807.543	8.87
807.722	-50.52
807.901	70.31
808.081	64.17
808.26	-142.68
808.439	39.59
808.619	-15.7
808.798	-71
808.977	-32.08
809.156	27.31
809.336	31.4
809.515	-23.89
809.694	-62.8
809.873	45.74
810.052	35.5
810.231	115.37
810.411	-11.61
810.59	0.68
810.769	-5.46
810.948	37.55
811.127	-52.56
811.306	-64.85
811.485	-5.46
811.664	74.41
811.843	-21.85
812.022	25.26
812.201	-118.1
812.38	37.55
812.559	-34.13
812.737	101.03
812.916	-60.76
813.095	-36.18
813.274	-9.56
813.453	-1.37
813.632	23.21
813.811	25.26
813.989	-136.53
814.168	53.93
814.347	-91.48
814.526	-9.56
814.704	37.55
814.883	76.46
815.062	-75.09
815.24	15.02
815.419	-71
815.598	8.87
815.776	-130.39
815.955	-32.08
816.133	-116.05
816.312	-77.14
816.49	31.4
816.669	-7.51
816.847	29.35
817.026	15.02
817.204	-50.52
817.383	-34.13
817.561	-95.57
817.74	17.07
817.918	58.03
818.097	-19.8
818.275	-13.65
818.453	55.98
818.632	43.69
818.81	-79.19
818.988	-56.66
819.167	-25.94
819.345	2.73
819.523	-1.37
819.701	33.45
819.879	8.87
820.058	0.68
820.236	41.64
820.414	43.69
820.592	-1.37
820.77	-66.9
820.948	-50.52
821.127	-48.47
821.305	2.73
821.483	-66.9
821.661	41.64
821.839	-81.24
822.017	-15.7
822.195	12.97
822.373	21.16
822.551	6.83
822.729	76.46
822.907	-27.99
823.085	23.21
823.262	47.79
823.44	-17.75
823.618	-9.56
823.796	17.07
823.974	-17.75
824.152	-107.86
824.329	-7.51
824.507	-3.41
824.685	37.55
824.863	31.4
825.04	-42.32
825.218	-21.85
825.396	-19.8
825.574	-40.28
825.751	-89.43
825.929	27.31
826.107	-132.44
826.284	0.68
826.462	15.02
826.639	-46.42
826.817	-54.61
826.994	10.92
827.172	-101.72
827.349	127.66
827.527	-30.04
827.704	-13.65
827.882	109.23
828.059	-13.65
828.237	-46.42
828.414	27.31
828.591	-101.72
828.769	-44.37
828.946	-118.1
829.124	4.78
829.301	84.65
829.478	-25.94
829.655	-1.37
829.833	-17.75
830.01	-161.11
830.187	29.35
830.364	-5.46
830.542	-19.8
830.719	119.46
830.896	47.79
831.073	58.03
831.25	45.74
831.427	78.51
831.604	37.55
831.782	-46.42
831.959	70.31
832.136	-56.66
832.313	19.11
832.49	-56.66
832.667	17.07
832.844	-54.61
833.021	92.84
833.198	35.5
833.374	64.17
833.551	6.83
833.728	-99.67
833.905	49.83
834.082	-116.05
834.259	-3.41
834.436	62.12
834.612	-52.56
834.789	6.83
834.966	-7.51
835.143	-54.61
835.319	-62.8
835.496	-1.37
835.673	-19.8
835.85	23.21
836.026	-23.89
836.203	41.64
836.38	-91.48
836.556	-13.65
836.733	-40.28
836.909	107.18
837.086	-77.14
837.262	-128.34
837.439	-17.75
837.616	-32.08
837.792	-34.13
837.968	76.46
838.145	-118.1
838.321	-44.37
838.498	125.61
838.674	-11.61
838.851	49.83
839.027	-21.85
839.203	33.45
839.38	-5.46
839.556	43.69
839.732	86.7
839.909	-13.65
840.085	21.16
840.261	-50.52
840.437	-56.66
840.614	-7.51
840.79	101.03
840.966	47.79
841.142	-15.7
841.318	-66.9
841.494	19.11
841.671	6.83
841.847	-30.04
842.023	-130.39
842.199	51.88
842.375	92.84
842.551	-134.48
842.727	-132.44
842.903	90.79
843.079	-91.48
843.255	90.79
843.431	-11.61
843.607	35.5
843.783	-124.24
843.959	37.55
844.134	-109.91
844.31	133.8
844.486	-48.47
844.662	-93.52
844.838	-71
845.013	17.07
845.189	19.11
845.365	-5.46
845.541	23.21
845.716	-66.9
845.892	39.59
846.068	-3.41
846.244	-91.48
846.419	58.03
846.595	-87.38
846.77	-79.19
846.946	47.79
847.122	-118.1
847.297	-11.61
847.473	174.76
847.648	-103.76
847.824	-34.13
847.999	-116.05
848.175	23.21
848.35	31.4
848.526	82.6
848.701	-38.23
848.876	37.55
849.052	39.59
849.227	-46.42
849.403	-81.24
849.578	-15.7
849.753	-5.46
849.929	8.87
850.104	-50.52
850.279	-15.7
850.454	92.84
850.63	-5.46
850.805	6.83
850.98	-19.8
851.155	-50.52
851.33	-15.7
851.505	-107.86
851.681	98.99
851.856	-5.46
852.031	-19.8
852.206	-25.94
852.381	-95.57
852.556	-46.42
852.731	35.5
852.906	64.17
853.081	27.31
853.256	109.23
853.431	-9.56
853.606	-95.57
853.781	-99.67
853.956	-114
854.131	0.68
854.305	-42.32
854.48	-32.08
854.655	-120.15
854.83	-77.14
855.005	-42.32
855.18	8.87
855.354	-95.57
855.529	17.07
855.704	-50.52
855.879	25.26
856.053	-83.28
856.228	35.5
856.403	-89.43
856.577	35.5
856.752	-120.15
856.926	2.73
857.101	27.31
857.276	-44.37
857.45	43.69
857.625	6.83
857.799	-21.85
857.974	-11.61
858.148	-109.91
858.323	-17.75
858.497	-81.24
858.672	-64.85
858.846	-105.81
859.02	29.35
859.195	-144.72
859.369	8.87
859.543	-15.7
859.718	21.16
859.892	0.68
860.066	-44.37
860.241	-40.28
860.415	-17.75
860.589	-73.04
860.763	2.73
860.938	-105.81
861.112	6.83
861.286	0.68
861.46	6.83
861.634	-68.95
861.808	49.83
861.982	-52.56
862.157	-85.33
862.331	-21.85
862.505	-191.83
862.679	-122.2
862.853	-23.89
863.027	-68.95
863.201	119.46
863.375	-50.52
863.549	-44.37
863.722	25.26
863.896	29.35
864.07	-64.85
864.244	-40.28
864.418	27.31
864.592	45.74
864.766	23.21
864.939	-9.56
865.113	-23.89
865.287	31.4
865.461	-36.18
865.634	-11.61
865.808	-7.51
865.982	-50.52
866.156	-146.77
866.329	-68.95
866.503	-1.37
866.676	113.32
866.85	10.92
867.024	-93.52
867.197	10.92
867.371	-5.46
867.544	39.59
867.718	-116.05
867.891	45.74
868.065	-83.28
868.238	39.59
868.412	53.93
868.585	-56.66
868.759	-68.95
868.932	2.73
869.105	2.73
869.279	-40.28
869.452	-97.62
869.625	23.21
869.799	-64.85
869.972	-38.23
870.145	-79.19
870.319	53.93
870.492	-38.23
870.665	-91.48
870.838	-52.56
871.011	-152.91
871.185	6.83
871.358	-122.2
871.531	92.84
871.704	-68.95
871.877	-81.24
872.05	-11.61
872.223	-154.96
872.396	27.31
872.569	12.97
872.742	-118.1
872.915	70.31
873.088	-95.57
873.261	-68.95
873.434	37.55
873.607	-101.72
873.78	76.46
873.953	-101.72
874.126	-13.65
874.299	72.36
874.471	-99.67
874.644	-13.65
874.817	33.45
874.99	105.13
875.163	-109.91
875.335	2.73
875.508	35.5
875.681	96.94
875.853	-48.47
876.026	-23.89
876.199	88.75
876.371	31.4
876.544	-32.08
876.717	10.92
876.889	-79.19
877.062	-19.8
877.234	-62.8
877.407	-77.14
877.579	0.68
877.752	-15.7
877.924	98.99
878.097	-23.89
878.269	-60.76
878.442	-5.46
878.614	60.07
878.786	-23.89
878.959	-44.37
879.131	8.87
879.303	-200.02
879.476	-32.08
879.648	21.16
879.82	-7.51
879.993	-60.76
880.165	-93.52
880.337	-97.62
880.509	-7.51
880.681	-73.04
880.854	-56.66
881.026	37.55
881.198	113.32
881.37	-58.71
881.542	23.21
881.714	-159.06
881.886	-77.14
882.058	-89.43
882.23	0.68
882.402	31.4
882.574	-73.04
882.746	80.55
882.918	107.18
883.09	51.88
883.262	-54.61
883.434	4.78
883.606	-167.25
883.778	-40.28
883.95	125.61
884.122	-38.23
884.293	105.13
884.465	-5.46
884.637	21.16
884.809	-146.77
884.98	-36.18
885.152	49.83
885.324	6.83
885.496	-77.14
885.667	17.07
885.839	-7.51
886.011	107.18
886.182	-25.94
886.354	90.79
886.525	37.55
886.697	-15.7
886.869	-144.72
887.04	-42.32
887.212	-13.65
887.383	135.85
887.555	-19.8
887.726	-46.42
887.897	2.73
888.069	78.51
888.24	68.27
888.412	-46.42
888.583	-75.09
888.754	-36.18
888.926	-44.37
889.097	-77.14
889.268	-132.44
889.44	4.78
889.611	-85.33
889.782	-66.9
889.953	-56.66
890.125	-25.94
890.296	-56.66
890.467	-105.81
890.638	-85.33
890.809	35.5
890.98	-50.52
891.151	43.69
891.323	39.59
891.494	-66.9
891.665	-81.24
891.836	-83.28
892.007	-25.94
892.178	19.11
892.349	25.26
892.52	-23.89
892.691	-38.23
892.862	-60.76
893.032	-152.91
893.203	10.92
893.374	-19.8
893.545	60.07
893.716	-25.94
893.887	12.97
894.057	-56.66
894.228	-75.09
894.399	-134.48
894.57	12.97
894.74	-44.37
894.911	21.16
895.082	-103.76
895.253	-38.23
895.423	23.21
895.594	25.26
895.764	-87.38
895.935	-81.24
896.106	-46.42
896.276	-36.18
896.447	-48.47
896.617	-77.14
896.788	-87.38
896.958	-54.61
897.129	10.92
897.299	-15.7
897.47	117.42
897.64	39.59
897.81	-48.47
897.981	29.35
898.151	-89.43
898.322	51.88
898.492	29.35
898.662	-34.13
898.832	-159.06
899.003	-77.14
899.173	17.07
899.343	-30.04
899.513	-114
