Data from USB4F104151__148__11-04-23-139.txt Node

Date: Wed Feb 26 11:04:23 EST 2025
User: louis
Spectrometer: USB4F10415
Trigger mode: 4
Integration Time (sec): 1.000000E-1
Scans to average: 1
Electric dark correction enabled: true
Nonlinearity correction enabled: false
Boxcar width: 0
XAxis mode: Wavelengths
Number of Pixels in Spectrum: 3648
>>>>>Begin Spectral Data<<<<<
178.204	-418.81
178.424	-418.81
178.644	-418.81
178.864	-373.75
179.084	-420.86
179.304	58.37
179.524	-23.55
179.744	5.12
179.964	7.17
180.184	17.41
180.404	87.04
180.624	-76.8
180.844	-3.07
181.064	-80.89
181.283	1.02
181.503	-33.79
181.723	41.98
181.943	-60.42
182.163	199.68
182.383	-37.89
182.602	-25.6
182.822	87.04
183.042	-17.41
183.262	-35.84
183.482	33.79
183.701	29.7
183.921	134.14
184.141	17.41
184.361	66.56
184.58	101.37
184.8	35.84
185.02	-23.55
185.239	109.57
185.459	89.09
185.679	138.24
185.898	-173.05
186.118	5.12
186.338	29.7
186.557	84.99
186.777	-5.12
186.997	13.31
187.216	76.8
187.436	230.4
187.655	74.75
187.875	68.61
188.095	21.5
188.314	166.91
188.534	62.46
188.753	-25.6
188.973	76.8
189.192	144.38
189.412	62.46
189.631	11.26
189.851	31.74
190.07	197.63
190.29	-130.05
190.509	33.79
190.729	-46.08
190.948	197.63
191.168	216.06
191.387	82.94
191.607	132.09
191.826	72.7
192.045	95.23
192.265	-39.94
192.484	105.47
192.704	103.42
192.923	-46.08
193.142	181.25
193.362	105.47
193.581	162.81
193.8	56.32
194.02	-3.07
194.239	66.56
194.458	58.37
194.678	23.55
194.897	50.18
195.116	48.13
195.335	3.07
195.555	95.23
195.774	31.74
195.993	60.42
196.212	-7.17
196.432	-5.12
196.651	19.46
196.87	58.37
197.089	252.92
197.308	27.65
197.528	142.33
197.747	1.02
197.966	142.33
198.185	181.25
198.404	-52.22
198.623	166.91
198.842	134.14
199.062	97.28
199.281	132.09
199.5	50.18
199.719	82.94
199.938	125.95
200.157	48.13
200.376	132.09
200.595	115.71
200.814	37.89
201.033	-56.32
201.252	156.67
201.471	35.84
201.69	87.04
201.909	64.51
202.128	84.99
202.347	99.33
202.566	11.26
202.785	-168.96
203.004	-3.07
203.223	271.36
203.442	27.65
203.661	1.02
203.879	91.13
204.098	136.19
204.317	-35.84
204.536	128
204.755	50.18
204.974	125.95
205.193	-27.65
205.411	203.77
205.63	130.05
205.849	132.09
206.068	74.75
206.287	-9.22
206.505	89.09
206.724	17.41
206.943	25.6
207.162	-76.8
207.381	54.27
207.599	78.85
207.818	84.99
208.037	27.65
208.255	48.13
208.474	54.27
208.693	93.18
208.911	27.65
209.13	29.7
209.349	70.65
209.567	117.76
209.786	27.65
210.005	103.42
210.223	52.22
210.442	-111.61
210.661	95.23
210.879	64.51
211.098	56.32
211.316	35.84
211.535	74.75
211.753	113.66
211.972	89.09
212.191	52.22
212.409	76.8
212.628	160.77
212.846	-62.46
213.065	76.8
213.283	91.13
213.502	29.7
213.72	62.46
213.938	-5.12
214.157	3.07
214.375	87.04
214.594	109.57
214.812	56.32
215.031	3.07
215.249	109.57
215.467	37.89
215.686	58.37
215.904	29.7
216.122	33.79
216.341	136.19
216.559	-5.12
216.778	150.53
216.996	179.2
217.214	48.13
217.432	27.65
217.651	-70.65
217.869	23.55
218.087	121.85
218.306	76.8
218.524	27.65
218.742	125.95
218.96	95.23
219.179	48.13
219.397	13.31
219.615	263.16
219.833	138.24
220.051	-44.03
220.27	154.62
220.488	146.43
220.706	91.13
220.924	11.26
221.142	-44.03
221.36	68.61
221.578	31.74
221.796	70.65
222.015	17.41
222.233	80.89
222.451	146.43
222.669	-91.13
222.887	41.98
223.105	1.02
223.323	-7.17
223.541	-39.94
223.759	33.79
223.977	74.75
224.195	41.98
224.413	173.05
224.631	-13.31
224.849	166.91
225.067	134.14
225.285	5.12
225.503	15.36
225.721	-117.76
225.939	58.37
226.157	93.18
226.375	234.49
226.592	-1.02
226.81	-15.36
227.028	44.03
227.246	123.9
227.464	44.03
227.682	70.65
227.9	46.08
228.117	99.33
228.335	173.05
228.553	-29.7
228.771	21.5
228.989	60.42
229.206	121.85
229.424	56.32
229.642	13.31
229.86	23.55
230.077	109.57
230.295	15.36
230.513	138.24
230.731	87.04
230.948	121.85
231.166	181.25
231.384	-3.07
231.601	-82.94
231.819	197.63
232.037	-21.5
232.254	17.41
232.472	76.8
232.689	58.37
232.907	95.23
233.125	17.41
233.342	5.12
233.56	-64.51
233.777	-56.32
233.995	27.65
234.213	99.33
234.43	222.2
234.648	68.61
234.865	41.98
235.083	9.22
235.3	56.32
235.518	76.8
235.735	132.09
235.953	76.8
236.17	74.75
236.388	31.74
236.605	35.84
236.822	5.12
237.04	191.49
237.257	60.42
237.475	113.66
237.692	87.04
237.909	99.33
238.127	37.89
238.344	39.94
238.562	25.6
238.779	-46.08
238.996	-74.75
239.214	27.65
239.431	27.65
239.648	21.5
239.865	146.43
240.083	62.46
240.3	-5.12
240.517	29.7
240.735	-13.31
240.952	89.09
241.169	50.18
241.386	99.33
241.603	72.7
241.821	-52.22
242.038	89.09
242.255	121.85
242.472	-44.03
242.689	56.32
242.907	37.89
243.124	41.98
243.341	9.22
243.558	33.79
243.775	-111.61
243.992	-87.04
244.209	111.61
244.426	171.01
244.643	64.51
244.86	35.84
245.078	25.6
245.295	62.46
245.512	25.6
245.729	39.94
245.946	58.37
246.163	113.66
246.38	76.8
246.597	5.12
246.814	58.37
247.031	27.65
247.248	-9.22
247.464	156.67
247.681	39.94
247.898	82.94
248.115	107.52
248.332	-33.79
248.549	156.67
248.766	154.62
248.983	99.33
249.2	54.27
249.417	72.7
249.633	-111.61
249.85	117.76
250.067	41.98
250.284	72.7
250.501	97.28
250.717	76.8
250.934	-21.5
251.151	-1.02
251.368	-17.41
251.585	111.61
251.801	66.56
252.018	-9.22
252.235	21.5
252.451	-9.22
252.668	5.12
252.885	185.34
253.102	29.7
253.318	11.26
253.535	56.32
253.752	-64.51
253.968	13.31
254.185	-66.56
254.401	50.18
254.618	-23.55
254.835	91.13
255.051	181.25
255.268	1.02
255.484	72.7
255.701	50.18
255.917	84.99
256.134	-1.02
256.351	60.42
256.567	-5.12
256.784	50.18
257	13.31
257.217	62.46
257.433	99.33
257.65	93.18
257.866	154.62
258.082	-17.41
258.299	-33.79
258.515	54.27
258.732	-33.79
258.948	58.37
259.165	152.57
259.381	-60.42
259.597	23.55
259.814	115.71
260.03	-21.5
260.246	-52.22
260.463	121.85
260.679	89.09
260.895	70.65
261.112	74.75
261.328	13.31
261.544	-48.13
261.761	168.96
261.977	-72.7
262.193	5.12
262.409	125.95
262.626	46.08
262.842	52.22
263.058	17.41
263.274	101.37
263.49	111.61
263.707	144.38
263.923	115.71
264.139	-33.79
264.355	33.79
264.571	132.09
264.787	50.18
265.004	146.43
265.22	3.07
265.436	19.46
265.652	1.02
265.868	130.05
266.084	-103.42
266.3	48.13
266.516	31.74
266.732	125.95
266.948	27.65
267.164	48.13
267.38	117.76
267.596	72.7
267.812	113.66
268.028	46.08
268.244	-84.99
268.46	25.6
268.676	39.94
268.892	52.22
269.108	-19.46
269.324	1.02
269.54	-9.22
269.756	56.32
269.972	-82.94
270.188	46.08
270.403	-11.26
270.619	19.46
270.835	27.65
271.051	113.66
271.267	27.65
271.483	23.55
271.698	95.23
271.914	119.81
272.13	-48.13
272.346	33.79
272.562	107.52
272.777	107.52
272.993	-56.32
273.209	7.17
273.425	103.42
273.64	-44.03
273.856	101.37
274.072	23.55
274.287	-1.02
274.503	107.52
274.719	52.22
274.934	-15.36
275.15	-95.23
275.366	46.08
275.581	-29.7
275.797	48.13
276.012	119.81
276.228	-46.08
276.444	9.22
276.659	93.18
276.875	13.31
277.09	-37.89
277.306	97.28
277.521	54.27
277.737	72.7
277.952	111.61
278.168	46.08
278.383	93.18
278.599	111.61
278.814	64.51
279.03	37.89
279.245	99.33
279.461	1.02
279.676	23.55
279.892	-70.65
280.107	-1.02
280.322	17.41
280.538	21.5
280.753	13.31
280.969	68.61
281.184	3.07
281.399	146.43
281.615	-64.51
281.83	52.22
282.045	-62.46
282.26	-7.17
282.476	35.84
282.691	3.07
282.906	44.03
283.122	121.85
283.337	25.6
283.552	31.74
283.767	-7.17
283.983	125.95
284.198	-5.12
284.413	156.67
284.628	25.6
284.843	64.51
285.058	140.29
285.274	52.22
285.489	50.18
285.704	195.58
285.919	-101.37
286.134	-11.26
286.349	17.41
286.564	44.03
286.779	134.14
286.995	84.99
287.21	-35.84
287.425	74.75
287.64	58.37
287.855	74.75
288.07	19.46
288.285	144.38
288.5	74.75
288.715	27.65
288.93	19.46
289.145	41.98
289.36	109.57
289.575	-17.41
289.79	84.99
290.004	15.36
290.219	154.62
290.434	-64.51
290.649	31.74
290.864	35.84
291.079	-29.7
291.294	33.79
291.509	117.76
291.724	64.51
291.938	-29.7
292.153	82.94
292.368	19.46
292.583	37.89
292.798	48.13
293.012	1.02
293.227	46.08
293.442	80.89
293.657	60.42
293.871	91.13
294.086	101.37
294.301	209.92
294.516	150.53
294.73	109.57
294.945	21.5
295.16	60.42
295.374	105.47
295.589	64.51
295.804	60.42
296.018	64.51
296.233	97.28
296.447	89.09
296.662	41.98
296.877	91.13
297.091	29.7
297.306	107.52
297.52	64.51
297.735	99.33
297.949	68.61
298.164	80.89
298.378	66.56
298.593	-1.02
298.807	13.31
299.022	19.46
299.236	171.01
299.451	64.51
299.665	-7.17
299.88	58.37
300.094	72.7
300.309	3.07
300.523	15.36
300.737	-41.98
300.952	144.38
301.166	68.61
301.381	27.65
301.595	5.12
301.809	70.65
302.024	17.41
302.238	-17.41
302.452	160.77
302.667	50.18
302.881	128
303.095	115.71
303.309	125.95
303.524	105.47
303.738	91.13
303.952	-46.08
304.166	66.56
304.381	-87.04
304.595	168.96
304.809	-33.79
305.023	41.98
305.237	-11.26
305.452	54.27
305.666	64.51
305.88	50.18
306.094	93.18
306.308	107.52
306.522	52.22
306.736	123.9
306.95	162.81
307.164	37.89
307.379	11.26
307.593	115.71
307.807	72.7
308.021	123.9
308.235	152.57
308.449	-93.18
308.663	25.6
308.877	277.5
309.091	95.23
309.305	9.22
309.519	-107.52
309.733	76.8
309.947	-72.7
310.161	37.89
310.374	74.75
310.588	101.37
310.802	-56.32
311.016	-60.42
311.23	27.65
311.444	-109.57
311.658	48.13
311.872	109.57
312.085	33.79
312.299	148.48
312.513	195.58
312.727	121.85
312.941	-62.46
313.154	-31.74
313.368	23.55
313.582	50.18
313.796	113.66
314.009	72.7
314.223	111.61
314.437	132.09
314.651	101.37
314.864	-13.31
315.078	52.22
315.292	-48.13
315.505	-5.12
315.719	76.8
315.933	142.33
316.146	1.02
316.36	-5.12
316.573	80.89
316.787	115.71
317.001	130.05
317.214	-80.89
317.428	50.18
317.641	-101.37
317.855	39.94
318.068	31.74
318.282	29.7
318.495	164.86
318.709	164.86
318.922	31.74
319.136	132.09
319.349	117.76
319.563	11.26
319.776	76.8
319.99	-46.08
320.203	89.09
320.417	50.18
320.63	87.04
320.843	183.29
321.057	52.22
321.27	89.09
321.483	150.53
321.697	91.13
321.91	25.6
322.124	87.04
322.337	27.65
322.55	9.22
322.763	48.13
322.977	46.08
323.19	-64.51
323.403	52.22
323.617	113.66
323.83	130.05
324.043	52.22
324.256	84.99
324.469	-13.31
324.683	128
324.896	93.18
325.109	-62.46
325.322	-5.12
325.535	109.57
325.748	91.13
325.962	35.84
326.175	50.18
326.388	76.8
326.601	173.05
326.814	-15.36
327.027	97.28
327.24	203.77
327.453	1.02
327.666	97.28
327.879	140.29
328.092	84.99
328.305	39.94
328.518	33.79
328.731	19.46
328.944	37.89
329.157	117.76
329.37	-15.36
329.583	123.9
329.796	158.72
330.009	-29.7
330.222	117.76
330.435	142.33
330.648	89.09
330.861	60.42
331.073	21.5
331.286	105.47
331.499	76.8
331.712	-41.98
331.925	46.08
332.138	107.52
332.35	123.9
332.563	21.5
332.776	78.85
332.989	-29.7
333.202	9.22
333.414	52.22
333.627	39.94
333.84	-23.55
334.053	115.71
334.265	-33.79
334.478	3.07
334.691	23.55
334.903	-3.07
335.116	31.74
335.329	-15.36
335.541	64.51
335.754	97.28
335.966	-62.46
336.179	37.89
336.392	-35.84
336.604	-3.07
336.817	105.47
337.029	76.8
337.242	37.89
337.454	125.95
337.667	1.02
337.88	140.29
338.092	9.22
338.305	136.19
338.517	-39.94
338.729	84.99
338.942	166.91
339.154	-13.31
339.367	-140.29
339.579	93.18
339.792	-3.07
340.004	41.98
340.217	35.84
340.429	78.85
340.641	-58.37
340.854	-1.02
341.066	-15.36
341.278	156.67
341.491	166.91
341.703	27.65
341.915	9.22
342.128	142.33
342.34	142.33
342.552	21.5
342.764	74.75
342.977	82.94
343.189	50.18
343.401	91.13
343.613	-27.65
343.826	23.55
344.038	-58.37
344.25	48.13
344.462	31.74
344.674	84.99
344.886	3.07
345.099	58.37
345.311	76.8
345.523	-27.65
345.735	-15.36
345.947	115.71
346.159	113.66
346.371	99.33
346.583	50.18
346.795	203.77
347.007	7.17
347.219	64.51
347.431	84.99
347.643	93.18
347.855	-23.55
348.067	177.15
348.279	62.46
348.491	-5.12
348.703	162.81
348.915	3.07
349.127	-25.6
349.339	11.26
349.551	72.7
349.763	117.76
349.975	111.61
350.187	39.94
350.399	152.57
350.61	72.7
350.822	62.46
351.034	105.47
351.246	58.37
351.458	84.99
351.669	39.94
351.881	123.9
352.093	132.09
352.305	44.03
352.517	99.33
352.728	128
352.94	82.94
353.152	7.17
353.363	80.89
353.575	99.33
353.787	37.89
353.999	37.89
354.21	142.33
354.422	-89.09
354.633	58.37
354.845	31.74
355.057	15.36
355.268	-19.46
355.48	76.8
355.692	-3.07
355.903	87.04
356.115	25.6
356.326	-41.98
356.538	154.62
356.749	70.65
356.961	146.43
357.172	72.7
357.384	27.65
357.595	209.92
357.807	17.41
358.018	37.89
358.23	27.65
358.441	105.47
358.653	1.02
358.864	11.26
359.075	-56.32
359.287	50.18
359.498	140.29
359.709	103.42
359.921	62.46
360.132	68.61
360.344	128
360.555	-66.56
360.766	19.46
360.977	-7.17
361.189	142.33
361.4	23.55
361.611	128
361.823	132.09
362.034	15.36
362.245	-44.03
362.456	-35.84
362.667	72.7
362.879	-60.42
363.09	91.13
363.301	99.33
363.512	80.89
363.723	17.41
363.935	-52.22
364.146	70.65
364.357	41.98
364.568	35.84
364.779	-7.17
364.99	189.44
365.201	-21.5
365.412	152.57
365.623	-35.84
365.834	56.32
366.045	19.46
366.256	146.43
366.467	91.13
366.678	68.61
366.889	64.51
367.1	66.56
367.311	111.61
367.522	-3.07
367.733	107.52
367.944	115.71
368.155	19.46
368.366	154.62
368.577	152.57
368.788	132.09
368.999	3.07
369.209	29.7
369.42	244.73
369.631	207.87
369.842	82.94
370.053	11.26
370.264	132.09
370.474	-21.5
370.685	76.8
370.896	128
371.107	166.91
371.317	70.65
371.528	31.74
371.739	187.39
371.95	68.61
372.16	44.03
372.371	-1.02
372.582	-52.22
372.792	68.61
373.003	115.71
373.214	103.42
373.424	72.7
373.635	68.61
373.846	230.4
374.056	68.61
374.267	41.98
374.477	105.47
374.688	-64.51
374.898	134.14
375.109	78.85
375.319	93.18
375.53	107.52
375.74	103.42
375.951	52.22
376.161	46.08
376.372	119.81
376.582	39.94
376.793	44.03
377.003	-50.18
377.214	35.84
377.424	68.61
377.635	72.7
377.845	-29.7
378.055	148.48
378.266	15.36
378.476	25.6
378.686	93.18
378.897	99.33
379.107	183.29
379.317	99.33
379.528	52.22
379.738	115.71
379.948	25.6
380.158	148.48
380.369	115.71
380.579	19.46
380.789	-33.79
380.999	80.89
381.21	56.32
381.42	209.92
381.63	21.5
381.84	119.81
382.05	54.27
382.261	76.8
382.471	125.95
382.681	11.26
382.891	228.35
383.101	-3.07
383.311	-74.75
383.521	37.89
383.731	154.62
383.941	91.13
384.151	113.66
384.361	3.07
384.571	41.98
384.781	37.89
384.991	179.2
385.201	158.72
385.411	80.89
385.621	144.38
385.831	87.04
386.041	66.56
386.251	58.37
386.461	201.72
386.671	66.56
386.881	68.61
387.091	-23.55
387.301	117.76
387.511	35.84
387.72	29.7
387.93	140.29
388.14	5.12
388.35	82.94
388.56	160.77
388.769	70.65
388.979	31.74
389.189	7.17
389.399	21.5
389.609	95.23
389.818	74.75
390.028	23.55
390.238	66.56
390.447	-64.51
390.657	33.79
390.867	-29.7
391.076	-54.27
391.286	56.32
391.496	84.99
391.705	-25.6
391.915	191.49
392.125	119.81
392.334	-13.31
392.544	160.77
392.753	76.8
392.963	1.02
393.172	87.04
393.382	41.98
393.591	134.14
393.801	46.08
394.01	173.05
394.22	130.05
394.429	84.99
394.639	-1.02
394.848	52.22
395.058	39.94
395.267	93.18
395.477	146.43
395.686	-9.22
395.895	72.7
396.105	218.11
396.314	31.74
396.524	123.9
396.733	66.56
396.942	39.94
397.152	101.37
397.361	97.28
397.57	54.27
397.78	39.94
397.989	64.51
398.198	214.01
398.407	52.22
398.617	-1.02
398.826	89.09
399.035	52.22
399.244	160.77
399.453	60.42
399.663	130.05
399.872	48.13
400.081	41.98
400.29	164.86
400.499	-17.41
400.708	121.85
400.917	33.79
401.127	33.79
401.336	41.98
401.545	117.76
401.754	132.09
401.963	74.75
402.172	3.07
402.381	-44.03
402.59	58.37
402.799	-19.46
403.008	119.81
403.217	9.22
403.426	35.84
403.635	-66.56
403.844	46.08
404.053	17.41
404.262	13.31
404.471	171.01
404.68	68.61
404.888	72.7
405.097	-9.22
405.306	48.13
405.515	125.95
405.724	-5.12
405.933	101.37
406.142	60.42
406.35	175.1
406.559	-23.55
406.768	66.56
406.977	191.49
407.185	140.29
407.394	146.43
407.603	5.12
407.812	33.79
408.02	105.47
408.229	56.32
408.438	121.85
408.646	-11.26
408.855	58.37
409.064	58.37
409.272	-13.31
409.481	119.81
409.69	-15.36
409.898	5.12
410.107	111.61
410.315	128
410.524	-3.07
410.733	21.5
410.941	46.08
411.15	82.94
411.358	74.75
411.567	168.96
411.775	31.74
411.984	91.13
412.192	115.71
412.401	-3.07
412.609	160.77
412.818	144.38
413.026	113.66
413.234	-19.46
413.443	109.57
413.651	-5.12
413.86	39.94
414.068	132.09
414.276	162.81
414.485	-21.5
414.693	140.29
414.901	175.1
415.11	136.19
415.318	101.37
415.526	60.42
415.734	160.77
415.943	58.37
416.151	101.37
416.359	111.61
416.567	52.22
416.776	152.57
416.984	166.91
417.192	267.26
417.4	33.79
417.608	17.41
417.817	15.36
418.025	152.57
418.233	228.35
418.441	37.89
418.649	44.03
418.857	44.03
419.065	211.96
419.273	-3.07
419.481	68.61
419.689	31.74
419.897	44.03
420.105	37.89
420.313	121.85
420.521	146.43
420.729	115.71
420.937	15.36
421.145	-17.41
421.353	144.38
421.561	171.01
421.769	78.85
421.977	39.94
422.185	179.2
422.393	31.74
422.601	146.43
422.809	132.09
423.017	52.22
423.224	46.08
423.432	72.7
423.64	27.65
423.848	205.82
424.056	50.18
424.263	138.24
424.471	72.7
424.679	84.99
424.887	-13.31
425.094	134.14
425.302	50.18
425.51	56.32
425.718	113.66
425.925	74.75
426.133	97.28
426.341	252.92
426.548	119.81
426.756	60.42
426.964	109.57
427.171	44.03
427.379	168.96
427.586	140.29
427.794	136.19
428.001	66.56
428.209	39.94
428.417	218.11
428.624	164.86
428.832	64.51
429.039	72.7
429.247	72.7
429.454	103.42
429.662	279.55
429.869	150.53
430.076	89.09
430.284	142.33
430.491	281.6
430.699	197.63
430.906	244.73
431.114	115.71
431.321	166.91
431.528	23.55
431.736	148.48
431.943	232.44
432.15	220.16
432.358	209.92
432.565	261.12
432.772	48.13
432.979	162.81
433.187	168.96
433.394	265.21
433.601	99.33
433.808	248.83
434.016	269.31
434.223	230.4
434.43	216.06
434.637	318.46
434.844	328.7
435.052	300.03
435.259	302.08
435.466	267.26
435.673	297.98
435.88	283.64
436.087	324.6
436.294	379.9
436.501	420.86
436.708	338.94
436.915	322.56
437.122	394.23
437.329	300.03
437.537	367.61
437.743	281.6
437.95	441.34
438.157	377.85
438.364	375.8
438.571	369.66
438.778	478.2
438.985	506.87
439.192	539.64
439.399	420.86
439.606	523.26
439.813	572.41
440.02	613.37
440.227	699.38
440.433	633.85
440.64	584.7
440.847	553.98
441.054	648.18
441.261	742.39
441.467	707.57
441.674	709.62
441.881	777.2
442.088	723.96
442.294	818.16
442.501	869.36
442.708	840.69
442.914	848.88
443.121	965.62
443.328	895.99
443.534	1018.86
443.741	938.99
443.948	885.75
444.154	1049.58
444.361	1352.68
444.568	1045.49
444.774	1080.3
444.981	1065.97
445.187	1203.18
445.394	1174.51
445.6	1252.33
445.807	1467.37
446.013	1424.36
446.22	1281
446.426	1655.78
446.633	1537
446.839	1833.96
447.046	1596.39
447.252	1850.34
447.459	1754.09
447.665	1799.14
447.871	1860.58
448.078	2139.1
448.284	2114.53
448.491	2116.58
448.697	2208.73
448.903	2311.13
449.11	2386.91
449.316	2419.68
449.522	2573.27
449.728	2687.96
449.935	2784.21
450.141	2782.17
450.347	2933.72
450.553	2943.96
450.76	3025.87
450.966	3154.9
451.172	3238.86
451.378	3417.04
451.584	3423.18
451.791	3800.01
451.997	3908.55
452.203	3926.98
452.409	4256.7
452.615	4309.95
452.821	4154.3
453.027	4211.65
453.233	4856.76
453.44	4479.93
453.646	4996.02
453.852	5059.51
454.058	5149.62
454.264	5309.36
454.47	5856.17
454.676	5860.26
454.882	6220.71
455.088	5888.93
455.294	6292.38
455.5	6861.72
455.705	7375.76
455.911	7109.52
456.117	7330.7
456.323	7678.86
456.529	7515.02
456.735	8348.54
456.941	8512.38
457.147	9040.76
457.352	9173.88
457.558	9255.79
457.764	9991.02
457.97	10156.9
458.176	10738.52
458.381	11414.35
458.587	11496.27
458.793	11930.44
458.999	11709.26
459.204	13269.81
459.41	13904.68
459.616	13550.39
459.821	14525.22
460.027	15328.02
460.233	15799.05
460.438	15799.05
460.644	16816.9
460.85	16812.8
461.055	17742.58
461.261	18485.99
461.466	18146.03
461.672	18453.22
461.878	20581.06
462.083	20564.68
462.289	20826.82
462.494	21646.01
462.7	21682.87
462.905	22178.48
463.111	23964.31
463.316	24994.43
463.522	25545.34
463.727	26358.38
463.932	27361.89
464.138	28439.12
464.343	29393.47
464.549	29491.77
464.754	31578.65
464.959	32487.95
465.165	33243.65
465.37	33047.05
465.575	32616.97
465.781	34755.05
465.986	35736.03
466.191	35742.17
466.397	35389.92
466.602	34589.17
466.807	36774.35
467.012	37093.83
467.218	37882.3
467.423	37730.75
467.628	38820.27
467.833	41087.37
468.038	40241.56
468.244	39481.77
468.449	41537.93
468.654	40833.42
468.859	40950.16
469.064	41001.36
469.269	39885.22
469.474	39956.89
469.679	41165.2
469.885	39717.28
470.09	40661.4
470.295	40419.74
470.5	39072.17
470.705	39678.37
470.91	38769.07
471.115	38420.92
471.32	38838.7
471.525	38625.71
471.73	37835.2
471.935	37181.9
472.139	36135.38
472.344	35852.76
472.549	35994.07
472.754	34828.78
472.959	34327.03
473.164	33470.98
473.369	32330.26
473.574	33884.67
473.778	32817.68
473.983	32354.83
474.188	31629.85
474.393	29696.57
474.598	30042.68
474.802	29778.49
475.007	29065.8
475.212	28977.73
475.417	27615.83
475.621	27253.34
475.826	27155.04
476.031	26288.75
476.235	25668.22
476.44	25877.11
476.645	25098.88
476.849	24838.79
477.054	24181.39
477.259	23675.54
477.463	23743.13
477.668	23351.96
477.872	23495.32
478.077	22571.69
478.282	21914.29
478.486	21662.39
478.691	21504.7
478.895	21369.53
479.1	21445.3
479.304	20980.42
479.509	20218.57
479.713	20886.21
479.918	20136.65
480.122	19716.82
480.326	19925.71
480.531	20011.73
480.735	19479.25
480.94	19268.31
481.144	19696.34
481.348	18854.62
481.553	19147.48
481.757	18473.7
481.961	18612.96
482.166	18707.17
482.37	18387.69
482.574	17963.76
482.778	17648.37
482.983	18014.96
483.187	17951.47
483.391	17730.29
483.595	17474.29
483.8	17449.72
484.004	17445.62
484.208	17146.62
484.412	17283.83
484.616	16837.38
484.821	16626.43
485.025	16239.37
485.229	16108.3
485.433	16061.19
485.637	15762.19
485.841	15500.05
486.045	15440.66
486.249	15325.97
486.453	15123.23
486.657	14834.46
486.861	14680.86
487.065	14156.58
487.269	14095.14
487.473	13632.3
487.677	13931.31
487.881	13646.64
488.085	13286.2
488.289	13353.78
488.493	12829.5
488.697	12856.12
488.901	12536.64
489.105	12131.14
489.309	11983.69
489.512	11920.2
489.716	11789.13
489.92	11379.54
490.124	10937.18
490.328	11103.06
490.531	10720.09
490.735	10902.36
490.939	10679.13
491.143	10212.2
491.346	10181.48
491.55	9814.89
491.754	9585.52
491.958	9741.16
492.161	9454.45
492.365	9581.42
492.569	9393.01
492.772	9212.79
492.976	9102.2
493.18	8889.21
493.383	8874.87
493.587	8848.25
493.79	8786.81
493.994	8278.91
494.197	8502.14
494.401	8475.52
494.605	8137.6
494.808	8274.82
495.012	8336.26
495.215	8082.31
495.419	8137.6
495.622	7662.48
495.825	7811.98
496.029	7965.57
496.232	7895.94
496.436	7742.35
496.639	7943.05
496.843	7844.74
497.046	7912.33
497.249	8078.21
497.453	7979.91
497.656	8082.31
497.859	7844.74
498.063	8008.58
498.266	8227.71
498.469	7873.42
498.673	7920.52
498.876	8016.77
499.079	8055.69
499.282	8117.12
499.485	8528.77
499.689	8340.35
499.892	8424.32
500.095	8291.2
500.298	8438.66
500.501	8289.15
500.705	8450.94
500.908	8715.13
501.111	8592.25
501.314	8921.98
501.517	8905.59
501.72	9028.47
501.923	9096.05
502.126	9036.66
502.329	9278.32
502.532	9380.72
502.735	9462.64
502.938	9593.71
503.141	9755.5
503.344	9929.58
503.547	10003.3
503.75	10103.65
503.953	10244.96
504.156	10412.9
504.359	10672.99
504.562	10480.48
504.765	10935.13
504.968	10906.46
505.17	11092.82
505.373	11381.59
505.576	11672.4
505.779	11752.27
505.982	11866.95
506.185	12141.38
506.387	12528.45
506.59	12479.3
506.793	12839.74
506.996	12872.51
507.198	13685.55
507.401	13671.22
507.604	13824.81
507.807	14142.25
508.009	14312.23
508.212	14730.02
508.415	15074.07
508.617	15264.54
508.82	15543.06
509.022	15618.83
509.225	16265.99
509.428	16382.73
509.63	16771.84
509.833	17158.91
510.035	17943.28
510.238	17881.84
510.44	18117.36
510.643	18825.95
510.845	19440.34
511.048	19438.3
511.25	19800.79
511.453	20253.39
511.655	21347
511.858	21283.52
512.06	21928.63
512.262	22352.55
512.465	22667.94
512.667	23237.28
512.87	23945.87
513.072	24175.25
513.274	24992.39
513.477	25547.39
513.679	26098.29
513.881	26794.6
514.084	27263.58
514.286	27677.27
514.488	28207.7
514.69	29192.77
514.893	29682.24
515.095	30136.88
515.297	30700.08
515.499	31377.95
515.701	32229.91
515.904	33104.39
516.106	33362.43
516.308	34456.05
516.51	35066.34
516.712	35191.27
516.914	36024.79
517.116	37378.5
517.318	37571.01
517.52	37982.65
517.722	38656.43
517.925	39483.81
518.127	40556.95
518.329	40968.59
518.531	41157
518.733	42185.08
518.935	42928.5
519.136	43364.71
519.338	44233.05
519.54	45035.86
519.742	45848.9
519.944	46195.01
520.146	47343.92
520.348	47374.64
520.55	47886.63
520.752	48234.78
520.954	49727.75
521.155	49789.19
521.357	50192.64
521.559	50950.39
521.761	51613.93
521.963	51523.82
522.164	52244.71
522.366	52525.28
522.568	53088.47
522.77	53524.69
522.971	54343.87
523.173	53835.98
523.375	54753.47
523.576	54325.44
523.778	54880.44
523.98	55351.48
524.181	55273.65
524.383	55531.7
524.584	56225.96
524.786	55797.93
524.988	55615.66
525.189	56393.89
525.391	55967.91
525.592	56182.95
525.794	56363.17
525.995	55906.47
526.197	55265.46
526.398	56141.99
526.6	56393.89
526.801	55492.79
527.003	55969.96
527.204	55443.63
527.406	55455.92
527.607	54808.76
527.808	55267.51
528.01	54065.35
528.211	54081.73
528.412	54712.51
528.614	53878.99
528.815	53328.08
529.016	53252.31
529.218	52383.97
529.419	51943.66
529.62	51845.35
529.822	51212.53
530.023	50751.74
530.224	50614.52
530.425	49611.02
530.626	48851.22
530.828	48283.94
531.029	48804.12
531.23	47864.1
531.431	46799.16
531.632	46592.31
531.833	46098.75
532.035	45390.16
532.236	45498.7
532.437	44826.96
532.638	44269.92
532.839	43585.89
533.04	43368.81
533.241	42275.19
533.442	42396.03
533.643	41795.97
533.844	41009.55
534.045	40450.45
534.246	39764.39
534.447	39299.5
534.648	38887.85
534.849	38355.38
535.05	37462.47
535.251	37315.01
535.451	36731.34
535.652	36540.88
535.853	35643.87
536.054	35303.91
536.255	35316.2
536.456	34085.37
536.657	34249.21
536.857	33110.53
537.058	33157.64
537.259	32829.96
537.46	32283.16
537.66	31529.5
537.861	31130.15
538.062	30849.58
538.263	30347.82
538.463	29790.78
538.664	29612.6
538.865	29073.99
539.065	29463.1
539.266	28533.32
539.466	28703.31
539.667	27751
539.868	27718.23
540.068	27073.12
540.269	27206.24
540.469	26649.19
540.67	26284.65
540.87	26206.83
541.071	25385.6
541.271	25582.2
541.472	25291.39
541.672	24631.94
541.873	24685.19
542.073	23888.53
542.274	24007.31
542.474	23712.41
542.675	23040.67
542.875	23282.33
543.075	22733.48
543.276	22491.82
543.476	22532.78
543.676	22088.37
543.877	22235.82
544.077	21725.88
544.277	21590.71
544.478	21351.1
544.678	20964.03
544.878	20597.45
545.078	20484.81
545.279	19966.67
545.479	19782.35
545.679	19798.74
545.879	19444.44
546.079	19417.82
546.28	19004.13
546.48	19067.61
546.68	18911.97
546.88	18514.66
547.08	18309.86
547.28	17718
547.48	17568.5
547.68	17525.49
547.88	17355.51
548.081	17394.42
548.281	16769.79
548.481	16474.88
548.681	16626.43
548.881	16339.72
549.081	16122.63
549.28	15819.53
549.48	15659.79
549.68	15309.59
549.88	15258.39
550.08	14852.89
550.28	14764.83
550.48	14777.12
550.68	14637.86
550.88	13900.59
551.08	13947.69
551.279	13900.59
551.479	13327.16
551.679	13601.58
551.879	13138.74
552.079	13060.92
552.278	12815.16
552.478	12944.19
552.678	12559.17
552.878	12174.15
553.077	11852.62
553.277	11627.34
553.477	11768.65
553.676	11508.56
553.876	11174.74
554.076	11258.71
554.275	10976.09
554.475	10730.33
554.674	10556.25
554.874	10697.56
555.074	10224.48
555.273	10150.76
555.473	9980.78
555.672	9902.95
555.872	9501.55
556.071	9476.98
556.271	9476.98
556.47	9120.63
556.67	9046.9
556.869	8797.05
557.068	8811.39
557.268	8530.81
557.467	8350.59
557.667	8561.53
557.866	8057.73
558.065	8293.25
558.265	8035.21
558.464	8002.44
558.663	7779.21
558.863	7678.86
559.062	7365.52
559.261	7316.37
559.461	7314.32
559.66	7177.11
559.859	6822.81
560.058	6814.62
560.258	6640.54
560.457	6677.4
560.656	6785.94
560.855	6208.42
561.054	6534.04
561.253	6290.34
561.453	6146.98
561.652	6089.64
561.851	5925.8
562.05	5878.69
562.249	5723.05
562.448	5923.75
562.647	5530.54
562.846	5432.24
563.045	5614.51
563.244	5358.51
563.443	5221.3
563.642	5104.56
563.841	5288.88
564.04	5114.8
564.239	5055.41
564.438	4930.48
564.637	4697.02
564.836	4719.54
565.035	4862.9
565.234	4541.37
565.432	4527.03
565.631	4690.87
565.83	4479.93
566.029	4414.4
566.228	4348.86
566.427	4373.44
566.625	4148.16
566.824	4078.53
567.023	4064.19
567.222	4092.87
567.42	3914.69
567.619	3881.92
567.818	3886.02
568.016	3980.23
568.215	3769.29
568.414	3730.38
568.612	3591.11
568.811	3572.68
569.01	3562.44
569.208	3425.23
569.407	3521.48
569.605	3324.88
569.804	3349.45
570.002	3173.33
570.201	3136.46
570.4	3214.29
570.598	3142.61
570.797	3079.12
570.995	2966.48
571.193	3025.87
571.392	3027.92
571.59	2825.17
571.789	2849.75
571.987	2929.62
572.186	2857.94
572.384	2755.54
572.582	2712.53
572.781	2790.36
572.979	2503.64
573.177	2616.28
573.376	2493.4
573.574	2587.61
573.772	2327.52
573.971	2255.84
574.169	2259.93
574.367	2247.65
574.565	2319.32
574.763	2245.6
574.962	2190.3
575.16	2319.32
575.358	2212.83
575.556	2069.47
575.754	2288.61
575.952	2048.99
576.151	2186.21
576.349	2118.62
576.547	1915.87
576.745	1950.69
576.943	1926.11
577.141	1874.92
577.339	1821.67
577.537	1860.58
577.735	1870.82
577.933	1801.19
578.131	1690.6
578.329	1815.52
578.527	1620.97
578.725	1727.46
578.923	1600.49
579.121	1584.1
579.319	1467.37
579.516	1682.41
579.714	1614.82
579.912	1508.33
580.11	1444.84
580.308	1422.31
580.506	1446.89
580.704	1373.16
580.901	1358.83
581.099	1364.97
581.297	1362.92
581.495	1305.58
581.692	1262.57
581.89	1405.93
582.088	1324.01
582.285	1188.85
582.483	1231.85
582.681	1248.24
582.878	1272.81
583.076	1264.62
583.274	1170.41
583.471	1190.89
583.669	1072.11
583.866	1115.12
584.064	1039.34
584.262	943.09
584.459	1002.48
584.657	1074.16
584.854	1119.21
585.052	1027.06
585.249	1111.02
585.447	1041.39
585.644	893.94
585.841	1022.96
586.039	1037.3
586.236	1061.87
586.434	949.23
586.631	857.07
586.828	842.74
587.026	887.79
587.223	844.79
587.42	777.2
587.618	875.51
587.815	1010.67
588.012	850.93
588.21	779.25
588.407	828.4
588.604	889.84
588.801	877.55
588.999	865.27
589.196	877.55
589.393	691.19
589.59	814.07
589.787	875.51
589.984	738.29
590.182	816.12
590.379	717.81
590.576	719.86
590.773	756.72
590.97	730.1
591.167	738.29
591.364	648.18
591.561	734.2
591.758	869.36
591.955	805.88
592.152	779.25
592.349	672.76
592.546	785.4
592.743	744.44
592.94	685.05
593.137	711.67
593.334	818.16
593.531	728.05
593.727	867.31
593.924	726
594.121	791.54
594.318	777.2
594.515	764.92
594.712	844.79
594.908	857.07
595.105	658.42
595.302	834.55
595.499	830.45
595.696	924.66
595.892	766.96
596.089	943.09
596.286	818.16
596.482	877.55
596.679	877.55
596.876	869.36
597.072	949.23
597.269	881.65
597.466	959.47
597.662	863.22
597.859	918.51
598.055	1022.96
598.252	1248.24
598.448	1174.51
598.645	1233.9
598.841	1207.28
599.038	1389.55
599.234	1416.17
599.431	1297.39
599.627	1434.6
599.824	1477.61
600.02	1504.23
600.217	1539.05
600.413	1500.14
600.609	1659.88
600.806	1952.74
601.002	1805.28
601.198	1735.65
601.395	1958.88
601.591	1973.22
601.787	2061.28
601.984	2223.07
602.18	2296.8
602.376	2255.84
602.572	2399.2
602.769	2554.84
602.965	2411.48
603.161	2778.07
603.357	2747.35
603.553	2857.94
603.75	2755.54
603.946	3021.78
604.142	3138.51
604.338	3173.33
604.534	3232.72
604.73	3304.4
604.926	3333.07
605.122	3732.42
605.318	3550.15
605.514	3828.68
605.71	3857.35
605.906	4076.48
606.102	4144.06
606.298	4230.08
606.494	4516.8
606.69	4553.66
606.886	4713.4
607.082	4744.12
607.278	4746.17
607.474	5004.21
607.67	5186.48
607.866	5159.86
608.062	5526.44
608.257	5718.95
608.453	5772.2
608.649	5999.52
608.845	5962.66
609.041	6138.79
609.236	6327.2
609.432	6654.87
609.628	6779.8
609.824	6929.3
610.019	6972.31
610.215	7189.39
610.411	7625.61
610.606	7519.12
610.802	7900.04
610.998	8180.61
611.193	8428.42
611.389	8360.83
611.584	8778.62
611.78	8813.43
611.976	9059.19
612.171	9540.46
612.367	9825.13
612.562	9923.43
612.758	9839.47
612.953	10226.53
613.149	10650.46
613.344	10722.14
613.539	11289.43
613.735	11420.5
613.93	12116.81
614.126	12127.05
614.321	12589.89
614.517	13095.74
614.712	13265.72
614.907	13474.61
615.103	13790
615.298	13828.91
615.493	14512.93
615.688	14625.57
615.884	15469.33
616.079	15579.92
616.274	16108.3
616.47	16319.24
616.665	16720.64
616.86	17081.08
617.055	17548.02
617.25	17847.02
617.445	18854.62
617.641	18782.95
617.836	19559.13
618.031	19505.88
618.226	20478.66
618.421	20654.79
618.616	21600.95
618.811	21486.26
619.006	22635.17
619.201	22432.43
619.396	23192.22
619.591	23487.13
619.786	24482.44
619.981	24509.07
620.176	25248.38
620.371	25473.66
620.566	26450.54
620.761	26550.89
620.956	27343.45
621.151	27296.35
621.346	28621.39
621.541	29024.84
621.735	29678.14
621.93	29817.4
622.125	30515.76
622.32	30659.12
622.515	31924.76
622.709	31891.99
622.904	32635.41
623.099	33301
623.294	33776.12
623.488	34636.27
623.683	34839.02
623.878	35217.89
624.072	36037.08
624.267	36430.29
624.462	36848.08
624.656	37218.76
624.851	38089.15
625.046	38656.43
625.24	39131.56
625.435	39379.37
625.629	39942.56
625.824	40559
626.018	40886.67
626.213	40759.7
626.407	41603.46
626.602	41886.08
626.796	42719.6
626.991	42953.07
627.185	42592.63
627.38	43172.21
627.574	43522.41
627.768	43346.28
627.963	43608.42
628.157	43356.52
628.352	44069.22
628.546	43403.63
628.74	43972.96
628.935	43610.47
629.129	43430.25
629.323	43123.05
629.517	42946.93
629.712	42631.54
629.906	42510.71
630.1	41353.61
630.294	41435.53
630.489	40331.67
630.683	40405.4
630.877	39250.35
631.071	38797.74
631.265	38463.93
631.459	37405.13
631.653	36583.89
631.848	35957.21
632.042	34421.23
632.236	33726.97
632.43	32637.45
632.624	32365.07
632.818	30734.89
633.012	29950.52
633.206	28951.11
633.4	27970.13
633.594	26862.18
633.788	26172.02
633.982	25408.12
634.176	24449.67
634.369	23370.4
634.563	22188.72
634.757	21619.38
634.951	21043.9
635.145	20146.89
635.339	19227.35
635.533	18322.15
635.726	18117.36
635.92	16792.32
636.114	16163.59
636.308	15481.62
636.501	14920.48
636.695	14342.95
636.889	13525.81
637.083	13271.86
637.276	12720.96
637.47	11881.29
637.664	11848.52
637.857	11006.81
638.051	10914.65
638.244	10416.99
638.438	9698.16
638.632	9579.37
638.825	8975.22
639.019	8721.27
639.212	8285.06
639.406	8217.47
639.599	7725.96
639.793	7406.48
639.986	7132.05
640.18	6925.21
640.373	6771.61
640.567	6300.58
640.76	6142.88
640.954	5860.26
641.147	5536.68
641.34	5305.26
641.534	5272.5
641.727	5198.77
641.92	4948.92
642.114	4780.98
642.307	4524.99
642.5	4332.48
642.694	4037.57
642.887	3933.12
643.08	4021.19
643.273	3703.75
643.467	3435.47
643.66	3345.36
643.853	3333.07
644.046	3310.54
644.239	2970.58
644.432	2882.52
644.626	2612.18
644.819	2577.37
645.012	2534.36
645.205	2538.46
645.398	2489.31
645.591	2296.8
645.784	2272.22
645.977	2020.32
646.17	2128.86
646.363	1993.7
646.556	1721.32
646.749	1827.81
646.942	1799.14
647.135	1741.8
647.328	1594.34
647.521	1674.21
647.714	1377.26
647.907	1426.41
648.099	1407.98
648.292	1373.16
648.485	1293.29
648.678	1311.72
648.871	1139.69
649.064	1182.7
649.256	1082.35
649.449	957.43
649.642	951.28
649.835	945.14
650.027	932.85
650.22	975.86
650.413	955.38
650.605	975.86
650.798	836.6
650.991	865.27
651.183	791.54
651.376	842.74
651.568	873.46
651.761	680.95
651.954	756.72
652.146	664.57
652.339	629.75
652.531	678.9
652.724	621.56
652.916	562.17
653.109	455.67
653.301	621.56
653.494	644.09
653.686	515.06
653.879	523.26
654.071	560.12
654.263	461.82
654.456	427
654.648	539.64
654.84	480.25
655.033	328.7
655.225	566.26
655.417	334.84
655.61	521.21
655.802	506.87
655.994	476.15
656.186	271.36
656.379	445.43
656.571	330.75
656.763	304.12
656.955	375.8
657.148	297.98
657.34	463.86
657.532	322.56
657.724	269.31
657.916	277.5
658.108	359.42
658.3	304.12
658.492	316.41
658.684	240.64
658.876	340.99
659.068	297.98
659.26	230.4
659.452	240.64
659.644	271.36
659.836	326.65
660.028	357.37
660.22	222.2
660.412	242.68
660.604	195.58
660.796	259.07
660.988	248.83
661.18	265.21
661.372	297.98
661.563	189.44
661.755	293.88
661.947	138.24
662.139	101.37
662.331	214.01
662.522	248.83
662.714	68.61
662.906	154.62
663.097	138.24
663.289	158.72
663.481	62.46
663.673	168.96
663.864	125.95
664.056	220.16
664.247	111.61
664.439	238.59
664.631	222.2
664.822	222.2
665.014	111.61
665.205	185.34
665.397	128
665.588	197.63
665.78	158.72
665.971	125.95
666.163	144.38
666.354	179.2
666.546	97.28
666.737	144.38
666.929	25.6
667.12	109.57
667.311	158.72
667.503	95.23
667.694	150.53
667.885	160.77
668.077	171.01
668.268	62.46
668.459	128
668.651	177.15
668.842	84.99
669.033	125.95
669.224	27.65
669.416	320.51
669.607	50.18
669.798	84.99
669.989	150.53
670.18	136.19
670.371	199.68
670.563	21.5
670.754	160.77
670.945	191.49
671.136	89.09
671.327	97.28
671.518	175.1
671.709	261.12
671.9	140.29
672.091	281.6
672.282	138.24
672.473	168.96
672.664	70.65
672.855	209.92
673.046	142.33
673.237	164.86
673.428	144.38
673.619	232.44
673.809	60.42
674	220.16
674.191	205.82
674.382	107.52
674.573	82.94
674.764	95.23
674.954	99.33
675.145	5.12
675.336	82.94
675.527	80.89
675.717	162.81
675.908	93.18
676.099	93.18
676.289	164.86
676.48	78.85
676.671	146.43
676.861	80.89
677.052	156.67
677.243	97.28
677.433	138.24
677.624	197.63
677.814	109.57
678.005	93.18
678.195	218.11
678.386	101.37
678.576	103.42
678.767	23.55
678.957	181.25
679.148	164.86
679.338	197.63
679.529	146.43
679.719	95.23
679.909	195.58
680.1	246.78
680.29	171.01
680.481	128
680.671	187.39
680.861	152.57
681.052	134.14
681.242	72.7
681.432	191.49
681.622	226.3
681.813	64.51
682.003	154.62
682.193	72.7
682.383	156.67
682.573	60.42
682.764	95.23
682.954	168.96
683.144	312.32
683.334	142.33
683.524	238.59
683.714	150.53
683.904	252.92
684.094	134.14
684.284	128
684.474	234.49
684.664	171.01
684.854	160.77
685.044	134.14
685.234	142.33
685.424	238.59
685.614	78.85
685.804	224.25
685.994	111.61
686.184	146.43
686.374	226.3
686.564	173.05
686.753	205.82
686.943	101.37
687.133	140.29
687.323	187.39
687.513	250.88
687.702	138.24
687.892	173.05
688.082	183.29
688.272	220.16
688.461	154.62
688.651	334.84
688.841	246.78
689.03	173.05
689.22	154.62
689.41	254.97
689.599	162.81
689.789	78.85
689.979	224.25
690.168	168.96
690.358	281.6
690.547	201.72
690.737	222.2
690.926	134.14
691.116	148.48
691.305	234.49
691.495	183.29
691.684	84.99
691.874	132.09
692.063	238.59
692.252	257.02
692.442	191.49
692.631	76.8
692.82	119.81
693.01	125.95
693.199	183.29
693.388	154.62
693.578	171.01
693.767	287.74
693.956	216.06
694.146	107.52
694.335	240.64
694.524	214.01
694.713	289.79
694.902	101.37
695.092	252.92
695.281	248.83
695.47	136.19
695.659	128
695.848	226.3
696.037	154.62
696.226	240.64
696.415	146.43
696.604	244.73
696.793	211.96
696.982	113.66
697.171	289.79
697.36	103.42
697.549	109.57
697.738	150.53
697.927	195.58
698.116	93.18
698.305	267.26
698.494	185.34
698.683	146.43
698.872	271.36
699.061	207.87
699.25	181.25
699.438	197.63
699.627	62.46
699.816	310.27
700.005	68.61
700.193	97.28
700.382	220.16
700.571	191.49
700.76	193.53
700.948	244.73
701.137	207.87
701.326	214.01
701.514	162.81
701.703	257.02
701.892	216.06
702.08	361.47
702.269	138.24
702.457	146.43
702.646	128
702.834	123.9
703.023	199.68
703.212	254.97
703.4	130.05
703.589	123.9
703.777	117.76
703.965	136.19
704.154	84.99
704.342	93.18
704.531	150.53
704.719	181.25
704.907	248.83
705.096	82.94
705.284	41.98
705.472	171.01
705.661	187.39
705.849	183.29
706.037	246.78
706.226	197.63
706.414	175.1
706.602	82.94
706.79	224.25
706.979	99.33
707.167	111.61
707.355	62.46
707.543	144.38
707.731	214.01
707.919	189.44
708.107	183.29
708.296	109.57
708.484	1.02
708.672	117.76
708.86	189.44
709.048	87.04
709.236	101.37
709.424	189.44
709.612	177.15
709.8	152.57
709.988	121.85
710.176	252.92
710.364	240.64
710.551	132.09
710.739	138.24
710.927	150.53
711.115	154.62
711.303	236.54
711.491	211.96
711.679	109.57
711.866	259.07
712.054	121.85
712.242	148.48
712.43	322.56
712.617	113.66
712.805	191.49
712.993	158.72
713.181	89.09
713.368	277.5
713.556	146.43
713.744	148.48
713.931	377.85
714.119	216.06
714.306	130.05
714.494	144.38
714.682	179.2
714.869	128
715.057	146.43
715.244	123.9
715.432	226.3
715.619	173.05
715.807	148.48
715.994	150.53
716.182	226.3
716.369	211.96
716.556	293.88
716.744	109.57
716.931	13.31
717.119	201.72
717.306	248.83
717.493	295.93
717.681	130.05
717.868	177.15
718.055	191.49
718.242	125.95
718.43	171.01
718.617	222.2
718.804	138.24
718.991	273.4
719.179	123.9
719.366	316.41
719.553	302.08
719.74	193.53
719.927	187.39
720.114	224.25
720.301	158.72
720.488	142.33
720.676	130.05
720.863	209.92
721.05	320.51
721.237	187.39
721.424	238.59
721.611	195.58
721.798	136.19
721.985	164.86
722.172	183.29
722.358	152.57
722.545	257.02
722.732	226.3
722.919	297.98
723.106	222.2
723.293	205.82
723.48	214.01
723.667	142.33
723.853	97.28
724.04	128
724.227	263.16
724.414	144.38
724.6	168.96
724.787	310.27
724.974	271.36
725.161	154.62
725.347	121.85
725.534	148.48
725.72	222.2
725.907	248.83
726.094	195.58
726.28	128
726.467	144.38
726.653	46.08
726.84	281.6
727.027	322.56
727.213	130.05
727.4	322.56
727.586	259.07
727.773	162.81
727.959	162.81
728.145	257.02
728.332	211.96
728.518	105.47
728.705	295.93
728.891	228.35
729.077	160.77
729.264	146.43
729.45	222.2
729.636	148.48
729.823	111.61
730.009	230.4
730.195	150.53
730.382	220.16
730.568	128
730.754	142.33
730.94	166.91
731.126	275.45
731.313	273.4
731.499	146.43
731.685	277.5
731.871	203.77
732.057	277.5
732.243	308.22
732.429	177.15
732.615	318.46
732.801	269.31
732.987	62.46
733.173	177.15
733.359	148.48
733.545	201.72
733.731	125.95
733.917	302.08
734.103	214.01
734.289	201.72
734.475	142.33
734.661	410.62
734.847	257.02
735.033	244.73
735.219	259.07
735.404	181.25
735.59	218.11
735.776	195.58
735.962	236.54
736.148	267.26
736.333	281.6
736.519	187.39
736.705	216.06
736.89	269.31
737.076	158.72
737.262	117.76
737.447	158.72
737.633	134.14
737.819	254.97
738.004	207.87
738.19	125.95
738.375	214.01
738.561	320.51
738.747	187.39
738.932	93.18
739.118	263.16
739.303	306.17
739.489	222.2
739.674	222.2
739.859	125.95
740.045	216.06
740.23	228.35
740.416	95.23
740.601	228.35
740.786	236.54
740.972	232.44
741.157	191.49
741.342	130.05
741.528	154.62
741.713	318.46
741.898	211.96
742.084	189.44
742.269	132.09
742.454	222.2
742.639	318.46
742.824	185.34
743.01	334.84
743.195	345.08
743.38	187.39
743.565	226.3
743.75	154.62
743.935	244.73
744.12	144.38
744.305	146.43
744.49	191.49
744.675	158.72
744.86	150.53
745.045	201.72
745.23	150.53
745.415	209.92
745.6	293.88
745.785	121.85
745.97	222.2
746.155	277.5
746.34	304.12
746.525	285.69
746.71	254.97
746.895	78.85
747.079	103.42
747.264	119.81
747.449	199.68
747.634	293.88
747.819	273.4
748.003	97.28
748.188	158.72
748.373	244.73
748.557	244.73
748.742	220.16
748.927	154.62
749.111	199.68
749.296	130.05
749.481	183.29
749.665	164.86
749.85	146.43
750.034	261.12
750.219	148.48
750.404	146.43
750.588	146.43
750.773	177.15
750.957	168.96
751.141	146.43
751.326	201.72
751.51	156.67
751.695	166.91
751.879	140.29
752.064	289.79
752.248	211.96
752.432	293.88
752.617	252.92
752.801	263.16
752.985	162.81
753.17	263.16
753.354	179.2
753.538	171.01
753.722	134.14
753.907	166.91
754.091	154.62
754.275	168.96
754.459	70.65
754.643	66.56
754.828	113.66
755.012	177.15
755.196	-1.02
755.38	211.96
755.564	115.71
755.748	187.39
755.932	287.74
756.116	189.44
756.3	201.72
756.484	121.85
756.668	181.25
756.852	21.5
757.036	148.48
757.22	154.62
757.404	101.37
757.588	117.76
757.772	179.2
757.956	150.53
758.14	238.59
758.323	52.22
758.507	117.76
758.691	60.42
758.875	103.42
759.059	173.05
759.242	160.77
759.426	70.65
759.61	91.13
759.794	7.17
759.977	244.73
760.161	304.12
760.345	142.33
760.528	171.01
760.712	138.24
760.895	117.76
761.079	89.09
761.263	29.7
761.446	66.56
761.63	76.8
761.813	154.62
761.997	-5.12
762.18	7.17
762.364	68.61
762.547	15.36
762.731	89.09
762.914	68.61
763.098	58.37
763.281	15.36
763.464	101.37
763.648	177.15
763.831	115.71
764.015	101.37
764.198	97.28
764.381	58.37
764.564	113.66
764.748	109.57
764.931	140.29
765.114	58.37
765.297	156.67
765.481	41.98
765.664	146.43
765.847	173.05
766.03	142.33
766.213	-21.5
766.397	80.89
766.58	-7.17
766.763	117.76
766.946	103.42
767.129	76.8
767.312	82.94
767.495	62.46
767.678	35.84
767.861	72.7
768.044	101.37
768.227	48.13
768.41	62.46
768.593	87.04
768.776	93.18
768.959	105.47
769.142	130.05
769.324	76.8
769.507	74.75
769.69	62.46
769.873	72.7
770.056	265.21
770.239	21.5
770.421	87.04
770.604	74.75
770.787	76.8
770.97	97.28
771.152	25.6
771.335	121.85
771.518	48.13
771.7	101.37
771.883	244.73
772.066	15.36
772.248	66.56
772.431	144.38
772.613	140.29
772.796	7.17
772.978	78.85
773.161	173.05
773.343	41.98
773.526	35.84
773.708	-29.7
773.891	-31.74
774.073	72.7
774.256	-19.46
774.438	166.91
774.621	105.47
774.803	99.33
774.985	37.89
775.168	115.71
775.35	35.84
775.532	74.75
775.715	35.84
775.897	91.13
776.079	66.56
776.261	15.36
776.444	37.89
776.626	52.22
776.808	5.12
776.99	-13.31
777.173	25.6
777.355	44.03
777.537	21.5
777.719	70.65
777.901	41.98
778.083	27.65
778.265	-52.22
778.447	119.81
778.629	39.94
778.811	39.94
778.993	91.13
779.175	119.81
779.357	56.32
779.539	-13.31
779.721	68.61
779.903	97.28
780.085	46.08
780.267	99.33
780.449	56.32
780.631	111.61
780.812	187.39
780.994	50.18
781.176	37.89
781.358	68.61
781.54	39.94
781.721	117.76
781.903	107.52
782.085	17.41
782.267	121.85
782.448	62.46
782.63	-9.22
782.812	99.33
782.993	87.04
783.175	82.94
783.357	35.84
783.538	80.89
783.72	-23.55
783.901	91.13
784.083	130.05
784.264	52.22
784.446	-54.27
784.627	-66.56
784.809	105.47
784.99	-33.79
785.172	134.14
785.353	58.37
785.535	89.09
785.716	-5.12
785.897	-35.84
786.079	27.65
786.26	52.22
786.441	48.13
786.623	-62.46
786.804	-15.36
786.985	21.5
787.167	21.5
787.348	-41.98
787.529	-11.26
787.71	214.01
787.891	52.22
788.073	7.17
788.254	-105.47
788.435	146.43
788.616	66.56
788.797	60.42
788.978	66.56
789.159	25.6
789.34	87.04
789.522	64.51
789.703	-35.84
789.884	62.46
790.065	82.94
790.246	173.05
790.427	-7.17
790.607	185.34
790.788	183.29
790.969	23.55
791.15	95.23
791.331	27.65
791.512	50.18
791.693	7.17
791.874	-56.32
792.054	226.3
792.235	117.76
792.416	3.07
792.597	-13.31
792.778	162.81
792.958	93.18
793.139	78.85
793.32	109.57
793.5	29.7
793.681	48.13
793.862	56.32
794.042	87.04
794.223	-74.75
794.404	-84.99
794.584	-19.46
794.765	46.08
794.945	48.13
795.126	19.46
795.306	171.01
795.487	52.22
795.667	-7.17
795.848	117.76
796.028	62.46
796.209	11.26
796.389	115.71
796.57	11.26
796.75	-62.46
796.93	-23.55
797.111	-3.07
797.291	-89.09
797.471	29.7
797.652	-25.6
797.832	-37.89
798.012	152.57
798.192	-41.98
798.373	-62.46
798.553	-3.07
798.733	-23.55
798.913	-80.89
799.093	41.98
799.274	52.22
799.454	70.65
799.634	76.8
799.814	87.04
799.994	99.33
800.174	64.51
800.354	-15.36
800.534	-56.32
800.714	39.94
800.894	-13.31
801.074	-87.04
801.254	-48.13
801.434	111.61
801.614	105.47
801.794	-95.23
801.974	1858.53
802.154	89.09
802.334	58.37
802.514	-78.85
802.693	19.46
802.873	-3.07
803.053	62.46
803.233	119.81
803.413	13.31
803.592	-31.74
803.772	-33.79
803.952	-13.31
804.131	-35.84
804.311	154.62
804.491	150.53
804.67	-46.08
804.85	-17.41
805.03	11.26
805.209	97.28
805.389	-82.94
805.568	25.6
805.748	-62.46
805.928	-23.55
806.107	48.13
806.287	-5.12
806.466	87.04
806.646	-19.46
806.825	-19.46
807.004	-62.46
807.184	-15.36
807.363	39.94
807.543	72.7
807.722	-9.22
807.901	142.33
808.081	74.75
808.26	-72.7
808.439	-19.46
808.619	50.18
808.798	-78.85
808.977	107.52
809.156	105.47
809.336	68.61
809.515	78.85
809.694	-56.32
809.873	-39.94
810.052	89.09
810.231	58.37
810.411	121.85
810.59	91.13
810.769	39.94
810.948	93.18
811.127	-117.76
811.306	13.31
811.485	-48.13
811.664	125.95
811.843	119.81
812.022	27.65
812.201	35.84
812.38	-27.65
812.559	-39.94
812.737	7.17
812.916	-93.18
813.095	-111.61
813.274	46.08
813.453	39.94
813.632	19.46
813.811	68.61
813.989	-64.51
814.168	-25.6
814.347	-62.46
814.526	33.79
814.704	21.5
814.883	87.04
815.062	-35.84
815.24	70.65
815.419	-52.22
815.598	31.74
815.776	-76.8
815.955	23.55
816.133	-93.18
816.312	13.31
816.49	-41.98
816.669	1.02
816.847	5.12
817.026	62.46
817.204	-13.31
817.383	-84.99
817.561	-50.18
817.74	-25.6
817.918	93.18
818.097	-64.51
818.275	-13.31
818.453	-33.79
818.632	78.85
818.81	-82.94
818.988	-39.94
819.167	-101.37
819.345	-3.07
819.523	-7.17
819.701	9.22
819.879	44.03
820.058	105.47
820.236	-7.17
820.414	46.08
820.592	33.79
820.77	35.84
820.948	-21.5
821.127	19.46
821.305	-21.5
821.483	-44.03
821.661	82.94
821.839	-1.02
822.017	-7.17
822.195	-109.57
822.373	-1.02
822.551	25.6
822.729	48.13
822.907	-15.36
823.085	66.56
823.262	17.41
823.44	-27.65
823.618	-66.56
823.796	-52.22
823.974	-19.46
824.152	-91.13
824.329	-58.37
824.507	54.27
824.685	15.36
824.863	-3.07
825.04	-31.74
825.218	68.61
825.396	-56.32
825.574	48.13
825.751	-17.41
825.929	128
826.107	-64.51
826.284	78.85
826.462	52.22
826.639	23.55
826.817	-97.28
826.994	-33.79
827.172	-84.99
827.349	107.52
827.527	-13.31
827.704	74.75
827.882	60.42
828.059	-52.22
828.237	-29.7
828.414	115.71
828.591	-115.71
828.769	35.84
828.946	-87.04
829.124	70.65
829.301	117.76
829.478	-35.84
829.655	13.31
829.833	66.56
830.01	-93.18
830.187	-27.65
830.364	-21.5
830.542	31.74
830.719	134.14
830.896	134.14
831.073	84.99
831.25	-5.12
831.427	29.7
831.604	-31.74
831.782	-37.89
831.959	-31.74
832.136	23.55
832.313	52.22
832.49	25.6
832.667	5.12
832.844	-60.42
833.021	29.7
833.198	46.08
833.374	101.37
833.551	-15.36
833.728	-95.23
833.905	103.42
834.082	-87.04
834.259	68.61
834.436	97.28
834.612	-76.8
834.789	48.13
834.966	66.56
835.143	46.08
835.319	-3.07
835.496	33.79
835.673	91.13
835.85	54.27
836.026	82.94
836.203	21.5
836.38	46.08
836.556	-17.41
836.733	-78.85
836.909	144.38
837.086	-41.98
837.262	-99.33
837.439	-1.02
837.616	-60.42
837.792	9.22
837.968	52.22
838.145	-123.9
838.321	19.46
838.498	5.12
838.674	78.85
838.851	58.37
839.027	-3.07
839.203	-1.02
839.38	9.22
839.556	-119.81
839.732	82.94
839.909	-3.07
840.085	101.37
840.261	23.55
840.437	1.02
840.614	-21.5
840.79	-5.12
840.966	56.32
841.142	23.55
841.318	-21.5
841.494	58.37
841.671	150.53
841.847	-41.98
842.023	21.5
842.199	-37.89
842.375	76.8
842.551	-103.42
842.727	-17.41
842.903	164.86
843.079	-99.33
843.255	160.77
843.431	-5.12
843.607	-3.07
843.783	-91.13
843.959	99.33
844.134	-5.12
844.31	87.04
844.486	-54.27
844.662	-56.32
844.838	68.61
845.013	89.09
845.189	-17.41
845.365	119.81
845.541	-41.98
845.716	23.55
845.892	23.55
846.068	-5.12
846.244	17.41
846.419	37.89
846.595	-152.57
846.77	-95.23
846.946	31.74
847.122	21.5
847.297	-35.84
847.473	164.86
847.648	-60.42
847.824	7.17
847.999	9.22
848.175	-17.41
848.35	60.42
848.526	132.09
848.701	39.94
848.876	56.32
849.052	44.03
849.227	23.55
849.403	-19.46
849.578	-50.18
849.753	33.79
849.929	82.94
850.104	-25.6
850.279	-41.98
850.454	3.07
850.63	27.65
850.805	-31.74
850.98	-21.5
851.155	39.94
851.33	76.8
851.505	-9.22
851.681	107.52
851.856	7.17
852.031	82.94
852.206	17.41
852.381	17.41
852.556	17.41
852.731	35.84
852.906	41.98
853.081	13.31
853.256	99.33
853.431	-54.27
853.606	-33.79
853.781	-74.75
853.956	-105.47
854.131	70.65
854.305	-60.42
854.48	-58.37
854.655	-25.6
854.83	-68.61
855.005	-5.12
855.18	82.94
855.354	-46.08
855.529	-13.31
855.704	-76.8
855.879	74.75
856.053	-27.65
856.228	27.65
856.403	-62.46
856.577	1.02
856.752	-113.66
856.926	-27.65
857.101	-1.02
857.276	-82.94
857.45	80.89
857.625	-25.6
857.799	21.5
857.974	39.94
858.148	-89.09
858.323	-52.22
858.497	21.5
858.672	-29.7
858.846	-56.32
859.02	52.22
859.195	-35.84
859.369	-17.41
859.543	62.46
859.718	52.22
859.892	76.8
860.066	84.99
860.241	-5.12
860.415	-84.99
860.589	-60.42
860.763	19.46
860.938	-17.41
861.112	50.18
861.286	-15.36
861.46	-52.22
861.634	-87.04
861.808	41.98
861.982	15.36
862.157	-5.12
862.331	-17.41
862.505	-76.8
862.679	-91.13
862.853	-19.46
863.027	-128
863.201	115.71
863.375	-66.56
863.549	15.36
863.722	95.23
863.896	35.84
864.07	-39.94
864.244	-29.7
864.418	60.42
864.592	-9.22
864.766	48.13
864.939	35.84
865.113	-23.55
865.287	113.66
865.461	-60.42
865.634	31.74
865.808	-52.22
865.982	-35.84
866.156	-52.22
866.329	-39.94
866.503	62.46
866.676	41.98
866.85	27.65
867.024	-3.07
867.197	146.43
867.371	15.36
867.544	54.27
867.718	-74.75
867.891	101.37
868.065	-211.96
868.238	-54.27
868.412	105.47
868.585	-15.36
868.759	-146.43
868.932	5.12
869.105	-58.37
869.279	41.98
869.452	-21.5
869.625	9.22
869.799	17.41
869.972	-113.66
870.145	-41.98
870.319	-76.8
870.492	5.12
870.665	3.07
870.838	-29.7
871.011	-154.62
871.185	-3.07
871.358	-3.07
871.531	72.7
871.704	-48.13
871.877	-19.46
872.05	-66.56
872.223	-82.94
872.396	82.94
872.569	78.85
872.742	-173.05
872.915	33.79
873.088	3.07
873.261	-89.09
873.434	58.37
873.607	13.31
873.78	-13.31
873.953	-66.56
874.126	66.56
874.299	44.03
874.471	-25.6
874.644	-35.84
874.817	-9.22
874.99	105.47
875.163	-62.46
875.335	-19.46
875.508	-1.02
875.681	68.61
875.853	-23.55
876.026	3.07
876.199	48.13
876.371	-9.22
876.544	-72.7
876.717	9.22
876.889	-84.99
877.062	50.18
877.234	35.84
877.407	-76.8
877.579	7.17
877.752	-11.26
877.924	7.17
878.097	5.12
878.269	46.08
878.442	46.08
878.614	82.94
878.786	-35.84
878.959	5.12
879.131	-17.41
879.303	-123.9
879.476	-9.22
879.648	130.05
879.82	-9.22
879.993	29.7
880.165	35.84
880.337	-121.85
880.509	-44.03
880.681	-140.29
880.854	46.08
881.026	115.71
881.198	166.91
881.37	-7.17
881.542	-27.65
881.714	15.36
881.886	-29.7
882.058	-56.32
882.23	54.27
882.402	58.37
882.574	-3.07
882.746	39.94
882.918	101.37
883.09	56.32
883.262	7.17
883.434	41.98
883.606	-146.43
883.778	-13.31
883.95	111.61
884.122	-82.94
884.293	60.42
884.465	-19.46
884.637	56.32
884.809	-62.46
884.98	60.42
885.152	3.07
885.324	-11.26
885.496	-58.37
885.667	35.84
885.839	-66.56
886.011	115.71
886.182	68.61
886.354	41.98
886.525	19.46
886.697	-29.7
886.869	-87.04
887.04	-72.7
887.212	80.89
887.383	101.37
887.555	-17.41
887.726	-27.65
887.897	11.26
888.069	7.17
888.24	95.23
888.412	-17.41
888.583	-21.5
888.754	25.6
888.926	-31.74
889.097	11.26
889.268	-54.27
889.44	70.65
889.611	-70.65
889.782	-121.85
889.953	-58.37
890.125	82.94
890.296	-97.28
890.467	-13.31
890.638	37.89
890.809	9.22
890.98	-15.36
891.151	48.13
891.323	123.9
891.494	19.46
891.665	37.89
891.836	-52.22
892.007	-13.31
892.178	62.46
892.349	-7.17
892.52	15.36
892.691	74.75
892.862	-5.12
893.032	-99.33
893.203	21.5
893.374	-31.74
893.545	46.08
893.716	-56.32
893.887	78.85
894.057	-17.41
894.228	41.98
894.399	-48.13
894.57	56.32
894.74	21.5
894.911	-3.07
895.082	-15.36
895.253	1.02
895.423	-23.55
895.594	95.23
895.764	70.65
895.935	-87.04
896.106	-25.6
896.276	-13.31
896.447	-25.6
896.617	-123.9
896.788	-105.47
896.958	29.7
897.129	-19.46
897.299	-115.71
897.47	115.71
897.64	78.85
897.81	13.31
897.981	70.65
898.151	-52.22
898.322	68.61
898.492	27.65
898.662	-76.8
898.832	-62.46
899.003	7.17
899.173	80.89
899.343	-105.47
899.513	-74.75
