Data from USB4F104151__239__11-06-33-724.txt Node

Date: Wed Feb 26 11:06:33 EST 2025
User: louis
Spectrometer: USB4F10415
Trigger mode: 4
Integration Time (sec): 1.000000E-1
Scans to average: 1
Electric dark correction enabled: true
Nonlinearity correction enabled: false
Boxcar width: 0
XAxis mode: Wavelengths
Number of Pixels in Spectrum: 3648
>>>>>Begin Spectral Data<<<<<
178.204	-380.07
178.424	-380.07
178.644	-380.07
178.864	-443.56
179.084	-447.65
179.304	11.09
179.524	13.14
179.744	-11.43
179.964	33.62
180.184	21.33
180.404	37.72
180.624	-1.19
180.844	-79.02
181.064	-58.54
181.283	52.05
181.503	-50.35
181.723	31.57
181.943	-91.31
182.163	172.88
182.383	-62.63
182.602	52.05
182.822	105.3
183.042	35.67
183.262	-46.25
183.482	56.15
183.701	17.24
183.921	50
184.141	-85.16
184.361	13.14
184.58	17.24
184.8	-7.34
185.02	-89.26
185.239	72.53
185.459	99.16
185.679	125.78
185.898	-93.35
186.118	-1.19
186.338	25.43
186.557	123.73
186.777	-66.73
186.997	-36.01
187.216	133.97
187.436	119.64
187.655	144.21
187.875	107.35
188.095	80.72
188.314	131.92
188.534	84.82
188.753	-113.83
188.973	56.15
189.192	211.79
189.412	-15.53
189.631	-27.82
189.851	45.91
190.07	183.12
190.29	-11.43
190.509	-11.43
190.729	68.44
190.948	117.59
191.168	244.56
191.387	37.72
191.607	11.09
191.826	27.48
192.045	-48.3
192.265	19.29
192.484	4.95
192.704	123.73
192.923	-85.16
193.142	166.74
193.362	138.07
193.581	119.64
193.8	76.63
194.02	80.72
194.239	-15.53
194.458	27.48
194.678	15.19
194.897	-81.07
195.116	62.29
195.335	25.43
195.555	47.96
195.774	-11.43
195.993	84.82
196.212	9.05
196.432	58.2
196.651	4.95
196.87	19.29
197.089	254.8
197.308	50
197.528	72.53
197.747	-25.77
197.966	78.68
198.185	64.34
198.404	-46.25
198.623	107.35
198.842	136.02
199.062	52.05
199.281	78.68
199.5	-25.77
199.719	86.87
199.938	21.33
200.157	27.48
200.376	64.34
200.595	148.31
200.814	74.58
201.033	21.33
201.252	131.92
201.471	129.88
201.69	103.25
201.909	21.33
202.128	93.01
202.347	33.62
202.566	11.09
202.785	-91.31
203.004	-17.58
203.223	273.23
203.442	-13.48
203.661	-33.96
203.879	54.1
204.098	123.73
204.317	-107.69
204.536	95.06
204.755	123.73
204.974	95.06
205.193	-62.63
205.411	148.31
205.63	140.12
205.849	78.68
206.068	-21.67
206.287	54.1
206.505	113.49
206.724	39.76
206.943	23.38
207.162	-29.87
207.381	68.44
207.599	25.43
207.818	105.3
208.037	-11.43
208.255	72.53
208.474	113.49
208.693	52.05
208.911	-3.24
209.13	76.63
209.349	125.78
209.567	72.53
209.786	117.59
210.005	54.1
210.223	11.09
210.442	-27.82
210.661	90.96
210.879	21.33
211.098	4.95
211.316	103.25
211.535	9.05
211.753	31.57
211.972	74.58
212.191	-13.48
212.409	45.91
212.628	121.68
212.846	-11.43
213.065	33.62
213.283	107.35
213.502	50
213.72	103.25
213.938	99.16
214.157	58.2
214.375	123.73
214.594	33.62
214.812	97.11
215.031	4.95
215.249	101.2
215.467	7
215.686	17.24
215.904	62.29
216.122	41.81
216.341	125.78
216.559	37.72
216.778	107.35
216.996	80.72
217.214	-3.24
217.432	4.95
217.651	-74.92
217.869	7
218.087	21.33
218.306	-27.82
218.524	50
218.742	4.95
218.96	78.68
219.179	13.14
219.397	45.91
219.615	209.75
219.833	144.21
220.051	-31.91
220.27	82.77
220.488	72.53
220.706	70.48
220.924	-7.34
221.142	-5.29
221.36	-25.77
221.578	119.64
221.796	21.33
222.015	19.29
222.233	52.05
222.451	140.12
222.669	-7.34
222.887	95.06
223.105	23.38
223.323	19.29
223.541	-25.77
223.759	64.34
223.977	-7.34
224.195	97.11
224.413	45.91
224.631	72.53
224.849	82.77
225.067	226.13
225.285	-1.19
225.503	-1.19
225.721	-60.59
225.939	60.24
226.157	109.4
226.375	238.42
226.592	31.57
226.81	2.9
227.028	97.11
227.246	84.82
227.464	103.25
227.682	109.4
227.9	-5.29
228.117	105.3
228.335	41.81
228.553	68.44
228.771	107.35
228.989	68.44
229.206	127.83
229.424	-44.2
229.642	-19.63
229.86	-44.2
230.077	93.01
230.295	47.96
230.513	56.15
230.731	97.11
230.948	154.45
231.166	138.07
231.384	-27.82
231.601	23.38
231.819	217.94
232.037	-56.49
232.254	-11.43
232.472	-7.34
232.689	-29.87
232.907	70.48
233.125	-68.78
233.342	-42.15
233.56	-52.39
233.777	25.43
233.995	35.67
234.213	140.12
234.43	103.25
234.648	80.72
234.865	-76.97
235.083	72.53
235.3	17.24
235.518	47.96
235.735	121.68
235.953	52.05
236.17	-3.24
236.388	43.86
236.605	4.95
236.822	25.43
237.04	148.31
237.257	25.43
237.475	7
237.692	47.96
237.909	111.44
238.127	45.91
238.344	41.81
238.562	62.29
238.779	-50.35
238.996	-36.01
239.214	66.39
239.431	123.73
239.648	-36.01
239.865	29.52
240.083	131.92
240.3	27.48
240.517	15.19
240.735	-5.29
240.952	88.92
241.169	66.39
241.386	-15.53
241.603	68.44
241.821	58.2
242.038	103.25
242.255	80.72
242.472	-93.35
242.689	86.87
242.907	17.24
243.124	54.1
243.341	39.76
243.558	2.9
243.775	-25.77
243.992	-50.35
244.209	129.88
244.426	88.92
244.643	95.06
244.86	-81.07
245.078	99.16
245.295	39.76
245.512	-21.67
245.729	-19.63
245.946	74.58
246.163	17.24
246.38	17.24
246.597	-1.19
246.814	54.1
247.031	29.52
247.248	23.38
247.464	62.29
247.681	39.76
247.898	37.72
248.115	47.96
248.332	-36.01
248.549	162.64
248.766	103.25
248.983	125.78
249.2	95.06
249.417	115.54
249.633	-31.91
249.85	23.38
250.067	97.11
250.284	29.52
250.501	78.68
250.717	54.1
250.934	-40.11
251.151	62.29
251.368	-27.82
251.585	66.39
251.801	119.64
252.018	-5.29
252.235	158.55
252.451	17.24
252.668	-15.53
252.885	41.81
253.102	-19.63
253.318	-46.25
253.535	-62.63
253.752	39.76
253.968	17.24
254.185	-64.68
254.401	117.59
254.618	88.92
254.835	-44.2
255.051	158.55
255.268	9.05
255.484	56.15
255.701	-7.34
255.917	86.87
256.134	-83.11
256.351	86.87
256.567	-3.24
256.784	-27.82
257	-52.39
257.217	119.64
257.433	47.96
257.65	15.19
257.866	127.83
258.082	-36.01
258.299	-21.67
258.515	64.34
258.732	-23.72
258.948	43.86
259.165	27.48
259.381	-93.35
259.597	39.76
259.814	17.24
260.03	-36.01
260.246	11.09
260.463	162.64
260.679	86.87
260.895	23.38
261.112	97.11
261.328	82.77
261.544	-54.44
261.761	189.27
261.977	-42.15
262.193	-99.5
262.409	115.54
262.626	23.38
262.842	56.15
263.058	-19.63
263.274	56.15
263.49	74.58
263.707	52.05
263.923	50
264.139	-134.31
264.355	41.81
264.571	162.64
264.787	111.44
265.004	172.88
265.22	7
265.436	-21.67
265.652	13.14
265.868	13.14
266.084	-44.2
266.3	62.29
266.516	4.95
266.732	29.52
266.948	86.87
267.164	45.91
267.38	90.96
267.596	35.67
267.812	162.64
268.028	2.9
268.244	0.85
268.46	97.11
268.676	-66.73
268.892	-15.53
269.108	2.9
269.324	-70.83
269.54	11.09
269.756	117.59
269.972	-62.63
270.188	54.1
270.403	-81.07
270.619	-64.68
270.835	113.49
271.051	76.63
271.267	64.34
271.483	-27.82
271.698	105.3
271.914	68.44
272.13	7
272.346	-19.63
272.562	47.96
272.777	156.5
272.993	-13.48
273.209	-25.77
273.425	62.29
273.64	-40.11
273.856	113.49
274.072	37.72
274.287	-15.53
274.503	70.48
274.719	90.96
274.934	-91.31
275.15	19.29
275.366	66.39
275.581	-60.59
275.797	82.77
276.012	60.24
276.228	-25.77
276.444	13.14
276.659	50
276.875	-19.63
277.09	35.67
277.306	-13.48
277.521	54.1
277.737	0.85
277.952	58.2
278.168	7
278.383	-11.43
278.599	45.91
278.814	140.12
279.03	11.09
279.245	41.81
279.461	19.29
279.676	62.29
279.892	-48.3
280.107	-54.44
280.322	-29.87
280.538	76.63
280.753	7
280.969	93.01
281.184	78.68
281.399	88.92
281.615	138.07
281.83	-3.24
282.045	39.76
282.26	7
282.476	15.19
282.691	95.06
282.906	119.64
283.122	31.57
283.337	31.57
283.552	58.2
283.767	64.34
283.983	113.49
284.198	13.14
284.413	95.06
284.628	-66.73
284.843	68.44
285.058	64.34
285.274	66.39
285.489	47.96
285.704	41.81
285.919	17.24
286.134	-46.25
286.349	2.9
286.564	76.63
286.779	113.49
286.995	50
287.21	-89.26
287.425	105.3
287.64	19.29
287.855	-29.87
288.07	-62.63
288.285	66.39
288.5	54.1
288.715	-19.63
288.93	66.39
289.145	-72.87
289.36	72.53
289.575	37.72
289.79	138.07
290.004	82.77
290.219	13.14
290.434	-11.43
290.649	11.09
290.864	-11.43
291.079	29.52
291.294	29.52
291.509	66.39
291.724	15.19
291.938	2.9
292.153	109.4
292.368	47.96
292.583	0.85
292.798	68.44
293.012	56.15
293.227	121.68
293.442	7
293.657	99.16
293.871	156.5
294.086	11.09
294.301	187.22
294.516	164.69
294.73	54.1
294.945	15.19
295.16	101.2
295.374	164.69
295.589	103.25
295.804	-5.29
296.018	4.95
296.233	64.34
296.447	25.43
296.662	-72.87
296.877	105.3
297.091	93.01
297.306	86.87
297.52	47.96
297.735	127.83
297.949	52.05
298.164	15.19
298.378	19.29
298.593	-130.22
298.807	-44.2
299.022	66.39
299.236	109.4
299.451	33.62
299.665	4.95
299.88	-46.25
300.094	2.9
300.309	95.06
300.523	-19.63
300.737	17.24
300.952	146.26
301.166	107.35
301.381	-56.49
301.595	-23.72
301.809	86.87
302.024	-1.19
302.238	-74.92
302.452	60.24
302.667	-25.77
302.881	117.59
303.095	-9.39
303.309	50
303.524	13.14
303.738	35.67
303.952	50
304.166	-29.87
304.381	-107.69
304.595	107.35
304.809	47.96
305.023	23.38
305.237	7
305.452	-21.67
305.666	74.58
305.88	66.39
306.094	82.77
306.308	64.34
306.522	93.01
306.736	86.87
306.95	-64.68
307.164	21.33
307.379	-21.67
307.593	93.01
307.807	103.25
308.021	109.4
308.235	54.1
308.449	-115.88
308.663	70.48
308.877	156.5
309.091	84.82
309.305	35.67
309.519	-111.78
309.733	119.64
309.947	-72.87
310.161	0.85
310.374	27.48
310.588	115.54
310.802	-74.92
311.016	-31.91
311.23	84.82
311.444	2.9
311.658	41.81
311.872	193.36
312.085	152.4
312.299	109.4
312.513	113.49
312.727	31.57
312.941	-91.31
313.154	39.76
313.368	2.9
313.582	23.38
313.796	-17.58
314.009	68.44
314.223	107.35
314.437	17.24
314.651	84.82
314.864	-46.25
315.078	31.57
315.292	-9.39
315.505	-1.19
315.719	31.57
315.933	13.14
316.146	-19.63
316.36	-91.31
316.573	64.34
316.787	33.62
317.001	41.81
317.214	62.29
317.428	54.1
317.641	-93.35
317.855	0.85
318.068	50
318.282	37.72
318.495	185.17
318.709	43.86
318.922	-50.35
319.136	70.48
319.349	50
319.563	-23.72
319.776	15.19
319.99	-62.63
320.203	74.58
320.417	9.05
320.63	70.48
320.843	142.16
321.057	127.83
321.27	74.58
321.483	56.15
321.697	133.97
321.91	56.15
322.124	-1.19
322.337	50
322.55	-42.15
322.763	68.44
322.977	-38.06
323.19	-33.96
323.403	2.9
323.617	68.44
323.83	144.21
324.043	0.85
324.256	84.82
324.469	-17.58
324.683	84.82
324.896	-29.87
325.109	78.68
325.322	-97.45
325.535	17.24
325.748	101.2
325.962	58.2
326.175	45.91
326.388	105.3
326.601	105.3
326.814	-11.43
327.027	0.85
327.24	195.41
327.453	-115.88
327.666	127.83
327.879	144.21
328.092	152.4
328.305	119.64
328.518	45.91
328.731	-33.96
328.944	-23.72
329.157	64.34
329.37	21.33
329.583	170.83
329.796	166.74
330.009	-54.44
330.222	-21.67
330.435	60.24
330.648	60.24
330.861	37.72
331.073	-11.43
331.286	101.2
331.499	17.24
331.712	17.24
331.925	45.91
332.138	-17.58
332.35	127.83
332.563	15.19
332.776	144.21
332.989	62.29
333.202	19.29
333.414	33.62
333.627	0.85
333.84	25.43
334.053	125.78
334.265	68.44
334.478	-15.53
334.691	45.91
334.903	35.67
335.116	90.96
335.329	37.72
335.541	84.82
335.754	123.73
335.966	74.58
336.179	99.16
336.392	70.48
336.604	-23.72
336.817	54.1
337.029	70.48
337.242	76.63
337.454	156.5
337.667	15.19
337.88	82.77
338.092	41.81
338.305	80.72
338.517	-3.24
338.729	93.01
338.942	185.17
339.154	-85.16
339.367	-40.11
339.579	119.64
339.792	-81.07
340.004	117.59
340.217	-33.96
340.429	31.57
340.641	-15.53
340.854	-21.67
341.066	4.95
341.278	90.96
341.491	62.29
341.703	11.09
341.915	23.38
342.128	90.96
342.34	-23.72
342.552	-109.74
342.764	15.19
342.977	45.91
343.189	64.34
343.401	-33.96
343.613	33.62
343.826	54.1
344.038	19.29
344.25	56.15
344.462	-17.58
344.674	11.09
344.886	-13.48
345.099	144.21
345.311	80.72
345.523	7
345.735	-109.74
345.947	105.3
346.159	21.33
346.371	41.81
346.583	29.52
346.795	193.36
347.007	-48.3
347.219	93.01
347.431	29.52
347.643	31.57
347.855	13.14
348.067	136.02
348.279	-56.49
348.491	0.85
348.703	95.06
348.915	68.44
349.127	25.43
349.339	9.05
349.551	23.38
349.763	80.72
349.975	-56.49
350.187	101.2
350.399	99.16
350.61	80.72
350.822	7
351.034	33.62
351.246	19.29
351.458	76.63
351.669	58.2
351.881	37.72
352.093	131.92
352.305	103.25
352.517	80.72
352.728	170.83
352.94	133.97
353.152	70.48
353.363	-23.72
353.575	9.05
353.787	162.64
353.999	101.2
354.21	230.23
354.422	21.33
354.633	-21.67
354.845	-17.58
355.057	35.67
355.268	2.9
355.48	148.31
355.692	-9.39
355.903	23.38
356.115	-40.11
356.326	-31.91
356.538	107.35
356.749	170.83
356.961	101.2
357.172	4.95
357.384	-11.43
357.595	172.88
357.807	-40.11
358.018	50
358.23	-79.02
358.441	144.21
358.653	88.92
358.864	-23.72
359.075	-1.19
359.287	41.81
359.498	117.59
359.709	43.86
359.921	41.81
360.132	27.48
360.344	97.11
360.555	-27.82
360.766	33.62
360.977	-9.39
361.189	99.16
361.4	33.62
361.611	97.11
361.823	140.12
362.034	97.11
362.245	15.19
362.456	31.57
362.667	88.92
362.879	-46.25
363.09	125.78
363.301	-7.34
363.512	74.58
363.723	-95.4
363.935	47.96
364.146	150.36
364.357	-3.24
364.568	11.09
364.779	-52.39
364.99	152.4
365.201	-5.29
365.412	133.97
365.623	-7.34
365.834	-15.53
366.045	95.06
366.256	146.26
366.467	103.25
366.678	68.44
366.889	-9.39
367.1	-11.43
367.311	103.25
367.522	39.76
367.733	37.72
367.944	-23.72
368.155	78.68
368.366	84.82
368.577	54.1
368.788	86.87
368.999	-11.43
369.209	64.34
369.42	226.13
369.631	232.27
369.842	45.91
370.053	115.54
370.264	60.24
370.474	39.76
370.685	25.43
370.896	39.76
371.107	142.16
371.317	76.63
371.528	-1.19
371.739	95.06
371.95	27.48
372.16	88.92
372.371	-23.72
372.582	29.52
372.792	103.25
373.003	43.86
373.214	17.24
373.424	33.62
373.635	-13.48
373.846	103.25
374.056	23.38
374.267	29.52
374.477	47.96
374.688	-89.26
374.898	43.86
375.109	101.2
375.319	58.2
375.53	82.77
375.74	58.2
375.951	103.25
376.161	70.48
376.372	103.25
376.582	-11.43
376.793	84.82
377.003	-40.11
377.214	37.72
377.424	41.81
377.635	60.24
377.845	-7.34
378.055	84.82
378.266	15.19
378.476	52.05
378.686	113.49
378.897	27.48
379.107	70.48
379.317	117.59
379.528	-1.19
379.738	74.58
379.948	-9.39
380.158	21.33
380.369	90.96
380.579	7
380.789	0.85
380.999	119.64
381.21	138.07
381.42	187.22
381.63	25.43
381.84	152.4
382.05	86.87
382.261	103.25
382.471	80.72
382.681	23.38
382.891	154.45
383.101	88.92
383.311	0.85
383.521	-15.53
383.731	113.49
383.941	58.2
384.151	27.48
384.361	45.91
384.571	11.09
384.781	54.1
384.991	162.64
385.201	140.12
385.411	76.63
385.621	27.48
385.831	39.76
386.041	56.15
386.251	111.44
386.461	144.21
386.671	-3.24
386.881	54.1
387.091	52.05
387.301	129.88
387.511	29.52
387.72	86.87
387.93	107.35
388.14	-85.16
388.35	68.44
388.56	125.78
388.769	50
388.979	56.15
389.189	-17.58
389.399	119.64
389.609	99.16
389.818	109.4
390.028	39.76
390.238	27.48
390.447	-29.87
390.657	99.16
390.867	4.95
391.076	-50.35
391.286	45.91
391.496	41.81
391.705	41.81
391.915	176.98
392.125	103.25
392.334	45.91
392.544	109.4
392.753	0.85
392.963	-29.87
393.172	-23.72
393.382	72.53
393.591	193.36
393.801	-13.48
394.01	131.92
394.22	117.59
394.429	21.33
394.639	80.72
394.848	37.72
395.058	68.44
395.267	86.87
395.477	86.87
395.686	25.43
395.895	217.94
396.105	162.64
396.314	93.01
396.524	78.68
396.733	43.86
396.942	144.21
397.152	50
397.361	211.79
397.57	93.01
397.78	17.24
397.989	60.24
398.198	195.41
398.407	52.05
398.617	111.44
398.826	172.88
399.035	-7.34
399.244	117.59
399.453	111.44
399.663	27.48
399.872	107.35
400.081	-64.68
400.29	142.16
400.499	-33.96
400.708	103.25
400.917	25.43
401.127	117.59
401.336	21.33
401.545	224.08
401.754	99.16
401.963	109.4
402.172	58.2
402.381	-64.68
402.59	-13.48
402.799	68.44
403.008	101.2
403.217	47.96
403.426	125.78
403.635	-62.63
403.844	47.96
404.053	4.95
404.262	-46.25
404.471	166.74
404.68	35.67
404.888	66.39
405.097	60.24
405.306	56.15
405.515	76.63
405.724	9.05
405.933	115.54
406.142	37.72
406.35	99.16
406.559	-7.34
406.768	58.2
406.977	97.11
407.185	107.35
407.394	133.97
407.603	-23.72
407.812	111.44
408.02	121.68
408.229	60.24
408.438	170.83
408.646	7
408.855	13.14
409.064	152.4
409.272	95.06
409.481	125.78
409.69	-21.67
409.898	-60.59
410.107	19.29
410.315	168.79
410.524	-3.24
410.733	131.92
410.941	-9.39
411.15	164.69
411.358	156.5
411.567	136.02
411.775	0.85
411.984	41.81
412.192	4.95
412.401	9.05
412.609	150.36
412.818	166.74
413.026	103.25
413.234	19.29
413.443	84.82
413.651	23.38
413.86	25.43
414.068	131.92
414.276	166.74
414.485	56.15
414.693	197.46
414.901	174.93
415.11	37.72
415.318	39.76
415.526	64.34
415.734	140.12
415.943	105.3
416.151	142.16
416.359	58.2
416.567	76.63
416.776	123.73
416.984	93.01
417.192	181.07
417.4	50
417.608	-15.53
417.817	2.9
418.025	138.07
418.233	213.84
418.441	-117.93
418.649	27.48
418.857	52.05
419.065	146.26
419.273	50
419.481	19.29
419.689	86.87
419.897	-68.78
420.105	-56.49
420.313	111.44
420.521	82.77
420.729	117.59
420.937	17.24
421.145	-27.82
421.353	140.12
421.561	172.88
421.769	31.57
421.977	101.2
422.185	76.63
422.393	15.19
422.601	78.68
422.809	13.14
423.017	90.96
423.224	74.58
423.432	117.59
423.64	41.81
423.848	156.5
424.056	21.33
424.263	45.91
424.471	21.33
424.679	154.45
424.887	27.48
425.094	136.02
425.302	146.26
425.51	47.96
425.718	150.36
425.925	154.45
426.133	-81.07
426.341	228.18
426.548	113.49
426.756	95.06
426.964	107.35
427.171	35.67
427.379	115.54
427.586	115.54
427.794	136.02
428.001	269.14
428.209	121.68
428.417	187.22
428.624	154.45
428.832	144.21
429.039	78.68
429.247	127.83
429.454	172.88
429.662	203.6
429.869	162.64
430.076	103.25
430.284	234.32
430.491	265.04
430.699	160.59
430.906	185.17
431.114	150.36
431.321	238.42
431.528	62.29
431.736	142.16
431.943	160.59
432.15	146.26
432.358	172.88
432.565	262.99
432.772	27.48
432.979	232.27
433.187	172.88
433.394	160.59
433.601	144.21
433.808	197.46
434.016	271.19
434.223	254.8
434.43	248.66
434.637	271.19
434.844	385.87
435.052	199.51
435.259	316.24
435.466	351.06
435.673	299.86
435.88	328.53
436.087	420.69
436.294	381.78
436.501	375.63
436.708	381.78
436.915	414.54
437.122	353.1
437.329	258.9
437.537	426.83
437.743	353.1
437.95	525.13
438.157	381.78
438.364	435.02
438.571	412.5
438.778	437.07
438.985	471.89
439.192	588.62
439.399	490.32
439.606	488.27
439.813	559.95
440.02	734.03
440.227	697.16
440.433	625.48
440.64	631.63
440.847	582.48
441.054	695.11
441.261	781.13
441.467	764.75
441.674	691.02
441.881	811.85
442.088	727.88
442.294	826.18
442.501	897.86
442.708	897.86
442.914	959.3
443.121	963.4
443.328	944.97
443.534	1043.27
443.741	1067.85
443.948	904.01
444.154	1168.2
444.361	1262.4
444.568	1186.63
444.774	1180.48
444.981	1184.58
445.187	1350.46
445.394	1387.33
445.6	1327.94
445.807	1497.92
446.013	1456.96
446.22	1407.81
446.426	1622.84
446.633	1735.48
446.839	2009.91
447.046	1616.7
447.252	1860.41
447.459	1870.65
447.665	1880.89
447.871	2054.97
448.078	2202.42
448.284	2175.8
448.491	2272.05
448.697	2403.12
448.903	2462.51
449.11	2573.1
449.316	2571.05
449.522	2675.5
449.728	2808.62
449.935	3134.25
450.141	2984.74
450.347	3203.88
450.553	3160.87
450.76	3162.92
450.966	3429.15
451.172	3400.48
451.378	3537.7
451.584	3654.43
451.791	3984.15
451.997	4104.98
452.203	4109.08
452.409	4416.27
452.615	4668.17
452.821	4369.17
453.027	4502.29
453.233	5217.03
453.44	4754.19
453.646	5055.24
453.852	5298.95
454.058	5618.43
454.264	5690.11
454.47	6226.68
454.676	6349.56
454.882	6572.79
455.088	6363.89
455.294	6787.82
455.5	7285.48
455.705	7604.96
455.911	7690.98
456.117	7863.01
456.323	8067.8
456.529	8135.39
456.735	9016.01
456.941	9183.95
457.147	9480.9
457.352	9677.51
457.558	9951.93
457.764	10638
457.97	10861.23
458.176	11420.33
458.381	11860.64
458.587	12061.34
458.793	12604.05
458.999	12683.92
459.204	14045.82
459.41	14750.32
459.616	14520.95
459.821	15336.04
460.027	16192.09
460.233	16673.37
460.438	16960.08
460.644	17932.87
460.85	18068.03
461.055	18563.64
461.261	19593.77
461.466	19137.07
461.672	19751.46
461.878	21991.94
462.083	21828.1
462.289	22243.84
462.494	23194.1
462.7	23038.45
462.905	23411.18
463.111	25303.51
463.316	26403.27
463.522	27304.37
463.727	27974.06
463.932	29243.8
464.138	30007.69
464.343	31263.1
464.549	31351.16
464.754	33380.7
464.959	34443.59
465.165	35090.75
465.37	34705.73
465.575	34945.34
465.781	37349.66
465.986	38174.99
466.191	37605.66
466.397	37966.1
466.602	37110.05
466.807	39303.42
467.012	40036.59
467.218	40720.62
467.423	41005.28
467.628	41820.38
467.833	43686.07
468.038	42969.29
468.244	42330.32
468.449	44658.86
468.654	43692.22
468.859	43620.54
469.064	43700.41
469.269	42438.86
469.474	42901.7
469.679	44175.54
469.885	42797.26
470.09	43503.81
470.295	43878.58
470.5	42612.94
470.705	42774.73
470.91	41933.01
471.115	41736.41
471.32	42197.2
471.525	42121.43
471.73	40628.46
471.935	40540.39
472.139	38643.98
472.344	38904.07
472.549	38844.68
472.754	37964.05
472.959	37484.83
473.164	36069.68
473.369	35457.34
473.574	36596.01
473.778	35653.94
473.983	35057.98
474.188	34208.08
474.393	33073.5
474.598	32635.24
474.802	32049.52
475.007	31871.34
475.212	31240.57
475.417	30198.15
475.621	29763.98
475.826	29714.83
476.031	28930.46
476.235	28387.75
476.44	28301.73
476.645	27554.22
476.849	27298.23
477.054	26902.97
477.259	26032.58
477.463	26022.34
477.668	25338.32
477.872	25426.39
478.077	24623.58
478.282	24355.3
478.486	23863.79
478.691	23480.82
478.895	23335.41
479.1	23405.04
479.304	23032.31
479.509	22538.75
479.713	22600.19
479.918	22143.49
480.122	21701.13
480.326	21963.27
480.531	21678.6
480.735	21346.83
480.94	21006.87
481.144	21596.68
481.348	20605.47
481.553	20861.46
481.757	20277.79
481.961	20740.63
482.166	20517.4
482.37	20587.04
482.574	19808.81
482.778	19986.98
482.983	20490.78
483.187	19888.68
483.391	20062.76
483.595	19276.34
483.8	19053.11
484.004	19102.26
484.208	19087.92
484.412	18809.4
484.616	18762.3
484.821	18637.37
485.025	17883.72
485.229	18305.6
485.433	17537.61
485.637	17601.1
485.841	17058.39
486.045	17076.82
486.249	16878.16
486.453	16683.61
486.657	16570.97
486.861	16374.36
487.065	15649.38
487.269	16061.02
487.473	15198.83
487.677	15510.12
487.881	15256.17
488.085	14719.6
488.289	14844.53
488.493	14267
488.697	14262.91
488.901	14033.54
489.105	13566.6
489.309	13587.08
489.512	13114
489.716	12882.58
489.92	12733.08
490.124	12497.56
490.328	12700.31
490.531	12040.86
490.735	12012.19
490.939	11731.62
491.143	11254.44
491.346	11258.54
491.55	11317.93
491.754	10807.98
491.958	10902.19
492.161	10623.67
492.365	10396.34
492.569	10220.22
492.772	10283.7
492.976	10336.95
493.18	9796.29
493.383	9910.97
493.587	9769.66
493.79	9544.39
493.994	9378.5
494.197	9237.19
494.401	9409.22
494.605	9194.19
494.808	9302.73
495.012	9124.55
495.215	9196.23
495.419	9190.09
495.622	8680.14
495.825	8751.82
496.029	8637.14
496.232	8852.17
496.436	8499.92
496.639	8805.07
496.843	8743.63
497.046	8645.33
497.249	8854.22
497.453	8923.85
497.656	8653.52
497.859	8872.65
498.063	8895.18
498.266	8950.48
498.469	8825.55
498.673	8870.61
498.876	9106.12
499.079	9052.88
499.282	8753.87
499.485	9329.35
499.689	9165.51
499.892	9130.7
500.095	9097.93
500.298	9339.59
500.501	9216.71
500.705	9558.72
500.908	9507.52
501.111	9767.62
501.314	9798.34
501.517	9904.83
501.72	9792.19
501.923	9972.41
502.126	10103.48
502.329	10437.3
502.532	10363.58
502.735	10351.29
502.938	10568.37
503.141	10728.11
503.344	10769.07
503.547	10826.42
503.75	11182.76
503.953	11221.67
504.156	11360.94
504.359	11608.74
504.562	11528.87
504.765	11944.61
504.968	12219.03
505.17	12290.71
505.373	12346.01
505.576	12774.03
505.779	12864.15
505.982	13062.8
506.185	13384.33
506.387	13441.67
506.59	13699.72
506.793	14148.22
506.996	14019.2
507.198	14692.98
507.401	14955.12
507.604	15075.95
507.807	15422.06
508.009	15686.25
508.212	16110.18
508.415	16212.57
508.617	16564.82
508.82	16767.57
509.022	16861.78
509.225	17803.85
509.428	18076.23
509.63	18213.44
509.833	18477.63
510.035	19292.72
510.238	19223.09
510.44	19808.81
510.643	20199.97
510.845	21006.87
511.048	21021.2
511.25	21709.32
511.453	21918.21
511.655	23257.59
511.858	23126.52
512.06	23470.58
512.262	23982.57
512.465	24564.19
512.667	25323.99
512.87	25592.27
513.072	26012.1
513.274	27005.37
513.477	27556.27
513.679	28039.59
513.881	28832.16
514.084	29104.54
514.286	29778.32
514.488	30380.42
514.69	31797.62
514.893	31797.62
515.095	32708.96
515.297	33395.03
515.499	33753.43
515.701	34490.7
515.904	35092.8
516.106	35868.98
516.308	36684.07
516.51	37501.21
516.712	37804.31
516.914	38891.78
517.116	40077.55
517.318	40167.66
517.52	40894.69
517.722	41412.83
517.925	42365.13
518.127	43073.73
518.329	43907.26
518.531	44200.11
518.733	45199.52
518.935	46129.3
519.136	46117.01
519.338	47016.07
519.54	48230.52
519.742	48885.87
519.944	48910.44
520.146	50370.64
520.348	50569.3
520.55	51069
520.752	51327.05
520.954	52596.79
521.155	52987.95
521.357	53469.22
521.559	54040.6
521.761	54931.47
521.963	54767.63
522.164	55349.26
522.366	55736.32
522.568	56260.6
522.77	56821.75
522.971	57415.66
523.173	57057.26
523.375	57446.38
523.576	57579.49
523.778	57960.42
523.98	58720.21
524.181	58816.47
524.383	58755.03
524.584	59430.86
524.786	59324.36
524.988	58490.84
525.189	58951.63
525.391	59236.3
525.592	59502.54
525.794	59447.24
525.995	59140.05
526.197	59224.01
526.398	59588.55
526.6	59119.57
526.801	59123.66
527.003	59082.7
527.204	58867.67
527.406	58947.54
527.607	58343.39
527.808	58382.3
528.01	56969.2
528.211	57374.7
528.412	57702.37
528.614	57135.09
528.815	56567.8
529.016	56539.13
529.218	55468.04
529.419	55470.09
529.62	54308.89
529.822	53927.97
530.023	53596.2
530.224	53141.55
530.425	52922.41
530.626	51968.06
530.828	51374.15
531.029	51808.32
531.23	50540.63
531.431	49821.79
531.632	49997.91
531.833	49041.51
532.035	48894.06
532.236	48472.18
532.437	47618.17
532.638	46489.74
532.839	46416.02
533.04	46147.73
533.241	44853.42
533.442	45162.66
533.643	43878.58
533.844	43028.68
534.045	42879.18
534.246	42264.78
534.447	41816.28
534.648	41429.21
534.849	41169.12
535.05	40095.99
535.251	39645.43
535.451	38822.15
535.652	38828.29
535.853	38054.16
536.054	37808.4
536.255	36845.86
536.456	36043.06
536.657	36139.31
536.857	35619.13
537.058	34707.78
537.259	34613.57
537.46	34289.99
537.66	33558.87
537.861	33188.19
538.062	32799.07
538.263	32426.34
538.463	31990.13
538.664	31641.97
538.865	31349.11
539.065	31129.98
539.266	30181.77
539.466	30073.23
539.667	29391.25
539.868	29520.27
540.068	28926.36
540.269	28420.52
540.469	27974.06
540.67	27797.93
540.87	27783.6
541.071	27146.68
541.271	26962.36
541.472	26782.14
541.672	26368.45
541.873	26032.58
542.073	25186.77
542.274	25868.75
542.474	25399.76
542.675	24541.66
542.875	25088.47
543.075	24154.6
543.276	23638.51
543.476	24093.16
543.676	23355.89
543.877	23359.98
544.077	22921.72
544.277	23179.76
544.478	22405.63
544.678	22188.55
544.878	21967.37
545.078	21690.89
545.279	21328.4
545.479	21025.3
545.679	21322.26
545.879	20965.91
546.079	20527.64
546.28	19995.17
546.48	19903.01
546.68	19786.28
546.88	19817
547.08	19321.39
547.28	19145.27
547.48	18707
547.68	18754.1
547.88	18162.24
548.081	18164.29
548.281	17877.57
548.481	17781.32
548.681	17705.54
548.881	17099.34
549.081	16935.51
549.28	16960.08
549.48	16779.86
549.68	16372.32
549.88	16333.4
550.08	15772.26
550.28	15901.28
550.48	15606.38
550.68	15479.4
550.88	15075.95
551.08	14774.9
551.279	14688.89
551.479	14320.25
551.679	14531.19
551.879	14084.73
552.079	13898.37
552.278	13578.89
552.478	13671.04
552.678	13423.24
552.878	13281.93
553.077	12751.51
553.277	12657.3
553.477	12432.02
553.676	12092.06
553.876	12182.17
554.076	11979.42
554.275	11702.95
554.475	11268.78
554.674	11186.86
554.874	11084.46
555.074	11061.93
555.273	11070.12
555.473	10668.72
555.672	10449.59
555.872	10351.29
556.071	10222.27
556.271	10289.85
556.47	9980.61
556.67	9593.54
556.869	9530.05
557.068	9515.72
557.268	9183.95
557.467	9118.41
557.667	9048.78
557.866	8817.36
558.065	8778.45
558.265	8487.64
558.464	8235.74
558.663	8301.27
558.863	8248.02
559.062	8086.23
559.261	7875.29
559.461	7822.05
559.66	7318.25
559.859	7445.22
560.058	7271.14
560.258	7369.44
560.457	7348.97
560.656	7283.43
560.855	6890.22
561.054	6963.95
561.253	6865.64
561.453	6605.55
561.652	6527.73
561.851	6449.91
562.05	6353.65
562.249	6083.32
562.448	6114.04
562.647	6173.43
562.846	6107.9
563.045	5788.41
563.244	5835.52
563.443	5790.46
563.642	5665.53
563.841	5540.61
564.04	5442.31
564.239	5427.97
564.438	5460.74
564.637	5174.02
564.836	5159.69
565.035	4926.22
565.234	4907.79
565.432	4987.66
565.631	5063.43
565.83	4866.83
566.029	4711.18
566.228	4719.37
566.427	4627.21
566.625	4526.86
566.824	4356.88
567.023	4328.21
567.222	4399.89
567.42	4166.42
567.619	4346.64
567.818	4119.32
568.016	4254.48
568.215	3992.34
568.414	4076.31
568.612	3984.15
568.811	3877.66
569.01	3805.98
569.208	3805.98
569.407	3842.84
569.605	3717.92
569.804	3621.66
570.002	3463.97
570.201	3380
570.4	3433.25
570.598	3461.92
570.797	3482.4
570.995	3205.92
571.193	3304.23
571.392	3324.71
571.59	3183.4
571.789	3250.98
571.987	3164.97
572.186	3228.45
572.384	2947.88
572.582	2999.08
572.781	2964.26
572.979	2837.29
573.177	2775.85
573.376	2702.12
573.574	2870.06
573.772	2753.32
573.971	2612.01
574.169	2560.81
574.367	2704.17
574.565	2620.21
574.763	2599.73
574.962	2532.14
575.16	2290.48
575.358	2272.05
575.556	2347.83
575.754	2339.63
575.952	2284.34
576.151	2208.56
576.349	2325.3
576.547	2145.08
576.745	2169.65
576.943	2157.36
577.141	2120.5
577.339	1940.28
577.537	2102.07
577.735	1956.66
577.933	1964.86
578.131	1977.14
578.329	1903.42
578.527	1766.2
578.725	1919.8
578.923	1719.1
579.121	1864.5
579.319	1581.89
579.516	1641.28
579.714	1946.42
579.912	1815.35
580.11	1522.49
580.308	1641.28
580.506	1538.88
580.704	1549.12
580.901	1512.25
581.099	1663.8
581.297	1491.77
581.495	1561.41
581.692	1542.97
581.89	1583.93
582.088	1422.14
582.285	1508.16
582.483	1438.53
582.681	1424.19
582.878	1383.23
583.076	1377.09
583.274	1309.51
583.471	1450.82
583.669	1258.31
583.866	1237.83
584.064	1157.96
584.262	1086.28
584.459	1145.67
584.657	1280.83
584.854	1256.26
585.052	1153.86
585.249	1164.1
585.447	1127.24
585.644	963.4
585.841	1119.04
586.039	1166.15
586.236	1166.15
586.434	1080.13
586.631	971.59
586.828	904.01
587.026	942.92
587.223	1002.31
587.42	965.45
587.618	1000.26
587.815	1108.8
588.012	955.21
588.21	893.77
588.407	920.39
588.604	951.11
588.801	832.33
588.999	928.58
589.196	936.78
589.393	832.33
589.59	858.95
589.787	844.62
589.984	836.42
590.182	889.67
590.379	801.61
590.576	801.61
590.773	807.75
590.97	916.3
591.167	908.1
591.364	801.61
591.561	789.32
591.758	895.82
591.955	867.14
592.152	871.24
592.349	756.55
592.546	789.32
592.743	803.66
592.94	758.6
593.137	820.04
593.334	914.25
593.531	813.9
593.727	836.42
593.924	926.54
594.121	768.84
594.318	758.6
594.515	854.86
594.712	918.34
594.908	973.64
595.105	725.83
595.302	840.52
595.499	781.13
595.696	963.4
595.892	809.8
596.089	971.59
596.286	895.82
596.482	990.02
596.679	967.49
596.876	967.49
597.072	1026.89
597.269	1100.61
597.466	1080.13
597.662	1108.8
597.859	1153.86
598.055	1117
598.252	1254.21
598.448	1254.21
598.645	1313.6
598.841	1315.65
599.038	1534.78
599.234	1506.11
599.431	1532.73
599.627	1579.84
599.824	1651.52
600.02	1631.04
600.217	1608.51
600.413	1819.45
600.609	1790.78
600.806	2239.28
601.002	2042.68
601.198	1866.55
601.395	2016.05
601.591	2282.29
601.787	2298.67
601.984	2435.89
602.18	2458.42
602.376	2622.25
602.572	2638.64
602.769	2874.15
602.965	2808.62
603.161	2900.78
603.357	3101.48
603.553	3234.6
603.75	3126.05
603.946	3275.56
604.142	3486.5
604.338	3619.61
604.534	3644.19
604.73	3726.11
604.926	3814.17
605.122	4168.47
605.318	4338.45
605.514	4311.83
605.71	4426.51
605.906	4635.41
606.102	4664.08
606.298	4983.56
606.494	5036.81
606.69	5307.14
606.886	5354.24
607.082	5331.72
607.278	5462.79
607.474	5761.79
607.67	6017.79
607.866	6017.79
608.062	6413.04
608.257	6451.95
608.453	6546.16
608.649	6738.67
608.845	6970.09
609.041	6976.23
609.236	7420.64
609.432	7518.95
609.628	7717.6
609.824	8096.47
610.019	8155.86
610.215	8321.75
610.411	8649.43
610.606	8966.86
610.802	8987.34
610.998	9298.63
611.193	9689.79
611.389	9767.62
611.584	9945.79
611.78	10291.9
611.976	10586.8
612.171	11061.93
612.367	11004.59
612.562	11430.57
612.758	11584.16
612.953	11838.11
613.149	12444.31
613.344	12413.59
613.539	13030.03
613.735	13339.27
613.93	13779.59
614.126	13820.55
614.321	14697.08
614.517	15043.18
614.712	15274.6
614.907	15716.97
615.103	15919.71
615.298	16429.66
615.493	16921.17
615.688	17076.82
615.884	17936.96
616.079	18027.07
616.274	18821.69
616.47	19108.4
616.665	19651.11
616.86	19946.02
617.055	20396.57
617.25	20781.59
617.445	21584.4
617.641	21858.82
617.836	22680.06
618.031	23009.78
618.226	24216.04
618.421	23953.9
618.616	25108.95
618.811	24975.83
619.006	25967.05
619.201	26319.3
619.396	27115.96
619.591	27075
619.786	28363.17
619.981	28709.28
620.176	29368.73
620.371	29899.15
620.566	30386.57
620.761	30955.9
620.956	31787.38
621.151	32371.05
621.346	32852.32
621.541	33319.26
621.735	34480.46
621.93	34562.37
622.125	35404.09
622.32	35793.2
622.515	36729.12
622.709	37454.11
622.904	38218
623.099	38525.19
623.294	39540.99
623.488	40116.47
623.683	41093.35
623.878	40861.93
624.072	41844.95
624.267	42221.78
624.462	43462.85
624.656	43798.71
624.851	44404.91
625.046	44611.76
625.24	45576.35
625.435	46188.69
625.629	46917.77
625.824	47302.79
626.018	48142.45
626.213	47687.81
626.407	48967.79
626.602	48879.72
626.796	50333.78
626.991	50354.26
627.185	50821.2
627.38	50954.32
627.574	51136.59
627.768	51183.69
627.963	51531.84
628.157	51361.86
628.352	52185.15
628.546	51591.23
628.74	52469.81
628.935	51703.87
629.129	52365.37
629.323	51365.96
629.517	51460.16
629.712	51058.76
629.906	51046.47
630.1	49842.27
630.294	49836.12
630.489	49207.4
630.683	48908.4
630.877	47671.42
631.071	47130.76
631.265	46823.56
631.459	45291.68
631.653	44175.54
631.848	43493.57
632.042	42275.02
632.236	41502.94
632.43	40446.19
632.624	39629.05
632.818	37933.33
633.012	36698.41
633.206	35727.67
633.4	34885.95
633.594	33132.89
633.788	32416.1
633.982	31607.16
634.176	30105.99
634.369	29233.56
634.563	28141.99
634.757	26941.88
634.951	26137.03
635.145	25067.99
635.339	24183.27
635.533	23194.1
635.726	22249.99
635.92	21332.5
636.114	20400.67
636.308	19675.69
636.501	18553.4
636.695	18393.66
636.889	17250.89
637.083	16687.7
637.276	15790.69
637.47	15127.15
637.664	14613.11
637.857	14060.16
638.051	13656.71
638.244	13056.65
638.438	12460.7
638.632	11956.89
638.825	11324.07
639.019	11063.98
639.212	10566.32
639.406	10097.34
639.599	9743.04
639.793	9206.47
639.986	8868.56
640.18	8674
640.373	8260.31
640.567	7903.96
640.76	7766.75
640.954	7426.79
641.147	7170.79
641.34	6804.21
641.534	6671.09
641.727	6527.73
641.92	6091.51
642.114	5786.37
642.307	5745.41
642.5	5522.18
642.694	5120.78
642.887	5186.31
643.08	4930.31
643.273	4770.57
643.467	4442.9
643.66	4279.06
643.853	4098.84
644.046	4000.54
644.239	3785.5
644.432	3640.09
644.626	3416.87
644.819	3371.81
645.012	3242.79
645.205	3199.78
645.398	3056.42
645.591	2861.87
645.784	2734.89
645.977	2718.51
646.17	2622.25
646.363	2452.27
646.556	2296.63
646.749	2239.28
646.942	2173.75
647.135	2179.89
647.328	1944.38
647.521	1936.18
647.714	1952.57
647.907	1987.38
648.099	1676.09
648.292	1827.64
648.485	1622.84
648.678	1577.79
648.871	1459.01
649.064	1459.01
649.256	1297.22
649.449	1452.86
649.642	1229.63
649.835	1174.34
650.027	1108.8
650.22	1184.58
650.413	1071.94
650.605	1137.48
650.798	1024.84
650.991	910.15
651.183	971.59
651.376	944.97
651.568	971.59
651.761	840.52
651.954	965.45
652.146	791.37
652.339	848.71
652.531	922.44
652.724	713.55
652.916	729.93
653.109	553.8
653.301	752.46
653.494	791.37
653.686	650.06
653.879	697.16
654.071	717.64
654.263	551.76
654.456	488.27
654.648	631.63
654.84	619.34
655.033	576.33
655.225	707.4
655.417	437.07
655.61	576.33
655.802	623.44
655.994	441.17
656.186	402.26
656.379	426.83
656.571	432.97
656.763	369.49
656.955	408.4
657.148	375.63
657.34	502.61
657.532	402.26
657.724	377.68
657.916	273.23
658.108	506.7
658.3	314.19
658.492	344.91
658.684	213.84
658.876	363.34
659.068	260.95
659.26	240.47
659.452	191.31
659.644	230.23
659.836	453.45
660.028	318.29
660.22	297.81
660.412	252.75
660.604	181.07
660.796	308.05
660.988	363.34
661.18	279.38
661.372	242.51
661.563	207.7
661.755	322.38
661.947	99.16
662.139	236.37
662.331	269.14
662.522	293.71
662.714	187.22
662.906	164.69
663.097	162.64
663.289	179.03
663.481	88.92
663.673	211.79
663.864	226.13
664.056	197.46
664.247	115.54
664.439	256.85
664.631	158.55
664.822	238.42
665.014	179.03
665.205	250.71
665.397	174.93
665.588	168.79
665.78	138.07
665.971	189.27
666.163	219.99
666.354	172.88
666.546	86.87
666.737	74.58
666.929	209.75
667.12	70.48
667.311	152.4
667.503	129.88
667.694	166.74
667.885	162.64
668.077	195.41
668.268	78.68
668.459	164.69
668.651	162.64
668.842	111.44
669.033	101.2
669.224	4.95
669.416	306
669.607	60.24
669.798	127.83
669.989	275.28
670.18	164.69
670.371	174.93
670.563	39.76
670.754	179.03
670.945	222.03
671.136	158.55
671.327	60.24
671.518	209.75
671.709	248.66
671.9	170.83
672.091	219.99
672.282	93.01
672.473	215.89
672.664	52.05
672.855	88.92
673.046	146.26
673.237	209.75
673.428	129.88
673.619	242.51
673.809	58.2
674	234.32
674.191	201.55
674.382	86.87
674.573	121.68
674.764	183.12
674.954	219.99
675.145	2.9
675.336	52.05
675.527	172.88
675.717	88.92
675.908	101.2
676.099	74.58
676.289	133.97
676.48	119.64
676.671	136.02
676.861	129.88
677.052	127.83
677.243	88.92
677.433	144.21
677.624	228.18
677.814	54.1
678.005	115.54
678.195	236.37
678.386	41.81
678.576	195.41
678.767	66.39
678.957	125.78
679.148	205.65
679.338	199.51
679.529	244.56
679.719	133.97
679.909	172.88
680.1	265.04
680.29	199.51
680.481	82.77
680.671	236.37
680.861	201.55
681.052	193.36
681.242	160.59
681.432	234.32
681.622	211.79
681.813	199.51
682.003	152.4
682.193	142.16
682.383	189.27
682.573	191.31
682.764	162.64
682.954	176.98
683.144	258.9
683.334	215.89
683.524	88.92
683.714	226.13
683.904	197.46
684.094	168.79
684.284	123.73
684.474	287.57
684.664	185.17
684.854	230.23
685.044	142.16
685.234	181.07
685.424	207.7
685.614	185.17
685.804	342.86
685.994	166.74
686.184	228.18
686.374	256.85
686.564	170.83
686.753	140.12
686.943	82.77
687.133	219.99
687.323	115.54
687.513	279.38
687.702	183.12
687.892	148.31
688.082	195.41
688.272	285.52
688.461	191.31
688.651	408.4
688.841	254.8
689.03	97.11
689.22	162.64
689.41	211.79
689.599	269.14
689.789	107.35
689.979	273.23
690.168	217.94
690.358	234.32
690.547	146.26
690.737	125.78
690.926	205.65
691.116	215.89
691.305	260.95
691.495	197.46
691.684	136.02
691.874	125.78
692.063	191.31
692.252	181.07
692.442	201.55
692.631	213.84
692.82	189.27
693.01	234.32
693.199	199.51
693.388	150.36
693.578	148.31
693.767	260.95
693.956	219.99
694.146	170.83
694.335	213.84
694.524	185.17
694.713	301.9
694.902	146.26
695.092	164.69
695.281	254.8
695.47	146.26
695.659	125.78
695.848	289.62
696.037	31.57
696.226	287.57
696.415	238.42
696.604	205.65
696.793	308.05
696.982	131.92
697.171	283.47
697.36	156.5
697.549	197.46
697.738	78.68
697.927	88.92
698.116	99.16
698.305	238.42
698.494	172.88
698.683	105.3
698.872	273.23
699.061	166.74
699.25	174.93
699.438	72.53
699.627	113.49
699.816	371.54
700.005	115.54
700.193	123.73
700.382	228.18
700.571	172.88
700.76	289.62
700.948	310.1
701.137	176.98
701.326	228.18
701.514	125.78
701.703	215.89
701.892	150.36
702.08	349.01
702.269	133.97
702.457	99.16
702.646	176.98
702.834	152.4
703.023	322.38
703.212	232.27
703.4	205.65
703.589	121.68
703.777	66.39
703.965	119.64
704.154	164.69
704.342	131.92
704.531	201.55
704.719	224.08
704.907	211.79
705.096	95.06
705.284	97.11
705.472	168.79
705.661	189.27
705.849	205.65
706.037	232.27
706.226	181.07
706.414	199.51
706.602	129.88
706.79	164.69
706.979	103.25
707.167	209.75
707.355	62.29
707.543	144.21
707.731	179.03
707.919	201.55
708.107	105.3
708.296	117.59
708.484	127.83
708.672	174.93
708.86	148.31
709.048	111.44
709.236	86.87
709.424	254.8
709.612	252.75
709.8	66.39
709.988	250.71
710.176	236.37
710.364	226.13
710.551	228.18
710.739	140.12
710.927	144.21
711.115	211.79
711.303	193.36
711.491	277.33
711.679	117.59
711.866	99.16
712.054	131.92
712.242	158.55
712.43	238.42
712.617	142.16
712.805	242.51
712.993	181.07
713.181	133.97
713.368	203.6
713.556	160.59
713.744	176.98
713.931	297.81
714.119	189.27
714.306	107.35
714.494	111.44
714.682	174.93
714.869	121.68
715.057	181.07
715.244	47.96
715.432	115.54
715.619	185.17
715.807	93.01
715.994	185.17
716.182	168.79
716.369	346.96
716.556	269.14
716.744	56.15
716.931	25.43
717.119	166.74
717.306	232.27
717.493	207.7
717.681	123.73
717.868	166.74
718.055	152.4
718.242	156.5
718.43	240.47
718.617	230.23
718.804	185.17
718.991	228.18
719.179	158.55
719.366	271.19
719.553	234.32
719.74	105.3
719.927	156.5
720.114	228.18
720.301	103.25
720.488	193.36
720.676	66.39
720.863	285.52
721.05	312.14
721.237	271.19
721.424	244.56
721.611	174.93
721.798	103.25
721.985	197.46
722.172	228.18
722.358	152.4
722.545	224.08
722.732	215.89
722.919	373.58
723.106	283.47
723.293	105.3
723.48	183.12
723.667	146.26
723.853	344.91
724.04	191.31
724.227	269.14
724.414	187.22
724.6	215.89
724.787	353.1
724.974	312.14
725.161	176.98
725.347	119.64
725.534	136.02
725.72	228.18
725.907	320.34
726.094	209.75
726.28	56.15
726.467	250.71
726.653	140.12
726.84	308.05
727.027	287.57
727.213	195.41
727.4	260.95
727.586	172.88
727.773	213.84
727.959	230.23
728.145	246.61
728.332	234.32
728.518	111.44
728.705	328.53
728.891	222.03
729.077	213.84
729.264	107.35
729.45	193.36
729.636	332.62
729.823	189.27
730.009	314.19
730.195	248.66
730.382	260.95
730.568	133.97
730.754	240.47
730.94	160.59
731.126	232.27
731.313	168.79
731.499	172.88
731.685	283.47
731.871	291.66
732.057	273.23
732.243	254.8
732.429	176.98
732.615	330.58
732.801	240.47
732.987	213.84
733.173	203.6
733.359	176.98
733.545	193.36
733.731	187.22
733.917	297.81
734.103	179.03
734.289	324.43
734.475	127.83
734.661	428.88
734.847	289.62
735.033	228.18
735.219	279.38
735.404	215.89
735.59	228.18
735.776	160.59
735.962	244.56
736.148	324.43
736.333	291.66
736.519	289.62
736.705	297.81
736.89	267.09
737.076	217.94
737.262	201.55
737.447	170.83
737.633	248.66
737.819	306
738.004	250.71
738.19	148.31
738.375	209.75
738.561	379.73
738.747	209.75
738.932	176.98
739.118	365.39
739.303	359.25
739.489	297.81
739.674	162.64
739.859	176.98
740.045	277.33
740.23	207.7
740.416	78.68
740.601	158.55
740.786	236.37
740.972	162.64
741.157	201.55
741.342	162.64
741.528	115.54
741.713	279.38
741.898	209.75
742.084	209.75
742.269	189.27
742.454	246.61
742.639	326.48
742.824	258.9
743.01	338.77
743.195	301.9
743.38	144.21
743.565	275.28
743.75	181.07
743.935	283.47
744.12	342.86
744.305	80.72
744.49	187.22
744.675	244.56
744.86	154.45
745.045	269.14
745.23	168.79
745.415	228.18
745.6	293.71
745.785	230.23
745.97	279.38
746.155	314.19
746.34	295.76
746.525	219.99
746.71	340.82
746.895	172.88
747.079	160.59
747.264	197.46
747.449	240.47
747.634	287.57
747.819	260.95
748.003	187.22
748.188	127.83
748.373	252.75
748.557	222.03
748.742	215.89
748.927	230.23
749.111	150.36
749.296	193.36
749.481	228.18
749.665	209.75
749.85	150.36
750.034	181.07
750.219	121.68
750.404	187.22
750.588	199.51
750.773	199.51
750.957	148.31
751.141	150.36
751.326	234.32
751.51	111.44
751.695	170.83
751.879	160.59
752.064	308.05
752.248	168.79
752.432	295.76
752.617	185.17
752.801	183.12
752.985	52.05
753.17	297.81
753.354	187.22
753.538	193.36
753.722	121.68
753.907	183.12
754.091	121.68
754.275	164.69
754.459	72.53
754.643	72.53
754.828	144.21
755.012	193.36
755.196	35.67
755.38	154.45
755.564	144.21
755.748	140.12
755.932	215.89
756.116	179.03
756.3	203.6
756.484	109.4
756.668	154.45
756.852	-15.53
757.036	78.68
757.22	95.06
757.404	160.59
757.588	60.24
757.772	162.64
757.956	138.07
758.14	265.04
758.323	19.29
758.507	201.55
758.691	11.09
758.875	183.12
759.059	168.79
759.242	68.44
759.426	133.97
759.61	88.92
759.794	11.09
759.977	230.23
760.161	279.38
760.345	230.23
760.528	224.08
760.712	138.07
760.895	181.07
761.079	144.21
761.263	103.25
761.446	93.01
761.63	84.82
761.813	181.07
761.997	86.87
762.18	146.26
762.364	82.77
762.547	-70.83
762.731	148.31
762.914	115.54
763.098	-38.06
763.281	103.25
763.464	45.91
763.648	50
763.831	123.73
764.015	115.54
764.198	125.78
764.381	86.87
764.564	101.2
764.748	95.06
764.931	70.48
765.114	54.1
765.297	121.68
765.481	0.85
765.664	193.36
765.847	86.87
766.03	168.79
766.213	15.19
766.397	54.1
766.58	-3.24
766.763	238.42
766.946	37.72
767.129	80.72
767.312	62.29
767.495	17.24
767.678	52.05
767.861	111.44
768.044	99.16
768.227	123.73
768.41	-5.29
768.593	97.11
768.776	43.86
768.959	35.67
769.142	191.31
769.324	43.86
769.507	93.01
769.69	17.24
769.873	52.05
770.056	203.6
770.239	84.82
770.421	93.01
770.604	90.96
770.787	56.15
770.97	105.3
771.152	-31.91
771.335	99.16
771.518	74.58
771.7	172.88
771.883	211.79
772.066	-1.19
772.248	84.82
772.431	86.87
772.613	170.83
772.796	101.2
772.978	197.46
773.161	160.59
773.343	111.44
773.526	0.85
773.708	-83.11
773.891	-31.91
774.073	4.95
774.256	25.43
774.438	230.23
774.621	82.77
774.803	88.92
774.985	60.24
775.168	140.12
775.35	90.96
775.532	129.88
775.715	-83.11
775.897	52.05
776.079	88.92
776.261	27.48
776.444	45.91
776.626	37.72
776.808	95.06
776.99	-9.39
777.173	84.82
777.355	97.11
777.537	15.19
777.719	172.88
777.901	-13.48
778.083	9.05
778.265	-56.49
778.447	140.12
778.629	64.34
778.811	52.05
778.993	123.73
779.175	17.24
779.357	95.06
779.539	0.85
779.721	70.48
779.903	86.87
780.085	-81.07
780.267	31.57
780.449	45.91
780.631	146.26
780.812	136.02
780.994	35.67
781.176	88.92
781.358	-27.82
781.54	0.85
781.721	164.69
781.903	82.77
782.085	90.96
782.267	90.96
782.448	-7.34
782.63	72.53
782.812	-17.58
782.993	70.48
783.175	43.86
783.357	4.95
783.538	66.39
783.72	-44.2
783.901	19.29
784.083	82.77
784.264	78.68
784.446	-52.39
784.627	-27.82
784.809	76.63
784.99	29.52
785.172	68.44
785.353	0.85
785.535	17.24
785.716	-5.29
785.897	11.09
786.079	58.2
786.26	47.96
786.441	97.11
786.623	-89.26
786.804	-5.29
786.985	-23.72
787.167	47.96
787.348	62.29
787.529	13.14
787.71	158.55
787.891	54.1
788.073	-9.39
788.254	-3.24
788.435	166.74
788.616	-17.58
788.797	-27.82
788.978	41.81
789.159	21.33
789.34	58.2
789.522	62.29
789.703	-91.31
789.884	103.25
790.065	41.81
790.246	168.79
790.427	13.14
790.607	162.64
790.788	105.3
790.969	-17.58
791.15	15.19
791.331	11.09
791.512	-42.15
791.693	19.29
791.874	-50.35
792.054	164.69
792.235	129.88
792.416	-11.43
792.597	-7.34
792.778	17.24
792.958	80.72
793.139	162.64
793.32	41.81
793.5	-21.67
793.681	117.59
793.862	52.05
794.042	80.72
794.223	-113.83
794.404	-66.73
794.584	-74.92
794.765	127.83
794.945	45.91
795.126	60.24
795.306	82.77
795.487	-89.26
795.667	25.43
795.848	54.1
796.028	-25.77
796.209	23.38
796.389	88.92
796.57	27.48
796.75	-11.43
796.93	37.72
797.111	-17.58
797.291	-105.64
797.471	43.86
797.652	-9.39
797.832	-99.5
798.012	-9.39
798.192	-15.53
798.373	-46.25
798.553	-38.06
798.733	7
798.913	-64.68
799.093	-46.25
799.274	13.14
799.454	60.24
799.634	76.63
799.814	107.35
799.994	95.06
800.174	-27.82
800.354	86.87
800.534	-46.25
800.714	74.58
800.894	-48.3
801.074	-79.02
801.254	-9.39
801.434	66.39
801.614	41.81
801.794	4.95
801.974	1856.31
802.154	11.09
802.334	54.1
802.514	-33.96
802.693	-52.39
802.873	-48.3
803.053	164.69
803.233	99.16
803.413	-33.96
803.592	-111.78
803.772	-48.3
803.952	84.82
804.131	-130.22
804.311	62.29
804.491	35.67
804.67	-109.74
804.85	-64.68
805.03	-48.3
805.209	80.72
805.389	-38.06
805.568	-52.39
805.748	62.29
805.928	-33.96
806.107	37.72
806.287	29.52
806.466	-42.15
806.646	7
806.825	68.44
807.004	-76.97
807.184	93.01
807.363	17.24
807.543	111.44
807.722	-89.26
807.901	80.72
808.081	52.05
808.26	-89.26
808.439	21.33
808.619	39.76
808.798	7
808.977	37.72
809.156	142.16
809.336	60.24
809.515	66.39
809.694	-117.93
809.873	-60.59
810.052	37.72
810.231	127.83
810.411	-1.19
810.59	37.72
810.769	23.38
810.948	62.29
811.127	-85.16
811.306	-36.01
811.485	-44.2
811.664	68.44
811.843	62.29
812.022	-23.72
812.201	-40.11
812.38	-23.72
812.559	-70.83
812.737	64.34
812.916	-15.53
813.095	-101.55
813.274	70.48
813.453	54.1
813.632	78.68
813.811	138.07
813.989	-64.68
814.168	-13.48
814.347	-25.77
814.526	13.14
814.704	133.97
814.883	60.24
815.062	-146.6
815.24	11.09
815.419	-66.73
815.598	60.24
815.776	-87.21
815.955	4.95
816.133	-124.07
816.312	15.19
816.49	-38.06
816.669	-38.06
816.847	-60.59
817.026	-3.24
817.204	29.52
817.383	9.05
817.561	-72.87
817.74	39.76
817.918	43.86
818.097	-27.82
818.275	-60.59
818.453	-36.01
818.632	45.91
818.81	-97.45
818.988	41.81
819.167	-68.78
819.345	13.14
819.523	-40.11
819.701	47.96
819.879	88.92
820.058	-19.63
820.236	23.38
820.414	-25.77
820.592	-44.2
820.77	-19.63
820.948	-1.19
821.127	-70.83
821.305	31.57
821.483	-79.02
821.661	41.81
821.839	21.33
822.017	-117.93
822.195	-74.92
822.373	117.59
822.551	72.53
822.729	52.05
822.907	-99.5
823.085	27.48
823.262	21.33
823.44	-52.39
823.618	-83.11
823.796	-40.11
823.974	-15.53
824.152	-33.96
824.329	2.9
824.507	-11.43
824.685	7
824.863	74.58
825.04	-21.67
825.218	25.43
825.396	-42.15
825.574	-27.82
825.751	27.48
825.929	-13.48
826.107	15.19
826.284	2.9
826.462	21.33
826.639	-17.58
826.817	-83.11
826.994	-21.67
827.172	-136.36
827.349	76.63
827.527	-11.43
827.704	-23.72
827.882	33.62
828.059	4.95
828.237	-33.96
828.414	50
828.591	-111.78
828.769	17.24
828.946	-54.44
829.124	2.9
829.301	70.48
829.478	-5.29
829.655	60.24
829.833	58.2
830.01	-81.07
830.187	52.05
830.364	-38.06
830.542	13.14
830.719	99.16
830.896	37.72
831.073	37.72
831.25	70.48
831.427	31.57
831.604	-21.67
831.782	-13.48
831.959	17.24
832.136	35.67
832.313	37.72
832.49	-54.44
832.667	-33.96
832.844	-7.34
833.021	84.82
833.198	-42.15
833.374	-27.82
833.551	47.96
833.728	-91.31
833.905	37.72
834.082	-97.45
834.259	39.76
834.436	11.09
834.612	-56.49
834.789	23.38
834.966	19.29
835.143	4.95
835.319	-122.02
835.496	37.72
835.673	-68.78
835.85	105.3
836.026	54.1
836.203	56.15
836.38	19.29
836.556	-74.92
836.733	15.19
836.909	144.21
837.086	-7.34
837.262	-79.02
837.439	11.09
837.616	-7.34
837.792	19.29
837.968	-52.39
838.145	-101.55
838.321	-1.19
838.498	-48.3
838.674	-21.67
838.851	45.91
839.027	-36.01
839.203	23.38
839.38	27.48
839.556	-27.82
839.732	-3.24
839.909	13.14
840.085	21.33
840.261	-44.2
840.437	-81.07
840.614	-42.15
840.79	15.19
840.966	66.39
841.142	-38.06
841.318	-76.97
841.494	19.29
841.671	39.76
841.847	-9.39
842.023	-93.35
842.199	54.1
842.375	113.49
842.551	-124.07
842.727	-50.35
842.903	117.59
843.079	-58.54
843.255	37.72
843.431	-1.19
843.607	62.29
843.783	-140.46
843.959	95.06
844.134	-44.2
844.31	80.72
844.486	-107.69
844.662	-64.68
844.838	-52.39
845.013	58.2
845.189	41.81
845.365	9.05
845.541	11.09
845.716	33.62
845.892	109.4
846.068	-101.55
846.244	-46.25
846.419	21.33
846.595	-52.39
846.77	-38.06
846.946	66.39
847.122	-97.45
847.297	-40.11
847.473	160.59
847.648	-128.17
847.824	4.95
847.999	-197.8
848.175	-5.29
848.35	39.76
848.526	29.52
848.701	23.38
848.876	52.05
849.052	150.36
849.227	31.57
849.403	4.95
849.578	-40.11
849.753	27.48
849.929	-1.19
850.104	-76.97
850.279	-7.34
850.454	-5.29
850.63	56.15
850.805	-33.96
850.98	-33.96
851.155	2.9
851.33	56.15
851.505	-85.16
851.681	111.44
851.856	-11.43
852.031	-42.15
852.206	43.86
852.381	-76.97
852.556	-1.19
852.731	2.9
852.906	35.67
853.081	74.58
853.256	27.48
853.431	4.95
853.606	-31.91
853.781	-99.5
853.956	-138.41
854.131	4.95
854.305	-48.3
854.48	-91.31
854.655	-72.87
854.83	-130.22
855.005	43.86
855.18	-46.25
855.354	23.38
855.529	-29.87
855.704	-46.25
855.879	72.53
856.053	-27.82
856.228	29.52
856.403	-115.88
856.577	11.09
856.752	-83.11
856.926	-52.39
857.101	41.81
857.276	-83.11
857.45	62.29
857.625	41.81
857.799	17.24
857.974	9.05
858.148	-105.64
858.323	54.1
858.497	-54.44
858.672	-144.55
858.846	-31.91
859.02	15.19
859.195	-101.55
859.369	-111.78
859.543	56.15
859.718	66.39
859.892	23.38
860.066	58.2
860.241	-33.96
860.415	-60.59
860.589	-36.01
860.763	-11.43
860.938	-99.5
861.112	-29.87
861.286	-48.3
861.46	-5.29
861.634	9.05
861.808	33.62
861.982	-54.44
862.157	-76.97
862.331	-5.29
862.505	-173.22
862.679	-79.02
862.853	-68.78
863.027	-54.44
863.201	127.83
863.375	11.09
863.549	37.72
863.722	-3.24
863.896	21.33
864.07	-64.68
864.244	25.43
864.418	27.48
864.592	-27.82
864.766	54.1
864.939	2.9
865.113	-17.58
865.287	129.88
865.461	-99.5
865.634	60.24
865.808	-60.59
865.982	-38.06
866.156	-56.49
866.329	-58.54
866.503	-1.19
866.676	90.96
866.85	-11.43
867.024	-42.15
867.197	-27.82
867.371	41.81
867.544	11.09
867.718	-93.35
867.891	-9.39
868.065	-103.59
868.238	39.76
868.412	64.34
868.585	0.85
868.759	-93.35
868.932	-23.72
869.105	-126.12
869.279	-93.35
869.452	-54.44
869.625	9.05
869.799	-44.2
869.972	-113.83
870.145	-44.2
870.319	0.85
870.492	-113.83
870.665	-17.58
870.838	-19.63
871.011	-152.74
871.185	13.14
871.358	-68.78
871.531	-36.01
871.704	-50.35
871.877	-7.34
872.05	-70.83
872.223	-95.4
872.396	74.58
872.569	27.48
872.742	-109.74
872.915	15.19
873.088	-44.2
873.261	-101.55
873.434	35.67
873.607	11.09
873.78	58.2
873.953	-115.88
874.126	-31.91
874.299	-27.82
874.471	-58.54
874.644	-85.16
874.817	78.68
874.99	164.69
875.163	4.95
875.335	-3.24
875.508	-44.2
875.681	-5.29
875.853	-1.19
876.026	-23.72
876.199	-11.43
876.371	68.44
876.544	-48.3
876.717	-27.82
876.889	27.48
877.062	-27.82
877.234	-95.4
877.407	-11.43
877.579	-60.59
877.752	-44.2
877.924	11.09
878.097	-17.58
878.269	39.76
878.442	-38.06
878.614	7
878.786	56.15
878.959	-87.21
879.131	37.72
879.303	-64.68
879.476	-23.72
879.648	82.77
879.82	-19.63
879.993	-13.48
880.165	-68.78
880.337	-60.59
880.509	-5.29
880.681	-148.65
880.854	-74.92
881.026	90.96
881.198	148.31
881.37	-33.96
881.542	-72.87
881.714	2.9
881.886	-23.72
882.058	-9.39
882.23	-48.3
882.402	-89.26
882.574	-25.77
882.746	66.39
882.918	78.68
883.09	80.72
883.262	-19.63
883.434	-11.43
883.606	-122.02
883.778	4.95
883.95	80.72
884.122	-76.97
884.293	58.2
884.465	33.62
884.637	88.92
884.809	-42.15
884.98	9.05
885.152	-5.29
885.324	-27.82
885.496	-81.07
885.667	-17.58
885.839	-44.2
886.011	9.05
886.182	31.57
886.354	9.05
886.525	-89.26
886.697	4.95
886.869	-85.16
887.04	-46.25
887.212	52.05
887.383	115.54
887.555	-27.82
887.726	-13.48
887.897	-62.63
888.069	27.48
888.24	-1.19
888.412	-17.58
888.583	4.95
888.754	-95.4
888.926	-124.07
889.097	-74.92
889.268	-140.46
889.44	7
889.611	-171.18
889.782	-68.78
889.953	-29.87
890.125	105.3
890.296	-38.06
890.467	-68.78
890.638	-46.25
890.809	-79.02
890.98	-70.83
891.151	23.38
891.323	93.01
891.494	-27.82
891.665	-1.19
891.836	-31.91
892.007	29.52
892.178	4.95
892.349	-42.15
892.52	-36.01
892.691	-5.29
892.862	0.85
893.032	-87.21
893.203	-58.54
893.374	19.29
893.545	21.33
893.716	-44.2
893.887	37.72
894.057	-83.11
894.228	2.9
894.399	-136.36
894.57	68.44
894.74	-52.39
894.911	-31.91
895.082	-38.06
895.253	-81.07
895.423	-38.06
895.594	70.48
895.764	-66.73
895.935	-76.97
896.106	9.05
896.276	-89.26
896.447	82.77
896.617	-85.16
896.788	-97.45
896.958	-52.39
897.129	-33.96
897.299	-128.17
897.47	52.05
897.64	13.14
897.81	-13.48
897.981	4.95
898.151	-60.59
898.322	-17.58
898.492	2.9
898.662	-62.63
898.832	-58.54
899.003	-17.58
899.173	9.05
899.343	-113.83
899.513	-99.5
