Data from USB4F104151__156__11-04-35-431.txt Node

Date: Wed Feb 26 11:04:35 EST 2025
User: louis
Spectrometer: USB4F10415
Trigger mode: 4
Integration Time (sec): 1.000000E-1
Scans to average: 1
Electric dark correction enabled: true
Nonlinearity correction enabled: false
Boxcar width: 0
XAxis mode: Wavelengths
Number of Pixels in Spectrum: 3648
>>>>>Begin Spectral Data<<<<<
178.204	-375.8
178.424	-375.8
178.644	-375.8
178.864	-418.81
179.084	-381.95
179.304	-21.5
179.524	-37.89
179.744	-21.5
179.964	56.32
180.184	60.42
180.404	62.46
180.624	1.02
180.844	1.02
181.064	-35.84
181.283	-64.51
181.503	-33.79
181.723	33.79
181.943	-66.56
182.163	244.73
182.383	35.84
182.602	17.41
182.822	150.53
183.042	39.94
183.262	11.26
183.482	39.94
183.701	80.89
183.921	64.51
184.141	-41.98
184.361	44.03
184.58	39.94
184.8	31.74
185.02	-11.26
185.239	242.68
185.459	152.57
185.679	177.15
185.898	-5.12
186.118	97.28
186.338	82.94
186.557	193.53
186.777	-44.03
186.997	7.17
187.216	80.89
187.436	205.82
187.655	164.86
187.875	136.19
188.095	54.27
188.314	189.44
188.534	78.85
188.753	25.6
188.973	179.2
189.192	130.05
189.412	15.36
189.631	56.32
189.851	56.32
190.07	211.96
190.29	-41.98
190.509	15.36
190.729	-15.36
190.948	140.29
191.168	318.46
191.387	101.37
191.607	39.94
191.826	84.99
192.045	117.76
192.265	31.74
192.484	87.04
192.704	99.33
192.923	-39.94
193.142	168.96
193.362	103.42
193.581	125.95
193.8	91.13
194.02	128
194.239	95.23
194.458	84.99
194.678	60.42
194.897	60.42
195.116	128
195.335	5.12
195.555	17.41
195.774	17.41
195.993	95.23
196.212	48.13
196.432	39.94
196.651	-21.5
196.87	117.76
197.089	193.53
197.308	193.53
197.528	89.09
197.747	-13.31
197.966	66.56
198.185	152.57
198.404	7.17
198.623	103.42
198.842	117.76
199.062	70.65
199.281	160.77
199.5	80.89
199.719	146.43
199.938	142.33
200.157	95.23
200.376	128
200.595	164.86
200.814	70.65
201.033	52.22
201.252	95.23
201.471	107.52
201.69	74.75
201.909	105.47
202.128	111.61
202.347	80.89
202.566	15.36
202.785	-105.47
203.004	11.26
203.223	318.46
203.442	58.37
203.661	-3.07
203.879	130.05
204.098	134.14
204.317	-76.8
204.536	162.81
204.755	111.61
204.974	121.85
205.193	37.89
205.411	179.2
205.63	185.34
205.849	72.7
206.068	41.98
206.287	-97.28
206.505	113.66
206.724	74.75
206.943	23.55
207.162	62.46
207.381	128
207.599	72.7
207.818	56.32
208.037	50.18
208.255	1.02
208.474	113.66
208.693	93.18
208.911	66.56
209.13	54.27
209.349	121.85
209.567	142.33
209.786	162.81
210.005	78.85
210.223	84.99
210.442	-39.94
210.661	25.6
210.879	111.61
211.098	39.94
211.316	35.84
211.535	89.09
211.753	66.56
211.972	66.56
212.191	3.07
212.409	-1.02
212.628	64.51
212.846	-23.55
213.065	15.36
213.283	166.91
213.502	64.51
213.72	132.09
213.938	58.37
214.157	29.7
214.375	68.61
214.594	64.51
214.812	21.5
215.031	132.09
215.249	5.12
215.467	76.8
215.686	56.32
215.904	105.47
216.122	107.52
216.341	113.66
216.559	101.37
216.778	140.29
216.996	152.57
217.214	95.23
217.432	27.65
217.651	21.5
217.869	74.75
218.087	56.32
218.306	54.27
218.524	76.8
218.742	54.27
218.96	117.76
219.179	39.94
219.397	66.56
219.615	289.79
219.833	160.77
220.051	-54.27
220.27	164.86
220.488	101.37
220.706	17.41
220.924	-37.89
221.142	48.13
221.36	99.33
221.578	58.37
221.796	125.95
222.015	15.36
222.233	82.94
222.451	175.1
222.669	-54.27
222.887	72.7
223.105	23.55
223.323	31.74
223.541	-21.5
223.759	15.36
223.977	52.22
224.195	187.39
224.413	27.65
224.631	74.75
224.849	109.57
225.067	230.4
225.285	-11.26
225.503	-31.74
225.721	-62.46
225.939	115.71
226.157	41.98
226.375	240.64
226.592	-27.65
226.81	68.61
227.028	97.28
227.246	146.43
227.464	105.47
227.682	29.7
227.9	13.31
228.117	17.41
228.335	144.38
228.553	64.51
228.771	-1.02
228.989	136.19
229.206	152.57
229.424	103.42
229.642	-17.41
229.86	17.41
230.077	125.95
230.295	68.61
230.513	156.67
230.731	80.89
230.948	283.64
231.166	160.77
231.384	50.18
231.601	-13.31
231.819	156.67
232.037	9.22
232.254	-5.12
232.472	41.98
232.689	27.65
232.907	103.42
233.125	-1.02
233.342	-21.5
233.56	48.13
233.777	21.5
233.995	105.47
234.213	160.77
234.43	125.95
234.648	62.46
234.865	46.08
235.083	154.62
235.3	111.61
235.518	125.95
235.735	148.48
235.953	95.23
236.17	-21.5
236.388	3.07
236.605	95.23
236.822	150.53
237.04	80.89
237.257	87.04
237.475	25.6
237.692	107.52
237.909	119.81
238.127	33.79
238.344	132.09
238.562	140.29
238.779	-39.94
238.996	-15.36
239.214	33.79
239.431	80.89
239.648	35.84
239.865	56.32
240.083	17.41
240.3	21.5
240.517	-21.5
240.735	37.89
240.952	257.02
241.169	105.47
241.386	130.05
241.603	11.26
241.821	-76.8
242.038	181.25
242.255	128
242.472	-21.5
242.689	29.7
242.907	68.61
243.124	44.03
243.341	13.31
243.558	23.55
243.775	-25.6
243.992	-50.18
244.209	162.81
244.426	189.44
244.643	148.48
244.86	48.13
245.078	181.25
245.295	99.33
245.512	21.5
245.729	-13.31
245.946	87.04
246.163	175.1
246.38	-23.55
246.597	95.23
246.814	64.51
247.031	95.23
247.248	3.07
247.464	173.05
247.681	74.75
247.898	72.7
248.115	138.24
248.332	44.03
248.549	156.67
248.766	87.04
248.983	80.89
249.2	68.61
249.417	130.05
249.633	99.33
249.85	84.99
250.067	37.89
250.284	78.85
250.501	140.29
250.717	58.37
250.934	15.36
251.151	-23.55
251.368	93.18
251.585	52.22
251.801	41.98
252.018	39.94
252.235	89.09
252.451	-70.65
252.668	74.75
252.885	181.25
253.102	162.81
253.318	58.37
253.535	56.32
253.752	-5.12
253.968	60.42
254.185	-80.89
254.401	60.42
254.618	11.26
254.835	-21.5
255.051	150.53
255.268	89.09
255.484	3.07
255.701	-9.22
255.917	117.76
256.134	17.41
256.351	74.75
256.567	-39.94
256.784	68.61
257	3.07
257.217	84.99
257.433	115.71
257.65	111.61
257.866	128
258.082	-52.22
258.299	13.31
258.515	-31.74
258.732	41.98
258.948	13.31
259.165	150.53
259.381	-19.46
259.597	52.22
259.814	50.18
260.03	37.89
260.246	5.12
260.463	123.9
260.679	130.05
260.895	97.28
261.112	119.81
261.328	60.42
261.544	58.37
261.761	158.72
261.977	-27.65
262.193	-17.41
262.409	62.46
262.626	17.41
262.842	78.85
263.058	15.36
263.274	35.84
263.49	54.27
263.707	64.51
263.923	103.42
264.139	3.07
264.355	91.13
264.571	117.76
264.787	187.39
265.004	183.29
265.22	87.04
265.436	-19.46
265.652	62.46
265.868	58.37
266.084	-46.08
266.3	99.33
266.516	-9.22
266.732	138.24
266.948	82.94
267.164	25.6
267.38	209.92
267.596	-11.26
267.812	140.29
268.028	95.23
268.244	23.55
268.46	31.74
268.676	19.46
268.892	82.94
269.108	17.41
269.324	5.12
269.54	7.17
269.756	119.81
269.972	62.46
270.188	37.89
270.403	-3.07
270.619	27.65
270.835	201.72
271.051	56.32
271.267	64.51
271.483	130.05
271.698	175.1
271.914	56.32
272.13	50.18
272.346	115.71
272.562	27.65
272.777	130.05
272.993	60.42
273.209	33.79
273.425	105.47
273.64	-3.07
273.856	37.89
274.072	54.27
274.287	19.46
274.503	117.76
274.719	201.72
274.934	-5.12
275.15	-23.55
275.366	48.13
275.581	87.04
275.797	21.5
276.012	136.19
276.228	-11.26
276.444	-25.6
276.659	150.53
276.875	-33.79
277.09	-1.02
277.306	37.89
277.521	183.29
277.737	95.23
277.952	80.89
278.168	-21.5
278.383	62.46
278.599	33.79
278.814	109.57
279.03	46.08
279.245	162.81
279.461	-1.02
279.676	70.65
279.892	84.99
280.107	-5.12
280.322	-5.12
280.538	99.33
280.753	19.46
280.969	72.7
281.184	56.32
281.399	203.77
281.615	48.13
281.83	136.19
282.045	-19.46
282.26	-50.18
282.476	72.7
282.691	134.14
282.906	62.46
283.122	111.61
283.337	-23.55
283.552	78.85
283.767	41.98
283.983	95.23
284.198	80.89
284.413	80.89
284.628	3.07
284.843	142.33
285.058	154.62
285.274	80.89
285.489	-15.36
285.704	144.38
285.919	3.07
286.134	105.47
286.349	41.98
286.564	58.37
286.779	117.76
286.995	60.42
287.21	-37.89
287.425	125.95
287.64	7.17
287.855	111.61
288.07	11.26
288.285	152.57
288.5	76.8
288.715	82.94
288.93	46.08
289.145	76.8
289.36	119.81
289.575	101.37
289.79	70.65
290.004	46.08
290.219	74.75
290.434	-31.74
290.649	66.56
290.864	23.55
291.079	3.07
291.294	41.98
291.509	99.33
291.724	1.02
291.938	68.61
292.153	87.04
292.368	132.09
292.583	82.94
292.798	142.33
293.012	109.57
293.227	119.81
293.442	68.61
293.657	97.28
293.871	91.13
294.086	-3.07
294.301	216.06
294.516	156.67
294.73	95.23
294.945	-5.12
295.16	72.7
295.374	160.77
295.589	105.47
295.804	-35.84
296.018	119.81
296.233	121.85
296.447	39.94
296.662	-41.98
296.877	214.01
297.091	150.53
297.306	23.55
297.52	99.33
297.735	115.71
297.949	95.23
298.164	35.84
298.378	205.82
298.593	-15.36
298.807	-29.7
299.022	19.46
299.236	175.1
299.451	56.32
299.665	9.22
299.88	66.56
300.094	62.46
300.309	74.75
300.523	56.32
300.737	44.03
300.952	140.29
301.166	142.33
301.381	-9.22
301.595	19.46
301.809	89.09
302.024	70.65
302.238	66.56
302.452	144.38
302.667	9.22
302.881	230.4
303.095	150.53
303.309	99.33
303.524	31.74
303.738	25.6
303.952	56.32
304.166	78.85
304.381	-54.27
304.595	226.3
304.809	-9.22
305.023	87.04
305.237	-56.32
305.452	76.8
305.666	113.66
305.88	189.44
306.094	93.18
306.308	50.18
306.522	103.42
306.736	91.13
306.95	134.14
307.164	46.08
307.379	3.07
307.593	171.01
307.807	132.09
308.021	115.71
308.235	84.99
308.449	-31.74
308.663	52.22
308.877	275.45
309.091	62.46
309.305	48.13
309.519	-125.95
309.733	203.77
309.947	-41.98
310.161	142.33
310.374	62.46
310.588	119.81
310.802	7.17
311.016	9.22
311.23	54.27
311.444	-13.31
311.658	76.8
311.872	101.37
312.085	142.33
312.299	125.95
312.513	166.91
312.727	60.42
312.941	21.5
313.154	66.56
313.368	97.28
313.582	46.08
313.796	78.85
314.009	29.7
314.223	115.71
314.437	39.94
314.651	78.85
314.864	-48.13
315.078	109.57
315.292	-25.6
315.505	70.65
315.719	52.22
315.933	84.99
316.146	-7.17
316.36	-17.41
316.573	162.81
316.787	177.15
317.001	123.9
317.214	33.79
317.428	64.51
317.641	17.41
317.855	89.09
318.068	5.12
318.282	95.23
318.495	115.71
318.709	111.61
318.922	82.94
319.136	160.77
319.349	175.1
319.563	70.65
319.776	95.23
319.99	-58.37
320.203	168.96
320.417	72.7
320.63	136.19
320.843	240.64
321.057	-11.26
321.27	35.84
321.483	107.52
321.697	158.72
321.91	64.51
322.124	52.22
322.337	50.18
322.55	7.17
322.763	54.27
322.977	97.28
323.19	15.36
323.403	66.56
323.617	123.9
323.83	11.26
324.043	93.18
324.256	27.65
324.469	-82.94
324.683	130.05
324.896	66.56
325.109	95.23
325.322	13.31
325.535	166.91
325.748	132.09
325.962	78.85
326.175	148.48
326.388	41.98
326.601	175.1
326.814	35.84
327.027	80.89
327.24	160.77
327.453	-19.46
327.666	80.89
327.879	187.39
328.092	111.61
328.305	37.89
328.518	13.31
328.731	66.56
328.944	-9.22
329.157	11.26
329.37	54.27
329.583	201.72
329.796	156.67
330.009	-25.6
330.222	76.8
330.435	158.72
330.648	5.12
330.861	117.76
331.073	56.32
331.286	177.15
331.499	138.24
331.712	60.42
331.925	70.65
332.138	56.32
332.35	105.47
332.563	25.6
332.776	136.19
332.989	-70.65
333.202	-58.37
333.414	78.85
333.627	-5.12
333.84	27.65
334.053	97.28
334.265	3.07
334.478	15.36
334.691	31.74
334.903	44.03
335.116	33.79
335.329	64.51
335.541	121.85
335.754	144.38
335.966	29.7
336.179	82.94
336.392	41.98
336.604	54.27
336.817	84.99
337.029	140.29
337.242	33.79
337.454	152.57
337.667	80.89
337.88	138.24
338.092	60.42
338.305	136.19
338.517	19.46
338.729	97.28
338.942	166.91
339.154	-1.02
339.367	15.36
339.579	56.32
339.792	-39.94
340.004	82.94
340.217	21.5
340.429	125.95
340.641	-11.26
340.854	91.13
341.066	9.22
341.278	144.38
341.491	228.35
341.703	27.65
341.915	5.12
342.128	134.14
342.34	130.05
342.552	5.12
342.764	-1.02
342.977	142.33
343.189	123.9
343.401	109.57
343.613	-31.74
343.826	87.04
344.038	-27.65
344.25	130.05
344.462	13.31
344.674	93.18
344.886	58.37
345.099	48.13
345.311	72.7
345.523	29.7
345.735	-44.03
345.947	62.46
346.159	39.94
346.371	29.7
346.583	50.18
346.795	236.54
347.007	15.36
347.219	105.47
347.431	31.74
347.643	101.37
347.855	74.75
348.067	123.9
348.279	-54.27
348.491	74.75
348.703	78.85
348.915	31.74
349.127	46.08
349.339	111.61
349.551	80.89
349.763	89.09
349.975	27.65
350.187	109.57
350.399	181.25
350.61	128
350.822	11.26
351.034	89.09
351.246	21.5
351.458	56.32
351.669	58.37
351.881	80.89
352.093	191.49
352.305	72.7
352.517	50.18
352.728	162.81
352.94	156.67
353.152	121.85
353.363	-33.79
353.575	82.94
353.787	144.38
353.999	156.67
354.21	265.21
354.422	-31.74
354.633	60.42
354.845	-1.02
355.057	37.89
355.268	50.18
355.48	138.24
355.692	-31.74
355.903	109.57
356.115	72.7
356.326	-56.32
356.538	160.77
356.749	97.28
356.961	105.47
357.172	91.13
357.384	33.79
357.595	244.73
357.807	1.02
358.018	66.56
358.23	3.07
358.441	197.63
358.653	62.46
358.864	39.94
359.075	-25.6
359.287	78.85
359.498	205.82
359.709	105.47
359.921	72.7
360.132	134.14
360.344	29.7
360.555	66.56
360.766	1.02
360.977	-5.12
361.189	56.32
361.4	58.37
361.611	181.25
361.823	146.43
362.034	64.51
362.245	19.46
362.456	35.84
362.667	33.79
362.879	-21.5
363.09	109.57
363.301	27.65
363.512	50.18
363.723	33.79
363.935	54.27
364.146	146.43
364.357	11.26
364.568	103.42
364.779	17.41
364.99	191.49
365.201	123.9
365.412	109.57
365.623	-13.31
365.834	76.8
366.045	107.52
366.256	91.13
366.467	87.04
366.678	58.37
366.889	156.67
367.1	109.57
367.311	136.19
367.522	-44.03
367.733	109.57
367.944	29.7
368.155	66.56
368.366	72.7
368.577	189.44
368.788	195.58
368.999	91.13
369.209	72.7
369.42	203.77
369.631	240.64
369.842	50.18
370.053	27.65
370.264	74.75
370.474	1.02
370.685	95.23
370.896	-33.79
371.107	132.09
371.317	74.75
371.528	13.31
371.739	113.66
371.95	93.18
372.16	80.89
372.371	56.32
372.582	15.36
372.792	154.62
373.003	138.24
373.214	31.74
373.424	56.32
373.635	-7.17
373.846	168.96
374.056	97.28
374.267	95.23
374.477	17.41
374.688	5.12
374.898	125.95
375.109	5.12
375.319	99.33
375.53	148.48
375.74	115.71
375.951	66.56
376.161	134.14
376.372	72.7
376.582	-11.26
376.793	132.09
377.003	21.5
377.214	19.46
377.424	62.46
377.635	41.98
377.845	17.41
378.055	173.05
378.266	-23.55
378.476	-31.74
378.686	117.76
378.897	44.03
379.107	189.44
379.317	123.9
379.528	93.18
379.738	95.23
379.948	-27.65
380.158	173.05
380.369	62.46
380.579	150.53
380.789	41.98
380.999	29.7
381.21	68.61
381.42	259.07
381.63	109.57
381.84	119.81
382.05	99.33
382.261	140.29
382.471	160.77
382.681	37.89
382.891	179.2
383.101	66.56
383.311	29.7
383.521	-68.61
383.731	146.43
383.941	166.91
384.151	136.19
384.361	-35.84
384.571	37.89
384.781	109.57
384.991	201.72
385.201	261.12
385.411	146.43
385.621	1.02
385.831	17.41
386.041	58.37
386.251	97.28
386.461	156.67
386.671	19.46
386.881	15.36
387.091	33.79
387.301	103.42
387.511	82.94
387.72	101.37
387.93	136.19
388.14	-15.36
388.35	166.91
388.56	128
388.769	185.34
388.979	107.52
389.189	62.46
389.399	35.84
389.609	107.52
389.818	207.87
390.028	64.51
390.238	29.7
390.447	37.89
390.657	87.04
390.867	7.17
391.076	-31.74
391.286	87.04
391.496	9.22
391.705	54.27
391.915	160.77
392.125	158.72
392.334	48.13
392.544	240.64
392.753	89.09
392.963	21.5
393.172	-1.02
393.382	62.46
393.591	144.38
393.801	44.03
394.01	87.04
394.22	109.57
394.429	25.6
394.639	21.5
394.848	84.99
395.058	41.98
395.267	39.94
395.477	105.47
395.686	80.89
395.895	214.01
396.105	148.48
396.314	123.9
396.524	-15.36
396.733	25.6
396.942	101.37
397.152	99.33
397.361	93.18
397.57	117.76
397.78	91.13
397.989	158.72
398.198	222.2
398.407	76.8
398.617	25.6
398.826	103.42
399.035	9.22
399.244	123.9
399.453	105.47
399.663	68.61
399.872	107.52
400.081	15.36
400.29	195.58
400.499	37.89
400.708	136.19
400.917	35.84
401.127	33.79
401.336	66.56
401.545	205.82
401.754	150.53
401.963	144.38
402.172	37.89
402.381	-41.98
402.59	74.75
402.799	97.28
403.008	138.24
403.217	84.99
403.426	144.38
403.635	35.84
403.844	64.51
404.053	39.94
404.262	48.13
404.471	148.48
404.68	44.03
404.888	33.79
405.097	105.47
405.306	56.32
405.515	105.47
405.724	95.23
405.933	132.09
406.142	64.51
406.35	84.99
406.559	44.03
406.768	54.27
406.977	171.01
407.185	29.7
407.394	140.29
407.603	41.98
407.812	29.7
408.02	142.33
408.229	123.9
408.438	58.37
408.646	-46.08
408.855	72.7
409.064	54.27
409.272	91.13
409.481	148.48
409.69	-11.26
409.898	-11.26
410.107	111.61
410.315	185.34
410.524	3.07
410.733	31.74
410.941	50.18
411.15	189.44
411.358	97.28
411.567	150.53
411.775	33.79
411.984	93.18
412.192	183.29
412.401	66.56
412.609	128
412.818	117.76
413.026	119.81
413.234	48.13
413.443	99.33
413.651	46.08
413.86	95.23
414.068	205.82
414.276	171.01
414.485	56.32
414.693	205.82
414.901	203.77
415.11	78.85
415.318	130.05
415.526	74.75
415.734	103.42
415.943	115.71
416.151	228.35
416.359	125.95
416.567	125.95
416.776	154.62
416.984	234.49
417.192	138.24
417.4	-25.6
417.608	-33.79
417.817	66.56
418.025	62.46
418.233	293.88
418.441	29.7
418.649	25.6
418.857	68.61
419.065	156.67
419.273	13.31
419.481	115.71
419.689	15.36
419.897	117.76
420.105	-23.55
420.313	66.56
420.521	154.62
420.729	115.71
420.937	27.65
421.145	25.6
421.353	91.13
421.561	222.2
421.769	101.37
421.977	-19.46
422.185	156.67
422.393	107.52
422.601	87.04
422.809	136.19
423.017	74.75
423.224	113.66
423.432	156.67
423.64	84.99
423.848	177.15
424.056	93.18
424.263	89.09
424.471	37.89
424.679	156.67
424.887	-1.02
425.094	113.66
425.302	105.47
425.51	44.03
425.718	183.29
425.925	138.24
426.133	70.65
426.341	197.63
426.548	101.37
426.756	76.8
426.964	230.4
427.171	115.71
427.379	123.9
427.586	132.09
427.794	144.38
428.001	152.57
428.209	191.49
428.417	236.54
428.624	150.53
428.832	109.57
429.039	175.1
429.247	177.15
429.454	87.04
429.662	248.83
429.869	136.19
430.076	156.67
430.284	187.39
430.491	201.72
430.699	142.33
430.906	242.68
431.114	179.2
431.321	259.07
431.528	113.66
431.736	156.67
431.943	103.42
432.15	205.82
432.358	289.79
432.565	316.41
432.772	11.26
432.979	246.78
433.187	207.87
433.394	367.61
433.601	146.43
433.808	232.44
434.016	345.08
434.223	193.53
434.43	267.26
434.637	259.07
434.844	361.47
435.052	287.74
435.259	293.88
435.466	281.6
435.673	297.98
435.88	326.65
436.087	250.88
436.294	379.9
436.501	404.47
436.708	250.88
436.915	418.81
437.122	418.81
437.329	318.46
437.537	390.14
437.743	386.04
437.95	394.23
438.157	437.24
438.364	367.61
438.571	461.82
438.778	525.3
438.985	537.59
439.192	539.64
439.399	467.96
439.606	556.02
439.813	576.5
440.02	658.42
440.227	771.06
440.433	574.46
440.64	625.65
440.847	539.64
441.054	672.76
441.261	836.6
441.467	644.09
441.674	594.93
441.881	852.98
442.088	691.19
442.294	848.88
442.501	824.31
442.708	902.13
442.914	924.66
443.121	984.05
443.328	957.43
443.534	1010.67
443.741	924.66
443.948	875.51
444.154	1002.48
444.361	1270.76
444.568	1139.69
444.774	1188.85
444.981	1141.74
445.187	1151.98
445.394	1293.29
445.6	1371.12
445.807	1528.81
446.013	1410.03
446.22	1426.41
446.426	1498.09
446.633	1668.07
446.839	1913.83
447.046	1541.1
447.252	1795.04
447.459	1721.32
447.665	1793
447.871	2032.61
448.078	2173.92
448.284	2036.7
448.491	2309.08
448.697	2268.13
448.903	2364.38
449.11	2620.38
449.316	2366.43
449.522	2597.85
449.728	2651.1
449.935	2905.04
450.141	2851.8
450.347	3220.43
450.553	2880.47
450.76	2954.19
450.966	3322.83
451.172	3367.88
451.378	3470.28
451.584	3445.71
451.791	3752.9
451.997	3871.68
452.203	3933.12
452.409	4029.38
452.615	4414.4
452.821	4195.26
453.027	4250.56
453.233	4899.77
453.44	4631.48
453.646	5034.93
453.852	5084.08
454.058	5475.24
454.264	5536.68
454.47	5882.79
454.676	5811.11
454.882	6237.09
455.088	6038.44
455.294	6519.71
455.5	6804.38
455.705	7162.77
455.911	7308.18
456.117	7463.82
456.323	7730.06
456.529	7656.33
456.735	8541.05
456.941	8706.94
457.147	8917.88
457.352	9143.16
457.558	9575.28
457.764	10064.74
457.97	10392.42
458.176	10904.41
458.381	11676.49
458.587	11336.53
458.793	12002.12
458.999	12268.36
459.204	13523.76
459.41	14080.81
459.616	14037.8
459.821	14916.38
460.027	15545.11
460.233	16020.24
460.438	16014.09
460.644	17093.37
460.85	17113.85
461.055	17869.55
461.261	18793.19
461.466	18498.28
461.672	18741.99
461.878	21060.29
462.083	20720.32
462.289	21033.66
462.494	22067.89
462.7	22260.4
462.905	22385.32
463.111	24375.95
463.316	25557.63
463.522	25956.98
463.727	26696.3
463.932	27841.11
464.138	29024.84
464.343	30267.95
464.549	29882.94
464.754	32242.2
464.959	33311.24
465.165	33329.67
465.37	33880.57
465.575	33563.14
465.781	35918.3
465.986	36923.85
466.191	36348.37
466.397	36227.54
466.602	35510.75
466.807	37530.05
467.012	38488.5
467.218	38629.81
467.423	38906.29
467.628	39989.66
467.833	42045.82
468.038	41316.75
468.244	40532.37
468.449	42938.74
468.654	41986.43
468.859	41795.97
469.064	41570.69
469.269	40780.18
469.474	40968.59
469.679	42453.37
469.885	41091.47
470.09	41910.66
470.295	41757.06
470.5	40909.2
470.705	41097.61
470.91	40128.92
471.115	39324.07
471.32	40434.07
471.525	39991.71
471.73	38871.47
471.935	38463.93
472.139	37081.55
472.344	37233.1
472.549	37085.64
472.754	36252.12
472.959	35584.48
473.164	34226.68
473.369	33755.64
473.574	34499.06
473.778	34181.62
473.983	33552.9
474.188	32602.64
474.393	31402.53
474.598	31318.56
474.802	30480.94
475.007	30110.26
475.212	29811.26
475.417	28564.04
475.621	28301.9
475.826	28187.22
476.031	27548.25
476.235	27423.33
476.44	26897
476.645	26169.97
476.849	25967.22
477.054	25610.87
477.259	24724.1
477.463	24756.87
477.668	24033.94
477.872	24306.32
478.077	23587.48
478.282	22612.65
478.486	22745.76
478.691	22477.48
478.895	22287.02
479.1	22149.81
479.304	22229.68
479.509	21359.29
479.713	21834.42
479.918	21424.83
480.122	20660.93
480.326	20576.97
480.531	20853.44
480.735	20327.11
480.94	20142.8
481.144	20740.8
481.348	19856.08
481.553	19884.75
481.757	19301.08
481.961	19804.88
482.166	19704.53
482.37	19434.2
482.574	19018.46
482.778	18977.5
482.983	19337.94
483.187	18770.66
483.391	18514.66
483.595	18473.7
483.8	18023.15
484.004	18143.98
484.208	18248.43
484.412	17861.36
484.616	17767.15
484.821	17378.04
485.025	17107.71
485.229	17060.6
485.433	16845.57
485.637	16757.5
485.841	16364.29
486.045	16171.79
486.249	16229.13
486.453	15704.85
486.657	15743.76
486.861	15360.79
487.065	14947.1
487.269	15010.59
487.473	14340.9
487.677	14594.85
487.881	14371.62
488.085	13945.64
488.289	14017.32
488.493	13460.27
488.697	13568.82
488.901	13124.41
489.105	12862.27
489.309	12585.79
489.512	12350.28
489.716	12223.3
489.92	12075.85
490.124	11696.97
490.328	11963.21
490.531	11326.29
490.735	11381.59
490.939	11033.43
491.143	10658.65
491.346	10668.89
491.55	10623.84
491.754	10150.76
491.958	10283.88
492.161	9902.95
492.365	9921.38
492.569	9610.09
492.772	9407.34
492.976	9509.74
493.18	9210.74
493.383	9317.23
493.587	9055.09
493.79	9186.16
493.994	8725.37
494.197	8993.65
494.401	8643.45
494.605	8653.69
494.808	8708.99
495.012	8551.29
495.215	8518.53
495.419	8405.89
495.622	8424.32
495.825	8264.58
496.029	8229.76
496.232	8260.48
496.436	8119.17
496.639	8426.37
496.843	8098.69
497.046	8084.36
497.249	8340.35
497.453	8248.19
497.656	8094.6
497.859	8156.04
498.063	8352.64
498.266	8459.13
498.469	8227.71
498.673	8246.15
498.876	8362.88
499.079	8442.75
499.282	8227.71
499.485	8700.8
499.689	8483.71
499.892	8821.63
500.095	8348.54
500.298	8657.79
500.501	8590.2
500.705	8663.93
500.908	8887.16
501.111	8975.22
501.314	8950.65
501.517	9184.12
501.72	9053.05
501.923	9071.48
502.126	9300.85
502.329	9524.08
502.532	9585.52
502.735	9806.7
502.938	9939.82
503.141	9741.16
503.344	9886.57
503.547	10181.48
503.75	10361.7
503.953	10251.11
504.156	10552.16
504.359	10869.59
504.562	10750.81
504.765	11006.81
504.968	11199.32
505.17	11279.19
505.373	11584.34
505.576	11615.05
505.779	11930.44
505.982	11594.58
506.185	12292.93
506.387	12161.86
506.59	12694.33
506.793	12927.8
506.996	12983.1
507.198	13597.49
507.401	13681.46
507.604	14095.14
507.807	14220.07
508.009	14605.09
508.212	14621.47
508.415	15135.51
508.617	15250.2
508.82	15627.03
509.022	15741.71
509.225	16298.76
509.428	16704.26
509.63	16837.38
509.833	17085.18
510.035	17808.11
510.238	17971.95
510.44	18354.92
510.643	18877.15
510.845	19229.4
511.048	19393.24
511.25	19923.66
511.453	20257.48
511.655	21344.95
511.858	21125.82
512.06	22192.81
512.262	22276.78
512.465	22850.21
512.667	23085.73
512.87	23829.14
513.072	24199.82
513.274	25033.35
513.477	25727.61
513.679	26131.06
513.881	26706.54
514.084	27490.91
514.286	27910.74
514.488	28215.89
514.69	29352.51
514.893	29663.8
515.095	30245.43
515.297	30827.05
515.499	31463.97
515.701	32147.99
515.904	32616.97
516.106	33444.35
516.308	33923.58
516.51	34931.18
516.712	35305.96
516.914	35994.07
517.116	37181.9
517.318	37231.05
517.52	37972.41
517.722	38894
517.925	39477.67
518.127	40161.69
518.329	40776.08
518.531	40896.91
518.733	42576.25
518.935	42668.4
519.136	43307.37
519.338	43864.42
519.54	44521.82
519.742	45189.45
519.944	45830.47
520.146	46594.36
520.348	47221.04
520.55	47782.18
520.752	48113.95
520.954	48898.33
521.155	49031.44
521.357	50407.68
521.559	50661.63
521.761	51964.14
521.963	51130.61
522.164	52302.05
522.366	52779.23
522.568	53098.71
522.77	53086.42
522.971	54053.06
523.173	53692.62
523.375	54675.65
523.576	54042.82
523.778	54583.49
523.98	55161.01
524.181	55290.04
524.383	54999.22
524.584	55797.93
524.786	56053.93
524.988	55238.84
525.189	56260.77
525.391	56043.69
525.592	56125.61
525.794	56350.88
525.995	56049.83
526.197	55238.84
526.398	56141.99
526.6	55662.77
526.801	55539.89
527.003	55718.06
527.204	55060.66
527.406	55627.95
527.607	55027.9
527.808	55218.36
528.01	53936.33
528.211	54259.91
528.412	54419.65
528.614	53835.98
528.815	53276.88
529.016	53459.15
529.218	52357.35
529.419	52441.31
529.62	51417.33
529.822	51214.58
530.023	50731.26
530.224	50237.7
530.425	49588.49
530.626	48797.98
530.828	48791.83
531.029	48976.15
531.23	48050.47
531.431	47384.88
531.632	47298.86
531.833	46655.8
532.035	45668.68
532.236	45285.71
532.437	45025.62
532.638	43759.97
532.839	43690.34
533.04	43503.98
533.241	42146.17
533.442	42338.68
533.643	41458.06
533.844	40896.91
534.045	40311.19
534.246	39684.51
534.447	39455.14
534.648	38941.1
534.849	38447.54
535.05	37456.32
535.251	37648.83
535.451	36825.55
535.652	36383.19
535.853	35502.56
536.054	35441.12
536.255	34951.66
536.456	34003.45
536.657	34210.29
536.857	33284.61
537.058	33051.14
537.259	33100.29
537.46	32225.81
537.66	31836.7
537.861	31375.91
538.062	30908.97
538.263	30313.01
538.463	30114.36
538.664	29766.2
538.865	29260.35
539.065	29254.21
539.266	28756.55
539.466	28537.42
539.667	27978.33
539.868	28142.16
540.068	27372.13
540.269	27038.31
540.469	26774.12
540.67	26350.19
540.87	26172.02
541.071	25528.95
541.271	25348.73
541.472	25401.98
541.672	24857.22
541.873	24289.93
542.073	24152.72
542.274	24095.38
542.474	23741.08
542.675	23517.85
542.875	23337.63
543.075	22954.66
543.276	22391.47
543.476	22848.16
543.676	22260.4
543.877	22049.46
544.077	21885.62
544.277	21693.11
544.478	21230.27
544.678	21205.69
544.878	20613.83
545.078	20558.53
545.279	20255.43
545.479	19989.2
545.679	20003.53
545.879	19778.26
546.079	19454.68
546.28	18981.6
546.48	18899.68
546.68	18897.63
546.88	18592.48
547.08	18066.16
547.28	18074.35
547.48	17779.44
547.68	17617.65
547.88	17320.7
548.081	17478.39
548.281	16993.02
548.481	16714.5
548.681	16745.22
548.881	16370.44
549.081	16321.29
549.28	15663.89
549.48	15917.84
549.68	15571.73
549.88	15340.31
550.08	15203.1
550.28	14734.11
550.48	14801.69
550.68	14582.56
550.88	14220.07
551.08	14140.2
551.279	13933.36
551.479	13654.83
551.679	13587.25
551.879	13210.42
552.079	13163.32
552.278	12878.65
552.478	12618.56
552.678	12725.05
552.878	12622.66
553.077	12305.22
553.277	11963.21
553.477	12006.22
553.676	11848.52
553.876	11381.59
554.076	11506.51
554.275	11086.68
554.475	10900.31
554.674	10939.23
554.874	10591.07
555.074	10349.41
555.273	10312.55
555.473	10089.32
555.672	9999.21
555.872	9952.1
556.071	9884.52
556.271	9618.29
556.47	9157.49
556.67	9036.66
556.869	9249.65
557.068	8860.54
557.268	8684.41
557.467	8516.48
557.667	8442.75
557.866	8342.4
558.065	8307.59
558.265	7885.7
558.464	7893.9
558.663	7760.78
558.863	7773.07
559.062	7664.52
559.261	7406.48
559.461	7539.6
559.66	7189.39
559.859	7236.5
560.058	6955.93
560.258	6679.45
560.457	6892.44
560.656	6714.27
560.855	6562.72
561.054	6671.26
561.253	6359.97
561.453	6398.88
561.652	6271.9
561.851	6288.29
562.05	5999.52
562.249	5753.77
562.448	5929.89
562.647	5682.09
562.846	5761.96
563.045	5577.64
563.244	5471.15
563.443	5413.81
563.642	5309.36
563.841	5284.78
564.04	5194.67
564.239	5176.24
564.438	5012.4
564.637	4842.42
564.836	5000.12
565.035	4875.19
565.234	4838.33
565.432	4633.53
565.631	4680.63
565.83	4643.77
566.029	4359.1
566.228	4318.14
566.427	4332.48
566.625	4162.5
566.824	4150.21
567.023	4295.61
567.222	4027.33
567.42	4113.35
567.619	4092.87
567.818	3967.94
568.016	4015.04
568.215	3869.64
568.414	3861.45
568.612	3832.77
568.811	3687.37
569.01	3718.09
569.208	3582.92
569.407	3666.89
569.605	3374.03
569.804	3435.47
570.002	3386.32
570.201	3267.53
570.4	3398.6
570.598	3195.86
570.797	3253.2
570.995	3224.53
571.193	3081.17
571.392	3105.74
571.59	2972.63
571.789	3222.48
571.987	3036.11
572.186	2943.96
572.384	2896.85
572.582	2843.6
572.781	2812.89
572.979	2620.38
573.177	2767.83
573.376	2679.77
573.574	2761.69
573.772	2681.82
573.971	2528.22
574.169	2292.7
574.367	2554.84
574.565	2499.55
574.763	2360.28
574.962	2348
575.16	2335.71
575.358	2237.41
575.556	2182.11
575.754	2192.35
575.952	2253.79
576.151	2225.12
576.349	2276.32
576.547	1999.84
576.745	2094.05
576.943	2135.01
577.141	1956.83
577.339	1926.11
577.537	2024.42
577.735	1944.55
577.933	1997.79
578.131	1745.89
578.329	1924.07
578.527	1729.51
578.725	1743.85
578.923	1715.17
579.121	1741.8
579.319	1598.44
579.516	1580.01
579.714	1864.68
579.912	1696.74
580.11	1555.43
580.308	1590.25
580.506	1551.34
580.704	1430.51
580.901	1479.66
581.099	1684.45
581.297	1383.4
581.495	1537
581.692	1405.93
581.89	1426.41
582.088	1373.16
582.285	1260.52
582.483	1373.16
582.681	1268.72
582.878	1215.47
583.076	1305.58
583.274	1356.78
583.471	1412.07
583.669	1256.43
583.866	1129.45
584.064	1227.76
584.262	1197.04
584.459	1096.69
584.657	1158.13
584.854	1188.85
585.052	1084.4
585.249	1133.55
585.447	1170.41
585.644	967.67
585.841	1172.46
586.039	1127.41
586.236	1053.68
586.434	922.61
586.631	986.1
586.828	979.95
587.026	1033.2
587.223	824.31
587.42	859.12
587.618	963.57
587.815	1082.35
588.012	979.95
588.21	867.31
588.407	979.95
588.604	867.31
588.801	918.51
588.999	834.55
589.196	963.57
589.393	900.08
589.59	904.18
589.787	795.64
589.984	850.93
590.182	850.93
590.379	674.81
590.576	891.89
590.773	785.4
590.97	754.68
591.167	953.33
591.364	807.92
591.561	791.54
591.758	898.03
591.955	842.74
592.152	785.4
592.349	805.88
592.546	744.44
592.743	799.73
592.94	830.45
593.137	764.92
593.334	805.88
593.531	910.32
593.727	814.07
593.924	803.83
594.121	834.55
594.318	723.96
594.515	726
594.712	951.28
594.908	875.51
595.105	664.57
595.302	863.22
595.499	809.97
595.696	1057.78
595.892	719.86
596.089	967.67
596.286	863.22
596.482	986.1
596.679	1008.62
596.876	938.99
597.072	1084.4
597.269	998.38
597.466	1125.36
597.662	1123.31
597.859	1006.58
598.055	1172.46
598.252	1252.33
598.448	1248.24
598.645	1252.33
598.841	1317.87
599.038	1446.89
599.234	1551.34
599.431	1586.15
599.627	1541.1
599.824	1586.15
600.02	1577.96
600.217	1563.62
600.413	1745.89
600.609	1790.95
600.806	2067.42
601.002	1874.92
601.198	1870.82
601.395	2157.54
601.591	2165.73
601.787	2153.44
601.984	2370.52
602.18	2468.83
602.376	2423.77
602.572	2501.59
602.769	2696.15
602.965	2839.51
603.161	2911.19
603.357	2968.53
603.553	3077.07
603.75	3105.74
603.946	3113.94
604.142	3433.42
604.338	3513.29
604.534	3562.44
604.73	3697.61
604.926	3693.51
605.122	3933.12
605.318	3916.74
605.514	4133.82
605.71	4359.1
605.906	4398.01
606.102	4481.98
606.298	4651.96
606.494	4819.89
606.69	4969.4
606.886	5143.47
607.082	5260.21
607.278	5311.41
607.474	5546.92
607.67	5555.12
607.866	5544.88
608.062	6024.1
608.257	6226.85
608.453	6327.2
608.649	6611.87
608.845	6534.04
609.041	6800.28
609.236	6998.93
609.432	7113.62
609.628	7181.2
609.824	7500.69
610.019	7697.29
610.215	7900.04
610.411	8444.8
610.606	8387.46
610.802	8588.16
610.998	8725.37
611.193	9032.57
611.389	9116.53
611.584	9802.6
611.78	9708.4
611.976	10077.03
612.171	10382.18
612.367	10576.73
612.562	10838.87
612.758	10984.28
612.953	11152.21
613.149	11787.08
613.344	12149.57
613.539	12454.72
613.735	12636.99
613.93	12903.23
614.126	13247.29
614.321	13609.78
614.517	14261.03
614.712	14326.57
614.907	14828.32
615.103	15131.42
615.298	15393.56
615.493	15868.69
615.688	16196.36
615.884	16896.77
616.079	17111.8
616.274	17654.51
616.47	17836.78
616.665	18545.38
616.86	18754.27
617.055	18963.17
617.25	19772.11
617.445	20636.36
617.641	20306.63
617.836	21330.62
618.031	21570.23
618.226	22526.63
618.421	22661.8
618.616	23521.95
618.811	23419.55
619.006	24642.18
619.201	24773.25
619.396	25711.22
619.591	25375.36
619.786	26810.98
619.981	26757.74
620.176	27832.92
620.371	27896.41
620.566	28934.73
620.761	29387.33
620.956	30038.58
621.151	30313.01
621.346	31289.89
621.541	31201.83
621.735	32502.29
621.93	32246.29
622.125	33135.11
622.32	33528.32
622.515	34499.06
622.709	35117.54
622.904	35592.67
623.099	36514.26
623.294	37114.31
623.488	37485
623.683	38123.96
623.878	38277.56
624.072	39668.13
624.267	40096.16
624.462	40698.26
624.656	40731.03
624.851	41574.79
625.046	41816.45
625.24	42643.83
625.435	42887.54
625.629	43759.97
625.824	44290.4
626.018	44874.07
626.213	44394.84
626.407	45832.52
626.602	45676.87
626.796	46690.62
626.991	47061.3
627.185	46905.65
627.38	47323.44
627.574	47841.57
627.768	47640.87
627.963	48052.51
628.157	48245.02
628.352	48443.68
628.546	47792.42
628.74	48576.79
628.935	47771.94
629.129	48161.06
629.323	46891.32
629.517	47227.18
629.712	47149.36
629.906	46332.22
630.1	45685.06
630.294	45549.9
630.489	45033.81
630.683	44882.26
630.877	43579.75
631.071	42529.14
631.265	42858.87
631.459	41277.83
631.653	39975.33
631.848	39446.95
632.042	38443.45
632.236	37872.06
632.43	36305.37
632.624	35725.79
632.818	34095.61
633.012	32907.79
633.206	32076.31
633.4	31541.79
633.594	29770.3
633.788	29231.68
633.982	28416.59
634.176	26956.39
634.369	26067.57
634.563	25059.97
634.757	24058.51
634.951	23245.47
635.145	22248.11
635.339	21418.68
635.533	20574.92
635.726	19811.03
635.92	18518.76
636.114	18516.71
636.308	17257.21
636.501	16618.24
636.695	16218.89
636.889	15287.06
637.083	14598.95
637.276	13988.65
637.47	13304.63
637.664	12964.67
637.857	12657.47
638.051	12063.56
638.244	11375.44
638.438	10896.22
638.632	10629.98
638.825	10060.65
639.019	9601.9
639.212	9372.53
639.406	9032.57
639.599	8672.12
639.793	8172.42
639.986	7967.62
640.18	7662.48
640.373	7289.74
640.567	7052.18
640.76	6851.48
640.954	6534.04
641.147	6097.83
641.34	6091.68
641.534	5936.04
641.727	5770.15
641.92	5514.16
642.114	5221.3
642.307	5014.45
642.5	4836.28
642.694	4461.5
642.887	4479.93
643.08	4510.65
643.273	4260.8
643.467	3963.84
643.66	3627.98
643.853	3738.57
644.046	3574.73
644.239	3425.23
644.432	3189.71
644.626	3032.02
644.819	3070.93
645.012	2855.89
645.205	2907.09
645.398	2827.22
645.591	2526.17
645.784	2358.24
645.977	2272.22
646.17	2311.13
646.363	2294.75
646.556	1991.65
646.749	1932.26
646.942	1999.84
647.135	1881.06
647.328	1747.94
647.521	1749.99
647.714	1696.74
647.907	1625.06
648.099	1479.66
648.292	1586.15
648.485	1491.95
648.678	1395.69
648.871	1242.09
649.064	1326.06
649.256	1268.72
649.449	1160.17
649.642	1053.68
649.835	1133.55
650.027	1022.96
650.22	1149.93
650.413	996.34
650.605	1031.15
650.798	926.71
650.991	992.24
651.183	912.37
651.376	922.61
651.568	906.23
651.761	812.02
651.954	869.36
652.146	756.72
652.339	754.68
652.531	717.81
652.724	623.61
652.916	666.61
653.109	556.02
653.301	697.33
653.494	594.93
653.686	492.54
653.879	699.38
654.071	625.65
654.263	576.5
654.456	578.55
654.648	562.17
654.84	613.37
655.033	463.86
655.225	592.89
655.417	332.79
655.61	582.65
655.802	531.45
655.994	549.88
656.186	361.47
656.379	467.96
656.571	377.85
656.763	326.65
656.955	457.72
657.148	367.61
657.34	431.1
657.532	367.61
657.724	412.67
657.916	449.53
658.108	443.39
658.3	373.75
658.492	379.9
658.684	205.82
658.876	429.05
659.068	236.54
659.26	195.58
659.452	171.01
659.644	246.78
659.836	314.36
660.028	312.32
660.22	283.64
660.412	279.55
660.604	203.77
660.796	238.59
660.988	259.07
661.18	246.78
661.372	349.18
661.563	197.63
661.755	322.56
661.947	203.77
662.139	238.59
662.331	242.68
662.522	197.63
662.714	181.25
662.906	191.49
663.097	265.21
663.289	132.09
663.481	99.33
663.673	248.83
663.864	205.82
664.056	248.83
664.247	87.04
664.439	220.16
664.631	158.72
664.822	291.84
665.014	187.39
665.205	84.99
665.397	132.09
665.588	205.82
665.78	261.12
665.971	257.02
666.163	156.67
666.354	205.82
666.546	148.48
666.737	138.24
666.929	156.67
667.12	148.48
667.311	220.16
667.503	134.14
667.694	191.49
667.885	154.62
668.077	248.83
668.268	56.32
668.459	164.86
668.651	164.86
668.842	234.49
669.033	54.27
669.224	37.89
669.416	359.42
669.607	134.14
669.798	48.13
669.989	283.64
670.18	199.68
670.371	185.34
670.563	82.94
670.754	203.77
670.945	226.3
671.136	220.16
671.327	72.7
671.518	218.11
671.709	263.16
671.9	211.96
672.091	232.44
672.282	171.01
672.473	146.43
672.664	80.89
672.855	158.72
673.046	97.28
673.237	130.05
673.428	93.18
673.619	234.49
673.809	121.85
674	281.6
674.191	297.98
674.382	113.66
674.573	136.19
674.764	132.09
674.954	199.68
675.145	54.27
675.336	44.03
675.527	201.72
675.717	44.03
675.908	134.14
676.099	101.37
676.289	183.29
676.48	23.55
676.671	224.25
676.861	119.81
677.052	123.9
677.243	109.57
677.433	74.75
677.624	144.38
677.814	181.25
678.005	87.04
678.195	269.31
678.386	80.89
678.576	175.1
678.767	-7.17
678.957	123.9
679.148	193.53
679.338	191.49
679.529	199.68
679.719	117.76
679.909	240.64
680.1	267.26
680.29	218.11
680.481	70.65
680.671	132.09
680.861	214.01
681.052	211.96
681.242	168.96
681.432	166.91
681.622	123.9
681.813	58.37
682.003	162.81
682.193	62.46
682.383	146.43
682.573	181.25
682.764	166.91
682.954	205.82
683.144	289.79
683.334	132.09
683.524	168.96
683.714	238.59
683.904	191.49
684.094	117.76
684.284	179.2
684.474	349.18
684.664	140.29
684.854	254.97
685.044	162.81
685.234	148.48
685.424	168.96
685.614	84.99
685.804	287.74
685.994	148.48
686.184	189.44
686.374	214.01
686.564	119.81
686.753	148.48
686.943	146.43
687.133	195.58
687.323	29.7
687.513	214.01
687.702	164.86
687.892	171.01
688.082	273.4
688.272	240.64
688.461	199.68
688.651	304.12
688.841	240.64
689.03	132.09
689.22	136.19
689.41	214.01
689.599	220.16
689.789	179.2
689.979	300.03
690.168	211.96
690.358	220.16
690.547	214.01
690.737	175.1
690.926	171.01
691.116	222.2
691.305	263.16
691.495	222.2
691.684	78.85
691.874	168.96
692.063	265.21
692.252	128
692.442	205.82
692.631	173.05
692.82	115.71
693.01	238.59
693.199	146.43
693.388	158.72
693.578	240.64
693.767	226.3
693.956	175.1
694.146	130.05
694.335	201.72
694.524	175.1
694.713	254.97
694.902	164.86
695.092	211.96
695.281	230.4
695.47	109.57
695.659	123.9
695.848	201.72
696.037	158.72
696.226	273.4
696.415	185.34
696.604	295.93
696.793	228.35
696.982	99.33
697.171	302.08
697.36	97.28
697.549	142.33
697.738	15.36
697.927	138.24
698.116	152.57
698.305	181.25
698.494	218.11
698.683	60.42
698.872	289.79
699.061	160.77
699.25	91.13
699.438	156.67
699.627	134.14
699.816	332.79
700.005	72.7
700.193	138.24
700.382	187.39
700.571	238.59
700.76	177.15
700.948	216.06
701.137	279.55
701.326	238.59
701.514	74.75
701.703	259.07
701.892	199.68
702.08	340.99
702.269	216.06
702.457	109.57
702.646	152.57
702.834	154.62
703.023	246.78
703.212	222.2
703.4	240.64
703.589	113.66
703.777	93.18
703.965	82.94
704.154	62.46
704.342	41.98
704.531	197.63
704.719	265.21
704.907	230.4
705.096	99.33
705.284	44.03
705.472	154.62
705.661	216.06
705.849	275.45
706.037	185.34
706.226	242.68
706.414	216.06
706.602	105.47
706.79	273.4
706.979	93.18
707.167	201.72
707.355	-1.02
707.543	128
707.731	236.54
707.919	74.75
708.107	222.2
708.296	125.95
708.484	119.81
708.672	232.44
708.86	152.57
709.048	111.61
709.236	93.18
709.424	193.53
709.612	187.39
709.8	44.03
709.988	230.4
710.176	214.01
710.364	214.01
710.551	179.2
710.739	115.71
710.927	173.05
711.115	179.2
711.303	160.77
711.491	203.77
711.679	144.38
711.866	252.92
712.054	140.29
712.242	189.44
712.43	314.36
712.617	156.67
712.805	265.21
712.993	144.38
713.181	82.94
713.368	197.63
713.556	207.87
713.744	185.34
713.931	263.16
714.119	193.53
714.306	70.65
714.494	119.81
714.682	150.53
714.869	105.47
715.057	158.72
715.244	54.27
715.432	183.29
715.619	136.19
715.807	222.2
715.994	91.13
716.182	224.25
716.369	246.78
716.556	203.77
716.744	23.55
716.931	173.05
717.119	187.39
717.306	158.72
717.493	250.88
717.681	140.29
717.868	140.29
718.055	140.29
718.242	160.77
718.43	222.2
718.617	281.6
718.804	136.19
718.991	209.92
719.179	218.11
719.366	201.72
719.553	171.01
719.74	214.01
719.927	109.57
720.114	173.05
720.301	138.24
720.488	97.28
720.676	156.67
720.863	242.68
721.05	340.99
721.237	214.01
721.424	228.35
721.611	220.16
721.798	48.13
721.985	107.52
722.172	230.4
722.358	179.2
722.545	363.51
722.732	189.44
722.919	291.84
723.106	259.07
723.293	230.4
723.48	187.39
723.667	177.15
723.853	218.11
724.04	259.07
724.227	295.93
724.414	183.29
724.6	234.49
724.787	257.02
724.974	279.55
725.161	195.58
725.347	68.61
725.534	218.11
725.72	291.84
725.907	201.72
726.094	326.65
726.28	191.49
726.467	117.76
726.653	152.57
726.84	257.02
727.027	310.27
727.213	181.25
727.4	216.06
727.586	195.58
727.773	232.44
727.959	197.63
728.145	226.3
728.332	224.25
728.518	74.75
728.705	263.16
728.891	232.44
729.077	252.92
729.264	211.96
729.45	211.96
729.636	283.64
729.823	152.57
730.009	150.53
730.195	248.83
730.382	246.78
730.568	181.25
730.754	189.44
730.94	148.48
731.126	162.81
731.313	261.12
731.499	166.91
731.685	220.16
731.871	281.6
732.057	228.35
732.243	269.31
732.429	281.6
732.615	295.93
732.801	238.59
732.987	254.97
733.173	285.69
733.359	236.54
733.545	207.87
733.731	226.3
733.917	379.9
734.103	203.77
734.289	252.92
734.475	123.9
734.661	326.65
734.847	197.63
735.033	191.49
735.219	314.36
735.404	175.1
735.59	150.53
735.776	164.86
735.962	312.32
736.148	265.21
736.333	343.03
736.519	228.35
736.705	175.1
736.89	218.11
737.076	234.49
737.262	113.66
737.447	160.77
737.633	214.01
737.819	234.49
738.004	220.16
738.19	281.6
738.375	250.88
738.561	232.44
738.747	263.16
738.932	160.77
739.118	340.99
739.303	195.58
739.489	214.01
739.674	220.16
739.859	201.72
740.045	345.08
740.23	267.26
740.416	41.98
740.601	252.92
740.786	181.25
740.972	109.57
741.157	175.1
741.342	142.33
741.528	111.61
741.713	340.99
741.898	183.29
742.084	201.72
742.269	246.78
742.454	273.4
742.639	310.27
742.824	228.35
743.01	279.55
743.195	332.79
743.38	336.89
743.565	302.08
743.75	263.16
743.935	189.44
744.12	340.99
744.305	164.86
744.49	193.53
744.675	203.77
744.86	185.34
745.045	242.68
745.23	259.07
745.415	187.39
745.6	338.94
745.785	189.44
745.97	304.12
746.155	328.7
746.34	195.58
746.525	252.92
746.71	287.74
746.895	87.04
747.079	168.96
747.264	197.63
747.449	232.44
747.634	136.19
747.819	218.11
748.003	203.77
748.188	148.48
748.373	287.74
748.557	216.06
748.742	207.87
748.927	252.92
749.111	224.25
749.296	181.25
749.481	187.39
749.665	242.68
749.85	228.35
750.034	160.77
750.219	216.06
750.404	183.29
750.588	240.64
750.773	166.91
750.957	191.49
751.141	168.96
751.326	269.31
751.51	113.66
751.695	156.67
751.879	214.01
752.064	232.44
752.248	128
752.432	287.74
752.617	187.39
752.801	214.01
752.985	191.49
753.17	220.16
753.354	222.2
753.538	158.72
753.722	70.65
753.907	101.37
754.091	87.04
754.275	234.49
754.459	121.85
754.643	95.23
754.828	160.77
755.012	197.63
755.196	146.43
755.38	177.15
755.564	146.43
755.748	113.66
755.932	154.62
756.116	211.96
756.3	132.09
756.484	164.86
756.668	201.72
756.852	-25.6
757.036	156.67
757.22	154.62
757.404	74.75
757.588	87.04
757.772	156.67
757.956	111.61
758.14	300.03
758.323	72.7
758.507	183.29
758.691	76.8
758.875	201.72
759.059	234.49
759.242	132.09
759.426	171.01
759.61	136.19
759.794	46.08
759.977	177.15
760.161	367.61
760.345	214.01
760.528	181.25
760.712	117.76
760.895	183.29
761.079	37.89
761.263	99.33
761.446	46.08
761.63	99.33
761.813	242.68
761.997	25.6
762.18	52.22
762.364	99.33
762.547	13.31
762.731	99.33
762.914	160.77
763.098	84.99
763.281	125.95
763.464	82.94
763.648	160.77
763.831	101.37
764.015	1.02
764.198	140.29
764.381	17.41
764.564	134.14
764.748	115.71
764.931	156.67
765.114	179.2
765.297	91.13
765.481	19.46
765.664	109.57
765.847	95.23
766.03	203.77
766.213	23.55
766.397	97.28
766.58	44.03
766.763	132.09
766.946	70.65
767.129	111.61
767.312	1.02
767.495	89.09
767.678	15.36
767.861	211.96
768.044	80.89
768.227	84.99
768.41	46.08
768.593	128
768.776	250.88
768.959	123.9
769.142	197.63
769.324	64.51
769.507	66.56
769.69	123.9
769.873	107.52
770.056	279.55
770.239	123.9
770.421	166.91
770.604	142.33
770.787	78.85
770.97	82.94
771.152	11.26
771.335	107.52
771.518	-35.84
771.7	128
771.883	91.13
772.066	128
772.248	115.71
772.431	195.58
772.613	164.86
772.796	46.08
772.978	181.25
773.161	220.16
773.343	31.74
773.526	50.18
773.708	-9.22
773.891	1.02
774.073	89.09
774.256	46.08
774.438	259.07
774.621	17.41
774.803	177.15
774.985	74.75
775.168	89.09
775.35	64.51
775.532	121.85
775.715	107.52
775.897	130.05
776.079	72.7
776.261	52.22
776.444	70.65
776.626	15.36
776.808	99.33
776.99	56.32
777.173	72.7
777.355	41.98
777.537	-1.02
777.719	68.61
777.901	156.67
778.083	87.04
778.265	5.12
778.447	128
778.629	15.36
778.811	74.75
778.993	115.71
779.175	130.05
779.357	87.04
779.539	25.6
779.721	46.08
779.903	193.53
780.085	-56.32
780.267	97.28
780.449	52.22
780.631	111.61
780.812	171.01
780.994	74.75
781.176	21.5
781.358	21.5
781.54	62.46
781.721	107.52
781.903	109.57
782.085	-9.22
782.267	156.67
782.448	-35.84
782.63	58.37
782.812	70.65
782.993	5.12
783.175	142.33
783.357	-3.07
783.538	64.51
783.72	-1.02
783.901	23.55
784.083	62.46
784.264	64.51
784.446	-11.26
784.627	-62.46
784.809	101.37
784.99	50.18
785.172	142.33
785.353	46.08
785.535	115.71
785.716	13.31
785.897	-5.12
786.079	125.95
786.26	78.85
786.441	39.94
786.623	-84.99
786.804	64.51
786.985	23.55
787.167	76.8
787.348	-37.89
787.529	72.7
787.71	179.2
787.891	95.23
788.073	33.79
788.254	-13.31
788.435	207.87
788.616	89.09
788.797	13.31
788.978	-27.65
789.159	62.46
789.34	72.7
789.522	46.08
789.703	-15.36
789.884	117.76
790.065	37.89
790.246	152.57
790.427	-11.26
790.607	117.76
790.788	93.18
790.969	78.85
791.15	58.37
791.331	13.31
791.512	21.5
791.693	41.98
791.874	60.42
792.054	228.35
792.235	58.37
792.416	-15.36
792.597	-11.26
792.778	111.61
792.958	52.22
793.139	64.51
793.32	78.85
793.5	29.7
793.681	140.29
793.862	138.24
794.042	62.46
794.223	27.65
794.404	-7.17
794.584	-39.94
794.765	70.65
794.945	76.8
795.126	64.51
795.306	134.14
795.487	93.18
795.667	21.5
795.848	62.46
796.028	-1.02
796.209	23.55
796.389	27.65
796.57	25.6
796.75	-1.02
796.93	44.03
797.111	-11.26
797.291	58.37
797.471	138.24
797.652	-56.32
797.832	15.36
798.012	109.57
798.192	-5.12
798.373	-17.41
798.553	-56.32
798.733	58.37
798.913	-46.08
799.093	-3.07
799.274	23.55
799.454	56.32
799.634	103.42
799.814	37.89
799.994	35.84
800.174	19.46
800.354	82.94
800.534	-54.27
800.714	113.66
800.894	-3.07
801.074	-37.89
801.254	-105.47
801.434	130.05
801.614	25.6
801.794	-48.13
801.974	1973.22
802.154	33.79
802.334	128
802.514	-68.61
802.693	17.41
802.873	44.03
803.053	111.61
803.233	-25.6
803.413	44.03
803.592	-60.42
803.772	46.08
803.952	29.7
804.131	-35.84
804.311	35.84
804.491	93.18
804.67	1.02
804.85	-44.03
805.03	185.34
805.209	130.05
805.389	-13.31
805.568	84.99
805.748	78.85
805.928	19.46
806.107	87.04
806.287	-5.12
806.466	37.89
806.646	-37.89
806.825	9.22
807.004	-1.02
807.184	39.94
807.363	76.8
807.543	37.89
807.722	-17.41
807.901	162.81
808.081	50.18
808.26	-78.85
808.439	19.46
808.619	-11.26
808.798	-31.74
808.977	41.98
809.156	64.51
809.336	37.89
809.515	164.86
809.694	-1.02
809.873	66.56
810.052	66.56
810.231	97.28
810.411	76.8
810.59	121.85
810.769	-7.17
810.948	105.47
811.127	-97.28
811.306	-29.7
811.485	21.5
811.664	74.75
811.843	46.08
812.022	50.18
812.201	15.36
812.38	-46.08
812.559	-5.12
812.737	70.65
812.916	-1.02
813.095	-37.89
813.274	121.85
813.453	5.12
813.632	68.61
813.811	132.09
813.989	-70.65
814.168	31.74
814.347	-41.98
814.526	1.02
814.704	74.75
814.883	41.98
815.062	-21.5
815.24	76.8
815.419	-7.17
815.598	66.56
815.776	-33.79
815.955	25.6
816.133	-146.43
816.312	-9.22
816.49	-70.65
816.669	37.89
816.847	-23.55
817.026	29.7
817.204	60.42
817.383	15.36
817.561	-56.32
817.74	15.36
817.918	37.89
818.097	-64.51
818.275	-91.13
818.453	74.75
818.632	128
818.81	35.84
818.988	44.03
819.167	-27.65
819.345	44.03
819.523	19.46
819.701	19.46
819.879	60.42
820.058	25.6
820.236	17.41
820.414	101.37
820.592	-1.02
820.77	-3.07
820.948	-13.31
821.127	-17.41
821.305	95.23
821.483	-48.13
821.661	58.37
821.839	-3.07
822.017	62.46
822.195	-27.65
822.373	105.47
822.551	64.51
822.729	91.13
822.907	-27.65
823.085	66.56
823.262	11.26
823.44	-48.13
823.618	25.6
823.796	89.09
823.974	-35.84
824.152	-29.7
824.329	-11.26
824.507	70.65
824.685	99.33
824.863	78.85
825.04	107.52
825.218	80.89
825.396	37.89
825.574	103.42
825.751	117.76
825.929	27.65
826.107	-23.55
826.284	-1.02
826.462	74.75
826.639	-52.22
826.817	-58.37
826.994	13.31
827.172	-27.65
827.349	142.33
827.527	19.46
827.704	-17.41
827.882	76.8
828.059	-54.27
828.237	-17.41
828.414	140.29
828.591	-31.74
828.769	72.7
828.946	-23.55
829.124	11.26
829.301	76.8
829.478	41.98
829.655	64.51
829.833	46.08
830.01	-101.37
830.187	76.8
830.364	-5.12
830.542	62.46
830.719	74.75
830.896	58.37
831.073	64.51
831.25	33.79
831.427	60.42
831.604	17.41
831.782	-66.56
831.959	46.08
832.136	-21.5
832.313	58.37
832.49	-41.98
832.667	1.02
832.844	21.5
833.021	101.37
833.198	62.46
833.374	-21.5
833.551	29.7
833.728	-23.55
833.905	29.7
834.082	-68.61
834.259	9.22
834.436	140.29
834.612	-84.99
834.789	50.18
834.966	19.46
835.143	31.74
835.319	-33.79
835.496	76.8
835.673	117.76
835.85	148.48
836.026	35.84
836.203	66.56
836.38	13.31
836.556	9.22
836.733	-44.03
836.909	121.85
837.086	-29.7
837.262	-80.89
837.439	-35.84
837.616	-70.65
837.792	-9.22
837.968	39.94
838.145	-117.76
838.321	-41.98
838.498	70.65
838.674	109.57
838.851	31.74
839.027	5.12
839.203	5.12
839.38	35.84
839.556	3.07
839.732	66.56
839.909	3.07
840.085	21.5
840.261	-50.18
840.437	-9.22
840.614	25.6
840.79	58.37
840.966	41.98
841.142	-5.12
841.318	-33.79
841.494	84.99
841.671	31.74
841.847	-74.75
842.023	-21.5
842.199	89.09
842.375	70.65
842.551	-121.85
842.727	-56.32
842.903	121.85
843.079	-48.13
843.255	115.71
843.431	-9.22
843.607	74.75
843.783	-138.24
843.959	19.46
844.134	64.51
844.31	115.71
844.486	-9.22
844.662	-54.27
844.838	-21.5
845.013	23.55
845.189	89.09
845.365	21.5
845.541	48.13
845.716	-39.94
845.892	95.23
846.068	29.7
846.244	-41.98
846.419	72.7
846.595	-17.41
846.77	-3.07
846.946	99.33
847.122	-54.27
847.297	66.56
847.473	80.89
847.648	-101.37
847.824	44.03
847.999	-19.46
848.175	-29.7
848.35	50.18
848.526	82.94
848.701	89.09
848.876	91.13
849.052	89.09
849.227	33.79
849.403	72.7
849.578	-5.12
849.753	60.42
849.929	7.17
850.104	-60.42
850.279	31.74
850.454	35.84
850.63	19.46
850.805	54.27
850.98	70.65
851.155	64.51
851.33	15.36
851.505	-99.33
851.681	193.53
851.856	-101.37
852.031	62.46
852.206	95.23
852.381	-31.74
852.556	-35.84
852.731	50.18
852.906	101.37
853.081	9.22
853.256	80.89
853.431	-7.17
853.606	-44.03
853.781	-31.74
853.956	-121.85
854.131	23.55
854.305	-23.55
854.48	-7.17
854.655	-64.51
854.83	-27.65
855.005	-7.17
855.18	82.94
855.354	35.84
855.529	60.42
855.704	-27.65
855.879	25.6
856.053	-56.32
856.228	113.66
856.403	-11.26
856.577	11.26
856.752	-115.71
856.926	41.98
857.101	-31.74
857.276	-37.89
857.45	115.71
857.625	82.94
857.799	-27.65
857.974	44.03
858.148	-158.72
858.323	39.94
858.497	-27.65
858.672	-25.6
858.846	-97.28
859.02	13.31
859.195	-27.65
859.369	62.46
859.543	29.7
859.718	76.8
859.892	33.79
860.066	48.13
860.241	29.7
860.415	-11.26
860.589	41.98
860.763	19.46
860.938	35.84
861.112	48.13
861.286	-31.74
861.46	-1.02
861.634	5.12
861.808	125.95
861.982	5.12
862.157	-115.71
862.331	-58.37
862.505	-35.84
862.679	-82.94
862.853	-27.65
863.027	-33.79
863.201	193.53
863.375	-3.07
863.549	89.09
863.722	48.13
863.896	156.67
864.07	-78.85
864.244	-29.7
864.418	11.26
864.592	-64.51
864.766	80.89
864.939	-37.89
865.113	1.02
865.287	136.19
865.461	-84.99
865.634	-21.5
865.808	-27.65
865.982	-56.32
866.156	82.94
866.329	-33.79
866.503	35.84
866.676	101.37
866.85	78.85
867.024	-56.32
867.197	101.37
867.371	76.8
867.544	76.8
867.718	-101.37
867.891	93.18
868.065	-72.7
868.238	-21.5
868.412	33.79
868.585	15.36
868.759	21.5
868.932	-25.6
869.105	-41.98
869.279	44.03
869.452	-66.56
869.625	60.42
869.799	46.08
869.972	-101.37
870.145	-52.22
870.319	99.33
870.492	-105.47
870.665	-62.46
870.838	-91.13
871.011	-62.46
871.185	7.17
871.358	-13.31
871.531	23.55
871.704	-64.51
871.877	21.5
872.05	-27.65
872.223	-17.41
872.396	44.03
872.569	27.65
872.742	-97.28
872.915	97.28
873.088	-74.75
873.261	-103.42
873.434	31.74
873.607	54.27
873.78	111.61
873.953	-41.98
874.126	-35.84
874.299	46.08
874.471	-9.22
874.644	-25.6
874.817	111.61
874.99	95.23
875.163	21.5
875.335	15.36
875.508	19.46
875.681	136.19
875.853	-44.03
876.026	-11.26
876.199	74.75
876.371	99.33
876.544	33.79
876.717	-11.26
876.889	44.03
877.062	19.46
877.234	-87.04
877.407	-66.56
877.579	5.12
877.752	78.85
877.924	105.47
878.097	15.36
878.269	-35.84
878.442	21.5
878.614	-21.5
878.786	15.36
878.959	19.46
879.131	5.12
879.303	-109.57
879.476	-37.89
879.648	99.33
879.82	29.7
879.993	-23.55
880.165	9.22
880.337	-87.04
880.509	-19.46
880.681	-72.7
880.854	-13.31
881.026	35.84
881.198	107.52
881.37	31.74
881.542	5.12
881.714	35.84
881.886	11.26
882.058	11.26
882.23	48.13
882.402	7.17
882.574	35.84
882.746	130.05
882.918	105.47
883.09	39.94
883.262	-76.8
883.434	9.22
883.606	-19.46
883.778	-33.79
883.95	48.13
884.122	15.36
884.293	23.55
884.465	-80.89
884.637	74.75
884.809	-68.61
884.98	17.41
885.152	7.17
885.324	132.09
885.496	-19.46
885.667	-19.46
885.839	-56.32
886.011	111.61
886.182	-13.31
886.354	72.7
886.525	52.22
886.697	29.7
886.869	-72.7
887.04	-3.07
887.212	27.65
887.383	189.44
887.555	82.94
887.726	15.36
887.897	-52.22
888.069	9.22
888.24	62.46
888.412	23.55
888.583	-5.12
888.754	-31.74
888.926	-134.14
889.097	-56.32
889.268	-62.46
889.44	50.18
889.611	-107.52
889.782	-99.33
889.953	-25.6
890.125	74.75
890.296	-117.76
890.467	-19.46
890.638	-21.5
890.809	23.55
890.98	-27.65
891.151	56.32
891.323	103.42
891.494	33.79
891.665	-23.55
891.836	3.07
892.007	99.33
892.178	109.57
892.349	80.89
892.52	-107.52
892.691	-5.12
892.862	-9.22
893.032	-56.32
893.203	-29.7
893.374	50.18
893.545	107.52
893.716	15.36
893.887	21.5
894.057	-25.6
894.228	-31.74
894.399	-80.89
894.57	89.09
894.74	-31.74
894.911	72.7
895.082	-74.75
895.253	-80.89
895.423	56.32
895.594	44.03
895.764	84.99
895.935	-58.37
896.106	78.85
896.276	-72.7
896.447	89.09
896.617	19.46
896.788	-27.65
896.958	-64.51
897.129	-3.07
897.299	-48.13
897.47	150.53
897.64	56.32
897.81	-11.26
897.981	66.56
898.151	-107.52
898.322	25.6
898.492	48.13
898.662	-130.05
898.832	-13.31
899.003	-33.79
899.173	31.74
899.343	-35.84
899.513	-123.9
