Data from USB4F104151__5__10-41-15-491.txt Node

Date: Wed Feb 26 10:41:15 EST 2025
User: louis
Spectrometer: USB4F10415
Trigger mode: 4
Integration Time (sec): 1.000000E-1
Scans to average: 1
Electric dark correction enabled: true
Nonlinearity correction enabled: false
Boxcar width: 0
XAxis mode: Wavelengths
Number of Pixels in Spectrum: 3648
>>>>>Begin Spectral Data<<<<<
178.204	-411.13
178.424	-411.13
178.644	-411.13
178.864	-318.97
179.084	-335.35
179.304	-44.54
179.524	-7.68
179.744	-28.16
179.964	33.28
180.184	59.9
180.404	35.33
180.624	-48.64
180.844	2.56
181.064	-13.82
181.283	-9.73
181.503	-65.02
181.723	86.53
181.943	-65.02
182.163	100.86
182.383	-36.35
182.602	80.38
182.822	162.3
183.042	41.47
183.262	0.51
183.482	0.51
183.701	12.8
183.921	10.75
184.141	-50.69
184.361	35.33
184.58	55.81
184.8	96.77
185.02	61.95
185.239	172.54
185.459	59.9
185.679	104.96
185.898	-118.27
186.118	35.33
186.338	-3.58
186.557	164.35
186.777	-1.54
186.997	-28.16
187.216	88.57
187.436	221.69
187.655	125.44
187.875	86.53
188.095	4.61
188.314	147.97
188.534	174.59
188.753	-15.87
188.973	53.76
189.192	143.87
189.412	23.04
189.631	27.14
189.851	-3.58
190.07	164.35
190.29	-79.36
190.509	-58.88
190.729	49.66
190.948	125.44
191.168	213.5
191.387	82.43
191.607	55.81
191.826	-11.78
192.045	-26.11
192.265	-44.54
192.484	92.67
192.704	-46.59
192.923	-67.07
193.142	121.34
193.362	59.9
193.581	66.05
193.8	45.57
194.02	92.67
194.239	6.66
194.458	152.06
194.678	45.57
194.897	-34.3
195.116	47.62
195.335	51.71
195.555	31.23
195.774	61.95
195.993	86.53
196.212	-7.68
196.432	-15.87
196.651	-36.35
196.87	53.76
197.089	164.35
197.308	82.43
197.528	41.47
197.747	-9.73
197.966	43.52
198.185	104.96
198.404	8.7
198.623	94.72
198.842	131.58
199.062	104.96
199.281	135.68
199.5	43.52
199.719	137.73
199.938	86.53
200.157	76.29
200.376	41.47
200.595	102.91
200.814	-1.54
201.033	-22.02
201.252	215.55
201.471	49.66
201.69	80.38
201.909	23.04
202.128	115.2
202.347	162.3
202.566	25.09
202.785	-101.89
203.004	-3.58
203.223	195.07
203.442	37.38
203.661	-17.92
203.879	18.94
204.098	70.14
204.317	-65.02
204.536	55.81
204.755	12.8
204.974	20.99
205.193	-22.02
205.411	166.4
205.63	141.82
205.849	53.76
206.068	-13.82
206.287	-32.26
206.505	96.77
206.724	-32.26
206.943	-36.35
207.162	2.56
207.381	61.95
207.599	4.61
207.818	59.9
208.037	-22.02
208.255	4.61
208.474	66.05
208.693	12.8
208.911	23.04
209.13	61.95
209.349	92.67
209.567	35.33
209.786	135.68
210.005	119.29
210.223	66.05
210.442	-95.74
210.661	25.09
210.879	49.66
211.098	16.9
211.316	2.56
211.535	70.14
211.753	74.24
211.972	84.48
212.191	27.14
212.409	35.33
212.628	190.97
212.846	33.28
213.065	53.76
213.283	119.29
213.502	55.81
213.72	0.51
213.938	25.09
214.157	43.52
214.375	139.77
214.594	31.23
214.812	86.53
215.031	104.96
215.249	27.14
215.467	47.62
215.686	55.81
215.904	90.62
216.122	72.19
216.341	115.2
216.559	96.77
216.778	94.72
216.996	107.01
217.214	23.04
217.432	-24.06
217.651	-9.73
217.869	18.94
218.087	-9.73
218.306	-36.35
218.524	12.8
218.742	4.61
218.96	2.56
219.179	33.28
219.397	33.28
219.615	186.88
219.833	88.57
220.051	-5.63
220.27	94.72
220.488	82.43
220.706	55.81
220.924	14.85
221.142	2.56
221.36	37.38
221.578	57.86
221.796	-7.68
222.015	25.09
222.233	49.66
222.451	225.79
222.669	-3.58
222.887	100.86
223.105	-46.59
223.323	-7.68
223.541	-83.45
223.759	8.7
223.977	51.71
224.195	221.69
224.413	109.05
224.631	23.04
224.849	76.29
225.067	127.49
225.285	39.42
225.503	-9.73
225.721	-155.13
225.939	33.28
226.157	25.09
226.375	158.21
226.592	27.14
226.81	-11.78
227.028	121.34
227.246	133.63
227.464	92.67
227.682	43.52
227.9	59.9
228.117	66.05
228.335	33.28
228.553	31.23
228.771	37.38
228.989	68.09
229.206	82.43
229.424	29.18
229.642	61.95
229.86	-52.74
230.077	154.11
230.295	102.91
230.513	53.76
230.731	-9.73
230.948	178.69
231.166	152.06
231.384	68.09
231.601	6.66
231.819	248.32
232.037	-60.93
232.254	-58.88
232.472	45.57
232.689	-3.58
232.907	43.52
233.125	10.75
233.342	6.66
233.56	4.61
233.777	-50.69
233.995	-9.73
234.213	51.71
234.43	98.81
234.648	12.8
234.865	-7.68
235.083	37.38
235.3	45.57
235.518	66.05
235.735	162.3
235.953	49.66
236.17	53.76
236.388	72.19
236.605	29.18
236.822	129.53
237.04	100.86
237.257	23.04
237.475	-26.11
237.692	-3.58
237.909	121.34
238.127	23.04
238.344	57.86
238.562	41.47
238.779	10.75
238.996	-34.3
239.214	80.38
239.431	141.82
239.648	51.71
239.865	70.14
240.083	82.43
240.3	-83.45
240.517	-15.87
240.735	51.71
240.952	102.91
241.169	57.86
241.386	55.81
241.603	-42.5
241.821	-54.78
242.038	78.33
242.255	147.97
242.472	-46.59
242.689	55.81
242.907	33.28
243.124	88.57
243.341	-30.21
243.558	51.71
243.775	35.33
243.992	-85.5
244.209	16.9
244.426	115.2
244.643	125.44
244.86	64
245.078	4.61
245.295	39.42
245.512	0.51
245.729	12.8
245.946	57.86
246.163	43.52
246.38	-38.4
246.597	43.52
246.814	10.75
247.031	61.95
247.248	55.81
247.464	37.38
247.681	115.2
247.898	92.67
248.115	78.33
248.332	12.8
248.549	129.53
248.766	166.4
248.983	20.99
249.2	55.81
249.417	188.93
249.633	-22.02
249.85	135.68
250.067	4.61
250.284	64
250.501	16.9
250.717	39.42
250.934	-67.07
251.151	53.76
251.368	43.52
251.585	49.66
251.801	88.57
252.018	-1.54
252.235	90.62
252.451	-3.58
252.668	-34.3
252.885	111.1
253.102	78.33
253.318	43.52
253.535	-19.97
253.752	8.7
253.968	-65.02
254.185	-32.26
254.401	-11.78
254.618	-5.63
254.835	59.9
255.051	139.77
255.268	25.09
255.484	35.33
255.701	14.85
255.917	43.52
256.134	-32.26
256.351	55.81
256.567	-28.16
256.784	51.71
257	-7.68
257.217	129.53
257.433	51.71
257.65	59.9
257.866	193.02
258.082	-44.54
258.299	29.18
258.515	23.04
258.732	39.42
258.948	-40.45
259.165	49.66
259.381	-54.78
259.597	64
259.814	53.76
260.03	-3.58
260.246	-15.87
260.463	160.25
260.679	68.09
260.895	53.76
261.112	53.76
261.328	0.51
261.544	-56.83
261.761	152.06
261.977	-108.03
262.193	-52.74
262.409	16.9
262.626	33.28
262.842	78.33
263.058	-38.4
263.274	6.66
263.49	37.38
263.707	96.77
263.923	53.76
264.139	-52.74
264.355	16.9
264.571	184.83
264.787	88.57
265.004	135.68
265.22	2.56
265.436	8.7
265.652	72.19
265.868	66.05
266.084	-3.58
266.3	107.01
266.516	-95.74
266.732	123.39
266.948	78.33
267.164	-38.4
267.38	172.54
267.596	80.38
267.812	166.4
268.028	90.62
268.244	29.18
268.46	86.53
268.676	-36.35
268.892	84.48
269.108	-19.97
269.324	-5.63
269.54	-42.5
269.756	66.05
269.972	-30.21
270.188	-32.26
270.403	-40.45
270.619	-11.78
270.835	102.91
271.051	98.81
271.267	12.8
271.483	-22.02
271.698	107.01
271.914	41.47
272.13	33.28
272.346	14.85
272.562	33.28
272.777	170.49
272.993	18.94
273.209	-30.21
273.425	55.81
273.64	-48.64
273.856	115.2
274.072	0.51
274.287	-5.63
274.503	96.77
274.719	84.48
274.934	-17.92
275.15	-54.78
275.366	31.23
275.581	-46.59
275.797	94.72
276.012	68.09
276.228	-19.97
276.444	68.09
276.659	178.69
276.875	-26.11
277.09	2.56
277.306	-19.97
277.521	92.67
277.737	-3.58
277.952	111.1
278.168	-1.54
278.383	70.14
278.599	57.86
278.814	102.91
279.03	102.91
279.245	150.01
279.461	61.95
279.676	182.78
279.892	-75.26
280.107	-62.98
280.322	41.47
280.538	51.71
280.753	10.75
280.969	66.05
281.184	80.38
281.399	186.88
281.615	-42.5
281.83	31.23
282.045	-75.26
282.26	27.14
282.476	33.28
282.691	80.38
282.906	-32.26
283.122	27.14
283.337	-13.82
283.552	55.81
283.767	-65.02
283.983	41.47
284.198	-32.26
284.413	121.34
284.628	-9.73
284.843	49.66
285.058	107.01
285.274	57.86
285.489	-30.21
285.704	72.19
285.919	41.47
286.134	-9.73
286.349	98.81
286.564	-1.54
286.779	117.25
286.995	-58.88
287.21	-75.26
287.425	94.72
287.64	39.42
287.855	45.57
288.07	-32.26
288.285	39.42
288.5	86.53
288.715	23.04
288.93	-13.82
289.145	35.33
289.36	16.9
289.575	20.99
289.79	94.72
290.004	-52.74
290.219	72.19
290.434	29.18
290.649	-28.16
290.864	-38.4
291.079	37.38
291.294	29.18
291.509	59.9
291.724	-69.12
291.938	47.62
292.153	57.86
292.368	-56.83
292.583	158.21
292.798	117.25
293.012	90.62
293.227	39.42
293.442	-13.82
293.657	96.77
293.871	102.91
294.086	94.72
294.301	107.01
294.516	180.73
294.73	33.28
294.945	-50.69
295.16	23.04
295.374	125.44
295.589	88.57
295.804	-50.69
296.018	57.86
296.233	43.52
296.447	2.56
296.662	14.85
296.877	152.06
297.091	90.62
297.306	92.67
297.52	31.23
297.735	29.18
297.949	64
298.164	98.81
298.378	47.62
298.593	59.9
298.807	-22.02
299.022	43.52
299.236	104.96
299.451	-32.26
299.665	-3.58
299.88	29.18
300.094	49.66
300.309	-38.4
300.523	61.95
300.737	47.62
300.952	88.57
301.166	45.57
301.381	-65.02
301.595	-1.54
301.809	43.52
302.024	74.24
302.238	-22.02
302.452	176.64
302.667	12.8
302.881	172.54
303.095	86.53
303.309	61.95
303.524	-60.93
303.738	0.51
303.952	20.99
304.166	82.43
304.381	-103.93
304.595	115.2
304.809	31.23
305.023	82.43
305.237	39.42
305.452	-28.16
305.666	127.49
305.88	121.34
306.094	201.21
306.308	119.29
306.522	125.44
306.736	86.53
306.95	88.57
307.164	4.61
307.379	29.18
307.593	164.35
307.807	111.1
308.021	104.96
308.235	143.87
308.449	-112.13
308.663	-3.58
308.877	221.69
309.091	92.67
309.305	59.9
309.519	-52.74
309.733	92.67
309.947	12.8
310.161	131.58
310.374	64
310.588	76.29
310.802	-34.3
311.016	6.66
311.23	78.33
311.444	-56.83
311.658	127.49
311.872	111.1
312.085	45.57
312.299	166.4
312.513	162.3
312.727	102.91
312.941	66.05
313.154	57.86
313.368	-1.54
313.582	139.77
313.796	41.47
314.009	61.95
314.223	119.29
314.437	66.05
314.651	92.67
314.864	-32.26
315.078	16.9
315.292	-48.64
315.505	-65.02
315.719	45.57
315.933	16.9
316.146	-5.63
316.36	25.09
316.573	88.57
316.787	88.57
317.001	61.95
317.214	-36.35
317.428	43.52
317.641	12.8
317.855	-54.78
318.068	133.63
318.282	123.39
318.495	180.73
318.709	78.33
318.922	74.24
319.136	121.34
319.349	47.62
319.563	39.42
319.776	98.81
319.99	-81.41
320.203	98.81
320.417	86.53
320.63	64
320.843	164.35
321.057	33.28
321.27	10.75
321.483	100.86
321.697	172.54
321.91	55.81
322.124	96.77
322.337	160.25
322.55	6.66
322.763	39.42
322.977	8.7
323.19	0.51
323.403	47.62
323.617	-7.68
323.83	131.58
324.043	10.75
324.256	78.33
324.469	-77.31
324.683	88.57
324.896	92.67
325.109	2.56
325.322	53.76
325.535	64
325.748	66.05
325.962	-19.97
326.175	47.62
326.388	92.67
326.601	90.62
326.814	49.66
327.027	45.57
327.24	160.25
327.453	-87.55
327.666	33.28
327.879	145.92
328.092	72.19
328.305	72.19
328.518	18.94
328.731	-1.54
328.944	55.81
329.157	59.9
329.37	53.76
329.583	170.49
329.796	64
330.009	-60.93
330.222	119.29
330.435	109.05
330.648	6.66
330.861	4.61
331.073	64
331.286	31.23
331.499	10.75
331.712	35.33
331.925	68.09
332.138	6.66
332.35	57.86
332.563	0.51
332.776	141.82
332.989	-69.12
333.202	-77.31
333.414	109.05
333.627	109.05
333.84	51.71
334.053	61.95
334.265	53.76
334.478	-67.07
334.691	43.52
334.903	90.62
335.116	6.66
335.329	29.18
335.541	47.62
335.754	182.78
335.966	8.7
336.179	33.28
336.392	8.7
336.604	29.18
336.817	90.62
337.029	35.33
337.242	123.39
337.454	53.76
337.667	53.76
337.88	170.49
338.092	61.95
338.305	98.81
338.517	0.51
338.729	74.24
338.942	152.06
339.154	-7.68
339.367	-62.98
339.579	49.66
339.792	-36.35
340.004	92.67
340.217	12.8
340.429	100.86
340.641	-17.92
340.854	33.28
341.066	78.33
341.278	115.2
341.491	190.97
341.703	92.67
341.915	35.33
342.128	84.48
342.34	117.25
342.552	29.18
342.764	70.14
342.977	49.66
343.189	98.81
343.401	107.01
343.613	-19.97
343.826	-3.58
344.038	-9.73
344.25	76.29
344.462	-5.63
344.674	20.99
344.886	-1.54
345.099	53.76
345.311	37.38
345.523	-5.63
345.735	-40.45
345.947	-5.63
346.159	107.01
346.371	2.56
346.583	84.48
346.795	182.78
347.007	39.42
347.219	84.48
347.431	64
347.643	109.05
347.855	-5.63
348.067	100.86
348.279	-69.12
348.491	16.9
348.703	72.19
348.915	-34.3
349.127	-19.97
349.339	8.7
349.551	-56.83
349.763	12.8
349.975	6.66
350.187	27.14
350.399	244.22
350.61	4.61
350.822	14.85
351.034	111.1
351.246	-17.92
351.458	12.8
351.669	143.87
351.881	123.39
352.093	125.44
352.305	119.29
352.517	8.7
352.728	143.87
352.94	-3.58
353.152	82.43
353.363	-32.26
353.575	31.23
353.787	184.83
353.999	64
354.21	150.01
354.422	-105.98
354.633	0.51
354.845	18.94
355.057	43.52
355.268	80.38
355.48	53.76
355.692	-38.4
355.903	-26.11
356.115	-9.73
356.326	-81.41
356.538	74.24
356.749	82.43
356.961	125.44
357.172	10.75
357.384	-67.07
357.595	150.01
357.807	25.09
358.018	-1.54
358.23	113.15
358.441	139.77
358.653	88.57
358.864	2.56
359.075	-11.78
359.287	82.43
359.498	176.64
359.709	8.7
359.921	80.38
360.132	68.09
360.344	43.52
360.555	-22.02
360.766	72.19
360.977	-44.54
361.189	137.73
361.4	-5.63
361.611	115.2
361.823	145.92
362.034	25.09
362.245	-73.21
362.456	57.86
362.667	143.87
362.879	-60.93
363.09	115.2
363.301	16.9
363.512	84.48
363.723	-52.74
363.935	23.04
364.146	104.96
364.357	74.24
364.568	100.86
364.779	-28.16
364.99	131.58
365.201	59.9
365.412	119.29
365.623	-97.79
365.834	68.09
366.045	-52.74
366.256	72.19
366.467	51.71
366.678	10.75
366.889	31.23
367.1	-44.54
367.311	82.43
367.522	74.24
367.733	41.47
367.944	125.44
368.155	14.85
368.366	80.38
368.577	131.58
368.788	160.25
368.999	-19.97
369.209	55.81
369.42	186.88
369.631	246.27
369.842	29.18
370.053	-9.73
370.264	131.58
370.474	-62.98
370.685	43.52
370.896	2.56
371.107	96.77
371.317	18.94
371.528	-9.73
371.739	145.92
371.95	125.44
372.16	49.66
372.371	-71.17
372.582	25.09
372.792	150.01
373.003	72.19
373.214	-1.54
373.424	119.29
373.635	-73.21
373.846	139.77
374.056	29.18
374.267	82.43
374.477	72.19
374.688	-7.68
374.898	64
375.109	14.85
375.319	55.81
375.53	117.25
375.74	55.81
375.951	10.75
376.161	90.62
376.372	150.01
376.582	14.85
376.793	53.76
377.003	-44.54
377.214	-42.5
377.424	68.09
377.635	-3.58
377.845	-46.59
378.055	176.64
378.266	-5.63
378.476	121.34
378.686	59.9
378.897	66.05
379.107	111.1
379.317	86.53
379.528	25.09
379.738	84.48
379.948	27.14
380.158	70.14
380.369	41.47
380.579	102.91
380.789	-26.11
380.999	121.34
381.21	96.77
381.42	195.07
381.63	29.18
381.84	41.47
382.05	41.47
382.261	70.14
382.471	137.73
382.681	-40.45
382.891	113.15
383.101	43.52
383.311	-44.54
383.521	72.19
383.731	61.95
383.941	104.96
384.151	20.99
384.361	-3.58
384.571	84.48
384.781	-38.4
384.991	94.72
385.201	221.69
385.411	27.14
385.621	109.05
385.831	51.71
386.041	43.52
386.251	96.77
386.461	47.62
386.671	31.23
386.881	100.86
387.091	49.66
387.301	94.72
387.511	49.66
387.72	84.48
387.93	92.67
388.14	-116.22
388.35	47.62
388.56	96.77
388.769	59.9
388.979	6.66
389.189	-30.21
389.399	35.33
389.609	45.57
389.818	68.09
390.028	141.82
390.238	35.33
390.447	16.9
390.657	8.7
390.867	92.67
391.076	-56.83
391.286	76.29
391.496	25.09
391.705	27.14
391.915	152.06
392.125	119.29
392.334	102.91
392.544	115.2
392.753	16.9
392.963	-7.68
393.172	41.47
393.382	-38.4
393.591	111.1
393.801	-19.97
394.01	178.69
394.22	45.57
394.429	-5.63
394.639	59.9
394.848	41.47
395.058	88.57
395.267	64
395.477	143.87
395.686	20.99
395.895	205.31
396.105	252.41
396.314	84.48
396.524	49.66
396.733	78.33
396.942	123.39
397.152	107.01
397.361	111.1
397.57	111.1
397.78	-17.92
397.989	127.49
398.198	168.45
398.407	45.57
398.617	4.61
398.826	94.72
399.035	-15.87
399.244	78.33
399.453	31.23
399.663	-13.82
399.872	113.15
400.081	-13.82
400.29	150.01
400.499	-54.78
400.708	74.24
400.917	10.75
401.127	33.28
401.336	53.76
401.545	152.06
401.754	119.29
401.963	70.14
402.172	35.33
402.381	-69.12
402.59	23.04
402.799	-24.06
403.008	125.44
403.217	76.29
403.426	68.09
403.635	-54.78
403.844	29.18
404.053	2.56
404.262	31.23
404.471	131.58
404.68	115.2
404.888	-40.45
405.097	-5.63
405.306	74.24
405.515	94.72
405.724	-5.63
405.933	35.33
406.142	145.92
406.35	10.75
406.559	-40.45
406.768	68.09
406.977	176.64
407.185	-50.69
407.394	76.29
407.603	68.09
407.812	147.97
408.02	113.15
408.229	51.71
408.438	43.52
408.646	-42.5
408.855	16.9
409.064	16.9
409.272	23.04
409.481	115.2
409.69	43.52
409.898	-15.87
410.107	-3.58
410.315	182.78
410.524	59.9
410.733	25.09
410.941	16.9
411.15	109.05
411.358	88.57
411.567	139.77
411.775	39.42
411.984	53.76
412.192	45.57
412.401	-71.17
412.609	164.35
412.818	160.25
413.026	33.28
413.234	76.29
413.443	33.28
413.651	-11.78
413.86	49.66
414.068	80.38
414.276	211.45
414.485	49.66
414.693	100.86
414.901	227.84
415.11	72.19
415.318	68.09
415.526	27.14
415.734	168.45
415.943	55.81
416.151	74.24
416.359	64
416.567	119.29
416.776	145.92
416.984	176.64
417.192	188.93
417.4	41.47
417.608	74.24
417.817	-36.35
418.025	92.67
418.233	160.25
418.441	18.94
418.649	-9.73
418.857	-9.73
419.065	74.24
419.273	74.24
419.481	117.25
419.689	123.39
419.897	66.05
420.105	-50.69
420.313	68.09
420.521	158.21
420.729	139.77
420.937	6.66
421.145	-7.68
421.353	96.77
421.561	137.73
421.769	127.49
421.977	-65.02
422.185	139.77
422.393	4.61
422.601	104.96
422.809	96.77
423.017	57.86
423.224	96.77
423.432	180.73
423.64	-54.78
423.848	178.69
424.056	-26.11
424.263	131.58
424.471	43.52
424.679	211.45
424.887	88.57
425.094	164.35
425.302	102.91
425.51	-9.73
425.718	217.6
425.925	35.33
426.133	-56.83
426.341	156.16
426.548	43.52
426.756	-34.3
426.964	96.77
427.171	-75.26
427.379	104.96
427.586	4.61
427.794	78.33
428.001	172.54
428.209	100.86
428.417	150.01
428.624	154.11
428.832	133.63
429.039	111.1
429.247	123.39
429.454	72.19
429.662	213.5
429.869	92.67
430.076	61.95
430.284	180.73
430.491	229.88
430.699	225.79
430.906	117.25
431.114	195.07
431.321	129.53
431.528	90.62
431.736	137.73
431.943	225.79
432.15	176.64
432.358	225.79
432.565	213.5
432.772	-40.45
432.979	227.84
433.187	98.81
433.394	258.56
433.601	45.57
433.808	197.12
434.016	258.56
434.223	213.5
434.43	250.36
434.637	176.64
434.844	156.16
435.052	182.78
435.259	303.61
435.466	227.84
435.673	201.21
435.88	244.22
436.087	299.52
436.294	354.81
436.501	375.29
436.708	270.84
436.915	375.29
437.122	293.37
437.329	233.98
437.537	281.08
437.743	315.9
437.95	422.39
438.157	365.05
438.364	317.95
438.571	354.81
438.778	358.91
438.985	397.82
439.192	483.83
439.399	416.25
439.606	453.11
439.813	553.46
440.02	465.4
440.227	649.72
440.433	518.65
440.64	469.5
440.847	455.16
441.054	545.27
441.261	719.35
441.467	561.66
441.674	498.17
441.881	651.77
442.088	621.05
442.294	657.91
442.501	760.31
442.708	762.36
442.914	766.45
443.121	772.6
443.328	786.93
443.534	874.99
443.741	891.38
443.948	754.16
444.154	928.24
444.361	1030.64
444.568	961.01
444.774	983.54
444.981	834.04
445.187	1223.15
445.394	1087.98
445.6	1073.65
445.807	1186.29
446.013	1188.33
446.22	1208.81
446.426	1364.46
446.633	1294.83
446.839	1634.79
447.046	1270.25
447.252	1563.11
447.459	1513.96
447.665	1546.73
447.871	1681.89
448.078	1774.05
448.284	1741.29
448.491	1884.64
448.697	1868.26
448.903	1987.04
449.11	2103.78
449.316	2111.97
449.522	2210.27
449.728	2269.66
449.935	2392.54
450.141	2392.54
450.347	2544.09
450.553	2480.6
450.76	2537.95
450.966	2716.12
451.172	2890.2
451.378	2832.85
451.584	3013.07
451.791	3332.56
451.997	3367.37
452.203	3355.08
452.409	3516.87
452.615	3668.42
452.821	3578.31
453.027	3686.86
453.233	3981.76
453.44	3838.41
453.646	3961.28
453.852	4188.61
454.058	4428.22
454.264	4604.35
454.47	5013.94
454.676	5130.67
454.882	5466.54
455.088	5104.05
455.294	5353.9
455.5	5847.46
455.705	6128.03
455.911	6011.3
456.117	6181.28
456.323	6715.8
456.529	6384.03
456.735	7174.55
456.941	7336.34
457.147	7647.63
457.352	7674.25
457.558	8018.31
457.764	8454.53
457.97	8567.17
458.176	8952.18
458.381	9312.63
458.587	9802.09
458.793	10248.55
458.999	9933.16
459.204	11489.62
459.41	11911.5
459.616	11544.91
459.821	12486.98
460.027	13039.93
460.233	13435.19
460.438	13347.12
460.644	14248.23
460.85	14510.37
461.055	14909.72
461.261	15829.26
461.466	15522.07
461.672	15595.79
461.878	17533.17
462.083	17178.87
462.289	17672.43
462.494	18567.4
462.7	18385.13
462.905	18821.34
463.111	20730.05
463.316	20973.76
463.522	21594.29
463.727	22380.71
463.932	23492.76
464.138	23861.4
464.343	24998.02
464.549	25104.51
464.754	26800.23
464.959	27715.67
465.165	28262.48
465.37	28231.76
465.575	28074.07
465.781	29976.63
465.986	30834.73
466.191	30378.03
466.397	30789.67
466.602	29972.53
466.807	31416.35
467.012	32010.26
467.218	32522.26
467.423	32778.25
467.628	33660.93
467.833	34979.82
468.038	34781.17
468.244	34033.66
468.449	36315.09
468.654	34897.9
468.859	34740.21
469.064	35022.83
469.269	34150.39
469.474	34795.5
469.679	35213.29
469.885	34695.15
470.09	35219.43
470.295	34957.29
470.5	34330.61
470.705	34656.24
470.91	33507.33
471.115	33265.67
471.32	33767.42
471.525	33570.82
471.73	32710.67
471.935	32405.52
472.139	31283.23
472.344	31457.31
472.549	31152.16
472.754	30392.37
472.959	30079.03
473.164	28928.07
473.369	28541
473.574	29534.27
473.778	28639.31
473.983	28194.9
474.188	27783.26
474.393	26433.64
474.598	26237.04
474.802	25784.44
475.007	25352.32
475.212	25026.69
475.417	24201.36
475.621	24096.91
475.826	23701.65
476.031	22945.95
476.235	22796.45
476.44	22804.64
476.645	21958.83
476.849	21747.89
477.054	21354.68
477.259	21188.8
477.463	20988.1
477.668	20412.62
477.872	20396.23
478.077	20007.12
478.282	19646.68
478.486	19247.32
478.691	18858.21
478.895	18919.65
479.1	18745.57
479.304	18544.87
479.509	17891.57
479.713	18272.49
479.918	17465.59
480.122	17371.38
480.326	17762.54
480.531	17545.46
480.735	17258.74
480.94	16867.58
481.144	17631.47
481.348	16480.52
481.553	16410.89
481.757	16390.41
481.961	16341.25
482.166	16349.45
482.37	16124.17
482.574	15690
482.778	16019.72
482.983	16021.77
483.187	15575.31
483.391	15737.1
483.595	15270.17
483.8	14905.63
484.004	15470.87
484.208	15325.46
484.412	14809.37
484.616	14852.38
484.821	14647.58
485.025	14092.58
485.229	14344.49
485.433	14098.73
485.637	13947.18
485.841	13822.25
486.045	13445.43
486.249	13631.79
486.453	13220.15
486.657	13142.33
486.861	12984.63
487.065	12628.29
487.269	12577.09
487.473	11966.79
487.677	12124.49
487.881	12298.56
488.085	11784.52
488.289	11587.92
488.493	11415.89
488.697	11508.05
488.901	11131.22
489.105	10645.85
489.309	10783.07
489.512	10611.04
489.716	10340.71
489.92	10113.38
490.124	10150.25
490.328	10156.39
490.531	9503.09
490.735	9607.53
490.939	9388.4
491.143	9245.04
491.346	9038.2
491.55	8972.66
491.754	8788.35
491.958	8636.8
492.161	8454.53
492.365	8491.39
492.569	8036.74
492.772	7975.3
492.976	8135.04
493.18	7997.83
493.383	7989.64
493.587	7637.39
493.79	7823.75
493.994	7471.5
494.197	7469.45
494.401	7623.05
494.605	7307.66
494.808	7373.2
495.012	7459.21
495.215	7111.06
495.419	7223.7
495.622	7078.29
495.825	7184.79
496.029	6992.28
496.232	7070.1
496.436	7070.1
496.639	7276.94
496.843	6953.37
497.046	7053.72
497.249	7160.21
497.453	7235.99
497.656	6939.03
497.859	6979.99
498.063	7215.51
498.266	7182.74
498.469	7078.29
498.673	7213.46
498.876	7184.79
499.079	7311.76
499.282	7195.03
499.485	7557.52
499.689	7330.19
499.892	7367.06
500.095	7371.15
500.298	7518.61
500.501	7328.14
500.705	7584.14
500.908	7707.02
501.111	7969.16
501.314	7809.42
501.517	7985.54
501.72	7856.52
501.923	8026.5
502.126	8225.15
502.329	8495.49
502.532	8348.03
502.735	8475.01
502.938	8714.62
503.141	8624.51
503.344	8606.08
503.547	8923.51
503.75	8810.87
503.953	8978.81
504.156	9202.04
504.359	9443.7
504.562	9353.59
504.765	9742.7
504.968	9826.67
505.17	9970.02
505.373	10035.56
505.576	10269.03
505.779	10479.97
505.982	10410.34
506.185	10840.41
506.387	10953.05
506.59	11274.58
506.793	11583.82
506.996	11430.23
507.198	11960.65
507.401	12079.43
507.604	12167.49
507.807	12769.6
508.009	12886.33
508.212	13095.22
508.415	13222.2
508.617	13594.93
508.82	13848.88
509.022	13824.3
509.225	14551.33
509.428	14829.85
509.63	14874.91
509.833	15245.59
510.035	15888.65
510.238	15902.99
510.44	16296.2
510.643	16806.14
510.845	17195.26
511.048	17447.16
511.25	17690.87
511.453	17850.61
511.655	19026.14
511.858	19216.6
512.06	19544.28
512.262	19980.5
512.465	20015.31
512.667	20795.59
512.87	21143.74
513.072	21821.62
513.274	22386.86
513.477	22630.57
513.679	23414.94
513.881	23830.68
514.084	24330.38
514.286	24873.09
514.488	24983.68
514.69	26445.93
514.893	26163.31
515.095	26914.92
515.297	27465.82
515.499	27664.47
515.701	28627.02
515.904	29427.77
516.106	30124.08
516.308	30699.56
516.51	31293.47
516.712	31621.15
516.914	32102.42
517.116	33234.95
517.318	33810.43
517.52	34301.94
517.722	34617.33
517.925	35571.68
518.127	35819.49
518.329	36884.43
518.531	37375.94
518.733	38010.81
518.935	38809.52
519.136	38893.49
519.338	40146.84
519.54	40607.64
519.742	41324.43
519.944	41271.18
520.146	42510.2
520.348	42821.49
520.55	43714.4
520.752	43698.02
520.954	44699.48
521.155	44502.87
521.357	45391.69
521.559	46063.43
521.761	46333.76
521.963	46806.84
522.164	47210.29
522.366	47896.36
522.568	48365.34
522.77	48273.18
522.971	49434.38
523.173	49092.37
523.375	49493.77
523.576	49528.59
523.778	49927.94
523.98	50403.07
524.181	50466.56
524.383	50743.03
524.584	51343.09
524.786	50953.97
524.988	50646.78
525.189	51357.42
525.391	51605.23
525.592	51715.82
525.794	51572.46
525.995	51375.86
526.197	51603.18
526.398	51633.9
526.6	51855.08
526.801	51570.41
527.003	51109.62
527.204	51056.37
527.406	51369.71
527.607	50845.43
527.808	50620.16
528.01	50140.93
528.211	50114.31
528.412	50380.54
528.614	49514.25
528.815	49465.1
529.016	49755.91
529.218	48643.87
529.419	48351.01
529.62	48062.24
529.822	47451.95
530.023	47277.87
530.224	46624.57
530.425	46348.09
530.626	45471.56
530.828	45160.27
531.029	45061.97
531.23	44228.45
531.431	43833.19
531.632	43738.98
531.833	43335.53
532.035	42622.84
532.236	41940.86
532.437	41678.72
532.638	41168.78
532.839	40912.78
533.04	40413.08
533.241	39638.95
533.442	39913.37
533.643	38930.35
533.844	38301.62
534.045	37574.59
534.246	36943.82
534.447	37050.31
534.648	36163.54
534.849	35979.23
535.05	35061.74
535.251	34883.56
535.451	34422.77
535.652	33726.46
535.853	33484.8
536.054	33089.54
536.255	32641.04
536.456	31961.11
536.657	31733.79
536.857	31107.11
537.058	30750.76
537.259	30947.37
537.46	30447.66
537.66	29610.04
537.861	29384.77
538.062	28950.6
538.263	28715.08
538.463	28143.7
538.664	27875.41
538.865	27338.85
539.065	27414.62
539.266	26695.78
539.466	26687.59
539.667	26099.83
539.868	25903.22
540.068	25686.14
540.269	25380.99
540.469	25163.9
540.67	24811.65
540.87	24733.83
541.071	23959.7
541.271	24041.62
541.472	23746.71
541.672	23408.79
541.873	23097.5
542.073	22319.28
542.274	22542.5
542.474	22374.57
542.675	22036.66
542.875	22040.75
543.075	21696.69
543.276	21008.58
543.476	21440.7
543.676	20586.69
543.877	20717.76
544.077	20580.55
544.277	20193.48
544.478	19890.38
544.678	19820.75
544.878	19665.11
545.078	19450.07
545.279	18862.3
545.479	18548.96
545.679	18616.55
545.879	18366.7
546.079	18335.98
546.28	18069.74
546.48	17762.54
546.68	17883.38
546.88	17334.52
547.08	17244.41
547.28	17094.91
547.48	16732.42
547.68	16660.74
547.88	16398.6
548.081	16378.12
548.281	16152.84
548.481	15763.73
548.681	15438.1
548.881	15644.95
549.081	15249.69
549.28	14854.43
549.48	14733.6
549.68	14635.3
549.88	14602.53
550.08	14074.15
550.28	13963.56
550.48	13771.05
550.68	13916.46
550.88	13576.5
551.08	13052.22
551.279	13068.6
551.479	12839.23
551.679	12876.09
551.879	12441.92
552.079	12243.27
552.278	12153.16
552.478	12015.94
552.678	11770.19
552.878	11671.89
553.077	11497.81
553.277	11188.57
553.477	11266.39
553.676	10991.96
553.876	11012.44
554.076	10549.6
554.275	10359.14
554.475	10248.55
554.674	10332.51
554.874	10088.81
555.074	9847.15
555.273	9742.7
555.473	9554.29
555.672	9345.39
555.872	9318.77
556.071	9202.04
556.271	9105.78
556.47	8989.05
556.67	8542.59
556.869	8505.73
557.068	8466.81
557.268	8284.55
557.467	8282.5
557.667	8092.04
557.866	7926.15
558.065	7549.32
558.265	7455.12
558.464	7451.02
558.663	7524.75
558.863	7256.47
559.062	7293.33
559.261	6947.22
559.461	7137.68
559.66	6746.52
559.859	6541.72
560.058	6480.29
560.258	6519.2
560.457	6343.07
560.656	6338.98
560.855	6048.16
561.054	6105.51
561.253	6054.31
561.453	6097.31
561.652	5872.04
561.851	5761.45
562.05	5568.94
562.249	5591.47
562.448	5620.14
562.647	5284.27
562.846	5280.18
563.045	5339.57
563.244	5001.65
563.443	5130.67
563.642	4827.57
563.841	4919.73
564.04	4811.19
564.239	4747.7
564.438	4719.03
564.637	4710.84
564.836	4377.02
565.035	4516.28
565.234	4358.59
565.432	4422.08
565.631	4403.64
565.83	4157.89
566.029	4159.94
566.228	4108.74
566.427	4194.75
566.625	3828.17
566.824	3987.91
567.023	3895.75
567.222	3930.56
567.42	3727.82
567.619	3750.34
567.818	3631.56
568.016	3850.69
568.215	3547.59
568.414	3465.68
568.612	3592.65
568.811	3334.61
569.01	3416.52
569.208	3310.03
569.407	3236.3
569.605	3148.24
569.804	3267.02
570.002	3201.49
570.201	3070.42
570.4	2970.07
570.598	2998.74
570.797	3035.6
570.995	2845.14
571.193	3027.41
571.392	2892.24
571.59	2781.65
571.789	2810.33
571.987	2726.36
572.186	2697.69
572.384	2664.92
572.582	2570.71
572.781	2613.72
572.979	2439.64
573.177	2460.12
573.376	2425.31
573.574	2367.96
573.772	2382.3
573.971	2275.81
574.169	2281.95
574.367	2134.5
574.565	2394.59
574.763	2212.32
574.962	2232.8
575.16	2095.58
575.358	2042.34
575.556	2025.95
575.754	2120.16
575.952	1956.32
576.151	1907.17
576.349	1972.71
576.547	1839.59
576.745	1872.36
576.943	1933.79
577.141	1868.26
577.339	1774.05
577.537	1726.95
577.735	1831.4
577.933	1837.54
578.131	1679.85
578.329	1778.15
578.527	1620.46
578.725	1765.86
578.923	1399.27
579.121	1640.93
579.319	1329.64
579.516	1477.1
579.714	1784.29
579.912	1466.86
580.11	1331.69
580.308	1460.71
580.506	1395.18
580.704	1200.62
580.901	1171.95
581.099	1409.51
581.297	1362.41
581.495	1278.44
581.692	1274.35
581.89	1356.27
582.088	1210.86
582.285	1178.09
582.483	1169.9
582.681	1133.04
582.878	1130.99
583.076	1100.27
583.274	1184.24
583.471	1202.67
583.669	1071.6
583.866	1092.08
584.064	1028.59
584.262	938.48
584.459	1004.02
584.657	1034.74
584.854	1110.51
585.052	1030.64
585.249	979.44
585.447	981.49
585.644	905.71
585.841	1036.78
586.039	993.78
586.236	1016.3
586.434	848.37
586.631	840.18
586.828	801.27
587.026	918
587.223	821.75
587.42	786.93
587.618	856.56
587.815	856.56
588.012	786.93
588.21	815.6
588.407	762.36
588.604	825.84
588.801	760.31
588.999	803.32
589.196	813.56
589.393	721.4
589.59	690.68
589.787	866.8
589.984	807.41
590.182	700.92
590.379	623.09
590.576	754.16
590.773	670.2
590.97	694.77
591.167	784.88
591.364	711.16
591.561	702.97
591.758	786.93
591.955	768.5
592.152	592.37
592.349	678.39
592.546	682.49
592.743	713.21
592.94	641.53
593.137	731.64
593.334	729.59
593.531	803.32
593.727	709.11
593.924	680.44
594.121	633.33
594.318	662.01
594.515	676.34
594.712	842.23
594.908	877.04
595.105	631.29
595.302	723.44
595.499	647.67
595.696	879.09
595.892	715.25
596.089	825.84
596.286	784.88
596.482	905.71
596.679	911.86
596.876	854.51
597.072	940.53
597.269	924.15
597.466	889.33
597.662	842.23
597.859	934.39
598.055	1055.22
598.252	1036.78
598.448	1065.46
598.645	1053.17
598.841	1071.6
599.038	1315.31
599.234	1241.58
599.431	1233.39
599.627	1268.2
599.824	1409.51
600.02	1280.49
600.217	1325.55
600.413	1491.43
600.609	1536.49
600.806	1788.39
601.002	1569.26
601.198	1573.35
601.395	1733.09
601.591	1745.38
601.787	1847.78
601.984	1960.42
602.18	2038.24
602.376	2064.86
602.572	2245.09
602.769	2296.28
602.965	2376.16
603.161	2402.78
603.357	2421.21
603.553	2619.86
603.75	2548.19
603.946	2650.58
604.142	2681.3
604.338	2904.53
604.534	3015.12
604.73	3078.61
604.926	3168.72
605.122	3314.13
605.318	3301.84
605.514	3527.11
605.71	3523.02
605.906	3811.78
606.102	3686.86
606.298	3903.94
606.494	3979.72
606.69	4170.18
606.886	4315.58
607.082	4297.15
607.278	4331.97
607.474	4530.62
607.67	4725.18
607.866	4780.47
608.062	5165.49
608.257	5054.9
608.453	5231.02
608.649	5341.61
608.845	5446.06
609.041	5691.82
609.236	6101.41
609.432	6191.52
609.628	6138.27
609.824	6291.87
610.019	6521.24
610.215	6764.95
610.411	6900.12
610.606	7139.73
610.802	7006.61
610.998	7266.71
611.193	7641.48
611.389	7643.53
611.584	7997.83
611.78	8182.15
611.976	8409.47
612.171	8661.37
612.367	8946.04
612.562	8989.05
612.758	8917.37
612.953	9355.63
613.149	9711.98
613.344	9927.02
613.539	10408.29
613.735	10645.85
613.93	10867.03
614.126	10975.58
614.321	11454.8
614.517	11606.35
614.712	11966.79
614.907	12212.55
615.103	12788.03
615.298	12681.53
615.493	13095.22
615.688	13447.47
615.884	13928.75
616.079	14227.75
616.274	14844.19
616.47	14659.87
616.665	15542.55
616.86	15415.57
617.055	15929.61
617.25	16294.15
617.445	16990.46
617.641	17099
617.836	17754.35
618.031	17783.02
618.226	18604.26
618.421	18782.43
618.616	19452.12
618.811	19767.51
619.006	20779.2
619.201	20492.49
619.396	21211.32
619.591	21231.8
619.786	22352.04
619.981	22241.45
620.176	22964.39
620.371	23148.7
620.566	23857.3
620.761	24170.64
620.956	24656.01
621.151	25053.31
621.346	26048.63
621.541	26081.39
621.735	27091.04
621.93	27093.09
622.125	27754.58
622.32	27750.49
622.515	28868.68
622.709	29136.96
622.904	29888.57
623.099	30404.66
623.294	30916.65
623.488	30951.46
623.683	31954.97
623.878	32100.37
624.072	33026.06
624.267	33099.78
624.462	33380.35
624.656	34125.82
624.851	34854.89
625.046	35434.47
625.24	35891.16
625.435	35868.64
625.629	36736.98
625.824	37234.63
626.018	37179.34
626.213	37658.56
626.407	38883.25
626.602	38379.45
626.796	39407.53
626.991	39514.02
627.185	40007.58
627.38	40243.1
627.574	40753.04
627.768	40097.69
627.963	40980.37
628.157	40499.09
628.352	41174.92
628.546	40560.53
628.74	41131.92
628.935	40798.1
629.129	40900.5
629.323	40562.58
629.517	40896.4
629.712	40294.3
629.906	39909.28
630.1	39253.93
630.294	39720.87
630.489	38672.31
630.683	38434.74
630.877	37693.38
631.071	37279.69
631.265	36632.53
631.459	35999.71
631.653	34899.95
631.848	34594.8
632.042	33634.3
632.236	33150.98
632.43	31655.96
632.624	31430.69
632.818	30238.77
633.012	29155.4
633.206	28325.97
633.4	27656.28
633.594	26462.32
633.788	25806.97
633.982	24981.63
634.176	24037.52
634.369	23132.32
634.563	22247.6
634.757	21280.96
634.951	20574.41
635.145	19593.43
635.339	19294.43
635.533	18010.35
635.726	17791.22
635.92	16802.05
636.114	16279.82
636.308	15247.64
636.501	14987.55
636.695	14303.53
636.889	13472.05
637.083	13359.41
637.276	12486.98
637.47	11927.88
637.664	11622.73
637.857	11178.33
638.051	10608.99
638.244	10432.86
638.438	9914.73
638.632	9509.23
638.825	8888.7
639.019	8855.93
639.212	8556.93
639.406	8040.84
639.599	7678.35
639.793	7362.96
639.986	7100.82
640.18	6975.89
640.373	6515.1
640.567	6183.33
640.76	6158.75
640.954	5753.26
641.147	5540.27
641.34	5470.64
641.534	5140.91
641.727	5122.48
641.92	4911.54
642.114	4700.6
642.307	4483.52
642.5	4426.17
642.694	4057.54
642.887	4004.29
643.08	3930.56
643.273	3719.62
643.467	3553.74
643.66	3492.3
643.853	3209.68
644.046	3144.14
644.239	3127.76
644.432	2882
644.626	2789.85
644.819	2646.49
645.012	2732.5
645.205	2505.18
645.398	2445.79
645.591	2277.85
645.784	2236.89
645.977	2089.44
646.17	2060.77
646.363	1872.36
646.556	1896.93
646.749	1810.92
646.942	1798.63
647.135	1817.06
647.328	1616.36
647.521	1540.58
647.714	1470.95
647.907	1591.78
648.099	1378.79
648.292	1364.46
648.485	1350.12
648.678	1317.36
648.871	1217.01
649.064	1137.13
649.256	1155.57
649.449	1018.35
649.642	1038.83
649.835	961.01
650.027	885.23
650.22	930.29
650.413	922.1
650.605	958.96
650.798	838.13
650.991	786.93
651.183	729.59
651.376	694.77
651.568	862.71
651.761	641.53
651.954	723.44
652.146	567.8
652.339	758.26
652.531	653.81
652.724	575.99
652.916	518.65
653.109	506.36
653.301	678.39
653.494	621.05
653.686	586.23
653.879	655.86
654.071	602.61
654.263	494.07
654.456	459.26
654.648	522.74
654.84	514.55
655.033	416.25
655.225	492.02
655.417	320
655.61	575.99
655.802	438.78
655.994	420.35
656.186	229.88
656.379	514.55
656.571	326.14
656.763	276.99
656.955	305.66
657.148	291.32
657.34	420.35
657.532	332.28
657.724	340.47
657.916	344.57
658.108	397.82
658.3	344.57
658.492	287.23
658.684	313.85
658.876	291.32
659.068	203.26
659.26	186.88
659.452	195.07
659.644	297.47
659.836	352.76
660.028	336.38
660.22	309.76
660.412	205.31
660.604	227.84
660.796	297.47
660.988	258.56
661.18	266.75
661.372	301.56
661.563	332.28
661.755	233.98
661.947	113.15
662.139	242.17
662.331	266.75
662.522	145.92
662.714	98.81
662.906	82.43
663.097	131.58
663.289	201.21
663.481	39.42
663.673	252.41
663.864	98.81
664.056	221.69
664.247	229.88
664.439	328.19
664.631	248.32
664.822	276.99
665.014	223.74
665.205	131.58
665.397	125.44
665.588	201.21
665.78	205.31
665.971	207.36
666.163	129.53
666.354	211.45
666.546	164.35
666.737	190.97
666.929	72.19
667.12	162.3
667.311	201.21
667.503	236.03
667.694	160.25
667.885	174.59
668.077	281.08
668.268	135.68
668.459	197.12
668.651	295.42
668.842	168.45
669.033	125.44
669.224	127.49
669.416	356.86
669.607	123.39
669.798	137.73
669.989	215.55
670.18	193.02
670.371	250.36
670.563	158.21
670.754	289.28
670.945	242.17
671.136	205.31
671.327	121.34
671.518	256.51
671.709	313.85
671.9	227.84
672.091	240.12
672.282	172.54
672.473	276.99
672.664	123.39
672.855	197.12
673.046	197.12
673.237	213.5
673.428	156.16
673.619	229.88
673.809	190.97
674	203.26
674.191	311.8
674.382	182.78
674.573	205.31
674.764	188.93
674.954	324.09
675.145	143.87
675.336	201.21
675.527	186.88
675.717	217.6
675.908	178.69
676.099	213.5
676.289	225.79
676.48	195.07
676.671	211.45
676.861	150.01
677.052	313.85
677.243	260.6
677.433	231.93
677.624	307.71
677.814	260.6
678.005	236.03
678.195	375.29
678.386	119.29
678.576	233.98
678.767	186.88
678.957	158.21
679.148	270.84
679.338	346.62
679.529	281.08
679.719	219.64
679.909	406.01
680.1	346.62
680.29	356.86
680.481	215.55
680.671	311.8
680.861	356.86
681.052	299.52
681.242	221.69
681.432	340.47
681.622	213.5
681.813	233.98
682.003	363
682.193	231.93
682.383	305.66
682.573	297.47
682.764	369.15
682.954	436.73
683.144	348.67
683.334	279.04
683.524	322.04
683.714	434.68
683.904	303.61
684.094	301.56
684.284	231.93
684.474	504.31
684.664	455.16
684.854	408.06
685.044	256.51
685.234	307.71
685.424	299.52
685.614	309.76
685.804	442.87
685.994	299.52
686.184	354.81
686.374	461.3
686.564	391.67
686.753	350.71
686.943	317.95
687.133	336.38
687.323	344.57
687.513	342.52
687.702	358.91
687.892	307.71
688.082	393.72
688.272	395.77
688.461	399.87
688.651	500.22
688.841	342.52
689.03	250.36
689.22	233.98
689.41	426.49
689.599	332.28
689.789	293.37
689.979	373.24
690.168	281.08
690.358	336.38
690.547	328.19
690.737	324.09
690.926	313.85
691.116	340.47
691.305	379.39
691.495	399.87
691.684	270.84
691.874	250.36
692.063	326.14
692.252	326.14
692.442	340.47
692.631	305.66
692.82	264.7
693.01	369.15
693.199	250.36
693.388	350.71
693.578	250.36
693.767	272.89
693.956	291.32
694.146	246.27
694.335	397.82
694.524	266.75
694.713	371.19
694.902	268.8
695.092	252.41
695.281	346.62
695.47	358.91
695.659	285.18
695.848	270.84
696.037	180.73
696.226	377.34
696.415	346.62
696.604	379.39
696.793	324.09
696.982	246.27
697.171	426.49
697.36	256.51
697.549	199.16
697.738	201.21
697.927	260.6
698.116	207.36
698.305	305.66
698.494	336.38
698.683	336.38
698.872	442.87
699.061	229.88
699.25	242.17
699.438	285.18
699.627	287.23
699.816	434.68
700.005	125.44
700.193	217.6
700.382	363
700.571	260.6
700.76	307.71
700.948	344.57
701.137	342.52
701.326	332.28
701.514	147.97
701.703	377.34
701.892	246.27
702.08	453.11
702.269	233.98
702.457	209.4
702.646	276.99
702.834	225.79
703.023	451.07
703.212	281.08
703.4	328.19
703.589	268.8
703.777	248.32
703.965	293.37
704.154	291.32
704.342	180.73
704.531	205.31
704.719	305.66
704.907	354.81
705.096	195.07
705.284	270.84
705.472	297.47
705.661	211.45
705.849	311.8
706.037	354.81
706.226	299.52
706.414	256.51
706.602	256.51
706.79	268.8
706.979	129.53
707.167	344.57
707.355	137.73
707.543	334.33
707.731	262.65
707.919	225.79
708.107	238.08
708.296	186.88
708.484	174.59
708.672	348.67
708.86	272.89
709.048	307.71
709.236	199.16
709.424	299.52
709.612	299.52
709.8	205.31
709.988	242.17
710.176	330.23
710.364	371.19
710.551	303.61
710.739	199.16
710.927	303.61
711.115	320
711.303	311.8
711.491	377.34
711.679	197.12
711.866	320
712.054	352.76
712.242	340.47
712.43	324.09
712.617	295.42
712.805	317.95
712.993	262.65
713.181	184.83
713.368	174.59
713.556	389.63
713.744	272.89
713.931	500.22
714.119	363
714.306	324.09
714.494	272.89
714.682	240.12
714.869	186.88
715.057	233.98
715.244	123.39
715.432	274.94
715.619	250.36
715.807	211.45
715.994	334.33
716.182	358.91
716.369	340.47
716.556	303.61
716.744	205.31
716.931	205.31
717.119	336.38
717.306	322.04
717.493	315.9
717.681	201.21
717.868	221.69
718.055	227.84
718.242	166.4
718.43	371.19
718.617	401.91
718.804	365.05
718.991	397.82
719.179	301.56
719.366	328.19
719.553	330.23
719.74	291.32
719.927	240.12
720.114	295.42
720.301	252.41
720.488	330.23
720.676	297.47
720.863	363
721.05	492.02
721.237	264.7
721.424	434.68
721.611	313.85
721.798	203.26
721.985	246.27
722.172	221.69
722.358	205.31
722.545	360.95
722.732	434.68
722.919	383.48
723.106	324.09
723.293	307.71
723.48	344.57
723.667	266.75
723.853	418.3
724.04	336.38
724.227	485.88
724.414	258.56
724.6	358.91
724.787	414.2
724.974	399.87
725.161	332.28
725.347	240.12
725.534	299.52
725.72	422.39
725.907	430.59
726.094	393.72
726.28	268.8
726.467	387.58
726.653	227.84
726.84	399.87
727.027	451.07
727.213	240.12
727.4	340.47
727.586	320
727.773	320
727.959	311.8
728.145	332.28
728.332	242.17
728.518	262.65
728.705	369.15
728.891	279.04
729.077	336.38
729.264	309.76
729.45	365.05
729.636	416.25
729.823	358.91
730.009	403.96
730.195	436.73
730.382	383.48
730.568	328.19
730.754	367.1
730.94	332.28
731.126	330.23
731.313	379.39
731.499	375.29
731.685	391.67
731.871	432.63
732.057	389.63
732.243	317.95
732.429	342.52
732.615	426.49
732.801	432.63
732.987	385.53
733.173	363
733.359	244.22
733.545	342.52
733.731	291.32
733.917	389.63
734.103	352.76
734.289	406.01
734.475	340.47
734.661	492.02
734.847	344.57
735.033	377.34
735.219	352.76
735.404	367.1
735.59	297.47
735.776	307.71
735.962	334.33
736.148	391.67
736.333	391.67
736.519	358.91
736.705	365.05
736.89	389.63
737.076	401.91
737.262	340.47
737.447	217.6
737.633	342.52
737.819	467.45
738.004	367.1
738.19	246.27
738.375	360.95
738.561	389.63
738.747	324.09
738.932	334.33
739.118	434.68
739.303	526.84
739.489	383.48
739.674	330.23
739.859	326.14
740.045	408.06
740.23	334.33
740.416	264.7
740.601	344.57
740.786	315.9
740.972	281.08
741.157	295.42
741.342	250.36
741.528	268.8
741.713	389.63
741.898	391.67
742.084	262.65
742.269	344.57
742.454	356.86
742.639	367.1
742.824	354.81
743.01	440.83
743.195	395.77
743.38	440.83
743.565	348.67
743.75	338.43
743.935	315.9
744.12	393.72
744.305	313.85
744.49	350.71
744.675	338.43
744.86	393.72
745.045	387.58
745.23	403.96
745.415	352.76
745.6	432.63
745.785	293.37
745.97	463.35
746.155	385.53
746.34	401.91
746.525	381.43
746.71	430.59
746.895	246.27
747.079	276.99
747.264	270.84
747.449	369.15
747.634	334.33
747.819	403.96
748.003	240.12
748.188	272.89
748.373	342.52
748.557	256.51
748.742	336.38
748.927	338.43
749.111	246.27
749.296	305.66
749.481	340.47
749.665	299.52
749.85	229.88
750.034	270.84
750.219	291.32
750.404	279.04
750.588	320
750.773	186.88
750.957	279.04
751.141	248.32
751.326	289.28
751.51	215.55
751.695	279.04
751.879	225.79
752.064	356.86
752.248	193.02
752.432	352.76
752.617	256.51
752.801	254.46
752.985	209.4
753.17	334.33
753.354	299.52
753.538	279.04
753.722	240.12
753.907	219.64
754.091	150.01
754.275	244.22
754.459	172.54
754.643	80.38
754.828	256.51
755.012	328.19
755.196	113.15
755.38	264.7
755.564	276.99
755.748	309.76
755.932	295.42
756.116	295.42
756.3	266.75
756.484	182.78
756.668	252.41
756.852	37.38
757.036	205.31
757.22	172.54
757.404	111.1
757.588	188.93
757.772	295.42
757.956	129.53
758.14	272.89
758.323	154.11
758.507	242.17
758.691	178.69
758.875	147.97
759.059	289.28
759.242	174.59
759.426	176.64
759.61	219.64
759.794	139.77
759.977	246.27
760.161	395.77
760.345	248.32
760.528	270.84
760.712	225.79
760.895	180.73
761.079	158.21
761.263	147.97
761.446	186.88
761.63	236.03
761.813	240.12
761.997	129.53
762.18	131.58
762.364	102.91
762.547	23.04
762.731	137.73
762.914	231.93
763.098	92.67
763.281	152.06
763.464	176.64
763.648	205.31
763.831	131.58
764.015	104.96
764.198	199.16
764.381	135.68
764.564	221.69
764.748	135.68
764.931	184.83
765.114	102.91
765.297	121.34
765.481	23.04
765.664	68.09
765.847	57.86
766.03	299.52
766.213	115.2
766.397	158.21
766.58	131.58
766.763	135.68
766.946	43.52
767.129	51.71
767.312	94.72
767.495	170.49
767.678	74.24
767.861	225.79
768.044	135.68
768.227	123.39
768.41	80.38
768.593	80.38
768.776	133.63
768.959	33.28
769.142	246.27
769.324	135.68
769.507	182.78
769.69	39.42
769.873	64
770.056	197.12
770.239	197.12
770.421	170.49
770.604	131.58
770.787	125.44
770.97	213.5
771.152	39.42
771.335	203.26
771.518	-19.97
771.7	188.93
771.883	199.16
772.066	92.67
772.248	129.53
772.431	236.03
772.613	147.97
772.796	23.04
772.978	156.16
773.161	225.79
773.343	100.86
773.526	55.81
773.708	25.09
773.891	31.23
774.073	145.92
774.256	66.05
774.438	188.93
774.621	-67.07
774.803	96.77
774.985	127.49
775.168	180.73
775.35	84.48
775.532	162.3
775.715	27.14
775.897	125.44
776.079	55.81
776.261	82.43
776.444	86.53
776.626	92.67
776.808	72.19
776.99	0.51
777.173	125.44
777.355	27.14
777.537	39.42
777.719	92.67
777.901	84.48
778.083	35.33
778.265	104.96
778.447	188.93
778.629	47.62
778.811	135.68
778.993	18.94
779.175	66.05
779.357	86.53
779.539	25.09
779.721	113.15
779.903	74.24
780.085	29.18
780.267	45.57
780.449	39.42
780.631	125.44
780.812	170.49
780.994	72.19
781.176	86.53
781.358	16.9
781.54	-22.02
781.721	111.1
781.903	119.29
782.085	-30.21
782.267	150.01
782.448	18.94
782.63	14.85
782.812	156.16
782.993	55.81
783.175	74.24
783.357	82.43
783.538	39.42
783.72	-3.58
783.901	61.95
784.083	88.57
784.264	86.53
784.446	16.9
784.627	-60.93
784.809	100.86
784.99	39.42
785.172	51.71
785.353	25.09
785.535	25.09
785.716	-36.35
785.897	20.99
786.079	10.75
786.26	53.76
786.441	96.77
786.623	-83.45
786.804	-1.54
786.985	16.9
787.167	35.33
787.348	8.7
787.529	39.42
787.71	197.12
787.891	0.51
788.073	49.66
788.254	-9.73
788.435	174.59
788.616	72.19
788.797	43.52
788.978	37.38
789.159	39.42
789.34	61.95
789.522	20.99
789.703	-15.87
789.884	-3.58
790.065	43.52
790.246	135.68
790.427	-28.16
790.607	213.5
790.788	86.53
790.969	-30.21
791.15	49.66
791.331	-13.82
791.512	23.04
791.693	-24.06
791.874	-75.26
792.054	154.11
792.235	80.38
792.416	-3.58
792.597	-30.21
792.778	14.85
792.958	57.86
793.139	72.19
793.32	10.75
793.5	-77.31
793.681	98.81
793.862	111.1
794.042	64
794.223	-22.02
794.404	47.62
794.584	-11.78
794.765	31.23
794.945	33.28
795.126	127.49
795.306	88.57
795.487	80.38
795.667	-26.11
795.848	80.38
796.028	23.04
796.209	66.05
796.389	20.99
796.57	6.66
796.75	27.14
796.93	76.29
797.111	0.51
797.291	-32.26
797.471	98.81
797.652	29.18
797.832	12.8
798.012	55.81
798.192	61.95
798.373	-75.26
798.553	-24.06
798.733	74.24
798.913	-34.3
799.093	-79.36
799.274	64
799.454	80.38
799.634	27.14
799.814	61.95
799.994	102.91
800.174	57.86
800.354	23.04
800.534	4.61
800.714	20.99
800.894	-65.02
801.074	-32.26
801.254	-9.73
801.434	59.9
801.614	-7.68
801.794	-48.64
801.974	1761.77
802.154	-40.45
802.334	18.94
802.514	-50.69
802.693	2.56
802.873	-15.87
803.053	80.38
803.233	53.76
803.413	23.04
803.592	0.51
803.772	-9.73
803.952	47.62
804.131	-126.46
804.311	92.67
804.491	64
804.67	-26.11
804.85	-69.12
805.03	16.9
805.209	74.24
805.389	-50.69
805.568	-17.92
805.748	18.94
805.928	53.76
806.107	-11.78
806.287	47.62
806.466	20.99
806.646	2.56
806.825	-11.78
807.004	45.57
807.184	64
807.363	121.34
807.543	76.29
807.722	0.51
807.901	84.48
808.081	102.91
808.26	-91.65
808.439	-3.58
808.619	41.47
808.798	-62.98
808.977	23.04
809.156	90.62
809.336	29.18
809.515	104.96
809.694	-75.26
809.873	-22.02
810.052	-11.78
810.231	117.25
810.411	4.61
810.59	100.86
810.769	-34.3
810.948	86.53
811.127	-87.55
811.306	29.18
811.485	-46.59
811.664	164.35
811.843	51.71
812.022	2.56
812.201	-71.17
812.38	-42.5
812.559	-26.11
812.737	14.85
812.916	-52.74
813.095	-38.4
813.274	4.61
813.453	37.38
813.632	78.33
813.811	18.94
813.989	-67.07
814.168	51.71
814.347	-126.46
814.526	39.42
814.704	49.66
814.883	92.67
815.062	-85.5
815.24	100.86
815.419	-24.06
815.598	47.62
815.776	-60.93
815.955	23.04
816.133	-105.98
816.312	16.9
816.49	-42.5
816.669	23.04
816.847	-58.88
817.026	49.66
817.204	39.42
817.383	-26.11
817.561	-81.41
817.74	-97.79
817.918	-1.54
818.097	-56.83
818.275	-5.63
818.453	78.33
818.632	31.23
818.81	27.14
818.988	-9.73
819.167	23.04
819.345	-11.78
819.523	-91.65
819.701	-65.02
819.879	29.18
820.058	4.61
820.236	18.94
820.414	23.04
820.592	-28.16
820.77	-50.69
820.948	-101.89
821.127	-73.21
821.305	20.99
821.483	-32.26
821.661	78.33
821.839	-3.58
822.017	6.66
822.195	-50.69
822.373	88.57
822.551	57.86
822.729	39.42
822.907	-13.82
823.085	14.85
823.262	-5.63
823.44	0.51
823.618	-73.21
823.796	33.28
823.974	-38.4
824.152	43.52
824.329	37.38
824.507	16.9
824.685	115.2
824.863	-17.92
825.04	-5.63
825.218	96.77
825.396	16.9
825.574	-19.97
825.751	20.99
825.929	59.9
826.107	-65.02
826.284	37.38
826.462	55.81
826.639	-73.21
826.817	-44.54
826.994	-1.54
827.172	-60.93
827.349	86.53
827.527	45.57
827.704	66.05
827.882	90.62
828.059	-19.97
828.237	18.94
828.414	96.77
828.591	-151.04
828.769	0.51
828.946	-112.13
829.124	111.1
829.301	125.44
829.478	41.47
829.655	-44.54
829.833	70.14
830.01	-112.13
830.187	39.42
830.364	-22.02
830.542	-1.54
830.719	119.29
830.896	4.61
831.073	100.86
831.25	12.8
831.427	66.05
831.604	-26.11
831.782	-40.45
831.959	82.43
832.136	-99.84
832.313	55.81
832.49	-79.36
832.667	-38.4
832.844	-101.89
833.021	59.9
833.198	43.52
833.374	104.96
833.551	18.94
833.728	27.14
833.905	14.85
834.082	-58.88
834.259	12.8
834.436	131.58
834.612	-71.17
834.789	70.14
834.966	37.38
835.143	41.47
835.319	-128.51
835.496	37.38
835.673	6.66
835.85	31.23
836.026	25.09
836.203	147.97
836.38	18.94
836.556	-1.54
836.733	27.14
836.909	66.05
837.086	25.09
837.262	-108.03
837.439	25.09
837.616	-42.5
837.792	45.57
837.968	-15.87
838.145	20.99
838.321	-65.02
838.498	10.75
838.674	64
838.851	-1.54
839.027	-5.63
839.203	45.57
839.38	61.95
839.556	-28.16
839.732	53.76
839.909	0.51
840.085	59.9
840.261	-9.73
840.437	-46.59
840.614	-65.02
840.79	76.29
840.966	84.48
841.142	-22.02
841.318	86.53
841.494	12.8
841.671	8.7
841.847	-22.02
842.023	-89.6
842.199	-32.26
842.375	78.33
842.551	-44.54
842.727	-71.17
842.903	102.91
843.079	-77.31
843.255	41.47
843.431	14.85
843.607	14.85
843.783	-122.37
843.959	-1.54
844.134	-54.78
844.31	107.01
844.486	-34.3
844.662	-56.83
844.838	-17.92
845.013	12.8
845.189	31.23
845.365	39.42
845.541	-1.54
845.716	-58.88
845.892	123.39
846.068	-87.55
846.244	-58.88
846.419	4.61
846.595	-56.83
846.77	-38.4
846.946	12.8
847.122	35.33
847.297	-3.58
847.473	135.68
847.648	-30.21
847.824	16.9
847.999	-142.85
848.175	37.38
848.35	80.38
848.526	129.53
848.701	37.38
848.876	64
849.052	82.43
849.227	-87.55
849.403	-1.54
849.578	-17.92
849.753	45.57
849.929	18.94
850.104	-65.02
850.279	-9.73
850.454	16.9
850.63	94.72
850.805	45.57
850.98	25.09
851.155	-22.02
851.33	31.23
851.505	-89.6
851.681	57.86
851.856	-44.54
852.031	10.75
852.206	-17.92
852.381	-69.12
852.556	-58.88
852.731	-22.02
852.906	53.76
853.081	6.66
853.256	96.77
853.431	27.14
853.606	-17.92
853.781	-42.5
853.956	-124.41
854.131	-3.58
854.305	-40.45
854.48	-3.58
854.655	-118.27
854.83	-48.64
855.005	-26.11
855.18	-32.26
855.354	-9.73
855.529	-17.92
855.704	12.8
855.879	-3.58
856.053	-99.84
856.228	35.33
856.403	-95.74
856.577	68.09
856.752	-89.6
856.926	-19.97
857.101	20.99
857.276	-54.78
857.45	35.33
857.625	-13.82
857.799	-44.54
857.974	41.47
858.148	-44.54
858.323	16.9
858.497	-1.54
858.672	-105.98
858.846	-58.88
859.02	29.18
859.195	-36.35
859.369	14.85
859.543	31.23
859.718	-30.21
859.892	20.99
860.066	-26.11
860.241	-52.74
860.415	-34.3
860.589	10.75
860.763	12.8
860.938	-52.74
861.112	-26.11
861.286	-103.93
861.46	59.9
861.634	4.61
861.808	94.72
861.982	-73.21
862.157	-22.02
862.331	-60.93
862.505	-108.03
862.679	-62.98
862.853	4.61
863.027	-75.26
863.201	96.77
863.375	20.99
863.549	-13.82
863.722	107.01
863.896	98.81
864.07	-26.11
864.244	-91.65
864.418	64
864.592	-26.11
864.766	-13.82
864.939	6.66
865.113	-44.54
865.287	82.43
865.461	-44.54
865.634	8.7
865.808	-42.5
865.982	-28.16
866.156	-62.98
866.329	-105.98
866.503	20.99
866.676	-69.12
866.85	23.04
867.024	-56.83
867.197	35.33
867.371	43.52
867.544	-26.11
867.718	-44.54
867.891	10.75
868.065	-122.37
868.238	-81.41
868.412	111.1
868.585	2.56
868.759	-17.92
868.932	6.66
869.105	-65.02
869.279	33.28
869.452	-116.22
869.625	18.94
869.799	-73.21
869.972	-87.55
870.145	-32.26
870.319	57.86
870.492	-97.79
870.665	-13.82
870.838	45.57
871.011	-155.13
871.185	-17.92
871.358	-50.69
871.531	47.62
871.704	-60.93
871.877	8.7
872.05	27.14
872.223	-116.22
872.396	-7.68
872.569	33.28
872.742	-44.54
872.915	-30.21
873.088	-69.12
873.261	-62.98
873.434	57.86
873.607	-40.45
873.78	16.9
873.953	-65.02
874.126	80.38
874.299	-30.21
874.471	-40.45
874.644	-36.35
874.817	107.01
874.99	104.96
875.163	-79.36
875.335	68.09
875.508	84.48
875.681	31.23
875.853	-120.32
876.026	-36.35
876.199	18.94
876.371	4.61
876.544	-44.54
876.717	-15.87
876.889	57.86
877.062	102.91
877.234	20.99
877.407	-93.69
877.579	-30.21
877.752	0.51
877.924	29.18
878.097	25.09
878.269	-24.06
878.442	-26.11
878.614	61.95
878.786	-44.54
878.959	16.9
879.131	-7.68
879.303	-101.89
879.476	27.14
879.648	78.33
879.82	43.52
879.993	-60.93
880.165	-65.02
880.337	-134.65
880.509	-73.21
880.681	-142.85
880.854	49.66
881.026	137.73
881.198	45.57
881.37	-52.74
881.542	-58.88
881.714	-22.02
881.886	23.04
882.058	20.99
882.23	8.7
882.402	0.51
882.574	-15.87
882.746	4.61
882.918	94.72
883.09	64
883.262	39.42
883.434	18.94
883.606	-134.65
883.778	-48.64
883.95	129.53
884.122	-36.35
884.293	111.1
884.465	-89.6
884.637	20.99
884.809	-60.93
884.98	-26.11
885.152	35.33
885.324	27.14
885.496	-3.58
885.667	-34.3
885.839	-15.87
886.011	88.57
886.182	2.56
886.354	104.96
886.525	-19.97
886.697	16.9
886.869	-89.6
887.04	-85.5
887.212	41.47
887.383	154.11
887.555	68.09
887.726	-69.12
887.897	-38.4
888.069	-17.92
888.24	76.29
888.412	8.7
888.583	-17.92
888.754	12.8
888.926	-148.99
889.097	-89.6
889.268	-89.6
889.44	-7.68
889.611	-58.88
889.782	-46.59
889.953	-17.92
890.125	78.33
890.296	-122.37
890.467	-91.65
890.638	-134.65
890.809	-75.26
890.98	-79.36
891.151	18.94
891.323	117.25
891.494	-38.4
891.665	-40.45
891.836	-3.58
892.007	8.7
892.178	2.56
892.349	-38.4
892.52	-91.65
892.691	6.66
892.862	-79.36
893.032	-38.4
893.203	-87.55
893.374	-38.4
893.545	119.29
893.716	-11.78
893.887	45.57
894.057	-46.59
894.228	37.38
894.399	-77.31
894.57	39.42
894.74	-17.92
894.911	39.42
895.082	-54.78
895.253	-95.74
895.423	37.38
895.594	31.23
895.764	25.09
895.935	-122.37
896.106	8.7
896.276	-50.69
896.447	45.57
896.617	-44.54
896.788	-36.35
896.958	-75.26
897.129	6.66
897.299	-50.69
897.47	86.53
897.64	94.72
897.81	-67.07
897.981	25.09
898.151	18.94
898.322	115.2
898.492	-15.87
898.662	-105.98
898.832	-50.69
899.003	-9.73
899.173	47.62
899.343	-130.56
899.513	-136.7
