Data from USB4F104151__89__10-44-39-367.txt Node

Date: Wed Feb 26 10:44:39 EST 2025
User: louis
Spectrometer: USB4F10415
Trigger mode: 4
Integration Time (sec): 1.000000E-1
Scans to average: 1
Electric dark correction enabled: true
Nonlinearity correction enabled: false
Boxcar width: 0
XAxis mode: Wavelengths
Number of Pixels in Spectrum: 3648
>>>>>Begin Spectral Data<<<<<
178.204	-438.61
178.424	-438.61
178.644	-438.61
178.864	-344.4
179.084	-389.46
179.304	-14.68
179.524	-8.53
179.744	89.77
179.964	-6.49
180.184	122.54
180.404	13.99
180.624	-57.68
180.844	-14.68
181.064	-88.4
181.283	-16.73
181.503	-43.35
181.723	24.23
181.943	-74.07
182.163	157.35
182.383	-35.16
182.602	118.44
182.822	169.64
183.042	116.39
183.262	48.81
183.482	75.43
183.701	73.39
183.921	116.39
184.141	-6.49
184.361	46.76
184.58	5.8
184.8	40.62
185.02	-24.92
185.239	108.2
185.459	40.62
185.679	155.3
185.898	-45.4
186.118	36.52
186.338	44.71
186.557	46.76
186.777	69.29
186.997	44.71
187.216	-24.92
187.436	257.7
187.655	79.53
187.875	214.7
188.095	65.19
188.314	210.6
188.534	118.44
188.753	-2.39
188.973	130.73
189.192	151.21
189.412	48.81
189.631	73.39
189.851	102.06
190.07	177.83
190.29	-35.16
190.509	-20.82
190.729	91.82
190.948	136.87
191.168	243.37
191.387	48.81
191.607	-4.44
191.826	114.34
192.045	18.09
192.265	13.99
192.484	9.9
192.704	73.39
192.923	-0.34
193.142	71.34
193.362	85.67
193.581	114.34
193.8	28.33
194.02	5.8
194.239	36.52
194.458	116.39
194.678	24.23
194.897	36.52
195.116	54.95
195.335	13.99
195.555	108.2
195.774	-10.58
195.993	77.48
196.212	28.33
196.432	-33.11
196.651	75.43
196.87	93.87
197.089	231.08
197.308	22.19
197.528	87.72
197.747	-49.49
197.966	65.19
198.185	167.59
198.404	-6.49
198.623	116.39
198.842	188.07
199.062	79.53
199.281	122.54
199.5	18.09
199.719	65.19
199.938	79.53
200.157	83.63
200.376	42.67
200.595	77.48
200.814	59.05
201.033	-0.34
201.252	153.26
201.471	136.87
201.69	50.86
201.909	71.34
202.128	46.76
202.347	32.43
202.566	1.71
202.785	-100.69
203.004	-69.97
203.223	235.18
203.442	71.34
203.661	-98.64
203.879	-22.87
204.098	124.58
204.317	-112.98
204.536	112.3
204.755	85.67
204.974	106.15
205.193	42.67
205.411	138.92
205.63	112.3
205.849	108.2
206.068	11.95
206.287	-8.53
206.505	157.35
206.724	136.87
206.943	18.09
207.162	-49.49
207.381	20.14
207.599	-14.68
207.818	24.23
208.037	-51.54
208.255	-8.53
208.474	97.96
208.693	59.05
208.911	-39.25
209.13	18.09
209.349	116.39
209.567	183.98
209.786	89.77
210.005	95.91
210.223	-4.44
210.442	-145.75
210.661	34.47
210.879	87.72
211.098	153.26
211.316	112.3
211.535	22.19
211.753	95.91
211.972	91.82
212.191	-14.68
212.409	-12.63
212.628	126.63
212.846	30.38
213.065	-2.39
213.283	5.8
213.502	46.76
213.72	30.38
213.938	11.95
214.157	-20.82
214.375	65.19
214.594	-6.49
214.812	22.19
215.031	-20.82
215.249	-8.53
215.467	69.29
215.686	24.23
215.904	63.15
216.122	48.81
216.341	216.74
216.559	22.19
216.778	120.49
216.996	124.58
217.214	-39.25
217.432	30.38
217.651	-86.36
217.869	-10.58
218.087	65.19
218.306	5.8
218.524	16.04
218.742	77.48
218.96	83.63
219.179	57
219.397	50.86
219.615	280.23
219.833	93.87
220.051	-98.64
220.27	89.77
220.488	128.68
220.706	89.77
220.924	28.33
221.142	-26.96
221.36	83.63
221.578	89.77
221.796	26.28
222.015	22.19
222.233	77.48
222.451	233.13
222.669	-20.82
222.887	79.53
223.105	34.47
223.323	102.06
223.541	11.95
223.759	42.67
223.977	7.85
224.195	214.7
224.413	102.06
224.631	77.48
224.849	54.95
225.067	179.88
225.285	-0.34
225.503	-6.49
225.721	-31.06
225.939	83.63
226.157	61.1
226.375	235.18
226.592	36.52
226.81	34.47
227.028	124.58
227.246	91.82
227.464	149.16
227.682	143.02
227.9	36.52
228.117	104.11
228.335	40.62
228.553	-43.35
228.771	13.99
228.989	89.77
229.206	81.58
229.424	24.23
229.642	71.34
229.86	20.14
230.077	147.11
230.295	48.81
230.513	93.87
230.731	163.5
230.948	81.58
231.166	212.65
231.384	28.33
231.601	-57.68
231.819	149.16
232.037	-4.44
232.254	83.63
232.472	-6.49
232.689	20.14
232.907	97.96
233.125	48.81
233.342	-49.49
233.56	-49.49
233.777	-35.16
233.995	-4.44
234.213	167.59
234.43	118.44
234.648	38.57
234.865	11.95
235.083	110.25
235.3	40.62
235.518	89.77
235.735	52.91
235.953	42.67
236.17	13.99
236.388	-59.73
236.605	65.19
236.822	116.39
237.04	-20.82
237.257	36.52
237.475	-41.3
237.692	46.76
237.909	30.38
238.127	-26.96
238.344	48.81
238.562	61.1
238.779	-33.11
238.996	24.23
239.214	-2.39
239.431	102.06
239.648	-31.06
239.865	202.41
240.083	83.63
240.3	77.48
240.517	5.8
240.735	36.52
240.952	204.46
241.169	32.43
241.386	71.34
241.603	59.05
241.821	-37.2
242.038	65.19
242.255	120.49
242.472	-4.44
242.689	38.57
242.907	48.81
243.124	34.47
243.341	-49.49
243.558	-76.12
243.775	-31.06
243.992	13.99
244.209	79.53
244.426	202.41
244.643	13.99
244.86	13.99
245.078	16.04
245.295	114.34
245.512	75.43
245.729	1.71
245.946	100.01
246.163	-43.35
246.38	52.91
246.597	30.38
246.814	83.63
247.031	-0.34
247.248	30.38
247.464	136.87
247.681	120.49
247.898	34.47
248.115	102.06
248.332	63.15
248.549	95.91
248.766	128.68
248.983	52.91
249.2	89.77
249.417	54.95
249.633	26.28
249.85	87.72
250.067	50.86
250.284	65.19
250.501	93.87
250.717	77.48
250.934	-84.31
251.151	-10.58
251.368	32.43
251.585	71.34
251.801	-4.44
252.018	-14.68
252.235	32.43
252.451	-115.03
252.668	-24.92
252.885	112.3
253.102	38.57
253.318	-0.34
253.535	-0.34
253.752	32.43
253.968	9.9
254.185	-59.73
254.401	-22.87
254.618	114.34
254.835	57
255.051	16.04
255.268	71.34
255.484	165.54
255.701	46.76
255.917	79.53
256.134	-45.4
256.351	18.09
256.567	-26.96
256.784	44.71
257	-106.84
257.217	116.39
257.433	85.67
257.65	20.14
257.866	85.67
258.082	-74.07
258.299	-24.92
258.515	46.76
258.732	-16.73
258.948	-57.68
259.165	22.19
259.381	-14.68
259.597	-10.58
259.814	-4.44
260.03	-26.96
260.246	-2.39
260.463	87.72
260.679	218.79
260.895	69.29
261.112	71.34
261.328	20.14
261.544	7.85
261.761	104.11
261.977	22.19
262.193	-41.3
262.409	122.54
262.626	3.75
262.842	50.86
263.058	-55.64
263.274	140.97
263.49	102.06
263.707	91.82
263.923	-2.39
264.139	-94.55
264.355	36.52
264.571	81.58
264.787	46.76
265.004	91.82
265.22	20.14
265.436	7.85
265.652	1.71
265.868	120.49
266.084	-41.3
266.3	67.24
266.516	30.38
266.732	104.11
266.948	59.05
267.164	-0.34
267.38	163.5
267.596	40.62
267.812	188.07
268.028	11.95
268.244	-0.34
268.46	28.33
268.676	7.85
268.892	73.39
269.108	9.9
269.324	42.67
269.54	-53.59
269.756	73.39
269.972	-2.39
270.188	26.28
270.403	-55.64
270.619	7.85
270.835	118.44
271.051	63.15
271.267	-10.58
271.483	-69.97
271.698	69.29
271.914	30.38
272.13	57
272.346	-26.96
272.562	85.67
272.777	124.58
272.993	75.43
273.209	-35.16
273.425	136.87
273.64	-6.49
273.856	124.58
274.072	26.28
274.287	-6.49
274.503	75.43
274.719	83.63
274.934	-26.96
275.15	28.33
275.366	48.81
275.581	93.87
275.797	26.28
276.012	120.49
276.228	57
276.444	48.81
276.659	136.87
276.875	50.86
277.09	3.75
277.306	20.14
277.521	34.47
277.737	7.85
277.952	18.09
278.168	16.04
278.383	42.67
278.599	73.39
278.814	118.44
279.03	5.8
279.245	83.63
279.461	-4.44
279.676	122.54
279.892	-0.34
280.107	-18.77
280.322	32.43
280.538	89.77
280.753	11.95
280.969	42.67
281.184	18.09
281.399	222.89
281.615	71.34
281.83	100.01
282.045	-115.03
282.26	59.05
282.476	28.33
282.691	100.01
282.906	97.96
283.122	38.57
283.337	1.71
283.552	-18.77
283.767	16.04
283.983	138.92
284.198	-6.49
284.413	112.3
284.628	-82.26
284.843	-14.68
285.058	118.44
285.274	-69.97
285.489	-16.73
285.704	69.29
285.919	-22.87
286.134	13.99
286.349	16.04
286.564	36.52
286.779	106.15
286.995	9.9
287.21	-53.59
287.425	91.82
287.64	44.71
287.855	30.38
288.07	-10.58
288.285	143.02
288.5	95.91
288.715	67.24
288.93	3.75
289.145	-24.92
289.36	-20.82
289.575	-4.44
289.79	210.6
290.004	-57.68
290.219	108.2
290.434	83.63
290.649	32.43
290.864	-31.06
291.079	59.05
291.294	34.47
291.509	50.86
291.724	30.38
291.938	-0.34
292.153	16.04
292.368	-96.6
292.583	95.91
292.798	42.67
293.012	102.06
293.227	128.68
293.442	36.52
293.657	59.05
293.871	124.58
294.086	130.73
294.301	118.44
294.516	81.58
294.73	69.29
294.945	-10.58
295.16	7.85
295.374	122.54
295.589	138.92
295.804	-43.35
296.018	9.9
296.233	95.91
296.447	40.62
296.662	-63.83
296.877	75.43
297.091	89.77
297.306	77.48
297.52	-33.11
297.735	124.58
297.949	-47.44
298.164	69.29
298.378	11.95
298.593	-61.78
298.807	5.8
299.022	50.86
299.236	93.87
299.451	-37.2
299.665	69.29
299.88	26.28
300.094	130.73
300.309	32.43
300.523	52.91
300.737	42.67
300.952	50.86
301.166	61.1
301.381	-8.53
301.595	-10.58
301.809	3.75
302.024	22.19
302.238	-33.11
302.452	196.26
302.667	116.39
302.881	147.11
303.095	104.11
303.309	52.91
303.524	59.05
303.738	30.38
303.952	24.23
304.166	89.77
304.381	-80.21
304.595	108.2
304.809	-59.73
305.023	57
305.237	77.48
305.452	69.29
305.666	40.62
305.88	54.95
306.094	71.34
306.308	63.15
306.522	122.54
306.736	38.57
306.95	100.01
307.164	-0.34
307.379	48.81
307.593	116.39
307.807	149.16
308.021	3.75
308.235	112.3
308.449	-12.63
308.663	63.15
308.877	241.32
309.091	57
309.305	-2.39
309.519	-78.16
309.733	169.64
309.947	13.99
310.161	63.15
310.374	106.15
310.588	124.58
310.802	1.71
311.016	-6.49
311.23	130.73
311.444	-6.49
311.658	11.95
311.872	149.16
312.085	81.58
312.299	116.39
312.513	124.58
312.727	40.62
312.941	-82.26
313.154	42.67
313.368	69.29
313.582	79.53
313.796	40.62
314.009	50.86
314.223	5.8
314.437	93.87
314.651	122.54
314.864	24.23
315.078	16.04
315.292	-45.4
315.505	-2.39
315.719	97.96
315.933	32.43
316.146	54.95
316.36	-45.4
316.573	177.83
316.787	122.54
317.001	48.81
317.214	9.9
317.428	63.15
317.641	-72.02
317.855	16.04
318.068	-43.35
318.282	40.62
318.495	200.36
318.709	71.34
318.922	42.67
319.136	106.15
319.349	95.91
319.563	-22.87
319.776	63.15
319.99	-72.02
320.203	91.82
320.417	-10.58
320.63	59.05
320.843	175.78
321.057	24.23
321.27	24.23
321.483	63.15
321.697	181.93
321.91	38.57
322.124	81.58
322.337	50.86
322.55	-22.87
322.763	-20.82
322.977	85.67
323.19	73.39
323.403	5.8
323.617	118.44
323.83	145.06
324.043	46.76
324.256	81.58
324.469	-61.78
324.683	54.95
324.896	-47.44
325.109	28.33
325.322	-26.96
325.535	104.11
325.748	63.15
325.962	16.04
326.175	46.76
326.388	95.91
326.601	120.49
326.814	73.39
327.027	71.34
327.24	149.16
327.453	-59.73
327.666	87.72
327.879	149.16
328.092	132.78
328.305	61.1
328.518	20.14
328.731	11.95
328.944	73.39
329.157	75.43
329.37	50.86
329.583	249.51
329.796	124.58
330.009	-43.35
330.222	67.24
330.435	57
330.648	48.81
330.861	57
331.073	42.67
331.286	83.63
331.499	22.19
331.712	-26.96
331.925	71.34
332.138	46.76
332.35	102.06
332.563	3.75
332.776	97.96
332.989	-37.2
333.202	-2.39
333.414	32.43
333.627	26.28
333.84	67.24
334.053	36.52
334.265	-0.34
334.478	-22.87
334.691	-2.39
334.903	100.01
335.116	100.01
335.329	34.47
335.541	79.53
335.754	192.17
335.966	-2.39
336.179	48.81
336.392	3.75
336.604	-26.96
336.817	71.34
337.029	-22.87
337.242	69.29
337.454	140.97
337.667	30.38
337.88	276.13
338.092	134.82
338.305	110.25
338.517	18.09
338.729	65.19
338.942	67.24
339.154	-12.63
339.367	-18.77
339.579	34.47
339.792	-55.64
340.004	126.63
340.217	38.57
340.429	100.01
340.641	-26.96
340.854	1.71
341.066	26.28
341.278	143.02
341.491	114.34
341.703	61.1
341.915	-20.82
342.128	95.91
342.34	5.8
342.552	-59.73
342.764	-8.53
342.977	-31.06
343.189	112.3
343.401	52.91
343.613	-72.02
343.826	-0.34
344.038	-20.82
344.25	42.67
344.462	-41.3
344.674	104.11
344.886	26.28
345.099	59.05
345.311	91.82
345.523	28.33
345.735	-129.36
345.947	57
346.159	11.95
346.371	83.63
346.583	48.81
346.795	153.26
347.007	44.71
347.219	50.86
347.431	34.47
347.643	59.05
347.855	-8.53
348.067	106.15
348.279	-57.68
348.491	54.95
348.703	97.96
348.915	36.52
349.127	18.09
349.339	3.75
349.551	-37.2
349.763	106.15
349.975	87.72
350.187	116.39
350.399	204.46
350.61	30.38
350.822	-18.77
351.034	5.8
351.246	63.15
351.458	97.96
351.669	91.82
351.881	89.77
352.093	159.4
352.305	177.83
352.517	63.15
352.728	130.73
352.94	52.91
353.152	114.34
353.363	52.91
353.575	73.39
353.787	239.27
353.999	3.75
354.21	167.59
354.422	22.19
354.633	-49.49
354.845	44.71
355.057	59.05
355.268	69.29
355.48	89.77
355.692	-4.44
355.903	-18.77
356.115	-8.53
356.326	-92.5
356.538	198.31
356.749	140.97
356.961	134.82
357.172	36.52
357.384	-49.49
357.595	206.5
357.807	-22.87
358.018	-67.92
358.23	11.95
358.441	128.68
358.653	100.01
358.864	100.01
359.075	52.91
359.287	77.48
359.498	134.82
359.709	171.69
359.921	59.05
360.132	87.72
360.344	44.71
360.555	-12.63
360.766	24.23
360.977	-4.44
361.189	59.05
361.4	57
361.611	93.87
361.823	106.15
362.034	24.23
362.245	-53.59
362.456	85.67
362.667	114.34
362.879	7.85
363.09	46.76
363.301	63.15
363.512	18.09
363.723	-22.87
363.935	-41.3
364.146	81.58
364.357	79.53
364.568	44.71
364.779	-135.51
364.99	106.15
365.201	18.09
365.412	149.16
365.623	-4.44
365.834	143.02
366.045	34.47
366.256	79.53
366.467	83.63
366.678	40.62
366.889	100.01
367.1	-6.49
367.311	147.11
367.522	-37.2
367.733	106.15
367.944	77.48
368.155	69.29
368.366	136.87
368.577	50.86
368.788	132.78
368.999	46.76
369.209	9.9
369.42	257.7
369.631	190.12
369.842	81.58
370.053	18.09
370.264	106.15
370.474	-31.06
370.685	28.33
370.896	18.09
371.107	102.06
371.317	79.53
371.528	26.28
371.739	163.5
371.95	63.15
372.16	147.11
372.371	13.99
372.582	-12.63
372.792	67.24
373.003	-12.63
373.214	85.67
373.424	116.39
373.635	-53.59
373.846	95.91
374.056	48.81
374.267	-8.53
374.477	106.15
374.688	24.23
374.898	104.11
375.109	32.43
375.319	114.34
375.53	122.54
375.74	57
375.951	73.39
376.161	42.67
376.372	138.92
376.582	-22.87
376.793	140.97
377.003	-39.25
377.214	5.8
377.424	77.48
377.635	65.19
377.845	61.1
378.055	136.87
378.266	-22.87
378.476	48.81
378.686	54.95
378.897	93.87
379.107	104.11
379.317	73.39
379.528	-37.2
379.738	102.06
379.948	18.09
380.158	89.77
380.369	59.05
380.579	100.01
380.789	95.91
380.999	116.39
381.21	46.76
381.42	161.45
381.63	65.19
381.84	126.63
382.05	108.2
382.261	59.05
382.471	145.06
382.681	3.75
382.891	128.68
383.101	122.54
383.311	22.19
383.521	67.24
383.731	38.57
383.941	95.91
384.151	34.47
384.361	85.67
384.571	181.93
384.781	69.29
384.991	204.46
385.201	122.54
385.411	110.25
385.621	100.01
385.831	112.3
386.041	28.33
386.251	54.95
386.461	188.07
386.671	36.52
386.881	140.97
387.091	-37.2
387.301	118.44
387.511	50.86
387.72	153.26
387.93	52.91
388.14	-24.92
388.35	36.52
388.56	169.64
388.769	143.02
388.979	28.33
389.189	-72.02
389.399	-33.11
389.609	52.91
389.818	71.34
390.028	-22.87
390.238	30.38
390.447	18.09
390.657	75.43
390.867	59.05
391.076	-80.21
391.286	54.95
391.496	16.04
391.705	97.96
391.915	91.82
392.125	128.68
392.334	38.57
392.544	157.35
392.753	75.43
392.963	-47.44
393.172	77.48
393.382	13.99
393.591	169.64
393.801	54.95
394.01	210.6
394.22	116.39
394.429	79.53
394.639	28.33
394.848	87.72
395.058	46.76
395.267	28.33
395.477	128.68
395.686	157.35
395.895	241.32
396.105	231.08
396.314	87.72
396.524	16.04
396.733	-10.58
396.942	65.19
397.152	130.73
397.361	102.06
397.57	81.58
397.78	67.24
397.989	85.67
398.198	153.26
398.407	30.38
398.617	-6.49
398.826	24.23
399.035	5.8
399.244	69.29
399.453	67.24
399.663	42.67
399.872	110.25
400.081	9.9
400.29	147.11
400.499	-31.06
400.708	114.34
400.917	54.95
401.127	48.81
401.336	-29.01
401.545	202.41
401.754	145.06
401.963	93.87
402.172	69.29
402.381	-8.53
402.59	112.3
402.799	36.52
403.008	71.34
403.217	42.67
403.426	46.76
403.635	3.75
403.844	-43.35
404.053	91.82
404.262	73.39
404.471	122.54
404.68	116.39
404.888	22.19
405.097	46.76
405.306	83.63
405.515	104.11
405.724	26.28
405.933	75.43
406.142	73.39
406.35	110.25
406.559	-35.16
406.768	93.87
406.977	153.26
407.185	136.87
407.394	20.14
407.603	20.14
407.812	18.09
408.02	192.17
408.229	81.58
408.438	87.72
408.646	-24.92
408.855	50.86
409.064	34.47
409.272	7.85
409.481	104.11
409.69	-6.49
409.898	18.09
410.107	71.34
410.315	81.58
410.524	77.48
410.733	100.01
410.941	-20.82
411.15	179.88
411.358	122.54
411.567	183.98
411.775	-2.39
411.984	57
412.192	79.53
412.401	54.95
412.609	212.65
412.818	136.87
413.026	52.91
413.234	75.43
413.443	71.34
413.651	18.09
413.86	87.72
414.068	208.55
414.276	161.45
414.485	-22.87
414.693	192.17
414.901	163.5
415.11	95.91
415.318	85.67
415.526	65.19
415.734	36.52
415.943	30.38
416.151	173.74
416.359	130.73
416.567	114.34
416.776	110.25
416.984	157.35
417.192	222.89
417.4	28.33
417.608	34.47
417.817	-31.06
418.025	75.43
418.233	206.5
418.441	18.09
418.649	9.9
418.857	40.62
419.065	124.58
419.273	26.28
419.481	69.29
419.689	54.95
419.897	-10.58
420.105	-12.63
420.313	134.82
420.521	155.3
420.729	186.02
420.937	-16.73
421.145	22.19
421.353	161.45
421.561	124.58
421.769	63.15
421.977	22.19
422.185	93.87
422.393	124.58
422.601	79.53
422.809	71.34
423.017	71.34
423.224	83.63
423.432	132.78
423.64	100.01
423.848	108.2
424.056	-20.82
424.263	83.63
424.471	-24.92
424.679	163.5
424.887	67.24
425.094	165.54
425.302	75.43
425.51	114.34
425.718	104.11
425.925	87.72
426.133	-63.83
426.341	220.84
426.548	130.73
426.756	-2.39
426.964	120.49
427.171	40.62
427.379	75.43
427.586	126.63
427.794	110.25
428.001	179.88
428.209	40.62
428.417	171.69
428.624	112.3
428.832	77.48
429.039	85.67
429.247	26.28
429.454	114.34
429.662	175.78
429.869	165.54
430.076	136.87
430.284	173.74
430.491	163.5
430.699	153.26
430.906	331.43
431.114	138.92
431.321	177.83
431.528	163.5
431.736	155.3
431.943	171.69
432.15	175.78
432.358	177.83
432.565	251.56
432.772	20.14
432.979	235.18
433.187	147.11
433.394	239.27
433.601	110.25
433.808	181.93
434.016	188.07
434.223	245.41
434.43	206.5
434.637	267.94
434.844	265.89
435.052	380.58
435.259	188.07
435.466	263.85
435.673	214.7
435.88	296.61
436.087	380.58
436.294	319.14
436.501	349.86
436.708	214.7
436.915	237.22
437.122	368.29
437.329	290.47
437.537	325.29
437.743	366.25
437.95	458.4
438.157	435.88
438.364	349.86
438.571	401.06
438.778	427.68
438.985	421.54
439.192	528.03
439.399	466.6
439.606	466.6
439.813	495.27
440.02	577.19
440.227	579.23
440.433	583.33
440.64	616.1
440.847	437.92
441.054	556.71
441.261	755.36
441.467	665.25
441.674	620.19
441.881	738.98
442.088	589.47
442.294	734.88
442.501	751.26
442.708	882.33
442.914	786.08
443.121	919.2
443.328	878.24
443.534	1013.4
443.741	931.48
443.948	763.55
444.154	939.68
444.361	1111.71
444.568	1054.36
444.774	1095.32
444.981	1029.79
445.187	1240.73
445.394	1187.48
445.6	1160.86
445.807	1316.5
446.013	1214.1
446.22	1289.88
446.426	1496.72
446.633	1404.57
446.839	1648.27
447.046	1382.04
447.252	1631.89
447.459	1746.58
447.665	1638.03
447.871	1754.77
448.078	1924.75
448.284	1851.02
448.491	2066.06
448.697	2119.31
448.903	2068.11
449.11	2137.74
449.316	2180.75
449.522	2467.46
449.728	2430.6
449.935	2522.76
450.141	2514.56
450.347	2602.63
450.553	2625.15
450.76	2674.31
450.966	3061.37
451.172	3034.75
451.378	3153.53
451.584	3204.73
451.791	3337.85
451.997	3395.19
452.203	3556.98
452.409	3929.71
452.615	3915.37
452.821	3788.4
453.027	3878.51
453.233	4433.51
453.44	4298.35
453.646	4497
453.852	4673.12
454.058	4757.09
454.264	4982.37
454.47	5301.85
454.676	5248.6
454.882	5879.38
455.088	5516.89
455.294	5903.95
455.5	6340.17
455.705	6569.54
455.911	6547.01
456.117	6809.15
456.323	6948.42
456.529	6936.13
456.735	7568.95
456.941	7908.91
457.147	8126
457.352	8314.41
457.558	8615.46
457.764	9158.17
457.97	9176.61
458.176	9666.07
458.381	10335.76
458.587	10214.93
458.793	10796.55
458.999	10747.4
459.204	12312.05
459.41	12787.18
459.616	12434.92
459.821	13098.47
460.027	13688.28
460.233	14294.48
460.438	14419.41
460.644	15259.07
460.85	15365.57
461.055	16229.81
461.261	16776.62
461.466	16448.94
461.672	16666.03
461.878	18834.83
462.083	18662.8
462.289	19166.6
462.494	19533.18
462.7	19967.35
462.905	20252.02
463.111	21865.82
463.316	22717.78
463.522	23266.63
463.727	24071.48
463.932	25058.6
464.138	25668.9
464.343	26838.29
464.549	26531.09
464.754	28749.04
464.959	29441.26
465.165	30074.08
465.37	29834.47
465.575	29480.17
465.781	31939.78
465.986	32767.16
466.191	32658.62
466.397	32787.64
466.602	32097.47
466.807	33584.3
467.012	34581.66
467.218	34663.58
467.423	34839.7
467.628	36222.08
467.833	37680.24
468.038	37346.42
468.244	36895.86
468.449	37960.81
468.654	37510.25
468.859	37561.45
469.064	37844.07
469.269	36635.77
469.474	36551.8
469.679	38126.69
469.885	36879.48
470.09	37647.47
470.295	37543.02
470.5	36914.3
470.705	37336.18
470.91	36082.82
471.115	35961.99
471.32	36351.1
471.525	36002.95
471.73	35157.14
471.935	34778.26
472.139	33418.41
472.344	33911.97
472.549	33299.63
472.754	32849.08
472.959	32355.52
473.164	31222.99
473.369	30547.16
473.574	31472.84
473.778	30872.79
473.983	30440.67
474.188	30012.64
474.393	28269.82
474.598	28157.18
474.802	27647.24
475.007	27340.04
475.212	27022.61
475.417	25789.73
475.621	25697.57
475.826	25627.94
476.031	24931.63
476.235	24327.48
476.44	24481.08
476.645	24126.78
476.849	23661.89
477.054	23184.71
477.259	22463.83
477.463	22515.03
477.668	22115.67
477.872	21945.69
478.077	21462.37
478.282	20782.45
478.486	20829.55
478.691	20325.75
478.895	20012.41
479.1	19996.03
479.304	19946.87
479.509	19350.92
479.713	19670.4
479.918	19357.06
480.122	18818.44
480.326	18791.82
480.531	18640.27
480.735	18478.48
480.94	18423.19
481.144	18763.15
481.348	17859.99
481.553	17778.08
481.757	17509.79
481.961	17540.51
482.166	17933.72
482.37	17507.74
482.574	17192.36
482.778	17137.06
482.983	17397.15
483.187	16899.5
483.391	17227.17
483.595	16508.33
483.8	16395.7
484.004	16397.74
484.208	16731.56
484.412	16039.35
484.616	16078.26
484.821	15916.47
485.025	15418.82
485.229	15599.04
485.433	15324.61
485.637	15099.33
485.841	14812.62
486.045	14513.61
486.249	14413.26
486.453	14288.34
486.657	14036.44
486.861	13893.08
487.065	13155.81
487.269	13440.48
487.473	13112.8
487.677	13266.4
487.881	13350.37
488.085	12809.7
488.289	12602.86
488.493	12101.11
488.697	12387.82
488.901	12088.82
489.105	11611.64
489.309	11638.27
489.512	11417.08
489.716	11243.01
489.92	10872.32
490.124	10767.88
490.328	11091.46
490.531	10378.76
490.735	10249.74
490.939	9788.95
491.143	9776.66
491.346	9666.07
491.55	9567.77
491.754	9322.01
491.958	9469.47
492.161	9104.93
492.365	8961.57
492.569	8879.65
492.772	8605.22
492.976	8472.11
493.18	8414.76
493.383	8502.82
493.587	8431.15
493.79	8298.03
493.994	8078.9
494.197	7913.01
494.401	7847.47
494.605	7712.31
494.808	7853.62
495.012	7845.43
495.215	7759.41
495.419	7607.86
495.622	7411.26
495.825	7427.64
496.029	7284.28
496.232	7700.02
496.436	7509.56
496.639	7429.69
496.843	7497.27
497.046	7298.62
497.249	7636.53
497.453	7355.96
497.656	7306.81
497.859	7329.34
498.063	7394.87
498.266	7540.28
498.469	7374.39
498.673	7421.5
498.876	7568.95
499.079	7511.61
499.282	7472.7
499.485	7706.17
499.689	7456.31
499.892	7843.38
500.095	7773.75
500.298	7851.57
500.501	7624.25
500.705	7859.76
500.908	8042.03
501.111	7988.78
501.314	8152.62
501.517	8330.8
501.72	8220.21
501.923	8343.08
502.126	8461.87
502.329	8709.67
502.532	8576.55
502.735	8861.22
502.938	8996.39
503.141	8992.29
503.344	9035.3
503.547	9203.23
503.75	9250.33
503.953	9508.38
504.156	9524.76
504.359	9756.18
504.562	9692.69
504.765	9885.2
504.968	9963.03
505.17	10343.95
505.373	10552.84
505.576	10356.24
505.779	10565.13
505.982	10804.74
506.185	11032.07
506.387	11138.56
506.59	11331.07
506.793	11591.16
506.996	11707.9
507.198	12363.25
507.401	12332.53
507.604	12389.87
507.807	12619.24
508.009	12965.35
508.212	13317.6
508.415	13389.28
508.617	13585.88
508.82	13907.41
509.022	13991.38
509.225	14833.1
509.428	14947.78
509.63	15214.02
509.833	15340.99
510.035	15900.09
510.238	16106.93
510.44	16418.22
510.643	16928.17
510.845	17343.91
511.048	17427.87
511.25	18052.5
511.453	18308.5
511.655	19203.46
511.858	19385.73
512.06	19692.93
512.262	20186.49
512.465	20241.78
512.667	20921.71
512.87	21491.04
513.072	21618.02
513.274	22445.4
513.477	23080.27
513.679	23416.13
513.881	23792.96
514.084	24061.24
514.286	24694.07
514.488	25195.82
514.69	26479.89
514.893	26445.08
515.095	27108.62
515.297	27520.26
515.499	27936
515.701	28716.28
515.904	29349.1
516.106	30108.9
516.308	30614.74
516.51	30932.18
516.712	31505.61
516.914	32388.28
517.116	32916.66
517.318	33428.65
517.52	33940.64
517.722	34772.12
517.925	35634.31
518.127	36021.38
518.329	36775.03
518.531	36654.2
518.733	38077.54
518.935	38763.61
519.136	38648.92
519.338	39726.16
519.54	39918.67
519.742	40860.73
519.944	41485.36
520.146	41749.55
520.348	42296.36
520.55	43045.91
520.752	43213.85
520.954	44188.68
521.155	44669.95
521.357	45089.79
521.559	45622.26
521.761	46695.39
521.963	46054.38
522.164	46947.29
522.366	46920.67
522.568	47920.08
522.77	48561.09
522.971	48753.6
523.173	48409.54
523.375	49155
523.576	48860.1
523.778	49288.12
523.98	49576.89
524.181	49877.94
524.383	50006.96
524.584	50813.86
524.786	50709.41
524.988	50287.53
525.189	50895.78
525.391	50924.45
525.592	50985.89
525.794	50946.98
525.995	50662.31
526.197	50736.04
526.398	50660.26
526.6	50408.36
526.801	50535.34
527.003	50205.61
527.204	50592.68
527.406	50445.22
527.607	50009.01
527.808	50217.9
528.01	49062.85
528.211	49198.01
528.412	49441.72
528.614	49083.33
528.815	48528.33
529.016	48710.6
529.218	47623.12
529.419	47557.59
529.62	46980.06
529.822	46668.77
530.023	45734.9
530.224	45845.49
530.425	45532.15
530.626	44755.97
530.828	44438.53
531.029	44200.97
531.23	43613.2
531.431	43142.17
531.632	42714.14
531.833	42243.11
532.035	41937.96
532.236	41399.35
532.437	41069.62
532.638	40207.43
532.839	40281.16
533.04	39797.84
533.241	38372.45
533.442	38997.08
533.643	38007.91
533.844	37106.8
534.045	36777.08
534.246	36201.6
534.447	35941.51
534.648	35490.96
534.849	35021.97
535.05	34309.28
535.251	34069.67
535.451	33305.77
535.652	33148.08
535.853	32740.54
536.054	32361.66
536.255	32187.58
536.456	31087.82
536.657	31550.67
536.857	30622.94
537.058	29945.06
537.259	29891.81
537.46	29654.25
537.66	29009.14
537.861	28400.89
538.062	28200.19
538.263	27684.1
538.463	27440.39
538.664	27272.46
538.865	26973.46
539.065	26813.71
539.266	26055.97
539.466	25914.66
539.667	25054.51
539.868	25615.65
540.068	24968.49
540.269	24724.79
540.469	24454.45
540.67	23991.61
540.87	24143.16
541.071	23543.11
541.271	23178.57
541.472	22814.03
541.672	22644.05
541.873	22494.55
542.073	21984.6
542.274	21964.12
542.474	21878.11
542.675	21488.99
542.875	21566.82
543.075	20913.52
543.276	20407.67
543.476	20835.69
543.676	20475.25
543.877	19932.54
544.077	20051.32
544.277	19658.11
544.478	19314.05
544.678	19297.67
544.878	19168.65
545.078	18804.11
545.279	18408.85
545.479	18161.05
545.679	18097.56
545.879	17923.48
546.079	17759.64
546.28	17225.12
546.48	17321.38
546.68	17470.88
546.88	16948.65
547.08	16799.15
547.28	16655.79
547.48	16131.51
547.68	16256.43
547.88	15760.83
548.081	15805.88
548.281	15711.67
548.481	15281.6
548.681	15216.07
548.881	14968.26
549.081	14933.45
549.28	14523.85
549.48	14560.72
549.68	14208.47
549.88	14214.61
550.08	13553.12
550.28	13753.82
550.48	13655.51
550.68	13209.06
550.88	13233.63
551.08	12758.5
551.279	12846.57
551.479	12471.79
551.679	12543.47
551.879	12123.63
552.079	11931.12
552.278	11820.53
552.478	12023.28
552.678	11527.67
552.878	11392.51
553.077	10997.25
553.277	10855.94
553.477	10919.43
553.676	10806.79
553.876	10395.15
554.076	10415.63
554.275	10100.24
554.475	9987.6
554.674	10042.9
554.874	9864.72
555.074	9459.23
555.273	9279.01
555.473	9147.94
555.672	9004.58
555.872	8869.41
556.071	8889.89
556.271	8795.68
556.47	8619.56
556.67	8291.88
556.869	8191.53
557.068	8252.97
557.268	7845.43
557.467	7974.45
557.667	7740.98
557.866	7632.44
558.065	7425.59
558.265	7339.58
558.464	7306.81
558.663	7173.69
558.863	6936.13
559.062	6989.38
559.261	6778.44
559.461	6854.21
559.66	6635.08
559.859	6471.24
560.058	6309.45
560.258	6315.59
560.457	6121.04
560.656	6325.83
560.855	5942.86
561.054	5975.63
561.253	5844.56
561.453	5848.66
561.652	5662.29
561.851	5627.48
562.05	5488.21
562.249	5406.3
562.448	5482.07
562.647	5121.63
562.846	5146.2
563.045	5176.92
563.244	5004.89
563.443	4927.07
563.642	4857.44
563.841	4765.28
564.04	4697.7
564.239	4744.8
564.438	4519.53
564.637	4472.42
564.836	4337.26
565.035	4234.86
565.234	4345.45
565.432	4331.11
565.631	4150.89
565.83	4142.7
566.029	3931.76
566.228	4001.39
566.427	4040.3
566.625	3765.87
566.824	3982.96
567.023	3784.3
567.222	3563.12
567.42	3626.61
567.619	3667.57
567.818	3610.23
568.016	3749.49
568.215	3473.01
568.414	3528.31
568.612	3509.88
568.811	3303.03
569.01	3274.36
569.208	3128.95
569.407	3262.07
569.605	3176.06
569.804	3094.14
570.002	3124.86
570.201	2887.29
570.4	3081.85
570.598	2934.4
570.797	2891.39
570.995	2811.52
571.193	2829.95
571.392	2823.81
571.59	2641.54
571.789	2741.89
571.987	2616.96
572.186	2623.11
572.384	2557.57
572.582	2606.72
572.781	2662.02
572.979	2354.82
573.177	2459.27
573.376	2340.49
573.574	2367.11
573.772	2287.24
573.971	2272.9
574.169	2100.87
574.367	2205.32
574.565	2100.87
574.763	2127.5
574.962	2072.2
575.16	2045.58
575.358	2035.34
575.556	1932.94
575.754	2027.15
575.952	1932.94
576.151	1904.27
576.349	1894.03
576.547	1732.24
576.745	1840.78
576.943	1924.75
577.141	1726.1
577.339	1769.1
577.537	1767.06
577.735	1650.32
577.933	1605.27
578.131	1592.98
578.329	1695.38
578.527	1586.83
578.725	1556.11
578.923	1412.76
579.121	1566.35
579.319	1474.2
579.516	1384.09
579.714	1762.96
579.912	1472.15
580.11	1332.89
580.308	1318.55
580.506	1351.32
580.704	1160.86
580.901	1269.4
581.099	1373.85
581.297	1224.34
581.495	1322.65
581.692	1363.61
581.89	1341.08
582.088	1207.96
582.285	1310.36
582.483	1148.57
582.681	1083.03
582.878	1142.43
583.076	1142.43
583.274	1130.14
583.471	1197.72
583.669	1042.07
583.866	992.92
584.064	1046.17
584.262	902.81
584.459	911
584.657	1019.55
584.854	1009.31
585.052	1035.93
585.249	1054.36
585.447	1048.22
585.644	859.81
585.841	1037.98
586.039	1009.31
586.236	1015.45
586.434	890.53
586.631	841.37
586.828	849.57
587.026	773.79
587.223	779.93
587.42	673.44
587.618	790.17
587.815	931.48
588.012	759.46
588.21	743.07
588.407	859.81
588.604	896.67
588.801	745.12
588.999	718.5
589.196	878.24
589.393	695.97
589.59	845.47
589.787	771.74
589.984	745.12
590.182	738.98
590.379	646.82
590.576	648.86
590.773	685.73
590.97	638.62
591.167	767.65
591.364	839.33
591.561	681.63
591.758	851.61
591.955	712.35
592.152	726.69
592.349	566.95
592.546	640.67
592.743	577.19
592.94	691.87
593.137	661.15
593.334	812.7
593.531	683.68
593.727	769.69
593.924	724.64
594.121	716.45
594.318	648.86
594.515	759.46
594.712	868
594.908	890.53
595.105	595.62
595.302	853.66
595.499	700.06
595.696	853.66
595.892	755.36
596.089	808.61
596.286	732.83
596.482	931.48
596.679	892.57
596.876	773.79
597.072	945.82
597.269	804.51
597.466	829.09
597.662	763.55
597.859	888.48
598.055	1033.88
598.252	1033.88
598.448	1130.14
598.645	1173.14
598.841	1105.56
599.038	1291.93
599.234	1283.74
599.431	1193.62
599.627	1367.7
599.824	1326.74
600.02	1373.85
600.217	1392.28
600.413	1457.81
600.609	1504.92
600.806	1836.69
601.002	1758.86
601.198	1588.88
601.395	1900.17
601.591	1906.32
601.787	1877.65
601.984	2053.77
602.18	2023.05
602.376	2121.35
602.572	2244.23
602.769	2352.77
602.965	2422.41
603.161	2487.94
603.357	2483.84
603.553	2619.01
603.75	2637.44
603.946	2844.29
604.142	2975.36
604.338	3116.67
604.534	3157.63
604.73	3153.53
604.926	3282.55
605.122	3495.54
605.318	3462.77
605.514	3622.52
605.71	3731.06
605.906	3917.42
606.102	4105.84
606.298	4071.02
606.494	4384.36
606.69	4337.26
606.886	4478.57
607.082	4554.34
607.278	4818.53
607.474	4796
607.67	5095
607.866	4902.5
608.062	5328.47
608.257	5584.47
608.453	5678.68
608.649	5760.59
608.845	5764.69
609.041	5838.42
609.236	6299.21
609.432	6317.64
609.628	6624.84
609.824	6719.04
610.019	6835.78
610.215	6960.7
610.411	7255.61
610.606	7333.43
610.802	7783.99
610.998	7816.76
611.193	7958.07
611.389	8289.84
611.584	8447.53
611.78	8660.52
611.976	8877.6
612.171	9162.27
612.367	9461.27
612.562	9661.98
612.758	9963.03
612.953	10124.82
613.149	10571.27
613.344	10630.66
613.539	11165.18
613.735	11169.28
613.93	11505.15
614.126	11884.02
614.321	12135.92
614.517	12465.64
614.712	12770.79
614.907	12963.3
615.103	13745.62
615.298	13559.26
615.493	14187.99
615.688	14247.38
615.884	15099.33
616.079	15140.29
616.274	15523.26
616.47	15846.84
616.665	16387.5
616.86	16803.24
617.055	17055.14
617.25	17444.26
617.445	18167.19
617.641	18365.84
617.836	19264.9
618.031	19182.98
618.226	19950.97
618.421	20221.3
618.616	20850.03
618.811	21169.51
619.006	21863.77
619.201	21753.18
619.396	22756.69
619.591	22725.97
619.786	23878.97
619.981	23872.83
620.176	24769.84
620.371	24845.62
620.566	25781.54
620.761	25799.97
620.956	26649.88
621.151	26961.17
621.346	28132.61
621.541	27827.46
621.735	28941.55
621.93	29070.58
622.125	29897.95
622.32	30059.74
622.515	30940.37
622.709	31395.02
622.904	32255.17
623.099	32468.16
623.294	33481.9
623.488	33719.46
623.683	34159.78
623.878	34274.46
624.072	35011.73
624.267	36115.59
624.462	36467.84
624.656	36592.76
624.851	37608.56
625.046	38108.26
625.24	38628.45
625.435	39009.37
625.629	39224.4
625.824	40037.45
626.018	40959.03
626.213	40502.34
626.407	41681.97
626.602	41258.04
626.796	42198.05
626.991	42867.74
627.185	42806.3
627.38	43463.7
627.574	43445.27
627.768	43697.17
627.963	43961.36
628.157	43641.87
628.352	44495.88
628.546	43809.81
628.74	44579.84
628.935	43906.06
629.129	44516.36
629.323	44104.71
629.517	43777.04
629.712	43854.86
629.906	43506.71
630.1	42535.97
630.294	42877.98
630.489	41966.63
630.683	42032.17
630.877	40551.49
631.071	40209.48
631.265	39889.99
631.459	38632.54
631.653	38196.32
631.848	37336.18
632.042	36598.91
632.236	36021.38
632.43	34485.4
632.624	34102.43
632.818	32857.27
633.012	31712.45
633.206	30848.21
633.4	30334.17
633.594	28693.75
633.788	27901.18
633.982	27237.64
634.176	26162.46
634.369	25183.53
634.563	24259.9
634.757	23203.14
634.951	22611.28
635.145	21667.17
635.339	20821.36
635.533	19883.39
635.726	19172.74
635.92	18146.71
636.114	17728.92
636.308	16721.32
636.501	16291.25
636.695	15556.03
636.889	15052.23
637.083	14333.39
637.276	13581.79
637.47	13116.9
637.664	12684.78
637.857	12250.61
638.051	11795.96
638.244	11179.52
638.438	10776.07
638.632	10337.8
638.825	9766.42
639.019	9688.6
639.212	9168.41
639.406	8783.4
639.599	8338.99
639.793	8171.05
639.986	7620.15
640.18	7714.36
640.373	7142.97
640.567	6960.7
640.76	6633.03
640.954	6315.59
641.147	6250.06
641.34	5996.11
641.534	5650
641.727	5502.55
641.92	5297.75
642.114	4994.65
642.307	4896.35
642.5	4712.03
642.694	4390.5
642.887	4453.99
643.08	4191.85
643.273	4054.64
643.467	3966.57
643.66	3825.26
643.853	3528.31
644.046	3370.62
644.239	3262.07
644.432	3128.95
644.626	3040.89
644.819	2897.53
645.012	2805.38
645.205	2842.24
645.398	2672.26
645.591	2512.52
645.784	2354.82
645.977	2287.24
646.17	2301.58
646.363	2215.56
646.556	2027.15
646.749	1963.66
646.942	1910.41
647.135	2010.76
647.328	1730.19
647.521	1742.48
647.714	1705.62
647.907	1640.08
648.099	1539.73
648.292	1588.88
648.485	1365.65
648.678	1431.19
648.871	1382.04
649.064	1316.5
649.256	1085.08
649.449	1238.68
649.642	1087.13
649.835	1134.23
650.027	1035.93
650.22	1062.55
650.413	925.34
650.605	1017.5
650.798	913.05
650.991	943.77
651.183	870.05
651.376	833.18
651.568	872.09
651.761	853.66
651.954	808.61
652.146	683.68
652.339	829.09
652.531	747.17
652.724	679.58
652.916	675.49
653.109	489.12
653.301	634.53
653.494	714.4
653.686	628.39
653.879	681.63
654.071	542.37
654.263	575.14
654.456	507.55
654.648	521.89
654.84	517.79
655.033	431.78
655.225	564.9
655.417	325.29
655.61	501.41
655.802	458.4
655.994	521.89
656.186	308.9
656.379	468.64
656.571	452.26
656.763	327.33
656.955	214.7
657.148	366.25
657.34	358.05
657.532	304.81
657.724	313
657.916	298.66
658.108	423.59
658.3	368.29
658.492	360.1
658.684	300.71
658.876	366.25
659.068	206.5
659.26	126.63
659.452	212.65
659.644	253.61
659.836	448.16
660.028	286.37
660.22	206.5
660.412	161.45
660.604	329.38
660.796	253.61
660.988	229.03
661.18	231.08
661.372	306.85
661.563	263.85
661.755	300.71
661.947	202.41
662.139	126.63
662.331	341.67
662.522	235.18
662.714	132.78
662.906	140.97
663.097	196.26
663.289	114.34
663.481	132.78
663.673	208.55
663.864	190.12
664.056	331.43
664.247	87.72
664.439	269.99
664.631	192.17
664.822	202.41
665.014	188.07
665.205	106.15
665.397	194.22
665.588	157.35
665.78	190.12
665.971	231.08
666.163	192.17
666.354	145.06
666.546	85.67
666.737	181.93
666.929	126.63
667.12	159.4
667.311	132.78
667.503	124.58
667.694	171.69
667.885	206.5
668.077	241.32
668.268	26.28
668.459	134.82
668.651	108.2
668.842	220.84
669.033	108.2
669.224	95.91
669.416	331.43
669.607	126.63
669.798	114.34
669.989	175.78
670.18	177.83
670.371	208.55
670.563	61.1
670.754	222.89
670.945	106.15
671.136	231.08
671.327	83.63
671.518	241.32
671.709	259.75
671.9	212.65
672.091	208.55
672.282	63.15
672.473	104.11
672.664	26.28
672.855	128.68
673.046	206.5
673.237	214.7
673.428	181.93
673.619	97.96
673.809	136.87
674	192.17
674.191	192.17
674.382	110.25
674.573	134.82
674.764	186.02
674.954	255.65
675.145	97.96
675.336	239.27
675.527	69.29
675.717	67.24
675.908	155.3
676.099	95.91
676.289	118.44
676.48	110.25
676.671	171.69
676.861	77.48
677.052	151.21
677.243	145.06
677.433	95.91
677.624	233.13
677.814	95.91
678.005	91.82
678.195	237.22
678.386	153.26
678.576	163.5
678.767	48.81
678.957	198.31
679.148	222.89
679.338	302.76
679.529	229.03
679.719	241.32
679.909	259.75
680.1	202.41
680.29	165.54
680.481	140.97
680.671	253.61
680.861	165.54
681.052	222.89
681.242	124.58
681.432	210.6
681.622	204.46
681.813	52.91
682.003	153.26
682.193	65.19
682.383	163.5
682.573	224.94
682.764	251.56
682.954	255.65
683.144	241.32
683.334	241.32
683.524	263.85
683.714	286.37
683.904	257.7
684.094	204.46
684.284	147.11
684.474	304.81
684.664	353.96
684.854	214.7
685.044	177.83
685.234	224.94
685.424	220.84
685.614	216.74
685.804	294.57
685.994	263.85
686.184	163.5
686.374	161.45
686.564	304.81
686.753	249.51
686.943	130.73
687.133	136.87
687.323	173.74
687.513	220.84
687.702	202.41
687.892	179.88
688.082	284.33
688.272	247.46
688.461	257.7
688.651	317.09
688.841	261.8
689.03	241.32
689.22	194.22
689.41	288.42
689.599	175.78
689.789	190.12
689.979	337.57
690.168	147.11
690.358	233.13
690.547	194.22
690.737	212.65
690.926	253.61
691.116	218.79
691.305	298.66
691.495	194.22
691.684	120.49
691.874	194.22
692.063	292.52
692.252	321.19
692.442	220.84
692.631	216.74
692.82	183.98
693.01	317.09
693.199	214.7
693.388	188.07
693.578	235.18
693.767	222.89
693.956	222.89
694.146	235.18
694.335	198.31
694.524	220.84
694.713	147.11
694.902	186.02
695.092	130.73
695.281	204.46
695.47	241.32
695.659	116.39
695.848	263.85
696.037	128.68
696.226	280.23
696.415	188.07
696.604	216.74
696.793	233.13
696.982	231.08
697.171	269.99
697.36	179.88
697.549	214.7
697.738	-51.54
697.927	186.02
698.116	104.11
698.305	161.45
698.494	136.87
698.683	163.5
698.872	304.81
699.061	179.88
699.25	143.02
699.438	175.78
699.627	124.58
699.816	288.42
700.005	77.48
700.193	104.11
700.382	304.81
700.571	247.46
700.76	173.74
700.948	177.83
701.137	231.08
701.326	220.84
701.514	126.63
701.703	265.89
701.892	186.02
702.08	380.58
702.269	212.65
702.457	181.93
702.646	220.84
702.834	198.31
703.023	216.74
703.212	204.46
703.4	202.41
703.589	143.02
703.777	243.37
703.965	192.17
704.154	157.35
704.342	124.58
704.531	124.58
704.719	194.22
704.907	267.94
705.096	110.25
705.284	159.4
705.472	204.46
705.661	190.12
705.849	216.74
706.037	339.62
706.226	188.07
706.414	249.51
706.602	124.58
706.79	231.08
706.979	36.52
707.167	198.31
707.355	38.57
707.543	204.46
707.731	126.63
707.919	249.51
708.107	155.3
708.296	200.36
708.484	116.39
708.672	233.13
708.86	218.79
709.048	179.88
709.236	140.97
709.424	233.13
709.612	282.28
709.8	159.4
709.988	222.89
710.176	269.99
710.364	226.98
710.551	245.41
710.739	120.49
710.927	114.34
711.115	134.82
711.303	278.18
711.491	327.33
711.679	177.83
711.866	231.08
712.054	112.3
712.242	118.44
712.43	276.13
712.617	169.64
712.805	274.09
712.993	198.31
713.181	93.87
713.368	276.13
713.556	161.45
713.744	93.87
713.931	388.77
714.119	231.08
714.306	171.69
714.494	218.79
714.682	196.26
714.869	30.38
715.057	104.11
715.244	54.95
715.432	147.11
715.619	161.45
715.807	153.26
715.994	118.44
716.182	245.41
716.369	177.83
716.556	259.75
716.744	118.44
716.931	161.45
717.119	161.45
717.306	222.89
717.493	304.81
717.681	251.56
717.868	159.4
718.055	239.27
718.242	206.5
718.43	194.22
718.617	239.27
718.804	167.59
718.991	261.8
719.179	198.31
719.366	290.47
719.553	237.22
719.74	192.17
719.927	204.46
720.114	224.94
720.301	132.78
720.488	171.69
720.676	52.91
720.863	261.8
721.05	304.81
721.237	206.5
721.424	294.57
721.611	265.89
721.798	104.11
721.985	87.72
722.172	165.54
722.358	165.54
722.545	325.29
722.732	259.75
722.919	353.96
723.106	255.65
723.293	196.26
723.48	231.08
723.667	124.58
723.853	276.13
724.04	183.98
724.227	282.28
724.414	120.49
724.6	269.99
724.787	300.71
724.974	362.15
725.161	243.37
725.347	235.18
725.534	243.37
725.72	296.61
725.907	272.04
726.094	198.31
726.28	136.87
726.467	192.17
726.653	169.64
726.84	321.19
727.027	284.33
727.213	206.5
727.4	313
727.586	269.99
727.773	239.27
727.959	169.64
728.145	231.08
728.332	181.93
728.518	167.59
728.705	247.46
728.891	284.33
729.077	292.52
729.264	204.46
729.45	212.65
729.636	308.9
729.823	269.99
730.009	265.89
730.195	282.28
730.382	239.27
730.568	122.54
730.754	173.74
730.94	202.41
731.126	216.74
731.313	231.08
731.499	208.55
731.685	325.29
731.871	296.61
732.057	286.37
732.243	188.07
732.429	222.89
732.615	323.24
732.801	198.31
732.987	288.42
733.173	265.89
733.359	155.3
733.545	259.75
733.731	241.32
733.917	321.19
734.103	292.52
734.289	296.61
734.475	186.02
734.661	421.54
734.847	296.61
735.033	261.8
735.219	269.99
735.404	218.79
735.59	220.84
735.776	239.27
735.962	204.46
736.148	304.81
736.333	308.9
736.519	241.32
736.705	204.46
736.89	306.85
737.076	257.7
737.262	173.74
737.447	181.93
737.633	241.32
737.819	358.05
738.004	231.08
738.19	247.46
738.375	214.7
738.561	286.37
738.747	276.13
738.932	186.02
739.118	366.25
739.303	288.42
739.489	276.13
739.674	249.51
739.859	229.03
740.045	302.76
740.23	274.09
740.416	54.95
740.601	224.94
740.786	255.65
740.972	83.63
741.157	265.89
741.342	212.65
741.528	163.5
741.713	343.72
741.898	263.85
742.084	278.18
742.269	251.56
742.454	284.33
742.639	288.42
742.824	282.28
743.01	317.09
743.195	315.05
743.38	235.18
743.565	198.31
743.75	235.18
743.935	306.85
744.12	214.7
744.305	120.49
744.49	204.46
744.675	235.18
744.86	159.4
745.045	259.75
745.23	315.05
745.415	231.08
745.6	417.44
745.785	192.17
745.97	251.56
746.155	245.41
746.34	333.48
746.525	222.89
746.71	278.18
746.895	171.69
747.079	179.88
747.264	233.13
747.449	284.33
747.634	327.33
747.819	280.23
748.003	220.84
748.188	138.92
748.373	216.74
748.557	263.85
748.742	251.56
748.927	206.5
749.111	143.02
749.296	192.17
749.481	204.46
749.665	216.74
749.85	169.64
750.034	229.03
750.219	136.87
750.404	112.3
750.588	114.34
750.773	134.82
750.957	120.49
751.141	226.98
751.326	222.89
751.51	104.11
751.695	124.58
751.879	204.46
752.064	308.9
752.248	97.96
752.432	313
752.617	267.94
752.801	239.27
752.985	218.79
753.17	224.94
753.354	194.22
753.538	190.12
753.722	112.3
753.907	145.06
754.091	132.78
754.275	245.41
754.459	134.82
754.643	118.44
754.828	210.6
755.012	245.41
755.196	87.72
755.38	93.87
755.564	97.96
755.748	108.2
755.932	151.21
756.116	147.11
756.3	186.02
756.484	118.44
756.668	226.98
756.852	100.01
757.036	177.83
757.22	120.49
757.404	73.39
757.588	100.01
757.772	186.02
757.956	128.68
758.14	245.41
758.323	114.34
758.507	218.79
758.691	75.43
758.875	186.02
759.059	204.46
759.242	138.92
759.426	151.21
759.61	186.02
759.794	57
759.977	210.6
760.161	353.96
760.345	216.74
760.528	194.22
760.712	235.18
760.895	194.22
761.079	145.06
761.263	52.91
761.446	126.63
761.63	81.58
761.813	206.5
761.997	61.1
762.18	136.87
762.364	179.88
762.547	61.1
762.731	87.72
762.914	124.58
763.098	108.2
763.281	97.96
763.464	40.62
763.648	116.39
763.831	57
764.015	22.19
764.198	222.89
764.381	83.63
764.564	110.25
764.748	122.54
764.931	61.1
765.114	87.72
765.297	149.16
765.481	32.43
765.664	50.86
765.847	9.9
766.03	173.74
766.213	18.09
766.397	77.48
766.58	20.14
766.763	140.97
766.946	36.52
767.129	50.86
767.312	57
767.495	65.19
767.678	28.33
767.861	87.72
768.044	106.15
768.227	-24.92
768.41	61.1
768.593	116.39
768.776	97.96
768.959	104.11
769.142	220.84
769.324	1.71
769.507	120.49
769.69	1.71
769.873	50.86
770.056	241.32
770.239	124.58
770.421	145.06
770.604	159.4
770.787	9.9
770.97	112.3
771.152	-12.63
771.335	91.82
771.518	-18.77
771.7	73.39
771.883	157.35
772.066	38.57
772.248	93.87
772.431	138.92
772.613	65.19
772.796	81.58
772.978	104.11
773.161	188.07
773.343	75.43
773.526	57
773.708	-78.16
773.891	22.19
774.073	65.19
774.256	118.44
774.438	186.02
774.621	-18.77
774.803	110.25
774.985	42.67
775.168	153.26
775.35	-2.39
775.532	91.82
775.715	89.77
775.897	149.16
776.079	50.86
776.261	102.06
776.444	50.86
776.626	97.96
776.808	65.19
776.99	-20.82
777.173	157.35
777.355	130.73
777.537	140.97
777.719	85.67
777.901	48.81
778.083	16.04
778.265	67.24
778.447	48.81
778.629	-49.49
778.811	87.72
778.993	77.48
779.175	147.11
779.357	52.91
779.539	-63.83
779.721	63.15
779.903	48.81
780.085	13.99
780.267	48.81
780.449	28.33
780.631	79.53
780.812	181.93
780.994	5.8
781.176	28.33
781.358	-10.58
781.54	87.72
781.721	87.72
781.903	97.96
782.085	9.9
782.267	167.59
782.448	-22.87
782.63	22.19
782.812	38.57
782.993	79.53
783.175	69.29
783.357	73.39
783.538	85.67
783.72	20.14
783.901	24.23
784.083	106.15
784.264	124.58
784.446	-6.49
784.627	-67.92
784.809	50.86
784.99	5.8
785.172	67.24
785.353	40.62
785.535	110.25
785.716	44.71
785.897	28.33
786.079	65.19
786.26	11.95
786.441	34.47
786.623	-6.49
786.804	-67.92
786.985	65.19
787.167	87.72
787.348	16.04
787.529	22.19
787.71	173.74
787.891	-10.58
788.073	-33.11
788.254	-67.92
788.435	151.21
788.616	97.96
788.797	-12.63
788.978	52.91
789.159	-2.39
789.34	50.86
789.522	75.43
789.703	-92.5
789.884	5.8
790.065	13.99
790.246	171.69
790.427	-20.82
790.607	122.54
790.788	83.63
790.969	-76.12
791.15	48.81
791.331	-22.87
791.512	9.9
791.693	-51.54
791.874	-63.83
792.054	157.35
792.235	73.39
792.416	-67.92
792.597	-24.92
792.778	77.48
792.958	13.99
793.139	79.53
793.32	-6.49
793.5	-59.73
793.681	93.87
793.862	102.06
794.042	9.9
794.223	-123.22
794.404	18.09
794.584	-117.08
794.765	52.91
794.945	83.63
795.126	26.28
795.306	140.97
795.487	-0.34
795.667	50.86
795.848	16.04
796.028	36.52
796.209	20.14
796.389	67.24
796.57	40.62
796.75	-18.77
796.93	-47.44
797.111	-84.31
797.291	-24.92
797.471	95.91
797.652	-92.5
797.832	11.95
798.012	95.91
798.192	-47.44
798.373	-67.92
798.553	9.9
798.733	100.01
798.913	-10.58
799.093	1.71
799.274	13.99
799.454	132.78
799.634	50.86
799.814	75.43
799.994	42.67
800.174	40.62
800.354	7.85
800.534	-67.92
800.714	81.58
800.894	13.99
801.074	-31.06
801.254	-92.5
801.434	67.24
801.614	7.85
801.794	-45.4
801.974	1500.82
802.154	11.95
802.334	7.85
802.514	-59.73
802.693	-76.12
802.873	-16.73
803.053	83.63
803.233	48.81
803.413	1.71
803.592	3.75
803.772	-4.44
803.952	-55.64
804.131	-131.41
804.311	89.77
804.491	42.67
804.67	-33.11
804.85	-20.82
805.03	71.34
805.209	79.53
805.389	18.09
805.568	65.19
805.748	-45.4
805.928	-29.01
806.107	85.67
806.287	32.43
806.466	87.72
806.646	65.19
806.825	-0.34
807.004	38.57
807.184	-35.16
807.363	26.28
807.543	61.1
807.722	-35.16
807.901	54.95
808.081	104.11
808.26	-170.32
808.439	-0.34
808.619	-18.77
808.798	-0.34
808.977	24.23
809.156	120.49
809.336	-51.54
809.515	20.14
809.694	-0.34
809.873	-96.6
810.052	-4.44
810.231	93.87
810.411	7.85
810.59	128.68
810.769	-31.06
810.948	24.23
811.127	-94.55
811.306	30.38
811.485	13.99
811.664	183.98
811.843	-16.73
812.022	-0.34
812.201	24.23
812.38	-18.77
812.559	48.81
812.737	9.9
812.916	-47.44
813.095	-18.77
813.274	32.43
813.453	54.95
813.632	100.01
813.811	100.01
813.989	-102.74
814.168	-14.68
814.347	-96.6
814.526	57
814.704	235.18
814.883	79.53
815.062	-45.4
815.24	81.58
815.419	-26.96
815.598	-31.06
815.776	-59.73
815.955	71.34
816.133	-49.49
816.312	38.57
816.49	-78.16
816.669	-33.11
816.847	-29.01
817.026	93.87
817.204	48.81
817.383	7.85
817.561	-76.12
817.74	38.57
817.918	26.28
818.097	-22.87
818.275	22.19
818.453	102.06
818.632	16.04
818.81	75.43
818.988	-2.39
819.167	30.38
819.345	9.9
819.523	-112.98
819.701	85.67
819.879	-39.25
820.058	67.24
820.236	59.05
820.414	11.95
820.592	-63.83
820.77	-29.01
820.948	-41.3
821.127	65.19
821.305	30.38
821.483	-141.65
821.661	126.63
821.839	20.14
822.017	-90.45
822.195	28.33
822.373	5.8
822.551	-16.73
822.729	83.63
822.907	-8.53
823.085	52.91
823.262	44.71
823.44	1.71
823.618	-43.35
823.796	-8.53
823.974	-6.49
824.152	-20.82
824.329	-16.73
824.507	36.52
824.685	65.19
824.863	26.28
825.04	61.1
825.218	-0.34
825.396	-0.34
825.574	16.04
825.751	30.38
825.929	-47.44
826.107	-59.73
826.284	-6.49
826.462	-16.73
826.639	-96.6
826.817	-61.78
826.994	-20.82
827.172	-121.17
827.349	110.25
827.527	69.29
827.704	28.33
827.882	91.82
828.059	-14.68
828.237	-72.02
828.414	63.15
828.591	-53.59
828.769	-0.34
828.946	-82.26
829.124	114.34
829.301	132.78
829.478	24.23
829.655	11.95
829.833	93.87
830.01	-43.35
830.187	42.67
830.364	-10.58
830.542	-24.92
830.719	143.02
830.896	85.67
831.073	7.85
831.25	3.75
831.427	42.67
831.604	11.95
831.782	-22.87
831.959	-4.44
832.136	46.76
832.313	42.67
832.49	-49.49
832.667	18.09
832.844	-86.36
833.021	128.68
833.198	-43.35
833.374	-14.68
833.551	-22.87
833.728	34.47
833.905	57
834.082	-135.51
834.259	13.99
834.436	7.85
834.612	-133.46
834.789	59.05
834.966	44.71
835.143	46.76
835.319	-123.22
835.496	71.34
835.673	11.95
835.85	130.73
836.026	16.04
836.203	63.15
836.38	-29.01
836.556	-84.31
836.733	-12.63
836.909	132.78
837.086	-39.25
837.262	-31.06
837.439	18.09
837.616	-96.6
837.792	11.95
837.968	100.01
838.145	-121.17
838.321	22.19
838.498	79.53
838.674	48.81
838.851	20.14
839.027	-74.07
839.203	-4.44
839.38	59.05
839.556	-14.68
839.732	97.96
839.909	-18.77
840.085	46.76
840.261	-26.96
840.437	5.8
840.614	18.09
840.79	118.44
840.966	1.71
841.142	-0.34
841.318	-0.34
841.494	26.28
841.671	128.68
841.847	13.99
842.023	-129.36
842.199	46.76
842.375	136.87
842.551	-106.84
842.727	-94.55
842.903	140.97
843.079	-115.03
843.255	112.3
843.431	59.05
843.607	-47.44
843.783	-139.6
843.959	11.95
844.134	-45.4
844.31	120.49
844.486	-26.96
844.662	-127.32
844.838	-35.16
845.013	63.15
845.189	36.52
845.365	65.19
845.541	-2.39
845.716	28.33
845.892	57
846.068	-31.06
846.244	-43.35
846.419	54.95
846.595	-51.54
846.77	16.04
846.946	50.86
847.122	-35.16
847.297	3.75
847.473	153.26
847.648	-100.69
847.824	48.81
847.999	-80.21
848.175	-26.96
848.35	-4.44
848.526	122.54
848.701	34.47
848.876	128.68
849.052	83.63
849.227	-29.01
849.403	-51.54
849.578	1.71
849.753	44.71
849.929	3.75
850.104	-61.78
850.279	40.62
850.454	-8.53
850.63	83.63
850.805	-26.96
850.98	-43.35
851.155	-20.82
851.33	9.9
851.505	-57.68
851.681	124.58
851.856	-14.68
852.031	26.28
852.206	50.86
852.381	-82.26
852.556	-47.44
852.731	-10.58
852.906	71.34
853.081	91.82
853.256	97.96
853.431	67.24
853.606	-74.07
853.781	-61.78
853.956	-74.07
854.131	-2.39
854.305	-80.21
854.48	-78.16
854.655	-84.31
854.83	-57.68
855.005	-16.73
855.18	42.67
855.354	7.85
855.529	40.62
855.704	16.04
855.879	54.95
856.053	-39.25
856.228	50.86
856.403	-82.26
856.577	30.38
856.752	-33.11
856.926	-24.92
857.101	46.76
857.276	-88.4
857.45	28.33
857.625	44.71
857.799	5.8
857.974	16.04
858.148	-115.03
858.323	34.47
858.497	-61.78
858.672	-24.92
858.846	-51.54
859.02	100.01
859.195	-69.97
859.369	-22.87
859.543	22.19
859.718	-43.35
859.892	42.67
860.066	-0.34
860.241	-37.2
860.415	-57.68
860.589	52.91
860.763	13.99
860.938	13.99
861.112	48.81
861.286	-6.49
861.46	-43.35
861.634	32.43
861.808	26.28
861.982	-55.64
862.157	-63.83
862.331	-12.63
862.505	-137.56
862.679	-104.79
862.853	-24.92
863.027	-37.2
863.201	151.21
863.375	-49.49
863.549	1.71
863.722	63.15
863.896	5.8
864.07	-78.16
864.244	-12.63
864.418	140.97
864.592	-20.82
864.766	38.57
864.939	16.04
865.113	-41.3
865.287	120.49
865.461	-69.97
865.634	63.15
865.808	30.38
865.982	-47.44
866.156	-86.36
866.329	-121.17
866.503	38.57
866.676	18.09
866.85	-55.64
867.024	-35.16
867.197	18.09
867.371	32.43
867.544	-24.92
867.718	-45.4
867.891	102.06
868.065	-94.55
868.238	-2.39
868.412	46.76
868.585	36.52
868.759	-59.73
868.932	-51.54
869.105	-131.41
869.279	-12.63
869.452	-43.35
869.625	48.81
869.799	28.33
869.972	-6.49
870.145	-12.63
870.319	95.91
870.492	-69.97
870.665	-104.79
870.838	-16.73
871.011	-135.51
871.185	-51.54
871.358	-69.97
871.531	122.54
871.704	-6.49
871.877	85.67
872.05	-45.4
872.223	-26.96
872.396	54.95
872.569	16.04
872.742	-35.16
872.915	-29.01
873.088	-41.3
873.261	-33.11
873.434	118.44
873.607	-43.35
873.78	87.72
873.953	-141.65
874.126	48.81
874.299	63.15
874.471	-18.77
874.644	28.33
874.817	112.3
874.99	159.4
875.163	50.86
875.335	34.47
875.508	-12.63
875.681	20.14
875.853	-39.25
876.026	-2.39
876.199	52.91
876.371	85.67
876.544	16.04
876.717	-22.87
876.889	-6.49
877.062	3.75
877.234	-0.34
877.407	-22.87
877.579	22.19
877.752	-39.25
877.924	108.2
878.097	112.3
878.269	26.28
878.442	7.85
878.614	65.19
878.786	9.9
878.959	-22.87
879.131	-35.16
879.303	-119.12
879.476	-29.01
879.648	11.95
879.82	89.77
879.993	-16.73
880.165	-29.01
880.337	-84.31
880.509	87.72
880.681	-108.88
880.854	-4.44
881.026	54.95
881.198	138.92
881.37	-16.73
881.542	-57.68
881.714	-6.49
881.886	18.09
882.058	-14.68
882.23	-39.25
882.402	-80.21
882.574	28.33
882.746	16.04
882.918	140.97
883.09	57
883.262	-65.88
883.434	-10.58
883.606	-104.79
883.778	-69.97
883.95	159.4
884.122	-82.26
884.293	134.82
884.465	71.34
884.637	48.81
884.809	-59.73
884.98	13.99
885.152	73.39
885.324	38.57
885.496	-18.77
885.667	-20.82
885.839	-57.68
886.011	83.63
886.182	44.71
886.354	7.85
886.525	54.95
886.697	20.14
886.869	5.8
887.04	-51.54
887.212	77.48
887.383	91.82
887.555	16.04
887.726	-39.25
887.897	-29.01
888.069	36.52
888.24	91.82
888.412	61.1
888.583	44.71
888.754	-18.77
888.926	-12.63
889.097	-37.2
889.268	-29.01
889.44	-22.87
889.611	-74.07
889.782	-90.45
889.953	-43.35
890.125	116.39
890.296	-35.16
890.467	-65.88
890.638	-115.03
890.809	-18.77
890.98	-78.16
891.151	104.11
891.323	52.91
891.494	16.04
891.665	16.04
891.836	-6.49
892.007	18.09
892.178	-41.3
892.349	-33.11
892.52	32.43
892.691	42.67
892.862	7.85
893.032	-137.56
893.203	-8.53
893.374	65.19
893.545	42.67
893.716	26.28
893.887	149.16
894.057	-41.3
894.228	-76.12
894.399	-22.87
894.57	83.63
894.74	-90.45
894.911	57
895.082	65.19
895.253	-22.87
895.423	18.09
895.594	73.39
895.764	-33.11
895.935	-110.93
896.106	26.28
896.276	-12.63
896.447	18.09
896.617	-63.83
896.788	-67.92
896.958	-59.73
897.129	-67.92
897.299	-80.21
897.47	134.82
897.64	40.62
897.81	-82.26
897.981	73.39
898.151	-92.5
898.322	54.95
898.492	-12.63
898.662	-39.25
898.832	-65.88
899.003	28.33
899.173	-41.3
899.343	-55.64
899.513	-115.03
