Data from USB4F104151__133__10-46-47-754.txt Node

Date: Wed Feb 26 10:46:47 EST 2025
User: louis
Spectrometer: USB4F10415
Trigger mode: 4
Integration Time (sec): 1.000000E-1
Scans to average: 1
Electric dark correction enabled: true
Nonlinearity correction enabled: false
Boxcar width: 0
XAxis mode: Wavelengths
Number of Pixels in Spectrum: 3648
>>>>>Begin Spectral Data<<<<<
178.204	-428.2
178.424	-428.2
178.644	-428.2
178.864	-463.01
179.084	-370.85
179.304	-14.51
179.524	-53.42
179.744	-6.31
179.964	38.74
180.184	48.98
180.404	22.36
180.624	1.88
180.844	-2.22
181.064	-57.51
181.283	16.21
181.503	-37.03
181.723	42.84
181.943	-86.19
182.163	173.91
182.383	-0.17
182.602	89.94
182.822	75.6
183.042	-18.6
183.262	36.69
183.482	5.97
183.701	22.36
183.921	44.88
184.141	-16.55
184.361	67.41
184.58	42.84
184.8	69.46
185.02	-61.61
185.239	55.12
185.459	120.66
185.679	175.95
185.898	-69.8
186.118	42.84
186.338	46.93
186.557	98.13
186.777	-86.19
186.997	-55.47
187.216	-32.94
187.436	141.14
187.655	22.36
187.875	165.71
188.095	89.94
188.314	98.13
188.534	81.75
188.753	-41.13
188.973	36.69
189.192	178
189.412	53.08
189.631	38.74
189.851	130.9
190.07	157.52
190.29	-96.43
190.509	-2.22
190.729	26.45
190.948	139.09
191.168	202.58
191.387	110.42
191.607	20.31
191.826	40.79
192.045	5.97
192.265	18.26
192.484	98.13
192.704	18.26
192.923	-53.42
193.142	196.43
193.362	147.28
193.581	169.81
193.8	8.02
194.02	89.94
194.239	-14.51
194.458	143.19
194.678	8.02
194.897	-10.41
195.116	106.32
195.335	46.93
195.555	42.84
195.774	24.4
195.993	65.36
196.212	-84.14
196.432	-2.22
196.651	-45.23
196.87	42.84
197.089	237.39
197.308	10.07
197.528	32.6
197.747	-65.71
197.966	36.69
198.185	204.63
198.404	-28.84
198.623	202.58
198.842	102.23
199.062	46.93
199.281	184.15
199.5	48.98
199.719	30.55
199.938	63.32
200.157	73.56
200.376	155.47
200.595	85.84
200.814	12.12
201.033	-4.27
201.252	106.32
201.471	32.6
201.69	73.56
201.909	59.22
202.128	114.52
202.347	67.41
202.566	3.93
202.785	-100.52
203.004	-26.79
203.223	235.35
203.442	-28.84
203.661	-39.08
203.879	-0.17
204.098	208.72
204.317	-75.95
204.536	53.08
204.755	104.28
204.974	104.28
205.193	-39.08
205.411	63.32
205.63	87.89
205.849	1.88
206.068	81.75
206.287	-57.51
206.505	196.43
206.724	28.5
206.943	-61.61
207.162	-106.67
207.381	75.6
207.599	38.74
207.818	48.98
208.037	-34.99
208.255	1.88
208.474	40.79
208.693	63.32
208.911	-32.94
209.13	34.64
209.349	65.36
209.567	100.18
209.786	40.79
210.005	85.84
210.223	-41.13
210.442	-88.23
210.661	-14.51
210.879	79.7
211.098	126.8
211.316	-14.51
211.535	69.46
211.753	-8.36
211.972	102.23
212.191	-43.18
212.409	-14.51
212.628	106.32
212.846	46.93
213.065	22.36
213.283	157.52
213.502	79.7
213.72	81.75
213.938	-22.7
214.157	-0.17
214.375	159.57
214.594	-104.62
214.812	71.51
215.031	18.26
215.249	40.79
215.467	42.84
215.686	87.89
215.904	38.74
216.122	-41.13
216.341	71.51
216.559	46.93
216.778	143.19
216.996	98.13
217.214	1.88
217.432	71.51
217.651	-96.43
217.869	5.97
218.087	28.5
218.306	-4.27
218.524	28.5
218.742	-32.94
218.96	122.71
219.179	3.93
219.397	-2.22
219.615	249.68
219.833	159.57
220.051	-45.23
220.27	116.56
220.488	53.08
220.706	-14.51
220.924	-84.14
221.142	-24.75
221.36	14.17
221.578	22.36
221.796	5.97
222.015	-47.27
222.233	67.41
222.451	118.61
222.669	-26.79
222.887	5.97
223.105	-0.17
223.323	-28.84
223.541	-92.33
223.759	79.7
223.977	51.03
224.195	180.05
224.413	128.85
224.631	32.6
224.849	14.17
225.067	169.81
225.285	-94.38
225.503	-75.95
225.721	-96.43
225.939	85.84
226.157	65.36
226.375	186.19
226.592	-41.13
226.81	8.02
227.028	69.46
227.246	139.09
227.464	38.74
227.682	120.66
227.9	114.52
228.117	67.41
228.335	91.99
228.553	8.02
228.771	-88.23
228.989	-26.79
229.206	53.08
229.424	-86.19
229.642	22.36
229.86	22.36
230.077	81.75
230.295	-4.27
230.513	83.8
230.731	73.56
230.948	243.54
231.166	87.89
231.384	-24.75
231.601	-24.75
231.819	163.67
232.037	-10.41
232.254	-20.65
232.472	-41.13
232.689	1.88
232.907	69.46
233.125	-88.23
233.342	-86.19
233.56	-10.41
233.777	-4.27
233.995	10.07
234.213	-12.46
234.43	30.55
234.648	3.93
234.865	-22.7
235.083	14.17
235.3	69.46
235.518	51.03
235.735	157.52
235.953	83.8
236.17	24.4
236.388	-47.27
236.605	18.26
236.822	48.98
237.04	110.42
237.257	143.19
237.475	-84.14
237.692	48.98
237.909	40.79
238.127	-6.31
238.344	149.33
238.562	51.03
238.779	-43.18
238.996	46.93
239.214	-47.27
239.431	71.51
239.648	18.26
239.865	108.37
240.083	91.99
240.3	10.07
240.517	-22.7
240.735	51.03
240.952	120.66
241.169	81.75
241.386	57.17
241.603	69.46
241.821	-73.9
242.038	-6.31
242.255	59.22
242.472	-45.23
242.689	73.56
242.907	48.98
243.124	77.65
243.341	18.26
243.558	-26.79
243.775	-59.56
243.992	-28.84
244.209	106.32
244.426	100.18
244.643	100.18
244.86	-43.18
245.078	137.04
245.295	-16.55
245.512	14.17
245.729	-12.46
245.946	132.95
246.163	28.5
246.38	55.12
246.597	85.84
246.814	-28.84
247.031	53.08
247.248	-12.46
247.464	61.27
247.681	59.22
247.898	110.42
248.115	-39.08
248.332	-41.13
248.549	106.32
248.766	171.86
248.983	51.03
249.2	-0.17
249.417	89.94
249.633	-4.27
249.85	-16.55
250.067	-26.79
250.284	122.71
250.501	53.08
250.717	42.84
250.934	67.41
251.151	10.07
251.368	10.07
251.585	22.36
251.801	48.98
252.018	-71.85
252.235	40.79
252.451	-61.61
252.668	20.31
252.885	102.23
253.102	-12.46
253.318	-45.23
253.535	-12.46
253.752	18.26
253.968	-30.89
254.185	-49.32
254.401	67.41
254.618	22.36
254.835	-61.61
255.051	126.8
255.268	75.6
255.484	-20.65
255.701	24.4
255.917	130.9
256.134	-18.6
256.351	-14.51
256.567	-65.71
256.784	10.07
257	-22.7
257.217	65.36
257.433	87.89
257.65	89.94
257.866	159.57
258.082	-47.27
258.299	-26.79
258.515	14.17
258.732	14.17
258.948	-51.37
259.165	69.46
259.381	-45.23
259.597	59.22
259.814	89.94
260.03	8.02
260.246	-22.7
260.463	139.09
260.679	102.23
260.895	53.08
261.112	51.03
261.328	-2.22
261.544	-127.14
261.761	98.13
261.977	3.93
262.193	-24.75
262.409	118.61
262.626	24.4
262.842	59.22
263.058	-49.32
263.274	85.84
263.49	46.93
263.707	110.42
263.923	106.32
264.139	-65.71
264.355	-2.22
264.571	137.04
264.787	63.32
265.004	81.75
265.22	30.55
265.436	-22.7
265.652	-18.6
265.868	-18.6
266.084	-82.09
266.3	46.93
266.516	-47.27
266.732	1.88
266.948	5.97
267.164	-22.7
267.38	118.61
267.596	22.36
267.812	112.47
268.028	10.07
268.244	81.75
268.46	22.36
268.676	-39.08
268.892	42.84
269.108	-41.13
269.324	-65.71
269.54	-0.17
269.756	20.31
269.972	-12.46
270.188	-12.46
270.403	-65.71
270.619	-10.41
270.835	-0.17
271.051	20.31
271.267	-55.47
271.483	-16.55
271.698	26.45
271.914	128.85
272.13	120.66
272.346	-45.23
272.562	145.24
272.777	198.48
272.993	-45.23
273.209	24.4
273.425	1.88
273.64	-92.33
273.856	122.71
274.072	-51.37
274.287	71.51
274.503	67.41
274.719	135
274.934	-34.99
275.15	-84.14
275.366	14.17
275.581	14.17
275.797	38.74
276.012	48.98
276.228	-12.46
276.444	65.36
276.659	77.65
276.875	-28.84
277.09	-18.6
277.306	-8.36
277.521	83.8
277.737	67.41
277.952	77.65
278.168	98.13
278.383	20.31
278.599	141.14
278.814	151.38
279.03	59.22
279.245	126.8
279.461	40.79
279.676	147.28
279.892	-80.04
280.107	3.93
280.322	10.07
280.538	-6.31
280.753	-8.36
280.969	73.56
281.184	53.08
281.399	147.28
281.615	42.84
281.83	67.41
282.045	-47.27
282.26	-53.42
282.476	12.12
282.691	38.74
282.906	28.5
283.122	44.88
283.337	-12.46
283.552	26.45
283.767	-14.51
283.983	108.37
284.198	-12.46
284.413	-0.17
284.628	30.55
284.843	85.84
285.058	38.74
285.274	1.88
285.489	-49.32
285.704	81.75
285.919	-55.47
286.134	-51.37
286.349	63.32
286.564	-22.7
286.779	145.24
286.995	67.41
287.21	-92.33
287.425	124.76
287.64	10.07
287.855	34.64
288.07	16.21
288.285	77.65
288.5	110.42
288.715	98.13
288.93	22.36
289.145	-75.95
289.36	91.99
289.575	-4.27
289.79	10.07
290.004	-22.7
290.219	108.37
290.434	-10.41
290.649	8.02
290.864	24.4
291.079	-59.56
291.294	8.02
291.509	83.8
291.724	30.55
291.938	-75.95
292.153	22.36
292.368	44.88
292.583	100.18
292.798	128.85
293.012	106.32
293.227	32.6
293.442	59.22
293.657	10.07
293.871	120.66
294.086	51.03
294.301	55.12
294.516	114.52
294.73	24.4
294.945	-47.27
295.16	-125.1
295.374	175.95
295.589	114.52
295.804	-55.47
296.018	10.07
296.233	98.13
296.447	16.21
296.662	-6.31
296.877	22.36
297.091	141.14
297.306	75.6
297.52	-59.56
297.735	108.37
297.949	-26.79
298.164	46.93
298.378	-26.79
298.593	-73.9
298.807	-16.55
299.022	-16.55
299.236	116.56
299.451	36.69
299.665	30.55
299.88	71.51
300.094	10.07
300.309	-0.17
300.523	104.28
300.737	30.55
300.952	44.88
301.166	85.84
301.381	16.21
301.595	28.5
301.809	38.74
302.024	57.17
302.238	-73.9
302.452	114.52
302.667	-26.79
302.881	139.09
303.095	87.89
303.309	71.51
303.524	28.5
303.738	-2.22
303.952	-22.7
304.166	110.42
304.381	-145.58
304.595	106.32
304.809	-57.51
305.023	-6.31
305.237	28.5
305.452	63.32
305.666	89.94
305.88	57.17
306.094	102.23
306.308	110.42
306.522	114.52
306.736	36.69
306.95	116.56
307.164	89.94
307.379	-39.08
307.593	157.52
307.807	130.9
308.021	59.22
308.235	104.28
308.449	-92.33
308.663	-39.08
308.877	208.72
309.091	55.12
309.305	38.74
309.519	-96.43
309.733	40.79
309.947	-12.46
310.161	94.04
310.374	44.88
310.588	98.13
310.802	-2.22
311.016	36.69
311.23	22.36
311.444	-49.32
311.658	55.12
311.872	32.6
312.085	75.6
312.299	85.84
312.513	77.65
312.727	14.17
312.941	-92.33
313.154	-2.22
313.368	-4.27
313.582	32.6
313.796	18.26
314.009	14.17
314.223	71.51
314.437	10.07
314.651	143.19
314.864	-43.18
315.078	-63.66
315.292	-43.18
315.505	26.45
315.719	65.36
315.933	83.8
316.146	3.93
316.36	-65.71
316.573	77.65
316.787	40.79
317.001	30.55
317.214	-108.71
317.428	65.36
317.641	-32.94
317.855	-18.6
318.068	44.88
318.282	-49.32
318.495	110.42
318.709	126.8
318.922	42.84
319.136	108.37
319.349	87.89
319.563	-59.56
319.776	57.17
319.99	-100.52
320.203	38.74
320.417	-20.65
320.63	83.8
320.843	149.33
321.057	51.03
321.27	-53.42
321.483	46.93
321.697	149.33
321.91	-2.22
322.124	38.74
322.337	51.03
322.55	-43.18
322.763	18.26
322.977	5.97
323.19	18.26
323.403	16.21
323.617	18.26
323.83	102.23
324.043	-34.99
324.256	24.4
324.469	-59.56
324.683	22.36
324.896	-26.79
325.109	-22.7
325.322	-2.22
325.535	91.99
325.748	87.89
325.962	-18.6
326.175	-16.55
326.388	57.17
326.601	67.41
326.814	34.64
327.027	16.21
327.24	118.61
327.453	-129.19
327.666	34.64
327.879	48.98
328.092	89.94
328.305	81.75
328.518	5.97
328.731	-30.89
328.944	16.21
329.157	46.93
329.37	3.93
329.583	141.14
329.796	112.47
330.009	-20.65
330.222	46.93
330.435	112.47
330.648	-16.55
330.861	30.55
331.073	24.4
331.286	81.75
331.499	57.17
331.712	-61.61
331.925	85.84
332.138	-8.36
332.35	87.89
332.563	-32.94
332.776	34.64
332.989	14.17
333.202	44.88
333.414	36.69
333.627	-86.19
333.84	44.88
334.053	-2.22
334.265	1.88
334.478	-53.42
334.691	5.97
334.903	-6.31
335.116	-59.56
335.329	28.5
335.541	65.36
335.754	98.13
335.966	-73.9
336.179	61.27
336.392	-6.31
336.604	28.5
336.817	87.89
337.029	40.79
337.242	14.17
337.454	61.27
337.667	59.22
337.88	89.94
338.092	91.99
338.305	91.99
338.517	-26.79
338.729	91.99
338.942	83.8
339.154	-51.37
339.367	-55.47
339.579	81.75
339.792	-125.1
340.004	75.6
340.217	-6.31
340.429	18.26
340.641	-51.37
340.854	-88.23
341.066	10.07
341.278	98.13
341.491	145.24
341.703	-18.6
341.915	-45.23
342.128	173.91
342.34	120.66
342.552	-37.03
342.764	-2.22
342.977	96.08
343.189	20.31
343.401	53.08
343.613	30.55
343.826	36.69
344.038	-84.14
344.25	44.88
344.462	3.93
344.674	18.26
344.886	-18.6
345.099	12.12
345.311	75.6
345.523	-30.89
345.735	-80.04
345.947	69.46
346.159	32.6
346.371	-2.22
346.583	32.6
346.795	153.43
347.007	-6.31
347.219	-12.46
347.431	48.98
347.643	20.31
347.855	-77.99
348.067	104.28
348.279	-32.94
348.491	1.88
348.703	75.6
348.915	1.88
349.127	-45.23
349.339	57.17
349.551	14.17
349.763	32.6
349.975	-2.22
350.187	120.66
350.399	81.75
350.61	116.56
350.822	-2.22
351.034	14.17
351.246	46.93
351.458	89.94
351.669	81.75
351.881	-10.41
352.093	87.89
352.305	116.56
352.517	48.98
352.728	114.52
352.94	94.04
353.152	69.46
353.363	-34.99
353.575	73.56
353.787	180.05
353.999	75.6
354.21	94.04
354.422	-63.66
354.633	36.69
354.845	-4.27
355.057	83.8
355.268	1.88
355.48	20.31
355.692	-131.24
355.903	-41.13
356.115	-67.75
356.326	-67.75
356.538	104.28
356.749	12.12
356.961	87.89
357.172	18.26
357.384	26.45
357.595	204.63
357.807	-28.84
358.018	-10.41
358.23	57.17
358.441	161.62
358.653	14.17
358.864	-37.03
359.075	-26.79
359.287	-12.46
359.498	130.9
359.709	34.64
359.921	1.88
360.132	94.04
360.344	24.4
360.555	-0.17
360.766	1.88
360.977	-73.9
361.189	126.8
361.4	-4.27
361.611	46.93
361.823	100.18
362.034	5.97
362.245	-67.75
362.456	71.51
362.667	137.04
362.879	-43.18
363.09	57.17
363.301	-0.17
363.512	46.93
363.723	-47.27
363.935	-4.27
364.146	77.65
364.357	-41.13
364.568	-45.23
364.779	-63.66
364.99	122.71
365.201	-8.36
365.412	141.14
365.623	-10.41
365.834	42.84
366.045	61.27
366.256	79.7
366.467	28.5
366.678	-2.22
366.889	-24.75
367.1	-22.7
367.311	91.99
367.522	-77.99
367.733	34.64
367.944	122.71
368.155	3.93
368.366	116.56
368.577	104.28
368.788	51.03
368.999	-24.75
369.209	40.79
369.42	290.64
369.631	188.24
369.842	55.12
370.053	-43.18
370.264	89.94
370.474	-39.08
370.685	102.23
370.896	14.17
371.107	155.47
371.317	87.89
371.528	-41.13
371.739	145.24
371.95	55.12
372.16	143.19
372.371	-73.9
372.582	1.88
372.792	8.02
373.003	85.84
373.214	73.56
373.424	53.08
373.635	-104.62
373.846	22.36
374.056	14.17
374.267	36.69
374.477	124.76
374.688	51.03
374.898	96.08
375.109	-4.27
375.319	-8.36
375.53	126.8
375.74	38.74
375.951	-4.27
376.161	16.21
376.372	147.28
376.582	-82.09
376.793	38.74
377.003	20.31
377.214	-63.66
377.424	3.93
377.635	-57.51
377.845	10.07
378.055	145.24
378.266	-30.89
378.476	28.5
378.686	65.36
378.897	30.55
379.107	44.88
379.317	120.66
379.528	5.97
379.738	30.55
379.948	-18.6
380.158	175.95
380.369	96.08
380.579	91.99
380.789	32.6
380.999	87.89
381.21	104.28
381.42	163.67
381.63	-6.31
381.84	77.65
382.05	81.75
382.261	173.91
382.471	116.56
382.681	-10.41
382.891	155.47
383.101	143.19
383.311	-47.27
383.521	22.36
383.731	143.19
383.941	169.81
384.151	-0.17
384.361	77.65
384.571	116.56
384.781	46.93
384.991	186.19
385.201	153.43
385.411	161.62
385.621	30.55
385.831	36.69
386.041	44.88
386.251	46.93
386.461	104.28
386.671	-18.6
386.881	20.31
387.091	34.64
387.301	34.64
387.511	44.88
387.72	71.51
387.93	65.36
388.14	-26.79
388.35	42.84
388.56	91.99
388.769	118.61
388.979	59.22
389.189	-86.19
389.399	3.93
389.609	-18.6
389.818	94.04
390.028	75.6
390.238	71.51
390.447	-14.51
390.657	44.88
390.867	-20.65
391.076	-123.05
391.286	30.55
391.496	1.88
391.705	-18.6
391.915	91.99
392.125	46.93
392.334	98.13
392.544	100.18
392.753	-2.22
392.963	118.61
393.172	14.17
393.382	5.97
393.591	210.77
393.801	-22.7
394.01	116.56
394.22	38.74
394.429	28.5
394.639	-26.79
394.848	32.6
395.058	75.6
395.267	-12.46
395.477	114.52
395.686	14.17
395.895	137.04
396.105	112.47
396.314	57.17
396.524	-14.51
396.733	24.4
396.942	59.22
397.152	69.46
397.361	147.28
397.57	16.21
397.78	48.98
397.989	81.75
398.198	175.95
398.407	-0.17
398.617	-24.75
398.826	112.47
399.035	-43.18
399.244	141.14
399.453	38.74
399.663	69.46
399.872	73.56
400.081	30.55
400.29	128.85
400.499	-75.95
400.708	104.28
400.917	-20.65
401.127	14.17
401.336	14.17
401.545	145.24
401.754	69.46
401.963	122.71
402.172	-22.7
402.381	-22.7
402.59	44.88
402.799	14.17
403.008	77.65
403.217	59.22
403.426	61.27
403.635	-24.75
403.844	61.27
404.053	18.26
404.262	-18.6
404.471	102.23
404.68	110.42
404.888	34.64
405.097	5.97
405.306	81.75
405.515	30.55
405.724	79.7
405.933	65.36
406.142	118.61
406.35	96.08
406.559	69.46
406.768	46.93
406.977	178
407.185	67.41
407.394	53.08
407.603	-39.08
407.812	83.8
408.02	73.56
408.229	87.89
408.438	42.84
408.646	-88.23
408.855	28.5
409.064	73.56
409.272	-26.79
409.481	102.23
409.69	-6.31
409.898	-69.8
410.107	128.85
410.315	137.04
410.524	-49.32
410.733	48.98
410.941	44.88
411.15	118.61
411.358	73.56
411.567	106.32
411.775	28.5
411.984	28.5
412.192	34.64
412.401	-39.08
412.609	200.53
412.818	57.17
413.026	153.43
413.234	8.02
413.443	55.12
413.651	-59.56
413.86	26.45
414.068	96.08
414.276	161.62
414.485	34.64
414.693	143.19
414.901	112.47
415.11	61.27
415.318	57.17
415.526	55.12
415.734	67.41
415.943	55.12
416.151	59.22
416.359	16.21
416.567	89.94
416.776	155.47
416.984	57.17
417.192	202.58
417.4	3.93
417.608	10.07
417.817	-67.75
418.025	42.84
418.233	128.85
418.441	-53.42
418.649	-43.18
418.857	63.32
419.065	206.67
419.273	-59.56
419.481	3.93
419.689	26.45
419.897	-32.94
420.105	-61.61
420.313	24.4
420.521	120.66
420.729	77.65
420.937	-61.61
421.145	-26.79
421.353	98.13
421.561	198.48
421.769	73.56
421.977	87.89
422.185	87.89
422.393	-10.41
422.601	75.6
422.809	100.18
423.017	16.21
423.224	48.98
423.432	120.66
423.64	48.98
423.848	139.09
424.056	-71.85
424.263	118.61
424.471	-2.22
424.679	130.9
424.887	1.88
425.094	94.04
425.302	79.7
425.51	22.36
425.718	94.04
425.925	81.75
426.133	-2.22
426.341	198.48
426.548	55.12
426.756	-39.08
426.964	79.7
427.171	30.55
427.379	132.95
427.586	73.56
427.794	32.6
428.001	126.8
428.209	126.8
428.417	231.25
428.624	157.52
428.832	75.6
429.039	126.8
429.247	-22.7
429.454	116.56
429.662	218.96
429.869	151.38
430.076	61.27
430.284	139.09
430.491	122.71
430.699	91.99
430.906	147.28
431.114	122.71
431.321	118.61
431.528	85.84
431.736	87.89
431.943	110.42
432.15	120.66
432.358	159.57
432.565	329.55
432.772	20.31
432.979	161.62
433.187	128.85
433.394	153.43
433.601	135
433.808	202.58
434.016	229.2
434.223	192.34
434.43	108.37
434.637	237.39
434.844	247.63
435.052	221.01
435.259	231.25
435.466	257.87
435.673	243.54
435.88	196.43
436.087	386.9
436.294	278.35
436.501	339.79
436.708	296.78
436.915	276.31
437.122	352.08
437.329	221.01
437.537	327.5
437.743	292.69
437.95	472.91
438.157	251.73
438.364	390.99
438.571	358.22
438.778	388.94
438.985	446.29
439.192	481.1
439.399	505.68
439.606	395.09
439.813	483.15
440.02	659.28
440.227	634.7
440.433	552.78
440.64	450.38
440.847	452.43
441.054	558.92
441.261	673.61
441.467	569.16
441.674	636.75
441.881	614.22
442.088	581.45
442.294	587.6
442.501	722.76
442.708	714.57
442.914	745.29
443.121	880.46
443.328	888.65
443.534	870.22
443.741	937.8
443.948	827.21
444.154	989
444.361	1056.58
444.568	1087.3
444.774	1066.82
444.981	958.28
445.187	1161.03
445.394	1066.82
445.6	1183.56
445.807	1316.67
446.013	1269.57
446.22	1154.88
446.426	1365.82
446.633	1396.54
446.839	1595.2
447.046	1455.94
447.252	1595.2
447.459	1574.72
447.665	1589.05
447.871	1783.61
448.078	1892.15
448.284	1855.29
448.491	1967.93
448.697	2064.18
448.903	2242.36
449.11	2139.96
449.316	2268.98
449.522	2268.98
449.728	2475.82
449.935	2492.21
450.141	2602.8
450.347	2637.61
450.553	2713.39
450.76	2801.45
450.966	2834.22
451.172	2860.84
451.378	3090.21
451.584	3051.3
451.791	3381.03
451.997	3446.56
452.203	3516.19
452.409	3729.18
452.615	3796.76
452.821	3796.76
453.027	3858.2
453.233	4110.1
453.44	4235.03
453.646	4507.41
453.852	4650.77
454.058	4706.06
454.264	4888.33
454.47	5201.67
454.676	5177.09
454.882	5641.98
455.088	5367.56
455.294	5830.4
455.5	6160.12
455.705	6498.03
455.911	6538.99
456.117	6729.45
456.323	6901.48
456.529	6887.15
456.735	7558.88
456.941	7657.18
457.147	7948
457.352	8410.84
457.558	8386.26
457.764	8949.45
457.97	9322.18
458.176	9445.06
458.381	10047.16
458.587	10073.79
458.793	10696.37
458.999	10739.38
459.204	11980.45
459.41	12463.77
459.616	12060.32
459.821	12895.89
460.027	13473.42
460.233	14003.84
460.438	14253.69
460.644	15255.15
460.85	15083.12
461.055	15793.76
461.261	16504.41
461.466	15994.47
461.672	16492.12
461.878	18490.94
462.083	18239.04
462.289	18708.02
462.494	19498.54
462.7	19447.34
462.905	19414.57
463.111	21480.97
463.316	22277.63
463.522	22705.66
463.727	23680.49
463.932	24417.76
464.138	25413.07
464.343	26152.39
464.549	26684.86
464.754	28245.41
464.959	29146.52
465.165	29574.55
465.37	29068.7
465.575	29240.73
465.781	31364.47
465.986	32335.21
466.191	31456.63
466.397	31960.43
466.602	31292.79
466.807	32886.11
467.012	33819.99
467.218	34411.85
467.423	34882.88
467.628	35274.04
467.833	37098.78
468.038	36277.55
468.244	35884.34
468.449	37539.1
468.654	36656.42
468.859	36295.98
469.064	36986.14
469.269	35804.47
469.474	36017.46
469.679	37139.74
469.885	35960.11
470.09	36654.37
470.295	36586.79
470.5	35532.09
470.705	35990.83
470.91	35149.12
471.115	34813.25
471.32	34972.99
471.525	34905.41
471.73	33967.44
471.935	33672.53
472.139	33107.29
472.344	32945.5
472.549	32705.89
472.754	31980.91
472.959	31204.73
473.164	30141.83
473.369	29881.74
473.574	30782.85
473.778	29980.04
473.983	29416.85
474.188	28943.77
474.393	27702.7
474.598	27733.42
474.802	26600.9
475.007	26328.52
475.212	26406.34
475.417	25052.63
475.621	24909.27
475.826	24595.93
476.031	24178.15
476.235	23541.23
476.44	23674.35
476.645	22998.52
476.849	22816.25
477.054	22150.66
477.259	21954.05
477.463	21779.98
477.668	21450.25
477.872	21253.65
478.077	20624.92
478.282	20131.36
478.486	20086.31
478.691	19697.19
478.895	19095.09
479.1	19320.37
479.304	19346.99
479.509	18781.75
479.713	18867.77
479.918	18501.18
480.122	17940.04
480.326	18173.5
480.531	17911.36
480.735	17692.23
480.94	17241.68
481.144	18001.47
481.348	17223.25
481.553	17352.27
481.757	16635.48
481.961	16778.84
482.166	17208.91
482.37	16694.87
482.574	16418.39
482.778	16295.52
482.983	16395.87
483.187	16203.36
483.391	16254.56
483.595	15783.52
483.8	15834.72
484.004	15777.38
484.208	15924.83
484.412	15455.85
484.616	15406.7
484.821	15052.4
485.025	14603.89
485.229	14796.4
485.433	14769.78
485.637	14300.8
485.841	14128.77
486.045	14106.24
486.249	13985.41
486.453	13727.36
486.657	13385.35
486.861	13162.12
487.065	12981.9
487.269	12809.87
487.473	12502.68
487.677	12803.73
487.881	12582.55
488.085	12132
488.289	12140.19
488.493	11480.74
488.697	11558.56
488.901	11237.03
489.105	10813.1
489.309	10954.41
489.512	10876.59
489.716	10776.24
489.92	10489.53
490.124	10213.05
490.328	10319.54
490.531	9713.35
490.735	9758.4
490.939	9569.99
491.143	9240.26
491.346	9111.24
491.55	9058
491.754	8853.2
491.958	8654.55
492.161	8593.11
492.365	8646.35
492.569	8191.7
492.772	8109.79
492.976	8085.21
493.18	8156.89
493.383	8066.78
493.587	7970.52
493.79	7818.97
493.994	7565.03
494.197	7438.05
494.401	7560.93
494.605	7261.93
494.808	7436
495.012	7169.77
495.215	7220.97
495.419	7323.37
495.622	7231.21
495.825	7007.98
496.029	7102.18
496.232	7190.25
496.436	7137
496.639	7106.28
496.843	7157.48
497.046	7147.24
497.249	6950.64
497.453	7114.47
497.656	6993.64
497.859	7005.93
498.063	6989.55
498.266	7063.27
498.469	6899.44
498.673	7096.04
498.876	6938.35
499.079	7218.92
499.282	7214.82
499.485	7489.25
499.689	7405.28
499.892	7382.76
500.095	7212.78
500.298	7554.79
500.501	7323.37
500.705	7519.97
500.908	7542.5
501.111	7466.72
501.314	7681.76
501.517	7806.69
501.72	7665.38
501.923	7866.08
502.126	7765.73
502.329	8146.65
502.532	8271.58
502.735	8175.32
502.938	8427.22
503.141	8453.84
503.344	8496.85
503.547	8638.16
503.75	8730.32
503.953	8806.09
504.156	9107.15
504.359	9027.28
504.562	8988.36
504.765	9301.7
504.968	9397.96
505.17	9623.23
505.373	9844.42
505.576	10086.08
505.779	10034.88
505.982	10102.46
506.185	10501.81
506.387	10643.12
506.59	10907.31
506.793	10884.78
506.996	11321
507.198	11626.15
507.401	11562.66
507.604	11921.06
507.807	12258.97
508.009	12486.29
508.212	12525.21
508.415	12687
508.617	13170.32
508.82	13368.97
509.022	13459.08
509.225	13897.35
509.428	14292.6
509.63	14263.93
509.833	14773.88
510.035	15287.92
510.238	15701.61
510.44	15654.5
510.643	15818.34
510.845	16250.46
511.048	16571.99
511.25	16881.24
511.453	17342.03
511.655	18202.18
511.858	18122.3
512.06	18902.58
512.262	18937.4
512.465	19346.99
512.667	19942.95
512.87	20330.02
513.072	20669.98
513.274	21247.51
513.477	21949.96
513.679	21970.44
513.881	22392.32
514.084	23037.43
514.286	23387.63
514.488	23993.83
514.69	25107.93
514.893	25382.35
515.095	25767.37
515.297	26336.71
515.499	26926.52
515.701	27252.15
515.904	27817.39
516.106	28550.56
516.308	29078.94
516.51	29539.73
516.712	30027.15
516.914	31149.43
517.116	31677.81
517.318	32030.06
517.52	32453.99
517.722	33228.12
517.925	33752.4
518.127	34192.72
518.329	35220.8
518.531	35112.25
518.733	36091.18
518.935	36822.31
519.136	37201.18
519.338	38001.94
519.54	38364.43
519.742	39245.05
519.944	39427.32
520.146	40613.1
520.348	40979.68
520.55	41086.18
520.752	41557.21
520.954	42654.92
521.155	42441.93
521.357	43400.38
521.559	43889.85
521.761	44807.34
521.963	44760.23
522.164	44944.55
522.366	45632.67
522.568	46058.65
522.77	46486.67
522.971	46349.46
523.173	46677.13
523.375	47285.38
523.576	47033.48
523.778	47273.09
523.98	48135.29
524.181	48354.42
524.383	48317.56
524.584	48671.85
524.786	48307.32
524.988	48249.97
525.189	48667.76
525.391	49216.61
525.592	49482.85
525.794	49224.81
525.995	49351.78
526.197	49097.83
526.398	48784.49
526.6	48972.91
526.801	48796.78
527.003	48766.06
527.204	48589.94
527.406	49081.45
527.607	48213.11
527.808	48321.65
528.01	47318.15
528.211	47484.03
528.412	47682.69
528.614	47324.29
528.815	46959.75
529.016	47142.02
529.218	46224.53
529.419	46058.65
529.62	45690.01
529.822	45302.95
530.023	44518.57
530.224	44405.94
530.425	44059.83
530.626	43039.94
530.828	42495.18
531.029	42917.06
531.23	42339.54
531.431	41489.63
531.632	41477.34
531.833	41256.16
532.035	40561.9
532.236	40070.39
532.437	39771.38
532.638	38743.3
532.839	38384.91
533.04	38276.37
533.241	37383.45
533.442	37446.94
533.643	36715.81
533.844	36244.78
534.045	36109.61
534.246	34762.05
534.447	34854.21
534.648	33715.54
534.849	34084.17
535.05	33172.83
535.251	33086.81
535.451	32140.65
535.652	32220.52
535.853	31831.41
536.054	31389.05
536.255	31473.01
536.456	30119.31
536.657	30260.62
536.857	29586.83
537.058	29218.2
537.259	29371.8
537.46	28407.2
537.66	28145.06
537.861	27745.71
538.062	27274.68
538.263	27045.3
538.463	26709.44
538.664	26312.13
538.865	26160.58
539.065	25894.35
539.266	25077.21
539.466	25206.23
539.667	24714.72
539.868	24759.77
540.068	24071.65
540.269	24055.27
540.469	23647.72
540.67	23098.87
540.87	23133.68
541.071	22545.92
541.271	22877.69
541.472	22220.29
541.672	22183.43
541.873	21765.64
542.073	20913.69
542.274	21493.26
542.474	20956.69
542.675	20700.7
542.875	20626.97
543.075	20188.71
543.276	19713.58
543.476	19951.14
543.676	19629.61
543.877	19473.96
544.077	19457.58
544.277	19207.73
544.478	18601.53
544.678	18636.34
544.878	18513.47
545.078	18142.78
545.279	17823.3
545.479	17745.48
545.679	17550.92
545.879	17229.39
546.079	17249.87
546.28	16965.2
546.48	16475.74
546.68	16442.97
546.88	16541.27
547.08	16170.59
547.28	15963.75
547.48	15509.1
547.68	15634.02
547.88	15496.81
548.081	15117.93
548.281	14825.08
548.481	14880.37
548.681	14804.6
548.881	14417.53
549.081	14427.77
549.28	14050.94
549.48	13579.91
549.68	13756.04
549.88	13624.97
550.08	13100.69
550.28	13215.37
550.48	13092.49
550.68	12742.29
550.88	12570.26
551.08	12402.33
551.279	12637.84
551.479	12252.83
551.679	11890.34
551.879	11701.92
552.079	11632.29
552.278	11441.83
552.478	11357.86
552.678	11277.99
552.878	10991.28
553.077	10741.43
553.277	10581.68
553.477	10579.64
553.676	10321.59
553.876	10174.14
554.076	9821.89
554.275	9780.93
554.475	9545.41
554.674	9408.2
554.874	9547.46
555.074	9168.59
555.273	8961.74
555.473	8988.36
555.672	8711.89
555.872	8591.06
556.071	8505.04
556.271	8449.75
556.47	7954.14
556.67	8031.96
556.869	7823.07
557.068	7765.73
557.268	7538.4
557.467	7581.41
557.667	7530.21
557.866	7360.23
558.065	7163.62
558.265	7149.29
558.464	6704.88
558.663	6926.06
558.863	6782.7
559.062	6708.97
559.261	6319.86
559.461	6625.01
559.66	6094.58
559.859	6135.54
560.058	6108.92
560.258	5836.54
560.457	5807.87
560.656	5881.6
560.855	5684.99
561.054	5723.9
561.253	5502.72
561.453	5549.82
561.652	5304.07
561.851	5359.36
562.05	5191.43
562.249	5156.61
562.448	5095.18
562.647	4798.22
562.846	4910.86
563.045	4855.56
563.244	4771.6
563.443	4865.8
563.642	4550.42
563.841	4450.07
564.04	4282.13
564.239	4355.86
564.438	4411.15
564.637	4308.76
564.836	4292.37
565.035	4251.41
565.234	4103.96
565.432	4073.24
565.631	4034.33
565.83	3997.46
566.029	3757.85
566.228	3981.08
566.427	3960.6
566.625	3688.22
566.824	3723.04
567.023	3618.59
567.222	3499.81
567.42	3436.32
567.619	3477.28
567.818	3413.79
568.016	3571.49
568.215	3399.46
568.414	3354.4
568.612	3262.24
568.811	3098.41
569.01	3041.06
569.208	3014.44
569.407	3071.78
569.605	2981.67
569.804	2871.08
570.002	2965.29
570.201	2760.49
570.4	2879.27
570.598	2821.93
570.797	2623.28
570.995	2684.72
571.193	2670.38
571.392	2680.62
571.59	2385.71
571.789	2543.41
571.987	2449.2
572.186	2481.97
572.384	2326.32
572.582	2443.06
572.781	2449.2
572.979	2344.75
573.177	2115.38
573.376	2199.35
573.574	2318.13
573.772	2078.52
573.971	1978.17
574.169	2049.85
574.367	2027.32
574.565	1982.26
574.763	2053.94
574.962	1945.4
575.16	1980.22
575.358	1877.82
575.556	1910.58
575.754	1924.92
575.952	1804.09
576.151	1828.67
576.349	1879.86
576.547	1670.97
576.745	1746.75
576.943	1736.51
577.141	1564.48
577.339	1496.89
577.537	1664.83
577.735	1498.94
577.933	1535.81
578.131	1521.47
578.329	1523.52
578.527	1457.98
578.725	1394.5
578.923	1320.77
579.121	1472.32
579.319	1326.91
579.516	1314.63
579.714	1374.02
579.912	1331.01
580.11	1187.65
580.308	1300.29
580.506	1142.6
580.704	1060.68
580.901	1068.87
581.099	1175.36
581.297	1128.26
581.495	1234.75
581.692	1161.03
581.89	1214.27
582.088	1152.84
582.285	1023.81
582.483	1171.27
582.681	993.09
582.878	1017.67
583.076	1118.02
583.274	1056.58
583.471	1181.51
583.669	962.37
583.866	923.46
584.064	952.13
584.262	864.07
584.459	919.37
584.657	1017.67
584.854	1023.81
585.052	892.74
585.249	925.51
585.447	855.88
585.644	714.57
585.841	980.81
586.039	970.57
586.236	841.54
586.434	706.38
586.631	786.25
586.828	751.43
587.026	706.38
587.223	630.6
587.42	761.67
587.618	816.97
587.815	747.34
588.012	800.59
588.21	679.75
588.407	745.29
588.604	683.85
588.801	698.19
588.999	702.28
589.196	694.09
589.393	589.64
589.59	685.9
589.787	644.94
589.984	675.66
590.182	644.94
590.379	614.22
590.576	700.23
590.773	685.9
590.97	587.6
591.167	653.13
591.364	667.47
591.561	675.66
591.758	735.05
591.955	667.47
592.152	587.6
592.349	511.82
592.546	497.49
592.743	569.16
592.94	481.1
593.137	661.32
593.334	644.94
593.531	675.66
593.727	733
593.924	589.64
594.121	632.65
594.318	538.45
594.515	646.99
594.712	663.37
594.908	712.52
595.105	569.16
595.302	630.6
595.499	646.99
595.696	741.19
595.892	603.98
596.089	743.24
596.286	714.57
596.482	804.68
596.679	786.25
596.876	685.9
597.072	833.35
597.269	724.81
597.466	859.98
597.662	819.02
597.859	819.02
598.055	872.26
598.252	939.85
598.448	909.13
598.645	1056.58
598.841	1003.33
599.038	1138.5
599.234	1224.51
599.431	1013.57
599.627	1146.69
599.824	1214.27
600.02	1171.27
600.217	1255.23
600.413	1371.97
600.609	1347.39
600.806	1664.83
601.002	1503.04
601.198	1470.27
601.395	1638.2
601.591	1632.06
601.787	1695.55
601.984	1795.9
602.18	1711.93
602.376	1924.92
602.572	1947.45
602.769	2137.91
602.965	2094.9
603.161	2283.31
603.357	2326.32
603.553	2408.24
603.75	2316.08
603.946	2496.3
604.142	2570.03
604.338	2725.68
604.534	2838.31
604.73	2916.14
604.926	2916.14
605.122	3057.45
605.318	3133.22
605.514	3295.01
605.71	3235.62
605.906	3487.52
606.102	3362.59
606.298	3710.75
606.494	3706.65
606.69	3864.35
606.886	3995.42
607.082	3927.83
607.278	4048.66
607.474	4255.51
607.67	4380.43
607.866	4419.35
608.062	4837.13
608.257	4740.88
608.453	4720.4
608.649	5023.5
608.845	4986.63
609.041	5195.53
609.236	5371.65
609.432	5619.46
609.628	5852.92
609.824	5740.29
610.019	6100.73
610.215	6190.84
610.411	6397.68
610.606	6452.98
610.802	6688.5
610.998	6803.18
611.193	7145.19
611.389	6979.31
611.584	7190.25
611.78	7511.78
611.976	7786.21
612.171	8048.35
612.367	8208.09
612.562	8343.25
612.758	8509.14
612.953	8683.22
613.149	8957.64
613.344	9205.45
613.539	9760.45
613.735	9778.88
613.93	9987.77
614.126	10141.37
614.321	10628.79
614.517	10839.73
614.712	10901.17
614.907	11280.04
615.103	11718.31
615.298	11865.76
615.493	12189.34
615.688	12293.79
615.884	12682.9
616.079	12744.34
616.274	13655.68
616.47	13659.78
616.665	14063.23
616.86	14227.07
617.055	14630.52
617.25	14988.91
617.445	15746.66
617.641	15640.17
617.836	16305.76
618.031	16338.52
618.226	17083.98
618.421	17419.85
618.616	17894.98
618.811	18064.96
619.006	18687.54
619.201	18867.77
619.396	19457.58
619.591	19545.64
619.786	20241.95
619.981	20323.87
620.176	20891.16
620.371	21335.57
620.566	22074.88
620.761	22365.7
620.956	22986.23
621.151	22928.89
621.346	23870.95
621.541	23971.3
621.735	24696.28
621.93	25089.49
622.125	25646.54
622.32	25540.05
622.515	26451.39
622.709	26783.16
622.904	27252.15
623.099	27868.59
623.294	28083.62
623.488	28571.04
623.683	28933.53
623.878	29212.06
624.072	30016.91
624.267	30735.74
624.462	30694.78
624.656	31137.15
624.851	31798.64
625.046	31993.2
625.24	32830.82
625.435	32789.86
625.629	33817.94
625.824	33758.55
626.018	34467.14
626.213	34225.48
626.407	34909.5
626.602	35274.04
626.796	36142.38
626.991	36375.85
627.185	36580.65
627.38	36465.96
627.574	36769.06
627.768	37401.88
627.963	36818.21
628.157	37436.7
628.352	37653.78
628.546	37078.3
628.74	37639.45
628.935	37225.76
629.129	37842.2
629.323	37156.13
629.517	37133.6
629.712	36877.6
629.906	36957.47
630.1	36078.89
630.294	36289.84
630.489	35353.91
630.683	35243.32
630.877	34585.93
631.071	34225.48
631.265	33672.53
631.459	32742.75
631.653	31954.29
631.848	31806.83
632.042	30682.5
632.236	30164.36
632.43	29076.89
632.624	28566.95
632.818	27839.92
633.012	26885.56
633.206	25900.49
633.4	25318.87
633.594	24065.51
633.788	23555.57
633.982	22896.12
634.176	22195.71
634.369	20989.46
634.563	20233.76
634.757	19242.54
634.951	19230.26
635.145	18052.67
635.339	17483.34
635.533	16823.89
635.726	16502.36
635.92	15187.57
636.114	14730.87
636.308	14177.92
636.501	13407.88
636.695	13112.97
636.889	12652.18
637.083	11914.91
637.276	11388.58
637.47	11056.81
637.664	10585.78
637.857	10256.06
638.051	9709.25
638.244	9371.33
638.438	8910.54
638.632	8980.17
638.825	7913.18
639.019	7902.94
639.212	7577.31
639.406	7319.27
639.599	7005.93
639.793	6797.04
639.986	6608.62
640.18	6276.85
640.373	5957.37
640.567	5789.44
640.76	5535.49
640.954	5342.98
641.147	5054.22
641.34	4853.52
641.534	4769.55
641.727	4497.17
641.92	4417.3
642.114	4206.36
642.307	4022.04
642.5	3956.5
642.694	3731.23
642.887	3602.21
643.08	3690.27
643.273	3462.94
643.467	3217.19
643.66	3032.87
643.853	2942.76
644.046	2926.38
644.239	2676.52
644.432	2600.75
644.626	2393.9
644.819	2420.53
645.012	2365.23
645.205	2287.41
645.398	2180.92
645.591	2131.76
645.784	1963.83
645.977	1875.77
646.17	1859.38
646.363	1742.65
646.556	1632.06
646.749	1634.11
646.942	1597.24
647.135	1611.58
647.328	1451.84
647.521	1439.55
647.714	1361.73
647.907	1316.67
648.099	1130.31
648.292	1210.18
648.485	1177.41
648.678	1191.75
648.871	1009.48
649.064	1048.39
649.256	982.85
649.449	911.18
649.642	802.63
649.835	808.78
650.027	776.01
650.22	866.12
650.413	927.56
650.605	806.73
650.798	689.99
650.991	638.8
651.183	696.14
651.376	735.05
651.568	751.43
651.761	583.5
651.954	696.14
652.146	569.16
652.339	618.32
652.531	589.64
652.724	569.16
652.916	526.16
653.109	401.23
653.301	587.6
653.494	532.3
653.686	450.38
653.879	540.49
654.071	393.04
654.263	399.18
654.456	329.55
654.648	464.72
654.84	503.63
655.033	343.89
655.225	417.61
655.417	288.59
655.61	427.85
655.802	384.85
655.994	405.33
656.186	249.68
656.379	440.14
656.571	257.87
656.763	245.59
656.955	278.35
657.148	339.79
657.34	343.89
657.532	268.11
657.724	143.19
657.916	212.82
658.108	298.83
658.3	298.83
658.492	251.73
658.684	204.63
658.876	350.03
659.068	110.42
659.26	110.42
659.452	184.15
659.644	290.64
659.836	311.12
660.028	184.15
660.22	180.05
660.412	257.87
660.604	157.52
660.796	212.82
660.988	257.87
661.18	112.47
661.372	264.02
661.563	206.67
661.755	268.11
661.947	118.61
662.139	171.86
662.331	190.29
662.522	163.67
662.714	165.71
662.906	42.84
663.097	233.3
663.289	71.51
663.481	-34.99
663.673	100.18
663.864	196.43
664.056	153.43
664.247	18.26
664.439	300.88
664.631	237.39
664.822	212.82
665.014	145.24
665.205	130.9
665.397	83.8
665.588	153.43
665.78	145.24
665.971	204.63
666.163	149.33
666.354	223.06
666.546	100.18
666.737	145.24
666.929	51.03
667.12	44.88
667.311	128.85
667.503	83.8
667.694	180.05
667.885	145.24
668.077	235.35
668.268	-28.84
668.459	106.32
668.651	130.9
668.842	132.95
669.033	-12.46
669.224	16.21
669.416	296.78
669.607	61.27
669.798	-10.41
669.989	276.31
670.18	157.52
670.371	196.43
670.563	18.26
670.754	165.71
670.945	190.29
671.136	253.78
671.327	-4.27
671.518	214.87
671.709	272.21
671.9	192.34
672.091	200.53
672.282	112.47
672.473	124.76
672.664	73.56
672.855	51.03
673.046	126.8
673.237	225.11
673.428	132.95
673.619	71.51
673.809	151.38
674	198.48
674.191	190.29
674.382	12.12
674.573	102.23
674.764	163.67
674.954	227.15
675.145	40.79
675.336	46.93
675.527	75.6
675.717	67.41
675.908	57.17
676.099	104.28
676.289	120.66
676.48	-20.65
676.671	171.86
676.861	124.76
677.052	182.1
677.243	114.52
677.433	112.47
677.624	57.17
677.814	173.91
678.005	135
678.195	169.81
678.386	175.95
678.576	157.52
678.767	-28.84
678.957	114.52
679.148	212.82
679.338	229.2
679.529	87.89
679.719	167.76
679.909	264.02
680.1	157.52
680.29	180.05
680.481	98.13
680.671	307.02
680.861	221.01
681.052	235.35
681.242	214.87
681.432	186.19
681.622	231.25
681.813	98.13
682.003	149.33
682.193	71.51
682.383	128.85
682.573	186.19
682.764	218.96
682.954	155.47
683.144	243.54
683.334	147.28
683.524	194.39
683.714	214.87
683.904	247.63
684.094	237.39
684.284	243.54
684.474	294.74
684.664	233.3
684.854	204.63
685.044	135
685.234	190.29
685.424	180.05
685.614	139.09
685.804	292.69
685.994	245.59
686.184	165.71
686.374	190.29
686.564	104.28
686.753	184.15
686.943	124.76
687.133	184.15
687.323	175.95
687.513	184.15
687.702	151.38
687.892	122.71
688.082	298.83
688.272	194.39
688.461	266.07
688.651	223.06
688.841	272.21
689.03	245.59
689.22	157.52
689.41	241.49
689.599	216.91
689.789	163.67
689.979	329.55
690.168	149.33
690.358	274.26
690.547	204.63
690.737	255.83
690.926	173.91
691.116	227.15
691.305	225.11
691.495	210.77
691.684	100.18
691.874	198.48
692.063	212.82
692.252	190.29
692.442	272.21
692.631	194.39
692.82	135
693.01	266.07
693.199	182.1
693.388	223.06
693.578	135
693.767	294.74
693.956	221.01
694.146	206.67
694.335	243.54
694.524	214.87
694.713	212.82
694.902	169.81
695.092	173.91
695.281	245.59
695.47	206.67
695.659	165.71
695.848	200.53
696.037	167.76
696.226	204.63
696.415	116.56
696.604	311.12
696.793	218.96
696.982	171.86
697.171	280.4
697.36	71.51
697.549	229.2
697.738	130.9
697.927	208.72
698.116	139.09
698.305	259.92
698.494	204.63
698.683	208.72
698.872	321.36
699.061	137.04
699.25	102.23
699.438	130.9
699.627	139.09
699.816	343.89
700.005	114.52
700.193	96.08
700.382	206.67
700.571	237.39
700.76	186.19
700.948	202.58
701.137	274.26
701.326	190.29
701.514	69.46
701.703	188.24
701.892	210.77
702.08	296.78
702.269	91.99
702.457	192.34
702.646	155.47
702.834	159.57
703.023	264.02
703.212	216.91
703.4	175.95
703.589	190.29
703.777	141.14
703.965	186.19
704.154	112.47
704.342	59.22
704.531	106.32
704.719	180.05
704.907	227.15
705.096	67.41
705.284	128.85
705.472	223.06
705.661	218.96
705.849	186.19
706.037	241.49
706.226	221.01
706.414	118.61
706.602	135
706.79	241.49
706.979	89.94
707.167	175.95
707.355	61.27
707.543	204.63
707.731	247.63
707.919	194.39
708.107	145.24
708.296	157.52
708.484	77.65
708.672	192.34
708.86	169.81
709.048	161.62
709.236	69.46
709.424	216.91
709.612	227.15
709.8	71.51
709.988	141.14
710.176	163.67
710.364	239.44
710.551	139.09
710.739	169.81
710.927	190.29
711.115	157.52
711.303	257.87
711.491	294.74
711.679	67.41
711.866	245.59
712.054	221.01
712.242	192.34
712.43	216.91
712.617	159.57
712.805	225.11
712.993	120.66
713.181	184.15
713.368	255.83
713.556	116.56
713.744	180.05
713.931	347.98
714.119	237.39
714.306	178
714.494	100.18
714.682	235.35
714.869	102.23
715.057	161.62
715.244	110.42
715.432	165.71
715.619	102.23
715.807	130.9
715.994	192.34
716.182	190.29
716.369	175.95
716.556	218.96
716.744	114.52
716.931	85.84
717.119	200.53
717.306	225.11
717.493	264.02
717.681	73.56
717.868	143.19
718.055	223.06
718.242	155.47
718.43	186.19
718.617	231.25
718.804	155.47
718.991	184.15
719.179	261.97
719.366	249.68
719.553	212.82
719.74	173.91
719.927	143.19
720.114	192.34
720.301	55.12
720.488	151.38
720.676	108.37
720.863	259.92
721.05	339.79
721.237	208.72
721.424	233.3
721.611	229.2
721.798	102.23
721.985	190.29
722.172	153.43
722.358	218.96
722.545	241.49
722.732	163.67
722.919	278.35
723.106	237.39
723.293	184.15
723.48	157.52
723.667	206.67
723.853	272.21
724.04	264.02
724.227	401.23
724.414	151.38
724.6	233.3
724.787	300.88
724.974	264.02
725.161	182.1
725.347	151.38
725.534	272.21
725.72	255.83
725.907	304.98
726.094	206.67
726.28	208.72
726.467	171.86
726.653	241.49
726.84	333.65
727.027	221.01
727.213	214.87
727.4	173.91
727.586	235.35
727.773	165.71
727.959	182.1
728.145	233.3
728.332	200.53
728.518	137.04
728.705	266.07
728.891	249.68
729.077	202.58
729.264	247.63
729.45	202.58
729.636	343.89
729.823	229.2
730.009	282.45
730.195	266.07
730.382	259.92
730.568	135
730.754	253.78
730.94	206.67
731.126	245.59
731.313	218.96
731.499	307.02
731.685	229.2
731.871	292.69
732.057	329.55
732.243	327.5
732.429	218.96
732.615	327.5
732.801	276.31
732.987	198.48
733.173	188.24
733.359	149.33
733.545	251.73
733.731	196.43
733.917	366.42
734.103	286.54
734.289	278.35
734.475	196.43
734.661	284.5
734.847	257.87
735.033	296.78
735.219	272.21
735.404	253.78
735.59	161.62
735.776	218.96
735.962	233.3
736.148	198.48
736.333	362.32
736.519	237.39
736.705	206.67
736.89	186.19
737.076	241.49
737.262	126.8
737.447	151.38
737.633	180.05
737.819	296.78
738.004	231.25
738.19	223.06
738.375	235.35
738.561	270.16
738.747	259.92
738.932	153.43
739.118	358.22
739.303	218.96
739.489	302.93
739.674	225.11
739.859	251.73
740.045	294.74
740.23	216.91
740.416	137.04
740.601	247.63
740.786	231.25
740.972	173.91
741.157	120.66
741.342	216.91
741.528	130.9
741.713	298.83
741.898	182.1
742.084	128.85
742.269	184.15
742.454	243.54
742.639	304.98
742.824	214.87
743.01	298.83
743.195	356.18
743.38	212.82
743.565	253.78
743.75	245.59
743.935	278.35
744.12	311.12
744.305	159.57
744.49	229.2
744.675	118.61
744.86	171.86
745.045	345.94
745.23	208.72
745.415	235.35
745.6	362.32
745.785	169.81
745.97	231.25
746.155	218.96
746.34	302.93
746.525	286.54
746.71	286.54
746.895	85.84
747.079	118.61
747.264	200.53
747.449	307.02
747.634	261.97
747.819	282.45
748.003	143.19
748.188	65.36
748.373	241.49
748.557	259.92
748.742	206.67
748.927	151.38
749.111	180.05
749.296	165.71
749.481	186.19
749.665	132.95
749.85	112.47
750.034	175.95
750.219	169.81
750.404	153.43
750.588	161.62
750.773	132.95
750.957	214.87
751.141	145.24
751.326	202.58
751.51	104.28
751.695	135
751.879	137.04
752.064	257.87
752.248	155.47
752.432	278.35
752.617	237.39
752.801	253.78
752.985	186.19
753.17	235.35
753.354	229.2
753.538	137.04
753.722	130.9
753.907	167.76
754.091	83.8
754.275	186.19
754.459	206.67
754.643	67.41
754.828	126.8
755.012	204.63
755.196	96.08
755.38	208.72
755.564	67.41
755.748	75.6
755.932	223.06
756.116	128.85
756.3	221.01
756.484	65.36
756.668	190.29
756.852	28.5
757.036	112.47
757.22	175.95
757.404	104.28
757.588	159.57
757.772	112.47
757.956	91.99
758.14	294.74
758.323	51.03
758.507	128.85
758.691	137.04
758.875	210.77
759.059	159.57
759.242	38.74
759.426	114.52
759.61	120.66
759.794	137.04
759.977	102.23
760.161	302.93
760.345	184.15
760.528	139.09
760.712	137.04
760.895	178
761.079	94.04
761.263	104.28
761.446	110.42
761.63	114.52
761.813	188.24
761.997	-0.17
762.18	116.56
762.364	167.76
762.547	34.64
762.731	30.55
762.914	59.22
763.098	59.22
763.281	42.84
763.464	34.64
763.648	102.23
763.831	89.94
764.015	51.03
764.198	94.04
764.381	69.46
764.564	118.61
764.748	151.38
764.931	63.32
765.114	75.6
765.297	231.25
765.481	14.17
765.664	-43.18
765.847	83.8
766.03	165.71
766.213	-61.61
766.397	79.7
766.58	51.03
766.763	114.52
766.946	71.51
767.129	44.88
767.312	85.84
767.495	108.37
767.678	26.45
767.861	161.62
768.044	57.17
768.227	94.04
768.41	28.5
768.593	110.42
768.776	122.71
768.959	69.46
769.142	120.66
769.324	48.98
769.507	36.69
769.69	32.6
769.873	44.88
770.056	169.81
770.239	63.32
770.421	143.19
770.604	112.47
770.787	110.42
770.97	147.28
771.152	55.12
771.335	104.28
771.518	-6.31
771.7	112.47
771.883	229.2
772.066	73.56
772.248	116.56
772.431	139.09
772.613	171.86
772.796	65.36
772.978	81.75
773.161	157.52
773.343	1.88
773.526	71.51
773.708	3.93
773.891	-84.14
774.073	104.28
774.256	16.21
774.438	132.95
774.621	63.32
774.803	137.04
774.985	1.88
775.168	132.95
775.35	104.28
775.532	22.36
775.715	26.45
775.897	69.46
776.079	5.97
776.261	65.36
776.444	100.18
776.626	24.4
776.808	83.8
776.99	-20.65
777.173	79.7
777.355	24.4
777.537	10.07
777.719	18.26
777.901	-18.6
778.083	-4.27
778.265	-84.14
778.447	55.12
778.629	-34.99
778.811	55.12
778.993	100.18
779.175	151.38
779.357	12.12
779.539	-26.79
779.721	67.41
779.903	46.93
780.085	16.21
780.267	38.74
780.449	81.75
780.631	122.71
780.812	51.03
780.994	108.37
781.176	5.97
781.358	-28.84
781.54	57.17
781.721	22.36
781.903	61.27
782.085	71.51
782.267	106.32
782.448	67.41
782.63	-57.51
782.812	51.03
782.993	53.08
783.175	143.19
783.357	-22.7
783.538	38.74
783.72	-18.6
783.901	53.08
784.083	53.08
784.264	18.26
784.446	-63.66
784.627	-43.18
784.809	30.55
784.99	-22.7
785.172	91.99
785.353	-14.51
785.535	42.84
785.716	24.4
785.897	-0.17
786.079	-30.89
786.26	55.12
786.441	65.36
786.623	-77.99
786.804	12.12
786.985	5.97
787.167	28.5
787.348	-18.6
787.529	61.27
787.71	169.81
787.891	34.64
788.073	-39.08
788.254	-106.67
788.435	108.37
788.616	65.36
788.797	-55.47
788.978	38.74
789.159	-2.22
789.34	36.69
789.522	18.26
789.703	5.97
789.884	36.69
790.065	22.36
790.246	128.85
790.427	75.6
790.607	151.38
790.788	38.74
790.969	1.88
791.15	59.22
791.331	-20.65
791.512	-4.27
791.693	-47.27
791.874	53.08
792.054	192.34
792.235	38.74
792.416	-8.36
792.597	-57.51
792.778	-2.22
792.958	18.26
793.139	34.64
793.32	67.41
793.5	-37.03
793.681	112.47
793.862	48.98
794.042	-6.31
794.223	-6.31
794.404	26.45
794.584	-100.52
794.765	8.02
794.945	42.84
795.126	3.93
795.306	57.17
795.487	42.84
795.667	71.51
795.848	128.85
796.028	42.84
796.209	-37.03
796.389	51.03
796.57	-8.36
796.75	-43.18
796.93	-12.46
797.111	-24.75
797.291	-51.37
797.471	143.19
797.652	20.31
797.832	-106.67
798.012	112.47
798.192	24.4
798.373	-10.41
798.553	71.51
798.733	-6.31
798.913	10.07
799.093	38.74
799.274	5.97
799.454	53.08
799.634	98.13
799.814	67.41
799.994	55.12
800.174	128.85
800.354	-0.17
800.534	-155.82
800.714	32.6
800.894	-100.52
801.074	-88.23
801.254	-98.47
801.434	51.03
801.614	-45.23
801.794	-69.8
801.974	1681.21
802.154	-96.43
802.334	120.66
802.514	-53.42
802.693	-37.03
802.873	-14.51
803.053	161.62
803.233	26.45
803.413	-8.36
803.592	-32.94
803.772	-47.27
803.952	-39.08
804.131	-80.04
804.311	44.88
804.491	116.56
804.67	-14.51
804.85	-32.94
805.03	-26.79
805.209	87.89
805.389	-90.28
805.568	-55.47
805.748	-20.65
805.928	-55.47
806.107	16.21
806.287	-0.17
806.466	14.17
806.646	-10.41
806.825	-32.94
807.004	-41.13
807.184	10.07
807.363	8.02
807.543	14.17
807.722	-24.75
807.901	53.08
808.081	3.93
808.26	-121
808.439	79.7
808.619	24.4
808.798	-28.84
808.977	-4.27
809.156	108.37
809.336	-0.17
809.515	67.41
809.694	16.21
809.873	-16.55
810.052	46.93
810.231	94.04
810.411	-14.51
810.59	53.08
810.769	-94.38
810.948	81.75
811.127	-129.19
811.306	-24.75
811.485	57.17
811.664	124.76
811.843	-30.89
812.022	36.69
812.201	-53.42
812.38	-6.31
812.559	38.74
812.737	59.22
812.916	-123.05
813.095	-49.32
813.274	104.28
813.453	55.12
813.632	100.18
813.811	139.09
813.989	-155.82
814.168	-16.55
814.347	-34.99
814.526	-49.32
814.704	112.47
814.883	98.13
815.062	-34.99
815.24	14.17
815.419	-137.38
815.598	32.6
815.776	-63.66
815.955	-34.99
816.133	-198.82
816.312	89.94
816.49	-34.99
816.669	-34.99
816.847	-45.23
817.026	-59.56
817.204	-51.37
817.383	8.02
817.561	-133.29
817.74	-43.18
817.918	-32.94
818.097	-65.71
818.275	-57.51
818.453	40.79
818.632	53.08
818.81	-53.42
818.988	-39.08
819.167	3.93
819.345	-28.84
819.523	-102.57
819.701	-63.66
819.879	118.61
820.058	40.79
820.236	-10.41
820.414	55.12
820.592	-20.65
820.77	5.97
820.948	-49.32
821.127	-110.76
821.305	36.69
821.483	-4.27
821.661	69.46
821.839	-10.41
822.017	-92.33
822.195	-22.7
822.373	100.18
822.551	57.17
822.729	14.17
822.907	-0.17
823.085	30.55
823.262	-26.79
823.44	-100.52
823.618	1.88
823.796	-51.37
823.974	-43.18
824.152	-90.28
824.329	-45.23
824.507	-45.23
824.685	26.45
824.863	-18.6
825.04	22.36
825.218	24.4
825.396	-2.22
825.574	48.98
825.751	20.31
825.929	-4.27
826.107	-65.71
826.284	-24.75
826.462	36.69
826.639	-135.34
826.817	-80.04
826.994	-80.04
827.172	-73.9
827.349	63.32
827.527	26.45
827.704	22.36
827.882	12.12
828.059	-51.37
828.237	-65.71
828.414	22.36
828.591	-96.43
828.769	-28.84
828.946	-94.38
829.124	98.13
829.301	42.84
829.478	-45.23
829.655	24.4
829.833	-61.61
830.01	-186.54
830.187	118.61
830.364	3.93
830.542	-8.36
830.719	40.79
830.896	16.21
831.073	34.64
831.25	24.4
831.427	-45.23
831.604	-37.03
831.782	-53.42
831.959	44.88
832.136	-51.37
832.313	8.02
832.49	-10.41
832.667	-22.7
832.844	-24.75
833.021	18.26
833.198	-69.8
833.374	-41.13
833.551	-55.47
833.728	-71.85
833.905	61.27
834.082	-118.95
834.259	59.22
834.436	94.04
834.612	-80.04
834.789	20.31
834.966	-41.13
835.143	-34.99
835.319	-100.52
835.496	-34.99
835.673	-22.7
835.85	77.65
836.026	46.93
836.203	48.98
836.38	-147.62
836.556	-32.94
836.733	-53.42
836.909	192.34
837.086	-26.79
837.262	-149.67
837.439	12.12
837.616	-90.28
837.792	-43.18
837.968	18.26
838.145	-131.24
838.321	-71.85
838.498	-0.17
838.674	-4.27
838.851	-22.7
839.027	-26.79
839.203	-4.27
839.38	10.07
839.556	-57.51
839.732	-10.41
839.909	32.6
840.085	69.46
840.261	-45.23
840.437	-4.27
840.614	-6.31
840.79	67.41
840.966	18.26
841.142	22.36
841.318	-71.85
841.494	87.89
841.671	116.56
841.847	-80.04
842.023	-88.23
842.199	44.88
842.375	100.18
842.551	-77.99
842.727	-75.95
842.903	153.43
843.079	-55.47
843.255	110.42
843.431	59.22
843.607	30.55
843.783	-139.43
843.959	57.17
844.134	-30.89
844.31	120.66
844.486	-55.47
844.662	-0.17
844.838	10.07
845.013	36.69
845.189	48.98
845.365	-53.42
845.541	44.88
845.716	-20.65
845.892	34.64
846.068	-57.51
846.244	-65.71
846.419	53.08
846.595	-28.84
846.77	-114.86
846.946	91.99
847.122	-77.99
847.297	14.17
847.473	55.12
847.648	-112.81
847.824	-0.17
847.999	-137.38
848.175	10.07
848.35	1.88
848.526	40.79
848.701	-30.89
848.876	102.23
849.052	65.36
849.227	-30.89
849.403	-41.13
849.578	12.12
849.753	42.84
849.929	-12.46
850.104	-125.1
850.279	61.27
850.454	26.45
850.63	20.31
850.805	-69.8
850.98	-43.18
851.155	-22.7
851.33	46.93
851.505	-63.66
851.681	10.07
851.856	-59.56
852.031	-14.51
852.206	44.88
852.381	-94.38
852.556	-80.04
852.731	-80.04
852.906	75.6
853.081	34.64
853.256	77.65
853.431	-26.79
853.606	-32.94
853.781	-67.75
853.956	-139.43
854.131	16.21
854.305	-34.99
854.48	-63.66
854.655	-108.71
854.83	-49.32
855.005	-77.99
855.18	-32.94
855.354	-63.66
855.529	-28.84
855.704	-135.34
855.879	-39.08
856.053	-80.04
856.228	5.97
856.403	-45.23
856.577	14.17
856.752	-149.67
856.926	-18.6
857.101	51.03
857.276	-14.51
857.45	57.17
857.625	8.02
857.799	12.12
857.974	-32.94
858.148	-137.38
858.323	32.6
858.497	10.07
858.672	-6.31
858.846	-82.09
859.02	-4.27
859.195	-88.23
859.369	-28.84
859.543	-10.41
859.718	10.07
859.892	-20.65
860.066	-77.99
860.241	-51.37
860.415	-4.27
860.589	-123.05
860.763	-22.7
860.938	-65.71
861.112	-18.6
861.286	-4.27
861.46	22.36
861.634	-61.61
861.808	3.93
861.982	-118.95
862.157	-141.48
862.331	-34.99
862.505	-98.47
862.679	-92.33
862.853	-114.86
863.027	-102.57
863.201	42.84
863.375	-114.86
863.549	-37.03
863.722	-55.47
863.896	96.08
864.07	-104.62
864.244	57.17
864.418	116.56
864.592	-22.7
864.766	40.79
864.939	46.93
865.113	-63.66
865.287	169.81
865.461	-59.56
865.634	-4.27
865.808	46.93
865.982	-112.81
866.156	-49.32
866.329	-86.19
866.503	-30.89
866.676	-30.89
866.85	8.02
867.024	-43.18
867.197	57.17
867.371	63.32
867.544	-49.32
867.718	-55.47
867.891	65.36
868.065	-112.81
868.238	32.6
868.412	12.12
868.585	-34.99
868.759	-82.09
868.932	-73.9
869.105	-55.47
869.279	38.74
869.452	-104.62
869.625	12.12
869.799	-18.6
869.972	-121
870.145	-14.51
870.319	-6.31
870.492	-139.43
870.665	-32.94
870.838	-135.34
871.011	-207.02
871.185	-28.84
871.358	-110.76
871.531	-2.22
871.704	32.6
871.877	-51.37
872.05	-118.95
872.223	-94.38
872.396	44.88
872.569	48.98
872.742	-108.71
872.915	-10.41
873.088	-94.38
873.261	-34.99
873.434	-0.17
873.607	-41.13
873.78	12.12
873.953	-114.86
874.126	22.36
874.299	83.8
874.471	-63.66
874.644	-41.13
874.817	91.99
874.99	165.71
875.163	-65.71
875.335	-8.36
875.508	10.07
875.681	32.6
875.853	-112.81
876.026	-26.79
876.199	36.69
876.371	20.31
876.544	18.26
876.717	32.6
876.889	10.07
877.062	-26.79
877.234	-20.65
877.407	-75.95
877.579	-16.55
877.752	40.79
877.924	71.51
878.097	18.26
878.269	87.89
878.442	-71.85
878.614	12.12
878.786	32.6
878.959	34.64
879.131	-67.75
879.303	-88.23
879.476	-114.86
879.648	75.6
879.82	-28.84
879.993	-88.23
880.165	-24.75
880.337	-80.04
880.509	-80.04
880.681	-127.14
880.854	-82.09
881.026	8.02
881.198	141.14
881.37	-49.32
881.542	12.12
881.714	-65.71
881.886	-61.61
882.058	-51.37
882.23	-37.03
882.402	-161.96
882.574	3.93
882.746	63.32
882.918	38.74
883.09	-12.46
883.262	-77.99
883.434	59.22
883.606	-98.47
883.778	5.97
883.95	57.17
884.122	-30.89
884.293	59.22
884.465	26.45
884.637	8.02
884.809	-63.66
884.98	-10.41
885.152	12.12
885.324	28.5
885.496	-6.31
885.667	-51.37
885.839	40.79
886.011	51.03
886.182	-49.32
886.354	-59.56
886.525	18.26
886.697	-39.08
886.869	-22.7
887.04	-106.67
887.212	-0.17
887.383	120.66
887.555	94.04
887.726	-153.77
887.897	-32.94
888.069	-10.41
888.24	36.69
888.412	-98.47
888.583	-39.08
888.754	-26.79
888.926	-67.75
889.097	-80.04
889.268	-133.29
889.44	40.79
889.611	-96.43
889.782	-88.23
889.953	-86.19
890.125	124.76
890.296	-77.99
890.467	-41.13
890.638	-43.18
890.809	-82.09
890.98	-32.94
891.151	-63.66
891.323	38.74
891.494	-24.75
891.665	-4.27
891.836	16.21
892.007	-28.84
892.178	-26.79
892.349	-49.32
892.52	-28.84
892.691	53.08
892.862	-51.37
893.032	-129.19
893.203	-75.95
893.374	-24.75
893.545	8.02
893.716	-37.03
893.887	5.97
894.057	-30.89
894.228	59.22
894.399	-43.18
894.57	-18.6
894.74	-10.41
894.911	-0.17
895.082	-28.84
895.253	-112.81
895.423	-8.36
895.594	94.04
895.764	-39.08
895.935	-32.94
896.106	-14.51
896.276	-118.95
896.447	-63.66
896.617	-116.9
896.788	-67.75
896.958	-26.79
897.129	-57.51
897.299	-69.8
897.47	61.27
897.64	36.69
897.81	-84.14
897.981	-14.51
898.151	-110.76
898.322	83.8
898.492	-10.41
898.662	-100.52
898.832	-75.95
899.003	5.97
899.173	53.08
899.343	-123.05
899.513	-37.03
