Data from USB4F104151__73__10-44-07-772.txt Node

Date: Wed Feb 26 10:44:07 EST 2025
User: louis
Spectrometer: USB4F10415
Trigger mode: 4
Integration Time (sec): 1.000000E-1
Scans to average: 1
Electric dark correction enabled: true
Nonlinearity correction enabled: false
Boxcar width: 0
XAxis mode: Wavelengths
Number of Pixels in Spectrum: 3648
>>>>>Begin Spectral Data<<<<<
178.204	-393.72
178.424	-393.72
178.644	-393.72
178.864	-383.48
179.084	-446.97
179.304	-8.7
179.524	-41.47
179.744	32.26
179.964	46.59
180.184	-23.04
180.404	19.97
180.624	5.63
180.844	-8.7
181.064	-78.33
181.283	13.82
181.503	-39.42
181.723	81.41
181.943	-86.53
182.163	194.05
182.383	-18.94
182.602	62.98
182.822	130.56
183.042	44.54
183.262	-33.28
183.482	22.02
183.701	73.21
183.921	58.88
184.141	-72.19
184.361	73.21
184.58	36.35
184.8	56.83
185.02	26.11
185.239	99.84
185.459	60.93
185.679	116.22
185.898	-70.14
186.118	93.69
186.338	112.13
186.557	91.65
186.777	19.97
186.997	-31.23
187.216	11.78
187.436	210.43
187.655	-37.38
187.875	132.61
188.095	114.17
188.314	132.61
188.534	108.03
188.753	-29.18
188.973	85.5
189.192	130.56
189.412	9.73
189.631	81.41
189.851	67.07
190.07	130.56
190.29	-107.01
190.509	-0.51
190.729	85.5
190.948	140.8
191.168	247.29
191.387	62.98
191.607	9.73
191.826	44.54
192.045	-49.66
192.265	40.45
192.484	108.03
192.704	122.37
192.923	28.16
193.142	163.33
193.362	151.04
193.581	163.33
193.8	79.36
194.02	126.46
194.239	34.3
194.458	32.26
194.678	75.26
194.897	95.74
195.116	65.02
195.335	114.17
195.555	65.02
195.774	-10.75
195.993	85.5
196.212	-10.75
196.432	-74.24
196.651	3.58
196.87	97.79
197.089	243.2
197.308	7.68
197.528	91.65
197.747	-2.56
197.966	62.98
198.185	118.27
198.404	38.4
198.623	79.36
198.842	85.5
199.062	157.18
199.281	108.03
199.5	24.06
199.719	58.88
199.938	42.5
200.157	58.88
200.376	56.83
200.595	103.93
200.814	46.59
201.033	5.63
201.252	200.19
201.471	38.4
201.69	95.74
201.909	-10.75
202.128	155.13
202.347	99.84
202.566	58.88
202.785	-82.43
203.004	9.73
203.223	202.24
203.442	34.3
203.661	-33.28
203.879	122.37
204.098	122.37
204.317	-68.09
204.536	132.61
204.755	95.74
204.974	75.26
205.193	28.16
205.411	81.41
205.63	122.37
205.849	138.75
206.068	42.5
206.287	-31.23
206.505	155.13
206.724	15.87
206.943	-2.56
207.162	-43.52
207.381	151.04
207.599	34.3
207.818	52.74
208.037	-41.47
208.255	30.21
208.474	13.82
208.693	3.58
208.911	-20.99
209.13	87.55
209.349	81.41
209.567	87.55
209.786	71.17
210.005	46.59
210.223	52.74
210.442	-70.14
210.661	5.63
210.879	58.88
211.098	32.26
211.316	15.87
211.535	108.03
211.753	91.65
211.972	97.79
212.191	-18.94
212.409	-25.09
212.628	87.55
212.846	7.68
213.065	73.21
213.283	28.16
213.502	19.97
213.72	81.41
213.938	46.59
214.157	3.58
214.375	187.9
214.594	62.98
214.812	50.69
215.031	-4.61
215.249	5.63
215.467	32.26
215.686	-4.61
215.904	46.59
216.122	-64
216.341	124.41
216.559	-10.75
216.778	118.27
216.996	108.03
217.214	46.59
217.432	95.74
217.651	-57.86
217.869	103.93
218.087	46.59
218.306	-31.23
218.524	11.78
218.742	-49.66
218.96	128.51
219.179	-4.61
219.397	24.06
219.615	212.48
219.833	54.78
220.051	36.35
220.27	140.8
220.488	132.61
220.706	95.74
220.924	-74.24
221.142	-14.85
221.36	60.93
221.578	112.13
221.796	-16.9
222.015	44.54
222.233	138.75
222.451	220.67
222.669	-47.62
222.887	126.46
223.105	79.36
223.323	5.63
223.541	52.74
223.759	87.55
223.977	30.21
224.195	116.22
224.413	118.27
224.631	48.64
224.849	65.02
225.067	177.66
225.285	-39.42
225.503	26.11
225.721	-18.94
225.939	-25.09
226.157	110.08
226.375	214.52
226.592	-49.66
226.81	36.35
227.028	148.99
227.246	89.6
227.464	-8.7
227.682	87.55
227.9	89.6
228.117	87.55
228.335	77.31
228.553	17.92
228.771	42.5
228.989	30.21
229.206	46.59
229.424	79.36
229.642	-18.94
229.86	-10.75
230.077	52.74
230.295	136.7
230.513	134.65
230.731	44.54
230.948	159.23
231.166	71.17
231.384	46.59
231.601	-20.99
231.819	148.99
232.037	89.6
232.254	-55.81
232.472	60.93
232.689	36.35
232.907	105.98
233.125	75.26
233.342	-0.51
233.56	15.87
233.777	-10.75
233.995	65.02
234.213	128.51
234.43	38.4
234.648	138.75
234.865	28.16
235.083	83.45
235.3	62.98
235.518	77.31
235.735	161.28
235.953	54.78
236.17	85.5
236.388	77.31
236.605	69.12
236.822	128.51
237.04	138.75
237.257	110.08
237.475	-64
237.692	112.13
237.909	93.69
238.127	-61.95
238.344	114.17
238.562	95.74
238.779	-33.28
238.996	-27.14
239.214	56.83
239.431	101.89
239.648	9.73
239.865	118.27
240.083	81.41
240.3	-39.42
240.517	-33.28
240.735	56.83
240.952	116.22
241.169	87.55
241.386	85.5
241.603	116.22
241.821	-35.33
242.038	87.55
242.255	157.18
242.472	-23.04
242.689	48.64
242.907	75.26
243.124	91.65
243.341	28.16
243.558	52.74
243.775	-51.71
243.992	-20.99
244.209	85.5
244.426	171.52
244.643	69.12
244.86	38.4
245.078	32.26
245.295	44.54
245.512	-0.51
245.729	-43.52
245.946	19.97
246.163	52.74
246.38	75.26
246.597	134.65
246.814	30.21
247.031	-18.94
247.248	-27.14
247.464	130.56
247.681	75.26
247.898	124.41
248.115	77.31
248.332	-33.28
248.549	173.57
248.766	155.13
248.983	122.37
249.2	56.83
249.417	-4.61
249.633	-0.51
249.85	132.61
250.067	1.54
250.284	91.65
250.501	101.89
250.717	56.83
250.934	-45.57
251.151	44.54
251.368	11.78
251.585	87.55
251.801	69.12
252.018	-18.94
252.235	73.21
252.451	-51.71
252.668	-61.95
252.885	126.46
253.102	71.17
253.318	26.11
253.535	32.26
253.752	13.82
253.968	38.4
254.185	-23.04
254.401	30.21
254.618	15.87
254.835	-12.8
255.051	142.85
255.268	105.98
255.484	71.17
255.701	26.11
255.917	46.59
256.134	24.06
256.351	118.27
256.567	-12.8
256.784	65.02
257	-94.72
257.217	40.45
257.433	161.28
257.65	13.82
257.866	218.62
258.082	-84.48
258.299	-41.47
258.515	95.74
258.732	-18.94
258.948	-51.71
259.165	91.65
259.381	67.07
259.597	89.6
259.814	60.93
260.03	79.36
260.246	24.06
260.463	110.08
260.679	105.98
260.895	79.36
261.112	56.83
261.328	7.68
261.544	-0.51
261.761	173.57
261.977	24.06
262.193	-55.81
262.409	95.74
262.626	36.35
262.842	40.45
263.058	-14.85
263.274	130.56
263.49	54.78
263.707	38.4
263.923	151.04
264.139	-33.28
264.355	56.83
264.571	24.06
264.787	118.27
265.004	210.43
265.22	-12.8
265.436	-8.7
265.652	3.58
265.868	73.21
266.084	-6.66
266.3	62.98
266.516	-29.18
266.732	87.55
266.948	54.78
267.164	81.41
267.38	171.52
267.596	75.26
267.812	167.42
268.028	62.98
268.244	-10.75
268.46	73.21
268.676	89.6
268.892	83.45
269.108	50.69
269.324	-66.05
269.54	-33.28
269.756	134.65
269.972	1.54
270.188	9.73
270.403	-20.99
270.619	-45.57
270.835	50.69
271.051	62.98
271.267	-31.23
271.483	-45.57
271.698	157.18
271.914	67.07
272.13	54.78
272.346	22.02
272.562	71.17
272.777	153.09
272.993	22.02
273.209	-47.62
273.425	118.27
273.64	-59.9
273.856	126.46
274.072	-6.66
274.287	1.54
274.503	60.93
274.719	130.56
274.934	58.88
275.15	-31.23
275.366	69.12
275.581	-2.56
275.797	-8.7
276.012	-61.95
276.228	7.68
276.444	46.59
276.659	194.05
276.875	-66.05
277.09	-6.66
277.306	13.82
277.521	73.21
277.737	-39.42
277.952	126.46
278.168	1.54
278.383	38.4
278.599	44.54
278.814	77.31
279.03	48.64
279.245	136.7
279.461	38.4
279.676	73.21
279.892	-16.9
280.107	-2.56
280.322	85.5
280.538	17.92
280.753	-8.7
280.969	42.5
281.184	-14.85
281.399	159.23
281.615	52.74
281.83	50.69
282.045	-14.85
282.26	15.87
282.476	30.21
282.691	99.84
282.906	79.36
283.122	99.84
283.337	-23.04
283.552	77.31
283.767	-31.23
283.983	169.47
284.198	42.5
284.413	32.26
284.628	-51.71
284.843	46.59
285.058	179.71
285.274	-84.48
285.489	-20.99
285.704	151.04
285.919	5.63
286.134	36.35
286.349	38.4
286.564	28.16
286.779	101.89
286.995	13.82
287.21	-6.66
287.425	69.12
287.64	17.92
287.855	52.74
288.07	-2.56
288.285	28.16
288.5	40.45
288.715	140.8
288.93	103.93
289.145	-31.23
289.36	34.3
289.575	-23.04
289.79	114.17
290.004	-16.9
290.219	71.17
290.434	-0.51
290.649	46.59
290.864	38.4
291.079	112.13
291.294	105.98
291.509	62.98
291.724	71.17
291.938	60.93
292.153	73.21
292.368	24.06
292.583	46.59
292.798	54.78
293.012	99.84
293.227	58.88
293.442	-2.56
293.657	71.17
293.871	118.27
294.086	22.02
294.301	169.47
294.516	187.9
294.73	101.89
294.945	-90.62
295.16	42.5
295.374	126.46
295.589	91.65
295.804	48.64
296.018	44.54
296.233	175.61
296.447	73.21
296.662	-51.71
296.877	79.36
297.091	120.32
297.306	83.45
297.52	13.82
297.735	103.93
297.949	85.5
298.164	87.55
298.378	122.37
298.593	-92.67
298.807	-2.56
299.022	71.17
299.236	183.81
299.451	128.51
299.665	34.3
299.88	56.83
300.094	46.59
300.309	67.07
300.523	58.88
300.737	24.06
300.952	79.36
301.166	46.59
301.381	-82.43
301.595	38.4
301.809	56.83
302.024	-12.8
302.238	48.64
302.452	105.98
302.667	87.55
302.881	257.53
303.095	120.32
303.309	114.17
303.524	65.02
303.738	38.4
303.952	-51.71
304.166	69.12
304.381	-53.76
304.595	124.41
304.809	-2.56
305.023	89.6
305.237	52.74
305.452	50.69
305.666	40.45
305.88	73.21
306.094	120.32
306.308	-18.94
306.522	50.69
306.736	42.5
306.95	99.84
307.164	9.73
307.379	15.87
307.593	122.37
307.807	99.84
308.021	89.6
308.235	11.78
308.449	-39.42
308.663	-37.38
308.877	175.61
309.091	26.11
309.305	11.78
309.519	-70.14
309.733	91.65
309.947	-64
310.161	120.32
310.374	52.74
310.588	112.13
310.802	3.58
311.016	24.06
311.23	128.51
311.444	-64
311.658	50.69
311.872	136.7
312.085	108.03
312.299	62.98
312.513	85.5
312.727	91.65
312.941	-74.24
313.154	65.02
313.368	5.63
313.582	15.87
313.796	50.69
314.009	-37.38
314.223	157.18
314.437	122.37
314.651	85.5
314.864	60.93
315.078	-35.33
315.292	-49.66
315.505	30.21
315.719	93.69
315.933	36.35
316.146	-0.51
316.36	-23.04
316.573	22.02
316.787	120.32
317.001	93.69
317.214	-27.14
317.428	79.36
317.641	-14.85
317.855	-59.9
318.068	95.74
318.282	58.88
318.495	171.52
318.709	81.41
318.922	46.59
319.136	218.62
319.349	67.07
319.563	42.5
319.776	101.89
319.99	-88.57
320.203	58.88
320.417	48.64
320.63	97.79
320.843	232.96
321.057	75.26
321.27	83.45
321.483	79.36
321.697	124.41
321.91	34.3
322.124	91.65
322.337	73.21
322.55	-92.67
322.763	9.73
322.977	7.68
323.19	7.68
323.403	85.5
323.617	75.26
323.83	155.13
324.043	79.36
324.256	58.88
324.469	-98.81
324.683	136.7
324.896	48.64
325.109	95.74
325.322	3.58
325.535	97.79
325.748	136.7
325.962	28.16
326.175	9.73
326.388	85.5
326.601	60.93
326.814	69.12
327.027	34.3
327.24	116.22
327.453	-86.53
327.666	56.83
327.879	105.98
328.092	99.84
328.305	95.74
328.518	-51.71
328.731	15.87
328.944	19.97
329.157	79.36
329.37	28.16
329.583	124.41
329.796	208.38
330.009	-78.33
330.222	17.92
330.435	118.27
330.648	38.4
330.861	30.21
331.073	75.26
331.286	105.98
331.499	140.8
331.712	26.11
331.925	17.92
332.138	46.59
332.35	75.26
332.563	36.35
332.776	91.65
332.989	-76.29
333.202	34.3
333.414	54.78
333.627	50.69
333.84	83.45
334.053	58.88
334.265	22.02
334.478	15.87
334.691	17.92
334.903	34.3
335.116	40.45
335.329	97.79
335.541	99.84
335.754	183.81
335.966	58.88
336.179	17.92
336.392	-55.81
336.604	15.87
336.817	67.07
337.029	73.21
337.242	24.06
337.454	38.4
337.667	108.03
337.88	171.52
338.092	112.13
338.305	26.11
338.517	52.74
338.729	153.09
338.942	140.8
339.154	-2.56
339.367	-43.52
339.579	69.12
339.792	36.35
340.004	30.21
340.217	46.59
340.429	97.79
340.641	91.65
340.854	-23.04
341.066	-29.18
341.278	118.27
341.491	138.75
341.703	-8.7
341.915	-45.57
342.128	99.84
342.34	83.45
342.552	58.88
342.764	24.06
342.977	69.12
343.189	30.21
343.401	34.3
343.613	30.21
343.826	50.69
344.038	28.16
344.25	34.3
344.462	-53.76
344.674	87.55
344.886	-72.19
345.099	58.88
345.311	83.45
345.523	-23.04
345.735	-53.76
345.947	101.89
346.159	48.64
346.371	108.03
346.583	44.54
346.795	241.15
347.007	13.82
347.219	81.41
347.431	-47.62
347.643	108.03
347.855	28.16
348.067	179.71
348.279	-20.99
348.491	-4.61
348.703	30.21
348.915	50.69
349.127	-10.75
349.339	22.02
349.551	-59.9
349.763	54.78
349.975	15.87
350.187	148.99
350.399	163.33
350.61	91.65
350.822	50.69
351.034	81.41
351.246	48.64
351.458	36.35
351.669	116.22
351.881	108.03
352.093	208.38
352.305	181.76
352.517	73.21
352.728	159.23
352.94	26.11
353.152	87.55
353.363	-8.7
353.575	65.02
353.787	163.33
353.999	67.07
354.21	163.33
354.422	60.93
354.633	11.78
354.845	28.16
355.057	108.03
355.268	11.78
355.48	177.66
355.692	-29.18
355.903	85.5
356.115	-33.28
356.326	-104.96
356.538	128.51
356.749	34.3
356.961	161.28
357.172	3.58
357.384	-113.15
357.595	161.28
357.807	22.02
358.018	-82.43
358.23	7.68
358.441	165.37
358.653	165.37
358.864	30.21
359.075	17.92
359.287	89.6
359.498	77.31
359.709	75.26
359.921	50.69
360.132	75.26
360.344	38.4
360.555	26.11
360.766	71.17
360.977	-14.85
361.189	67.07
361.4	54.78
361.611	38.4
361.823	161.28
362.034	-8.7
362.245	-45.57
362.456	-8.7
362.667	91.65
362.879	-12.8
363.09	60.93
363.301	91.65
363.512	-39.42
363.723	-49.66
363.935	34.3
364.146	155.13
364.357	28.16
364.568	105.98
364.779	15.87
364.99	75.26
365.201	-23.04
365.412	60.93
365.623	-66.05
365.834	118.27
366.045	-10.75
366.256	120.32
366.467	95.74
366.678	1.54
366.889	75.26
367.1	26.11
367.311	140.8
367.522	28.16
367.733	101.89
367.944	101.89
368.155	24.06
368.366	62.98
368.577	62.98
368.788	103.93
368.999	71.17
369.209	67.07
369.42	208.38
369.631	200.19
369.842	32.26
370.053	22.02
370.264	116.22
370.474	-23.04
370.685	42.5
370.896	1.54
371.107	120.32
371.317	87.55
371.528	-10.75
371.739	112.13
371.95	110.08
372.16	130.56
372.371	-68.09
372.582	-25.09
372.792	60.93
373.003	67.07
373.214	110.08
373.424	105.98
373.635	48.64
373.846	89.6
374.056	-14.85
374.267	73.21
374.477	60.93
374.688	-14.85
374.898	62.98
375.109	15.87
375.319	38.4
375.53	99.84
375.74	105.98
375.951	1.54
376.161	103.93
376.372	69.12
376.582	32.26
376.793	73.21
377.003	30.21
377.214	34.3
377.424	153.09
377.635	44.54
377.845	-2.56
378.055	159.23
378.266	-41.47
378.476	71.17
378.686	155.13
378.897	71.17
379.107	91.65
379.317	36.35
379.528	120.32
379.738	142.85
379.948	-2.56
380.158	103.93
380.369	62.98
380.579	83.45
380.789	-31.23
380.999	99.84
381.21	114.17
381.42	210.43
381.63	-12.8
381.84	69.12
382.05	114.17
382.261	122.37
382.471	22.02
382.681	7.68
382.891	226.81
383.101	34.3
383.311	42.5
383.521	11.78
383.731	67.07
383.941	142.85
384.151	91.65
384.361	-2.56
384.571	67.07
384.781	81.41
384.991	280.06
385.201	153.09
385.411	105.98
385.621	15.87
385.831	34.3
386.041	44.54
386.251	15.87
386.461	163.33
386.671	-33.28
386.881	67.07
387.091	50.69
387.301	36.35
387.511	34.3
387.72	48.64
387.93	155.13
388.14	-41.47
388.35	67.07
388.56	134.65
388.769	144.89
388.979	81.41
389.189	-37.38
389.399	50.69
389.609	54.78
389.818	62.98
390.028	69.12
390.238	91.65
390.447	-68.09
390.657	97.79
390.867	56.83
391.076	17.92
391.286	65.02
391.496	-6.66
391.705	19.97
391.915	128.51
392.125	116.22
392.334	-0.51
392.544	142.85
392.753	108.03
392.963	13.82
393.172	69.12
393.382	9.73
393.591	134.65
393.801	26.11
394.01	173.57
394.22	52.74
394.429	9.73
394.639	-86.53
394.848	65.02
395.058	44.54
395.267	-39.42
395.477	24.06
395.686	89.6
395.895	243.2
396.105	214.52
396.314	91.65
396.524	93.69
396.733	62.98
396.942	97.79
397.152	138.75
397.361	165.37
397.57	95.74
397.78	5.63
397.989	108.03
398.198	153.09
398.407	62.98
398.617	3.58
398.826	9.73
399.035	69.12
399.244	81.41
399.453	42.5
399.663	73.21
399.872	40.45
400.081	-14.85
400.29	136.7
400.499	28.16
400.708	79.36
400.917	75.26
401.127	67.07
401.336	60.93
401.545	189.95
401.754	93.69
401.963	44.54
402.172	15.87
402.381	-66.05
402.59	-18.94
402.799	26.11
403.008	87.55
403.217	40.45
403.426	89.6
403.635	-35.33
403.844	62.98
404.053	38.4
404.262	65.02
404.471	134.65
404.68	32.26
404.888	95.74
405.097	38.4
405.306	71.17
405.515	118.27
405.724	5.63
405.933	101.89
406.142	101.89
406.35	146.94
406.559	40.45
406.768	93.69
406.977	173.57
407.185	105.98
407.394	153.09
407.603	-111.1
407.812	81.41
408.02	198.14
408.229	-25.09
408.438	97.79
408.646	-14.85
408.855	71.17
409.064	93.69
409.272	148.99
409.481	62.98
409.69	-43.52
409.898	40.45
410.107	99.84
410.315	110.08
410.524	-12.8
410.733	24.06
410.941	-6.66
411.15	118.27
411.358	34.3
411.567	167.42
411.775	140.8
411.984	89.6
412.192	93.69
412.401	32.26
412.609	200.19
412.818	91.65
413.026	140.8
413.234	62.98
413.443	101.89
413.651	-49.66
413.86	38.4
414.068	169.47
414.276	173.57
414.485	122.37
414.693	148.99
414.901	183.81
415.11	91.65
415.318	97.79
415.526	17.92
415.734	95.74
415.943	11.78
416.151	181.76
416.359	69.12
416.567	87.55
416.776	77.31
416.984	173.57
417.192	220.67
417.4	-16.9
417.608	36.35
417.817	1.54
418.025	69.12
418.233	144.89
418.441	-8.7
418.649	-59.9
418.857	81.41
419.065	198.14
419.273	22.02
419.481	19.97
419.689	-23.04
419.897	30.21
420.105	5.63
420.313	122.37
420.521	134.65
420.729	81.41
420.937	17.92
421.145	-23.04
421.353	124.41
421.561	249.34
421.769	79.36
421.977	1.54
422.185	126.46
422.393	89.6
422.601	17.92
422.809	120.32
423.017	65.02
423.224	136.7
423.432	175.61
423.64	42.5
423.848	134.65
424.056	34.3
424.263	159.23
424.471	83.45
424.679	194.05
424.887	-6.66
425.094	155.13
425.302	118.27
425.51	38.4
425.718	103.93
425.925	62.98
426.133	67.07
426.341	230.91
426.548	128.51
426.756	60.93
426.964	161.28
427.171	67.07
427.379	122.37
427.586	83.45
427.794	185.85
428.001	163.33
428.209	155.13
428.417	187.9
428.624	232.96
428.832	48.64
429.039	204.28
429.247	136.7
429.454	153.09
429.662	204.28
429.869	198.14
430.076	110.08
430.284	116.22
430.491	251.39
430.699	140.8
430.906	165.37
431.114	136.7
431.321	142.85
431.528	155.13
431.736	126.46
431.943	187.9
432.15	241.15
432.358	249.34
432.565	271.87
432.772	71.17
432.979	235
433.187	91.65
433.394	218.62
433.601	159.23
433.808	235
434.016	216.57
434.223	224.76
434.43	241.15
434.637	286.2
434.844	267.77
435.052	200.19
435.259	335.35
435.466	239.1
435.673	296.44
435.88	261.63
436.087	329.21
436.294	357.88
436.501	308.73
436.708	298.49
436.915	394.75
437.122	517.62
437.329	214.52
437.537	335.35
437.743	374.27
437.95	499.19
438.157	390.65
438.364	415.23
438.571	368.12
438.778	546.3
438.985	480.76
439.192	515.58
439.399	423.42
439.606	439.8
439.813	495.1
440.02	544.25
440.227	716.28
440.433	628.21
440.64	546.3
440.847	552.44
441.054	667.13
441.261	800.24
441.467	697.85
441.674	601.59
441.881	697.85
442.088	757.24
442.294	800.24
442.501	867.83
442.708	828.92
442.914	826.87
443.121	933.36
443.328	867.83
443.534	996.85
443.741	986.61
443.948	894.45
444.154	1056.24
444.361	1132.01
444.568	1074.67
444.774	1097.2
444.981	1025.52
445.187	1193.45
445.394	1203.69
445.6	1277.42
445.807	1557.99
446.013	1342.96
446.22	1338.86
446.426	1504.75
446.633	1576.42
446.839	1861.09
447.046	1568.23
447.252	1703.4
447.459	1709.54
447.665	1699.3
447.871	2026.98
448.078	2084.32
448.284	2053.6
448.491	2055.65
448.697	2295.26
448.903	2225.63
449.11	2319.84
449.316	2317.79
449.522	2545.11
449.728	2694.61
449.935	2663.9
450.141	2825.68
450.347	2915.8
450.553	2956.75
450.76	2971.09
450.966	3169.74
451.172	3347.92
451.378	3239.37
451.584	3313.1
451.791	3806.66
451.997	3866.05
452.203	3898.82
452.409	4056.51
452.615	4296.13
452.821	4111.81
453.027	4183.49
453.233	4615.61
453.44	4666.81
453.646	4818.36
453.852	4877.75
454.058	5160.37
454.264	5395.89
454.47	5637.55
454.676	5655.98
454.882	6466.97
455.088	5911.97
455.294	6333.86
455.5	6864.28
455.705	7237.01
455.911	7140.76
456.117	7253.39
456.323	7572.88
456.529	7650.7
456.735	8238.47
456.941	8406.4
457.147	8658.3
457.352	9010.55
457.558	9162.1
457.764	10040.68
457.97	9964.9
458.176	10431.84
458.381	10949.98
458.587	11240.79
458.793	11765.07
458.999	11830.6
459.204	13290.81
459.41	13700.4
459.616	13280.57
459.821	14165.29
460.027	14824.73
460.233	15645.97
460.438	15492.37
460.644	16641.28
460.85	16745.73
461.055	17192.19
461.261	18171.11
461.466	17999.09
461.672	18103.53
461.878	20204.75
462.083	20219.08
462.289	20464.84
462.494	21454.01
462.7	21654.71
462.905	21804.21
463.111	23721.11
463.316	24728.71
463.522	25226.37
463.727	26168.43
463.932	26948.71
464.138	27905.11
464.343	29097.03
464.549	29099.08
464.754	31298.59
464.959	31872.03
465.165	32760.84
465.37	32375.83
465.575	32195.6
465.781	34530.29
465.986	35658.72
466.191	34765.81
466.397	35847.13
466.602	34769.9
466.807	36522.96
467.012	37174.22
467.218	37800.9
467.423	37807.04
467.628	39185.32
467.833	40577.94
468.038	40108.96
468.244	39773.09
468.449	41620.36
468.654	40684.44
468.859	40455.06
469.064	40623
469.269	39469.99
469.474	39932.83
469.679	40797.07
469.885	39930.78
470.09	40418.2
470.295	40948.62
470.5	39590.82
470.705	39959.45
470.91	39087.02
471.115	38874.03
471.32	38998.96
471.525	38890.41
471.73	38251.45
471.935	37938.11
472.139	36252.63
472.344	36404.18
472.549	36062.17
472.754	35447.78
472.959	34649.07
473.164	33618.94
473.369	33223.69
473.574	34229.24
473.778	33487.87
473.983	32760.84
474.188	32085.01
474.393	30866.47
474.598	30598.19
474.802	29760.57
475.007	29627.45
475.212	29103.17
475.417	28286.03
475.621	27872.34
475.826	27794.52
476.031	27010.15
476.235	26449
476.44	26477.68
476.645	25797.75
476.849	25287.81
477.054	25060.48
477.259	24509.58
477.463	24386.7
477.668	23966.87
477.872	23934.1
478.077	23219.36
478.282	22586.54
478.486	22379.69
478.691	22099.12
478.895	21935.28
479.1	21834.93
479.304	21705.91
479.509	20810.95
479.713	21392.57
479.918	20708.55
480.122	20307.15
480.326	20253.9
480.531	20284.62
480.735	19961.04
480.94	19412.18
481.144	20200.65
481.348	19375.32
481.553	19498.2
481.757	18988.25
481.961	18937.06
482.166	19229.91
482.37	18822.37
482.574	18461.93
482.778	18631.91
482.983	18918.62
483.187	18128.11
483.391	18236.65
483.595	18111.72
483.8	17603.83
484.004	17851.63
484.208	17663.22
484.412	17478.9
484.616	17151.23
484.821	17218.81
485.025	16604.42
485.229	16819.46
485.433	16317.7
485.637	16233.74
485.841	16002.32
486.045	15891.73
486.249	15537.43
486.453	15338.77
486.657	15402.26
486.861	14949.66
487.065	14523.68
487.269	14599.46
487.473	14214.44
487.677	14038.31
487.881	14292.26
488.085	13432.12
488.289	13587.76
488.493	12895.55
488.697	13057.34
488.901	12797.24
489.105	12490.05
489.309	12311.88
489.512	12248.39
489.716	11978.06
489.92	11533.65
490.124	11380.05
490.328	11447.63
490.531	10992.98
490.735	11001.18
490.939	10784.09
491.143	10499.42
491.346	10222.95
491.55	10448.22
491.754	10188.13
491.958	9899.37
492.161	9663.85
492.365	9510.25
492.569	9346.42
492.772	9143.67
492.976	8928.63
493.18	8912.25
493.383	8979.83
493.587	8762.75
493.79	8758.65
493.994	8361.34
494.197	8531.33
494.401	8271.23
494.605	8248.71
494.808	8281.47
495.012	8220.03
495.215	7986.57
495.419	8113.54
495.622	7826.82
495.825	7894.41
496.029	7699.85
496.232	7896.46
496.436	7644.56
496.639	7832.97
496.843	7652.75
497.046	7777.67
497.249	7681.42
497.453	7568.78
497.656	7482.77
497.859	7783.82
498.063	7667.08
498.266	7609.74
498.469	7605.64
498.673	7703.95
498.876	7769.48
499.079	7742.86
499.282	7802.25
499.485	7947.65
499.689	7765.39
499.892	8009.09
500.095	7869.83
500.298	8201.6
500.501	7898.5
500.705	7984.52
500.908	8041.86
501.111	8207.75
501.314	8242.56
501.517	8420.74
501.72	8398.21
501.923	8291.71
502.126	8398.21
502.329	8592.76
502.532	8680.83
502.735	8680.83
502.938	9084.28
503.141	8883.58
503.344	8918.39
503.547	9348.47
503.75	9223.54
503.953	9430.38
504.156	9459.06
504.359	9608.56
504.562	9694.57
504.765	9782.63
504.968	9948.52
505.17	10003.82
505.373	10270.05
505.576	10665.31
505.779	10610.01
505.982	10376.55
506.185	10974.55
506.387	11150.68
506.59	11111.77
506.793	11748.68
506.996	11435.35
507.198	12074.31
507.401	11973.96
507.604	12256.58
507.807	12369.22
508.009	12768.57
508.212	12875.07
508.415	13092.15
508.617	13452.59
508.82	13540.66
509.022	13767.98
509.225	14210.34
509.428	14427.43
509.63	14712.1
509.833	14624.03
510.035	15660.31
510.238	15379.73
510.44	15631.63
510.643	16563.46
510.845	16880.89
511.048	17095.93
511.25	17491.19
511.453	17812.72
511.655	18386.15
511.858	18431.21
512.06	19145.95
512.262	19221.72
512.465	19748.05
512.667	19838.16
512.87	20436.17
513.072	20747.46
513.274	21808.31
513.477	22226.09
513.679	22801.57
513.881	22879.39
514.084	23501.98
514.286	23782.55
514.488	24495.24
514.69	25410.68
514.893	25533.56
515.095	26072.18
515.297	26477.68
515.499	26756.2
515.701	27704.41
515.904	28415.05
516.106	28965.96
516.308	29404.22
516.51	29996.09
516.712	29914.17
516.914	30798.89
517.116	31687.71
517.318	32306.2
517.52	32758.8
517.722	33047.56
517.925	34046.97
518.127	34780.14
518.329	35019.75
518.531	35316.71
518.733	36058.07
518.935	36682.7
519.136	37215.18
519.338	38185.91
519.54	38435.77
519.742	38935.47
519.944	39019.44
520.146	40192.92
520.348	40766.35
520.55	41393.03
520.752	41413.51
520.954	42554.23
521.155	41866.11
521.357	42980.21
521.559	43432.81
521.761	44464.99
521.963	44321.63
522.164	44542.81
522.366	45103.95
522.568	45734.73
522.77	46099.26
522.971	46332.73
523.173	46125.89
523.375	46865.2
523.576	47168.3
523.778	46756.66
523.98	47690.54
524.181	47751.98
524.383	48083.75
524.584	48374.56
524.786	48319.26
524.988	47846.18
525.189	48593.69
525.391	49208.08
525.592	48896.79
525.794	48560.92
525.995	48390.94
526.197	48481.05
526.398	48720.66
526.6	48161.57
526.801	48153.38
527.003	48261.92
527.204	47809.32
527.406	47835.94
527.607	47803.17
527.808	48192.29
528.01	46422.84
528.211	47127.34
528.412	47297.33
528.614	46723.9
528.815	46496.57
529.016	46390.08
529.218	45323.08
529.419	45521.74
529.62	44450.65
529.822	44043.1
530.023	44012.38
530.224	43967.33
530.425	43217.77
530.626	42521.46
530.828	42173.31
531.029	42347.39
531.23	41208.72
531.431	40846.22
531.632	40569.75
531.833	40201.11
532.035	40027.04
532.236	39076.78
532.437	39152.55
532.638	38300.6
532.839	37946.3
533.04	37579.71
533.241	37090.25
533.442	37129.16
533.643	36174.81
533.844	35556.32
534.045	35343.33
534.246	34501.62
534.447	34448.37
534.648	33821.69
534.849	33698.81
535.05	33063.94
535.251	32492.56
535.451	32244.76
535.652	31865.88
535.853	31286.31
536.054	30891.05
536.255	30678.06
536.456	29860.92
536.657	29566.01
536.857	29467.71
537.058	28744.78
537.259	28480.59
537.46	28386.38
537.66	27438.17
537.861	27561.05
538.062	27190.37
538.263	26573.93
538.463	26287.21
538.664	26299.5
538.865	25732.22
539.065	25793.65
539.266	24921.22
539.466	25015.43
539.667	24138.9
539.868	24460.43
540.068	24013.97
540.269	23690.39
540.469	23497.88
540.67	23067.81
540.87	22844.58
541.071	22406.31
541.271	22398.12
541.472	22004.91
541.672	21638.33
541.873	21609.65
542.073	21030.08
542.274	21554.36
542.474	20606.15
542.675	20602.05
542.875	20405.45
543.075	20208.84
543.276	19705.04
543.476	19780.82
543.676	19719.38
543.877	19371.22
544.077	19178.72
544.277	19053.79
544.478	18523.37
544.678	18459.88
544.878	18203.88
545.078	18083.05
545.279	17878.26
545.479	17542.39
545.679	17407.22
545.879	17437.94
546.079	17091.84
546.28	16766.21
546.48	16526.6
546.68	16491.78
546.88	16293.13
547.08	16086.28
547.28	16108.81
547.48	15578.39
547.68	15811.85
547.88	15441.17
548.081	15316.25
548.281	14892.32
548.481	15074.59
548.681	14468.39
548.881	14515.49
549.081	14257.45
549.28	14052.65
549.48	13956.4
549.68	13641.01
549.88	13727.02
550.08	13165.88
550.28	13208.89
550.48	13143.35
550.68	12989.75
550.88	12744
551.08	12416.32
551.279	12268.87
551.479	12059.98
551.679	12113.22
551.879	11738.44
552.079	11709.77
552.278	11513.17
552.478	11531.6
552.678	11175.25
552.878	11091.29
553.077	10898.78
553.277	10446.18
553.477	10540.38
553.676	10413.41
553.876	10345.83
554.076	9956.71
554.275	9878.89
554.475	9590.13
554.674	9704.81
554.874	9563.5
555.074	9106.81
555.273	9137.52
555.473	9014.65
555.672	8826.23
555.872	8768.89
556.071	8510.85
556.271	8658.3
556.47	8482.17
556.67	8064.39
556.869	8091.01
557.068	7847.3
557.268	7728.52
557.467	7656.84
557.667	7562.64
557.866	7345.55
558.065	7130.52
558.265	7103.89
558.464	7009.69
558.663	7144.85
558.863	6753.69
559.062	6782.36
559.261	6653.34
559.461	6575.52
559.66	6380.96
559.859	6243.74
560.058	6409.63
560.258	6124.96
560.457	5952.93
560.656	6018.47
560.855	5600.68
561.054	5766.57
561.253	5711.27
561.453	5672.36
561.652	5440.94
561.851	5625.26
562.05	5404.08
562.249	5098.93
562.448	5186.99
562.647	4914.61
562.846	4879.8
563.045	4965.81
563.244	4859.32
563.443	4896.18
563.642	4634.04
563.841	4795.83
564.04	4566.46
564.239	4652.47
564.438	4484.54
564.637	4335.04
564.836	4519.36
565.035	4300.22
565.234	4220.35
565.432	4193.73
565.631	4097.47
565.83	4156.86
566.029	3827.14
566.228	3990.98
566.427	4033.99
566.625	3696.07
566.824	3782.09
567.023	3777.99
567.222	3730.89
567.42	3657.16
567.619	3648.97
567.818	3489.23
568.016	3579.34
568.215	3548.62
568.414	3472.84
568.612	3376.59
568.811	3245.52
569.01	3296.72
569.208	3184.08
569.407	3364.3
569.605	3036.63
569.804	3096.02
570.002	3055.06
570.201	3059.15
570.4	2921.94
570.598	2919.89
570.797	2786.77
570.995	2688.47
571.193	2612.7
571.392	2704.85
571.59	2594.26
571.789	2835.92
571.987	2647.51
572.186	2672.09
572.384	2498.01
572.582	2532.83
572.781	2581.98
572.979	2455
573.177	2399.71
573.376	2385.37
573.574	2266.59
573.772	2287.07
573.971	2063.84
574.169	2221.53
574.367	2156
574.565	2186.72
574.763	2153.95
574.962	2139.62
575.16	1992.16
575.358	2039.26
575.556	2006.5
575.754	2055.65
575.952	1916.39
576.151	1975.78
576.349	1955.3
576.547	1719.78
576.745	1801.7
576.943	1953.25
577.141	1764.84
577.339	1570.28
577.537	1746.41
577.735	1758.69
577.933	1560.04
578.131	1596.9
578.329	1721.83
578.527	1607.14
578.725	1623.53
578.923	1525.22
579.121	1601
579.319	1330.67
579.516	1402.35
579.714	1680.87
579.912	1521.13
580.11	1340.91
580.308	1443.31
580.506	1377.77
580.704	1138.16
580.901	1328.62
581.099	1314.28
581.297	1312.24
581.495	1322.48
581.692	1166.83
581.89	1312.24
582.088	1240.56
582.285	1160.69
582.483	1172.97
582.681	1222.13
582.878	1209.84
583.076	1162.73
583.274	1119.73
583.471	1246.7
583.669	1082.86
583.866	1007.09
584.064	1052.14
584.262	990.7
584.459	912.88
584.657	1023.47
584.854	1097.2
585.052	959.99
585.249	1064.43
585.447	1033.71
585.644	878.07
585.841	970.23
586.039	988.66
586.236	953.84
586.434	865.78
586.631	757.24
586.828	873.97
587.026	880.11
587.223	802.29
587.42	900.59
587.618	857.59
587.815	953.84
588.012	724.47
588.21	642.55
588.407	869.87
588.604	802.29
588.801	767.48
588.999	843.25
589.196	810.48
589.393	691.7
589.59	767.48
589.787	714.23
589.984	802.29
590.182	865.78
590.379	654.84
590.576	683.51
590.773	703.99
590.97	740.85
591.167	706.04
591.364	755.19
591.561	656.89
591.758	804.34
591.955	740.85
592.152	747
592.349	720.37
592.546	691.7
592.743	642.55
592.94	730.61
593.137	628.21
593.334	730.61
593.531	687.61
593.727	738.8
593.924	640.5
594.121	781.81
594.318	693.75
594.515	720.37
594.712	771.57
594.908	802.29
595.105	675.32
595.302	697.85
595.499	787.96
595.696	865.78
595.892	665.08
596.089	871.92
596.286	828.92
596.482	964.08
596.679	816.63
596.876	898.55
597.072	916.98
597.269	927.22
597.466	896.5
597.662	941.55
597.859	939.51
598.055	964.08
598.252	1005.04
598.448	1117.68
598.645	1175.02
598.841	1082.86
599.038	1256.94
599.234	1224.17
599.431	1299.95
599.627	1347.05
599.824	1357.29
600.02	1379.82
600.217	1512.94
600.413	1496.55
600.609	1551.85
600.806	1932.77
601.002	1666.53
601.198	1674.73
601.395	1811.94
601.591	1875.43
601.787	1943.01
601.984	2119.14
602.18	2055.65
602.376	2164.19
602.572	2313.69
602.769	2354.65
602.965	2432.47
603.161	2657.75
603.357	2581.98
603.553	2684.38
603.75	2700.76
603.946	2815.45
604.142	2989.52
604.338	3147.22
604.534	3036.63
604.73	3321.29
604.926	3263.95
605.122	3554.76
605.318	3532.23
605.514	3810.76
605.71	3722.7
605.906	3966.4
606.102	4036.03
606.298	4320.7
606.494	4320.7
606.69	4646.33
606.886	4443.58
607.082	4629.95
607.278	4812.21
607.474	4908.47
607.67	5133.75
607.866	5160.37
608.062	5240.24
608.257	5592.49
608.453	5649.83
608.649	5850.53
608.845	5694.89
609.041	6073.76
609.236	6350.24
609.432	6335.9
609.628	6790.55
609.824	6690.2
610.019	6823.32
610.215	7206.29
610.411	7404.94
610.606	7697.8
610.802	7835.02
610.998	7972.23
611.193	8113.54
611.389	8344.96
611.584	8736.12
611.78	8756.6
611.976	9227.64
612.171	9424.24
612.367	9512.3
612.562	9747.82
612.758	9936.23
612.953	10040.68
613.149	10624.35
613.344	10741.08
613.539	11289.94
613.735	11267.41
613.93	11820.36
614.126	11904.33
614.321	12479.81
614.517	12787
614.712	13163.83
614.907	13358.39
615.103	13767.98
615.298	13829.42
615.493	14464.29
615.688	14497.06
615.884	15187.22
616.079	15408.4
616.274	15828.24
616.47	16119.05
616.665	16510.21
616.86	16884.99
617.055	17380.6
617.25	18105.58
617.445	18255.08
617.641	18562.28
617.836	19344.6
618.031	19129.56
618.226	20477.13
618.421	20323.53
618.616	21079.23
618.811	21359.8
619.006	22230.19
619.201	22150.32
619.396	23065.76
619.591	23389.34
619.786	24294.54
619.981	24292.49
620.176	25089.15
620.371	25191.55
620.566	25853.05
620.761	26492.01
620.956	27212.9
621.151	27294.82
621.346	28324.94
621.541	28343.38
621.735	29576.25
621.93	29129.8
622.125	30334
622.32	30250.03
622.515	31370.27
622.709	31398.94
622.904	32381.97
623.099	32775.18
623.294	33664
623.488	33965.05
623.683	34477.04
623.878	34788.33
624.072	35834.85
624.267	36078.55
624.462	36826.06
624.656	36805.58
624.851	37778.37
625.046	38136.76
625.24	38867.89
625.435	39125.93
625.629	40225.69
625.824	40450.97
626.018	40756.11
626.213	40973.2
626.407	41884.54
626.602	41610.12
626.796	42632.05
626.991	42820.47
627.185	43311.98
627.38	43293.55
627.574	43744.1
627.768	43721.57
627.963	44295
628.157	44000.1
628.352	44825.43
628.546	44192.61
628.74	44860.24
628.935	44411.74
629.129	44315.48
629.323	44039.01
629.517	44204.89
629.712	44116.83
629.906	43735.91
630.1	42572.66
630.294	42822.51
630.489	42052.48
630.683	41685.89
630.877	40901.52
631.071	40491.93
631.265	39508.9
631.459	39154.6
631.653	38202.3
631.848	37385.16
632.042	36324.31
632.236	35687.39
632.43	34821.1
632.624	34175.99
632.818	32797.71
633.012	31700
633.206	31073.32
633.4	30075.96
633.594	28587.08
633.788	28144.72
633.982	27270.24
634.176	26045.55
634.369	24867.97
634.563	24405.13
634.757	23104.67
634.951	22645.93
635.145	21687.48
635.339	20712.64
635.533	19707.09
635.726	19301.59
635.92	18050.28
636.114	17816.82
636.308	17007.87
636.501	16162.06
636.695	15813.9
636.889	14830.88
637.083	14361.89
637.276	13600.05
637.47	13010.23
637.664	12604.74
637.857	12164.42
638.051	11631.95
638.244	11328.85
638.438	10786.14
638.632	10323.3
638.825	9887.08
639.019	9600.37
639.212	9166.2
639.406	8676.73
639.599	8398.21
639.793	8230.27
639.986	7814.54
640.18	7595.4
640.373	7257.49
640.567	6878.62
640.76	6663.58
640.954	6466.97
641.147	5957.03
641.34	5789.1
641.534	5731.75
641.727	5516.72
641.92	5324.21
642.114	5070.26
642.307	4830.65
642.5	4771.26
642.694	4468.16
642.887	4416.96
643.08	4269.5
643.273	4115.91
643.467	3898.82
643.66	3601.87
643.853	3497.42
644.046	3491.27
644.239	3315.15
644.432	3134.93
644.626	2905.56
644.819	3003.86
645.012	2960.85
645.205	2848.21
645.398	2678.23
645.591	2553.31
645.784	2452.95
645.977	2242.01
646.17	2239.97
646.363	2309.6
646.556	2012.64
646.749	2043.36
646.942	2004.45
647.135	1940.96
647.328	1764.84
647.521	1787.36
647.714	1648.1
647.907	1607.14
648.099	1420.78
648.292	1584.62
648.485	1476.07
648.678	1402.35
648.871	1310.19
649.064	1320.43
649.256	1191.41
649.449	1060.34
649.642	1086.96
649.835	1052.14
650.027	1158.64
650.22	1048.05
650.413	957.94
650.605	1021.42
650.798	970.23
650.991	867.83
651.183	902.64
651.376	771.57
651.568	845.3
651.761	755.19
651.954	810.48
652.146	701.94
652.339	769.52
652.531	759.28
652.724	648.69
652.916	656.89
653.109	488.95
653.301	683.51
653.494	626.17
653.686	550.39
653.879	611.83
654.071	542.2
654.263	558.58
654.456	505.34
654.648	617.97
654.84	611.83
655.033	503.29
655.225	624.12
655.417	364.03
655.61	505.34
655.802	460.28
655.994	517.62
656.186	400.89
656.379	439.8
656.571	353.79
656.763	378.36
656.955	368.12
657.148	343.55
657.34	425.47
657.532	339.45
657.724	318.97
657.916	411.13
658.108	447.99
658.3	366.07
658.492	474.62
658.684	253.44
658.876	294.4
659.068	239.1
659.26	251.39
659.452	214.52
659.644	275.96
659.836	366.07
660.028	278.01
660.22	280.06
660.412	194.05
660.604	243.2
660.796	202.24
660.988	325.12
661.18	224.76
661.372	210.43
661.563	210.43
661.755	249.34
661.947	136.7
662.139	153.09
662.331	247.29
662.522	241.15
662.714	153.09
662.906	177.66
663.097	173.57
663.289	126.46
663.481	177.66
663.673	198.14
663.864	194.05
664.056	189.95
664.247	105.98
664.439	253.44
664.631	214.52
664.822	220.67
665.014	132.61
665.205	124.41
665.397	194.05
665.588	167.42
665.78	212.48
665.971	214.52
666.163	144.89
666.354	257.53
666.546	185.85
666.737	103.93
666.929	101.89
667.12	128.51
667.311	167.42
667.503	136.7
667.694	120.32
667.885	136.7
668.077	126.46
668.268	13.82
668.459	155.13
668.651	169.47
668.842	175.61
669.033	110.08
669.224	-23.04
669.416	298.49
669.607	75.26
669.798	34.3
669.989	206.33
670.18	175.61
670.371	187.9
670.563	67.07
670.754	220.67
670.945	189.95
671.136	239.1
671.327	136.7
671.518	144.89
671.709	161.28
671.9	124.41
672.091	185.85
672.282	153.09
672.473	171.52
672.664	132.61
672.855	161.28
673.046	208.38
673.237	161.28
673.428	224.76
673.619	161.28
673.809	71.17
674	183.81
674.191	218.62
674.382	153.09
674.573	210.43
674.764	146.94
674.954	204.28
675.145	97.79
675.336	40.45
675.527	103.93
675.717	87.55
675.908	146.94
676.099	19.97
676.289	159.23
676.48	73.21
676.671	95.74
676.861	79.36
677.052	65.02
677.243	108.03
677.433	62.98
677.624	208.38
677.814	99.84
678.005	89.6
678.195	232.96
678.386	3.58
678.576	124.41
678.767	48.64
678.957	155.13
679.148	134.65
679.338	271.87
679.529	196.09
679.719	62.98
679.909	189.95
680.1	245.24
680.29	208.38
680.481	103.93
680.671	159.23
680.861	155.13
681.052	77.31
681.242	91.65
681.432	153.09
681.622	116.22
681.813	58.88
682.003	161.28
682.193	42.5
682.383	140.8
682.573	208.38
682.764	146.94
682.954	105.98
683.144	271.87
683.334	108.03
683.524	171.52
683.714	153.09
683.904	216.57
684.094	122.37
684.284	132.61
684.474	312.83
684.664	263.68
684.854	200.19
685.044	189.95
685.234	169.47
685.424	146.94
685.614	95.74
685.804	271.87
685.994	183.81
686.184	159.23
686.374	202.24
686.564	163.33
686.753	194.05
686.943	126.46
687.133	126.46
687.323	136.7
687.513	177.66
687.702	161.28
687.892	142.85
688.082	136.7
688.272	177.66
688.461	181.76
688.651	245.24
688.841	292.35
689.03	124.41
689.22	161.28
689.41	208.38
689.599	108.03
689.789	200.19
689.979	308.73
690.168	175.61
690.358	337.4
690.547	198.14
690.737	194.05
690.926	183.81
691.116	206.33
691.305	177.66
691.495	210.43
691.684	67.07
691.874	62.98
692.063	165.37
692.252	200.19
692.442	241.15
692.631	85.5
692.82	177.66
693.01	153.09
693.199	116.22
693.388	179.71
693.578	173.57
693.767	232.96
693.956	263.68
694.146	132.61
694.335	200.19
694.524	128.51
694.713	249.34
694.902	91.65
695.092	79.36
695.281	226.81
695.47	179.71
695.659	165.37
695.848	192
696.037	95.74
696.226	288.25
696.415	153.09
696.604	247.29
696.793	214.52
696.982	161.28
697.171	210.43
697.36	175.61
697.549	183.81
697.738	75.26
697.927	112.13
698.116	62.98
698.305	251.39
698.494	144.89
698.683	118.27
698.872	269.82
699.061	105.98
699.25	179.71
699.438	153.09
699.627	101.89
699.816	267.77
700.005	71.17
700.193	148.99
700.382	232.96
700.571	122.37
700.76	157.18
700.948	331.26
701.137	222.72
701.326	228.86
701.514	87.55
701.703	210.43
701.892	91.65
702.08	314.88
702.269	144.89
702.457	173.57
702.646	245.24
702.834	108.03
703.023	198.14
703.212	237.05
703.4	124.41
703.589	122.37
703.777	75.26
703.965	97.79
704.154	148.99
704.342	75.26
704.531	138.75
704.719	144.89
704.907	226.81
705.096	120.32
705.284	132.61
705.472	163.33
705.661	230.91
705.849	153.09
706.037	265.72
706.226	179.71
706.414	214.52
706.602	181.76
706.79	187.9
706.979	153.09
707.167	216.57
707.355	62.98
707.543	163.33
707.731	230.91
707.919	138.75
708.107	192
708.296	36.35
708.484	105.98
708.672	214.52
708.86	181.76
709.048	108.03
709.236	146.94
709.424	214.52
709.612	214.52
709.8	48.64
709.988	189.95
710.176	232.96
710.364	206.33
710.551	161.28
710.739	122.37
710.927	175.61
711.115	148.99
711.303	273.92
711.491	261.63
711.679	130.56
711.866	169.47
712.054	77.31
712.242	171.52
712.43	210.43
712.617	142.85
712.805	208.38
712.993	200.19
713.181	50.69
713.368	204.28
713.556	179.71
713.744	181.76
713.931	351.74
714.119	206.33
714.306	118.27
714.494	189.95
714.682	110.08
714.869	36.35
715.057	144.89
715.244	50.69
715.432	179.71
715.619	120.32
715.807	165.37
715.994	142.85
716.182	146.94
716.369	241.15
716.556	259.58
716.744	118.27
716.931	79.36
717.119	204.28
717.306	163.33
717.493	218.62
717.681	71.17
717.868	169.47
718.055	183.81
718.242	153.09
718.43	214.52
718.617	220.67
718.804	159.23
718.991	261.63
719.179	171.52
719.366	226.81
719.553	239.1
719.74	185.85
719.927	155.13
720.114	175.61
720.301	204.28
720.488	62.98
720.676	181.76
720.863	222.72
721.05	349.69
721.237	103.93
721.424	306.68
721.611	255.48
721.798	146.94
721.985	120.32
722.172	87.55
722.358	132.61
722.545	259.58
722.732	206.33
722.919	239.1
723.106	245.24
723.293	177.66
723.48	218.62
723.667	132.61
723.853	200.19
724.04	103.93
724.227	202.24
724.414	175.61
724.6	187.9
724.787	241.15
724.974	253.44
725.161	112.13
725.347	153.09
725.534	192
725.72	239.1
725.907	298.49
726.094	284.16
726.28	175.61
726.467	140.8
726.653	148.99
726.84	366.07
727.027	255.48
727.213	200.19
727.4	232.96
727.586	214.52
727.773	187.9
727.959	140.8
728.145	259.58
728.332	216.57
728.518	210.43
728.705	351.74
728.891	161.28
729.077	210.43
729.264	196.09
729.45	204.28
729.636	298.49
729.823	212.48
730.009	249.34
730.195	181.76
730.382	318.97
730.568	134.65
730.754	185.85
730.94	253.44
731.126	210.43
731.313	202.24
731.499	148.99
731.685	255.48
731.871	204.28
732.057	155.13
732.243	226.81
732.429	271.87
732.615	382.46
732.801	214.52
732.987	208.38
733.173	241.15
733.359	202.24
733.545	232.96
733.731	192
733.917	337.4
734.103	284.16
734.289	243.2
734.475	171.52
734.661	386.55
734.847	265.72
735.033	212.48
735.219	282.11
735.404	173.57
735.59	173.57
735.776	210.43
735.962	216.57
736.148	282.11
736.333	241.15
736.519	210.43
736.705	120.32
736.89	222.72
737.076	261.63
737.262	148.99
737.447	202.24
737.633	222.72
737.819	310.78
738.004	142.85
738.19	194.05
738.375	204.28
738.561	261.63
738.747	185.85
738.932	58.88
739.118	278.01
739.303	245.24
739.489	259.58
739.674	251.39
739.859	161.28
740.045	243.2
740.23	210.43
740.416	142.85
740.601	157.18
740.786	200.19
740.972	208.38
741.157	93.69
741.342	153.09
741.528	173.57
741.713	224.76
741.898	196.09
742.084	284.16
742.269	226.81
742.454	269.82
742.639	337.4
742.824	165.37
743.01	314.88
743.195	386.55
743.38	181.76
743.565	185.85
743.75	235
743.935	306.68
744.12	296.44
744.305	202.24
744.49	194.05
744.675	165.37
744.86	175.61
745.045	318.97
745.23	296.44
745.415	173.57
745.6	333.31
745.785	194.05
745.97	290.3
746.155	224.76
746.34	280.06
746.525	314.88
746.71	325.12
746.895	101.89
747.079	97.79
747.264	130.56
747.449	183.81
747.634	247.29
747.819	196.09
748.003	146.94
748.188	97.79
748.373	232.96
748.557	212.48
748.742	280.06
748.927	144.89
749.111	128.51
749.296	202.24
749.481	222.72
749.665	187.9
749.85	110.08
750.034	241.15
750.219	210.43
750.404	118.27
750.588	222.72
750.773	128.51
750.957	222.72
751.141	171.52
751.326	73.21
751.51	118.27
751.695	181.76
751.879	151.04
752.064	284.16
752.248	144.89
752.432	310.78
752.617	163.33
752.801	192
752.985	120.32
753.17	237.05
753.354	189.95
753.538	153.09
753.722	79.36
753.907	134.65
754.091	65.02
754.275	198.14
754.459	108.03
754.643	220.67
754.828	148.99
755.012	189.95
755.196	77.31
755.38	167.42
755.564	120.32
755.748	146.94
755.932	142.85
756.116	148.99
756.3	230.91
756.484	114.17
756.668	224.76
756.852	65.02
757.036	161.28
757.22	130.56
757.404	67.07
757.588	91.65
757.772	189.95
757.956	118.27
758.14	292.35
758.323	87.55
758.507	208.38
758.691	122.37
758.875	235
759.059	196.09
759.242	65.02
759.426	77.31
759.61	128.51
759.794	85.5
759.977	210.43
760.161	343.55
760.345	151.04
760.528	163.33
760.712	142.85
760.895	118.27
761.079	38.4
761.263	73.21
761.446	17.92
761.63	67.07
761.813	189.95
761.997	24.06
762.18	52.74
762.364	140.8
762.547	-0.51
762.731	118.27
762.914	89.6
763.098	32.26
763.281	144.89
763.464	108.03
763.648	101.89
763.831	67.07
764.015	56.83
764.198	187.9
764.381	38.4
764.564	151.04
764.748	85.5
764.931	144.89
765.114	103.93
765.297	194.05
765.481	62.98
765.664	85.5
765.847	46.59
766.03	169.47
766.213	46.59
766.397	140.8
766.58	22.02
766.763	91.65
766.946	-43.52
767.129	118.27
767.312	-4.61
767.495	128.51
767.678	65.02
767.861	81.41
768.044	108.03
768.227	87.55
768.41	77.31
768.593	116.22
768.776	105.98
768.959	73.21
769.142	103.93
769.324	85.5
769.507	71.17
769.69	-18.94
769.873	124.41
770.056	237.05
770.239	36.35
770.421	122.37
770.604	122.37
770.787	103.93
770.97	79.36
771.152	7.68
771.335	75.26
771.518	-2.56
771.7	103.93
771.883	222.72
772.066	42.5
772.248	134.65
772.431	126.46
772.613	122.37
772.796	42.5
772.978	54.78
773.161	208.38
773.343	28.16
773.526	-4.61
773.708	5.63
773.891	5.63
774.073	79.36
774.256	46.59
774.438	196.09
774.621	79.36
774.803	95.74
774.985	56.83
775.168	130.56
775.35	-4.61
775.532	157.18
775.715	85.5
775.897	85.5
776.079	48.64
776.261	87.55
776.444	13.82
776.626	99.84
776.808	60.93
776.99	5.63
777.173	91.65
777.355	34.3
777.537	112.13
777.719	50.69
777.901	42.5
778.083	60.93
778.265	11.78
778.447	126.46
778.629	48.64
778.811	99.84
778.993	153.09
779.175	91.65
779.357	58.88
779.539	-20.99
779.721	32.26
779.903	28.16
780.085	77.31
780.267	30.21
780.449	46.59
780.631	89.6
780.812	153.09
780.994	108.03
781.176	67.07
781.358	36.35
781.54	77.31
781.721	103.93
781.903	89.6
782.085	52.74
782.267	128.51
782.448	-2.56
782.63	-76.29
782.812	122.37
782.993	163.33
783.175	56.83
783.357	83.45
783.538	22.02
783.72	9.73
783.901	56.83
784.083	44.54
784.264	9.73
784.446	-23.04
784.627	19.97
784.809	77.31
784.99	-23.04
785.172	11.78
785.353	11.78
785.535	56.83
785.716	65.02
785.897	-0.51
786.079	60.93
786.26	101.89
786.441	142.85
786.623	-74.24
786.804	-39.42
786.985	-64
787.167	11.78
787.348	44.54
787.529	19.97
787.71	206.33
787.891	95.74
788.073	-20.99
788.254	52.74
788.435	159.23
788.616	1.54
788.797	11.78
788.978	50.69
789.159	-66.05
789.34	15.87
789.522	116.22
789.703	-29.18
789.884	73.21
790.065	54.78
790.246	122.37
790.427	36.35
790.607	120.32
790.788	56.83
790.969	1.54
791.15	87.55
791.331	50.69
791.512	-2.56
791.693	3.58
791.874	73.21
792.054	237.05
792.235	112.13
792.416	-25.09
792.597	-111.1
792.778	71.17
792.958	58.88
793.139	-16.9
793.32	-16.9
793.5	-59.9
793.681	142.85
793.862	101.89
794.042	54.78
794.223	-68.09
794.404	-8.7
794.584	1.54
794.765	-37.38
794.945	52.74
795.126	54.78
795.306	126.46
795.487	46.59
795.667	-10.75
795.848	105.98
796.028	-37.38
796.209	91.65
796.389	13.82
796.57	11.78
796.75	-47.62
796.93	-18.94
797.111	-20.99
797.291	-0.51
797.471	146.94
797.652	-27.14
797.832	-35.33
798.012	124.41
798.192	-49.66
798.373	-82.43
798.553	7.68
798.733	56.83
798.913	-6.66
799.093	19.97
799.274	-66.05
799.454	79.36
799.634	77.31
799.814	54.78
799.994	15.87
800.174	54.78
800.354	15.87
800.534	19.97
800.714	-20.99
800.894	-8.7
801.074	-27.14
801.254	-14.85
801.434	167.42
801.614	-29.18
801.794	-4.61
801.974	1529.32
802.154	9.73
802.334	71.17
802.514	-90.62
802.693	40.45
802.873	-25.09
803.053	50.69
803.233	36.35
803.413	-25.09
803.592	-92.67
803.772	38.4
803.952	17.92
804.131	-29.18
804.311	9.73
804.491	19.97
804.67	28.16
804.85	-8.7
805.03	9.73
805.209	112.13
805.389	-37.38
805.568	5.63
805.748	-8.7
805.928	65.02
806.107	75.26
806.287	67.07
806.466	58.88
806.646	-45.57
806.825	91.65
807.004	-8.7
807.184	3.58
807.363	28.16
807.543	28.16
807.722	-68.09
807.901	101.89
808.081	42.5
808.26	-76.29
808.439	9.73
808.619	-25.09
808.798	-29.18
808.977	13.82
809.156	112.13
809.336	34.3
809.515	116.22
809.694	-43.52
809.873	-29.18
810.052	42.5
810.231	81.41
810.411	65.02
810.59	26.11
810.769	-10.75
810.948	38.4
811.127	-86.53
811.306	-27.14
811.485	42.5
811.664	103.93
811.843	-0.51
812.022	38.4
812.201	-10.75
812.38	-18.94
812.559	-8.7
812.737	38.4
812.916	-47.62
813.095	36.35
813.274	99.84
813.453	-10.75
813.632	-0.51
813.811	15.87
813.989	-74.24
814.168	-16.9
814.347	-53.76
814.526	5.63
814.704	101.89
814.883	122.37
815.062	-66.05
815.24	32.26
815.419	-70.14
815.598	42.5
815.776	-94.72
815.955	42.5
816.133	-94.72
816.312	-10.75
816.49	-29.18
816.669	-82.43
816.847	-25.09
817.026	-12.8
817.204	-49.66
817.383	-12.8
817.561	-12.8
817.74	-2.56
817.918	11.78
818.097	-131.58
818.275	5.63
818.453	32.26
818.632	42.5
818.81	-0.51
818.988	58.88
819.167	5.63
819.345	26.11
819.523	-14.85
819.701	26.11
819.879	30.21
820.058	-43.52
820.236	58.88
820.414	85.5
820.592	-68.09
820.77	-27.14
820.948	38.4
821.127	17.92
821.305	54.78
821.483	-6.66
821.661	58.88
821.839	-6.66
822.017	-82.43
822.195	-10.75
822.373	75.26
822.551	42.5
822.729	17.92
822.907	-14.85
823.085	32.26
823.262	26.11
823.44	-31.23
823.618	-45.57
823.796	-16.9
823.974	-0.51
824.152	-6.66
824.329	-14.85
824.507	-8.7
824.685	-18.94
824.863	-123.39
825.04	28.16
825.218	42.5
825.396	28.16
825.574	48.64
825.751	38.4
825.929	71.17
826.107	-53.76
826.284	56.83
826.462	38.4
826.639	-123.39
826.817	-27.14
826.994	7.68
827.172	1.54
827.349	81.41
827.527	3.58
827.704	32.26
827.882	69.12
828.059	28.16
828.237	-29.18
828.414	1.54
828.591	-86.53
828.769	56.83
828.946	-47.62
829.124	85.5
829.301	89.6
829.478	-74.24
829.655	60.93
829.833	32.26
830.01	-98.81
830.187	101.89
830.364	22.02
830.542	79.36
830.719	38.4
830.896	93.69
831.073	40.45
831.25	46.59
831.427	65.02
831.604	-45.57
831.782	95.74
831.959	142.85
832.136	-0.51
832.313	40.45
832.49	3.58
832.667	26.11
832.844	-33.28
833.021	116.22
833.198	81.41
833.374	36.35
833.551	-27.14
833.728	9.73
833.905	22.02
834.082	-72.19
834.259	108.03
834.436	67.07
834.612	-6.66
834.789	95.74
834.966	-49.66
835.143	-14.85
835.319	-82.43
835.496	118.27
835.673	46.59
835.85	83.45
836.026	24.06
836.203	32.26
836.38	28.16
836.556	34.3
836.733	-66.05
836.909	122.37
837.086	3.58
837.262	-88.57
837.439	-12.8
837.616	-86.53
837.792	30.21
837.968	26.11
838.145	-80.38
838.321	-68.09
838.498	56.83
838.674	-8.7
838.851	87.55
839.027	-49.66
839.203	54.78
839.38	83.45
839.556	48.64
839.732	56.83
839.909	-18.94
840.085	-16.9
840.261	-92.67
840.437	44.54
840.614	-10.75
840.79	13.82
840.966	71.17
841.142	-8.7
841.318	-119.29
841.494	-14.85
841.671	81.41
841.847	1.54
842.023	-84.48
842.199	58.88
842.375	120.32
842.551	-82.43
842.727	-57.86
842.903	157.18
843.079	-39.42
843.255	151.04
843.431	-57.86
843.607	13.82
843.783	-107.01
843.959	52.74
844.134	-72.19
844.31	130.56
844.486	-51.71
844.662	-35.33
844.838	-4.61
845.013	69.12
845.189	108.03
845.365	-35.33
845.541	-12.8
845.716	30.21
845.892	87.55
846.068	-53.76
846.244	-33.28
846.419	50.69
846.595	-86.53
846.77	-2.56
846.946	60.93
847.122	-12.8
847.297	-49.66
847.473	73.21
847.648	-84.48
847.824	-47.62
847.999	-123.39
848.175	3.58
848.35	-0.51
848.526	173.57
848.701	136.7
848.876	28.16
849.052	42.5
849.227	13.82
849.403	-31.23
849.578	-16.9
849.753	79.36
849.929	15.87
850.104	-12.8
850.279	1.54
850.454	-14.85
850.63	89.6
850.805	42.5
850.98	-27.14
851.155	-61.95
851.33	65.02
851.505	-33.28
851.681	140.8
851.856	9.73
852.031	75.26
852.206	3.58
852.381	-70.14
852.556	-41.47
852.731	24.06
852.906	-2.56
853.081	62.98
853.256	42.5
853.431	-4.61
853.606	-43.52
853.781	-27.14
853.956	-117.25
854.131	7.68
854.305	3.58
854.48	15.87
854.655	-27.14
854.83	-25.09
855.005	-20.99
855.18	54.78
855.354	-80.38
855.529	-2.56
855.704	15.87
855.879	38.4
856.053	-76.29
856.228	-10.75
856.403	-129.53
856.577	73.21
856.752	-41.47
856.926	15.87
857.101	-4.61
857.276	-121.34
857.45	13.82
857.625	62.98
857.799	-20.99
857.974	-37.38
858.148	-43.52
858.323	-8.7
858.497	-51.71
858.672	24.06
858.846	-6.66
859.02	67.07
859.195	-39.42
859.369	-20.99
859.543	-20.99
859.718	-12.8
859.892	17.92
860.066	97.79
860.241	-8.7
860.415	26.11
860.589	42.5
860.763	-100.86
860.938	-55.81
861.112	75.26
861.286	19.97
861.46	-4.61
861.634	46.59
861.808	65.02
861.982	5.63
862.157	-127.49
862.331	19.97
862.505	-84.48
862.679	-90.62
862.853	-47.62
863.027	-33.28
863.201	97.79
863.375	-41.47
863.549	-16.9
863.722	77.31
863.896	136.7
864.07	-29.18
864.244	-29.18
864.418	83.45
864.592	54.78
864.766	73.21
864.939	-14.85
865.113	-16.9
865.287	128.51
865.461	-86.53
865.634	15.87
865.808	46.59
865.982	-51.71
866.156	44.54
866.329	-111.1
866.503	71.17
866.676	62.98
866.85	-10.75
867.024	-98.81
867.197	120.32
867.371	24.06
867.544	-47.62
867.718	-139.77
867.891	89.6
868.065	-78.33
868.238	19.97
868.412	114.17
868.585	-25.09
868.759	-78.33
868.932	-74.24
869.105	-57.86
869.279	5.63
869.452	-88.57
869.625	93.69
869.799	-0.51
869.972	-88.57
870.145	-16.9
870.319	28.16
870.492	-18.94
870.665	-55.81
870.838	-33.28
871.011	-129.53
871.185	42.5
871.358	-6.66
871.531	44.54
871.704	-35.33
871.877	3.58
872.05	11.78
872.223	-115.2
872.396	30.21
872.569	44.54
872.742	-84.48
872.915	-2.56
873.088	-20.99
873.261	-27.14
873.434	79.36
873.607	-129.53
873.78	83.45
873.953	-107.01
874.126	-14.85
874.299	58.88
874.471	26.11
874.644	-16.9
874.817	24.06
874.99	75.26
875.163	-20.99
875.335	60.93
875.508	15.87
875.681	75.26
875.853	-86.53
876.026	5.63
876.199	34.3
876.371	-6.66
876.544	-2.56
876.717	69.12
876.889	34.3
877.062	91.65
877.234	-102.91
877.407	-55.81
877.579	-0.51
877.752	19.97
877.924	54.78
878.097	42.5
878.269	81.41
878.442	3.58
878.614	-4.61
878.786	67.07
878.959	108.03
879.131	28.16
879.303	-111.1
879.476	-33.28
879.648	13.82
879.82	13.82
879.993	46.59
880.165	-72.19
880.337	-139.77
880.509	50.69
880.681	-100.86
880.854	-49.66
881.026	9.73
881.198	128.51
881.37	-14.85
881.542	17.92
881.714	22.02
881.886	-14.85
882.058	22.02
882.23	-51.71
882.402	-2.56
882.574	15.87
882.746	48.64
882.918	60.93
883.09	73.21
883.262	38.4
883.434	-61.95
883.606	-104.96
883.778	-25.09
883.95	71.17
884.122	-37.38
884.293	120.32
884.465	48.64
884.637	77.31
884.809	-35.33
884.98	69.12
885.152	58.88
885.324	11.78
885.496	-104.96
885.667	-10.75
885.839	-14.85
886.011	87.55
886.182	-4.61
886.354	89.6
886.525	-6.66
886.697	-25.09
886.869	-109.05
887.04	-33.28
887.212	67.07
887.383	91.65
887.555	-4.61
887.726	17.92
887.897	-37.38
888.069	3.58
888.24	46.59
888.412	-70.14
888.583	5.63
888.754	30.21
888.926	-55.81
889.097	26.11
889.268	-131.58
889.44	9.73
889.611	-174.59
889.782	-109.05
889.953	-66.05
890.125	85.5
890.296	28.16
890.467	3.58
890.638	-90.62
890.809	-25.09
890.98	-35.33
891.151	46.59
891.323	40.45
891.494	-0.51
891.665	42.5
891.836	48.64
892.007	9.73
892.178	-25.09
892.349	17.92
892.52	-100.86
892.691	42.5
892.862	-92.67
893.032	-127.49
893.203	48.64
893.374	24.06
893.545	110.08
893.716	-37.38
893.887	91.65
894.057	-18.94
894.228	11.78
894.399	-78.33
894.57	97.79
894.74	-37.38
894.911	7.68
895.082	11.78
895.253	-31.23
895.423	24.06
895.594	24.06
895.764	73.21
895.935	-29.18
896.106	28.16
896.276	13.82
896.447	9.73
896.617	-107.01
896.788	-59.9
896.958	17.92
897.129	3.58
897.299	-29.18
897.47	73.21
897.64	62.98
897.81	-27.14
897.981	89.6
898.151	-18.94
898.322	48.64
898.492	-4.61
898.662	-94.72
898.832	-100.86
899.003	-47.62
899.173	17.92
899.343	-47.62
899.513	-29.18
