Data from USB4F104151__160__11-04-42-137.txt Node

Date: Wed Feb 26 11:04:42 EST 2025
User: louis
Spectrometer: USB4F10415
Trigger mode: 4
Integration Time (sec): 1.000000E-1
Scans to average: 1
Electric dark correction enabled: true
Nonlinearity correction enabled: false
Boxcar width: 0
XAxis mode: Wavelengths
Number of Pixels in Spectrum: 3648
>>>>>Begin Spectral Data<<<<<
178.204	-460.45
178.424	-460.45
178.644	-460.45
178.864	-401.06
179.084	-435.88
179.304	12.63
179.524	-26.28
179.744	-34.47
179.964	88.4
180.184	-44.71
180.404	8.53
180.624	31.06
180.844	29.01
181.064	-32.43
181.283	22.87
181.503	-95.91
181.723	41.3
181.943	-77.48
182.163	84.31
182.383	2.39
182.602	51.54
182.822	151.89
183.042	137.56
183.262	-28.33
183.482	35.16
183.701	106.84
183.921	45.4
184.141	-67.24
184.361	119.12
184.58	45.4
184.8	96.6
185.02	-54.95
185.239	80.21
185.459	39.25
185.679	147.8
185.898	-89.77
186.118	88.4
186.338	2.39
186.557	119.12
186.777	-114.34
186.997	39.25
187.216	35.16
187.436	198.99
187.655	76.12
187.875	88.4
188.095	18.77
188.314	123.22
188.534	74.07
188.753	-24.23
188.973	100.69
189.192	125.27
189.412	39.25
189.631	-9.9
189.851	110.93
190.07	133.46
190.29	-83.63
190.509	12.63
190.729	6.49
190.948	137.56
191.168	209.23
191.387	43.35
191.607	-73.39
191.826	92.5
192.045	2.39
192.265	-81.58
192.484	-28.33
192.704	59.73
192.923	4.44
193.142	145.75
193.362	53.59
193.581	98.64
193.8	100.69
194.02	123.22
194.239	24.92
194.458	145.75
194.678	-7.85
194.897	29.01
195.116	43.35
195.335	88.4
195.555	43.35
195.774	-3.75
195.993	172.37
196.212	47.44
196.432	-50.86
196.651	18.77
196.87	-26.28
197.089	147.8
197.308	72.02
197.528	47.44
197.747	-83.63
197.966	78.16
198.185	94.55
198.404	-26.28
198.623	104.79
198.842	112.98
199.062	-1.71
199.281	112.98
199.5	88.4
199.719	102.74
199.938	18.77
200.157	151.89
200.376	67.92
200.595	69.97
200.814	35.16
201.033	10.58
201.252	115.03
201.471	108.88
201.69	61.78
201.909	-75.43
202.128	100.69
202.347	55.64
202.566	29.01
202.785	-83.63
203.004	10.58
203.223	303.44
203.442	20.82
203.661	-128.68
203.879	92.5
204.098	98.64
204.317	-13.99
204.536	137.56
204.755	45.4
204.974	162.13
205.193	-26.28
205.411	184.66
205.63	74.07
205.849	63.83
206.068	31.06
206.287	4.44
206.505	158.03
206.724	69.97
206.943	0.34
207.162	-30.38
207.381	24.92
207.599	49.49
207.818	-9.9
208.037	-61.1
208.255	119.12
208.474	106.84
208.693	51.54
208.911	24.92
209.13	92.5
209.349	41.3
209.567	96.6
209.786	98.64
210.005	143.7
210.223	-24.23
210.442	-63.15
210.661	53.59
210.879	35.16
211.098	47.44
211.316	2.39
211.535	57.68
211.753	39.25
211.972	-18.09
212.191	-57
212.409	8.53
212.628	153.94
212.846	22.87
213.065	67.92
213.283	78.16
213.502	45.4
213.72	74.07
213.938	76.12
214.157	74.07
214.375	82.26
214.594	-1.71
214.812	86.36
215.031	22.87
215.249	115.03
215.467	100.69
215.686	-9.9
215.904	117.08
216.122	12.63
216.341	94.55
216.559	49.49
216.778	121.17
216.996	194.9
217.214	96.6
217.432	6.49
217.651	-77.48
217.869	14.68
218.087	141.65
218.306	0.34
218.524	31.06
218.742	14.68
218.96	112.98
219.179	-48.81
219.397	16.73
219.615	198.99
219.833	78.16
220.051	33.11
220.27	72.02
220.488	158.03
220.706	72.02
220.924	-57
221.142	2.39
221.36	-13.99
221.578	72.02
221.796	92.5
222.015	-7.85
222.233	86.36
222.451	166.23
222.669	10.58
222.887	63.83
223.105	18.77
223.323	39.25
223.541	35.16
223.759	106.84
223.977	33.11
224.195	231.76
224.413	151.89
224.631	61.78
224.849	168.27
225.067	166.23
225.285	-11.95
225.503	33.11
225.721	-140.97
225.939	43.35
226.157	45.4
226.375	194.9
226.592	0.34
226.81	-11.95
227.028	47.44
227.246	110.93
227.464	33.11
227.682	112.98
227.9	6.49
228.117	80.21
228.335	125.27
228.553	115.03
228.771	61.78
228.989	2.39
229.206	133.46
229.424	4.44
229.642	-54.95
229.86	-7.85
230.077	211.28
230.295	57.68
230.513	82.26
230.731	90.45
230.948	174.42
231.166	119.12
231.384	-18.09
231.601	-24.23
231.819	170.32
232.037	-3.75
232.254	-42.67
232.472	-38.57
232.689	16.73
232.907	115.03
233.125	18.77
233.342	-5.8
233.56	-97.96
233.777	-73.39
233.995	-28.33
234.213	86.36
234.43	12.63
234.648	26.96
234.865	12.63
235.083	123.22
235.3	94.55
235.518	59.73
235.735	231.76
235.953	51.54
236.17	16.73
236.388	117.08
236.605	12.63
236.822	143.7
237.04	180.56
237.257	45.4
237.475	-54.95
237.692	39.25
237.909	78.16
238.127	49.49
238.344	172.37
238.562	47.44
238.779	51.54
238.996	2.39
239.214	57.68
239.431	69.97
239.648	47.44
239.865	18.77
240.083	141.65
240.3	-20.14
240.517	2.39
240.735	31.06
240.952	47.44
241.169	147.8
241.386	53.59
241.603	-40.62
241.821	0.34
242.038	100.69
242.255	162.13
242.472	-57
242.689	51.54
242.907	92.5
243.124	14.68
243.341	47.44
243.558	-71.34
243.775	-50.86
243.992	35.16
244.209	117.08
244.426	192.85
244.643	94.55
244.86	24.92
245.078	55.64
245.295	37.2
245.512	96.6
245.729	-75.43
245.946	137.56
246.163	57.68
246.38	76.12
246.597	45.4
246.814	110.93
247.031	35.16
247.248	-11.95
247.464	88.4
247.681	55.64
247.898	35.16
248.115	80.21
248.332	-52.91
248.549	201.04
248.766	127.32
248.983	110.93
249.2	139.6
249.417	104.79
249.633	-48.81
249.85	59.73
250.067	10.58
250.284	80.21
250.501	76.12
250.717	55.64
250.934	-89.77
251.151	24.92
251.368	76.12
251.585	76.12
251.801	29.01
252.018	-7.85
252.235	155.99
252.451	24.92
252.668	31.06
252.885	143.7
253.102	112.98
253.318	-30.38
253.535	45.4
253.752	-73.39
253.968	20.82
254.185	-46.76
254.401	125.27
254.618	45.4
254.835	-3.75
255.051	41.3
255.268	43.35
255.484	117.08
255.701	16.73
255.917	133.46
256.134	14.68
256.351	-22.19
256.567	-57
256.784	-7.85
257	-63.15
257.217	69.97
257.433	94.55
257.65	47.44
257.866	78.16
258.082	20.82
258.299	-50.86
258.515	65.88
258.732	2.39
258.948	-50.86
259.165	121.17
259.381	-30.38
259.597	14.68
259.814	12.63
260.03	-26.28
260.246	43.35
260.463	147.8
260.679	162.13
260.895	31.06
261.112	14.68
261.328	78.16
261.544	-18.09
261.761	135.51
261.977	-9.9
262.193	-57
262.409	106.84
262.626	59.73
262.842	18.77
263.058	-71.34
263.274	112.98
263.49	2.39
263.707	145.75
263.923	229.71
264.139	-102.06
264.355	115.03
264.571	24.92
264.787	72.02
265.004	160.08
265.22	74.07
265.436	2.39
265.652	18.77
265.868	76.12
266.084	-26.28
266.3	12.63
266.516	-54.95
266.732	65.88
266.948	37.2
267.164	55.64
267.38	78.16
267.596	131.41
267.812	149.84
268.028	20.82
268.244	39.25
268.46	55.64
268.676	35.16
268.892	16.73
269.108	-18.09
269.324	-34.47
269.54	-79.53
269.756	170.32
269.972	-9.9
270.188	-63.15
270.403	-18.09
270.619	74.07
270.835	18.77
271.051	47.44
271.267	74.07
271.483	6.49
271.698	61.78
271.914	86.36
272.13	63.83
272.346	78.16
272.562	37.2
272.777	80.21
272.993	100.69
273.209	22.87
273.425	45.4
273.64	-83.63
273.856	90.45
274.072	-42.67
274.287	-24.23
274.503	145.75
274.719	59.73
274.934	-36.52
275.15	20.82
275.366	69.97
275.581	-59.05
275.797	29.01
276.012	31.06
276.228	22.87
276.444	92.5
276.659	172.37
276.875	-83.63
277.09	55.64
277.306	-1.71
277.521	90.45
277.737	33.11
277.952	162.13
278.168	10.58
278.383	88.4
278.599	72.02
278.814	35.16
279.03	43.35
279.245	188.75
279.461	16.73
279.676	53.59
279.892	-46.76
280.107	22.87
280.322	-77.48
280.538	160.08
280.753	12.63
280.969	104.79
281.184	-11.95
281.399	108.88
281.615	55.64
281.83	47.44
282.045	-100.01
282.26	61.78
282.476	80.21
282.691	143.7
282.906	121.17
283.122	49.49
283.337	-42.67
283.552	88.4
283.767	39.25
283.983	108.88
284.198	12.63
284.413	55.64
284.628	-1.71
284.843	41.3
285.058	-13.99
285.274	121.17
285.489	-42.67
285.704	135.51
285.919	45.4
286.134	-18.09
286.349	-52.91
286.564	65.88
286.779	149.84
286.995	35.16
287.21	-120.49
287.425	94.55
287.64	-50.86
287.855	-9.9
288.07	-13.99
288.285	65.88
288.5	108.88
288.715	80.21
288.93	12.63
289.145	-110.25
289.36	47.44
289.575	-59.05
289.79	112.98
290.004	12.63
290.219	78.16
290.434	41.3
290.649	-24.23
290.864	24.92
291.079	10.58
291.294	49.49
291.509	98.64
291.724	4.44
291.938	-20.14
292.153	41.3
292.368	-11.95
292.583	74.07
292.798	129.36
293.012	51.54
293.227	51.54
293.442	31.06
293.657	110.93
293.871	96.6
294.086	80.21
294.301	254.29
294.516	98.64
294.73	53.59
294.945	-36.52
295.16	8.53
295.374	72.02
295.589	188.75
295.804	61.78
296.018	-3.75
296.233	57.68
296.447	143.7
296.662	43.35
296.877	92.5
297.091	41.3
297.306	41.3
297.52	51.54
297.735	8.53
297.949	31.06
298.164	80.21
298.378	18.77
298.593	-24.23
298.807	-5.8
299.022	49.49
299.236	143.7
299.451	33.11
299.665	24.92
299.88	55.64
300.094	108.88
300.309	33.11
300.523	119.12
300.737	6.49
300.952	119.12
301.166	125.27
301.381	24.92
301.595	-100.01
301.809	-16.04
302.024	51.54
302.238	84.31
302.452	88.4
302.667	6.49
302.881	55.64
303.095	131.41
303.309	80.21
303.524	-20.14
303.738	-20.14
303.952	26.96
304.166	133.46
304.381	-83.63
304.595	117.08
304.809	-71.34
305.023	37.2
305.237	-13.99
305.452	22.87
305.666	121.17
305.88	63.83
306.094	141.65
306.308	39.25
306.522	133.46
306.736	55.64
306.95	37.2
307.164	33.11
307.379	-5.8
307.593	143.7
307.807	151.89
308.021	84.31
308.235	55.64
308.449	-65.19
308.663	94.55
308.877	149.84
309.091	-11.95
309.305	31.06
309.519	-54.95
309.733	145.75
309.947	-13.99
310.161	18.77
310.374	69.97
310.588	133.46
310.802	22.87
311.016	31.06
311.23	125.27
311.444	-112.3
311.658	35.16
311.872	80.21
312.085	104.79
312.299	188.75
312.513	153.94
312.727	47.44
312.941	-9.9
313.154	108.88
313.368	112.98
313.582	14.68
313.796	55.64
314.009	55.64
314.223	160.08
314.437	61.78
314.651	-16.04
314.864	47.44
315.078	33.11
315.292	-36.52
315.505	45.4
315.719	139.6
315.933	137.56
316.146	-11.95
316.36	-38.57
316.573	102.74
316.787	53.59
317.001	86.36
317.214	-16.04
317.428	115.03
317.641	-44.71
317.855	-34.47
318.068	112.98
318.282	98.64
318.495	131.41
318.709	35.16
318.922	24.92
319.136	119.12
319.349	57.68
319.563	-52.91
319.776	104.79
319.99	-9.9
320.203	67.92
320.417	-7.85
320.63	41.3
320.843	203.09
321.057	61.78
321.27	-3.75
321.483	86.36
321.697	149.84
321.91	74.07
322.124	82.26
322.337	129.36
322.55	-38.57
322.763	112.98
322.977	22.87
323.19	-79.53
323.403	63.83
323.617	18.77
323.83	74.07
324.043	69.97
324.256	24.92
324.469	-50.86
324.683	37.2
324.896	4.44
325.109	59.73
325.322	-11.95
325.535	121.17
325.748	117.08
325.962	45.4
326.175	72.02
326.388	121.17
326.601	174.42
326.814	51.54
327.027	41.3
327.24	158.03
327.453	-38.57
327.666	123.22
327.879	98.64
328.092	112.98
328.305	94.55
328.518	82.26
328.731	-40.62
328.944	59.73
329.157	31.06
329.37	78.16
329.583	207.19
329.796	96.6
330.009	-67.24
330.222	127.32
330.435	74.07
330.648	-13.99
330.861	63.83
331.073	6.49
331.286	119.12
331.499	76.12
331.712	-36.52
331.925	39.25
332.138	29.01
332.35	94.55
332.563	47.44
332.776	196.95
332.989	6.49
333.202	51.54
333.414	35.16
333.627	90.45
333.84	43.35
334.053	31.06
334.265	22.87
334.478	14.68
334.691	6.49
334.903	29.01
335.116	-91.82
335.329	-13.99
335.541	141.65
335.754	141.65
335.966	22.87
336.179	0.34
336.392	10.58
336.604	20.82
336.817	125.27
337.029	57.68
337.242	-5.8
337.454	100.69
337.667	78.16
337.88	176.47
338.092	78.16
338.305	98.64
338.517	-20.14
338.729	88.4
338.942	231.76
339.154	-28.33
339.367	-18.09
339.579	67.92
339.792	-1.71
340.004	63.83
340.217	35.16
340.429	41.3
340.641	-83.63
340.854	-26.28
341.066	63.83
341.278	55.64
341.491	145.75
341.703	51.54
341.915	65.88
342.128	86.36
342.34	51.54
342.552	6.49
342.764	104.79
342.977	65.88
343.189	119.12
343.401	84.31
343.613	-54.95
343.826	76.12
344.038	26.96
344.25	72.02
344.462	20.82
344.674	45.4
344.886	-5.8
345.099	141.65
345.311	149.84
345.523	88.4
345.735	-93.87
345.947	49.49
346.159	-18.09
346.371	49.49
346.583	-32.43
346.795	194.9
347.007	-26.28
347.219	86.36
347.431	106.84
347.643	106.84
347.855	-48.81
348.067	153.94
348.279	-48.81
348.491	12.63
348.703	88.4
348.915	14.68
349.127	-22.19
349.339	67.92
349.551	55.64
349.763	147.8
349.975	14.68
350.187	119.12
350.399	182.61
350.61	31.06
350.822	-48.81
351.034	65.88
351.246	84.31
351.458	61.78
351.669	2.39
351.881	57.68
352.093	135.51
352.305	76.12
352.517	67.92
352.728	149.84
352.94	12.63
353.152	158.03
353.363	-18.09
353.575	82.26
353.787	221.52
353.999	55.64
354.21	135.51
354.422	-77.48
354.633	59.73
354.845	78.16
355.057	22.87
355.268	63.83
355.48	78.16
355.692	-57
355.903	74.07
356.115	29.01
356.326	-59.05
356.538	78.16
356.749	86.36
356.961	184.66
357.172	12.63
357.384	-57
357.595	174.42
357.807	20.82
358.018	45.4
358.23	-5.8
358.441	147.8
358.653	47.44
358.864	94.55
359.075	35.16
359.287	94.55
359.498	129.36
359.709	67.92
359.921	41.3
360.132	110.93
360.344	14.68
360.555	80.21
360.766	59.73
360.977	37.2
361.189	121.17
361.4	-3.75
361.611	176.47
361.823	82.26
362.034	33.11
362.245	-130.73
362.456	82.26
362.667	104.79
362.879	-40.62
363.09	41.3
363.301	139.6
363.512	55.64
363.723	35.16
363.935	43.35
364.146	106.84
364.357	-11.95
364.568	86.36
364.779	-20.14
364.99	180.56
365.201	26.96
365.412	22.87
365.623	-65.19
365.834	104.79
366.045	-28.33
366.256	108.88
366.467	80.21
366.678	6.49
366.889	39.25
367.1	-1.71
367.311	135.51
367.522	-61.1
367.733	96.6
367.944	125.27
368.155	26.96
368.366	84.31
368.577	104.79
368.788	129.36
368.999	59.73
369.209	69.97
369.42	209.23
369.631	223.57
369.842	158.03
370.053	-22.19
370.264	29.01
370.474	-77.48
370.685	-5.8
370.896	78.16
371.107	153.94
371.317	84.31
371.528	-42.67
371.739	121.17
371.95	160.08
372.16	84.31
372.371	-36.52
372.582	31.06
372.792	88.4
373.003	33.11
373.214	121.17
373.424	100.69
373.635	-57
373.846	121.17
374.056	72.02
374.267	100.69
374.477	92.5
374.688	-83.63
374.898	80.21
375.109	49.49
375.319	37.2
375.53	96.6
375.74	115.03
375.951	84.31
376.161	51.54
376.372	57.68
376.582	-48.81
376.793	90.45
377.003	-30.38
377.214	33.11
377.424	90.45
377.635	53.59
377.845	-13.99
378.055	182.61
378.266	-7.85
378.476	0.34
378.686	49.49
378.897	47.44
379.107	110.93
379.317	121.17
379.528	22.87
379.738	108.88
379.948	-3.75
380.158	61.78
380.369	104.79
380.579	137.56
380.789	51.54
380.999	31.06
381.21	72.02
381.42	135.51
381.63	-13.99
381.84	153.94
382.05	115.03
382.261	155.99
382.471	96.6
382.681	18.77
382.891	196.95
383.101	-32.43
383.311	-85.67
383.521	-52.91
383.731	82.26
383.941	115.03
384.151	31.06
384.361	-1.71
384.571	78.16
384.781	10.58
384.991	182.61
385.201	129.36
385.411	104.79
385.621	123.22
385.831	49.49
386.041	53.59
386.251	-24.23
386.461	168.27
386.671	12.63
386.881	72.02
387.091	24.92
387.301	112.98
387.511	80.21
387.72	104.79
387.93	102.74
388.14	-1.71
388.35	45.4
388.56	151.89
388.769	190.8
388.979	39.25
389.189	59.73
389.399	80.21
389.609	86.36
389.818	24.92
390.028	92.5
390.238	88.4
390.447	-9.9
390.657	76.12
390.867	-16.04
391.076	-22.19
391.286	86.36
391.496	82.26
391.705	82.26
391.915	102.74
392.125	86.36
392.334	39.25
392.544	153.94
392.753	47.44
392.963	24.92
393.172	51.54
393.382	2.39
393.591	174.42
393.801	39.25
394.01	57.68
394.22	84.31
394.429	18.77
394.639	65.88
394.848	192.85
395.058	78.16
395.267	8.53
395.477	125.27
395.686	61.78
395.895	239.95
396.105	225.62
396.314	117.08
396.524	78.16
396.733	29.01
396.942	158.03
397.152	82.26
397.361	108.88
397.57	92.5
397.78	125.27
397.989	82.26
398.198	135.51
398.407	39.25
398.617	-22.19
398.826	22.87
399.035	35.16
399.244	115.03
399.453	-1.71
399.663	65.88
399.872	33.11
400.081	-13.99
400.29	59.73
400.499	-110.25
400.708	106.84
400.917	57.68
401.127	84.31
401.336	-40.62
401.545	194.9
401.754	209.23
401.963	12.63
402.172	-30.38
402.381	-7.85
402.59	26.96
402.799	-9.9
403.008	80.21
403.217	88.4
403.426	10.58
403.635	10.58
403.844	53.59
404.053	43.35
404.262	-48.81
404.471	139.6
404.68	121.17
404.888	57.68
405.097	12.63
405.306	119.12
405.515	59.73
405.724	33.11
405.933	39.25
406.142	41.3
406.35	117.08
406.559	16.73
406.768	6.49
406.977	141.65
407.185	10.58
407.394	24.92
407.603	-28.33
407.812	135.51
408.02	178.51
408.229	14.68
408.438	84.31
408.646	-11.95
408.855	53.59
409.064	98.64
409.272	-26.28
409.481	127.32
409.69	88.4
409.898	41.3
410.107	80.21
410.315	55.64
410.524	0.34
410.733	47.44
410.941	2.39
411.15	112.98
411.358	96.6
411.567	190.8
411.775	63.83
411.984	-16.04
412.192	63.83
412.401	-3.75
412.609	196.95
412.818	139.6
413.026	45.4
413.234	24.92
413.443	-5.8
413.651	-5.8
413.86	-32.43
414.068	151.89
414.276	158.03
414.485	-24.23
414.693	139.6
414.901	196.95
415.11	82.26
415.318	-91.82
415.526	65.88
415.734	65.88
415.943	131.41
416.151	115.03
416.359	-7.85
416.567	110.93
416.776	182.61
416.984	102.74
417.192	182.61
417.4	-18.09
417.608	-63.15
417.817	-28.33
418.025	94.55
418.233	104.79
418.441	6.49
418.649	-102.06
418.857	94.55
419.065	149.84
419.273	65.88
419.481	29.01
419.689	110.93
419.897	92.5
420.105	-38.57
420.313	155.99
420.521	172.37
420.729	160.08
420.937	61.78
421.145	0.34
421.353	209.23
421.561	117.08
421.769	72.02
421.977	-24.23
422.185	94.55
422.393	94.55
422.601	80.21
422.809	0.34
423.017	106.84
423.224	74.07
423.432	123.22
423.64	24.92
423.848	112.98
424.056	-13.99
424.263	88.4
424.471	78.16
424.679	151.89
424.887	-9.9
425.094	170.32
425.302	82.26
425.51	45.4
425.718	125.27
425.925	47.44
426.133	6.49
426.341	213.33
426.548	80.21
426.756	31.06
426.964	94.55
427.171	-22.19
427.379	55.64
427.586	102.74
427.794	129.36
428.001	127.32
428.209	84.31
428.417	115.03
428.624	90.45
428.832	100.69
429.039	106.84
429.247	12.63
429.454	100.69
429.662	198.99
429.869	147.8
430.076	137.56
430.284	117.08
430.491	153.94
430.699	129.36
430.906	229.71
431.114	168.27
431.321	115.03
431.528	201.04
431.736	180.56
431.943	129.36
432.15	135.51
432.358	178.51
432.565	207.19
432.772	92.5
432.979	184.66
433.187	67.92
433.394	192.85
433.601	201.04
433.808	172.37
434.016	227.67
434.223	229.71
434.43	176.47
434.637	291.15
434.844	242
435.052	160.08
435.259	252.24
435.466	264.53
435.673	285.01
435.88	237.91
436.087	330.06
436.294	317.78
436.501	297.3
436.708	303.44
436.915	301.39
437.122	321.87
437.329	170.32
437.537	325.97
437.743	305.49
437.95	430.41
438.157	340.3
438.364	305.49
438.571	409.94
438.778	368.98
438.985	446.8
439.192	487.76
439.399	444.75
439.606	411.98
439.813	520.53
440.02	600.4
440.227	579.92
440.433	526.67
440.64	524.62
440.847	457.04
441.054	596.3
441.261	667.98
441.467	608.59
441.674	614.73
441.881	758.09
442.088	637.26
442.294	680.27
442.501	756.04
442.708	764.23
442.914	745.8
443.121	862.54
443.328	758.09
443.534	837.96
443.741	868.68
443.948	731.47
444.154	934.22
444.361	1112.39
444.568	989.51
444.774	991.56
444.981	958.79
445.187	1167.68
445.394	1175.88
445.6	1046.85
445.807	1235.27
446.013	1282.37
446.22	1227.07
446.426	1386.82
446.633	1419.58
446.839	1777.98
447.046	1302.85
447.252	1648.96
447.459	1466.69
447.665	1634.62
447.871	1720.64
448.078	1915.19
448.284	1911.1
448.491	1935.67
448.697	2042.17
448.903	2191.67
449.11	2083.13
449.316	2068.79
449.522	2388.27
449.728	2402.61
449.935	2459.95
450.141	2414.9
450.347	2681.13
450.553	2677.04
450.76	2603.31
450.966	2844.97
451.172	2947.37
451.378	2971.94
451.584	3209.51
451.791	3397.92
451.997	3473.7
452.203	3445.02
452.409	3725.6
452.615	3713.31
452.821	3672.35
453.027	3713.31
453.233	4110.61
453.44	4088.09
453.646	4319.51
453.852	4466.96
454.058	4700.43
454.264	4958.47
454.47	5138.69
454.676	5148.93
454.882	5581.06
455.088	5359.88
455.294	5779.71
455.5	6103.29
455.705	6332.66
455.911	6314.23
456.117	6447.35
456.323	6844.65
456.529	6838.51
456.735	7477.48
456.941	7626.98
457.147	7979.23
457.352	8161.5
457.558	8280.28
457.764	9031.88
457.97	9132.23
458.176	9494.72
458.381	9894.08
458.587	10135.74
458.793	10715.31
458.999	10539.19
459.204	11946.14
459.41	12411.03
459.616	12193.95
459.821	12996.75
460.027	13596.81
460.233	14157.95
460.438	14205.05
460.644	15044.72
460.85	15267.95
461.055	15978.59
461.261	16662.62
461.466	16025.7
461.672	16693.33
461.878	18452.54
462.083	18413.63
462.289	18882.61
462.494	19318.83
462.7	19365.93
462.905	19998.76
463.111	21389.33
463.316	22528
463.522	22722.55
463.727	23771.11
463.932	24383.46
464.138	25022.42
464.343	26181.57
464.549	26386.37
464.754	28129.19
464.959	29194.14
465.165	29781.9
465.37	29589.39
465.575	29163.42
465.781	31305.59
465.986	32329.58
466.191	31881.07
466.397	32034.67
466.602	31721.33
466.807	33187.67
467.012	33640.28
467.218	34248.52
467.423	34318.15
467.628	35434.3
467.833	37230.37
468.038	36323.12
468.244	35813.17
468.449	38016.79
468.654	36761.38
468.859	37213.98
469.064	37035.81
469.269	35884.85
469.474	36310.83
469.679	37138.21
469.885	36218.67
470.09	36941.6
470.295	36912.93
470.5	35729.2
470.705	36386.6
470.91	35219.26
471.115	35360.57
471.32	35413.82
471.525	35172.16
471.73	34213.71
471.935	33730.39
472.139	32640.87
472.344	32946.01
472.549	32593.76
472.754	32096.11
472.959	31141.75
473.164	30191.5
473.369	29530
473.574	30611.33
473.778	29581.2
473.983	29583.25
474.188	28995.48
474.393	27484.08
474.598	27111.35
474.802	26871.74
475.007	26382.27
475.212	26376.13
475.417	25100.25
475.621	25147.35
475.826	24694.75
476.031	24254.44
476.235	23568.37
476.44	23664.62
476.645	23009.27
476.849	22839.29
477.054	22233.09
477.259	21942.28
477.463	21854.22
477.668	21331.98
477.872	21071.89
478.077	20752.41
478.282	19839.01
478.486	19947.56
478.691	19687.46
478.895	19642.41
479.1	19427.37
479.304	19404.85
479.509	18501.69
479.713	19085.36
479.918	18473.02
480.122	17936.45
480.326	18360.38
480.531	18231.36
480.735	17944.64
480.94	17461.32
481.144	18223.17
481.348	17164.37
481.553	17309.77
481.757	16795.73
481.961	17088.59
482.166	17211.47
482.37	16834.64
482.574	16443.48
482.778	16554.07
482.983	16871.51
483.187	16201.82
483.391	16531.55
483.595	16199.77
483.8	15685.73
484.004	15757.41
484.208	15675.49
484.412	15573.1
484.616	15657.06
484.821	15380.59
485.025	14930.03
485.229	15050.86
485.433	14731.38
485.637	14610.55
485.841	14145.66
486.045	14174.33
486.249	14383.23
486.453	13598.85
486.657	13514.89
486.861	13385.87
487.065	13019.28
487.269	13064.33
487.473	12396.7
487.677	12609.68
487.881	12640.4
488.085	12099.74
488.289	11946.14
488.493	11581.6
488.697	11753.63
488.901	11509.93
489.105	11366.57
489.309	11116.72
489.512	10731.7
489.716	10803.38
489.92	10461.37
490.124	10326.2
490.328	10270.9
490.531	9965.76
490.735	9867.45
490.939	9437.38
491.143	9398.47
491.346	9074.89
491.55	9060.56
491.754	8972.49
491.958	8968.4
492.161	8530.13
492.365	8681.68
492.569	8411.35
492.772	8208.6
492.976	8224.98
493.18	7870.69
493.383	7872.73
493.587	7717.09
493.79	7801.05
493.994	7680.22
494.197	7665.89
494.401	7659.74
494.605	7444.71
494.808	7407.84
495.012	7325.93
495.215	7325.93
495.419	7303.4
495.622	7119.08
495.825	7018.73
496.029	7143.66
496.232	7141.61
496.436	6863.08
496.639	7069.93
496.843	6914.28
497.046	6977.77
497.249	7129.32
497.453	7065.83
497.656	7137.51
497.859	6926.57
498.063	6969.58
498.266	7157.99
498.469	7151.85
498.673	7037.16
498.876	7082.22
499.079	7059.69
499.282	7010.54
499.485	7540.96
499.689	7289.06
499.892	7330.02
500.095	7301.35
500.298	7315.69
500.501	7225.58
500.705	7426.28
500.908	7438.56
501.111	7473.38
501.314	7669.98
501.517	7977.18
501.72	7833.82
501.923	7864.54
502.126	7731.42
502.329	8202.46
502.532	8020.19
502.735	8184.02
502.938	8421.59
503.141	8507.6
503.344	8618.19
503.547	8593.62
503.75	8724.69
503.953	8767.7
504.156	8999.12
504.359	8790.22
504.562	9240.78
504.765	9308.36
504.968	9525.44
505.17	9502.92
505.373	9576.64
505.576	9947.33
505.779	9765.06
505.982	10209.47
506.185	10432.69
506.387	10596.53
506.59	10733.75
506.793	10789.04
506.996	10979.5
507.198	11503.78
507.401	11401.38
507.604	11821.22
507.807	11899.04
508.009	12089.5
508.212	12175.52
508.415	12327.07
508.617	12607.64
508.82	13136.01
509.022	13283.47
509.225	13754.5
509.428	13793.41
509.63	14188.67
509.833	14461.05
510.035	14993.52
510.238	14962.8
510.44	15298.67
510.643	15583.34
510.845	16263.26
511.048	16289.88
511.25	16750.68
511.453	16889.94
511.655	17811.53
511.858	18110.53
512.06	18239.55
512.262	18819.13
512.465	19075.12
512.667	19603.5
512.87	20019.24
513.072	20535.32
513.274	21194.77
513.477	21577.74
513.679	21868.55
513.881	22503.42
514.084	23275.51
514.286	23324.66
514.488	23969.77
514.69	24446.94
514.893	25081.81
515.095	25399.25
515.297	26023.88
515.499	26552.26
515.701	27062.2
515.904	27848.62
516.106	28299.17
516.308	28639.14
516.51	29325.21
516.712	30027.66
516.914	30187.4
517.116	31250.3
517.318	31711.09
517.52	32231.27
517.722	32677.73
517.925	33582.93
518.127	34219.85
518.329	34772.8
518.531	34500.42
518.733	35755.83
518.935	36153.13
519.136	36908.83
519.338	37195.55
519.54	37723.93
519.742	38926.08
519.944	38997.76
520.146	40013.55
520.348	40238.83
520.55	40759.02
520.752	41180.9
520.954	42120.91
521.155	41942.74
521.357	43069.12
521.559	43519.68
521.761	44158.64
521.963	43951.8
522.164	44416.69
522.366	44605.1
522.568	45581.98
522.77	45659.8
522.971	45723.29
523.173	46057.11
523.375	46720.65
523.576	46491.28
523.778	46739.08
523.98	47758.97
524.181	47535.74
524.383	47482.5
524.584	48189.05
524.786	47832.7
524.988	47902.33
525.189	48117.37
525.391	48238.2
525.592	48545.39
525.794	48049.78
525.995	49098.34
526.197	48275.06
526.398	47810.17
526.6	47988.35
526.801	47945.34
527.003	47597.18
527.204	47853.18
527.406	47955.58
527.607	47470.21
527.808	47410.82
528.01	46618.25
528.211	46507.66
528.412	46890.63
528.614	46565.01
528.815	45973.14
529.016	46376.59
529.218	45207.2
529.419	45358.75
529.62	44498.61
529.822	43787.96
530.023	43931.32
530.224	43413.18
530.425	42653.39
530.626	42237.65
530.828	41711.32
531.029	42155.73
531.23	41438.94
531.431	40654.57
531.632	40513.26
531.833	40523.5
532.035	39606.01
532.236	39032.58
532.437	38776.58
532.638	38305.55
532.839	37957.39
533.04	37310.24
533.241	36417.32
533.442	36558.63
533.643	35716.92
533.844	35567.41
534.045	34936.64
534.246	34373.45
534.447	33955.66
534.648	33476.44
534.849	33060.7
535.05	32350.06
535.251	32280.42
535.451	31586.16
535.652	31375.22
535.853	30953.34
536.054	30668.67
536.255	30648.19
536.456	29605.78
536.657	29382.55
536.857	28802.97
537.058	28434.34
537.259	28598.18
537.46	27885.48
537.66	27359.16
537.861	27264.95
538.062	26458.05
538.263	26431.43
538.463	26109.89
538.664	25774.03
538.865	25327.57
539.065	25413.59
539.266	24625.12
539.466	24149.99
539.667	23887.85
539.868	24334.31
540.068	23656.43
540.269	23166.96
540.469	23267.31
540.67	23173.11
540.87	22788.09
541.071	22392.83
541.271	21893.13
541.472	22022.15
541.672	21485.58
541.873	21182.48
542.073	20830.23
542.274	21135.38
542.474	20688.92
542.675	20170.79
542.875	20144.16
543.075	19947.56
543.276	19730.47
543.476	19660.84
543.676	19177.52
543.877	19056.69
544.077	19034.16
544.277	18569.27
544.478	18262.08
544.678	18399.29
544.878	17924.16
545.078	17707.08
545.279	17410.12
545.479	17125.46
545.679	17203.28
545.879	16834.64
546.079	16820.31
546.28	16435.29
546.48	16203.87
546.68	16181.34
546.88	15822.95
547.08	15890.53
547.28	15652.97
547.48	15390.83
547.68	15353.96
547.88	15138.93
548.081	14913.65
548.281	14735.48
548.481	14719.09
548.681	14463.1
548.881	14200.96
549.081	14024.83
549.28	13795.46
549.48	13559.94
549.68	13459.59
549.88	13312.14
550.08	12961.94
550.28	12839.06
550.48	12755.09
550.68	12650.64
550.88	12292.25
551.08	12214.43
551.279	12302.49
551.479	11757.73
551.679	11847.84
551.879	11374.76
552.079	11415.72
552.278	11180.2
552.478	11073.71
552.678	10821.81
552.878	10680.5
553.077	10531
553.277	10143.93
553.477	10393.78
553.676	10195.13
553.876	10186.94
554.076	9593.03
554.275	9801.92
554.475	9414.85
554.674	9400.52
554.874	9169.1
555.074	9058.51
555.273	8880.33
555.473	8810.7
555.672	8579.28
555.872	8468.69
556.071	8296.66
556.271	8229.08
556.47	8048.86
556.67	7868.64
556.869	7880.93
557.068	7799.01
557.268	7551.2
557.467	7440.61
557.667	7422.18
557.866	7209.19
558.065	7108.84
558.265	6824.17
558.464	6764.78
558.663	6863.08
558.863	6734.06
559.062	6574.32
559.261	6549.75
559.461	6602.99
559.66	6131.96
559.859	6240.5
560.058	6080.76
560.258	5779.71
560.457	5822.72
560.656	5937.4
560.855	5615.87
561.054	5628.16
561.253	5552.38
561.453	5468.42
561.652	5302.53
561.851	5327.11
562.05	5101.83
562.249	4962.57
562.448	5040.39
562.647	4937.99
562.846	4786.44
563.045	4847.88
563.244	4636.94
563.443	4770.06
563.642	4503.82
563.841	4444.43
564.04	4452.63
564.239	4333.84
564.438	4462.87
564.637	4206.87
564.836	4221.2
565.035	4153.62
565.234	4090.13
565.432	3922.2
565.631	3957.02
565.83	4012.31
566.029	3897.63
566.228	3760.41
566.427	3772.7
566.625	3631.39
566.824	3676.45
567.023	3399.97
567.222	3623.2
567.42	3434.78
567.619	3375.39
567.818	3424.55
568.016	3490.08
568.215	3201.32
568.414	3320.1
568.612	3338.53
568.811	3273
569.01	3244.32
569.208	2992.42
569.407	3166.5
569.605	3041.57
569.804	2887.98
570.002	2861.35
570.201	2795.82
570.4	2961.7
570.598	2793.77
570.797	2765.1
570.995	2588.97
571.193	2599.21
571.392	2562.35
571.59	2447.66
571.789	2601.26
571.987	2494.77
572.186	2613.55
572.384	2361.65
572.582	2314.55
572.781	2337.07
572.979	2269.49
573.177	2292.02
573.376	2347.31
573.574	2154.8
573.772	2181.43
573.971	2011.45
574.169	1941.82
574.367	2171.19
574.565	2091.32
574.763	2031.93
574.962	1904.95
575.16	1808.7
575.358	1839.42
575.556	1798.46
575.754	1849.66
575.952	1915.19
576.151	1753.4
576.349	1845.56
576.547	1671.48
576.745	1698.11
576.943	1730.87
577.141	1669.44
577.339	1628.48
577.537	1608
577.735	1618.24
577.933	1624.38
578.131	1526.08
578.329	1667.39
578.527	1552.7
578.725	1564.99
578.923	1362.24
579.121	1542.46
579.319	1225.03
579.516	1390.91
579.714	1595.71
579.912	1356.1
580.11	1198.4
580.308	1255.75
580.506	1247.55
580.704	1186.12
580.901	1192.26
581.099	1282.37
581.297	1249.6
581.495	1151.3
581.692	1218.88
581.89	1306.95
582.088	1159.49
582.285	1151.3
582.483	1040.71
582.681	1081.67
582.878	1012.04
583.076	1136.96
583.274	1096
583.471	1194.31
583.669	1020.23
583.866	977.22
584.064	1026.37
584.262	852.3
584.459	1012.04
584.657	1036.61
584.854	981.32
585.052	1007.94
585.249	966.98
585.447	856.39
585.644	794.95
585.841	958.79
586.039	860.49
586.236	993.61
586.434	874.82
586.631	772.43
586.828	739.66
587.026	784.71
587.223	776.52
587.42	729.42
587.618	772.43
587.815	862.54
588.012	801.1
588.21	655.69
588.407	837.96
588.604	825.67
588.801	674.12
588.999	715.08
589.196	850.25
589.393	700.75
589.59	633.16
589.787	782.67
589.984	713.03
590.182	684.36
590.379	569.68
590.576	684.36
590.773	665.93
590.97	627.02
591.167	700.75
591.364	719.18
591.561	569.68
591.758	768.33
591.955	696.65
592.152	571.72
592.349	620.88
592.546	575.82
592.743	620.88
592.94	573.77
593.137	604.49
593.334	702.79
593.531	674.12
593.727	700.75
593.924	670.03
594.121	588.11
594.318	600.4
594.515	733.51
594.712	747.85
594.908	797
595.105	641.36
595.302	731.47
595.499	702.79
595.696	934.22
595.892	684.36
596.089	827.72
596.286	706.89
596.482	885.06
596.679	819.53
596.876	784.71
597.072	983.37
597.269	846.15
597.466	868.68
597.662	926.02
597.859	893.26
598.055	979.27
598.252	1001.8
598.448	1048.9
598.645	1198.4
598.841	1059.14
599.038	1345.86
599.234	1167.68
599.431	1225.03
599.627	1415.49
599.824	1171.78
600.02	1306.95
600.217	1368.38
600.413	1431.87
600.609	1474.88
600.806	1792.31
601.002	1667.39
601.198	1612.09
601.395	1829.18
601.591	1698.11
601.787	1792.31
601.984	1958.2
602.18	2011.45
602.376	2181.43
602.572	2242.87
602.769	2271.54
602.965	2320.69
603.161	2404.66
603.357	2394.42
603.553	2601.26
603.75	2453.81
603.946	2629.93
604.142	2851.11
604.338	2961.7
604.534	2951.46
604.73	3123.49
604.926	3070.25
605.122	3408.16
605.318	3316
605.514	3385.63
605.71	3569.95
605.906	3897.63
606.102	3655.97
606.298	3963.16
606.494	3983.64
606.69	4210.97
606.886	4116.76
607.082	4135.19
607.278	4387.09
607.474	4567.31
607.67	4735.25
607.866	4708.62
608.062	4956.43
608.257	5126.41
608.453	5122.31
608.649	5478.66
608.845	5427.46
609.041	5662.97
609.236	5974.27
609.432	6070.52
609.628	6322.42
609.824	6373.62
610.019	6385.91
610.215	6574.32
610.411	7008.49
610.606	7059.69
610.802	7082.22
610.998	7405.8
611.193	7573.73
611.389	7669.98
611.584	7878.88
611.78	8095.96
611.976	8392.92
612.171	8620.24
612.367	8992.97
612.562	8964.3
612.758	9113.8
612.953	9140.43
613.149	9763.01
613.344	9898.17
613.539	10217.66
613.735	10520.76
613.93	10752.18
614.126	10965.17
614.321	11380.9
614.517	11571.36
614.712	11843.74
614.907	12193.95
615.103	12546.2
615.298	12673.17
615.493	13015.18
615.688	13367.43
615.884	14192.76
616.079	14286.97
616.274	14583.93
616.47	14821.49
616.665	15204.46
616.86	15515.75
617.055	15929.44
617.25	16044.13
617.445	16619.61
617.641	17086.54
617.836	17508.43
618.031	17647.69
618.226	18700.34
618.421	18729.02
618.616	19226.67
618.811	19753
619.006	20033.57
619.201	20289.57
619.396	21379.09
619.591	21282.83
619.786	22122.5
619.981	22274.05
620.176	22935.54
620.371	23300.08
620.566	23955.43
620.761	24285.15
620.956	24909.79
621.151	25475.02
621.346	25593.81
621.541	26122.18
621.735	26990.52
621.93	26904.51
622.125	27668.4
622.32	27731.89
622.515	28696.48
622.709	28977.05
622.904	29482.9
623.099	30093.19
623.294	30748.54
623.488	31428.47
623.683	31625.07
623.878	31608.69
624.072	32653.16
624.267	32999.26
624.462	33576.79
624.656	33865.55
624.851	34574.15
625.046	34707.27
625.24	35702.58
625.435	35403.58
625.629	36493.1
625.824	36777.76
626.018	37334.81
626.213	37113.63
626.407	38383.37
626.602	38108.94
626.796	39053.06
626.991	39259.9
627.185	39517.95
627.38	39501.56
627.574	39689.98
627.768	39851.77
627.963	40128.24
628.157	39436.03
628.352	40562.41
628.546	39825.14
628.74	40591.08
628.935	40031.99
629.129	40292.08
629.323	39501.56
629.517	39751.41
629.712	39075.59
629.906	38686.47
630.1	38117.14
630.294	38211.34
630.489	37285.66
630.683	37295.9
630.877	36161.33
631.071	35651.38
631.265	35106.62
631.459	34320.2
631.653	33259.35
631.848	33222.49
632.042	32077.68
632.236	31739.76
632.43	30297.99
632.624	29792.14
632.818	28741.53
633.012	27578.29
633.206	26822.59
633.4	26107.85
633.594	24956.89
633.788	24365.03
633.982	23554.03
634.176	22654.97
634.369	21614.6
634.563	21024.79
634.757	19910.69
634.951	19443.76
635.145	18649.14
635.339	18040.9
635.533	17150.03
635.726	16433.24
635.92	15546.47
636.114	15147.12
636.308	14514.3
636.501	13901.95
636.695	13277.32
636.889	12640.4
637.083	12128.41
637.276	11731.11
637.47	11036.84
637.664	10694.83
637.857	10547.38
638.051	9994.43
638.244	9660.61
638.438	9189.58
638.632	8923.34
638.825	8429.78
639.019	8202.46
639.212	7612.64
639.406	7477.48
639.599	7201
639.793	7014.63
639.986	6648.05
640.18	6523.12
640.373	6119.67
640.567	5918.97
640.76	5755.13
640.954	5404.93
641.147	5257.48
641.34	5138.69
641.534	4864.27
641.727	4692.24
641.92	4626.7
642.114	4450.58
642.307	3969.3
642.5	4200.73
642.694	3825.95
642.887	3692.83
643.08	3672.35
643.273	3479.84
643.467	3236.13
643.66	3240.23
643.853	3060.01
644.046	2996.52
644.239	2869.55
644.432	2652.46
644.626	2525.49
644.819	2509.1
645.012	2543.92
645.205	2349.36
645.398	2304.31
645.591	2048.31
645.784	2068.79
645.977	1882.42
646.17	2044.21
646.363	1841.47
646.556	1734.97
646.749	1679.68
646.942	1667.39
647.135	1601.85
647.328	1446.21
647.521	1460.54
647.714	1431.87
647.907	1433.92
648.099	1272.13
648.292	1249.6
648.485	1278.27
648.678	1165.64
648.871	1130.82
649.064	1034.57
649.256	938.31
649.449	1009.99
649.642	899.4
649.835	985.41
650.027	903.5
650.22	905.54
650.413	817.48
650.605	883.02
650.798	788.81
650.991	784.71
651.183	725.32
651.376	766.28
651.568	768.33
651.761	661.84
651.954	647.5
652.146	561.48
652.339	643.4
652.531	604.49
652.724	504.14
652.916	565.58
653.109	375.12
653.301	551.24
653.494	567.63
653.686	514.38
653.879	551.24
654.071	534.86
654.263	438.61
654.456	416.08
654.648	500.05
654.84	483.66
655.033	350.54
655.225	524.62
655.417	207.19
655.61	463.18
655.802	391.5
655.994	500.05
656.186	272.72
656.379	489.81
656.571	321.87
656.763	282.96
656.955	291.15
657.148	280.91
657.34	416.08
657.532	291.15
657.724	313.68
657.916	285.01
658.108	389.46
658.3	342.35
658.492	293.2
658.684	313.68
658.876	399.7
659.068	121.17
659.26	141.65
659.452	246.1
659.644	301.39
659.836	371.02
660.028	235.86
660.22	160.08
660.412	252.24
660.604	178.51
660.796	223.57
660.988	295.25
661.18	254.29
661.372	282.96
661.563	172.37
661.755	229.71
661.947	145.75
662.139	184.66
662.331	219.47
662.522	188.75
662.714	115.03
662.906	153.94
663.097	207.19
663.289	47.44
663.481	61.78
663.673	102.74
663.864	141.65
664.056	123.22
664.247	61.78
664.439	282.96
664.631	147.8
664.822	188.75
665.014	88.4
665.205	127.32
665.397	31.06
665.588	203.09
665.78	84.31
665.971	188.75
666.163	102.74
666.354	276.82
666.546	49.49
666.737	160.08
666.929	110.93
667.12	123.22
667.311	201.04
667.503	192.85
667.694	164.18
667.885	133.46
668.077	131.41
668.268	-3.75
668.459	174.42
668.651	242
668.842	174.42
669.033	82.26
669.224	49.49
669.416	242
669.607	194.9
669.798	33.11
669.989	289.1
670.18	69.97
670.371	192.85
670.563	26.96
670.754	151.89
670.945	143.7
671.136	276.82
671.327	72.02
671.518	244.05
671.709	209.23
671.9	145.75
672.091	164.18
672.282	170.32
672.473	135.51
672.664	98.64
672.855	110.93
673.046	198.99
673.237	235.86
673.428	72.02
673.619	127.32
673.809	61.78
674	221.52
674.191	176.47
674.382	133.46
674.573	121.17
674.764	209.23
674.954	115.03
675.145	119.12
675.336	10.58
675.527	115.03
675.717	63.83
675.908	135.51
676.099	84.31
676.289	172.37
676.48	92.5
676.671	176.47
676.861	76.12
677.052	153.94
677.243	117.08
677.433	88.4
677.624	166.23
677.814	94.55
678.005	125.27
678.195	176.47
678.386	29.01
678.576	192.85
678.767	102.74
678.957	158.03
679.148	203.09
679.338	297.3
679.529	125.27
679.719	170.32
679.909	178.51
680.1	250.19
680.29	242
680.481	33.11
680.671	260.43
680.861	188.75
681.052	147.8
681.242	119.12
681.432	168.27
681.622	127.32
681.813	94.55
682.003	139.6
682.193	65.88
682.383	205.14
682.573	166.23
682.764	160.08
682.954	207.19
683.144	303.44
683.334	182.61
683.524	186.71
683.714	151.89
683.904	182.61
684.094	92.5
684.284	158.03
684.474	297.3
684.664	207.19
684.854	203.09
685.044	158.03
685.234	174.42
685.424	170.32
685.614	139.6
685.804	295.25
685.994	205.14
686.184	201.04
686.374	227.67
686.564	170.32
686.753	88.4
686.943	143.7
687.133	205.14
687.323	145.75
687.513	184.66
687.702	188.75
687.892	141.65
688.082	248.15
688.272	233.81
688.461	252.24
688.651	348.5
688.841	254.29
689.03	170.32
689.22	158.03
689.41	250.19
689.599	198.99
689.789	90.45
689.979	219.47
690.168	143.7
690.358	231.76
690.547	213.33
690.737	190.8
690.926	188.75
691.116	225.62
691.305	252.24
691.495	205.14
691.684	72.02
691.874	225.62
692.063	121.17
692.252	242
692.442	285.01
692.631	121.17
692.82	162.13
693.01	250.19
693.199	246.1
693.388	268.63
693.578	147.8
693.767	192.85
693.956	246.1
694.146	180.56
694.335	135.51
694.524	141.65
694.713	254.29
694.902	178.51
695.092	102.74
695.281	274.77
695.47	174.42
695.659	147.8
695.848	209.23
696.037	129.36
696.226	203.09
696.415	147.8
696.604	282.96
696.793	309.58
696.982	94.55
697.171	229.71
697.36	139.6
697.549	141.65
697.738	108.88
697.927	168.27
698.116	100.69
698.305	252.24
698.494	254.29
698.683	158.03
698.872	334.16
699.061	201.04
699.25	137.56
699.438	203.09
699.627	162.13
699.816	231.76
700.005	108.88
700.193	131.41
700.382	192.85
700.571	170.32
700.76	151.89
700.948	211.28
701.137	201.04
701.326	233.81
701.514	57.68
701.703	225.62
701.892	237.91
702.08	313.68
702.269	149.84
702.457	86.36
702.646	221.52
702.834	143.7
703.023	168.27
703.212	170.32
703.4	153.94
703.589	98.64
703.777	178.51
703.965	94.55
704.154	135.51
704.342	41.3
704.531	174.42
704.719	198.99
704.907	217.43
705.096	151.89
705.284	63.83
705.472	221.52
705.661	106.84
705.849	270.67
706.037	336.21
706.226	194.9
706.414	166.23
706.602	59.73
706.79	190.8
706.979	102.74
707.167	188.75
707.355	112.98
707.543	153.94
707.731	246.1
707.919	155.99
708.107	188.75
708.296	127.32
708.484	143.7
708.672	182.61
708.86	155.99
709.048	153.94
709.236	53.59
709.424	229.71
709.612	213.33
709.8	106.84
709.988	201.04
710.176	188.75
710.364	299.34
710.551	86.36
710.739	115.03
710.927	141.65
711.115	209.23
711.303	198.99
711.491	252.24
711.679	139.6
711.866	182.61
712.054	104.79
712.242	205.14
712.43	225.62
712.617	209.23
712.805	266.58
712.993	203.09
713.181	43.35
713.368	280.91
713.556	188.75
713.744	143.7
713.931	256.34
714.119	207.19
714.306	139.6
714.494	147.8
714.682	102.74
714.869	82.26
715.057	196.95
715.244	102.74
715.432	174.42
715.619	96.6
715.807	166.23
715.994	119.12
716.182	112.98
716.369	235.86
716.556	252.24
716.744	110.93
716.931	82.26
717.119	182.61
717.306	174.42
717.493	338.26
717.681	117.08
717.868	170.32
718.055	287.06
718.242	131.41
718.43	213.33
718.617	280.91
718.804	182.61
718.991	295.25
719.179	221.52
719.366	282.96
719.553	168.27
719.74	215.38
719.927	108.88
720.114	215.38
720.301	215.38
720.488	108.88
720.676	149.84
720.863	289.1
721.05	377.17
721.237	196.95
721.424	235.86
721.611	268.63
721.798	162.13
721.985	108.88
722.172	225.62
722.358	196.95
722.545	268.63
722.732	166.23
722.919	252.24
723.106	205.14
723.293	117.08
723.48	137.56
723.667	108.88
723.853	278.87
724.04	162.13
724.227	164.18
724.414	90.45
724.6	145.75
724.787	233.81
724.974	338.26
725.161	248.15
725.347	213.33
725.534	162.13
725.72	211.28
725.907	325.97
726.094	168.27
726.28	205.14
726.467	211.28
726.653	117.08
726.84	293.2
727.027	319.82
727.213	190.8
727.4	219.47
727.586	233.81
727.773	211.28
727.959	196.95
728.145	184.66
728.332	237.91
728.518	242
728.705	211.28
728.891	211.28
729.077	207.19
729.264	108.88
729.45	174.42
729.636	225.62
729.823	160.08
730.009	168.27
730.195	289.1
730.382	244.05
730.568	143.7
730.754	256.34
730.94	223.57
731.126	211.28
731.313	225.62
731.499	237.91
731.685	190.8
731.871	207.19
732.057	211.28
732.243	188.75
732.429	184.66
732.615	338.26
732.801	276.82
732.987	160.08
733.173	239.95
733.359	205.14
733.545	219.47
733.731	158.03
733.917	332.11
734.103	239.95
734.289	215.38
734.475	203.09
734.661	348.5
734.847	194.9
735.033	278.87
735.219	262.48
735.404	178.51
735.59	205.14
735.776	196.95
735.962	291.15
736.148	242
736.333	360.78
736.519	239.95
736.705	207.19
736.89	258.39
737.076	242
737.262	102.74
737.447	188.75
737.633	188.75
737.819	307.54
738.004	229.71
738.19	262.48
738.375	293.2
738.561	321.87
738.747	219.47
738.932	215.38
739.118	446.8
739.303	227.67
739.489	377.17
739.674	164.18
739.859	221.52
740.045	293.2
740.23	201.04
740.416	76.12
740.601	217.43
740.786	201.04
740.972	252.24
741.157	149.84
741.342	145.75
741.528	162.13
741.713	325.97
741.898	239.95
742.084	225.62
742.269	239.95
742.454	340.3
742.639	289.1
742.824	303.44
743.01	334.16
743.195	328.02
743.38	209.23
743.565	270.67
743.75	221.52
743.935	260.43
744.12	256.34
744.305	143.7
744.49	178.51
744.675	223.57
744.86	174.42
745.045	248.15
745.23	252.24
745.415	133.46
745.6	278.87
745.785	205.14
745.97	303.44
746.155	274.77
746.34	225.62
746.525	233.81
746.71	311.63
746.895	174.42
747.079	80.21
747.264	153.94
747.449	293.2
747.634	276.82
747.819	252.24
748.003	119.12
748.188	78.16
748.373	221.52
748.557	207.19
748.742	233.81
748.927	172.37
749.111	184.66
749.296	106.84
749.481	221.52
749.665	188.75
749.85	178.51
750.034	225.62
750.219	192.85
750.404	213.33
750.588	182.61
750.773	153.94
750.957	233.81
751.141	147.8
751.326	186.71
751.51	135.51
751.695	164.18
751.879	123.22
752.064	252.24
752.248	147.8
752.432	250.19
752.617	239.95
752.801	192.85
752.985	149.84
753.17	227.67
753.354	172.37
753.538	180.56
753.722	88.4
753.907	129.36
754.091	149.84
754.275	194.9
754.459	67.92
754.643	188.75
754.828	117.08
755.012	143.7
755.196	45.4
755.38	115.03
755.564	80.21
755.748	8.53
755.932	186.71
756.116	194.9
756.3	129.36
756.484	106.84
756.668	190.8
756.852	22.87
757.036	121.17
757.22	166.23
757.404	86.36
757.588	145.75
757.772	211.28
757.956	117.08
758.14	264.53
758.323	26.96
758.507	174.42
758.691	125.27
758.875	121.17
759.059	147.8
759.242	72.02
759.426	123.22
759.61	90.45
759.794	18.77
759.977	207.19
760.161	342.35
760.345	223.57
760.528	174.42
760.712	141.65
760.895	172.37
761.079	119.12
761.263	67.92
761.446	141.65
761.63	188.75
761.813	303.44
761.997	4.44
762.18	158.03
762.364	168.27
762.547	41.3
762.731	74.07
762.914	39.25
763.098	76.12
763.281	41.3
763.464	78.16
763.648	92.5
763.831	63.83
764.015	24.92
764.198	131.41
764.381	92.5
764.564	18.77
764.748	59.73
764.931	172.37
765.114	4.44
765.297	203.09
765.481	-54.95
765.664	151.89
765.847	78.16
766.03	69.97
766.213	57.68
766.397	65.88
766.58	20.82
766.763	90.45
766.946	20.82
767.129	86.36
767.312	43.35
767.495	6.49
767.678	104.79
767.861	41.3
768.044	26.96
768.227	45.4
768.41	141.65
768.593	12.63
768.776	88.4
768.959	37.2
769.142	242
769.324	47.44
769.507	129.36
769.69	39.25
769.873	112.98
770.056	262.48
770.239	16.73
770.421	141.65
770.604	221.52
770.787	80.21
770.97	51.54
771.152	8.53
771.335	129.36
771.518	-38.57
771.7	180.56
771.883	151.89
772.066	12.63
772.248	100.69
772.431	162.13
772.613	63.83
772.796	129.36
772.978	57.68
773.161	211.28
773.343	-24.23
773.526	24.92
773.708	-52.91
773.891	-63.15
774.073	43.35
774.256	26.96
774.438	166.23
774.621	4.44
774.803	61.78
774.985	12.63
775.168	110.93
775.35	45.4
775.532	98.64
775.715	31.06
775.897	98.64
776.079	63.83
776.261	80.21
776.444	112.98
776.626	-3.75
776.808	55.64
776.99	-32.43
777.173	123.22
777.355	100.69
777.537	129.36
777.719	53.59
777.901	55.64
778.083	41.3
778.265	14.68
778.447	104.79
778.629	41.3
778.811	51.54
778.993	76.12
779.175	123.22
779.357	47.44
779.539	-28.33
779.721	104.79
779.903	33.11
780.085	67.92
780.267	31.06
780.449	63.83
780.631	125.27
780.812	96.6
780.994	92.5
781.176	29.01
781.358	24.92
781.54	12.63
781.721	57.68
781.903	104.79
782.085	2.39
782.267	63.83
782.448	-34.47
782.63	-1.71
782.812	43.35
782.993	90.45
783.175	65.88
783.357	59.73
783.538	72.02
783.72	10.58
783.901	61.78
784.083	137.56
784.264	84.31
784.446	-5.8
784.627	-38.57
784.809	123.22
784.99	-77.48
785.172	-20.14
785.353	12.63
785.535	20.82
785.716	-36.52
785.897	-132.78
786.079	53.59
786.26	65.88
786.441	98.64
786.623	-61.1
786.804	-59.05
786.985	-28.33
787.167	176.47
787.348	20.82
787.529	14.68
787.71	237.91
787.891	45.4
788.073	-42.67
788.254	-104.11
788.435	192.85
788.616	51.54
788.797	-42.67
788.978	-24.23
789.159	-3.75
789.34	102.74
789.522	-1.71
789.703	-20.14
789.884	115.03
790.065	12.63
790.246	147.8
790.427	-18.09
790.607	182.61
790.788	104.79
790.969	14.68
791.15	29.01
791.331	-71.34
791.512	-22.19
791.693	-95.91
791.874	-59.05
792.054	221.52
792.235	37.2
792.416	-13.99
792.597	-81.58
792.778	131.41
792.958	108.88
793.139	35.16
793.32	20.82
793.5	-38.57
793.681	55.64
793.862	127.32
794.042	67.92
794.223	-104.11
794.404	-87.72
794.584	-108.2
794.765	-50.86
794.945	-13.99
795.126	65.88
795.306	98.64
795.487	39.25
795.667	4.44
795.848	10.58
796.028	-18.09
796.209	65.88
796.389	-7.85
796.57	-7.85
796.75	-30.38
796.93	-3.75
797.111	-24.23
797.291	4.44
797.471	178.51
797.652	-3.75
797.832	-104.11
798.012	123.22
798.192	-30.38
798.373	-75.43
798.553	-34.47
798.733	47.44
798.913	-61.1
799.093	-57
799.274	57.68
799.454	96.6
799.634	63.83
799.814	59.73
799.994	80.21
800.174	37.2
800.354	16.73
800.534	-22.19
800.714	-26.28
800.894	-50.86
801.074	-61.1
801.254	-11.95
801.434	92.5
801.614	26.96
801.794	-16.04
801.974	1960.25
802.154	-57
802.334	76.12
802.514	63.83
802.693	-20.14
802.873	6.49
803.053	176.47
803.233	22.87
803.413	-42.67
803.592	-77.48
803.772	-9.9
803.952	69.97
804.131	-57
804.311	78.16
804.491	14.68
804.67	-16.04
804.85	-13.99
805.03	86.36
805.209	147.8
805.389	-71.34
805.568	39.25
805.748	37.2
805.928	-69.29
806.107	29.01
806.287	98.64
806.466	125.27
806.646	-9.9
806.825	10.58
807.004	33.11
807.184	29.01
807.363	63.83
807.543	65.88
807.722	-24.23
807.901	143.7
808.081	86.36
808.26	-46.76
808.439	43.35
808.619	-61.1
808.798	-11.95
808.977	67.92
809.156	127.32
809.336	18.77
809.515	92.5
809.694	-167.59
809.873	-46.76
810.052	6.49
810.231	125.27
810.411	67.92
810.59	59.73
810.769	4.44
810.948	76.12
811.127	-79.53
811.306	-93.87
811.485	-13.99
811.664	112.98
811.843	-1.71
812.022	-18.09
812.201	-54.95
812.38	22.87
812.559	-16.04
812.737	43.35
812.916	-108.2
813.095	-71.34
813.274	24.92
813.453	80.21
813.632	-36.52
813.811	-3.75
813.989	-95.91
814.168	-42.67
814.347	-30.38
814.526	-42.67
814.704	90.45
814.883	106.84
815.062	-42.67
815.24	94.55
815.419	-65.19
815.598	51.54
815.776	-50.86
815.955	16.73
816.133	-95.91
816.312	8.53
816.49	-36.52
816.669	12.63
816.847	-124.58
817.026	57.68
817.204	55.64
817.383	-89.77
817.561	-34.47
817.74	119.12
817.918	8.53
818.097	-67.24
818.275	-54.95
818.453	45.4
818.632	33.11
818.81	37.2
818.988	59.73
819.167	-42.67
819.345	14.68
819.523	43.35
819.701	2.39
819.879	33.11
820.058	22.87
820.236	39.25
820.414	2.39
820.592	0.34
820.77	-46.76
820.948	16.73
821.127	-54.95
821.305	-1.71
821.483	-104.11
821.661	-40.62
821.839	-3.75
822.017	-83.63
822.195	-30.38
822.373	108.88
822.551	78.16
822.729	53.59
822.907	-20.14
823.085	39.25
823.262	33.11
823.44	0.34
823.618	-1.71
823.796	39.25
823.974	2.39
824.152	22.87
824.329	22.87
824.507	0.34
824.685	123.22
824.863	29.01
825.04	-3.75
825.218	-50.86
825.396	43.35
825.574	-34.47
825.751	26.96
825.929	41.3
826.107	-61.1
826.284	-24.23
826.462	-5.8
826.639	-59.05
826.817	-73.39
826.994	20.82
827.172	-63.15
827.349	37.2
827.527	37.2
827.704	-48.81
827.882	84.31
828.059	-42.67
828.237	49.49
828.414	67.92
828.591	-190.12
828.769	-22.19
828.946	-36.52
829.124	37.2
829.301	20.82
829.478	18.77
829.655	31.06
829.833	-34.47
830.01	-171.69
830.187	29.01
830.364	18.77
830.542	-9.9
830.719	143.7
830.896	6.49
831.073	-9.9
831.25	61.78
831.427	-3.75
831.604	29.01
831.782	-87.72
831.959	74.07
832.136	-3.75
832.313	-20.14
832.49	-75.43
832.667	10.58
832.844	-30.38
833.021	53.59
833.198	94.55
833.374	-40.62
833.551	106.84
833.728	51.54
833.905	104.79
834.082	-38.57
834.259	4.44
834.436	92.5
834.612	-75.43
834.789	49.49
834.966	-91.82
835.143	-18.09
835.319	-104.11
835.496	63.83
835.673	20.82
835.85	59.73
836.026	10.58
836.203	115.03
836.38	-120.49
836.556	0.34
836.733	-1.71
836.909	67.92
837.086	-28.33
837.262	-100.01
837.439	-22.19
837.616	-102.06
837.792	-11.95
837.968	65.88
838.145	-67.24
838.321	2.39
838.498	104.79
838.674	45.4
838.851	-36.52
839.027	-26.28
839.203	43.35
839.38	-1.71
839.556	-38.57
839.732	96.6
839.909	-46.76
840.085	12.63
840.261	-63.15
840.437	18.77
840.614	90.45
840.79	2.39
840.966	78.16
841.142	24.92
841.318	-63.15
841.494	51.54
841.671	92.5
841.847	-40.62
842.023	-59.05
842.199	39.25
842.375	57.68
842.551	-124.58
842.727	-69.29
842.903	131.41
843.079	-130.73
843.255	88.4
843.431	-20.14
843.607	20.82
843.783	-136.87
843.959	37.2
844.134	-71.34
844.31	43.35
844.486	-83.63
844.662	-100.01
844.838	18.77
845.013	0.34
845.189	22.87
845.365	51.54
845.541	74.07
845.716	84.31
845.892	53.59
846.068	-18.09
846.244	-161.45
846.419	-26.28
846.595	-132.78
846.77	-36.52
846.946	112.98
847.122	37.2
847.297	-26.28
847.473	133.46
847.648	-52.91
847.824	35.16
847.999	-108.2
848.175	-16.04
848.35	33.11
848.526	80.21
848.701	33.11
848.876	74.07
849.052	18.77
849.227	-52.91
849.403	-7.85
849.578	-1.71
849.753	18.77
849.929	39.25
850.104	-79.53
850.279	4.44
850.454	-9.9
850.63	39.25
850.805	39.25
850.98	-28.33
851.155	-65.19
851.33	20.82
851.505	-108.2
851.681	137.56
851.856	-34.47
852.031	82.26
852.206	16.73
852.381	6.49
852.556	-24.23
852.731	26.96
852.906	39.25
853.081	43.35
853.256	78.16
853.431	6.49
853.606	-81.58
853.781	-89.77
853.956	-102.06
854.131	96.6
854.305	-13.99
854.48	-54.95
854.655	-77.48
854.83	-75.43
855.005	-36.52
855.18	24.92
855.354	-81.58
855.529	-30.38
855.704	-59.05
855.879	53.59
856.053	-32.43
856.228	47.44
856.403	-71.34
856.577	117.08
856.752	-71.34
856.926	-9.9
857.101	-16.04
857.276	-69.29
857.45	-40.62
857.625	69.97
857.799	18.77
857.974	-5.8
858.148	-46.76
858.323	-46.76
858.497	-13.99
858.672	-36.52
858.846	2.39
859.02	51.54
859.195	-79.53
859.369	-28.33
859.543	59.73
859.718	-28.33
859.892	0.34
860.066	22.87
860.241	-16.04
860.415	-42.67
860.589	-50.86
860.763	-32.43
860.938	10.58
861.112	33.11
861.286	-5.8
861.46	-20.14
861.634	10.58
861.808	53.59
861.982	16.73
862.157	-145.06
862.331	-104.11
862.505	-95.91
862.679	-93.87
862.853	-61.1
863.027	-75.43
863.201	96.6
863.375	-32.43
863.549	80.21
863.722	-46.76
863.896	94.55
864.07	-69.29
864.244	6.49
864.418	-18.09
864.592	61.78
864.766	8.53
864.939	-44.71
865.113	-20.14
865.287	37.2
865.461	-20.14
865.634	43.35
865.808	-28.33
865.982	-18.09
866.156	-63.15
866.329	-69.29
866.503	14.68
866.676	53.59
866.85	80.21
867.024	-71.34
867.197	-32.43
867.371	10.58
867.544	63.83
867.718	-167.59
867.891	88.4
868.065	-147.11
868.238	-3.75
868.412	168.27
868.585	-28.33
868.759	-34.47
868.932	-106.15
869.105	-104.11
869.279	-7.85
869.452	-161.45
869.625	0.34
869.799	-61.1
869.972	-32.43
870.145	-46.76
870.319	37.2
870.492	-89.77
870.665	10.58
870.838	-126.63
871.011	-186.02
871.185	-30.38
871.358	-28.33
871.531	10.58
871.704	-52.91
871.877	26.96
872.05	-5.8
872.223	-9.9
872.396	94.55
872.569	88.4
872.742	-57
872.915	2.39
873.088	-32.43
873.261	-71.34
873.434	45.4
873.607	4.44
873.78	129.36
873.953	-54.95
874.126	43.35
874.299	6.49
874.471	-48.81
874.644	-18.09
874.817	94.55
874.99	102.74
875.163	-16.04
875.335	10.58
875.508	-75.43
875.681	84.31
875.853	31.06
876.026	8.53
876.199	65.88
876.371	-28.33
876.544	-44.71
876.717	-3.75
876.889	-83.63
877.062	-13.99
877.234	-52.91
877.407	-7.85
877.579	6.49
877.752	-3.75
877.924	35.16
878.097	14.68
878.269	14.68
878.442	-22.19
878.614	-28.33
878.786	65.88
878.959	55.64
879.131	8.53
879.303	-81.58
879.476	47.44
879.648	33.11
879.82	-24.23
879.993	-104.11
880.165	-57
880.337	-95.91
880.509	-34.47
880.681	-143.02
880.854	-36.52
881.026	49.49
881.198	88.4
881.37	-73.39
881.542	-48.81
881.714	24.92
881.886	-16.04
882.058	-24.23
882.23	-36.52
882.402	-54.95
882.574	-3.75
882.746	100.69
882.918	31.06
883.09	72.02
883.262	14.68
883.434	16.73
883.606	-40.62
883.778	-26.28
883.95	117.08
884.122	-5.8
884.293	100.69
884.465	67.92
884.637	106.84
884.809	-30.38
884.98	59.73
885.152	55.64
885.324	47.44
885.496	-30.38
885.667	-40.62
885.839	-40.62
886.011	47.44
886.182	98.64
886.354	123.22
886.525	-38.57
886.697	-36.52
886.869	-5.8
887.04	-54.95
887.212	35.16
887.383	178.51
887.555	80.21
887.726	-22.19
887.897	-42.67
888.069	41.3
888.24	55.64
888.412	-73.39
888.583	-57
888.754	-77.48
888.926	-69.29
889.097	43.35
889.268	-108.2
889.44	-30.38
889.611	-83.63
889.782	-50.86
889.953	-26.28
890.125	80.21
890.296	-118.44
890.467	-36.52
890.638	-71.34
890.809	26.96
890.98	-122.54
891.151	76.12
891.323	162.13
891.494	-48.81
891.665	51.54
891.836	-16.04
892.007	35.16
892.178	35.16
892.349	-7.85
892.52	-34.47
892.691	14.68
892.862	-85.67
893.032	-67.24
893.203	29.01
893.374	8.53
893.545	24.92
893.716	-81.58
893.887	26.96
894.057	-30.38
894.228	-67.24
894.399	-67.24
894.57	37.2
894.74	-32.43
894.911	20.82
895.082	-22.19
895.253	-126.63
895.423	90.45
895.594	84.31
895.764	69.97
895.935	-97.96
896.106	55.64
896.276	-106.15
896.447	-5.8
896.617	-32.43
896.788	-77.48
896.958	-52.91
897.129	-36.52
897.299	-65.19
897.47	123.22
897.64	-13.99
897.81	0.34
897.981	-36.52
898.151	-71.34
898.322	-20.14
898.492	147.8
898.662	-61.1
898.832	-36.52
899.003	55.64
899.173	88.4
899.343	-79.53
899.513	-38.57
