Data from USB4F104151__55__10-43-34-175.txt Node

Date: Wed Feb 26 10:43:34 EST 2025
User: louis
Spectrometer: USB4F10415
Trigger mode: 4
Integration Time (sec): 1.000000E-1
Scans to average: 1
Electric dark correction enabled: true
Nonlinearity correction enabled: false
Boxcar width: 0
XAxis mode: Wavelengths
Number of Pixels in Spectrum: 3648
>>>>>Begin Spectral Data<<<<<
178.204	-402.08
178.424	-402.08
178.644	-402.08
178.864	-385.7
179.084	-371.37
179.304	34.13
179.524	48.47
179.744	36.18
179.964	97.62
180.184	-19.11
180.404	27.99
180.624	-72.36
180.844	-70.31
181.064	-68.27
181.283	-37.55
181.503	-33.45
181.723	56.66
181.943	-107.18
182.163	171.35
182.383	9.56
182.602	23.89
182.822	150.87
183.042	-19.11
183.262	7.51
183.482	-27.31
183.701	38.23
183.921	73.04
184.141	-64.17
184.361	89.43
184.58	5.46
184.8	11.61
185.02	-94.89
185.239	99.67
185.459	44.37
185.679	118.1
185.898	-94.89
186.118	87.38
186.338	-53.93
186.557	50.52
186.777	-58.03
186.997	-2.73
187.216	-33.45
187.436	124.24
187.655	114
187.875	109.91
188.095	-6.83
188.314	111.96
188.534	159.06
188.753	73.04
188.973	114
189.192	197.97
189.412	-0.68
189.631	7.51
189.851	40.28
190.07	169.3
190.29	-68.27
190.509	40.28
190.729	9.56
190.948	97.62
191.168	154.96
191.387	23.89
191.607	40.28
191.826	40.28
192.045	124.24
192.265	21.85
192.484	27.99
192.704	9.56
192.923	-74.41
193.142	208.21
193.362	71
193.581	150.87
193.8	81.24
194.02	97.62
194.239	38.23
194.458	126.29
194.678	17.75
194.897	50.52
195.116	44.37
195.335	23.89
195.555	5.46
195.774	-4.78
195.993	116.05
196.212	46.42
196.432	-33.45
196.651	23.89
196.87	-45.74
197.089	222.55
197.308	38.23
197.528	89.43
197.747	-78.51
197.966	-0.68
198.185	81.24
198.404	-55.98
198.623	19.8
198.842	171.35
199.062	93.52
199.281	114
199.5	56.66
199.719	-8.87
199.938	27.99
200.157	71
200.376	85.33
200.595	105.81
200.814	58.71
201.033	-12.97
201.252	93.52
201.471	46.42
201.69	89.43
201.909	52.56
202.128	107.86
202.347	66.9
202.566	46.42
202.785	-64.17
203.004	-10.92
203.223	212.31
203.442	25.94
203.661	-41.64
203.879	42.32
204.098	130.39
204.317	-45.74
204.536	132.44
204.755	85.33
204.974	83.28
205.193	77.14
205.411	212.31
205.63	52.56
205.849	62.8
206.068	21.85
206.287	-90.79
206.505	152.91
206.724	21.85
206.943	5.46
207.162	-37.55
207.381	116.05
207.599	40.28
207.818	58.71
208.037	27.99
208.255	15.7
208.474	48.47
208.693	81.24
208.911	1.37
209.13	66.9
209.349	89.43
209.567	89.43
209.786	140.63
210.005	40.28
210.223	89.43
210.442	-168.62
210.661	-8.87
210.879	71
211.098	42.32
211.316	-2.73
211.535	62.8
211.753	-41.64
211.972	89.43
212.191	23.89
212.409	36.18
212.628	95.57
212.846	-33.45
213.065	124.24
213.283	52.56
213.502	-4.78
213.72	32.08
213.938	25.94
214.157	-33.45
214.375	134.48
214.594	-55.98
214.812	68.95
215.031	34.13
215.249	64.85
215.467	44.37
215.686	23.89
215.904	79.19
216.122	52.56
216.341	93.52
216.559	27.99
216.778	148.82
216.996	81.24
217.214	71
217.432	-19.11
217.651	3.41
217.869	-10.92
218.087	48.47
218.306	-25.26
218.524	19.8
218.742	-49.83
218.96	95.57
219.179	30.04
219.397	38.23
219.615	204.11
219.833	124.24
220.051	-33.45
220.27	40.28
220.488	216.4
220.706	95.57
220.924	87.38
221.142	11.61
221.36	60.76
221.578	50.52
221.796	30.04
222.015	40.28
222.233	34.13
222.451	197.97
222.669	-41.64
222.887	111.96
223.105	27.99
223.323	27.99
223.541	-84.65
223.759	15.7
223.977	-12.97
224.195	157.01
224.413	44.37
224.631	-37.55
224.849	40.28
225.067	177.49
225.285	-74.41
225.503	-25.26
225.721	-148.14
225.939	50.52
226.157	21.85
226.375	159.06
226.592	13.65
226.81	73.04
227.028	89.43
227.246	130.39
227.464	21.85
227.682	107.86
227.9	93.52
228.117	111.96
228.335	73.04
228.553	68.95
228.771	-0.68
228.989	103.76
229.206	64.85
229.424	-0.68
229.642	-17.07
229.86	-0.68
230.077	118.1
230.295	71
230.513	87.38
230.731	79.19
230.948	116.05
231.166	185.68
231.384	23.89
231.601	7.51
231.819	193.87
232.037	-66.22
232.254	-35.5
232.472	23.89
232.689	-66.22
232.907	95.57
233.125	5.46
233.342	-35.5
233.56	-2.73
233.777	-60.07
233.995	52.56
234.213	30.04
234.43	44.37
234.648	9.56
234.865	38.23
235.083	97.62
235.3	-45.74
235.518	171.35
235.735	144.72
235.953	99.67
236.17	73.04
236.388	27.99
236.605	-15.02
236.822	75.09
237.04	132.44
237.257	5.46
237.475	-45.74
237.692	122.2
237.909	93.52
238.127	-64.17
238.344	3.41
238.562	32.08
238.779	-58.03
238.996	-66.22
239.214	-29.35
239.431	52.56
239.648	42.32
239.865	120.15
240.083	56.66
240.3	32.08
240.517	-39.59
240.735	9.56
240.952	216.4
241.169	7.51
241.386	142.68
241.603	68.95
241.821	-66.22
242.038	136.53
242.255	54.61
242.472	-35.5
242.689	118.1
242.907	62.8
243.124	130.39
243.341	73.04
243.558	-8.87
243.775	-80.55
243.992	-31.4
244.209	81.24
244.426	218.45
244.643	109.91
244.86	-19.11
245.078	42.32
245.295	40.28
245.512	-10.92
245.729	52.56
245.946	111.96
246.163	-4.78
246.38	114
246.597	66.9
246.814	89.43
247.031	25.94
247.248	23.89
247.464	81.24
247.681	-55.98
247.898	73.04
248.115	-21.16
248.332	-12.97
248.549	122.2
248.766	171.35
248.983	118.1
249.2	66.9
249.417	71
249.633	9.56
249.85	-2.73
250.067	75.09
250.284	30.04
250.501	17.75
250.717	46.42
250.934	-115.37
251.151	25.94
251.368	-0.68
251.585	-0.68
251.801	58.71
252.018	-31.4
252.235	214.35
252.451	-51.88
252.668	34.13
252.885	81.24
253.102	13.65
253.318	-4.78
253.535	-82.6
253.752	17.75
253.968	9.56
254.185	-37.55
254.401	-0.68
254.618	30.04
254.835	-12.97
255.051	122.2
255.268	81.24
255.484	-12.97
255.701	99.67
255.917	83.28
256.134	-94.89
256.351	52.56
256.567	-68.27
256.784	13.65
257	-66.22
257.217	128.34
257.433	122.2
257.65	64.85
257.866	175.44
258.082	-25.26
258.299	15.7
258.515	36.18
258.732	-64.17
258.948	9.56
259.165	46.42
259.381	19.8
259.597	114
259.814	-39.59
260.03	-43.69
260.246	9.56
260.463	111.96
260.679	81.24
260.895	32.08
261.112	-0.68
261.328	-0.68
261.544	-37.55
261.761	206.16
261.977	-43.69
262.193	-70.31
262.409	89.43
262.626	68.95
262.842	68.95
263.058	-21.16
263.274	54.61
263.49	75.09
263.707	95.57
263.923	97.62
264.139	-78.51
264.355	25.94
264.571	93.52
264.787	-41.64
265.004	107.86
265.22	19.8
265.436	-12.97
265.652	95.57
265.868	58.71
266.084	-58.03
266.3	7.51
266.516	-4.78
266.732	120.15
266.948	-12.97
267.164	52.56
267.38	48.47
267.596	103.76
267.812	191.83
268.028	48.47
268.244	-35.5
268.46	11.61
268.676	-33.45
268.892	58.71
269.108	-15.02
269.324	42.32
269.54	-10.92
269.756	93.52
269.972	-88.75
270.188	36.18
270.403	-37.55
270.619	32.08
270.835	91.48
271.051	13.65
271.267	44.37
271.483	-31.4
271.698	142.68
271.914	34.13
272.13	62.8
272.346	-6.83
272.562	130.39
272.777	130.39
272.993	-29.35
273.209	-39.59
273.425	103.76
273.64	-92.84
273.856	163.15
274.072	-60.07
274.287	42.32
274.503	-25.26
274.719	140.63
274.934	-0.68
275.15	-123.56
275.366	27.99
275.581	5.46
275.797	58.71
276.012	34.13
276.228	9.56
276.444	46.42
276.659	134.48
276.875	-139.94
277.09	-8.87
277.306	13.65
277.521	146.77
277.737	58.71
277.952	64.85
278.168	21.85
278.383	64.85
278.599	42.32
278.814	136.53
279.03	71
279.245	97.62
279.461	23.89
279.676	97.62
279.892	1.37
280.107	-78.51
280.322	-19.11
280.538	46.42
280.753	-49.83
280.969	60.76
281.184	68.95
281.399	146.77
281.615	13.65
281.83	87.38
282.045	27.99
282.26	21.85
282.476	44.37
282.691	99.67
282.906	79.19
283.122	17.75
283.337	42.32
283.552	77.14
283.767	-98.99
283.983	30.04
284.198	27.99
284.413	19.8
284.628	-90.79
284.843	21.85
285.058	167.25
285.274	85.33
285.489	-76.46
285.704	85.33
285.919	-25.26
286.134	42.32
286.349	101.72
286.564	-10.92
286.779	114
286.995	-33.45
287.21	-6.83
287.425	73.04
287.64	-35.5
287.855	11.61
288.07	-66.22
288.285	138.58
288.5	99.67
288.715	107.86
288.93	21.85
289.145	-58.03
289.36	107.86
289.575	48.47
289.79	56.66
290.004	-51.88
290.219	60.76
290.434	-21.16
290.649	-2.73
290.864	7.51
291.079	60.76
291.294	-25.26
291.509	99.67
291.724	-8.87
291.938	17.75
292.153	71
292.368	54.61
292.583	19.8
292.798	118.1
293.012	95.57
293.227	36.18
293.442	-4.78
293.657	62.8
293.871	134.48
294.086	52.56
294.301	122.2
294.516	68.95
294.73	25.94
294.945	-47.79
295.16	101.72
295.374	120.15
295.589	103.76
295.804	34.13
296.018	7.51
296.233	105.81
296.447	-6.83
296.662	-51.88
296.877	87.38
297.091	132.44
297.306	15.7
297.52	-17.07
297.735	105.81
297.949	54.61
298.164	73.04
298.378	77.14
298.593	-8.87
298.807	-12.97
299.022	-29.35
299.236	122.2
299.451	-2.73
299.665	-21.16
299.88	58.71
300.094	3.41
300.309	13.65
300.523	89.43
300.737	-33.45
300.952	68.95
301.166	118.1
301.381	-15.02
301.595	-35.5
301.809	60.76
302.024	66.9
302.238	-0.68
302.452	138.58
302.667	27.99
302.881	210.26
303.095	157.01
303.309	89.43
303.524	101.72
303.738	-15.02
303.952	-23.21
304.166	19.8
304.381	-21.16
304.595	122.2
304.809	-74.41
305.023	73.04
305.237	58.71
305.452	-4.78
305.666	56.66
305.88	128.34
306.094	71
306.308	101.72
306.522	120.15
306.736	7.51
306.95	150.87
307.164	30.04
307.379	44.37
307.593	140.63
307.807	120.15
308.021	83.28
308.235	71
308.449	-39.59
308.663	50.52
308.877	208.21
309.091	77.14
309.305	32.08
309.519	-27.31
309.733	179.54
309.947	-80.55
310.161	64.85
310.374	85.33
310.588	124.24
310.802	3.41
311.016	-29.35
311.23	64.85
311.444	-70.31
311.658	-35.5
311.872	148.82
312.085	146.77
312.299	58.71
312.513	130.39
312.727	60.76
312.941	-66.22
313.154	1.37
313.368	50.52
313.582	44.37
313.796	150.87
314.009	-21.16
314.223	58.71
314.437	-4.78
314.651	99.67
314.864	21.85
315.078	17.75
315.292	-90.79
315.505	42.32
315.719	83.28
315.933	-8.87
316.146	-10.92
316.36	-23.21
316.573	89.43
316.787	71
317.001	3.41
317.214	-47.79
317.428	120.15
317.641	-31.4
317.855	-15.02
318.068	30.04
318.282	15.7
318.495	224.59
318.709	71
318.922	58.71
319.136	42.32
319.349	89.43
319.563	-25.26
319.776	34.13
319.99	25.94
320.203	66.9
320.417	-12.97
320.63	134.48
320.843	116.05
321.057	-0.68
321.27	32.08
321.483	36.18
321.697	171.35
321.91	48.47
322.124	128.34
322.337	68.95
322.55	5.46
322.763	87.38
322.977	66.9
323.19	36.18
323.403	38.23
323.617	21.85
323.83	107.86
324.043	-25.26
324.256	60.76
324.469	-29.35
324.683	183.63
324.896	42.32
325.109	23.89
325.322	-33.45
325.535	66.9
325.748	124.24
325.962	25.94
326.175	93.52
326.388	-10.92
326.601	150.87
326.814	-0.68
327.027	79.19
327.24	163.15
327.453	-156.33
327.666	27.99
327.879	175.44
328.092	-33.45
328.305	52.56
328.518	5.46
328.731	-23.21
328.944	38.23
329.157	17.75
329.37	30.04
329.583	161.11
329.796	122.2
330.009	-47.79
330.222	66.9
330.435	81.24
330.648	44.37
330.861	5.46
331.073	64.85
331.286	93.52
331.499	87.38
331.712	-51.88
331.925	68.95
332.138	38.23
332.35	62.8
332.563	27.99
332.776	122.2
332.989	-49.83
333.202	42.32
333.414	40.28
333.627	36.18
333.84	-15.02
334.053	93.52
334.265	21.85
334.478	27.99
334.691	-21.16
334.903	40.28
335.116	34.13
335.329	3.41
335.541	116.05
335.754	146.77
335.966	-29.35
336.179	-4.78
336.392	-4.78
336.604	23.89
336.817	15.7
337.029	87.38
337.242	81.24
337.454	75.09
337.667	40.28
337.88	89.43
338.092	40.28
338.305	97.62
338.517	21.85
338.729	64.85
338.942	75.09
339.154	-6.83
339.367	-76.46
339.579	52.56
339.792	-41.64
340.004	148.82
340.217	-49.83
340.429	9.56
340.641	-92.84
340.854	-12.97
341.066	-6.83
341.278	130.39
341.491	195.92
341.703	40.28
341.915	7.51
342.128	152.91
342.34	52.56
342.552	11.61
342.764	68.95
342.977	-8.87
343.189	50.52
343.401	73.04
343.613	-4.78
343.826	5.46
344.038	1.37
344.25	40.28
344.462	-103.08
344.674	52.56
344.886	19.8
345.099	58.71
345.311	148.82
345.523	-33.45
345.735	-98.99
345.947	93.52
346.159	-31.4
346.371	38.23
346.583	11.61
346.795	189.78
347.007	38.23
347.219	54.61
347.431	21.85
347.643	81.24
347.855	-68.27
348.067	71
348.279	-105.13
348.491	21.85
348.703	58.71
348.915	48.47
349.127	1.37
349.339	23.89
349.551	-39.59
349.763	114
349.975	-72.36
350.187	154.96
350.399	93.52
350.61	132.44
350.822	27.99
351.034	44.37
351.246	89.43
351.458	-0.68
351.669	101.72
351.881	130.39
352.093	154.96
352.305	165.2
352.517	17.75
352.728	83.28
352.94	42.32
353.152	99.67
353.363	15.7
353.575	48.47
353.787	83.28
353.999	120.15
354.21	208.21
354.422	-31.4
354.633	89.43
354.845	68.95
355.057	25.94
355.268	46.42
355.48	122.2
355.692	-29.35
355.903	38.23
356.115	-19.11
356.326	-98.99
356.538	46.42
356.749	73.04
356.961	150.87
357.172	-66.22
357.384	30.04
357.595	232.79
357.807	-15.02
358.018	-53.93
358.23	13.65
358.441	116.05
358.653	75.09
358.864	48.47
359.075	-6.83
359.287	66.9
359.498	60.76
359.709	105.81
359.921	77.14
360.132	34.13
360.344	25.94
360.555	-29.35
360.766	40.28
360.977	-76.46
361.189	124.24
361.4	126.29
361.611	75.09
361.823	75.09
362.034	-58.03
362.245	-37.55
362.456	27.99
362.667	34.13
362.879	-8.87
363.09	181.59
363.301	81.24
363.512	42.32
363.723	60.76
363.935	5.46
364.146	138.58
364.357	23.89
364.568	48.47
364.779	3.41
364.99	197.97
365.201	-43.69
365.412	120.15
365.623	-37.55
365.834	-15.02
366.045	-8.87
366.256	118.1
366.467	48.47
366.678	-62.12
366.889	-2.73
367.1	-33.45
367.311	89.43
367.522	21.85
367.733	77.14
367.944	30.04
368.155	-25.26
368.366	120.15
368.577	81.24
368.788	97.62
368.999	3.41
369.209	107.86
369.42	169.3
369.631	212.31
369.842	56.66
370.053	30.04
370.264	120.15
370.474	3.41
370.685	-0.68
370.896	-35.5
371.107	101.72
371.317	54.61
371.528	23.89
371.739	77.14
371.95	150.87
372.16	48.47
372.371	-6.83
372.582	-21.16
372.792	52.56
373.003	77.14
373.214	36.18
373.424	54.61
373.635	-58.03
373.846	154.96
374.056	7.51
374.267	118.1
374.477	163.15
374.688	-0.68
374.898	7.51
375.109	38.23
375.319	58.71
375.53	150.87
375.74	79.19
375.951	19.8
376.161	87.38
376.372	124.24
376.582	-0.68
376.793	87.38
377.003	-68.27
377.214	11.61
377.424	93.52
377.635	48.47
377.845	32.08
378.055	177.49
378.266	54.61
378.476	79.19
378.686	19.8
378.897	13.65
379.107	132.44
379.317	97.62
379.528	91.48
379.738	50.52
379.948	-37.55
380.158	66.9
380.369	83.28
380.579	54.61
380.789	19.8
380.999	54.61
381.21	138.58
381.42	234.83
381.63	60.76
381.84	64.85
382.05	54.61
382.261	95.57
382.471	40.28
382.681	-31.4
382.891	220.5
383.101	-33.45
383.311	15.7
383.521	17.75
383.731	118.1
383.941	157.01
384.151	89.43
384.361	7.51
384.571	32.08
384.781	25.94
384.991	71
385.201	169.3
385.411	54.61
385.621	56.66
385.831	38.23
386.041	-33.45
386.251	71
386.461	171.35
386.671	27.99
386.881	56.66
387.091	36.18
387.301	36.18
387.511	77.14
387.72	97.62
387.93	99.67
388.14	-49.83
388.35	79.19
388.56	83.28
388.769	138.58
388.979	-4.78
389.189	3.41
389.399	48.47
389.609	200.02
389.818	44.37
390.028	40.28
390.238	142.68
390.447	3.41
390.657	38.23
390.867	91.48
391.076	-17.07
391.286	54.61
391.496	-23.21
391.705	5.46
391.915	136.53
392.125	195.92
392.334	-23.21
392.544	134.48
392.753	34.13
392.963	19.8
393.172	-8.87
393.382	-84.65
393.591	142.68
393.801	77.14
394.01	148.82
394.22	77.14
394.429	81.24
394.639	44.37
394.848	77.14
395.058	58.71
395.267	27.99
395.477	11.61
395.686	89.43
395.895	179.54
396.105	177.49
396.314	138.58
396.524	-8.87
396.733	30.04
396.942	103.76
397.152	32.08
397.361	152.91
397.57	9.56
397.78	-0.68
397.989	99.67
398.198	140.63
398.407	17.75
398.617	111.96
398.826	54.61
399.035	-10.92
399.244	56.66
399.453	32.08
399.663	83.28
399.872	93.52
400.081	-68.27
400.29	204.11
400.499	9.56
400.708	144.72
400.917	3.41
401.127	66.9
401.336	-23.21
401.545	126.29
401.754	157.01
401.963	103.76
402.172	-23.21
402.381	17.75
402.59	-8.87
402.799	17.75
403.008	144.72
403.217	103.76
403.426	-21.16
403.635	-76.46
403.844	30.04
404.053	54.61
404.262	-72.36
404.471	179.54
404.68	30.04
404.888	-23.21
405.097	11.61
405.306	32.08
405.515	99.67
405.724	-21.16
405.933	111.96
406.142	71
406.35	163.15
406.559	-31.4
406.768	-12.97
406.977	163.15
407.185	32.08
407.394	114
407.603	3.41
407.812	64.85
408.02	99.67
408.229	38.23
408.438	124.24
408.646	-92.84
408.855	-8.87
409.064	66.9
409.272	-21.16
409.481	87.38
409.69	-31.4
409.898	7.51
410.107	128.34
410.315	124.24
410.524	-29.35
410.733	66.9
410.941	3.41
411.15	81.24
411.358	128.34
411.567	165.2
411.775	11.61
411.984	62.8
412.192	109.91
412.401	7.51
412.609	159.06
412.818	93.52
413.026	93.52
413.234	-10.92
413.443	13.65
413.651	-49.83
413.86	79.19
414.068	175.44
414.276	136.53
414.485	-2.73
414.693	152.91
414.901	208.21
415.11	91.48
415.318	54.61
415.526	71
415.734	111.96
415.943	64.85
416.151	111.96
416.359	50.52
416.567	152.91
416.776	109.91
416.984	146.77
417.192	181.59
417.4	36.18
417.608	54.61
417.817	-0.68
418.025	148.82
418.233	64.85
418.441	-4.78
418.649	-29.35
418.857	163.15
419.065	146.77
419.273	-29.35
419.481	11.61
419.689	-0.68
419.897	36.18
420.105	-21.16
420.313	195.92
420.521	154.96
420.729	105.81
420.937	27.99
421.145	-41.64
421.353	111.96
421.561	114
421.769	179.54
421.977	-23.21
422.185	87.38
422.393	73.04
422.601	85.33
422.809	66.9
423.017	89.43
423.224	89.43
423.432	169.3
423.64	58.71
423.848	169.3
424.056	56.66
424.263	146.77
424.471	5.46
424.679	144.72
424.887	-2.73
425.094	122.2
425.302	185.68
425.51	93.52
425.718	97.62
425.925	101.72
426.133	-29.35
426.341	193.87
426.548	19.8
426.756	40.28
426.964	189.78
427.171	60.76
427.379	75.09
427.586	95.57
427.794	105.81
428.001	189.78
428.209	11.61
428.417	238.93
428.624	128.34
428.832	173.39
429.039	64.85
429.247	124.24
429.454	150.87
429.662	179.54
429.869	89.43
430.076	52.56
430.284	152.91
430.491	185.68
430.699	179.54
430.906	210.26
431.114	181.59
431.321	89.43
431.528	130.39
431.736	109.91
431.943	247.12
432.15	144.72
432.358	150.87
432.565	265.55
432.772	165.2
432.979	263.51
433.187	193.87
433.394	300.37
433.601	81.24
433.808	193.87
434.016	288.08
434.223	191.83
434.43	281.94
434.637	214.35
434.844	277.84
435.052	243.03
435.259	359.76
435.466	290.13
435.673	341.33
435.88	283.98
436.087	349.52
436.294	279.89
436.501	456.01
436.708	273.75
436.915	335.18
437.122	398.67
437.329	251.22
437.537	413.01
437.743	390.48
437.95	429.39
438.157	439.63
438.364	476.49
438.571	453.97
438.778	550.22
438.985	558.41
439.192	634.19
439.399	505.17
439.606	478.54
439.813	589.13
440.02	699.72
440.227	892.23
440.433	716.11
440.64	695.63
440.847	589.13
441.054	638.28
441.261	896.33
441.467	773.45
441.674	720.2
441.881	888.14
442.088	800.07
442.294	836.94
442.501	943.43
442.708	1017.16
442.914	974.15
443.121	1025.35
443.328	959.81
443.534	1168.71
443.741	1154.37
443.948	951.62
444.154	1189.19
444.361	1348.93
444.568	1181
444.774	1334.59
444.981	1133.89
445.187	1449.28
445.394	1355.07
445.6	1320.26
445.807	1516.86
446.013	1504.57
446.22	1523.01
446.426	1752.38
446.633	1762.62
446.839	1924.41
447.046	1686.84
447.252	1959.22
447.459	1938.74
447.665	2073.91
447.871	2174.26
448.078	2338.1
448.284	2401.58
448.491	2471.22
448.697	2510.13
448.903	2618.67
449.11	2680.11
449.316	2649.39
449.522	2866.47
449.728	2983.21
449.935	3050.79
450.141	3130.66
450.347	3441.95
450.553	3339.55
450.76	3564.83
450.966	3659.04
451.172	3726.62
451.378	3902.75
451.584	3964.18
451.791	4318.48
451.997	4293.91
452.203	4349.2
452.409	4443.41
452.615	4637.97
452.821	4668.69
453.027	4687.12
453.233	5446.91
453.44	5025.03
453.646	5377.28
453.852	5473.54
454.058	5883.13
454.264	6163.7
454.47	6391.03
454.676	6495.47
454.882	7118.06
455.088	6833.39
455.294	7308.52
455.5	7904.48
455.705	8133.85
455.911	8144.09
456.117	8318.17
456.323	8455.38
456.529	8529.11
456.735	9489.6
456.941	9557.19
457.147	9993.4
457.352	10409.14
457.558	10636.47
457.764	11257
457.97	11619.49
458.176	11904.16
458.381	12721.3
458.587	12887.18
458.793	13552.77
458.999	13370.51
459.204	15187.05
459.41	15711.33
459.616	15465.58
459.821	16405.6
460.027	17183.82
460.233	17837.13
460.438	17837.13
460.644	18818.1
460.85	19076.15
461.055	20069.41
461.261	20821.02
461.466	20296.74
461.672	20546.59
461.878	23198.71
462.083	23208.95
462.289	23372.78
462.494	24251.36
462.7	24595.42
462.905	25035.74
463.111	26698.69
463.316	28038.06
463.522	28709.79
463.727	29383.57
463.932	30630.79
464.138	31746.93
464.343	32932.7
464.549	33307.48
464.754	35412.79
464.959	36207.4
465.165	37231.39
465.37	36549.42
465.575	36418.35
465.781	39236.35
465.986	40383.21
466.191	39858.93
466.397	39664.38
466.602	39363.32
466.807	41169.63
467.012	41865.94
467.218	42957.51
467.423	43100.87
467.628	44131
467.833	46504.59
468.038	45341.35
468.244	44757.67
468.449	46557.84
468.654	45980.31
468.859	45576.86
469.064	45976.22
469.269	44923.56
469.474	45445.79
469.679	46836.36
469.885	45245.09
470.09	45920.92
470.295	46424.72
470.5	45019.81
470.705	45236.9
470.91	44280.5
471.115	43549.37
471.32	44933.8
471.525	44188.34
471.73	42877.64
471.935	42851.02
472.139	40555.24
472.344	41327.33
472.549	40962.79
472.754	40405.74
472.959	39437.05
473.164	38134.54
473.369	37305.12
473.574	38499.08
473.778	37608.22
473.983	37163.81
474.188	36447.02
474.393	34849.6
474.598	34685.76
474.802	33696.6
475.007	33413.98
475.212	33002.33
475.417	31828.85
475.621	31316.86
475.826	31181.69
476.031	30325.64
476.235	29578.13
476.44	30086.03
476.645	29291.41
476.849	28822.43
477.054	28289.96
477.259	27296.69
477.463	27630.51
477.668	26627.01
477.872	27018.17
478.077	26176.45
478.282	25299.92
478.486	25080.79
478.691	24826.84
478.895	24620
479.1	24368.1
479.304	24181.73
479.509	23489.52
479.713	23886.82
479.918	23292.91
480.122	22916.09
480.326	23002.1
480.531	23049.21
480.735	22832.12
480.94	22418.43
481.144	22852.6
481.348	21705.74
481.553	21939.21
481.757	21531.66
481.961	21746.7
482.166	21652.49
482.37	21220.37
482.574	20780.06
482.778	20814.87
482.983	21154.83
483.187	20726.81
483.391	20675.61
483.595	20288.54
483.8	19999.78
484.004	20151.33
484.208	19844.13
484.412	19686.44
484.616	19532.84
484.821	19551.28
485.025	18621.5
485.229	19049.52
485.433	18504.76
485.637	18422.84
485.841	17800.26
486.045	17652.81
486.249	17722.44
486.453	17310.8
486.657	17235.02
486.861	17044.56
487.065	16456.79
487.269	16213.09
487.473	15762.53
487.677	15895.65
487.881	15832.16
488.085	15131.76
488.289	15295.6
488.493	14615.67
488.697	14892.15
488.901	14478.46
489.105	14177.4
489.309	13853.83
489.512	13945.98
489.716	13499.53
489.92	13046.93
490.124	13085.84
490.328	12922
490.531	12367
490.735	12448.92
490.939	12172.44
491.143	11674.79
491.346	11541.67
491.55	11457.7
491.754	11369.64
491.958	11211.95
492.161	10812.59
492.365	10831.02
492.569	10529.97
492.772	10335.42
492.976	10257.59
493.18	10177.72
493.383	10069.18
493.587	9811.14
493.79	9843.9
493.994	9796.8
494.197	9647.3
494.401	9522.37
494.605	9319.62
494.808	9415.88
495.012	9178.31
495.215	9127.11
495.419	9200.84
495.622	8918.22
495.825	8881.36
496.029	8967.37
496.232	8926.41
496.436	8694.99
496.639	8840.4
496.843	8703.18
497.046	8832.21
497.249	8994
497.453	8905.93
497.656	8690.9
497.859	8819.92
498.063	8697.04
498.266	8766.67
498.469	8645.84
498.673	8697.04
498.876	8899.79
499.079	8783.06
499.282	8844.49
499.485	9303.24
499.689	9041.1
499.892	9022.67
500.095	8881.36
500.298	9315.53
500.501	9080.01
500.705	9374.92
500.908	9362.63
501.111	9608.39
501.314	9428.17
501.517	9567.43
501.72	9899.2
501.923	9733.31
502.126	9768.13
502.329	9960.64
502.532	9968.83
502.735	10165.43
502.938	10446.01
503.141	10351.8
503.344	10333.37
503.547	10685.62
503.75	10757.3
503.953	10792.11
504.156	10783.92
504.359	11254.95
504.562	11197.61
504.765	11353.26
504.968	11715.75
505.17	11930.78
505.373	12018.85
505.576	12346.52
505.779	12344.47
505.982	12283.03
506.185	12752.02
506.387	12934.29
506.59	13077.65
506.793	13407.37
506.996	13552.77
507.198	14101.63
507.401	14068.86
507.604	14468.22
507.807	14429.31
508.009	15072.37
508.212	15324.27
508.415	15275.12
508.617	15764.58
508.82	16122.98
509.022	16268.38
509.225	16852.05
509.428	16921.68
509.63	17318.99
509.833	17448.01
510.035	18478.14
510.238	18428.99
510.44	18707.51
510.643	19237.94
510.845	19862.57
511.048	19645.48
511.25	20261.92
511.453	20786.2
511.655	21986.31
511.858	21920.77
512.06	22395.9
512.262	23010.29
512.465	22998.01
512.667	23643.12
512.87	24380.39
513.072	24595.42
513.274	25639.89
513.477	26143.69
513.679	26420.16
513.881	27253.69
514.084	27788.21
514.286	28220.33
514.488	28900.25
514.69	29684.62
514.893	30159.75
515.095	30839.68
515.297	31695.73
515.499	31974.25
515.701	32770.91
515.904	33444.69
516.106	33862.48
516.308	34900.8
516.51	35455.8
516.712	36186.93
516.914	36510.5
517.116	37729.05
517.318	38183.69
517.52	38722.31
517.722	39238.4
517.925	39842.55
518.127	41026.28
518.329	41851.61
518.531	42001.11
518.733	42787.53
518.935	43852.47
519.136	44094.13
519.338	45212.32
519.54	45564.57
519.742	46754.44
519.944	46889.61
520.146	47964.79
520.348	47856.25
520.55	48718.45
520.752	48915.05
520.954	50424.4
521.155	50213.46
521.357	50891.34
521.559	51909.18
521.761	52445.75
521.963	52439.61
522.164	52941.36
522.366	53537.32
522.568	53953.05
522.77	54227.48
522.971	55317
523.173	54903.31
523.375	55030.29
523.576	55673.35
523.778	55638.53
523.98	56234.49
524.181	56537.59
524.383	56160.76
524.584	56564.21
524.786	56711.67
524.988	56738.29
525.189	56771.06
525.391	57127.41
525.592	57432.55
525.794	57301.48
525.995	57356.78
526.197	57418.22
526.398	57020.91
526.6	57231.85
526.801	56807.92
527.003	57139.69
527.204	56553.97
527.406	56713.72
527.607	56283.64
527.808	56271.35
528.01	54850.06
528.211	55333.38
528.412	55765.51
528.614	55030.29
528.815	54479.38
529.016	54903.31
529.218	53582.37
529.419	53539.36
529.62	52822.58
529.822	52798
530.023	52249.14
530.224	52181.56
530.425	51137.1
530.626	50192.98
530.828	49781.34
531.029	50659.92
531.23	49193.57
531.431	48822.89
531.632	48417.39
531.833	47936.12
532.035	47479.42
532.236	46645.9
532.437	45963.93
532.638	45650.59
532.839	45394.59
533.04	45173.41
533.241	43455.17
533.442	44147.38
533.643	43072.2
533.844	42300.11
534.045	41882.33
534.246	40768.23
534.447	40999.65
534.648	40149.74
534.849	39742.2
535.05	38941.44
535.251	38509.32
535.451	37974.8
535.652	37927.7
535.853	37040.93
536.054	36776.74
536.255	35988.27
536.456	35418.94
536.657	35455.8
536.857	34577.22
537.058	34009.93
537.259	34132.81
537.46	33545.05
537.66	32813.92
537.861	32738.15
538.062	31884.14
538.263	31568.76
538.463	31058.81
538.664	31081.34
538.865	30182.28
539.065	30460.8
539.266	29885.33
539.466	29584.27
539.667	28873.63
539.868	28857.24
540.068	28099.5
540.269	28009.39
540.469	27845.55
540.67	27192.25
540.87	27106.23
541.071	26741.69
541.271	26526.66
541.472	26010.57
541.672	25850.83
541.873	25625.55
542.073	25052.12
542.274	25074.65
542.474	24832.99
542.675	24433.63
542.875	24450.02
543.075	23843.82
543.276	23323.63
543.476	23325.68
543.676	23092.21
543.877	22719.48
544.077	22578.17
544.277	22389.76
544.478	21953.54
544.678	22137.86
544.878	21888.01
545.078	21576.72
545.279	21195.79
545.479	20778.01
545.679	20675.61
545.879	20161.57
546.079	20319.26
546.28	19747.88
546.48	19629.1
546.68	19649.58
546.88	19641.39
547.08	19086.39
547.28	18607.16
547.48	18349.12
547.68	18459.71
547.88	17917
548.081	17722.44
548.281	17777.73
548.481	17495.11
548.681	17472.59
548.881	17036.37
549.081	16723.03
549.28	16274.52
549.48	16329.82
549.68	16090.21
549.88	16219.23
550.08	15559.78
550.28	15623.27
550.48	15531.11
550.68	15279.21
550.88	14988.4
551.08	14873.71
551.279	14660.73
551.479	14109.82
551.679	13948.03
551.879	13667.46
552.079	13458.57
552.278	13384.84
552.478	13524.1
552.678	13104.27
552.878	13046.93
553.077	12610.71
553.277	12432.54
553.477	12463.26
553.676	11855.01
553.876	11787.43
554.076	11582.63
554.275	11488.42
554.475	11228.33
554.674	11302.06
554.874	11017.39
555.074	10593.46
555.273	10634.42
555.473	10480.82
555.672	10249.4
555.872	10214.59
556.071	10097.85
556.271	10095.8
556.47	9907.39
556.67	9542.85
556.869	9317.58
557.068	9096.39
557.268	8942.8
557.467	8785.1
557.667	8973.52
557.866	8606.93
558.065	8379.61
558.265	8309.97
558.464	8133.85
558.663	8107.23
558.863	7884
559.062	7892.19
559.261	7718.11
559.461	7701.73
559.66	7390.44
559.859	7392.48
560.058	7015.66
560.258	7101.67
560.457	6927.6
560.656	6972.65
560.855	6685.94
561.054	6763.76
561.253	6681.84
561.453	6597.87
561.652	6462.71
561.851	6284.53
562.05	6124.79
562.249	6030.59
562.448	6079.74
562.647	5922.04
562.846	5807.36
563.045	5821.69
563.244	5588.22
563.443	5715.2
563.642	5418.24
563.841	5633.28
564.04	5356.8
564.239	5240.07
564.438	5242.12
564.637	5039.37
564.836	4941.07
565.035	4754.7
565.234	4900.11
565.432	4922.63
565.631	4818.19
565.83	4650.25
566.029	4771.08
566.228	4404.5
566.427	4601.1
566.625	4291.86
566.824	4414.74
567.023	4252.95
567.222	4164.89
567.42	4021.53
567.619	4074.78
567.818	4148.5
568.016	4166.93
568.215	3982.62
568.414	3960.09
568.612	3876.12
568.811	3761.44
569.01	3607.84
569.208	3607.84
569.407	3702.04
569.605	3435.81
569.804	3566.88
570.002	3491.1
570.201	3362.08
570.4	3376.42
570.598	3337.51
570.797	3327.27
570.995	3245.35
571.193	3136.81
571.392	3145
571.59	3173.67
571.789	3142.95
571.987	3075.37
572.186	2925.86
572.384	2948.39
572.582	2821.42
572.781	2958.63
572.979	2645.29
573.177	2845.99
573.376	2704.68
573.574	2817.32
573.772	2565.42
573.971	2555.18
574.169	2463.02
574.367	2477.36
574.565	2528.56
574.763	2460.98
574.962	2290.99
575.16	2409.78
575.358	2221.36
575.556	2202.93
575.754	2254.13
575.952	2198.84
576.151	2256.18
576.349	2176.31
576.547	2080.05
576.745	2043.19
576.943	2092.34
577.141	1867.06
577.339	1936.7
577.537	1922.36
577.735	1940.79
577.933	1979.7
578.131	1803.58
578.329	1901.88
578.527	1760.57
578.725	1744.19
578.923	1625.4
579.121	1695.04
579.319	1518.91
579.516	1635.64
579.714	1744.19
579.912	1600.83
580.11	1588.54
580.308	1578.3
580.506	1549.63
580.704	1334.59
580.901	1455.42
581.099	1504.57
581.297	1496.38
581.495	1541.44
581.692	1305.92
581.89	1447.23
582.088	1480
582.285	1391.94
582.483	1174.85
582.681	1267.01
582.878	1322.31
583.076	1445.18
583.274	1232.19
583.471	1387.84
583.669	1185.09
583.866	1203.52
584.064	1279.3
584.262	1094.98
584.459	1129.8
584.657	1166.66
584.854	1142.08
585.052	1084.74
585.249	1142.08
585.447	1062.21
585.644	945.48
585.841	1195.33
586.039	1154.37
586.236	1051.97
586.434	877.9
586.631	1023.3
586.828	910.66
587.026	992.58
587.223	873.8
587.42	861.51
587.618	927.05
587.815	1078.6
588.012	873.8
588.21	896.33
588.407	925
588.604	988.49
588.801	798.03
588.999	795.98
589.196	949.57
589.393	791.88
589.59	822.6
589.787	838.98
589.984	843.08
590.182	867.66
590.379	724.3
590.576	873.8
590.773	902.47
590.97	738.63
591.167	986.44
591.364	798.03
591.561	752.97
591.758	849.22
591.955	849.22
592.152	795.98
592.349	746.83
592.546	800.07
592.743	759.11
592.94	781.64
593.137	763.21
593.334	838.98
593.531	806.22
593.727	709.96
593.924	832.84
594.121	709.96
594.318	726.35
594.515	830.79
594.712	949.57
594.908	939.33
595.105	652.62
595.302	855.37
595.499	851.27
595.696	961.86
595.892	812.36
596.089	892.23
596.286	970.05
596.482	963.91
596.679	994.63
596.876	888.14
597.072	1008.97
597.269	949.57
597.466	1064.26
597.662	879.94
597.859	1068.36
598.055	1101.12
598.252	1213.76
598.448	1207.62
598.645	1289.54
598.841	1240.39
599.038	1387.84
599.234	1488.19
599.431	1455.42
599.627	1469.76
599.824	1414.46
600.02	1580.35
600.217	1672.51
600.413	1725.75
600.609	1559.87
600.806	2030.9
601.002	2041.14
601.198	1860.92
601.395	2186.55
601.591	2172.21
601.787	2239.8
601.984	2254.13
602.18	2272.56
602.376	2352.43
602.572	2684.2
602.769	2647.34
602.965	2633.01
603.161	2956.58
603.357	2919.72
603.553	2991.4
603.75	3046.69
603.946	3284.26
604.142	3237.16
604.338	3429.66
604.534	3464.48
604.73	3697.95
604.926	3665.18
605.122	3962.14
605.318	4029.72
605.514	4255
605.71	4295.96
605.906	4494.61
606.102	4437.27
606.298	4762.89
606.494	4904.2
606.69	5020.94
606.886	5096.71
607.082	5057.8
607.278	5475.59
607.474	5580.03
607.67	5684.48
607.866	5807.36
608.062	6077.69
608.257	6077.69
608.453	6378.74
608.649	6575.35
608.845	6604.02
609.041	6849.77
609.236	6995.18
609.432	7066.86
609.628	7558.37
609.824	7648.48
610.019	7705.82
610.215	8021.21
610.411	8285.4
610.606	8414.42
610.802	8477.91
610.998	8959.18
611.193	9114.83
611.389	9166.03
611.584	9555.14
611.78	9807.04
611.976	10007.74
612.171	10540.21
612.367	10767.54
612.562	10945.71
612.758	11254.95
612.953	11330.73
613.149	11711.65
613.344	12070.05
613.539	12686.48
613.735	12829.84
613.93	13010.06
614.126	13343.88
614.321	13909.12
614.517	14099.58
614.712	14371.96
614.907	14818.42
615.103	15236.2
615.298	15410.28
615.493	16088.16
615.688	16206.94
615.884	17030.23
616.079	17255.5
616.274	17792.07
616.47	17824.84
616.665	18795.57
616.86	18979.89
617.055	19391.53
617.25	19954.72
617.445	20573.21
617.641	20802.58
617.836	21681.16
618.031	21707.79
618.226	22699
618.421	23223.28
618.616	23702.51
618.811	24046.57
619.006	24830.94
619.201	25091.03
619.396	25557.97
619.591	25762.76
619.786	26729.41
619.981	27106.23
620.176	28187.56
620.371	28365.73
620.566	29010.84
620.761	29666.19
620.956	30466.95
621.151	30940.03
621.346	31454.07
621.541	31746.93
621.735	32981.85
621.93	33071.96
622.125	34059.09
622.32	34079.57
622.515	35377.98
622.709	35658.55
622.904	36348.71
623.099	36877.09
623.294	37507.86
623.488	38155.02
623.683	38701.83
623.878	38812.42
624.072	40116.98
624.267	40129.26
624.462	41255.65
624.656	41636.57
624.851	42543.82
625.046	42509
625.24	43877.05
625.435	43760.31
625.629	44690.09
625.824	45593.25
626.018	45994.65
626.213	45724.32
626.407	47135.37
626.602	46703.24
626.796	48167.54
626.991	48603.76
627.185	48839.28
627.38	49300.07
627.574	49183.33
627.768	49390.18
627.963	49666.66
628.157	49711.71
628.352	50528.85
628.546	49427.04
628.74	50936.4
628.935	49693.28
629.129	50285.14
629.323	49726.05
629.517	49762.91
629.712	50037.34
629.906	49085.03
630.1	48116.34
630.294	48382.58
630.489	47516.29
630.683	47618.69
630.877	46109.33
631.071	45521.57
631.265	44925.61
631.459	44053.17
631.653	43039.43
631.848	42363.6
632.042	40913.64
632.236	40350.45
632.43	39217.92
632.624	38634.25
632.818	37192.48
633.012	36100.91
633.206	35179.32
633.4	34231.11
633.594	32510.82
633.788	31681.39
633.982	30626.69
634.176	29952.91
634.369	28554.15
634.563	27857.84
634.757	26371.01
634.951	25959.37
635.145	24579.04
635.339	23788.52
635.533	22486.01
635.726	21953.54
635.92	20771.86
636.114	19995.68
636.308	18924.6
636.501	18713.66
636.695	17820.74
636.889	16919.64
637.083	16264.29
637.276	15627.37
637.47	14990.45
637.664	14077.05
637.857	13931.65
638.051	13448.33
638.244	12653.72
638.438	12336.28
638.632	11977.89
638.825	11193.51
639.019	10941.61
639.212	10347.7
639.406	10122.43
639.599	9544.9
639.793	9278.66
639.986	8828.11
640.18	8551.63
640.373	8094.94
640.567	7953.63
640.76	7660.77
640.954	7265.51
641.147	7017.71
641.34	6806.77
641.534	6558.96
641.727	6268.15
641.92	6071.54
642.114	5694.72
642.307	5737.73
642.5	5481.73
642.694	4975.88
642.887	4844.81
643.08	4918.54
643.273	4701.45
643.467	4562.19
643.66	4121.88
643.853	4099.35
644.046	3960.09
644.239	3712.28
644.432	3616.03
644.626	3278.12
644.819	3341.6
645.012	3347.75
645.205	3192.1
645.398	3089.7
645.591	3038.5
645.784	2639.15
645.977	2592.05
646.17	2596.14
646.363	2481.46
646.556	2334
646.749	2125.11
646.942	2270.51
647.135	2161.97
647.328	1994.04
647.521	2057.53
647.714	1875.26
647.907	1912.12
648.099	1740.09
648.292	1674.56
648.485	1611.07
648.678	1590.59
648.871	1488.19
649.064	1508.67
649.256	1293.63
649.449	1299.78
649.642	1299.78
649.835	1336.64
650.027	1254.72
650.22	1203.52
650.413	1207.62
650.605	1094.98
650.798	959.81
650.991	961.86
651.183	992.58
651.376	943.43
651.568	972.1
651.761	877.9
651.954	992.58
652.146	746.83
652.339	841.03
652.531	925
652.724	658.76
652.916	777.55
653.109	630.09
653.301	777.55
653.494	736.59
653.686	644.43
653.879	759.11
654.071	806.22
654.263	542.03
654.456	542.03
654.648	634.19
654.84	564.56
655.033	550.22
655.225	574.8
655.417	437.58
655.61	591.18
655.802	572.75
655.994	580.94
656.186	419.15
656.379	546.13
656.571	396.62
656.763	406.86
656.955	415.06
657.148	349.52
657.34	564.56
657.532	378.19
657.724	349.52
657.916	437.58
658.108	384.34
658.3	439.63
658.492	421.2
658.684	339.28
658.876	349.52
659.068	200.02
659.26	310.61
659.452	247.12
659.644	359.76
659.836	351.57
660.028	279.89
660.22	300.37
660.412	261.46
660.604	189.78
660.796	236.88
660.988	339.28
661.18	271.7
661.372	320.85
661.563	259.41
661.755	331.09
661.947	142.68
662.139	187.73
662.331	255.31
662.522	193.87
662.714	171.35
662.906	103.76
663.097	257.36
663.289	200.02
663.481	185.68
663.673	202.07
663.864	238.93
664.056	232.79
664.247	152.91
664.439	308.56
664.631	159.06
664.822	216.4
665.014	263.51
665.205	138.58
665.397	251.22
665.588	247.12
665.78	212.31
665.971	247.12
666.163	175.44
666.354	257.36
666.546	134.48
666.737	195.92
666.929	114
667.12	27.99
667.311	124.24
667.503	81.24
667.694	116.05
667.885	183.63
668.077	154.96
668.268	75.09
668.459	154.96
668.651	290.13
668.842	187.73
669.033	103.76
669.224	50.52
669.416	310.61
669.607	132.44
669.798	146.77
669.989	251.22
670.18	140.63
670.371	148.82
670.563	85.33
670.754	144.72
670.945	220.5
671.136	171.35
671.327	154.96
671.518	208.21
671.709	224.59
671.9	322.9
672.091	210.26
672.282	114
672.473	163.15
672.664	32.08
672.855	101.72
673.046	163.15
673.237	243.03
673.428	173.39
673.619	218.45
673.809	126.29
674	214.35
674.191	204.11
674.382	144.72
674.573	140.63
674.764	136.53
674.954	230.74
675.145	85.33
675.336	77.14
675.527	146.77
675.717	126.29
675.908	181.59
676.099	93.52
676.289	146.77
676.48	40.28
676.671	120.15
676.861	175.44
677.052	163.15
677.243	165.2
677.433	114
677.624	232.79
677.814	144.72
678.005	83.28
678.195	216.4
678.386	99.67
678.576	97.62
678.767	109.91
678.957	97.62
679.148	259.41
679.338	292.18
679.529	195.92
679.719	120.15
679.909	292.18
680.1	238.93
680.29	226.64
680.481	91.48
680.671	177.49
680.861	114
681.052	165.2
681.242	71
681.432	279.89
681.622	146.77
681.813	46.42
682.003	124.24
682.193	249.17
682.383	169.3
682.573	171.35
682.764	66.9
682.954	257.36
683.144	271.7
683.334	157.01
683.524	159.06
683.714	204.11
683.904	146.77
684.094	179.54
684.284	183.63
684.474	318.8
684.664	275.79
684.854	185.68
685.044	173.39
685.234	175.44
685.424	218.45
685.614	101.72
685.804	349.52
685.994	277.84
686.184	197.97
686.374	138.58
686.564	97.62
686.753	157.01
686.943	120.15
687.133	83.28
687.323	179.54
687.513	218.45
687.702	163.15
687.892	132.44
688.082	236.88
688.272	138.58
688.461	161.11
688.651	335.18
688.841	249.17
689.03	138.58
689.22	202.07
689.41	189.78
689.599	193.87
689.789	60.76
689.979	312.66
690.168	60.76
690.358	167.25
690.547	210.26
690.737	130.39
690.926	159.06
691.116	167.25
691.305	286.03
691.495	290.13
691.684	150.87
691.874	146.77
692.063	136.53
692.252	286.03
692.442	312.66
692.631	128.34
692.82	116.05
693.01	144.72
693.199	132.44
693.388	191.83
693.578	181.59
693.767	152.91
693.956	212.31
694.146	136.53
694.335	175.44
694.524	154.96
694.713	200.02
694.902	222.55
695.092	79.19
695.281	210.26
695.47	38.23
695.659	163.15
695.848	259.41
696.037	103.76
696.226	234.83
696.415	130.39
696.604	206.16
696.793	259.41
696.982	122.2
697.171	220.5
697.36	101.72
697.549	200.02
697.738	11.61
697.927	54.61
698.116	154.96
698.305	197.97
698.494	140.63
698.683	68.95
698.872	353.62
699.061	71
699.25	193.87
699.438	275.79
699.627	126.29
699.816	243.03
700.005	-0.68
700.193	152.91
700.382	189.78
700.571	193.87
700.76	142.68
700.948	245.07
701.137	294.22
701.326	304.46
701.514	132.44
701.703	146.77
701.892	161.11
702.08	367.95
702.269	177.49
702.457	73.04
702.646	171.35
702.834	179.54
703.023	240.98
703.212	179.54
703.4	142.68
703.589	60.76
703.777	85.33
703.965	101.72
704.154	183.63
704.342	128.34
704.531	136.53
704.719	138.58
704.907	228.69
705.096	42.32
705.284	75.09
705.472	177.49
705.661	185.68
705.849	206.16
706.037	275.79
706.226	163.15
706.414	216.4
706.602	124.24
706.79	197.97
706.979	34.13
707.167	169.3
707.355	109.91
707.543	269.65
707.731	275.79
707.919	202.07
708.107	206.16
708.296	97.62
708.484	150.87
708.672	150.87
708.86	146.77
709.048	167.25
709.236	97.62
709.424	251.22
709.612	230.74
709.8	181.59
709.988	140.63
710.176	251.22
710.364	294.22
710.551	159.06
710.739	116.05
710.927	118.1
711.115	130.39
711.303	191.83
711.491	326.99
711.679	150.87
711.866	159.06
712.054	99.67
712.242	185.68
712.43	163.15
712.617	66.9
712.805	175.44
712.993	222.55
713.181	179.54
713.368	271.7
713.556	128.34
713.744	89.43
713.931	320.85
714.119	187.73
714.306	265.55
714.494	134.48
714.682	95.57
714.869	40.28
715.057	52.56
715.244	87.38
715.432	204.11
715.619	122.2
715.807	169.3
715.994	169.3
716.182	157.01
716.369	232.79
716.556	261.46
716.744	50.52
716.931	140.63
717.119	163.15
717.306	208.21
717.493	210.26
717.681	101.72
717.868	210.26
718.055	171.35
718.242	159.06
718.43	173.39
718.617	247.12
718.804	101.72
718.991	288.08
719.179	253.27
719.366	193.87
719.553	169.3
719.74	183.63
719.927	105.81
720.114	206.16
720.301	163.15
720.488	167.25
720.676	154.96
720.863	304.46
721.05	281.94
721.237	191.83
721.424	177.49
721.611	234.83
721.798	99.67
721.985	193.87
722.172	118.1
722.358	136.53
722.545	283.98
722.732	224.59
722.919	210.26
723.106	212.31
723.293	212.31
723.48	193.87
723.667	179.54
723.853	314.7
724.04	255.31
724.227	263.51
724.414	179.54
724.6	195.92
724.787	275.79
724.974	318.8
725.161	157.01
725.347	204.11
725.534	165.2
725.72	314.7
725.907	281.94
726.094	335.18
726.28	179.54
726.467	167.25
726.653	173.39
726.84	343.38
727.027	208.21
727.213	181.59
727.4	222.55
727.586	271.7
727.773	208.21
727.959	267.6
728.145	214.35
728.332	175.44
728.518	204.11
728.705	232.79
728.891	179.54
729.077	236.88
729.264	157.01
729.45	169.3
729.636	288.08
729.823	206.16
730.009	255.31
730.195	255.31
730.382	245.07
730.568	161.11
730.754	202.07
730.94	210.26
731.126	144.72
731.313	286.03
731.499	134.48
731.685	232.79
731.871	257.36
732.057	212.31
732.243	224.59
732.429	240.98
732.615	363.86
732.801	261.46
732.987	210.26
733.173	245.07
733.359	214.35
733.545	234.83
733.731	197.97
733.917	341.33
734.103	277.84
734.289	173.39
734.475	148.82
734.661	316.75
734.847	220.5
735.033	204.11
735.219	220.5
735.404	249.17
735.59	218.45
735.776	152.91
735.962	189.78
736.148	308.56
736.333	220.5
736.519	189.78
736.705	218.45
736.89	193.87
737.076	206.16
737.262	148.82
737.447	193.87
737.633	261.46
737.819	259.41
738.004	220.5
738.19	224.59
738.375	185.68
738.561	316.75
738.747	232.79
738.932	111.96
739.118	359.76
739.303	281.94
739.489	261.46
739.674	181.59
739.859	126.29
740.045	263.51
740.23	238.93
740.416	83.28
740.601	226.64
740.786	247.12
740.972	132.44
741.157	146.77
741.342	99.67
741.528	163.15
741.713	277.84
741.898	195.92
742.084	204.11
742.269	193.87
742.454	310.61
742.639	292.18
742.824	206.16
743.01	318.8
743.195	326.99
743.38	202.07
743.565	202.07
743.75	181.59
743.935	251.22
744.12	286.03
744.305	216.4
744.49	116.05
744.675	132.44
744.86	228.69
745.045	290.13
745.23	181.59
745.415	197.97
745.6	292.18
745.785	185.68
745.97	245.07
746.155	286.03
746.34	302.42
746.525	195.92
746.71	288.08
746.895	161.11
747.079	165.2
747.264	173.39
747.449	279.89
747.634	292.18
747.819	109.91
748.003	277.84
748.188	130.39
748.373	228.69
748.557	140.63
748.742	245.07
748.927	150.87
749.111	187.73
749.296	136.53
749.481	243.03
749.665	202.07
749.85	122.2
750.034	236.88
750.219	173.39
750.404	116.05
750.588	179.54
750.773	185.68
750.957	181.59
751.141	154.96
751.326	257.36
751.51	114
751.695	118.1
751.879	130.39
752.064	265.55
752.248	175.44
752.432	331.09
752.617	220.5
752.801	195.92
752.985	105.81
753.17	193.87
753.354	220.5
753.538	177.49
753.722	144.72
753.907	150.87
754.091	157.01
754.275	232.79
754.459	114
754.643	116.05
754.828	159.06
755.012	171.35
755.196	105.81
755.38	114
755.564	103.76
755.748	175.44
755.932	132.44
756.116	197.97
756.3	105.81
756.484	142.68
756.668	210.26
756.852	95.57
757.036	142.68
757.22	138.58
757.404	85.33
757.588	81.24
757.772	140.63
757.956	138.58
758.14	294.22
758.323	89.43
758.507	148.82
758.691	81.24
758.875	152.91
759.059	216.4
759.242	68.95
759.426	85.33
759.61	83.28
759.794	97.62
759.977	245.07
760.161	298.32
760.345	222.55
760.528	206.16
760.712	167.25
760.895	118.1
761.079	138.58
761.263	77.14
761.446	89.43
761.63	101.72
761.813	152.91
761.997	32.08
762.18	105.81
762.364	202.07
762.547	30.04
762.731	144.72
762.914	146.77
763.098	81.24
763.281	7.51
763.464	56.66
763.648	103.76
763.831	97.62
764.015	-35.5
764.198	144.72
764.381	64.85
764.564	48.47
764.748	163.15
764.931	52.56
765.114	25.94
765.297	154.96
765.481	19.8
765.664	40.28
765.847	21.85
766.03	200.02
766.213	15.7
766.397	66.9
766.58	17.75
766.763	238.93
766.946	111.96
767.129	93.52
767.312	36.18
767.495	71
767.678	27.99
767.861	144.72
768.044	91.48
768.227	68.95
768.41	40.28
768.593	107.86
768.776	93.52
768.959	58.71
769.142	220.5
769.324	64.85
769.507	105.81
769.69	128.34
769.873	15.7
770.056	300.37
770.239	130.39
770.421	202.07
770.604	154.96
770.787	71
770.97	128.34
771.152	-29.35
771.335	144.72
771.518	-10.92
771.7	83.28
771.883	101.72
772.066	46.42
772.248	142.68
772.431	169.3
772.613	138.58
772.796	77.14
772.978	152.91
773.161	150.87
773.343	81.24
773.526	-23.21
773.708	-68.27
773.891	-51.88
774.073	81.24
774.256	-45.74
774.438	124.24
774.621	68.95
774.803	62.8
774.985	-0.68
775.168	97.62
775.35	93.52
775.532	52.56
775.715	-55.98
775.897	56.66
776.079	73.04
776.261	-8.87
776.444	103.76
776.626	7.51
776.808	11.61
776.99	-35.5
777.173	150.87
777.355	64.85
777.537	48.47
777.719	101.72
777.901	9.56
778.083	52.56
778.265	27.99
778.447	169.3
778.629	-4.78
778.811	79.19
778.993	46.42
779.175	89.43
779.357	40.28
779.539	-8.87
779.721	66.9
779.903	52.56
780.085	-8.87
780.267	95.57
780.449	126.29
780.631	62.8
780.812	87.38
780.994	142.68
781.176	89.43
781.358	30.04
781.54	89.43
781.721	36.18
781.903	58.71
782.085	-60.07
782.267	122.2
782.448	-37.55
782.63	-33.45
782.812	-4.78
782.993	40.28
783.175	58.71
783.357	-10.92
783.538	89.43
783.72	77.14
783.901	13.65
784.083	138.58
784.264	120.15
784.446	-88.75
784.627	-12.97
784.809	93.52
784.99	-4.78
785.172	58.71
785.353	62.8
785.535	128.34
785.716	1.37
785.897	27.99
786.079	-29.35
786.26	95.57
786.441	34.13
786.623	-68.27
786.804	21.85
786.985	-12.97
787.167	126.29
787.348	81.24
787.529	-8.87
787.71	126.29
787.891	42.32
788.073	-19.11
788.254	-68.27
788.435	95.57
788.616	73.04
788.797	-51.88
788.978	91.48
789.159	3.41
789.34	118.1
789.522	42.32
789.703	34.13
789.884	175.44
790.065	40.28
790.246	136.53
790.427	32.08
790.607	126.29
790.788	107.86
790.969	-2.73
791.15	13.65
791.331	7.51
791.512	34.13
791.693	-43.69
791.874	3.41
792.054	171.35
792.235	77.14
792.416	-29.35
792.597	-47.79
792.778	23.89
792.958	91.48
793.139	48.47
793.32	-2.73
793.5	17.75
793.681	91.48
793.862	68.95
794.042	64.85
794.223	23.89
794.404	-10.92
794.584	-55.98
794.765	40.28
794.945	3.41
795.126	64.85
795.306	124.24
795.487	36.18
795.667	34.13
795.848	15.7
796.028	11.61
796.209	54.61
796.389	75.09
796.57	27.99
796.75	-6.83
796.93	-111.27
797.111	-29.35
797.291	60.76
797.471	189.78
797.652	-62.12
797.832	15.7
798.012	60.76
798.192	-4.78
798.373	-90.79
798.553	17.75
798.733	85.33
798.913	-105.13
799.093	17.75
799.274	52.56
799.454	15.7
799.634	91.48
799.814	73.04
799.994	42.32
800.174	50.52
800.354	-29.35
800.534	-162.47
800.714	38.23
800.894	-2.73
801.074	-78.51
801.254	-33.45
801.434	93.52
801.614	17.75
801.794	-39.59
801.974	1795.39
802.154	1.37
802.334	68.95
802.514	-51.88
802.693	48.47
802.873	23.89
803.053	150.87
803.233	17.75
803.413	62.8
803.592	-29.35
803.772	-80.55
803.952	-0.68
804.131	13.65
804.311	46.42
804.491	124.24
804.67	-15.02
804.85	-58.03
805.03	103.76
805.209	54.61
805.389	7.51
805.568	-78.51
805.748	-29.35
805.928	19.8
806.107	56.66
806.287	7.51
806.466	-23.21
806.646	11.61
806.825	27.99
807.004	-43.69
807.184	13.65
807.363	101.72
807.543	9.56
807.722	-51.88
807.901	91.48
808.081	97.62
808.26	-160.42
808.439	-8.87
808.619	21.85
808.798	-23.21
808.977	40.28
809.156	138.58
809.336	-10.92
809.515	50.52
809.694	-23.21
809.873	-23.21
810.052	89.43
810.231	54.61
810.411	50.52
810.59	60.76
810.769	-72.36
810.948	73.04
811.127	-68.27
811.306	-86.7
811.485	-19.11
811.664	146.77
811.843	9.56
812.022	50.52
812.201	-0.68
812.38	19.8
812.559	-21.16
812.737	23.89
812.916	-19.11
813.095	48.47
813.274	-6.83
813.453	77.14
813.632	85.33
813.811	73.04
813.989	-72.36
814.168	13.65
814.347	-105.13
814.526	-12.97
814.704	146.77
814.883	81.24
815.062	-33.45
815.24	97.62
815.419	-66.22
815.598	71
815.776	-131.75
815.955	-51.88
816.133	-146.09
816.312	-66.22
816.49	-53.93
816.669	-25.26
816.847	-31.4
817.026	38.23
817.204	-94.89
817.383	-8.87
817.561	-133.8
817.74	42.32
817.918	32.08
818.097	-12.97
818.275	-74.41
818.453	42.32
818.632	40.28
818.81	-35.5
818.988	-45.74
819.167	-92.84
819.345	42.32
819.523	-31.4
819.701	-15.02
819.879	91.48
820.058	91.48
820.236	32.08
820.414	-76.46
820.592	-33.45
820.77	17.75
820.948	-49.83
821.127	-41.64
821.305	15.7
821.483	-62.12
821.661	38.23
821.839	38.23
822.017	-35.5
822.195	5.46
822.373	103.76
822.551	81.24
822.729	44.37
822.907	-8.87
823.085	81.24
823.262	-37.55
823.44	-78.51
823.618	-6.83
823.796	-55.98
823.974	-17.07
824.152	19.8
824.329	-41.64
824.507	60.76
824.685	9.56
824.863	-51.88
825.04	13.65
825.218	56.66
825.396	-10.92
825.574	-64.17
825.751	85.33
825.929	68.95
826.107	-27.31
826.284	-2.73
826.462	5.46
826.639	-51.88
826.817	-92.84
826.994	36.18
827.172	-117.42
827.349	62.8
827.527	54.61
827.704	73.04
827.882	7.51
828.059	64.85
828.237	-21.16
828.414	46.42
828.591	-92.84
828.769	-43.69
828.946	-53.93
829.124	46.42
829.301	93.52
829.478	-10.92
829.655	50.52
829.833	50.52
830.01	-180.9
830.187	-41.64
830.364	54.61
830.542	-4.78
830.719	83.28
830.896	77.14
831.073	85.33
831.25	-39.59
831.427	-2.73
831.604	-66.22
831.782	-94.89
831.959	79.19
832.136	-58.03
832.313	-37.55
832.49	-27.31
832.667	62.8
832.844	-84.65
833.021	66.9
833.198	75.09
833.374	-6.83
833.551	19.8
833.728	-21.16
833.905	48.47
834.082	-117.42
834.259	17.75
834.436	103.76
834.612	-82.6
834.789	95.57
834.966	-10.92
835.143	-55.98
835.319	-125.61
835.496	11.61
835.673	5.46
835.85	19.8
836.026	19.8
836.203	116.05
836.38	-21.16
836.556	7.51
836.733	30.04
836.909	124.24
837.086	23.89
837.262	-105.13
837.439	64.85
837.616	-29.35
837.792	-33.45
837.968	-21.16
838.145	-98.99
838.321	42.32
838.498	54.61
838.674	27.99
838.851	23.89
839.027	-15.02
839.203	-4.78
839.38	17.75
839.556	-17.07
839.732	58.71
839.909	11.61
840.085	50.52
840.261	-58.03
840.437	66.9
840.614	-31.4
840.79	62.8
840.966	128.34
841.142	-49.83
841.318	-60.07
841.494	58.71
841.671	3.41
841.847	-152.23
842.023	-45.74
842.199	13.65
842.375	-0.68
842.551	-107.18
842.727	-137.9
842.903	68.95
843.079	-74.41
843.255	19.8
843.431	-23.21
843.607	-4.78
843.783	-131.75
843.959	23.89
844.134	3.41
844.31	95.57
844.486	34.13
844.662	-109.22
844.838	60.76
845.013	-49.83
845.189	46.42
845.365	-6.83
845.541	-43.69
845.716	46.42
845.892	118.1
846.068	-29.35
846.244	-53.93
846.419	-41.64
846.595	-111.27
846.77	-98.99
846.946	48.47
847.122	13.65
847.297	-31.4
847.473	118.1
847.648	-58.03
847.824	40.28
847.999	-103.08
848.175	-86.7
848.35	79.19
848.526	91.48
848.701	9.56
848.876	-25.26
849.052	7.51
849.227	-68.27
849.403	38.23
849.578	-2.73
849.753	-41.64
849.929	58.71
850.104	-107.18
850.279	-47.79
850.454	-27.31
850.63	27.99
850.805	36.18
850.98	-27.31
851.155	7.51
851.33	-17.07
851.505	-88.75
851.681	93.52
851.856	-8.87
852.031	3.41
852.206	9.56
852.381	-141.99
852.556	13.65
852.731	46.42
852.906	46.42
853.081	40.28
853.256	109.91
853.431	-25.26
853.606	-119.46
853.781	-49.83
853.956	-70.31
854.131	64.85
854.305	-98.99
854.48	-33.45
854.655	1.37
854.83	-92.84
855.005	-31.4
855.18	-10.92
855.354	-53.93
855.529	13.65
855.704	-103.08
855.879	1.37
856.053	-70.31
856.228	13.65
856.403	-60.07
856.577	71
856.752	-76.46
856.926	17.75
857.101	7.51
857.276	-55.98
857.45	-23.21
857.625	71
857.799	38.23
857.974	-12.97
858.148	-131.75
858.323	48.47
858.497	-107.18
858.672	9.56
858.846	-111.27
859.02	114
859.195	-90.79
859.369	-41.64
859.543	-25.26
859.718	-29.35
859.892	40.28
860.066	-27.31
860.241	-84.65
860.415	-72.36
860.589	-37.55
860.763	-39.59
860.938	-10.92
861.112	68.95
861.286	-37.55
861.46	-8.87
861.634	-76.46
861.808	-21.16
861.982	-4.78
862.157	-51.88
862.331	25.94
862.505	-17.07
862.679	-37.55
862.853	36.18
863.027	44.37
863.201	124.24
863.375	-23.21
863.549	73.04
863.722	-41.64
863.896	56.66
864.07	-70.31
864.244	7.51
864.418	-12.97
864.592	-0.68
864.766	-8.87
864.939	-6.83
865.113	-4.78
865.287	32.08
865.461	-84.65
865.634	-101.03
865.808	-2.73
865.982	-43.69
866.156	-78.51
866.329	-230.06
866.503	-19.11
866.676	68.95
866.85	1.37
867.024	-64.17
867.197	13.65
867.371	34.13
867.544	-31.4
867.718	-127.66
867.891	54.61
868.065	-119.46
868.238	68.95
868.412	32.08
868.585	-35.5
868.759	-117.42
868.932	-45.74
869.105	-129.7
869.279	1.37
869.452	-127.66
869.625	30.04
869.799	3.41
869.972	-51.88
870.145	-103.08
870.319	-25.26
870.492	-115.37
870.665	-78.51
870.838	-72.36
871.011	-160.42
871.185	-58.03
871.358	-12.97
871.531	77.14
871.704	-86.7
871.877	9.56
872.05	-53.93
872.223	-66.22
872.396	-10.92
872.569	34.13
872.742	-27.31
872.915	68.95
873.088	-70.31
873.261	-76.46
873.434	54.61
873.607	-17.07
873.78	114
873.953	-43.69
874.126	79.19
874.299	-45.74
874.471	27.99
874.644	-105.13
874.817	5.46
874.99	97.62
875.163	-12.97
875.335	21.85
875.508	7.51
875.681	140.63
875.853	21.85
876.026	-19.11
876.199	23.89
876.371	-88.75
876.544	-60.07
876.717	-86.7
876.889	-58.03
877.062	48.47
877.234	-80.55
877.407	-86.7
877.579	3.41
877.752	-23.21
877.924	81.24
878.097	-29.35
878.269	-2.73
878.442	38.23
878.614	-43.69
878.786	-55.98
878.959	-19.11
879.131	48.47
879.303	-154.28
879.476	-68.27
879.648	120.15
879.82	-55.98
879.993	-21.16
880.165	-8.87
880.337	-55.98
880.509	62.8
880.681	-37.55
880.854	-10.92
881.026	34.13
881.198	118.1
881.37	1.37
881.542	-2.73
881.714	32.08
881.886	-84.65
882.058	-49.83
882.23	27.99
882.402	-51.88
882.574	5.46
882.746	7.51
882.918	107.86
883.09	64.85
883.262	-33.45
883.434	-68.27
883.606	-90.79
883.778	-8.87
883.95	103.76
884.122	-70.31
884.293	93.52
884.465	62.8
884.637	103.76
884.809	-70.31
884.98	-41.64
885.152	17.75
885.324	52.56
885.496	-76.46
885.667	-74.41
885.839	-8.87
886.011	101.72
886.182	-17.07
886.354	32.08
886.525	44.37
886.697	-33.45
886.869	42.32
887.04	-10.92
887.212	-39.59
887.383	142.68
887.555	109.91
887.726	-41.64
887.897	-60.07
888.069	36.18
888.24	50.52
888.412	-76.46
888.583	54.61
888.754	-4.78
888.926	-152.23
889.097	9.56
889.268	-150.18
889.44	-21.16
889.611	-146.09
889.782	-113.32
889.953	-10.92
890.125	116.05
890.296	-47.79
890.467	-66.22
890.638	-35.5
890.809	-17.07
890.98	-12.97
891.151	-31.4
891.323	11.61
891.494	42.32
891.665	30.04
891.836	-51.88
892.007	-23.21
892.178	97.62
892.349	-12.97
892.52	-111.27
892.691	15.7
892.862	-31.4
893.032	-131.75
893.203	-53.93
893.374	19.8
893.545	1.37
893.716	-35.5
893.887	132.44
894.057	-72.36
894.228	32.08
894.399	-64.17
894.57	75.09
894.74	-2.73
894.911	27.99
895.082	-6.83
895.253	-45.74
895.423	-23.21
895.594	1.37
895.764	54.61
895.935	-133.8
896.106	-58.03
896.276	-74.41
896.447	9.56
896.617	-84.65
896.788	-107.18
896.958	-4.78
897.129	-135.85
897.299	5.46
897.47	71
897.64	75.09
897.81	-37.55
897.981	-8.87
898.151	-47.79
898.322	19.8
898.492	30.04
898.662	-96.94
898.832	-21.16
899.003	-78.51
899.173	15.7
899.343	1.37
899.513	-78.51
