Data from USB4F104151__111__10-45-49-560.txt Node

Date: Wed Feb 26 10:45:49 EST 2025
User: louis
Spectrometer: USB4F10415
Trigger mode: 4
Integration Time (sec): 1.000000E-1
Scans to average: 1
Electric dark correction enabled: true
Nonlinearity correction enabled: false
Boxcar width: 0
XAxis mode: Wavelengths
Number of Pixels in Spectrum: 3648
>>>>>Begin Spectral Data<<<<<
178.204	-334.16
178.424	-334.16
178.644	-334.16
178.864	-389.46
179.084	-368.98
179.304	-92.5
179.524	-20.82
179.744	-35.16
179.964	-18.77
180.184	100.01
180.404	85.67
180.624	-45.4
180.844	32.43
181.064	-29.01
181.283	69.29
181.503	-55.64
181.723	9.9
181.943	-84.31
182.163	249.51
182.383	-106.84
182.602	81.58
182.822	165.54
183.042	75.43
183.262	-0.34
183.482	44.71
183.701	59.05
183.921	95.91
184.141	-24.92
184.361	108.2
184.58	57
184.8	93.87
185.02	20.14
185.239	30.38
185.459	159.4
185.679	-0.34
185.898	-141.65
186.118	44.71
186.338	9.9
186.557	97.96
186.777	-55.64
186.997	42.67
187.216	32.43
187.436	59.05
187.655	93.87
187.875	159.4
188.095	-16.73
188.314	138.92
188.534	151.21
188.753	3.75
188.973	73.39
189.192	181.93
189.412	54.95
189.631	28.33
189.851	81.58
190.07	134.82
190.29	-55.64
190.509	-20.82
190.729	40.62
190.948	124.58
191.168	290.47
191.387	77.48
191.607	79.53
191.826	81.58
192.045	46.76
192.265	-4.44
192.484	50.86
192.704	3.75
192.923	-53.59
193.142	186.02
193.362	46.76
193.581	159.4
193.8	24.23
194.02	106.15
194.239	85.67
194.458	9.9
194.678	-4.44
194.897	-47.44
195.116	46.76
195.335	28.33
195.555	79.53
195.774	57
195.993	106.15
196.212	16.04
196.432	16.04
196.651	32.43
196.87	-24.92
197.089	183.98
197.308	69.29
197.528	73.39
197.747	5.8
197.966	24.23
198.185	157.35
198.404	-16.73
198.623	77.48
198.842	108.2
199.062	192.17
199.281	120.49
199.5	22.19
199.719	93.87
199.938	112.3
200.157	44.71
200.376	100.01
200.595	112.3
200.814	108.2
201.033	-10.58
201.252	151.21
201.471	26.28
201.69	108.2
201.909	30.38
202.128	143.02
202.347	75.43
202.566	71.34
202.785	32.43
203.004	-24.92
203.223	306.85
203.442	48.81
203.661	-20.82
203.879	30.38
204.098	83.63
204.317	-80.21
204.536	95.91
204.755	140.97
204.974	210.6
205.193	-84.31
205.411	235.18
205.63	116.39
205.849	40.62
206.068	59.05
206.287	3.75
206.505	128.68
206.724	3.75
206.943	11.95
207.162	-10.58
207.381	130.73
207.599	54.95
207.818	1.71
208.037	-2.39
208.255	126.63
208.474	85.67
208.693	126.63
208.911	44.71
209.13	97.96
209.349	93.87
209.567	212.65
209.786	93.87
210.005	71.34
210.223	67.24
210.442	-94.55
210.661	91.82
210.879	63.15
211.098	36.52
211.316	36.52
211.535	81.58
211.753	50.86
211.972	77.48
212.191	-45.4
212.409	34.47
212.628	110.25
212.846	24.23
213.065	85.67
213.283	36.52
213.502	122.54
213.72	20.14
213.938	48.81
214.157	20.14
214.375	69.29
214.594	28.33
214.812	134.82
215.031	20.14
215.249	1.71
215.467	106.15
215.686	81.58
215.904	145.06
216.122	28.33
216.341	100.01
216.559	-16.73
216.778	130.73
216.996	151.21
217.214	89.77
217.432	-8.53
217.651	-84.31
217.869	34.47
218.087	93.87
218.306	69.29
218.524	73.39
218.742	-33.11
218.96	100.01
219.179	85.67
219.397	13.99
219.615	269.99
219.833	77.48
220.051	-82.26
220.27	126.63
220.488	50.86
220.706	100.01
220.924	-12.63
221.142	9.9
221.36	30.38
221.578	114.34
221.796	-22.87
222.015	26.28
222.233	69.29
222.451	220.84
222.669	-16.73
222.887	73.39
223.105	-2.39
223.323	36.52
223.541	-14.68
223.759	106.15
223.977	22.19
224.195	124.58
224.413	7.85
224.631	40.62
224.849	22.19
225.067	200.36
225.285	-6.49
225.503	38.57
225.721	-49.49
225.939	38.57
226.157	-14.68
226.375	194.22
226.592	-88.4
226.81	85.67
227.028	89.77
227.246	128.68
227.464	81.58
227.682	138.92
227.9	95.91
228.117	36.52
228.335	46.76
228.553	77.48
228.771	57
228.989	57
229.206	-8.53
229.424	24.23
229.642	-37.2
229.86	34.47
230.077	183.98
230.295	-6.49
230.513	83.63
230.731	93.87
230.948	179.88
231.166	134.82
231.384	73.39
231.601	89.77
231.819	222.89
232.037	18.09
232.254	-57.68
232.472	54.95
232.689	-63.83
232.907	159.4
233.125	16.04
233.342	26.28
233.56	-41.3
233.777	77.48
233.995	-2.39
234.213	161.45
234.43	67.24
234.648	28.33
234.865	40.62
235.083	67.24
235.3	65.19
235.518	83.63
235.735	136.87
235.953	77.48
236.17	75.43
236.388	-10.58
236.605	79.53
236.822	110.25
237.04	112.3
237.257	104.11
237.475	-6.49
237.692	102.06
237.909	171.69
238.127	59.05
238.344	71.34
238.562	42.67
238.779	-86.36
238.996	-49.49
239.214	79.53
239.431	95.91
239.648	28.33
239.865	87.72
240.083	-31.06
240.3	65.19
240.517	46.76
240.735	52.91
240.952	81.58
241.169	73.39
241.386	61.1
241.603	69.29
241.821	-47.44
242.038	100.01
242.255	81.58
242.472	-76.12
242.689	91.82
242.907	97.96
243.124	102.06
243.341	85.67
243.558	-22.87
243.775	-41.3
243.992	38.57
244.209	46.76
244.426	153.26
244.643	9.9
244.86	26.28
245.078	-0.34
245.295	52.91
245.512	38.57
245.729	-37.2
245.946	196.26
246.163	38.57
246.38	-2.39
246.597	57
246.814	-16.73
247.031	13.99
247.248	11.95
247.464	122.54
247.681	28.33
247.898	100.01
248.115	67.24
248.332	-26.96
248.549	93.87
248.766	165.54
248.983	83.63
249.2	13.99
249.417	52.91
249.633	-2.39
249.85	44.71
250.067	38.57
250.284	44.71
250.501	69.29
250.717	112.3
250.934	46.76
251.151	46.76
251.368	42.67
251.585	69.29
251.801	38.57
252.018	-8.53
252.235	93.87
252.451	-65.88
252.668	-2.39
252.885	163.5
253.102	63.15
253.318	1.71
253.535	-2.39
253.752	-6.49
253.968	30.38
254.185	-72.02
254.401	124.58
254.618	48.81
254.835	-8.53
255.051	85.67
255.268	102.06
255.484	-26.96
255.701	50.86
255.917	100.01
256.134	22.19
256.351	28.33
256.567	-43.35
256.784	34.47
257	-76.12
257.217	171.69
257.433	138.92
257.65	128.68
257.866	57
258.082	34.47
258.299	-45.4
258.515	7.85
258.732	48.81
258.948	65.19
259.165	32.43
259.381	7.85
259.597	59.05
259.814	36.52
260.03	-49.49
260.246	-51.54
260.463	93.87
260.679	116.39
260.895	20.14
261.112	110.25
261.328	11.95
261.544	-41.3
261.761	157.35
261.977	54.95
262.193	-86.36
262.409	52.91
262.626	75.43
262.842	18.09
263.058	18.09
263.274	110.25
263.49	104.11
263.707	116.39
263.923	85.67
264.139	1.71
264.355	11.95
264.571	57
264.787	46.76
265.004	89.77
265.22	-47.44
265.436	-12.63
265.652	20.14
265.868	118.44
266.084	5.8
266.3	63.15
266.516	-47.44
266.732	85.67
266.948	34.47
267.164	32.43
267.38	198.31
267.596	83.63
267.812	89.77
268.028	75.43
268.244	54.95
268.46	65.19
268.676	91.82
268.892	95.91
269.108	9.9
269.324	-26.96
269.54	-33.11
269.756	112.3
269.972	28.33
270.188	69.29
270.403	26.28
270.619	26.28
270.835	95.91
271.051	81.58
271.267	-14.68
271.483	-53.59
271.698	61.1
271.914	36.52
272.13	79.53
272.346	16.04
272.562	110.25
272.777	155.3
272.993	28.33
273.209	-8.53
273.425	102.06
273.64	-26.96
273.856	89.77
274.072	1.71
274.287	-2.39
274.503	100.01
274.719	61.1
274.934	22.19
275.15	-127.32
275.366	7.85
275.581	-35.16
275.797	65.19
276.012	-33.11
276.228	38.57
276.444	-69.97
276.659	44.71
276.875	-8.53
277.09	57
277.306	63.15
277.521	108.2
277.737	87.72
277.952	95.91
278.168	40.62
278.383	3.75
278.599	83.63
278.814	118.44
279.03	20.14
279.245	190.12
279.461	161.45
279.676	130.73
279.892	-45.4
280.107	-39.25
280.322	-26.96
280.538	67.24
280.753	32.43
280.969	73.39
281.184	-59.73
281.399	112.3
281.615	95.91
281.83	36.52
282.045	-26.96
282.26	44.71
282.476	81.58
282.691	46.76
282.906	26.28
283.122	118.44
283.337	-0.34
283.552	83.63
283.767	-69.97
283.983	108.2
284.198	48.81
284.413	81.58
284.628	-76.12
284.843	18.09
285.058	108.2
285.274	63.15
285.489	40.62
285.704	114.34
285.919	-61.78
286.134	57
286.349	81.58
286.564	9.9
286.779	36.52
286.995	13.99
287.21	-37.2
287.425	57
287.64	22.19
287.855	54.95
288.07	-31.06
288.285	106.15
288.5	112.3
288.715	67.24
288.93	7.85
289.145	13.99
289.36	145.06
289.575	-31.06
289.79	97.96
290.004	32.43
290.219	22.19
290.434	32.43
290.649	1.71
290.864	40.62
291.079	32.43
291.294	40.62
291.509	18.09
291.724	-24.92
291.938	-4.44
292.153	40.62
292.368	52.91
292.583	59.05
292.798	122.54
293.012	18.09
293.227	79.53
293.442	52.91
293.657	65.19
293.871	134.82
294.086	67.24
294.301	173.74
294.516	149.16
294.73	67.24
294.945	13.99
295.16	-14.68
295.374	157.35
295.589	124.58
295.804	-2.39
296.018	67.24
296.233	130.73
296.447	65.19
296.662	36.52
296.877	118.44
297.091	42.67
297.306	7.85
297.52	7.85
297.735	122.54
297.949	52.91
298.164	42.67
298.378	59.05
298.593	34.47
298.807	-10.58
299.022	-8.53
299.236	134.82
299.451	13.99
299.665	5.8
299.88	28.33
300.094	69.29
300.309	11.95
300.523	38.57
300.737	-67.92
300.952	89.77
301.166	132.78
301.381	-39.25
301.595	34.47
301.809	73.39
302.024	83.63
302.238	18.09
302.452	143.02
302.667	44.71
302.881	155.3
303.095	67.24
303.309	128.68
303.524	-16.73
303.738	1.71
303.952	-8.53
304.166	61.1
304.381	-76.12
304.595	157.35
304.809	-26.96
305.023	24.23
305.237	81.58
305.452	63.15
305.666	75.43
305.88	118.44
306.094	3.75
306.308	118.44
306.522	100.01
306.736	171.69
306.95	42.67
307.164	114.34
307.379	-8.53
307.593	106.15
307.807	112.3
308.021	114.34
308.235	173.74
308.449	-61.78
308.663	-6.49
308.877	261.8
309.091	102.06
309.305	71.34
309.519	-57.68
309.733	145.06
309.947	-55.64
310.161	93.87
310.374	149.16
310.588	120.49
310.802	-41.3
311.016	54.95
311.23	1.71
311.444	-59.73
311.658	16.04
311.872	161.45
312.085	149.16
312.299	124.58
312.513	128.68
312.727	63.15
312.941	-10.58
313.154	67.24
313.368	13.99
313.582	16.04
313.796	67.24
314.009	83.63
314.223	126.63
314.437	9.9
314.651	118.44
314.864	7.85
315.078	-14.68
315.292	-10.58
315.505	-0.34
315.719	130.73
315.933	30.38
316.146	-24.92
316.36	-37.2
316.573	132.78
316.787	83.63
317.001	93.87
317.214	-59.73
317.428	112.3
317.641	7.85
317.855	11.95
318.068	-0.34
318.282	20.14
318.495	102.06
318.709	61.1
318.922	61.1
319.136	183.98
319.349	89.77
319.563	28.33
319.776	93.87
319.99	-57.68
320.203	147.11
320.417	30.38
320.63	77.48
320.843	212.65
321.057	61.1
321.27	65.19
321.483	83.63
321.697	93.87
321.91	36.52
322.124	79.53
322.337	75.43
322.55	-123.22
322.763	40.62
322.977	34.47
323.19	36.52
323.403	83.63
323.617	40.62
323.83	95.91
324.043	110.25
324.256	44.71
324.469	-100.69
324.683	173.74
324.896	67.24
325.109	7.85
325.322	-86.36
325.535	177.83
325.748	147.11
325.962	28.33
326.175	106.15
326.388	126.63
326.601	120.49
326.814	24.23
327.027	73.39
327.24	100.01
327.453	-55.64
327.666	104.11
327.879	159.4
328.092	100.01
328.305	106.15
328.518	18.09
328.731	95.91
328.944	38.57
329.157	87.72
329.37	65.19
329.583	188.07
329.796	106.15
330.009	40.62
330.222	54.95
330.435	149.16
330.648	75.43
330.861	28.33
331.073	57
331.286	89.77
331.499	20.14
331.712	20.14
331.925	77.48
332.138	34.47
332.35	120.49
332.563	52.91
332.776	149.16
332.989	-51.54
333.202	-41.3
333.414	112.3
333.627	73.39
333.84	13.99
334.053	71.34
334.265	59.05
334.478	44.71
334.691	1.71
334.903	110.25
335.116	-8.53
335.329	-0.34
335.541	61.1
335.754	179.88
335.966	-18.77
336.179	22.19
336.392	32.43
336.604	100.01
336.817	91.82
337.029	59.05
337.242	30.38
337.454	34.47
337.667	-18.77
337.88	134.82
338.092	57
338.305	59.05
338.517	-26.96
338.729	77.48
338.942	104.11
339.154	1.71
339.367	-0.34
339.579	126.63
339.792	-43.35
340.004	57
340.217	50.86
340.429	11.95
340.641	5.8
340.854	3.75
341.066	9.9
341.278	73.39
341.491	149.16
341.703	46.76
341.915	-45.4
342.128	136.87
342.34	104.11
342.552	-72.02
342.764	57
342.977	22.19
343.189	18.09
343.401	73.39
343.613	-4.44
343.826	-10.58
344.038	-24.92
344.25	167.59
344.462	5.8
344.674	52.91
344.886	9.9
345.099	93.87
345.311	11.95
345.523	38.57
345.735	-26.96
345.947	85.67
346.159	-37.2
346.371	40.62
346.583	44.71
346.795	220.84
347.007	-16.73
347.219	59.05
347.431	38.57
347.643	114.34
347.855	13.99
348.067	126.63
348.279	-67.92
348.491	97.96
348.703	140.97
348.915	20.14
349.127	26.28
349.339	40.62
349.551	-26.96
349.763	165.54
349.975	52.91
350.187	214.7
350.399	61.1
350.61	122.54
350.822	-22.87
351.034	110.25
351.246	83.63
351.458	147.11
351.669	20.14
351.881	124.58
352.093	116.39
352.305	85.67
352.517	32.43
352.728	145.06
352.94	57
353.152	48.81
353.363	-24.92
353.575	140.97
353.787	183.98
353.999	57
354.21	233.13
354.422	-37.2
354.633	-0.34
354.845	87.72
355.057	48.81
355.268	77.48
355.48	136.87
355.692	-39.25
355.903	81.58
356.115	-106.84
356.326	-112.98
356.538	216.74
356.749	1.71
356.961	173.74
357.172	-2.39
357.384	71.34
357.595	214.7
357.807	44.71
358.018	32.43
358.23	-16.73
358.441	196.26
358.653	79.53
358.864	9.9
359.075	-31.06
359.287	-20.82
359.498	130.73
359.709	167.59
359.921	59.05
360.132	79.53
360.344	50.86
360.555	36.52
360.766	42.67
360.977	-26.96
361.189	108.2
361.4	97.96
361.611	145.06
361.823	183.98
362.034	116.39
362.245	-61.78
362.456	59.05
362.667	106.15
362.879	-10.58
363.09	42.67
363.301	97.96
363.512	54.95
363.723	7.85
363.935	-20.82
364.146	95.91
364.357	26.28
364.568	67.24
364.779	-37.2
364.99	140.97
365.201	-24.92
365.412	173.74
365.623	-59.73
365.834	104.11
366.045	26.28
366.256	124.58
366.467	91.82
366.678	75.43
366.889	52.91
367.1	89.77
367.311	57
367.522	-8.53
367.733	122.54
367.944	89.77
368.155	42.67
368.366	11.95
368.577	75.43
368.788	171.69
368.999	-41.3
369.209	50.86
369.42	169.64
369.631	159.4
369.842	95.91
370.053	-6.49
370.264	75.43
370.474	-49.49
370.685	104.11
370.896	-8.53
371.107	104.11
371.317	102.06
371.528	79.53
371.739	114.34
371.95	108.2
372.16	143.02
372.371	-94.55
372.582	16.04
372.792	46.76
373.003	124.58
373.214	57
373.424	128.68
373.635	-37.2
373.846	155.3
374.056	32.43
374.267	50.86
374.477	44.71
374.688	59.05
374.898	44.71
375.109	71.34
375.319	63.15
375.53	97.96
375.74	196.26
375.951	26.28
376.161	91.82
376.372	138.92
376.582	-22.87
376.793	126.63
377.003	20.14
377.214	22.19
377.424	75.43
377.635	16.04
377.845	5.8
378.055	118.44
378.266	-80.21
378.476	83.63
378.686	87.72
378.897	67.24
379.107	136.87
379.317	69.29
379.528	-18.77
379.738	110.25
379.948	18.09
380.158	100.01
380.369	63.15
380.579	120.49
380.789	-20.82
380.999	13.99
381.21	67.24
381.42	251.56
381.63	9.9
381.84	102.06
382.05	71.34
382.261	116.39
382.471	114.34
382.681	-10.58
382.891	118.44
383.101	34.47
383.311	-14.68
383.521	38.57
383.731	81.58
383.941	89.77
384.151	73.39
384.361	36.52
384.571	73.39
384.781	-18.77
384.991	110.25
385.201	204.46
385.411	69.29
385.621	50.86
385.831	65.19
386.041	61.1
386.251	-0.34
386.461	93.87
386.671	42.67
386.881	85.67
387.091	-14.68
387.301	122.54
387.511	73.39
387.72	134.82
387.93	42.67
388.14	-98.64
388.35	104.11
388.56	120.49
388.769	54.95
388.979	65.19
389.189	-20.82
389.399	126.63
389.609	59.05
389.818	61.1
390.028	79.53
390.238	83.63
390.447	-22.87
390.657	42.67
390.867	7.85
391.076	-82.26
391.286	75.43
391.496	106.15
391.705	44.71
391.915	52.91
392.125	87.72
392.334	73.39
392.544	165.54
392.753	136.87
392.963	34.47
393.172	40.62
393.382	5.8
393.591	132.78
393.801	-39.25
394.01	177.83
394.22	163.5
394.429	46.76
394.639	48.81
394.848	67.24
395.058	128.68
395.267	-4.44
395.477	110.25
395.686	32.43
395.895	100.01
396.105	196.26
396.314	112.3
396.524	73.39
396.733	18.09
396.942	140.97
397.152	59.05
397.361	110.25
397.57	67.24
397.78	83.63
397.989	89.77
398.198	214.7
398.407	11.95
398.617	87.72
398.826	-12.63
399.035	61.1
399.244	132.78
399.453	79.53
399.663	-2.39
399.872	93.87
400.081	-67.92
400.29	122.54
400.499	32.43
400.708	54.95
400.917	54.95
401.127	-0.34
401.336	1.71
401.545	216.74
401.754	128.68
401.963	110.25
402.172	32.43
402.381	1.71
402.59	50.86
402.799	57
403.008	89.77
403.217	83.63
403.426	89.77
403.635	-72.02
403.844	59.05
404.053	28.33
404.262	-24.92
404.471	237.22
404.68	73.39
404.888	95.91
405.097	73.39
405.306	102.06
405.515	112.3
405.724	34.47
405.933	110.25
406.142	81.58
406.35	97.96
406.559	32.43
406.768	57
406.977	229.03
407.185	77.48
407.394	140.97
407.603	-14.68
407.812	97.96
408.02	75.43
408.229	-2.39
408.438	63.15
408.646	-37.2
408.855	116.39
409.064	61.1
409.272	36.52
409.481	71.34
409.69	-18.77
409.898	-55.64
410.107	20.14
410.315	73.39
410.524	-4.44
410.733	87.72
410.941	71.34
411.15	59.05
411.358	132.78
411.567	186.02
411.775	65.19
411.984	73.39
412.192	77.48
412.401	7.85
412.609	151.21
412.818	200.36
413.026	69.29
413.234	36.52
413.443	116.39
413.651	-49.49
413.86	65.19
414.068	130.73
414.276	87.72
414.485	22.19
414.693	140.97
414.901	212.65
415.11	116.39
415.318	54.95
415.526	59.05
415.734	91.82
415.943	36.52
416.151	155.3
416.359	-16.73
416.567	69.29
416.776	132.78
416.984	175.78
417.192	200.36
417.4	22.19
417.608	40.62
417.817	-61.78
418.025	87.72
418.233	229.03
418.441	16.04
418.649	-80.21
418.857	100.01
419.065	167.59
419.273	-10.58
419.481	126.63
419.689	102.06
419.897	11.95
420.105	7.85
420.313	112.3
420.521	134.82
420.729	134.82
420.937	22.19
421.145	22.19
421.353	73.39
421.561	214.7
421.769	89.77
421.977	-26.96
422.185	110.25
422.393	79.53
422.601	192.17
422.809	87.72
423.017	159.4
423.224	69.29
423.432	122.54
423.64	77.48
423.848	104.11
424.056	-55.64
424.263	32.43
424.471	26.28
424.679	171.69
424.887	1.71
425.094	179.88
425.302	163.5
425.51	52.91
425.718	122.54
425.925	61.1
426.133	44.71
426.341	218.79
426.548	57
426.756	7.85
426.964	128.68
427.171	-65.88
427.379	20.14
427.586	75.43
427.794	134.82
428.001	204.46
428.209	132.78
428.417	161.45
428.624	128.68
428.832	95.91
429.039	110.25
429.247	97.96
429.454	114.34
429.662	245.41
429.869	38.57
430.076	128.68
430.284	138.92
430.491	155.3
430.699	155.3
430.906	247.46
431.114	138.92
431.321	112.3
431.528	79.53
431.736	122.54
431.943	194.22
432.15	200.36
432.358	204.46
432.565	194.22
432.772	52.91
432.979	206.5
433.187	106.15
433.394	206.5
433.601	155.3
433.808	267.94
434.016	157.35
434.223	177.83
434.43	220.84
434.637	243.37
434.844	255.65
435.052	253.61
435.259	319.14
435.466	253.61
435.673	151.21
435.88	362.15
436.087	341.67
436.294	265.89
436.501	308.9
436.708	181.93
436.915	310.95
437.122	308.9
437.329	229.03
437.537	253.61
437.743	403.11
437.95	417.44
438.157	335.53
438.364	329.38
438.571	448.16
438.778	487.08
438.985	437.92
439.192	548.51
439.399	425.64
439.606	425.64
439.813	507.55
440.02	673.44
440.227	655.01
440.433	579.23
440.64	568.99
440.847	489.12
441.054	589.47
441.261	675.49
441.467	544.42
441.674	556.71
441.881	765.6
442.088	538.27
442.294	724.64
442.501	859.81
442.708	732.83
442.914	761.5
443.121	822.94
443.328	796.32
443.534	904.86
443.741	878.24
443.948	767.65
444.154	913.05
444.361	1173.14
444.568	892.57
444.774	968.35
444.981	921.24
445.187	1115.8
445.394	1185.43
445.6	1089.18
445.807	1179.29
446.013	1291.93
446.22	1296.02
446.426	1367.7
446.633	1365.65
446.839	1572.5
447.046	1375.89
447.252	1578.64
447.459	1590.93
447.665	1633.94
447.871	1781.39
448.078	1947.28
448.284	1842.83
448.491	1982.09
448.697	2025.1
448.903	2068.11
449.11	2092.68
449.316	2039.44
449.522	2217.61
449.728	2320.01
449.935	2338.44
450.141	2506.37
450.347	2664.07
450.553	2682.5
450.76	2633.35
450.966	2883.2
451.172	3034.75
451.378	3008.12
451.584	2934.4
451.791	3327.61
451.997	3415.67
452.203	3358.33
452.409	3665.52
452.615	3778.16
452.821	3618.42
453.027	3630.71
453.233	4195.95
453.44	3898.99
453.646	4111.98
453.852	4372.07
454.058	4558.44
454.264	4720.23
454.47	4929.12
454.676	4990.56
454.882	5582.42
455.088	5336.67
455.294	5555.8
455.5	5934.67
455.705	6258.25
455.911	6407.75
456.117	6491.72
456.323	6702.66
456.529	6772.29
456.735	7323.19
456.941	7460.41
457.147	7882.29
457.352	8085.04
457.558	8242.73
457.764	8812.07
457.97	8873.51
458.176	9238.05
458.381	9752.09
458.587	9989.65
458.793	10210.83
458.999	10360.33
459.204	11564.54
459.41	12133.87
459.616	11970.04
459.821	12672.49
460.027	13100.51
460.233	13589.98
460.438	13864.41
460.644	14620.11
460.85	14632.4
461.055	15384
461.261	16000.44
461.466	15627.71
461.672	16192.95
461.878	17712.54
462.083	17542.56
462.289	17819.03
462.494	18552.21
462.7	18947.47
462.905	19377.54
463.111	20817.26
463.316	21691.74
463.522	22177.11
463.727	22912.33
463.932	23776.58
464.138	24173.88
464.343	25455.91
464.549	25881.89
464.754	27647.24
464.959	27845.89
465.165	28855.54
465.37	28521.72
465.575	28292.35
465.781	30325.98
465.986	31194.32
466.191	30608.6
466.397	30524.63
466.602	30555.35
466.807	31966.4
467.012	32502.97
467.218	33246.38
467.423	33326.25
467.628	34153.63
467.833	35861.64
468.038	35126.42
468.244	34772.12
468.449	36418.69
468.654	35726.47
468.859	35482.77
469.064	35878.02
469.269	34790.55
469.474	35318.93
469.679	36459.65
469.885	35032.21
470.09	35499.15
470.295	35998.85
470.5	34884.76
470.705	35370.13
470.91	34276.51
471.115	33858.73
471.32	34172.07
471.525	34063.52
471.73	33111.22
471.935	33303.73
472.139	32079.04
472.344	32033.99
472.549	31634.63
472.754	31153.36
472.959	30399.71
473.164	29388.01
473.369	29265.13
473.574	29969.63
473.778	29031.66
473.983	28759.28
474.188	28081.41
474.393	26901.78
474.598	27020.56
474.802	26133.79
475.007	25644.32
475.212	25732.39
475.417	24544.56
475.621	24339.77
475.826	23958.85
476.031	23780.67
476.235	22959.44
476.44	23258.44
476.645	22246.74
476.849	22087
477.054	22005.08
477.259	21247.33
477.463	21300.58
477.668	20587.89
477.872	20581.74
478.077	20211.06
478.282	19393.92
478.486	19445.12
478.691	19215.75
478.895	18988.42
479.1	18881.93
479.304	18984.33
479.509	18242.96
479.713	18349.46
479.918	17974.68
480.122	17155.49
480.326	17716.64
480.531	17638.81
480.735	17515.94
480.94	17132.97
481.144	17722.78
481.348	16829.87
481.553	17118.63
481.757	16414.13
481.961	16766.38
482.166	16795.05
482.37	16557.49
482.574	15990.2
482.778	15994.29
482.983	16315.83
483.187	15961.53
483.391	15832.51
483.595	15623.61
483.8	15396.29
484.004	15508.93
484.208	15351.23
484.412	15037.89
484.616	15091.14
484.821	15015.37
485.025	14554.57
485.229	14548.43
485.433	14120.4
485.637	14253.52
485.841	13862.36
486.045	13772.25
486.249	13536.73
486.453	13508.06
486.657	13342.18
486.861	12799.46
487.065	12611.05
487.269	12711.4
487.473	12367.34
487.677	12289.52
487.881	12285.42
488.085	11824.63
488.289	11759.1
488.493	11439.61
488.697	11386.36
488.901	11302.4
489.105	10763.78
489.309	10833.41
489.512	10466.83
489.716	10440.2
489.92	10313.23
490.124	9963.03
490.328	10096.14
490.531	9608.73
490.735	9512.47
490.939	9354.78
491.143	9141.79
491.346	9098.78
491.55	8842.79
491.754	8728.1
491.958	8629.8
492.161	8416.81
492.365	8498.73
492.569	8285.74
492.772	8033.84
492.976	8064.56
493.18	7751.22
493.383	7788.08
493.587	7931.44
493.79	7616.05
493.994	7280.19
494.197	7308.86
494.401	7331.39
494.605	7419.45
494.808	7272
495.012	7091.77
495.215	7206.46
495.419	7089.73
495.622	6936.13
495.825	7054.91
496.029	6997.57
496.232	6919.75
496.436	6872.64
496.639	6940.22
496.843	6690.37
497.046	6864.45
497.249	6997.57
497.453	6809.15
497.656	6858.31
497.859	6745.67
498.063	6938.18
498.266	6897.22
498.469	6547.01
498.673	6958.66
498.876	7011.9
499.079	6846.02
499.282	6923.84
499.485	7306.81
499.689	6940.22
499.892	7214.65
500.095	7104.06
500.298	7343.67
500.501	7216.7
500.705	7392.83
500.908	7267.9
501.111	7419.45
501.314	7706.17
501.517	7669.3
501.72	7435.83
501.923	7607.86
502.126	7560.76
502.329	8031.79
502.532	7804.47
502.735	7767.6
502.938	8330.8
503.141	8115.76
503.344	8183.34
503.547	8281.64
503.75	8214.06
503.953	8496.68
504.156	8582.7
504.359	8799.78
504.562	8695.33
504.765	9164.32
504.968	9199.13
505.17	9289.24
505.373	9291.29
505.576	9747.99
505.779	9688.6
505.982	9719.32
506.185	10024.47
506.387	10186.26
506.59	10102.29
506.793	10628.62
506.996	10642.95
507.198	11052.55
507.401	11077.12
507.604	11443.71
507.807	11693.56
508.009	11711.99
508.212	11699.7
508.415	12119.54
508.617	12375.53
508.82	12621.29
509.022	12770.79
509.225	13180.39
509.428	13239.78
509.63	13446.62
509.833	13786.58
510.035	14562.76
510.238	14552.52
510.44	14980.55
510.643	15232.45
510.845	15715.77
511.048	15750.59
511.25	16137.65
511.453	16551.34
511.655	17298.85
511.858	17261.99
512.06	17810.84
512.262	17853.85
512.465	18337.17
512.667	18832.78
512.87	19250.56
513.072	19322.24
513.274	20182.39
513.477	20239.73
513.679	20835.69
513.881	21749.09
514.084	22087
514.286	22259.03
514.488	22734.16
514.69	23708.99
514.893	23831.87
515.095	24229.18
515.297	24970.54
515.499	25263.4
515.701	25972
515.904	26354.97
516.106	27266.31
516.308	27442.44
516.51	28237.05
516.712	28267.77
516.914	29222.12
517.116	30135.52
517.318	30393.56
517.52	30745.81
517.722	31067.34
517.925	31681.74
518.127	32685.24
518.329	33250.48
518.531	33201.33
518.733	34282.66
518.935	34675.87
519.136	34763.93
519.338	35763.34
519.54	36316.29
519.742	36893.82
519.944	37225.59
520.146	38034.53
520.348	38468.7
520.55	38360.16
520.752	39126.1
520.954	40420.42
521.155	39896.14
521.357	40856.64
521.559	41202.74
521.761	42150.95
521.963	42040.36
522.164	42605.6
522.366	42398.76
522.568	43598.87
522.77	43418.64
522.971	44463.11
523.173	44153.86
523.375	44827.65
523.576	44647.43
523.778	44385.29
523.98	45601.78
524.181	45302.78
524.383	45618.16
524.584	46128.11
524.786	45771.76
524.988	45661.17
525.189	46042.09
525.391	46621.67
525.592	46207.98
525.794	46203.88
525.995	46201.83
526.197	46367.72
526.398	46289.9
526.6	46203.88
526.801	46124.01
527.003	45908.97
527.204	45956.08
527.406	46132.2
527.607	45556.72
527.808	45771.76
528.01	44227.59
528.211	45014.01
528.412	44989.44
528.614	44082.19
528.815	43959.31
529.016	44229.64
529.218	42972.19
529.419	43226.14
529.62	42691.62
529.822	42372.13
530.023	41782.32
530.224	41897
530.425	41311.28
530.626	40567.87
530.828	40275.01
531.029	40381.51
531.23	40244.29
531.431	38999.13
531.632	39285.84
531.833	38997.08
532.035	38065.25
532.236	37717.1
532.437	37280.88
532.638	36617.34
532.839	36172.93
533.04	36217.99
533.241	35157.14
533.442	35228.82
533.643	34264.22
533.844	34030.76
534.045	34004.13
534.246	32883.89
534.447	32742.58
534.648	32074.95
534.849	31849.67
535.05	31327.44
535.251	30602.46
535.451	30268.64
535.652	30430.43
535.853	29813.99
536.054	29644.01
536.255	29351.15
536.456	28534.01
536.657	28345.59
536.857	27931.9
537.058	27337.99
537.259	27258.12
537.46	26582.29
537.66	26627.35
537.861	26199.32
538.062	25761.06
538.263	25275.69
538.463	24993.07
538.664	24712.5
538.865	24534.32
539.065	24233.27
539.266	23811.39
539.466	23795.01
539.667	23401.8
539.868	23432.52
540.068	22900.05
540.269	22353.24
540.469	22748.5
540.67	22154.58
540.87	21615.97
541.071	21233
541.271	21189.99
541.472	20870.51
541.672	20696.43
541.873	20325.75
542.073	19973.5
542.274	20053.37
542.474	19821.95
542.675	19598.72
542.875	19045.77
543.075	18797.96
543.276	18603.41
543.476	18859.4
543.676	18492.82
543.877	18234.77
544.077	18326.93
544.277	17800.6
544.478	17696.16
544.678	17522.08
544.878	17458.59
545.078	17239.46
545.279	16862.63
545.479	16715.18
545.679	16653.74
545.879	16393.65
546.079	16240.05
546.28	15891.9
546.48	15775.16
546.68	15816.12
546.88	15678.91
547.08	15390.14
547.28	15160.77
547.48	14773.71
547.68	14951.88
547.88	14259.67
548.081	14392.78
548.281	14132.69
548.481	13792.73
548.681	14028.24
548.881	13719
549.081	13407.71
549.28	13016.55
549.48	13204.96
549.68	13014.5
549.88	12916.2
550.08	12584.43
550.28	12572.14
550.48	12178.93
550.68	12156.4
550.88	11996.66
551.08	11838.97
551.279	11802.1
551.479	11165.18
551.679	11613.69
551.879	11093.51
552.079	10944
552.278	10804.74
552.478	10763.78
552.678	10530.31
552.878	10456.59
553.077	10198.54
553.277	9725.46
553.477	10053.14
553.676	9768.47
553.876	9473.56
554.076	9328.16
554.275	9256.48
554.475	9215.52
554.674	9012.77
554.874	9070.11
555.074	8943.14
555.273	8590.89
555.473	8408.62
555.672	8338.99
555.872	8109.61
556.071	8072.75
556.271	8015.41
556.47	7771.7
556.67	7644.73
556.869	7427.64
557.068	7427.64
557.268	7462.46
557.467	7196.22
557.667	7114.3
557.866	6864.45
558.065	6745.67
558.265	6600.26
558.464	6479.43
558.663	6456.9
558.863	6370.89
559.062	6317.64
559.261	6153.8
559.461	6288.97
559.66	5940.82
559.859	5815.89
560.058	5721.68
560.258	5647.96
560.457	5641.81
560.656	5617.24
560.855	5355.1
561.054	5467.74
561.253	5379.67
561.453	5185.12
561.652	4974.17
561.851	5168.73
562.05	5086.81
562.249	4695.65
562.448	4873.82
562.647	4757.09
562.846	4732.51
563.045	4716.13
563.244	4611.68
563.443	4589.16
563.642	4507.24
563.841	4353.64
564.04	4267.63
564.239	4187.75
564.438	4243.05
564.637	4005.49
564.836	3933.81
565.035	4005.49
565.234	3845.74
565.432	3827.31
565.631	3847.79
565.83	3790.45
566.029	3675.76
566.228	3655.28
566.427	3673.71
566.625	3608.18
566.824	3458.68
567.023	3343.99
567.222	3452.53
567.42	3327.61
567.619	3206.78
567.818	3255.93
568.016	3399.29
568.215	3190.39
568.414	3145.34
568.612	3106.43
568.811	2997.88
569.01	2985.6
569.208	2985.6
569.407	3065.47
569.605	2883.2
569.804	2700.93
570.002	2885.25
570.201	2770.56
570.4	2764.42
570.598	2610.82
570.797	2668.16
570.995	2629.25
571.193	2516.61
571.392	2539.14
571.59	2371.21
571.789	2619.01
571.987	2375.3
572.186	2578.05
572.384	2215.56
572.582	2371.21
572.781	2381.45
572.979	2047.63
573.177	2088.59
573.376	2154.12
573.574	2242.18
573.772	2217.61
573.971	1957.52
574.169	1877.65
574.367	1996.43
574.565	1924.75
574.763	1951.37
574.962	1932.94
575.16	1982.09
575.358	1795.73
575.556	1793.68
575.754	1783.44
575.952	1705.62
576.151	1760.91
576.349	1861.26
576.547	1488.53
576.745	1801.87
576.943	1592.98
577.141	1549.97
577.339	1470.1
577.537	1621.65
577.735	1531.54
577.933	1564.31
578.131	1472.15
578.329	1652.37
578.527	1353.37
578.725	1439.38
578.923	1355.41
579.121	1345.17
579.319	1267.35
579.516	1339.03
579.714	1482.39
579.912	1277.59
580.11	1234.58
580.308	1195.67
580.506	1269.4
580.704	974.49
580.901	1142.43
581.099	1277.59
581.297	1080.99
581.495	1152.67
581.692	1093.27
581.89	1207.96
582.088	1121.95
582.285	954.01
582.483	1019.55
582.681	1037.98
582.878	966.3
583.076	1015.45
583.274	1126.04
583.471	1107.61
583.669	994.97
583.866	898.72
584.064	933.53
584.262	827.04
584.459	868
584.657	921.24
584.854	992.92
585.052	892.57
585.249	951.96
585.447	822.94
585.644	792.22
585.841	911
586.039	900.76
586.236	915.1
586.434	824.99
586.631	870.05
586.828	777.89
587.026	812.7
587.223	706.21
587.42	747.17
587.618	665.25
587.815	808.61
588.012	695.97
588.21	706.21
588.407	769.69
588.604	781.98
588.801	665.25
588.999	657.06
589.196	689.82
589.393	626.34
589.59	689.82
589.787	728.74
589.984	632.48
590.182	698.02
590.379	636.58
590.576	655.01
590.773	675.49
590.97	624.29
591.167	732.83
591.364	640.67
591.561	652.96
591.758	722.59
591.955	669.34
592.152	679.58
592.349	599.71
592.546	558.75
592.743	540.32
592.94	720.54
593.137	648.86
593.334	691.87
593.531	708.26
593.727	708.26
593.924	667.3
594.121	552.61
594.318	642.72
594.515	640.67
594.712	732.83
594.908	732.83
595.105	499.36
595.302	655.01
595.499	675.49
595.696	769.69
595.892	554.66
596.089	786.08
596.286	638.62
596.482	827.04
596.679	835.23
596.876	720.54
597.072	786.08
597.269	779.93
597.466	808.61
597.662	728.74
597.859	816.8
598.055	913.05
598.252	904.86
598.448	1011.36
598.645	970.4
598.841	1095.32
599.038	1160.86
599.234	1255.06
599.431	1173.14
599.627	1072.79
599.824	1232.54
600.02	1205.91
600.217	1240.73
600.413	1277.59
600.609	1330.84
600.806	1693.33
601.002	1504.92
601.198	1509.01
601.395	1638.03
601.591	1580.69
601.787	1660.56
601.984	1873.55
602.18	1898.13
602.376	2014.86
602.572	1980.04
602.769	2180.75
602.965	2129.55
603.161	2244.23
603.357	2307.72
603.553	2518.66
603.75	2483.84
603.946	2467.46
604.142	2670.21
604.338	2907.77
604.534	2625.15
604.73	2928.25
604.926	2915.97
605.122	3163.77
605.318	3124.86
605.514	3206.78
605.71	3288.7
605.906	3493.49
606.102	3532.4
606.298	3737.2
606.494	3808.88
606.69	3911.28
606.886	3964.53
607.082	4054.64
607.278	4286.06
607.474	4433.51
607.67	4435.56
607.866	4392.55
608.062	4912.74
608.257	4814.43
608.453	4853.34
608.649	5260.89
608.845	5248.6
609.041	5281.37
609.236	5533.27
609.432	5719.64
609.628	5854.8
609.824	5908.05
610.019	6102.61
610.215	6248.01
610.411	6659.65
610.606	6774.34
610.802	6622.79
610.998	6968.9
611.193	7351.87
611.389	7321.15
611.584	7609.91
611.78	7568.95
611.976	7900.72
612.171	8250.92
612.367	8431.15
612.562	8484.39
612.758	8660.52
612.953	8822.31
613.149	9279.01
613.344	9352.73
613.539	9690.65
613.735	10028.56
613.93	10268.17
614.126	10413.58
614.321	10780.17
614.517	10974.72
614.712	11243.01
614.907	11453.95
615.103	11961.84
615.298	12250.61
615.493	12387.82
615.688	12733.93
615.884	13272.54
616.079	13260.26
616.274	13813.21
616.47	14126.55
616.665	14351.82
616.86	15041.99
617.055	15052.23
617.25	15300.03
617.445	16033.21
617.641	16287.15
617.836	16922.02
618.031	16940.46
618.226	17894.81
618.421	18138.52
618.616	18656.65
618.811	18511.25
619.006	19225.99
619.201	19750.27
619.396	20049.27
619.591	20096.38
619.786	20956.52
619.981	21378.4
620.176	21859.68
620.371	22283.61
620.566	22846.8
620.761	23117.13
620.956	23715.14
621.151	23950.65
621.346	24632.63
621.541	24950.06
621.735	25883.94
621.93	25767.2
622.125	26559.77
622.32	26602.77
622.515	27333.9
622.709	27747.59
622.904	28460.28
623.099	29050.1
623.294	29775.08
623.488	29766.88
623.683	30448.86
623.878	30567.64
624.072	31241.42
624.267	31605.96
624.462	32183.49
624.656	32576.7
624.851	33467.56
625.046	33862.82
625.24	34542.75
625.435	34679.96
625.629	35339.41
625.824	35607.69
626.018	35994.76
626.213	35937.41
626.407	37055.61
626.602	37102.71
626.796	37885.03
626.991	37919.85
627.185	38237.28
627.38	38698.08
627.574	38268
627.768	38655.07
627.963	39048.28
628.157	39052.37
628.352	39498.83
628.546	38954.07
628.74	39806.03
628.935	39177.3
629.129	39468.11
629.323	38976.6
629.517	39197.78
629.712	38775.9
629.906	38556.77
630.1	37870.7
630.294	38134.88
630.489	37530.73
630.683	37094.52
630.877	36428.93
631.071	35923.08
631.265	35370.13
631.459	34618.52
631.653	33748.14
631.848	33021.11
632.042	32339.13
632.236	31663.3
632.43	30856.4
632.624	30254.3
632.818	29168.88
633.012	28208.38
633.206	27372.81
633.4	26727.7
633.594	25414.95
633.788	24988.97
633.982	24612.15
634.176	23534.92
634.369	22142.3
634.563	21441.89
634.757	20725.1
634.951	20030.84
635.145	19230.09
635.339	18695.57
635.533	17886.62
635.726	17362.34
635.92	16291.25
636.114	15744.44
636.308	14894.54
636.501	14685.64
636.695	13989.33
636.889	13092.32
637.083	12776.94
637.276	12271.09
637.47	11560.44
637.664	11036.16
637.857	10847.75
638.051	10452.49
638.244	9817.62
638.438	9522.71
638.632	9291.29
638.825	8859.17
639.019	8486.44
639.212	8220.21
639.406	7792.18
639.599	7468.6
639.793	7245.37
639.986	6944.32
640.18	6655.56
640.373	6420.04
640.567	6129.23
640.76	6065.74
640.954	5674.58
641.147	5252.7
641.34	5248.6
641.534	5131.87
641.727	4894.3
641.92	4724.32
642.114	4691.56
642.307	4290.15
642.5	4271.72
642.694	3978.86
642.887	3833.46
643.08	3952.24
643.273	3755.63
643.467	3462.77
643.66	3309.18
643.853	3225.21
644.046	3176.06
644.239	3040.89
644.432	2778.75
644.626	2737.79
644.819	2604.67
645.012	2559.62
645.205	2508.42
645.398	2446.98
645.591	2313.86
645.784	2104.97
645.977	2033.29
646.17	2002.57
646.363	1914.51
646.556	1803.92
646.749	1767.06
646.942	1724.05
647.135	1762.96
647.328	1509.01
647.521	1644.18
647.714	1453.72
647.907	1441.43
648.099	1310.36
648.292	1392.28
648.485	1257.11
648.678	1195.67
648.871	1175.19
649.064	1185.43
649.256	1113.75
649.449	1066.65
649.642	859.81
649.835	1031.83
650.027	972.44
650.22	1025.69
650.413	968.35
650.605	933.53
650.798	747.17
650.991	814.75
651.183	773.79
651.376	839.33
651.568	767.65
651.761	583.33
651.954	712.35
652.146	648.86
652.339	665.25
652.531	687.78
652.724	489.12
652.916	597.67
653.109	515.75
653.301	599.71
653.494	607.91
653.686	513.7
653.879	583.33
654.071	487.08
654.263	509.6
654.456	372.39
654.648	562.85
654.84	466.6
655.033	388.77
655.225	532.13
655.417	321.19
655.61	532.13
655.802	433.83
655.994	521.89
656.186	325.29
656.379	425.64
656.571	263.85
656.763	280.23
656.955	269.99
657.148	310.95
657.34	466.6
657.532	306.85
657.724	306.85
657.916	358.05
658.108	245.41
658.3	388.77
658.492	356.01
658.684	196.26
658.876	347.81
659.068	202.41
659.26	231.08
659.452	247.46
659.644	216.74
659.836	364.2
660.028	319.14
660.22	245.41
660.412	233.13
660.604	229.03
660.796	257.7
660.988	290.47
661.18	306.85
661.372	282.28
661.563	245.41
661.755	249.51
661.947	161.45
662.139	128.68
662.331	155.3
662.522	267.94
662.714	169.64
662.906	163.5
663.097	220.84
663.289	114.34
663.481	100.01
663.673	186.02
663.864	163.5
664.056	190.12
664.247	71.34
664.439	194.22
664.631	208.55
664.822	196.26
665.014	196.26
665.205	102.06
665.397	161.45
665.588	126.63
665.78	151.21
665.971	183.98
666.163	204.46
666.354	181.93
666.546	114.34
666.737	175.78
666.929	93.87
667.12	108.2
667.311	218.79
667.503	167.59
667.694	192.17
667.885	87.72
668.077	224.94
668.268	73.39
668.459	89.77
668.651	206.5
668.842	216.74
669.033	50.86
669.224	173.74
669.416	317.09
669.607	114.34
669.798	73.39
669.989	290.47
670.18	118.44
670.371	181.93
670.563	122.54
670.754	186.02
670.945	173.74
671.136	224.94
671.327	132.78
671.518	216.74
671.709	231.08
671.9	265.89
672.091	278.18
672.282	97.96
672.473	59.05
672.664	77.48
672.855	136.87
673.046	204.46
673.237	194.22
673.428	134.82
673.619	173.74
673.809	140.97
674	261.8
674.191	163.5
674.382	69.29
674.573	134.82
674.764	163.5
674.954	190.12
675.145	118.44
675.336	175.78
675.527	128.68
675.717	83.63
675.908	134.82
676.099	151.21
676.289	181.93
676.48	44.71
676.671	171.69
676.861	149.16
677.052	218.79
677.243	259.75
677.433	69.29
677.624	241.32
677.814	220.84
678.005	100.01
678.195	319.14
678.386	261.8
678.576	157.35
678.767	108.2
678.957	163.5
679.148	216.74
679.338	288.42
679.529	198.31
679.719	116.39
679.909	233.13
680.1	243.37
680.29	247.46
680.481	122.54
680.671	269.99
680.861	274.09
681.052	136.87
681.242	310.95
681.432	171.69
681.622	255.65
681.813	89.77
682.003	251.56
682.193	222.89
682.383	206.5
682.573	245.41
682.764	245.41
682.954	304.81
683.144	257.7
683.334	224.94
683.524	296.61
683.714	138.92
683.904	274.09
684.094	224.94
684.284	263.85
684.474	325.29
684.664	396.96
684.854	194.22
685.044	202.41
685.234	231.08
685.424	280.23
685.614	216.74
685.804	261.8
685.994	284.33
686.184	208.55
686.374	249.51
686.564	356.01
686.753	263.85
686.943	143.02
687.133	143.02
687.323	329.38
687.513	269.99
687.702	286.37
687.892	194.22
688.082	272.04
688.272	358.05
688.461	288.42
688.651	327.33
688.841	269.99
689.03	181.93
689.22	243.37
689.41	272.04
689.599	237.22
689.789	239.27
689.979	362.15
690.168	241.32
690.358	276.13
690.547	243.37
690.737	294.57
690.926	284.33
691.116	263.85
691.305	237.22
691.495	255.65
691.684	147.11
691.874	181.93
692.063	110.25
692.252	226.98
692.442	278.18
692.631	118.44
692.82	216.74
693.01	280.23
693.199	183.98
693.388	321.19
693.578	226.98
693.767	315.05
693.956	208.55
694.146	177.83
694.335	249.51
694.524	222.89
694.713	298.66
694.902	181.93
695.092	233.13
695.281	237.22
695.47	188.07
695.659	179.88
695.848	269.99
696.037	161.45
696.226	274.09
696.415	126.63
696.604	302.76
696.793	327.33
696.982	159.4
697.171	341.67
697.36	218.79
697.549	249.51
697.738	163.5
697.927	106.15
698.116	210.6
698.305	265.89
698.494	237.22
698.683	163.5
698.872	327.33
699.061	173.74
699.25	300.71
699.438	200.36
699.627	179.88
699.816	362.15
700.005	122.54
700.193	214.7
700.382	286.37
700.571	261.8
700.76	249.51
700.948	321.19
701.137	290.47
701.326	216.74
701.514	145.06
701.703	298.66
701.892	286.37
702.08	388.77
702.269	229.03
702.457	153.26
702.646	284.33
702.834	122.54
703.023	317.09
703.212	239.27
703.4	190.12
703.589	226.98
703.777	208.55
703.965	224.94
704.154	210.6
704.342	134.82
704.531	218.79
704.719	214.7
704.907	267.94
705.096	106.15
705.284	163.5
705.472	171.69
705.661	267.94
705.849	290.47
706.037	329.38
706.226	208.55
706.414	319.14
706.602	145.06
706.79	286.37
706.979	196.26
707.167	231.08
707.355	136.87
707.543	257.7
707.731	231.08
707.919	155.3
708.107	220.84
708.296	181.93
708.484	54.95
708.672	315.05
708.86	229.03
709.048	198.31
709.236	120.49
709.424	257.7
709.612	267.94
709.8	65.19
709.988	132.78
710.176	257.7
710.364	265.89
710.551	157.35
710.739	155.3
710.927	206.5
711.115	263.85
711.303	220.84
711.491	274.09
711.679	97.96
711.866	216.74
712.054	216.74
712.242	159.4
712.43	245.41
712.617	130.73
712.805	253.61
712.993	216.74
713.181	91.82
713.368	208.55
713.556	183.98
713.744	243.37
713.931	315.05
714.119	255.65
714.306	163.5
714.494	249.51
714.682	263.85
714.869	161.45
715.057	108.2
715.244	167.59
715.432	253.61
715.619	132.78
715.807	222.89
715.994	210.6
716.182	151.21
716.369	286.37
716.556	269.99
716.744	157.35
716.931	67.24
717.119	214.7
717.306	249.51
717.493	292.52
717.681	224.94
717.868	188.07
718.055	315.05
718.242	288.42
718.43	218.79
718.617	345.77
718.804	243.37
718.991	276.13
719.179	245.41
719.366	298.66
719.553	224.94
719.74	208.55
719.927	138.92
720.114	339.62
720.301	188.07
720.488	130.73
720.676	218.79
720.863	267.94
721.05	425.64
721.237	261.8
721.424	376.48
721.611	276.13
721.798	169.64
721.985	91.82
722.172	249.51
722.358	239.27
722.545	317.09
722.732	261.8
722.919	310.95
723.106	259.75
723.293	325.29
723.48	220.84
723.667	157.35
723.853	335.53
724.04	296.61
724.227	310.95
724.414	247.46
724.6	302.76
724.787	274.09
724.974	386.72
725.161	341.67
725.347	224.94
725.534	206.5
725.72	274.09
725.907	288.42
726.094	419.49
726.28	200.36
726.467	226.98
726.653	255.65
726.84	392.87
727.027	444.07
727.213	280.23
727.4	347.81
727.586	249.51
727.773	308.9
727.959	263.85
728.145	374.44
728.332	280.23
728.518	247.46
728.705	280.23
728.891	267.94
729.077	296.61
729.264	298.66
729.45	208.55
729.636	300.71
729.823	278.18
730.009	384.68
730.195	269.99
730.382	317.09
730.568	196.26
730.754	302.76
730.94	243.37
731.126	302.76
731.313	372.39
731.499	204.46
731.685	329.38
731.871	290.47
732.057	269.99
732.243	247.46
732.429	296.61
732.615	448.16
732.801	366.25
732.987	263.85
733.173	220.84
733.359	243.37
733.545	278.18
733.731	276.13
733.917	288.42
734.103	280.23
734.289	356.01
734.475	155.3
734.661	413.35
734.847	343.72
735.033	300.71
735.219	294.57
735.404	274.09
735.59	200.36
735.776	288.42
735.962	208.55
736.148	374.44
736.333	390.82
736.519	341.67
736.705	294.57
736.89	300.71
737.076	241.32
737.262	284.33
737.447	284.33
737.633	284.33
737.819	339.62
738.004	255.65
738.19	274.09
738.375	255.65
738.561	353.96
738.747	284.33
738.932	173.74
739.118	392.87
739.303	370.34
739.489	263.85
739.674	290.47
739.859	231.08
740.045	356.01
740.23	255.65
740.416	79.53
740.601	315.05
740.786	300.71
740.972	202.41
741.157	257.7
741.342	241.32
741.528	249.51
741.713	306.85
741.898	296.61
742.084	313
742.269	257.7
742.454	331.43
742.639	364.2
742.824	188.07
743.01	343.72
743.195	317.09
743.38	290.47
743.565	282.28
743.75	267.94
743.935	362.15
744.12	356.01
744.305	214.7
744.49	327.33
744.675	280.23
744.86	239.27
745.045	308.9
745.23	226.98
745.415	325.29
745.6	372.39
745.785	231.08
745.97	353.96
746.155	269.99
746.34	458.4
746.525	243.37
746.71	384.68
746.895	210.6
747.079	179.88
747.264	220.84
747.449	280.23
747.634	296.61
747.819	306.85
748.003	239.27
748.188	81.58
748.373	360.1
748.557	249.51
748.742	278.18
748.927	220.84
749.111	265.89
749.296	186.02
749.481	237.22
749.665	222.89
749.85	321.19
750.034	208.55
750.219	243.37
750.404	198.31
750.588	218.79
750.773	134.82
750.957	245.41
751.141	194.22
751.326	267.94
751.51	233.13
751.695	147.11
751.879	224.94
752.064	306.85
752.248	206.5
752.432	323.24
752.617	212.65
752.801	323.24
752.985	157.35
753.17	333.48
753.354	212.65
753.538	208.55
753.722	108.2
753.907	167.59
754.091	52.91
754.275	204.46
754.459	159.4
754.643	175.78
754.828	196.26
755.012	183.98
755.196	120.49
755.38	247.46
755.564	122.54
755.748	167.59
755.932	198.31
756.116	306.85
756.3	276.13
756.484	169.64
756.668	247.46
756.852	30.38
757.036	138.92
757.22	224.94
757.404	159.4
757.588	161.45
757.772	138.92
757.956	157.35
758.14	272.04
758.323	177.83
758.507	229.03
758.691	198.31
758.875	110.25
759.059	243.37
759.242	202.41
759.426	157.35
759.61	198.31
759.794	130.73
759.977	245.41
760.161	368.29
760.345	249.51
760.528	267.94
760.712	206.5
760.895	194.22
761.079	214.7
761.263	136.87
761.446	67.24
761.63	46.76
761.813	214.7
761.997	81.58
762.18	69.29
762.364	140.97
762.547	3.75
762.731	120.49
762.914	97.96
763.098	54.95
763.281	100.01
763.464	163.5
763.648	159.4
763.831	202.41
764.015	114.34
764.198	188.07
764.381	157.35
764.564	120.49
764.748	100.01
764.931	179.88
765.114	120.49
765.297	200.36
765.481	20.14
765.664	112.3
765.847	79.53
766.03	153.26
766.213	77.48
766.397	104.11
766.58	63.15
766.763	120.49
766.946	67.24
767.129	61.1
767.312	42.67
767.495	134.82
767.678	145.06
767.861	114.34
768.044	132.78
768.227	85.67
768.41	77.48
768.593	100.01
768.776	134.82
768.959	120.49
769.142	241.32
769.324	100.01
769.507	71.34
769.69	83.63
769.873	114.34
770.056	226.98
770.239	153.26
770.421	210.6
770.604	130.73
770.787	95.91
770.97	102.06
771.152	24.23
771.335	85.67
771.518	-16.73
771.7	216.74
771.883	202.41
772.066	50.86
772.248	143.02
772.431	134.82
772.613	118.44
772.796	116.39
772.978	61.1
773.161	163.5
773.343	153.26
773.526	36.52
773.708	38.57
773.891	48.81
774.073	40.62
774.256	61.1
774.438	214.7
774.621	50.86
774.803	124.58
774.985	1.71
775.168	34.47
775.35	11.95
775.532	177.83
775.715	61.1
775.897	179.88
776.079	110.25
776.261	124.58
776.444	38.57
776.626	85.67
776.808	40.62
776.99	-61.78
777.173	132.78
777.355	7.85
777.537	110.25
777.719	46.76
777.901	126.63
778.083	77.48
778.265	24.23
778.447	194.22
778.629	61.1
778.811	42.67
778.993	216.74
779.175	186.02
779.357	61.1
779.539	-12.63
779.721	79.53
779.903	102.06
780.085	11.95
780.267	59.05
780.449	114.34
780.631	93.87
780.812	151.21
780.994	65.19
781.176	69.29
781.358	-6.49
781.54	-0.34
781.721	61.1
781.903	116.39
782.085	22.19
782.267	186.02
782.448	1.71
782.63	38.57
782.812	69.29
782.993	122.54
783.175	124.58
783.357	50.86
783.538	93.87
783.72	1.71
783.901	1.71
784.083	79.53
784.264	165.54
784.446	-31.06
784.627	-49.49
784.809	71.34
784.99	-12.63
785.172	81.58
785.353	85.67
785.535	28.33
785.716	-37.2
785.897	16.04
786.079	30.38
786.26	73.39
786.441	126.63
786.623	5.8
786.804	-14.68
786.985	11.95
787.167	40.62
787.348	46.76
787.529	32.43
787.71	183.98
787.891	93.87
788.073	-6.49
788.254	-82.26
788.435	224.94
788.616	108.2
788.797	50.86
788.978	11.95
789.159	75.43
789.34	110.25
789.522	57
789.703	38.57
789.884	110.25
790.065	42.67
790.246	241.32
790.427	-16.73
790.607	147.11
790.788	69.29
790.969	32.43
791.15	77.48
791.331	69.29
791.512	-26.96
791.693	-65.88
791.874	52.91
792.054	233.13
792.235	69.29
792.416	-12.63
792.597	-39.25
792.778	24.23
792.958	57
793.139	48.81
793.32	75.43
793.5	-88.4
793.681	204.46
793.862	97.96
794.042	24.23
794.223	-78.16
794.404	16.04
794.584	-67.92
794.765	-10.58
794.945	30.38
795.126	93.87
795.306	91.82
795.487	-18.77
795.667	-2.39
795.848	40.62
796.028	85.67
796.209	106.15
796.389	140.97
796.57	5.8
796.75	-33.11
796.93	5.8
797.111	-6.49
797.291	-41.3
797.471	128.68
797.652	-12.63
797.832	30.38
798.012	59.05
798.192	-16.73
798.373	-22.87
798.553	118.44
798.733	32.43
798.913	-47.44
799.093	-65.88
799.274	50.86
799.454	16.04
799.634	122.54
799.814	1.71
799.994	114.34
800.174	75.43
800.354	73.39
800.534	-51.54
800.714	75.43
800.894	-33.11
801.074	-57.68
801.254	-29.01
801.434	128.68
801.614	3.75
801.794	-35.16
801.974	1654.42
802.154	-24.92
802.334	126.63
802.514	-65.88
802.693	30.38
802.873	-6.49
803.053	52.91
803.233	120.49
803.413	9.9
803.592	61.1
803.772	44.71
803.952	1.71
804.131	32.43
804.311	75.43
804.491	50.86
804.67	-41.3
804.85	-53.59
805.03	116.39
805.209	104.11
805.389	52.91
805.568	-20.82
805.748	48.81
805.928	5.8
806.107	30.38
806.287	77.48
806.466	59.05
806.646	46.76
806.825	1.71
807.004	-10.58
807.184	52.91
807.363	65.19
807.543	-65.88
807.722	-18.77
807.901	71.34
808.081	79.53
808.26	-141.65
808.439	-10.58
808.619	89.77
808.798	-10.58
808.977	97.96
809.156	116.39
809.336	104.11
809.515	48.81
809.694	-67.92
809.873	-33.11
810.052	59.05
810.231	79.53
810.411	26.28
810.59	28.33
810.769	22.19
810.948	26.28
811.127	-92.5
811.306	-61.78
811.485	-16.73
811.664	42.67
811.843	13.99
812.022	63.15
812.201	5.8
812.38	3.75
812.559	-61.78
812.737	-0.34
812.916	-119.12
813.095	42.67
813.274	22.19
813.453	26.28
813.632	1.71
813.811	126.63
813.989	-69.97
814.168	16.04
814.347	-117.08
814.526	-49.49
814.704	118.44
814.883	91.82
815.062	-47.44
815.24	11.95
815.419	-16.73
815.598	110.25
815.776	-74.07
815.955	102.06
816.133	-143.7
816.312	50.86
816.49	-37.2
816.669	-6.49
816.847	34.47
817.026	18.09
817.204	-41.3
817.383	-12.63
817.561	-123.22
817.74	5.8
817.918	81.58
818.097	-53.59
818.275	-106.84
818.453	104.11
818.632	20.14
818.81	22.19
818.988	-35.16
819.167	-29.01
819.345	28.33
819.523	-59.73
819.701	38.57
819.879	52.91
820.058	-14.68
820.236	-37.2
820.414	3.75
820.592	-53.59
820.77	81.58
820.948	40.62
821.127	38.57
821.305	7.85
821.483	-94.55
821.661	48.81
821.839	106.15
822.017	-24.92
822.195	-76.12
822.373	171.69
822.551	-8.53
822.729	42.67
822.907	1.71
823.085	65.19
823.262	38.57
823.44	-104.79
823.618	28.33
823.796	44.71
823.974	32.43
824.152	-8.53
824.329	-47.44
824.507	22.19
824.685	28.33
824.863	-14.68
825.04	-55.64
825.218	-8.53
825.396	-18.77
825.574	22.19
825.751	28.33
825.929	136.87
826.107	-14.68
826.284	28.33
826.462	-24.92
826.639	-59.73
826.817	-22.87
826.994	16.04
827.172	-47.44
827.349	138.92
827.527	36.52
827.704	-12.63
827.882	77.48
828.059	-16.73
828.237	-35.16
828.414	18.09
828.591	-160.08
828.769	-0.34
828.946	-53.59
829.124	69.29
829.301	93.87
829.478	11.95
829.655	83.63
829.833	-43.35
830.01	-112.98
830.187	-8.53
830.364	-47.44
830.542	81.58
830.719	77.48
830.896	130.73
831.073	40.62
831.25	118.44
831.427	1.71
831.604	-16.73
831.782	-22.87
831.959	-26.96
832.136	-45.4
832.313	-39.25
832.49	18.09
832.667	16.04
832.844	-59.73
833.021	106.15
833.198	1.71
833.374	3.75
833.551	100.01
833.728	-16.73
833.905	100.01
834.082	-133.46
834.259	-39.25
834.436	110.25
834.612	-43.35
834.789	81.58
834.966	48.81
835.143	42.67
835.319	-16.73
835.496	30.38
835.673	42.67
835.85	179.88
836.026	28.33
836.203	40.62
836.38	-14.68
836.556	-37.2
836.733	-82.26
836.909	57
837.086	-45.4
837.262	-53.59
837.439	-45.4
837.616	-2.39
837.792	-8.53
837.968	24.23
838.145	-82.26
838.321	85.67
838.498	11.95
838.674	83.63
838.851	-18.77
839.027	-2.39
839.203	7.85
839.38	73.39
839.556	40.62
839.732	69.29
839.909	32.43
840.085	54.95
840.261	-108.88
840.437	32.43
840.614	-63.83
840.79	61.1
840.966	34.47
841.142	-16.73
841.318	32.43
841.494	-47.44
841.671	57
841.847	3.75
842.023	-12.63
842.199	-2.39
842.375	134.82
842.551	-82.26
842.727	-106.84
842.903	69.29
843.079	-102.74
843.255	93.87
843.431	38.57
843.607	102.06
843.783	-74.07
843.959	50.86
844.134	-94.55
844.31	87.72
844.486	-67.92
844.662	-39.25
844.838	-12.63
845.013	16.04
845.189	104.11
845.365	-51.54
845.541	3.75
845.716	-57.68
845.892	65.19
846.068	-82.26
846.244	-12.63
846.419	9.9
846.595	-45.4
846.77	-82.26
846.946	57
847.122	-82.26
847.297	-14.68
847.473	243.37
847.648	-102.74
847.824	54.95
847.999	-74.07
848.175	-45.4
848.35	77.48
848.526	83.63
848.701	71.34
848.876	106.15
849.052	106.15
849.227	7.85
849.403	87.72
849.578	9.9
849.753	40.62
849.929	-55.64
850.104	-135.51
850.279	-26.96
850.454	-33.11
850.63	40.62
850.805	89.77
850.98	26.28
851.155	-72.02
851.33	65.19
851.505	-63.83
851.681	114.34
851.856	-88.4
852.031	67.24
852.206	30.38
852.381	-63.83
852.556	-10.58
852.731	46.76
852.906	36.52
853.081	73.39
853.256	149.16
853.431	-31.06
853.606	-4.44
853.781	-55.64
853.956	-180.56
854.131	20.14
854.305	20.14
854.48	36.52
854.655	-82.26
854.83	28.33
855.005	-6.49
855.18	38.57
855.354	-61.78
855.529	-10.58
855.704	-6.49
855.879	50.86
856.053	-49.49
856.228	26.28
856.403	-14.68
856.577	61.1
856.752	-57.68
856.926	38.57
857.101	54.95
857.276	-57.68
857.45	32.43
857.625	73.39
857.799	-24.92
857.974	-49.49
858.148	-65.88
858.323	69.29
858.497	-12.63
858.672	-57.68
858.846	-49.49
859.02	40.62
859.195	-92.5
859.369	-55.64
859.543	30.38
859.718	-2.39
859.892	67.24
860.066	24.23
860.241	-10.58
860.415	-102.74
860.589	-8.53
860.763	-10.58
860.938	-51.54
861.112	59.05
861.286	-78.16
861.46	26.28
861.634	-39.25
861.808	9.9
861.982	-51.54
862.157	-90.45
862.331	30.38
862.505	-100.69
862.679	-74.07
862.853	-20.82
863.027	-31.06
863.201	83.63
863.375	-76.12
863.549	-14.68
863.722	120.49
863.896	77.48
864.07	-76.12
864.244	3.75
864.418	24.23
864.592	50.86
864.766	-63.83
864.939	30.38
865.113	-35.16
865.287	151.21
865.461	-135.51
865.634	-22.87
865.808	-59.73
865.982	-78.16
866.156	-78.16
866.329	-59.73
866.503	5.8
866.676	5.8
866.85	9.9
867.024	-35.16
867.197	69.29
867.371	16.04
867.544	-45.4
867.718	-76.12
867.891	116.39
868.065	-31.06
868.238	-18.77
868.412	91.82
868.585	-39.25
868.759	-65.88
868.932	-65.88
869.105	-108.88
869.279	11.95
869.452	-41.3
869.625	-67.92
869.799	32.43
869.972	-4.44
870.145	26.28
870.319	20.14
870.492	-57.68
870.665	-2.39
870.838	-45.4
871.011	-76.12
871.185	-16.73
871.358	-14.68
871.531	9.9
871.704	-51.54
871.877	-10.58
872.05	-4.44
872.223	-131.41
872.396	159.4
872.569	73.39
872.742	-86.36
872.915	44.71
873.088	-4.44
873.261	-20.82
873.434	-10.58
873.607	11.95
873.78	69.29
873.953	-82.26
874.126	-10.58
874.299	71.34
874.471	-6.49
874.644	16.04
874.817	32.43
874.99	93.87
875.163	-16.73
875.335	16.04
875.508	9.9
875.681	102.06
875.853	-94.55
876.026	5.8
876.199	-16.73
876.371	3.75
876.544	-65.88
876.717	26.28
876.889	-24.92
877.062	16.04
877.234	-51.54
877.407	-74.07
877.579	32.43
877.752	46.76
877.924	16.04
878.097	114.34
878.269	9.9
878.442	-16.73
878.614	71.34
878.786	73.39
878.959	30.38
879.131	85.67
879.303	-119.12
879.476	1.71
879.648	75.43
879.82	3.75
879.993	-80.21
880.165	-26.96
880.337	-80.21
880.509	67.24
880.681	-86.36
880.854	-47.44
881.026	36.52
881.198	171.69
881.37	30.38
881.542	34.47
881.714	-16.73
881.886	38.57
882.058	-41.3
882.23	77.48
882.402	-18.77
882.574	7.85
882.746	11.95
882.918	81.58
883.09	71.34
883.262	38.57
883.434	-82.26
883.606	-61.78
883.778	-14.68
883.95	112.3
884.122	-35.16
884.293	87.72
884.465	28.33
884.637	93.87
884.809	-65.88
884.98	11.95
885.152	-8.53
885.324	36.52
885.496	7.85
885.667	-16.73
885.839	-47.44
886.011	132.78
886.182	85.67
886.354	30.38
886.525	-0.34
886.697	-55.64
886.869	-82.26
887.04	-41.3
887.212	32.43
887.383	116.39
887.555	44.71
887.726	-12.63
887.897	-12.63
888.069	13.99
888.24	20.14
888.412	-12.63
888.583	63.15
888.754	-72.02
888.926	-119.12
889.097	-102.74
889.268	-115.03
889.44	-10.58
889.611	-80.21
889.782	-90.45
889.953	-43.35
890.125	163.5
890.296	-33.11
890.467	-12.63
890.638	-20.82
890.809	-10.58
890.98	9.9
891.151	22.19
891.323	108.2
891.494	22.19
891.665	65.19
891.836	-16.73
892.007	-4.44
892.178	-6.49
892.349	48.81
892.52	18.09
892.691	-43.35
892.862	-43.35
893.032	-174.42
893.203	50.86
893.374	-80.21
893.545	71.34
893.716	-57.68
893.887	79.53
894.057	1.71
894.228	7.85
894.399	-65.88
894.57	91.82
894.74	28.33
894.911	38.57
895.082	-12.63
895.253	-47.44
895.423	-0.34
895.594	134.82
895.764	36.52
895.935	-131.41
896.106	95.91
896.276	-61.78
896.447	34.47
896.617	-137.56
896.788	-90.45
896.958	-20.82
897.129	-51.54
897.299	-26.96
897.47	100.01
897.64	-24.92
897.81	11.95
897.981	-67.92
898.151	-86.36
898.322	44.71
898.492	20.14
898.662	-6.49
898.832	5.8
899.003	-41.3
899.173	73.39
899.343	-84.31
899.513	-65.88
