Data from USB4F104151__191__11-05-21-932.txt Node

Date: Wed Feb 26 11:05:21 EST 2025
User: louis
Spectrometer: USB4F10415
Trigger mode: 4
Integration Time (sec): 1.000000E-1
Scans to average: 1
Electric dark correction enabled: true
Nonlinearity correction enabled: false
Boxcar width: 0
XAxis mode: Wavelengths
Number of Pixels in Spectrum: 3648
>>>>>Begin Spectral Data<<<<<
178.204	-416.25
178.424	-416.25
178.644	-416.25
178.864	-401.91
179.084	-401.91
179.304	-76.29
179.524	-47.62
179.744	75.26
179.964	-53.76
180.184	1.54
180.404	3.58
180.624	13.82
180.844	50.69
181.064	-76.29
181.283	79.36
181.503	-8.7
181.723	38.4
181.943	-23.04
182.163	216.57
182.383	-8.7
182.602	116.22
182.822	108.03
183.042	110.08
183.262	17.92
183.482	26.11
183.701	71.17
183.921	19.97
184.141	36.35
184.361	77.31
184.58	75.26
184.8	-6.66
185.02	24.06
185.239	50.69
185.459	54.78
185.679	93.69
185.898	-111.1
186.118	60.93
186.338	24.06
186.557	95.74
186.777	-96.77
186.997	-27.14
187.216	75.26
187.436	230.91
187.655	17.92
187.875	157.18
188.095	60.93
188.314	192
188.534	95.74
188.753	-35.33
188.973	144.89
189.192	265.72
189.412	24.06
189.631	34.3
189.851	28.16
190.07	71.17
190.29	-74.24
190.509	9.73
190.729	73.21
190.948	134.65
191.168	181.76
191.387	32.26
191.607	62.98
191.826	60.93
192.045	62.98
192.265	40.45
192.484	87.55
192.704	19.97
192.923	-51.71
193.142	194.05
193.362	140.8
193.581	148.99
193.8	52.74
194.02	89.6
194.239	110.08
194.458	105.98
194.678	-0.51
194.897	1.54
195.116	19.97
195.335	42.5
195.555	56.83
195.774	17.92
195.993	210.43
196.212	15.87
196.432	-2.56
196.651	69.12
196.87	65.02
197.089	196.09
197.308	93.69
197.528	126.46
197.747	1.54
197.966	40.45
198.185	153.09
198.404	26.11
198.623	208.38
198.842	62.98
199.062	60.93
199.281	144.89
199.5	144.89
199.719	40.45
199.938	89.6
200.157	50.69
200.376	58.88
200.595	146.94
200.814	105.98
201.033	-14.85
201.252	206.33
201.471	105.98
201.69	126.46
201.909	73.21
202.128	128.51
202.347	50.69
202.566	28.16
202.785	-23.04
203.004	91.65
203.223	308.73
203.442	67.07
203.661	-37.38
203.879	112.13
204.098	179.71
204.317	-8.7
204.536	114.17
204.755	73.21
204.974	153.09
205.193	30.21
205.411	105.98
205.63	138.75
205.849	161.28
206.068	22.02
206.287	32.26
206.505	202.24
206.724	62.98
206.943	-2.56
207.162	9.73
207.381	34.3
207.599	13.82
207.818	-2.56
208.037	-31.23
208.255	71.17
208.474	54.78
208.693	93.69
208.911	44.54
209.13	136.7
209.349	85.5
209.567	73.21
209.786	73.21
210.005	153.09
210.223	91.65
210.442	-72.19
210.661	91.65
210.879	69.12
211.098	-6.66
211.316	62.98
211.535	54.78
211.753	99.84
211.972	75.26
212.191	-8.7
212.409	69.12
212.628	69.12
212.846	-70.14
213.065	44.54
213.283	144.89
213.502	40.45
213.72	116.22
213.938	65.02
214.157	22.02
214.375	181.76
214.594	56.83
214.812	144.89
215.031	-20.99
215.249	-0.51
215.467	30.21
215.686	34.3
215.904	83.45
216.122	17.92
216.341	159.23
216.559	93.69
216.778	112.13
216.996	93.69
217.214	-18.94
217.432	46.59
217.651	-27.14
217.869	-29.18
218.087	128.51
218.306	38.4
218.524	52.74
218.742	28.16
218.96	108.03
219.179	22.02
219.397	11.78
219.615	261.63
219.833	54.78
220.051	36.35
220.27	38.4
220.488	148.99
220.706	124.41
220.924	22.02
221.142	1.54
221.36	50.69
221.578	44.54
221.796	19.97
222.015	3.58
222.233	65.02
222.451	189.95
222.669	-12.8
222.887	122.37
223.105	13.82
223.323	93.69
223.541	-41.47
223.759	26.11
223.977	44.54
224.195	175.61
224.413	89.6
224.631	69.12
224.849	71.17
225.067	212.48
225.285	46.59
225.503	-4.61
225.721	-70.14
225.939	17.92
226.157	40.45
226.375	175.61
226.592	-6.66
226.81	122.37
227.028	108.03
227.246	122.37
227.464	85.5
227.682	112.13
227.9	44.54
228.117	58.88
228.335	75.26
228.553	73.21
228.771	7.68
228.989	67.07
229.206	71.17
229.424	-72.19
229.642	9.73
229.86	-0.51
230.077	171.52
230.295	89.6
230.513	161.28
230.731	99.84
230.948	169.47
231.166	278.01
231.384	-61.95
231.601	-8.7
231.819	183.81
232.037	-4.61
232.254	-12.8
232.472	75.26
232.689	-0.51
232.907	208.38
233.125	9.73
233.342	-2.56
233.56	52.74
233.777	7.68
233.995	112.13
234.213	112.13
234.43	101.89
234.648	81.41
234.865	28.16
235.083	112.13
235.3	67.07
235.518	46.59
235.735	118.27
235.953	69.12
236.17	120.32
236.388	52.74
236.605	65.02
236.822	163.33
237.04	241.15
237.257	58.88
237.475	-74.24
237.692	73.21
237.909	40.45
238.127	-2.56
238.344	65.02
238.562	83.45
238.779	-82.43
238.996	26.11
239.214	-16.9
239.431	144.89
239.648	-2.56
239.865	69.12
240.083	116.22
240.3	19.97
240.517	-10.75
240.735	62.98
240.952	130.56
241.169	120.32
241.386	108.03
241.603	-0.51
241.821	-6.66
242.038	60.93
242.255	81.41
242.472	5.63
242.689	103.93
242.907	99.84
243.124	3.58
243.341	50.69
243.558	19.97
243.775	-4.61
243.992	-41.47
244.209	169.47
244.426	146.94
244.643	79.36
244.86	52.74
245.078	40.45
245.295	60.93
245.512	17.92
245.729	-6.66
245.946	161.28
246.163	148.99
246.38	44.54
246.597	99.84
246.814	54.78
247.031	79.36
247.248	54.78
247.464	126.46
247.681	46.59
247.898	99.84
248.115	99.84
248.332	-10.75
248.549	192
248.766	138.75
248.983	89.6
249.2	60.93
249.417	130.56
249.633	65.02
249.85	62.98
250.067	62.98
250.284	148.99
250.501	101.89
250.717	99.84
250.934	-8.7
251.151	9.73
251.368	46.59
251.585	34.3
251.801	85.5
252.018	-43.52
252.235	208.38
252.451	-80.38
252.668	52.74
252.885	202.24
253.102	40.45
253.318	30.21
253.535	13.82
253.752	116.22
253.968	19.97
254.185	13.82
254.401	-23.04
254.618	9.73
254.835	-35.33
255.051	192
255.268	95.74
255.484	120.32
255.701	13.82
255.917	83.45
256.134	85.5
256.351	22.02
256.567	34.3
256.784	7.68
257	-45.57
257.217	101.89
257.433	126.46
257.65	36.35
257.866	128.51
258.082	-23.04
258.299	-59.9
258.515	73.21
258.732	85.5
258.948	15.87
259.165	99.84
259.381	-51.71
259.597	138.75
259.814	126.46
260.03	62.98
260.246	-18.94
260.463	134.65
260.679	179.71
260.895	116.22
261.112	89.6
261.328	32.26
261.544	-0.51
261.761	175.61
261.977	22.02
262.193	-94.72
262.409	140.8
262.626	-8.7
262.842	-8.7
263.058	15.87
263.274	112.13
263.49	95.74
263.707	75.26
263.923	95.74
264.139	-20.99
264.355	32.26
264.571	105.98
264.787	75.26
265.004	83.45
265.22	9.73
265.436	11.78
265.652	-23.04
265.868	95.74
266.084	42.5
266.3	42.5
266.516	-27.14
266.732	1.54
266.948	75.26
267.164	69.12
267.38	101.89
267.596	132.61
267.812	187.9
268.028	7.68
268.244	22.02
268.46	58.88
268.676	71.17
268.892	24.06
269.108	42.5
269.324	-10.75
269.54	52.74
269.756	183.81
269.972	-49.66
270.188	9.73
270.403	-35.33
270.619	114.17
270.835	40.45
271.051	52.74
271.267	93.69
271.483	13.82
271.698	146.94
271.914	99.84
272.13	138.75
272.346	28.16
272.562	44.54
272.777	124.41
272.993	17.92
273.209	-90.62
273.425	44.54
273.64	-37.38
273.856	163.33
274.072	11.78
274.287	-0.51
274.503	105.98
274.719	75.26
274.934	19.97
275.15	-43.52
275.366	32.26
275.581	-4.61
275.797	103.93
276.012	60.93
276.228	56.83
276.444	89.6
276.659	116.22
276.875	28.16
277.09	40.45
277.306	42.5
277.521	79.36
277.737	-20.99
277.952	116.22
278.168	54.78
278.383	101.89
278.599	67.07
278.814	110.08
279.03	13.82
279.245	124.41
279.461	62.98
279.676	112.13
279.892	34.3
280.107	3.58
280.322	24.06
280.538	24.06
280.753	15.87
280.969	114.17
281.184	32.26
281.399	189.95
281.615	116.22
281.83	89.6
282.045	-49.66
282.26	22.02
282.476	26.11
282.691	101.89
282.906	67.07
283.122	54.78
283.337	-18.94
283.552	58.88
283.767	38.4
283.983	112.13
284.198	1.54
284.413	69.12
284.628	13.82
284.843	58.88
285.058	44.54
285.274	67.07
285.489	34.3
285.704	120.32
285.919	9.73
286.134	95.74
286.349	48.64
286.564	101.89
286.779	124.41
286.995	7.68
287.21	-61.95
287.425	54.78
287.64	34.3
287.855	9.73
288.07	-74.24
288.285	163.33
288.5	177.66
288.715	69.12
288.93	-23.04
289.145	73.21
289.36	138.75
289.575	17.92
289.79	163.33
290.004	67.07
290.219	177.66
290.434	-18.94
290.649	24.06
290.864	56.83
291.079	60.93
291.294	24.06
291.509	17.92
291.724	30.21
291.938	46.59
292.153	105.98
292.368	22.02
292.583	73.21
292.798	132.61
293.012	85.5
293.227	134.65
293.442	60.93
293.657	116.22
293.871	73.21
294.086	54.78
294.301	243.2
294.516	128.51
294.73	69.12
294.945	-27.14
295.16	-51.71
295.374	173.57
295.589	163.33
295.804	-8.7
296.018	89.6
296.233	108.03
296.447	56.83
296.662	62.98
296.877	99.84
297.091	144.89
297.306	15.87
297.52	73.21
297.735	91.65
297.949	-12.8
298.164	15.87
298.378	91.65
298.593	-35.33
298.807	62.98
299.022	-8.7
299.236	146.94
299.451	22.02
299.665	-31.23
299.88	52.74
300.094	95.74
300.309	40.45
300.523	69.12
300.737	30.21
300.952	56.83
301.166	13.82
301.381	-66.05
301.595	-0.51
301.809	60.93
302.024	93.69
302.238	52.74
302.452	130.56
302.667	30.21
302.881	183.81
303.095	62.98
303.309	62.98
303.524	77.31
303.738	-10.75
303.952	26.11
304.166	89.6
304.381	-96.77
304.595	161.28
304.809	-8.7
305.023	40.45
305.237	-55.81
305.452	11.78
305.666	101.89
305.88	118.27
306.094	77.31
306.308	85.5
306.522	163.33
306.736	110.08
306.95	138.75
307.164	52.74
307.379	-37.38
307.593	165.37
307.807	116.22
308.021	97.79
308.235	173.57
308.449	-129.53
308.663	65.02
308.877	247.29
309.091	52.74
309.305	144.89
309.519	-94.72
309.733	148.99
309.947	-31.23
310.161	58.88
310.374	134.65
310.588	85.5
310.802	77.31
311.016	1.54
311.23	52.74
311.444	-20.99
311.658	19.97
311.872	134.65
312.085	169.47
312.299	177.66
312.513	144.89
312.727	75.26
312.941	7.68
313.154	28.16
313.368	69.12
313.582	93.69
313.796	44.54
314.009	34.3
314.223	140.8
314.437	89.6
314.651	54.78
314.864	3.58
315.078	38.4
315.292	40.45
315.505	50.69
315.719	69.12
315.933	110.08
316.146	48.64
316.36	-18.94
316.573	140.8
316.787	69.12
317.001	87.55
317.214	-51.71
317.428	116.22
317.641	-12.8
317.855	26.11
318.068	19.97
318.282	93.69
318.495	161.28
318.709	95.74
318.922	26.11
319.136	140.8
319.349	146.94
319.563	11.78
319.776	130.56
319.99	-39.42
320.203	103.93
320.417	108.03
320.63	36.35
320.843	161.28
321.057	89.6
321.27	105.98
321.483	142.85
321.697	185.85
321.91	42.5
322.124	105.98
322.337	-18.94
322.55	-25.09
322.763	54.78
322.977	-10.75
323.19	13.82
323.403	114.17
323.617	75.26
323.83	65.02
324.043	15.87
324.256	30.21
324.469	-76.29
324.683	151.04
324.896	-76.29
325.109	71.17
325.322	-0.51
325.535	87.55
325.748	105.98
325.962	13.82
326.175	52.74
326.388	85.5
326.601	214.52
326.814	26.11
327.027	87.55
327.24	138.75
327.453	-16.9
327.666	110.08
327.879	177.66
328.092	132.61
328.305	26.11
328.518	81.41
328.731	-41.47
328.944	54.78
329.157	60.93
329.37	-49.66
329.583	237.05
329.796	108.03
330.009	17.92
330.222	112.13
330.435	54.78
330.648	34.3
330.861	56.83
331.073	54.78
331.286	110.08
331.499	114.17
331.712	26.11
331.925	77.31
332.138	30.21
332.35	130.56
332.563	38.4
332.776	187.9
332.989	-6.66
333.202	-41.47
333.414	58.88
333.627	3.58
333.84	3.58
334.053	69.12
334.265	-4.61
334.478	40.45
334.691	28.16
334.903	73.21
335.116	15.87
335.329	52.74
335.541	48.64
335.754	130.56
335.966	15.87
336.179	24.06
336.392	-49.66
336.604	32.26
336.817	44.54
337.029	99.84
337.242	89.6
337.454	89.6
337.667	91.65
337.88	161.28
338.092	17.92
338.305	32.26
338.517	-92.67
338.729	126.46
338.942	144.89
339.154	-16.9
339.367	-6.66
339.579	54.78
339.792	-53.76
340.004	52.74
340.217	62.98
340.429	77.31
340.641	-27.14
340.854	15.87
341.066	50.69
341.278	128.51
341.491	200.19
341.703	148.99
341.915	17.92
342.128	144.89
342.34	75.26
342.552	-25.09
342.764	65.02
342.977	69.12
343.189	95.74
343.401	81.41
343.613	-18.94
343.826	-2.56
344.038	-25.09
344.25	44.54
344.462	19.97
344.674	58.88
344.886	56.83
345.099	163.33
345.311	56.83
345.523	36.35
345.735	-84.48
345.947	5.63
346.159	75.26
346.371	13.82
346.583	26.11
346.795	159.23
347.007	-23.04
347.219	81.41
347.431	60.93
347.643	132.61
347.855	56.83
348.067	167.42
348.279	-78.33
348.491	7.68
348.703	134.65
348.915	-10.75
349.127	44.54
349.339	91.65
349.551	-23.04
349.763	81.41
349.975	22.02
350.187	81.41
350.399	103.93
350.61	130.56
350.822	71.17
351.034	105.98
351.246	105.98
351.458	110.08
351.669	151.04
351.881	38.4
352.093	91.65
352.305	95.74
352.517	120.32
352.728	97.79
352.94	110.08
353.152	171.52
353.363	60.93
353.575	52.74
353.787	175.61
353.999	103.93
354.21	169.47
354.422	5.63
354.633	26.11
354.845	87.55
355.057	11.78
355.268	50.69
355.48	134.65
355.692	-31.23
355.903	87.55
356.115	-29.18
356.326	-90.62
356.538	189.95
356.749	101.89
356.961	112.13
357.172	58.88
357.384	-4.61
357.595	175.61
357.807	60.93
358.018	85.5
358.23	1.54
358.441	155.13
358.653	42.5
358.864	7.68
359.075	11.78
359.287	62.98
359.498	134.65
359.709	130.56
359.921	-4.61
360.132	28.16
360.344	75.26
360.555	13.82
360.766	101.89
360.977	17.92
361.189	132.61
361.4	46.59
361.611	103.93
361.823	151.04
362.034	71.17
362.245	-16.9
362.456	95.74
362.667	122.37
362.879	28.16
363.09	46.59
363.301	52.74
363.512	11.78
363.723	-41.47
363.935	11.78
364.146	136.7
364.357	-45.57
364.568	67.07
364.779	-94.72
364.99	142.85
365.201	-8.7
365.412	128.51
365.623	-39.42
365.834	83.45
366.045	46.59
366.256	91.65
366.467	77.31
366.678	1.54
366.889	77.31
367.1	60.93
367.311	120.32
367.522	-16.9
367.733	75.26
367.944	85.5
368.155	-18.94
368.366	79.36
368.577	124.41
368.788	126.46
368.999	-64
369.209	44.54
369.42	265.72
369.631	230.91
369.842	108.03
370.053	30.21
370.264	124.41
370.474	-18.94
370.685	1.54
370.896	46.59
371.107	153.09
371.317	136.7
371.528	13.82
371.739	169.47
371.95	73.21
372.16	11.78
372.371	32.26
372.582	19.97
372.792	52.74
373.003	91.65
373.214	-6.66
373.424	144.89
373.635	24.06
373.846	46.59
374.056	95.74
374.267	77.31
374.477	122.37
374.688	-14.85
374.898	60.93
375.109	24.06
375.319	65.02
375.53	181.76
375.74	237.05
375.951	65.02
376.161	97.79
376.372	67.07
376.582	15.87
376.793	140.8
377.003	-10.75
377.214	9.73
377.424	108.03
377.635	34.3
377.845	99.84
378.055	148.99
378.266	15.87
378.476	77.31
378.686	38.4
378.897	7.68
379.107	192
379.317	103.93
379.528	30.21
379.738	69.12
379.948	7.68
380.158	181.76
380.369	91.65
380.579	105.98
380.789	62.98
380.999	89.6
381.21	122.37
381.42	185.85
381.63	110.08
381.84	122.37
382.05	22.02
382.261	146.94
382.471	157.18
382.681	-10.75
382.891	169.47
383.101	101.89
383.311	-49.66
383.521	-16.9
383.731	116.22
383.941	126.46
384.151	67.07
384.361	44.54
384.571	85.5
384.781	42.5
384.991	241.15
385.201	187.9
385.411	155.13
385.621	85.5
385.831	32.26
386.041	85.5
386.251	34.3
386.461	24.06
386.671	77.31
386.881	56.83
387.091	95.74
387.301	138.75
387.511	67.07
387.72	75.26
387.93	185.85
388.14	-29.18
388.35	34.3
388.56	103.93
388.769	30.21
388.979	60.93
389.189	11.78
389.399	-6.66
389.609	120.32
389.818	95.74
390.028	105.98
390.238	95.74
390.447	-14.85
390.657	91.65
390.867	34.3
391.076	-31.23
391.286	79.36
391.496	81.41
391.705	-4.61
391.915	130.56
392.125	67.07
392.334	52.74
392.544	138.75
392.753	114.17
392.963	15.87
393.172	79.36
393.382	17.92
393.591	247.29
393.801	-27.14
394.01	146.94
394.22	112.13
394.429	75.26
394.639	73.21
394.848	110.08
395.058	56.83
395.267	38.4
395.477	140.8
395.686	26.11
395.895	136.7
396.105	161.28
396.314	71.17
396.524	87.55
396.733	34.3
396.942	153.09
397.152	132.61
397.361	148.99
397.57	-10.75
397.78	89.6
397.989	153.09
398.198	226.81
398.407	-31.23
398.617	5.63
398.826	34.3
399.035	116.22
399.244	142.85
399.453	134.65
399.663	36.35
399.872	65.02
400.081	-8.7
400.29	232.96
400.499	-4.61
400.708	89.6
400.917	56.83
401.127	79.36
401.336	87.55
401.545	181.76
401.754	138.75
401.963	169.47
402.172	112.13
402.381	-66.05
402.59	-43.52
402.799	32.26
403.008	155.13
403.217	13.82
403.426	91.65
403.635	-47.62
403.844	24.06
404.053	75.26
404.262	-35.33
404.471	146.94
404.68	60.93
404.888	62.98
405.097	38.4
405.306	30.21
405.515	177.66
405.724	60.93
405.933	87.55
406.142	44.54
406.35	142.85
406.559	-16.9
406.768	112.13
406.977	165.37
407.185	75.26
407.394	13.82
407.603	5.63
407.812	87.55
408.02	200.19
408.229	60.93
408.438	65.02
408.646	-37.38
408.855	3.58
409.064	60.93
409.272	99.84
409.481	46.59
409.69	22.02
409.898	17.92
410.107	75.26
410.315	110.08
410.524	-74.24
410.733	134.65
410.941	34.3
411.15	87.55
411.358	140.8
411.567	148.99
411.775	110.08
411.984	103.93
412.192	120.32
412.401	54.78
412.609	167.42
412.818	136.7
413.026	40.45
413.234	62.98
413.443	36.35
413.651	40.45
413.86	73.21
414.068	159.23
414.276	146.94
414.485	81.41
414.693	91.65
414.901	169.47
415.11	67.07
415.318	71.17
415.526	65.02
415.734	151.04
415.943	144.89
416.151	151.04
416.359	38.4
416.567	67.07
416.776	169.47
416.984	126.46
417.192	169.47
417.4	44.54
417.608	36.35
417.817	81.41
418.025	134.65
418.233	175.61
418.441	-8.7
418.649	50.69
418.857	24.06
419.065	200.19
419.273	34.3
419.481	112.13
419.689	85.5
419.897	22.02
420.105	38.4
420.313	153.09
420.521	105.98
420.729	177.66
420.937	108.03
421.145	-88.57
421.353	148.99
421.561	183.81
421.769	103.93
421.977	-0.51
422.185	132.61
422.393	15.87
422.601	173.57
422.809	122.37
423.017	116.22
423.224	146.94
423.432	79.36
423.64	95.74
423.848	192
424.056	1.54
424.263	118.27
424.471	83.45
424.679	175.61
424.887	15.87
425.094	155.13
425.302	159.23
425.51	28.16
425.718	138.75
425.925	79.36
426.133	93.69
426.341	275.96
426.548	44.54
426.756	50.69
426.964	69.12
427.171	-10.75
427.379	62.98
427.586	93.69
427.794	140.8
428.001	210.43
428.209	171.52
428.417	128.51
428.624	169.47
428.832	155.13
429.039	112.13
429.247	112.13
429.454	204.28
429.662	232.96
429.869	81.41
430.076	157.18
430.284	255.48
430.491	257.53
430.699	192
430.906	220.67
431.114	198.14
431.321	159.23
431.528	89.6
431.736	167.42
431.943	220.67
432.15	214.52
432.358	122.37
432.565	329.21
432.772	71.17
432.979	212.48
433.187	189.95
433.394	278.01
433.601	212.48
433.808	292.35
434.016	228.86
434.223	257.53
434.43	255.48
434.637	278.01
434.844	249.34
435.052	257.53
435.259	275.96
435.466	290.3
435.673	263.68
435.88	409.08
436.087	314.88
436.294	376.31
436.501	298.49
436.708	380.41
436.915	280.06
437.122	464.38
437.329	347.64
437.537	404.99
437.743	302.59
437.95	574.97
438.157	402.94
438.364	400.89
438.571	486.9
438.778	466.42
438.985	482.81
439.192	564.73
439.399	464.38
439.606	591.35
439.813	564.73
440.02	630.26
440.227	691.7
440.433	597.49
440.64	673.27
440.847	620.02
441.054	722.42
441.261	660.98
441.467	706.04
441.674	648.69
441.881	767.48
442.088	798.2
442.294	771.57
442.501	929.27
442.708	804.34
442.914	833.01
443.121	914.93
443.328	955.89
443.534	1033.71
443.741	1023.47
443.948	892.4
444.154	1205.74
444.361	1236.46
444.568	1101.3
444.774	1201.65
444.981	1150.45
445.187	1390.06
445.394	1242.61
445.6	1230.32
445.807	1441.26
446.013	1471.98
446.22	1453.55
446.426	1596.9
446.633	1646.05
446.839	1768.93
447.046	1695.21
447.252	1764.84
447.459	1895.91
447.665	1914.34
447.871	2092.51
448.078	2160.1
448.284	2137.57
448.491	2180.57
448.697	2291.17
448.903	2432.47
449.11	2412
449.316	2430.43
449.522	2803.16
449.728	2731.48
449.935	2776.53
450.141	2887.12
450.347	3016.15
450.553	3012.05
450.76	3220.94
450.966	3278.29
451.172	3372.49
451.378	3569.1
451.584	3724.74
451.791	3825.09
451.997	3859.91
452.203	4171.2
452.409	4201.92
452.615	4408.76
452.821	4296.13
453.027	4447.68
453.233	4670.9
453.44	4638.14
453.646	5035.44
453.852	5223.86
454.058	5430.7
454.264	5539.24
454.47	5959.08
454.676	6020.52
454.882	6581.66
455.088	6235.55
455.294	6636.95
455.5	6919.57
455.705	7347.6
455.911	7302.54
456.117	7536.01
456.323	7798.15
456.529	7912.84
456.735	8584.57
456.941	8799.61
457.147	8994.17
457.352	9225.59
457.558	9713
457.764	10184.04
457.97	10542.43
458.176	10853.72
458.381	11570.51
458.587	11556.18
458.793	12217.67
458.999	12365.12
459.204	13673.78
459.41	14337.32
459.616	13894.96
459.821	14791.97
460.027	15420.69
460.233	16047.37
460.438	16258.31
460.644	17263.86
460.85	17349.88
461.055	17878.26
461.261	18910.43
461.466	18523.37
461.672	18846.94
461.878	20819.14
462.083	20683.97
462.289	21206.2
462.494	22006.96
462.7	22246.57
462.905	22533.29
463.111	24339.6
463.316	25746.55
463.522	26121.33
463.727	26686.57
463.932	27835.48
464.138	28861.51
464.343	29860.92
464.549	30135.35
464.754	32177.17
464.959	33295.36
465.165	33405.95
465.37	32941.07
465.575	33373.19
465.781	35570.66
465.986	36588.5
466.191	36398.04
466.397	36580.31
466.602	35218.41
466.807	37204.94
467.012	38228.92
467.218	38869.93
467.423	38886.32
467.628	40096.67
467.833	41608.07
468.038	40983.44
468.244	40190.87
468.449	42554.23
468.654	41765.76
468.859	41935.74
469.064	41497.48
469.269	40446.87
469.474	41192.33
469.679	41986.94
469.885	40962.96
470.09	41884.54
470.295	41149.32
470.5	40467.35
470.705	40905.62
470.91	39793.57
471.115	39539.62
471.32	40024.99
471.525	39494.57
471.73	38484.92
471.935	38153.15
472.139	36946.89
472.344	37202.89
472.549	36891.6
472.754	35996.63
472.959	35001.32
473.164	33829.88
473.369	33500.16
473.574	34341.88
473.778	33674.24
473.983	33461.25
474.188	32470.03
474.393	30962.73
474.598	30874.66
474.802	30385.2
475.007	30012.47
475.212	29813.82
475.417	28218.45
475.621	28288.08
475.826	28193.87
476.031	27053.16
476.235	26563.69
476.44	26635.37
476.645	26111.09
476.849	25791.61
477.054	24992.9
477.259	25003.14
477.463	24435.85
477.668	23788.69
477.872	24208.53
478.077	23350.43
478.282	22574.25
478.486	22623.4
478.691	22170.8
478.895	22234.28
479.1	21939.38
479.304	21693.62
479.509	20851.91
479.713	21103.81
479.918	20751.56
480.122	20602.05
480.326	20450.5
480.531	20520.13
480.735	20151.5
480.94	19823.83
481.144	20657.35
481.348	19360.98
481.553	19627.22
481.757	18801.89
481.961	19397.85
482.166	19334.36
482.37	19002.59
482.574	18644.2
482.778	18707.68
482.983	19307.74
483.187	18177.26
483.391	18181.35
483.595	18203.88
483.8	17755.38
484.004	17853.68
484.208	17708.27
484.412	17433.85
484.616	17196.28
484.821	17112.31
485.025	16727.3
485.229	16712.96
485.433	16561.41
485.637	16463.11
485.841	16039.18
486.045	15838.48
486.249	15682.83
486.453	15193.37
486.657	15189.27
486.861	15172.89
487.065	14497.06
487.269	14552.35
487.473	13845.8
487.677	14144.81
487.881	14175.53
488.085	13684.02
488.289	13559.09
488.493	13161.78
488.697	13149.5
488.901	13006.14
489.105	12416.32
489.309	12617.02
489.512	12354.88
489.716	12191.05
489.92	11654.48
490.124	11574.61
490.328	11453.78
490.531	11165.01
490.735	10902.87
490.939	10833.24
491.143	10380.64
491.346	10253.67
491.55	10292.58
491.754	10190.18
491.958	10044.77
492.161	9729.39
492.365	9598.32
492.569	9379.18
492.772	9315.7
492.976	9211.25
493.18	8920.44
493.383	8934.78
493.587	8760.7
493.79	8908.15
493.994	8476.03
494.197	8357.25
494.401	8529.28
494.605	8263.04
494.808	8318.34
495.012	8254.85
495.215	8338.82
495.419	8414.59
495.622	8025.48
495.825	8033.67
496.029	7855.5
496.232	8058.25
496.436	7861.64
496.639	7961.99
496.843	7738.76
497.046	7775.63
497.249	7835.02
497.453	7845.26
497.656	7861.64
497.859	7970.18
498.063	7691.66
498.266	8064.39
498.469	7888.26
498.673	7875.98
498.876	7835.02
499.079	8021.38
499.282	7964.04
499.485	8308.1
499.689	8199.55
499.892	8172.93
500.095	8041.86
500.298	8320.39
500.501	8095.11
500.705	8441.22
500.908	8498.56
501.111	8453.5
501.314	8756.6
501.517	8768.89
501.72	8811.9
501.923	8723.83
502.126	8873.34
502.329	9170.29
502.532	9262.45
502.735	9069.94
502.938	9479.54
503.141	9336.18
503.344	9557.36
503.547	9622.89
503.75	9715.05
503.953	9876.84
504.156	10102.12
504.359	10229.09
504.562	10257.76
504.765	10583.39
504.968	10743.13
505.17	10890.59
505.373	11001.18
505.576	10992.98
505.779	11199.83
505.982	11394.39
506.185	11584.85
506.387	11881.8
506.59	12055.88
506.793	12246.34
506.996	12283.2
507.198	12954.94
507.401	12877.12
507.604	13311.28
507.807	13352.24
508.009	13753.65
508.212	13960.49
508.415	14144.81
508.617	14390.56
508.82	14560.55
509.022	14861.6
509.225	15164.7
509.428	15643.92
509.63	15772.94
509.833	16043.28
510.035	16817.41
510.238	16887.04
510.44	17308.92
510.643	17695.99
510.845	18224.36
511.048	18152.68
511.25	18830.56
511.453	19006.69
511.655	20159.69
511.858	20061.39
512.06	20460.74
512.262	21025.98
512.465	21177.53
512.667	21994.67
512.87	22281.39
513.072	22707.37
513.274	23600.28
513.477	24222.86
513.679	24521.87
513.881	25140.35
514.084	25769.08
514.286	25926.77
514.488	26676.33
514.69	27315.3
514.893	27841.62
515.095	28671.05
515.297	28748.87
515.499	29367.36
515.701	30192.69
515.904	31005.73
516.106	31552.54
516.308	32048.15
516.51	32795.66
516.712	33192.97
516.914	33739.77
517.116	34923.5
517.318	35081.19
517.52	35806.17
517.722	36439
517.925	37469.12
518.127	37886.91
518.329	38665.14
518.531	38151.1
518.733	39426.98
518.935	40174.49
519.136	40653.72
519.338	41266.06
519.54	41915.26
519.742	42978.16
519.944	43610.98
520.146	44335.96
520.348	44845.91
520.55	45110.1
520.752	45519.69
520.954	46476.09
521.155	46439.23
521.357	47235.89
521.559	47846.18
521.761	48614.17
521.963	48534.3
522.164	48999.19
522.366	49445.65
522.568	50047.75
522.77	50590.46
522.971	50877.18
523.173	50676.47
523.375	51227.38
523.576	51268.34
523.778	51428.08
523.98	52310.75
524.181	52366.05
524.383	52488.93
524.584	52912.86
524.786	52589.28
524.988	52673.24
525.189	53336.79
525.391	53156.56
525.592	53222.1
525.794	53113.56
525.995	53474
526.197	52708.06
526.398	52898.52
526.6	52916.95
526.801	53189.33
527.003	52959.96
527.204	52525.79
527.406	52871.9
527.607	52122.34
527.808	52290.27
528.01	50840.31
528.211	51342.06
528.412	52134.63
528.614	51051.25
528.815	50782.97
529.016	51024.63
529.218	49785.61
529.419	49068.82
529.62	49537.8
529.822	48626.46
530.023	48325.41
530.224	47881
530.425	47293.23
530.626	46697.27
530.828	45632.33
531.029	46590.78
531.23	45308.75
531.431	44634.97
531.632	44786.52
531.833	44397.4
532.035	43527.02
532.236	43125.61
532.437	42830.71
532.638	42339.19
532.839	41739.14
533.04	41296.78
533.241	40360.86
533.442	40381.34
533.643	39539.62
533.844	39070.64
534.045	39029.68
534.246	37841.85
534.447	37123.02
534.648	36690.9
534.849	36406.23
535.05	35754.97
535.251	35793.89
535.451	34993.13
535.652	34397.17
535.853	34227.19
536.054	34016.25
536.255	33043.46
536.456	32584.72
536.657	32717.84
536.857	31861.79
537.058	31239.2
537.259	30864.43
537.46	30585.9
537.66	30184.5
537.861	29776.95
538.062	29385.79
538.263	28738.63
538.463	28654.67
538.664	28179.54
538.865	28095.57
539.065	27591.77
539.266	26952.8
539.466	27081.83
539.667	26362.99
539.868	26561.64
540.068	26336.37
540.269	25523.32
540.469	25615.48
540.67	25113.73
540.87	24892.55
541.071	24288.4
541.271	24247.44
541.472	23944.34
541.672	23651.48
541.873	23557.27
542.073	22674.6
542.274	23063.71
542.474	22475.95
542.675	22453.42
542.875	22228.14
543.075	21996.72
543.276	21423.29
543.476	21363.9
543.676	21095.61
543.877	20749.51
544.077	21005.5
544.277	20526.28
544.478	19944.66
544.678	20114.64
544.878	19862.74
545.078	19383.51
545.279	18889.95
545.479	18857.18
545.679	18627.81
545.879	18648.29
546.079	18240.75
546.28	18124.01
546.48	17693.94
546.68	17917.17
546.88	17544.44
547.08	17399.03
547.28	17134.84
547.48	16895.23
547.68	16643.33
547.88	16416.01
548.081	16553.22
548.281	16055.56
548.481	15920.4
548.681	15574.29
548.881	15551.76
549.081	15334.68
549.28	14845.21
549.48	15291.67
549.68	14656.8
549.88	14484.77
550.08	14257.45
550.28	14220.58
550.48	14036.27
550.68	13878.57
550.88	13235.51
551.08	13249.85
551.279	13368.63
551.479	12873.02
551.679	12911.93
551.879	12553.54
552.079	12592.45
552.278	12395.84
552.478	12279.11
552.678	11867.47
552.878	11810.12
553.077	11343.19
553.277	11380.05
553.477	11294.04
553.676	11081.05
553.876	10872.15
554.076	10689.88
554.275	10458.46
554.475	10235.24
554.674	10225
554.874	10225
555.074	9788.78
555.273	9700.72
555.473	9655.66
555.672	9561.45
555.872	9284.98
556.071	9250.16
556.271	9125.24
556.47	9006.45
556.67	8748.41
556.869	8428.93
557.068	8336.77
557.268	8250.75
557.467	8232.32
557.667	8048.01
557.866	7757.19
558.065	7699.85
558.265	7648.65
558.464	7441.81
558.663	7363.98
558.863	7230.87
559.062	7128.47
559.261	7103.89
559.461	6991.25
559.66	6778.26
559.859	6628.76
560.058	6438.3
560.258	6456.73
560.457	6419.87
560.656	6354.34
560.855	6096.29
561.054	6110.63
561.253	6051.24
561.453	5936.55
561.652	5846.44
561.851	5905.83
562.05	5590.44
562.249	5539.24
562.448	5533.1
562.647	5299.63
562.846	5428.65
563.045	5488.04
563.244	5164.47
563.443	5211.57
563.642	4916.66
563.841	4849.08
564.04	4883.89
564.239	4871.61
564.438	4611.51
564.637	4531.64
564.836	4505.02
565.035	4404.67
565.234	4455.87
565.432	4373.95
565.631	4425.15
565.83	4380.09
566.029	4177.34
566.228	4187.58
566.427	4210.11
566.625	3915.2
566.824	4019.65
567.023	3966.4
567.222	3814.85
567.42	3757.51
567.619	3821
567.818	3661.26
568.016	3706.31
568.215	3706.31
568.414	3624.39
568.612	3530.19
568.811	3483.08
569.01	3313.1
569.208	3255.76
569.407	3194.32
569.605	3315.15
569.804	3122.64
570.002	3085.78
570.201	3118.54
570.4	3053.01
570.598	3063.25
570.797	2844.12
570.995	2682.33
571.193	2813.4
571.392	2686.42
571.59	2719.19
571.789	2862.55
571.987	2717.14
572.186	2823.64
572.384	2532.83
572.582	2643.42
572.781	2614.74
572.979	2248.16
573.177	2491.87
573.376	2434.52
573.574	2479.58
573.772	2340.32
573.971	2342.36
574.169	2172.38
574.367	2293.21
574.565	2133.47
574.763	2137.57
574.962	2078.18
575.16	2029.03
575.358	2084.32
575.556	2088.42
575.754	2092.51
575.952	1926.63
576.151	2047.46
576.349	2096.61
576.547	1740.26
576.745	1873.38
576.943	1885.67
577.141	1793.51
577.339	1658.34
577.537	1764.84
577.735	1709.54
577.933	1764.84
578.131	1562.09
578.329	1701.35
578.527	1652.2
578.725	1670.63
578.923	1441.26
579.121	1557.99
579.319	1465.83
579.516	1598.95
579.714	1680.87
579.912	1449.45
580.11	1357.29
580.308	1465.83
580.506	1396.2
580.704	1250.8
580.901	1215.98
581.099	1416.68
581.297	1361.39
581.495	1394.15
581.692	1256.94
581.89	1340.91
582.088	1207.79
582.285	1263.08
582.483	1236.46
582.681	1123.82
582.878	1056.24
583.076	1134.06
583.274	1123.82
583.471	1297.9
583.669	1117.68
583.866	1041.9
584.064	1037.81
584.262	1037.81
584.459	935.41
584.657	1136.11
584.854	1050.1
585.052	957.94
585.249	1011.18
585.447	1046
585.644	910.83
585.841	998.9
586.039	955.89
586.236	921.07
586.434	900.59
586.631	853.49
586.828	847.35
587.026	888.31
587.223	771.57
587.42	847.35
587.618	906.74
587.815	951.79
588.012	820.72
588.21	824.82
588.407	798.2
588.604	925.17
588.801	648.69
588.999	751.09
589.196	824.82
589.393	693.75
589.59	816.63
589.787	724.47
589.984	759.28
590.182	761.33
590.379	751.09
590.576	777.72
590.773	724.47
590.97	699.89
591.167	792.05
591.364	781.81
591.561	728.56
591.758	826.87
591.955	716.28
592.152	675.32
592.349	681.46
592.546	769.52
592.743	687.61
592.94	687.61
593.137	716.28
593.334	773.62
593.531	787.96
593.727	728.56
593.924	742.9
594.121	738.8
594.318	675.32
594.515	775.67
594.712	777.72
594.908	902.64
595.105	624.12
595.302	818.68
595.499	740.85
595.696	849.4
595.892	781.81
596.089	896.5
596.286	716.28
596.482	845.3
596.679	927.22
596.876	951.79
597.072	912.88
597.269	798.2
597.466	867.83
597.662	980.47
597.859	853.49
598.055	921.07
598.252	1033.71
598.448	1172.97
598.645	1189.36
598.841	1279.47
599.038	1308.14
599.234	1355.24
599.431	1336.81
599.627	1271.28
599.824	1304.04
600.02	1482.22
600.217	1349.1
600.413	1492.46
600.609	1539.56
600.806	1922.53
601.002	1709.54
601.198	1740.26
601.395	1924.58
601.591	1869.28
601.787	2031.07
601.984	2135.52
602.18	2149.86
602.376	2065.89
602.572	2346.46
602.769	2389.47
602.965	2399.71
603.161	2440.67
603.357	2596.31
603.553	2706.9
603.75	2694.61
603.946	2913.75
604.142	2983.38
604.338	3032.53
604.534	3018.19
604.73	3044.82
604.926	3343.82
605.122	3634.63
605.318	3560.91
605.514	3544.52
605.71	3761.61
605.906	3974.6
606.102	4062.66
606.298	4085.19
606.494	4269.5
606.69	4363.71
606.886	4474.3
607.082	4625.85
607.278	4623.8
607.474	4795.83
607.67	4998.58
607.866	4908.47
608.062	5189.04
608.257	5371.31
608.453	5508.52
608.649	5727.66
608.845	5684.65
609.041	5772.71
609.236	6239.65
609.432	6391.2
609.628	6370.72
609.824	6557.08
610.019	6802.84
610.215	6888.85
610.411	7294.35
610.606	7521.68
610.802	7515.53
610.998	7779.72
611.193	8011.14
611.389	7984.52
611.584	8209.79
611.78	8539.52
611.976	8734.07
612.171	9237.88
612.367	9469.3
612.562	9438.58
612.758	9426.29
612.953	10001.77
613.149	10376.55
613.344	10210.66
613.539	10814.81
613.735	11007.32
613.93	11414.87
614.126	11687.25
614.321	12113.22
614.517	12393.79
614.712	12459.33
614.907	12866.88
615.103	13178.17
615.298	13440.31
615.493	13858.09
615.688	14081.32
615.884	14675.23
616.079	14576.93
616.274	15496.47
616.47	15551.76
616.665	15822.09
616.86	16446.73
617.055	16792.83
617.25	17032.44
617.445	17902.83
617.641	17908.97
617.836	18373.86
618.031	18650.34
618.226	19438.81
618.421	19496.15
618.616	20239.56
618.811	20491.46
619.006	21339.32
619.201	21335.23
619.396	22207.66
619.591	22238.38
619.786	23094.43
619.981	23299.23
620.176	24079.5
620.371	24499.34
620.566	24736.9
620.761	25326.72
620.956	26176.62
621.151	25883.77
621.346	27018.34
621.541	27126.88
621.735	28021.84
621.93	28152.91
622.125	29023.3
622.32	28820.55
622.515	30061.62
622.709	30432.3
622.904	31294.5
623.099	31568.93
623.294	32027.67
623.488	32418.83
623.683	33133.57
623.878	33422.34
624.072	33768.44
624.267	34485.23
624.462	35027.95
624.656	35343.33
624.851	36256.73
625.046	36457.43
625.24	37245.9
625.435	37385.16
625.629	38116.28
625.824	38181.82
626.018	38863.79
626.213	38798.26
626.407	39926.69
626.602	39918.49
626.796	40543.13
626.991	41141.13
627.185	40887.18
627.38	41569.16
627.574	41935.74
627.768	41362.31
627.963	41595.78
628.157	41735.04
628.352	42232.7
628.546	41763.71
628.74	42630.01
628.935	41962.37
629.129	42222.46
629.323	41669.51
629.517	41749.38
629.712	41427.85
629.906	40835.98
630.1	40151.96
630.294	40065.95
630.489	39336.87
630.683	39125.93
630.877	38118.33
631.071	37573.57
631.265	37278.66
631.459	36238.3
631.653	35245.03
631.848	34946.03
632.042	33676.29
632.236	33387.52
632.43	32125.97
632.624	31562.78
632.818	30479.41
633.012	29492.29
633.206	28539.98
633.4	27575.39
633.594	26559.59
633.788	25820.28
633.982	24943.75
634.176	24095.89
634.369	22965.41
634.563	22484.14
634.757	21372.09
634.951	20649.16
635.145	19842.26
635.339	18900.19
635.533	18388.2
635.726	17583.35
635.92	16520.45
636.114	16008.46
636.308	15236.38
636.501	14904.6
636.695	14200.1
636.889	13290.81
637.083	13120.82
637.276	12557.63
637.47	11900.23
637.664	11435.35
637.857	10974.55
638.051	10605.92
638.244	10227.04
638.438	9932.14
638.632	9534.83
638.825	8957.3
639.019	8646.01
639.212	8281.47
639.406	7994.76
639.599	7642.51
639.793	7232.91
639.986	6999.45
640.18	7019.92
640.373	6481.31
640.567	6186.4
640.76	6151.59
640.954	5766.57
641.147	5483.95
641.34	5316.01
641.534	5133.75
641.727	5086.64
641.92	4742.58
642.114	4695.48
642.307	4433.34
642.5	4314.56
642.694	4195.78
642.887	3894.72
643.08	3864.01
643.273	3726.79
643.467	3620.3
643.66	3251.66
643.853	3184.08
644.046	3216.85
644.239	2940.37
644.432	2858.45
644.626	2700.76
644.819	2641.37
645.012	2622.94
645.205	2526.68
645.398	2442.71
645.591	2340.32
645.784	2186.72
645.977	2047.46
646.17	2094.56
646.363	2051.55
646.556	1797.6
646.749	1732.07
646.942	1674.73
647.135	1719.78
647.328	1494.51
647.521	1500.65
647.714	1521.13
647.907	1469.93
648.099	1306.09
648.292	1484.27
648.485	1349.1
648.678	1148.4
648.871	1236.46
649.064	1111.54
649.256	1019.38
649.449	1041.9
649.642	945.65
649.835	1013.23
650.027	962.03
650.22	912.88
650.413	919.03
650.605	880.11
650.798	796.15
650.991	736.76
651.183	775.67
651.376	796.15
651.568	851.44
651.761	724.47
651.954	790
652.146	628.21
652.339	720.37
652.531	644.6
652.724	454.14
652.916	624.12
653.109	441.85
653.301	628.21
653.494	677.37
653.686	538.1
653.879	691.7
654.071	613.88
654.263	456.19
654.456	452.09
654.648	562.68
654.84	474.62
655.033	439.8
655.225	585.21
655.417	392.7
655.61	503.29
655.802	435.71
655.994	454.14
656.186	314.88
656.379	501.24
656.571	343.55
656.763	384.51
656.955	269.82
657.148	304.64
657.34	396.79
657.532	265.72
657.724	259.58
657.916	335.35
658.108	407.03
658.3	364.03
658.492	368.12
658.684	298.49
658.876	302.59
659.068	202.24
659.26	130.56
659.452	239.1
659.644	237.05
659.836	384.51
660.028	243.2
660.22	108.03
660.412	282.11
660.604	220.67
660.796	361.98
660.988	335.35
661.18	179.71
661.372	282.11
661.563	292.35
661.755	206.33
661.947	187.9
662.139	224.76
662.331	181.76
662.522	257.53
662.714	105.98
662.906	124.41
663.097	210.43
663.289	130.56
663.481	114.17
663.673	235
663.864	218.62
664.056	259.58
664.247	62.98
664.439	271.87
664.631	200.19
664.822	247.29
665.014	230.91
665.205	105.98
665.397	167.42
665.588	159.23
665.78	163.33
665.971	177.66
666.163	89.6
666.354	118.27
666.546	108.03
666.737	161.28
666.929	126.46
667.12	126.46
667.311	32.26
667.503	97.79
667.694	286.2
667.885	194.05
668.077	237.05
668.268	34.3
668.459	87.55
668.651	183.81
668.842	138.75
669.033	-0.51
669.224	144.89
669.416	380.41
669.607	91.65
669.798	46.59
669.989	192
670.18	85.5
670.371	151.04
670.563	54.78
670.754	173.57
670.945	132.61
671.136	157.18
671.327	153.09
671.518	275.96
671.709	284.16
671.9	226.81
672.091	198.14
672.282	142.85
672.473	151.04
672.664	44.54
672.855	93.69
673.046	120.32
673.237	161.28
673.428	232.96
673.619	159.23
673.809	171.52
674	243.2
674.191	196.09
674.382	83.45
674.573	163.33
674.764	167.42
674.954	224.76
675.145	58.88
675.336	15.87
675.527	134.65
675.717	87.55
675.908	140.8
676.099	116.22
676.289	204.28
676.48	85.5
676.671	75.26
676.861	42.5
677.052	171.52
677.243	108.03
677.433	167.42
677.624	202.24
677.814	165.37
678.005	138.75
678.195	255.48
678.386	105.98
678.576	110.08
678.767	85.5
678.957	226.81
679.148	261.63
679.338	259.58
679.529	181.76
679.719	230.91
679.909	230.91
680.1	210.43
680.29	263.68
680.481	62.98
680.671	267.77
680.861	183.81
681.052	298.49
681.242	116.22
681.432	241.15
681.622	183.81
681.813	95.74
682.003	179.71
682.193	44.54
682.383	171.52
682.573	165.37
682.764	122.37
682.954	173.57
683.144	224.76
683.334	171.52
683.524	126.46
683.714	189.95
683.904	179.71
684.094	222.72
684.284	196.09
684.474	323.07
684.664	224.76
684.854	161.28
685.044	167.42
685.234	241.15
685.424	177.66
685.614	134.65
685.804	355.83
685.994	253.44
686.184	214.52
686.374	275.96
686.564	138.75
686.753	222.72
686.943	73.21
687.133	140.8
687.323	232.96
687.513	253.44
687.702	196.09
687.892	175.61
688.082	312.83
688.272	136.7
688.461	192
688.651	359.93
688.841	214.52
689.03	196.09
689.22	159.23
689.41	224.76
689.599	169.47
689.789	173.57
689.979	384.51
690.168	165.37
690.358	173.57
690.547	153.09
690.737	232.96
690.926	232.96
691.116	237.05
691.305	151.04
691.495	171.52
691.684	142.85
691.874	200.19
692.063	171.52
692.252	218.62
692.442	226.81
692.631	52.74
692.82	216.57
693.01	171.52
693.199	198.14
693.388	247.29
693.578	212.48
693.767	202.24
693.956	247.29
694.146	163.33
694.335	224.76
694.524	112.13
694.713	232.96
694.902	132.61
695.092	136.7
695.281	181.76
695.47	161.28
695.659	228.86
695.848	224.76
696.037	171.52
696.226	151.04
696.415	138.75
696.604	269.82
696.793	192
696.982	194.05
697.171	280.06
697.36	192
697.549	126.46
697.738	108.03
697.927	194.05
698.116	124.41
698.305	183.81
698.494	210.43
698.683	183.81
698.872	278.01
699.061	97.79
699.25	114.17
699.438	275.96
699.627	136.7
699.816	413.18
700.005	175.61
700.193	142.85
700.382	173.57
700.571	220.67
700.76	183.81
700.948	228.86
701.137	159.23
701.326	290.3
701.514	157.18
701.703	153.09
701.892	237.05
702.08	298.49
702.269	200.19
702.457	151.04
702.646	189.95
702.834	132.61
703.023	312.83
703.212	218.62
703.4	167.42
703.589	179.71
703.777	97.79
703.965	87.55
704.154	198.14
704.342	97.79
704.531	253.44
704.719	204.28
704.907	251.39
705.096	105.98
705.284	60.93
705.472	218.62
705.661	325.12
705.849	210.43
706.037	382.46
706.226	222.72
706.414	196.09
706.602	126.46
706.79	237.05
706.979	140.8
707.167	216.57
707.355	112.13
707.543	210.43
707.731	202.24
707.919	189.95
708.107	179.71
708.296	216.57
708.484	134.65
708.672	206.33
708.86	179.71
709.048	171.52
709.236	112.13
709.424	216.57
709.612	185.85
709.8	142.85
709.988	114.17
710.176	220.67
710.364	263.68
710.551	202.24
710.739	187.9
710.927	118.27
711.115	97.79
711.303	269.82
711.491	271.87
711.679	116.22
711.866	296.44
712.054	85.5
712.242	218.62
712.43	228.86
712.617	173.57
712.805	192
712.993	179.71
713.181	30.21
713.368	282.11
713.556	251.39
713.744	189.95
713.931	392.7
714.119	247.29
714.306	148.99
714.494	163.33
714.682	280.06
714.869	153.09
715.057	148.99
715.244	128.51
715.432	214.52
715.619	130.56
715.807	179.71
715.994	132.61
716.182	181.76
716.369	239.1
716.556	261.63
716.744	62.98
716.931	93.69
717.119	245.24
717.306	204.28
717.493	257.53
717.681	226.81
717.868	165.37
718.055	198.14
718.242	138.75
718.43	226.81
718.617	267.77
718.804	253.44
718.991	292.35
719.179	265.72
719.366	228.86
719.553	189.95
719.74	237.05
719.927	204.28
720.114	194.05
720.301	116.22
720.488	179.71
720.676	126.46
720.863	372.22
721.05	345.59
721.237	302.59
721.424	239.1
721.611	167.42
721.798	136.7
721.985	148.99
722.172	210.43
722.358	259.58
722.545	251.39
722.732	206.33
722.919	343.55
723.106	269.82
723.293	179.71
723.48	228.86
723.667	245.24
723.853	323.07
724.04	329.21
724.227	278.01
724.414	208.38
724.6	286.2
724.787	294.4
724.974	353.79
725.161	237.05
725.347	249.34
725.534	206.33
725.72	265.72
725.907	290.3
726.094	235
726.28	185.85
726.467	214.52
726.653	151.04
726.84	357.88
727.027	323.07
727.213	232.96
727.4	249.34
727.586	273.92
727.773	300.54
727.959	214.52
728.145	278.01
728.332	218.62
728.518	185.85
728.705	314.88
728.891	306.68
729.077	288.25
729.264	204.28
729.45	220.67
729.636	286.2
729.823	327.16
730.009	316.92
730.195	280.06
730.382	286.2
730.568	105.98
730.754	257.53
730.94	267.77
731.126	206.33
731.313	255.48
731.499	194.05
731.685	304.64
731.871	292.35
732.057	321.02
732.243	290.3
732.429	245.24
732.615	404.99
732.801	361.98
732.987	220.67
733.173	249.34
733.359	247.29
733.545	284.16
733.731	142.85
733.917	411.13
734.103	261.63
734.289	257.53
734.475	224.76
734.661	355.83
734.847	181.76
735.033	189.95
735.219	296.44
735.404	226.81
735.59	183.81
735.776	239.1
735.962	312.83
736.148	282.11
736.333	366.07
736.519	263.68
736.705	159.23
736.89	198.14
737.076	271.87
737.262	261.63
737.447	153.09
737.633	159.23
737.819	321.02
738.004	202.24
738.19	335.35
738.375	300.54
738.561	310.78
738.747	294.4
738.932	132.61
739.118	384.51
739.303	310.78
739.489	304.64
739.674	237.05
739.859	237.05
740.045	286.2
740.23	200.19
740.416	71.17
740.601	292.35
740.786	304.64
740.972	167.42
741.157	171.52
741.342	165.37
741.528	118.27
741.713	335.35
741.898	228.86
742.084	296.44
742.269	181.76
742.454	243.2
742.639	347.64
742.824	251.39
743.01	347.64
743.195	343.55
743.38	308.73
743.565	237.05
743.75	271.87
743.935	333.31
744.12	300.54
744.305	148.99
744.49	196.09
744.675	222.72
744.86	212.48
745.045	253.44
745.23	298.49
745.415	251.39
745.6	341.5
745.785	185.85
745.97	302.59
746.155	314.88
746.34	361.98
746.525	247.29
746.71	312.83
746.895	128.51
747.079	189.95
747.264	273.92
747.449	202.24
747.634	239.1
747.819	232.96
748.003	130.56
748.188	169.47
748.373	269.82
748.557	228.86
748.742	255.48
748.927	206.33
749.111	93.69
749.296	183.81
749.481	304.64
749.665	290.3
749.85	114.17
750.034	269.82
750.219	253.44
750.404	198.14
750.588	232.96
750.773	138.75
750.957	228.86
751.141	177.66
751.326	214.52
751.51	138.75
751.695	169.47
751.879	224.76
752.064	335.35
752.248	224.76
752.432	323.07
752.617	267.77
752.801	220.67
752.985	103.93
753.17	286.2
753.354	206.33
753.538	181.76
753.722	48.64
753.907	130.56
754.091	87.55
754.275	198.14
754.459	69.12
754.643	196.09
754.828	214.52
755.012	257.53
755.196	105.98
755.38	142.85
755.564	144.89
755.748	192
755.932	255.48
756.116	204.28
756.3	165.37
756.484	126.46
756.668	140.8
756.852	71.17
757.036	179.71
757.22	204.28
757.404	112.13
757.588	75.26
757.772	163.33
757.956	122.37
758.14	198.14
758.323	142.85
758.507	77.31
758.691	101.89
758.875	171.52
759.059	300.54
759.242	110.08
759.426	185.85
759.61	181.76
759.794	101.89
759.977	181.76
760.161	409.08
760.345	271.87
760.528	189.95
760.712	157.18
760.895	198.14
761.079	122.37
761.263	108.03
761.446	73.21
761.63	85.5
761.813	185.85
761.997	65.02
762.18	81.41
762.364	218.62
762.547	77.31
762.731	89.6
762.914	132.61
763.098	114.17
763.281	44.54
763.464	42.5
763.648	124.41
763.831	95.74
764.015	101.89
764.198	192
764.381	114.17
764.564	163.33
764.748	122.37
764.931	206.33
765.114	46.59
765.297	210.43
765.481	32.26
765.664	89.6
765.847	118.27
766.03	198.14
766.213	54.78
766.397	167.42
766.58	17.92
766.763	198.14
766.946	97.79
767.129	83.45
767.312	46.59
767.495	183.81
767.678	46.59
767.861	124.41
768.044	79.36
768.227	44.54
768.41	85.5
768.593	192
768.776	126.46
768.959	62.98
769.142	132.61
769.324	50.69
769.507	81.41
769.69	38.4
769.873	40.45
770.056	210.43
770.239	110.08
770.421	267.77
770.604	116.22
770.787	87.55
770.97	67.07
771.152	91.65
771.335	105.98
771.518	83.45
771.7	136.7
771.883	165.37
772.066	50.69
772.248	58.88
772.431	192
772.613	122.37
772.796	91.65
772.978	134.65
773.161	105.98
773.343	30.21
773.526	24.06
773.708	-70.14
773.891	-0.51
774.073	69.12
774.256	54.78
774.438	196.09
774.621	73.21
774.803	126.46
774.985	3.58
775.168	77.31
775.35	75.26
775.532	136.7
775.715	22.02
775.897	73.21
776.079	91.65
776.261	95.74
776.444	77.31
776.626	50.69
776.808	87.55
776.99	1.54
777.173	79.36
777.355	9.73
777.537	103.93
777.719	56.83
777.901	85.5
778.083	-8.7
778.265	-29.18
778.447	146.94
778.629	77.31
778.811	122.37
778.993	138.75
779.175	169.47
779.357	105.98
779.539	-61.95
779.721	83.45
779.903	171.52
780.085	7.68
780.267	118.27
780.449	89.6
780.631	181.76
780.812	165.37
780.994	46.59
781.176	69.12
781.358	48.64
781.54	46.59
781.721	101.89
781.903	151.04
782.085	32.26
782.267	134.65
782.448	-51.71
782.63	-33.28
782.812	103.93
782.993	54.78
783.175	73.21
783.357	46.59
783.538	101.89
783.72	-45.57
783.901	17.92
784.083	93.69
784.264	34.3
784.446	-47.62
784.627	-4.61
784.809	73.21
784.99	-27.14
785.172	77.31
785.353	19.97
785.535	110.08
785.716	58.88
785.897	-12.8
786.079	60.93
786.26	7.68
786.441	62.98
786.623	3.58
786.804	-0.51
786.985	75.26
787.167	140.8
787.348	54.78
787.529	85.5
787.71	165.37
787.891	89.6
788.073	-12.8
788.254	-10.75
788.435	165.37
788.616	77.31
788.797	9.73
788.978	42.5
789.159	-10.75
789.34	114.17
789.522	126.46
789.703	-23.04
789.884	48.64
790.065	114.17
790.246	120.32
790.427	30.21
790.607	50.69
790.788	99.84
790.969	54.78
791.15	5.63
791.331	26.11
791.512	40.45
791.693	32.26
791.874	17.92
792.054	226.81
792.235	65.02
792.416	-23.04
792.597	44.54
792.778	108.03
792.958	130.56
793.139	15.87
793.32	77.31
793.5	-10.75
793.681	99.84
793.862	140.8
794.042	67.07
794.223	-33.28
794.404	-12.8
794.584	-61.95
794.765	101.89
794.945	-27.14
795.126	46.59
795.306	134.65
795.487	-20.99
795.667	-0.51
795.848	91.65
796.028	32.26
796.209	46.59
796.389	71.17
796.57	32.26
796.75	30.21
796.93	89.6
797.111	-2.56
797.291	5.63
797.471	136.7
797.652	5.63
797.832	-70.14
798.012	73.21
798.192	36.35
798.373	-14.85
798.553	-31.23
798.733	-6.66
798.913	-49.66
799.093	24.06
799.274	-4.61
799.454	118.27
799.634	157.18
799.814	34.3
799.994	62.98
800.174	103.93
800.354	48.64
800.534	-104.96
800.714	89.6
800.894	-43.52
801.074	-47.62
801.254	-37.38
801.434	118.27
801.614	-8.7
801.794	26.11
801.974	2131.42
802.154	54.78
802.334	103.93
802.514	-4.61
802.693	7.68
802.873	-27.14
803.053	165.37
803.233	73.21
803.413	-0.51
803.592	-27.14
803.772	-33.28
803.952	-12.8
804.131	-23.04
804.311	112.13
804.491	108.03
804.67	-23.04
804.85	-94.72
805.03	54.78
805.209	56.83
805.389	89.6
805.568	-39.42
805.748	-57.86
805.928	17.92
806.107	136.7
806.287	58.88
806.466	71.17
806.646	32.26
806.825	22.02
807.004	-27.14
807.184	3.58
807.363	73.21
807.543	-4.61
807.722	-47.62
807.901	95.74
808.081	73.21
808.26	-25.09
808.439	15.87
808.619	75.26
808.798	-20.99
808.977	52.74
809.156	73.21
809.336	-2.56
809.515	65.02
809.694	22.02
809.873	-82.43
810.052	50.69
810.231	108.03
810.411	-12.8
810.59	97.79
810.769	44.54
810.948	122.37
811.127	-74.24
811.306	-6.66
811.485	71.17
811.664	126.46
811.843	24.06
812.022	24.06
812.201	15.87
812.38	-64
812.559	42.5
812.737	46.59
812.916	-41.47
813.095	-59.9
813.274	71.17
813.453	62.98
813.632	103.93
813.811	71.17
813.989	-59.9
814.168	24.06
814.347	11.78
814.526	-33.28
814.704	93.69
814.883	36.35
815.062	-20.99
815.24	99.84
815.419	-53.76
815.598	30.21
815.776	-59.9
815.955	22.02
816.133	-64
816.312	38.4
816.49	-31.23
816.669	11.78
816.847	-45.57
817.026	75.26
817.204	3.58
817.383	-33.28
817.561	-78.33
817.74	19.97
817.918	15.87
818.097	-25.09
818.275	-35.33
818.453	71.17
818.632	30.21
818.81	1.54
818.988	-64
819.167	-25.09
819.345	-8.7
819.523	15.87
819.701	60.93
819.879	56.83
820.058	-10.75
820.236	91.65
820.414	3.58
820.592	-8.7
820.77	-41.47
820.948	-41.47
821.127	15.87
821.305	19.97
821.483	-102.91
821.661	81.41
821.839	34.3
822.017	15.87
822.195	17.92
822.373	103.93
822.551	-12.8
822.729	108.03
822.907	34.3
823.085	89.6
823.262	32.26
823.44	-6.66
823.618	91.65
823.796	-43.52
823.974	-33.28
824.152	-25.09
824.329	89.6
824.507	-27.14
824.685	73.21
824.863	15.87
825.04	-23.04
825.218	136.7
825.396	32.26
825.574	93.69
825.751	24.06
825.929	28.16
826.107	-57.86
826.284	65.02
826.462	65.02
826.639	-8.7
826.817	-64
826.994	1.54
827.172	-55.81
827.349	60.93
827.527	77.31
827.704	120.32
827.882	19.97
828.059	38.4
828.237	-35.33
828.414	171.52
828.591	-45.57
828.769	19.97
828.946	-102.91
829.124	77.31
829.301	75.26
829.478	30.21
829.655	48.64
829.833	17.92
830.01	-94.72
830.187	30.21
830.364	5.63
830.542	71.17
830.719	134.65
830.896	83.45
831.073	83.45
831.25	40.45
831.427	69.12
831.604	54.78
831.782	36.35
831.959	24.06
832.136	1.54
832.313	44.54
832.49	-4.61
832.667	58.88
832.844	-29.18
833.021	44.54
833.198	54.78
833.374	75.26
833.551	54.78
833.728	48.64
833.905	75.26
834.082	-53.76
834.259	-4.61
834.436	89.6
834.612	-53.76
834.789	110.08
834.966	62.98
835.143	81.41
835.319	-18.94
835.496	101.89
835.673	32.26
835.85	91.65
836.026	-2.56
836.203	130.56
836.38	-53.76
836.556	30.21
836.733	40.45
836.909	202.24
837.086	-25.09
837.262	-49.66
837.439	1.54
837.616	-20.99
837.792	-39.42
837.968	-25.09
838.145	-102.91
838.321	32.26
838.498	46.59
838.674	22.02
838.851	77.31
839.027	9.73
839.203	13.82
839.38	153.09
839.556	24.06
839.732	46.59
839.909	-16.9
840.085	62.98
840.261	-0.51
840.437	50.69
840.614	32.26
840.79	77.31
840.966	46.59
841.142	-6.66
841.318	5.63
841.494	7.68
841.671	26.11
841.847	24.06
842.023	-57.86
842.199	97.79
842.375	108.03
842.551	-78.33
842.727	-92.67
842.903	130.56
843.079	-66.05
843.255	93.69
843.431	-23.04
843.607	-35.33
843.783	-133.63
843.959	73.21
844.134	-55.81
844.31	13.82
844.486	-12.8
844.662	-82.43
844.838	-4.61
845.013	17.92
845.189	93.69
845.365	69.12
845.541	58.88
845.716	-14.85
845.892	48.64
846.068	7.68
846.244	-4.61
846.419	48.64
846.595	-39.42
846.77	-25.09
846.946	-25.09
847.122	-74.24
847.297	-35.33
847.473	122.37
847.648	-152.06
847.824	48.64
847.999	-84.48
848.175	-0.51
848.35	38.4
848.526	116.22
848.701	-18.94
848.876	101.89
849.052	11.78
849.227	40.45
849.403	79.36
849.578	67.07
849.753	50.69
849.929	1.54
850.104	-68.09
850.279	-0.51
850.454	-39.42
850.63	9.73
850.805	1.54
850.98	3.58
851.155	-0.51
851.33	65.02
851.505	-92.67
851.681	124.41
851.856	30.21
852.031	26.11
852.206	22.02
852.381	-51.71
852.556	-37.38
852.731	24.06
852.906	65.02
853.081	19.97
853.256	69.12
853.431	-23.04
853.606	-47.62
853.781	-8.7
853.956	-92.67
854.131	58.88
854.305	-102.91
854.48	44.54
854.655	-47.62
854.83	-57.86
855.005	-35.33
855.18	-0.51
855.354	-2.56
855.529	-25.09
855.704	-45.57
855.879	17.92
856.053	-39.42
856.228	-55.81
856.403	-39.42
856.577	77.31
856.752	-53.76
856.926	3.58
857.101	-16.9
857.276	-68.09
857.45	-2.56
857.625	69.12
857.799	71.17
857.974	22.02
858.148	-86.53
858.323	36.35
858.497	-4.61
858.672	1.54
858.846	-80.38
859.02	52.74
859.195	-76.29
859.369	-20.99
859.543	-12.8
859.718	-70.14
859.892	58.88
860.066	9.73
860.241	-47.62
860.415	-10.75
860.589	-20.99
860.763	-25.09
860.938	-27.14
861.112	-25.09
861.286	-25.09
861.46	-41.47
861.634	-35.33
861.808	71.17
861.982	-29.18
862.157	-82.43
862.331	24.06
862.505	-102.91
862.679	-100.86
862.853	-35.33
863.027	-27.14
863.201	81.41
863.375	7.68
863.549	73.21
863.722	24.06
863.896	40.45
864.07	-78.33
864.244	52.74
864.418	52.74
864.592	-8.7
864.766	-23.04
864.939	-20.99
865.113	-37.38
865.287	103.93
865.461	13.82
865.634	24.06
865.808	-78.33
865.982	42.5
866.156	-78.33
866.329	-92.67
866.503	95.74
866.676	87.55
866.85	-39.42
867.024	-43.52
867.197	28.16
867.371	54.78
867.544	-8.7
867.718	-55.81
867.891	83.45
868.065	-45.57
868.238	-4.61
868.412	128.51
868.585	32.26
868.759	-66.05
868.932	-49.66
869.105	-82.43
869.279	-82.43
869.452	3.58
869.625	22.02
869.799	-8.7
869.972	-74.24
870.145	54.78
870.319	22.02
870.492	26.11
870.665	-51.71
870.838	-4.61
871.011	-158.21
871.185	5.63
871.358	-53.76
871.531	62.98
871.704	-25.09
871.877	1.54
872.05	-27.14
872.223	-59.9
872.396	110.08
872.569	-59.9
872.742	-125.44
872.915	22.02
873.088	13.82
873.261	-45.57
873.434	69.12
873.607	-37.38
873.78	54.78
873.953	-27.14
874.126	62.98
874.299	-18.94
874.471	48.64
874.644	15.87
874.817	93.69
874.99	93.69
875.163	-23.04
875.335	58.88
875.508	40.45
875.681	87.55
875.853	-35.33
876.026	-10.75
876.199	52.74
876.371	7.68
876.544	-20.99
876.717	13.82
876.889	-37.38
877.062	97.79
877.234	-57.86
877.407	-53.76
877.579	-27.14
877.752	11.78
877.924	69.12
878.097	81.41
878.269	50.69
878.442	22.02
878.614	75.26
878.786	-2.56
878.959	67.07
879.131	22.02
879.303	-100.86
879.476	-23.04
879.648	110.08
879.82	-14.85
879.993	-96.77
880.165	-72.19
880.337	-14.85
880.509	52.74
880.681	-61.95
880.854	-23.04
881.026	75.26
881.198	62.98
881.37	-61.95
881.542	-37.38
881.714	-31.23
881.886	58.88
882.058	-20.99
882.23	-39.42
882.402	46.59
882.574	-8.7
882.746	112.13
882.918	65.02
883.09	71.17
883.262	-10.75
883.434	7.68
883.606	-90.62
883.778	11.78
883.95	116.22
884.122	28.16
884.293	56.83
884.465	56.83
884.637	30.21
884.809	1.54
884.98	77.31
885.152	24.06
885.324	58.88
885.496	-31.23
885.667	-53.76
885.839	-2.56
886.011	91.65
886.182	40.45
886.354	89.6
886.525	-18.94
886.697	36.35
886.869	-8.7
887.04	-49.66
887.212	112.13
887.383	237.05
887.555	71.17
887.726	-12.8
887.897	-55.81
888.069	-6.66
888.24	5.63
888.412	-6.66
888.583	-57.86
888.754	5.63
888.926	-137.73
889.097	-86.53
889.268	-117.25
889.44	-18.94
889.611	-104.96
889.782	-49.66
889.953	-55.81
890.125	87.55
890.296	-74.24
890.467	-61.95
890.638	-47.62
890.809	62.98
890.98	-16.9
891.151	17.92
891.323	114.17
891.494	71.17
891.665	1.54
891.836	28.16
892.007	-4.61
892.178	50.69
892.349	5.63
892.52	-49.66
892.691	17.92
892.862	-45.57
893.032	-117.25
893.203	22.02
893.374	-80.38
893.545	103.93
893.716	-98.81
893.887	46.59
894.057	38.4
894.228	-59.9
894.399	-96.77
894.57	103.93
894.74	-23.04
894.911	62.98
895.082	-33.28
895.253	28.16
895.423	62.98
895.594	71.17
895.764	-33.28
895.935	-102.91
896.106	22.02
896.276	-53.76
896.447	-37.38
896.617	-39.42
896.788	30.21
896.958	7.68
897.129	-45.57
897.299	-27.14
897.47	194.05
897.64	116.22
897.81	-37.38
897.981	44.54
898.151	-6.66
898.322	-53.76
898.492	28.16
898.662	-53.76
898.832	-45.57
899.003	19.97
899.173	-16.9
899.343	42.5
899.513	-102.91
