Data from USB4F104151__9__10-41-22-990.txt Node

Date: Wed Feb 26 10:41:22 EST 2025
User: louis
Spectrometer: USB4F10415
Trigger mode: 4
Integration Time (sec): 1.000000E-1
Scans to average: 1
Electric dark correction enabled: true
Nonlinearity correction enabled: false
Boxcar width: 0
XAxis mode: Wavelengths
Number of Pixels in Spectrum: 3648
>>>>>Begin Spectral Data<<<<<
178.204	-269.82
178.424	-269.82
178.644	-269.82
178.864	-415.23
179.084	-392.7
179.304	-11.78
179.524	0.51
179.744	4.61
179.964	-9.73
180.184	51.71
180.404	37.38
180.624	-15.87
180.844	6.66
181.064	-75.26
181.283	-34.3
181.503	-13.82
181.723	59.9
181.943	-19.97
182.163	156.16
182.383	-11.78
182.602	107.01
182.822	127.49
183.042	18.94
183.262	43.52
183.482	-9.73
183.701	102.91
183.921	156.16
184.141	-7.68
184.361	66.05
184.58	117.25
184.8	23.04
185.02	78.33
185.239	147.97
185.459	145.92
185.679	154.11
185.898	-40.45
186.118	55.81
186.338	127.49
186.557	123.39
186.777	-9.73
186.997	47.62
187.216	70.14
187.436	258.56
187.655	45.57
187.875	150.01
188.095	14.85
188.314	209.4
188.534	152.06
188.753	2.56
188.973	64
189.192	207.36
189.412	98.81
189.631	55.81
189.851	29.18
190.07	160.25
190.29	23.04
190.509	-32.26
190.729	117.25
190.948	188.93
191.168	219.64
191.387	152.06
191.607	10.75
191.826	49.66
192.045	98.81
192.265	31.23
192.484	88.57
192.704	92.67
192.923	16.9
193.142	217.6
193.362	174.59
193.581	178.69
193.8	82.43
194.02	176.64
194.239	76.29
194.458	154.11
194.678	23.04
194.897	49.66
195.116	68.09
195.335	158.21
195.555	55.81
195.774	133.63
195.993	33.28
196.212	29.18
196.432	18.94
196.651	-38.4
196.87	90.62
197.089	270.84
197.308	115.2
197.528	39.42
197.747	-32.26
197.966	51.71
198.185	137.73
198.404	57.86
198.623	100.86
198.842	195.07
199.062	137.73
199.281	170.49
199.5	35.33
199.719	66.05
199.938	98.81
200.157	86.53
200.376	121.34
200.595	117.25
200.814	207.36
201.033	4.61
201.252	160.25
201.471	100.86
201.69	141.82
201.909	68.09
202.128	131.58
202.347	113.15
202.566	96.77
202.785	-26.11
203.004	2.56
203.223	240.12
203.442	92.67
203.661	37.38
203.879	104.96
204.098	139.77
204.317	33.28
204.536	141.82
204.755	111.1
204.974	111.1
205.193	-42.5
205.411	160.25
205.63	68.09
205.849	102.91
206.068	133.63
206.287	23.04
206.505	176.64
206.724	109.05
206.943	53.76
207.162	29.18
207.381	168.45
207.599	78.33
207.818	43.52
208.037	72.19
208.255	55.81
208.474	59.9
208.693	98.81
208.911	0.51
209.13	121.34
209.349	84.48
209.567	152.06
209.786	92.67
210.005	164.35
210.223	125.44
210.442	-34.3
210.661	68.09
210.879	104.96
211.098	96.77
211.316	45.57
211.535	127.49
211.753	102.91
211.972	35.33
212.191	43.52
212.409	88.57
212.628	104.96
212.846	51.71
213.065	-9.73
213.283	203.26
213.502	43.52
213.72	125.44
213.938	115.2
214.157	-42.5
214.375	113.15
214.594	29.18
214.812	59.9
215.031	8.7
215.249	27.14
215.467	127.49
215.686	78.33
215.904	129.53
216.122	127.49
216.341	184.83
216.559	100.86
216.778	135.68
216.996	133.63
217.214	33.28
217.432	53.76
217.651	14.85
217.869	82.43
218.087	111.1
218.306	37.38
218.524	107.01
218.742	98.81
218.96	131.58
219.179	25.09
219.397	111.1
219.615	207.36
219.833	135.68
220.051	-28.16
220.27	133.63
220.488	143.87
220.706	39.42
220.924	59.9
221.142	23.04
221.36	127.49
221.578	174.59
221.796	72.19
222.015	68.09
222.233	82.43
222.451	219.64
222.669	-22.02
222.887	66.05
223.105	39.42
223.323	111.1
223.541	-3.58
223.759	94.72
223.977	72.19
224.195	150.01
224.413	141.82
224.631	121.34
224.849	84.48
225.067	225.79
225.285	-36.35
225.503	98.81
225.721	-77.31
225.939	137.73
226.157	104.96
226.375	307.71
226.592	39.42
226.81	10.75
227.028	127.49
227.246	125.44
227.464	92.67
227.682	86.53
227.9	168.45
228.117	53.76
228.335	90.62
228.553	0.51
228.771	94.72
228.989	162.3
229.206	125.44
229.424	-17.92
229.642	-34.3
229.86	-79.36
230.077	135.68
230.295	80.38
230.513	125.44
230.731	129.53
230.948	301.56
231.166	182.78
231.384	82.43
231.601	27.14
231.819	242.17
232.037	111.1
232.254	51.71
232.472	70.14
232.689	41.47
232.907	184.83
233.125	-19.97
233.342	-136.7
233.56	49.66
233.777	29.18
233.995	39.42
234.213	109.05
234.43	92.67
234.648	98.81
234.865	43.52
235.083	33.28
235.3	141.82
235.518	113.15
235.735	168.45
235.953	141.82
236.17	45.57
236.388	86.53
236.605	61.95
236.822	121.34
237.04	123.39
237.257	49.66
237.475	-38.4
237.692	55.81
237.909	180.73
238.127	68.09
238.344	125.44
238.562	98.81
238.779	6.66
238.996	78.33
239.214	152.06
239.431	86.53
239.648	121.34
239.865	127.49
240.083	70.14
240.3	27.14
240.517	10.75
240.735	129.53
240.952	135.68
241.169	107.01
241.386	121.34
241.603	61.95
241.821	43.52
242.038	115.2
242.255	82.43
242.472	-9.73
242.689	55.81
242.907	143.87
243.124	51.71
243.341	45.57
243.558	39.42
243.775	10.75
243.992	-40.45
244.209	98.81
244.426	252.41
244.643	78.33
244.86	76.29
245.078	166.4
245.295	193.02
245.512	72.19
245.729	113.15
245.946	131.58
246.163	139.77
246.38	88.57
246.597	66.05
246.814	133.63
247.031	39.42
247.248	96.77
247.464	98.81
247.681	137.73
247.898	43.52
248.115	143.87
248.332	47.62
248.549	205.31
248.766	164.35
248.983	86.53
249.2	109.05
249.417	199.16
249.633	98.81
249.85	115.2
250.067	-19.97
250.284	86.53
250.501	127.49
250.717	92.67
250.934	-103.93
251.151	18.94
251.368	72.19
251.585	98.81
251.801	80.38
252.018	-36.35
252.235	150.01
252.451	33.28
252.668	70.14
252.885	102.91
253.102	100.86
253.318	-3.58
253.535	78.33
253.752	-17.92
253.968	64
254.185	23.04
254.401	0.51
254.618	84.48
254.835	70.14
255.051	182.78
255.268	98.81
255.484	186.88
255.701	57.86
255.917	94.72
256.134	-22.02
256.351	-11.78
256.567	14.85
256.784	70.14
257	23.04
257.217	117.25
257.433	107.01
257.65	76.29
257.866	205.31
258.082	31.23
258.299	70.14
258.515	113.15
258.732	96.77
258.948	6.66
259.165	121.34
259.381	-5.63
259.597	127.49
259.814	125.44
260.03	119.29
260.246	49.66
260.463	168.45
260.679	145.92
260.895	45.57
261.112	123.39
261.328	51.71
261.544	78.33
261.761	199.16
261.977	150.01
262.193	8.7
262.409	70.14
262.626	41.47
262.842	98.81
263.058	78.33
263.274	123.39
263.49	174.59
263.707	127.49
263.923	145.92
264.139	-79.36
264.355	61.95
264.571	94.72
264.787	76.29
265.004	215.55
265.22	109.05
265.436	102.91
265.652	70.14
265.868	115.2
266.084	-48.64
266.3	4.61
266.516	-11.78
266.732	66.05
266.948	92.67
267.164	72.19
267.38	119.29
267.596	66.05
267.812	227.84
268.028	72.19
268.244	80.38
268.46	92.67
268.676	80.38
268.892	111.1
269.108	45.57
269.324	4.61
269.54	72.19
269.756	113.15
269.972	-58.88
270.188	92.67
270.403	-1.54
270.619	64
270.835	92.67
271.051	96.77
271.267	78.33
271.483	74.24
271.698	82.43
271.914	135.68
272.13	156.16
272.346	31.23
272.562	94.72
272.777	123.39
272.993	96.77
273.209	59.9
273.425	102.91
273.64	-1.54
273.856	168.45
274.072	-9.73
274.287	-71.17
274.503	37.38
274.719	213.5
274.934	88.57
275.15	-50.69
275.366	45.57
275.581	41.47
275.797	14.85
276.012	92.67
276.228	37.38
276.444	80.38
276.659	150.01
276.875	25.09
277.09	18.94
277.306	45.57
277.521	100.86
277.737	64
277.952	131.58
278.168	86.53
278.383	131.58
278.599	88.57
278.814	143.87
279.03	64
279.245	123.39
279.461	164.35
279.676	104.96
279.892	41.47
280.107	53.76
280.322	14.85
280.538	29.18
280.753	53.76
280.969	102.91
281.184	111.1
281.399	219.64
281.615	117.25
281.83	55.81
282.045	8.7
282.26	23.04
282.476	133.63
282.691	147.97
282.906	156.16
283.122	92.67
283.337	-28.16
283.552	18.94
283.767	43.52
283.983	203.26
284.198	68.09
284.413	139.77
284.628	-71.17
284.843	129.53
285.058	80.38
285.274	55.81
285.489	14.85
285.704	82.43
285.919	47.62
286.134	64
286.349	94.72
286.564	53.76
286.779	154.11
286.995	123.39
287.21	-9.73
287.425	70.14
287.64	-3.58
287.855	143.87
288.07	-17.92
288.285	80.38
288.5	129.53
288.715	150.01
288.93	43.52
289.145	55.81
289.36	135.68
289.575	107.01
289.79	104.96
290.004	-32.26
290.219	221.69
290.434	39.42
290.649	49.66
290.864	107.01
291.079	51.71
291.294	117.25
291.509	123.39
291.724	37.38
291.938	80.38
292.153	66.05
292.368	18.94
292.583	127.49
292.798	139.77
293.012	84.48
293.227	64
293.442	0.51
293.657	111.1
293.871	129.53
294.086	152.06
294.301	166.4
294.516	80.38
294.73	100.86
294.945	-13.82
295.16	41.47
295.374	242.17
295.589	86.53
295.804	82.43
296.018	115.2
296.233	135.68
296.447	68.09
296.662	82.43
296.877	248.32
297.091	119.29
297.306	45.57
297.52	27.14
297.735	82.43
297.949	150.01
298.164	20.99
298.378	96.77
298.593	-28.16
298.807	-26.11
299.022	68.09
299.236	125.44
299.451	-34.3
299.665	37.38
299.88	86.53
300.094	164.35
300.309	0.51
300.523	84.48
300.737	104.96
300.952	121.34
301.166	104.96
301.381	37.38
301.595	90.62
301.809	172.54
302.024	78.33
302.238	57.86
302.452	176.64
302.667	121.34
302.881	104.96
303.095	117.25
303.309	72.19
303.524	70.14
303.738	14.85
303.952	-13.82
304.166	113.15
304.381	-48.64
304.595	248.32
304.809	47.62
305.023	100.86
305.237	68.09
305.452	78.33
305.666	115.2
305.88	88.57
306.094	154.11
306.308	41.47
306.522	160.25
306.736	117.25
306.95	84.48
307.164	64
307.379	49.66
307.593	150.01
307.807	170.49
308.021	70.14
308.235	152.06
308.449	-52.74
308.663	109.05
308.877	285.18
309.091	152.06
309.305	104.96
309.519	64
309.733	170.49
309.947	6.66
310.161	125.44
310.374	154.11
310.588	127.49
310.802	70.14
311.016	61.95
311.23	133.63
311.444	-7.68
311.658	10.75
311.872	182.78
312.085	127.49
312.299	160.25
312.513	213.5
312.727	143.87
312.941	121.34
313.154	88.57
313.368	18.94
313.582	104.96
313.796	115.2
314.009	-7.68
314.223	125.44
314.437	115.2
314.651	150.01
314.864	96.77
315.078	35.33
315.292	2.56
315.505	43.52
315.719	102.91
315.933	125.44
316.146	31.23
316.36	51.71
316.573	195.07
316.787	72.19
317.001	102.91
317.214	55.81
317.428	80.38
317.641	39.42
317.855	31.23
318.068	98.81
318.282	193.02
318.495	121.34
318.709	86.53
318.922	33.28
319.136	154.11
319.349	150.01
319.563	66.05
319.776	147.97
319.99	-15.87
320.203	125.44
320.417	31.23
320.63	107.01
320.843	211.45
321.057	186.88
321.27	47.62
321.483	84.48
321.697	170.49
321.91	55.81
322.124	59.9
322.337	45.57
322.55	6.66
322.763	123.39
322.977	55.81
323.19	27.14
323.403	94.72
323.617	154.11
323.83	143.87
324.043	35.33
324.256	152.06
324.469	-17.92
324.683	90.62
324.896	80.38
325.109	37.38
325.322	82.43
325.535	49.66
325.748	125.44
325.962	-9.73
326.175	43.52
326.388	94.72
326.601	266.75
326.814	72.19
327.027	123.39
327.24	143.87
327.453	-58.88
327.666	158.21
327.879	141.82
328.092	59.9
328.305	94.72
328.518	51.71
328.731	86.53
328.944	-5.63
329.157	74.24
329.37	102.91
329.583	188.93
329.796	154.11
330.009	6.66
330.222	172.54
330.435	139.77
330.648	51.71
330.861	45.57
331.073	113.15
331.286	168.45
331.499	88.57
331.712	-5.63
331.925	-3.58
332.138	115.2
332.35	104.96
332.563	43.52
332.776	96.77
332.989	51.71
333.202	53.76
333.414	72.19
333.627	86.53
333.84	41.47
334.053	31.23
334.265	41.47
334.478	59.9
334.691	35.33
334.903	88.57
335.116	2.56
335.329	10.75
335.541	49.66
335.754	266.75
335.966	133.63
336.179	76.29
336.392	47.62
336.604	74.24
336.817	129.53
337.029	94.72
337.242	137.73
337.454	190.97
337.667	70.14
337.88	203.26
338.092	47.62
338.305	94.72
338.517	-50.69
338.729	160.25
338.942	160.25
339.154	37.38
339.367	-26.11
339.579	115.2
339.792	29.18
340.004	176.64
340.217	111.1
340.429	90.62
340.641	0.51
340.854	-71.17
341.066	109.05
341.278	229.88
341.491	88.57
341.703	72.19
341.915	57.86
342.128	74.24
342.34	80.38
342.552	64
342.764	125.44
342.977	-42.5
343.189	27.14
343.401	98.81
343.613	-28.16
343.826	10.75
344.038	-1.54
344.25	94.72
344.462	98.81
344.674	84.48
344.886	111.1
345.099	68.09
345.311	82.43
345.523	14.85
345.735	-52.74
345.947	57.86
346.159	55.81
346.371	133.63
346.583	100.86
346.795	248.32
347.007	139.77
347.219	78.33
347.431	0.51
347.643	143.87
347.855	27.14
348.067	209.4
348.279	27.14
348.491	64
348.703	107.01
348.915	137.73
349.127	-73.21
349.339	176.64
349.551	49.66
349.763	170.49
349.975	33.28
350.187	78.33
350.399	270.84
350.61	102.91
350.822	18.94
351.034	84.48
351.246	78.33
351.458	160.25
351.669	84.48
351.881	100.86
352.093	109.05
352.305	135.68
352.517	160.25
352.728	184.83
352.94	127.49
353.152	158.21
353.363	-5.63
353.575	127.49
353.787	209.4
353.999	166.4
354.21	203.26
354.422	0.51
354.633	127.49
354.845	33.28
355.057	16.9
355.268	76.29
355.48	121.34
355.692	-36.35
355.903	76.29
356.115	37.38
356.326	-118.27
356.538	43.52
356.749	150.01
356.961	100.86
357.172	154.11
357.384	0.51
357.595	238.08
357.807	45.57
358.018	-7.68
358.23	131.58
358.441	137.73
358.653	139.77
358.864	64
359.075	51.71
359.287	61.95
359.498	125.44
359.709	129.53
359.921	-13.82
360.132	111.1
360.344	31.23
360.555	68.09
360.766	111.1
360.977	57.86
361.189	139.77
361.4	109.05
361.611	94.72
361.823	121.34
362.034	84.48
362.245	-34.3
362.456	33.28
362.667	156.16
362.879	35.33
363.09	86.53
363.301	72.19
363.512	70.14
363.723	45.57
363.935	88.57
364.146	164.35
364.357	47.62
364.568	113.15
364.779	-15.87
364.99	188.93
365.201	23.04
365.412	209.4
365.623	-24.06
365.834	109.05
366.045	80.38
366.256	168.45
366.467	64
366.678	205.31
366.889	31.23
367.1	33.28
367.311	137.73
367.522	33.28
367.733	104.96
367.944	12.8
368.155	102.91
368.366	188.93
368.577	127.49
368.788	209.4
368.999	51.71
369.209	102.91
369.42	256.51
369.631	256.51
369.842	150.01
370.053	78.33
370.264	229.88
370.474	107.01
370.685	92.67
370.896	94.72
371.107	195.07
371.317	156.16
371.528	72.19
371.739	166.4
371.95	158.21
372.16	96.77
372.371	37.38
372.582	68.09
372.792	109.05
373.003	74.24
373.214	107.01
373.424	147.97
373.635	53.76
373.846	240.12
374.056	47.62
374.267	76.29
374.477	96.77
374.688	47.62
374.898	127.49
375.109	80.38
375.319	4.61
375.53	129.53
375.74	143.87
375.951	29.18
376.161	88.57
376.372	98.81
376.582	55.81
376.793	64
377.003	66.05
377.214	59.9
377.424	117.25
377.635	96.77
377.845	82.43
378.055	150.01
378.266	-32.26
378.476	74.24
378.686	123.39
378.897	117.25
379.107	184.83
379.317	70.14
379.528	29.18
379.738	170.49
379.948	6.66
380.158	104.96
380.369	59.9
380.579	82.43
380.789	31.23
380.999	131.58
381.21	135.68
381.42	197.12
381.63	82.43
381.84	102.91
382.05	143.87
382.261	117.25
382.471	207.36
382.681	78.33
382.891	219.64
383.101	154.11
383.311	14.85
383.521	8.7
383.731	195.07
383.941	205.31
384.151	188.93
384.361	90.62
384.571	107.01
384.781	115.2
384.991	233.98
385.201	207.36
385.411	164.35
385.621	88.57
385.831	66.05
386.041	76.29
386.251	61.95
386.461	164.35
386.671	100.86
386.881	113.15
387.091	47.62
387.301	31.23
387.511	117.25
387.72	80.38
387.93	139.77
388.14	-1.54
388.35	64
388.56	168.45
388.769	111.1
388.979	117.25
389.189	-24.06
389.399	-73.21
389.609	123.39
389.818	150.01
390.028	104.96
390.238	135.68
390.447	66.05
390.657	145.92
390.867	51.71
391.076	-93.69
391.286	188.93
391.496	113.15
391.705	90.62
391.915	100.86
392.125	170.49
392.334	43.52
392.544	215.55
392.753	80.38
392.963	29.18
393.172	100.86
393.382	16.9
393.591	201.21
393.801	92.67
394.01	121.34
394.22	162.3
394.429	49.66
394.639	113.15
394.848	158.21
395.058	123.39
395.267	16.9
395.477	104.96
395.686	137.73
395.895	262.65
396.105	219.64
396.314	104.96
396.524	94.72
396.733	117.25
396.942	119.29
397.152	102.91
397.361	152.06
397.57	115.2
397.78	78.33
397.989	145.92
398.198	285.18
398.407	104.96
398.617	100.86
398.826	127.49
399.035	-5.63
399.244	186.88
399.453	107.01
399.663	123.39
399.872	37.38
400.081	66.05
400.29	145.92
400.499	8.7
400.708	182.78
400.917	70.14
401.127	145.92
401.336	113.15
401.545	207.36
401.754	207.36
401.963	195.07
402.172	47.62
402.381	96.77
402.59	70.14
402.799	127.49
403.008	176.64
403.217	152.06
403.426	121.34
403.635	12.8
403.844	96.77
404.053	94.72
404.262	6.66
404.471	244.22
404.68	16.9
404.888	61.95
405.097	70.14
405.306	107.01
405.515	86.53
405.724	59.9
405.933	205.31
406.142	119.29
406.35	133.63
406.559	162.3
406.768	86.53
406.977	238.08
407.185	119.29
407.394	172.54
407.603	100.86
407.812	102.91
408.02	213.5
408.229	68.09
408.438	104.96
408.646	2.56
408.855	35.33
409.064	131.58
409.272	100.86
409.481	154.11
409.69	4.61
409.898	-11.78
410.107	25.09
410.315	53.76
410.524	113.15
410.733	113.15
410.941	102.91
411.15	147.97
411.358	193.02
411.567	193.02
411.775	125.44
411.984	88.57
412.192	100.86
412.401	94.72
412.609	223.74
412.818	242.17
413.026	78.33
413.234	-22.02
413.443	78.33
413.651	-1.54
413.86	195.07
414.068	205.31
414.276	227.84
414.485	80.38
414.693	190.97
414.901	233.98
415.11	139.77
415.318	125.44
415.526	94.72
415.734	180.73
415.943	76.29
416.151	117.25
416.359	33.28
416.567	113.15
416.776	168.45
416.984	137.73
417.192	98.81
417.4	39.42
417.608	23.04
417.817	80.38
418.025	182.78
418.233	178.69
418.441	-38.4
418.649	64
418.857	184.83
419.065	242.17
419.273	33.28
419.481	131.58
419.689	131.58
419.897	104.96
420.105	70.14
420.313	88.57
420.521	211.45
420.729	152.06
420.937	72.19
421.145	-5.63
421.353	162.3
421.561	227.84
421.769	98.81
421.977	78.33
422.185	154.11
422.393	117.25
422.601	197.12
422.809	184.83
423.017	182.78
423.224	121.34
423.432	207.36
423.64	57.86
423.848	193.02
424.056	84.48
424.263	197.12
424.471	125.44
424.679	195.07
424.887	70.14
425.094	156.16
425.302	133.63
425.51	78.33
425.718	119.29
425.925	123.39
426.133	109.05
426.341	250.36
426.548	147.97
426.756	82.43
426.964	180.73
427.171	66.05
427.379	94.72
427.586	172.54
427.794	162.3
428.001	137.73
428.209	211.45
428.417	197.12
428.624	111.1
428.832	219.64
429.039	125.44
429.247	133.63
429.454	119.29
429.662	221.69
429.869	137.73
430.076	193.02
430.284	293.37
430.491	207.36
430.699	199.16
430.906	219.64
431.114	145.92
431.321	268.8
431.528	154.11
431.736	162.3
431.943	236.03
432.15	186.88
432.358	205.31
432.565	297.47
432.772	59.9
432.979	209.4
433.187	150.01
433.394	287.23
433.601	203.26
433.808	268.8
434.016	348.67
434.223	258.56
434.43	279.04
434.637	352.76
434.844	379.39
435.052	379.39
435.259	309.76
435.466	354.81
435.673	283.13
435.88	328.19
436.087	418.3
436.294	356.86
436.501	422.39
436.708	449.02
436.915	410.11
437.122	477.69
437.329	324.09
437.537	377.34
437.743	428.54
437.95	551.42
438.157	541.18
438.364	424.44
438.571	473.59
438.778	578.04
438.985	508.41
439.192	532.98
439.399	575.99
439.606	625.14
439.813	602.61
440.02	768.5
440.227	739.83
440.433	678.39
440.64	565.75
440.847	549.37
441.054	776.69
441.261	813.56
441.467	819.7
441.674	664.05
441.881	864.75
442.088	797.17
442.294	813.56
442.501	981.49
442.708	1020.4
442.914	838.13
443.121	1034.74
443.328	1120.75
443.534	1114.61
443.741	1104.37
443.948	948.72
444.154	1143.28
444.361	1352.17
444.568	1260.01
444.774	1219.05
444.981	1182.19
445.187	1311.21
445.394	1444.33
445.6	1323.5
445.807	1440.23
446.013	1491.43
446.22	1497.58
446.426	1765.86
446.633	1804.77
446.839	1952.23
447.046	1743.33
447.252	1976.8
447.459	2028
447.665	1907.17
447.871	2073.06
448.078	2324.96
448.284	2187.74
448.491	2355.68
448.697	2478.55
448.903	2589.14
449.11	2507.23
449.316	2570.71
449.522	2791.89
449.728	3045.84
449.935	2947.54
450.141	3011.03
450.347	3328.46
450.553	3076.56
450.76	3252.69
450.966	3408.33
451.172	3520.97
451.378	3793.35
451.584	3901.89
451.791	4110.79
451.997	3998.15
452.203	4209.09
452.409	4491.71
452.615	4528.57
452.821	4372.93
453.027	4325.82
453.233	5114.29
453.44	4880.82
453.646	5165.49
453.852	5325.23
454.058	5788.07
454.264	5611.95
454.47	6156.71
454.676	6105.51
454.882	6781.34
455.088	6365.6
455.294	6863.26
455.5	7221.65
455.705	7733.64
455.911	7627.15
456.117	7780.75
456.323	7944.58
456.529	8212.87
456.735	8677.76
456.941	9267.57
457.147	9277.81
457.352	10015.08
457.558	10078.57
457.764	10684.76
457.97	11014.49
458.176	11456.85
458.381	11929.93
458.587	11710.8
458.793	12644.67
458.999	12486.98
459.204	14121.26
459.41	14936.35
459.616	14485.79
459.821	15454.48
460.027	15907.09
460.233	16810.24
460.438	16863.49
460.644	17905.9
460.85	18155.75
461.055	18573.54
461.261	19771.6
461.466	19351.77
461.672	19708.12
461.878	21868.72
462.083	21559.48
462.289	22282.41
462.494	22868.13
462.7	23130.27
462.905	23531.67
463.111	25389.18
463.316	26660.97
463.522	27123.81
463.727	28151.89
463.932	28928.07
464.138	29397.06
464.343	30988.33
464.549	31219.75
464.754	33699.84
464.959	34539.5
465.165	35110.89
465.37	34732.01
465.575	34449.39
465.781	37380.04
465.986	38434.74
466.191	37636.03
466.397	38035.39
466.602	36941.77
466.807	39067.56
467.012	39798.69
467.218	40302.49
467.423	40605.59
467.628	41652.1
467.833	43880.29
468.038	42962.8
468.244	42522.49
468.449	44472.15
468.654	43493.22
468.859	43577.19
469.064	43968.35
469.269	42497.91
469.474	43114.35
469.679	44302.17
469.885	42889.07
470.09	43896.67
470.295	43638.63
470.5	42581.88
470.705	43155.31
470.91	42246.01
471.115	41551.75
471.32	42241.92
471.525	42057.6
471.73	40386.46
471.935	40550.29
472.139	39063.47
472.344	39542.69
472.549	39034.8
472.754	38272.95
472.959	37547.97
473.164	35962.84
473.369	35743.71
473.574	36530.13
473.778	35852.25
473.983	34998.25
474.188	34521.07
474.393	32700.43
474.598	33120.26
474.802	32081.94
475.007	31854.62
475.212	31428.64
475.417	29990.97
475.621	29839.42
475.826	29831.22
476.031	28932.17
476.235	28368.98
476.44	28485.71
476.645	27773.02
476.849	27570.27
477.054	27058.28
477.259	26308.72
477.463	26237.04
477.668	25352.32
477.872	25360.51
478.077	24805.51
478.282	23974.03
478.486	23709.85
478.691	23855.25
478.895	23324.83
479.1	23220.38
479.304	23234.72
479.509	22374.57
479.713	22923.43
479.918	22046.9
480.122	21893.3
480.326	22050.99
480.531	22077.62
480.735	21600.44
480.94	21059.77
481.144	21711.03
481.348	20836.55
481.553	20920.51
481.757	20435.14
481.961	20949.18
482.166	20521.16
482.37	20383.94
482.574	19781.84
482.778	20175.05
482.983	20281.55
483.187	19798.23
483.391	19624.15
483.595	19534.04
483.8	19267.8
484.004	19275.99
484.208	19005.66
484.412	18825.44
484.616	18485.48
484.821	18434.28
485.025	17844.46
485.229	18186.47
485.433	17641.71
485.637	17371.38
485.841	17268.98
486.045	17033.47
486.249	16912.64
486.453	16515.33
486.657	16271.62
486.861	16158.99
487.065	15612.18
487.269	15716.62
487.473	15253.78
487.677	15237.4
487.881	15261.98
488.085	14844.19
488.289	14692.64
488.493	14281
488.697	14553.38
488.901	14018.86
489.105	13478.19
489.309	13306.16
489.512	13334.84
489.716	12988.73
489.92	12765.5
490.124	12484.93
490.328	12648.77
490.531	11798.86
490.735	12124.49
490.939	11854.16
491.143	11522.38
491.346	11123.03
491.55	11120.98
491.754	10860.89
491.958	10838.36
492.161	10692.96
492.365	10664.29
492.569	10174.82
492.772	10174.82
492.976	10150.25
493.18	9830.76
493.383	9603.44
493.587	9621.87
493.79	9537.9
493.994	9609.58
494.197	9464.18
494.401	9226.61
494.605	9423.22
494.808	9277.81
495.012	9152.88
495.215	8962.42
495.419	9036.15
495.622	8845.69
495.825	8946.04
496.029	8655.23
496.232	8882.55
496.436	8571.26
496.639	8683.9
496.843	8604.03
497.046	8794.49
497.249	8759.67
497.453	8747.39
497.656	8671.61
497.859	8782.2
498.063	8903.03
498.266	8870.26
498.469	8610.17
498.673	8575.36
498.876	8987
499.079	8939.9
499.282	8655.23
499.485	9386.35
499.689	9091.45
499.892	9214.32
500.095	9167.22
500.298	9341.3
500.501	9116.02
500.705	9580.91
500.908	9472.37
501.111	9388.4
501.314	9714.03
501.517	9867.63
501.72	9646.44
501.923	9884.01
502.126	10019.18
502.329	10250.6
502.532	10387.81
502.735	10350.95
502.938	10502.5
503.141	10549.6
503.344	10858.84
503.547	10979.67
503.75	11014.49
503.953	10948.95
504.156	11172.18
504.359	11366.74
504.562	11581.78
504.765	11811.15
504.968	11991.37
505.17	12214.6
505.373	12390.72
505.576	12675.39
505.779	12767.55
505.982	12904.76
506.185	13234.49
506.387	13459.76
506.59	13500.72
506.793	14057.77
506.996	13981.99
507.198	14500.13
507.401	14680.35
507.604	14762.27
507.807	15345.94
508.009	15728.91
508.212	15833.36
508.415	16154.89
508.617	16625.92
508.82	16693.51
509.022	17178.87
509.225	17764.59
509.428	17754.35
509.63	18489.57
509.833	18546.92
510.035	19044.57
510.238	19138.78
510.44	19736.79
510.643	20596.93
510.845	20746.44
511.048	20701.38
511.25	21504.18
511.453	21987.5
511.655	22954.15
511.858	23273.63
512.06	23500.95
512.262	24006.8
512.465	24449.16
512.667	25268.35
512.87	25647.22
513.072	25933.94
513.274	26925.16
513.477	27527.26
513.679	27994.2
513.881	28917.83
514.084	29313.09
514.286	29935.67
514.488	30545.97
514.69	31617.05
514.893	31825.95
515.095	32469.01
515.297	33128.45
515.499	33853.44
515.701	34590.7
515.904	35448.8
516.106	36372.44
516.308	37134.28
516.51	37715.9
516.712	37730.24
516.914	38850.48
517.116	40066.97
517.318	40345.5
517.52	41439.11
517.722	41660.29
517.925	42598.26
518.127	43724.64
518.329	44425.05
518.531	44562.26
518.733	45721.41
518.935	46614.33
519.136	46640.95
519.338	48156.45
519.54	48557.85
519.742	49100.56
519.944	49837.83
520.146	51039.99
520.348	51443.44
520.55	51818.22
520.752	52565.73
520.954	53427.92
521.155	53546.7
521.357	54398.66
521.559	54750.91
521.761	55987.88
521.963	55869.1
522.164	56262.31
522.366	56946.33
522.568	57454.23
522.77	57734.8
522.971	59205.24
523.173	58336.9
523.375	59330.17
523.576	59084.41
523.778	59082.36
523.98	59969.13
524.181	59985.52
524.383	59934.32
524.584	60571.24
524.786	60976.73
524.988	60546.66
525.189	61001.31
525.391	60769.89
525.592	61439.57
525.794	61613.65
525.995	61118.04
526.197	60956.25
526.398	61232.73
526.6	61320.79
526.801	61152.86
527.003	60763.74
527.204	60438.12
527.406	60311.14
527.607	60225.13
527.808	60079.72
528.01	58957.44
528.211	58891.9
528.412	59672.18
528.614	59305.59
528.815	58660.48
529.016	59100.79
529.218	57292.44
529.419	57431.7
529.62	56860.32
529.822	56495.78
530.023	55881.39
530.224	55463.6
530.425	54890.17
530.626	54009.54
530.828	53731.02
531.029	54433.47
531.23	52741.85
531.431	51967.72
531.632	51926.76
531.833	51181.3
532.035	50665.21
532.236	50319.1
532.437	49868.55
532.638	49141.52
532.839	48895.77
533.04	48092.96
533.241	47187.76
533.442	47247.15
533.643	45969.22
533.844	45758.28
534.045	45154.13
534.246	43919.2
534.447	43913.06
534.648	43470.7
534.849	43032.43
535.05	42063.74
535.251	41418.63
535.451	41093
535.652	40822.67
535.853	39849.89
536.054	39428.01
536.255	38832.05
536.456	38242.23
536.657	38789.04
536.857	37056.46
537.058	36861.9
537.259	36745.17
537.46	36022.23
537.66	35461.09
537.861	35241.96
538.062	34734.06
538.263	34072.57
538.463	33921.02
538.664	33103.88
538.865	32595.98
539.065	32757.77
539.266	32016.41
539.466	31965.21
539.667	30879.78
539.868	31381.54
540.068	30502.96
540.269	30623.79
540.469	29843.51
540.67	29896.76
540.87	29341.76
541.071	28776.52
541.271	28872.78
541.472	28198.99
541.672	27865.17
541.873	27332.7
542.073	26871.91
542.274	27443.29
542.474	26820.71
542.675	26351.73
542.875	26343.53
543.075	25882.74
543.276	25122.94
543.476	25534.59
543.676	25102.46
543.877	24782.98
544.077	24533.13
544.277	24129.68
544.478	23664.79
544.678	23845.01
544.878	23277.72
545.078	23089.31
545.279	22669.48
545.479	22476.97
545.679	22231.21
545.879	22059.18
546.079	21852.34
546.28	21254.33
546.48	21020.86
546.68	21094.59
546.88	20861.12
547.08	20709.57
547.28	20383.94
547.48	19871.95
547.68	19962.06
547.88	19683.54
548.081	19488.98
548.281	19206.36
548.481	18966.75
548.681	18622.69
548.881	18321.64
549.081	18350.31
549.28	18176.23
549.48	17756.4
549.68	17484.02
549.88	17635.57
550.08	16986.36
550.28	16984.32
550.48	16851.2
550.68	16556.29
550.88	16034.06
551.08	16023.82
551.279	15814.93
551.479	15438.1
551.679	15243.54
551.879	15042.84
552.079	14956.83
552.278	14749.98
552.478	14704.93
552.678	13973.8
552.878	14364.96
553.077	13766.96
553.277	13365.56
553.477	13478.19
553.676	13250.87
553.876	12904.76
554.076	12669.25
554.275	12728.64
554.475	12196.17
554.674	12431.68
554.874	12177.73
555.074	11833.68
555.273	11487.57
555.473	11483.47
555.672	11170.13
555.872	10965.34
556.071	10977.62
556.271	10719.58
556.47	10574.17
556.67	10140.01
556.869	10125.67
557.068	10158.44
557.268	9853.29
557.467	9621.87
557.667	9687.4
557.866	9460.08
558.065	9415.02
558.265	9242.99
558.464	9032.05
558.663	8821.11
558.863	8591.74
559.062	8683.9
559.261	8468.86
559.461	8321.41
559.66	7993.73
559.859	8057.22
560.058	7967.11
560.258	7707.02
560.457	7621
560.656	7649.68
560.855	7448.97
561.054	7430.54
561.253	7104.92
561.453	7266.71
561.652	7066
561.851	6896.02
562.05	6769.05
562.249	6545.82
562.448	6570.4
562.647	6377.89
562.846	6255.01
563.045	6459.81
563.244	6248.86
563.443	6244.77
563.642	6089.12
563.841	5982.63
564.04	5695.91
564.239	5945.77
564.438	5691.82
564.637	5581.23
564.836	5474.73
565.035	5310.89
565.234	5446.06
565.432	5233.07
565.631	5265.84
565.83	5239.22
566.029	5007.8
566.228	4907.45
566.427	4929.97
566.625	4651.45
566.824	4719.03
567.023	4663.74
567.222	4585.91
567.42	4540.86
567.619	4379.07
567.818	4467.13
568.016	4508.09
568.215	4364.73
568.414	4295.1
568.612	4245.95
568.811	4161.98
569.01	4086.21
569.208	3973.57
569.407	3973.57
569.605	3965.38
569.804	3819.97
570.002	3856.84
570.201	3508.68
570.4	3807.69
570.598	3588.55
570.797	3477.96
570.995	3453.39
571.193	3414.48
571.392	3404.24
571.59	3416.52
571.789	3496.39
571.987	3226.06
572.186	3375.56
572.384	3146.19
572.582	3127.76
572.781	3195.34
572.979	3000.79
573.177	3150.29
573.376	2941.4
573.574	2955.73
573.772	2925.01
573.971	2812.37
574.169	2691.54
574.367	2795.99
574.565	2675.16
574.763	2671.06
574.962	2701.78
575.16	2652.63
575.358	2539.99
575.556	2560.47
575.754	2462.17
575.952	2419.16
576.151	2570.71
576.349	2423.26
576.547	2202.08
576.745	2376.16
576.943	2292.19
577.141	2193.89
577.339	2114.02
577.537	2150.88
577.735	2165.21
577.933	2030.05
578.131	2013.67
578.329	2109.92
578.527	2044.38
578.725	2017.76
578.923	1815.01
579.121	1952.23
579.319	1886.69
579.516	1878.5
579.714	1972.71
579.912	1874.4
580.11	1642.98
580.308	1671.65
580.506	1712.61
580.704	1659.37
580.901	1653.22
581.099	1638.89
581.297	1640.93
581.495	1591.78
581.692	1620.46
581.89	1618.41
582.088	1595.88
582.285	1454.57
582.483	1468.91
582.681	1386.99
582.878	1475.05
583.076	1419.75
583.274	1421.8
583.471	1507.82
583.669	1341.93
583.866	1268.2
584.064	1286.64
584.262	1274.35
584.459	1290.73
584.657	1321.45
584.854	1157.61
585.052	1360.36
585.249	1266.16
585.447	1210.86
585.644	1120.75
585.841	1221.1
586.039	1141.23
586.236	1249.77
586.434	1130.99
586.631	950.77
586.828	1096.18
587.026	1159.66
587.223	1014.26
587.42	995.82
587.618	1036.78
587.815	999.92
588.012	887.28
588.21	1055.22
588.407	1128.94
588.604	983.54
588.801	979.44
588.999	1024.5
589.196	995.82
589.393	903.67
589.59	936.43
589.787	901.62
589.984	989.68
590.182	934.39
590.379	967.15
590.576	885.23
590.773	907.76
590.97	846.32
591.167	1040.88
591.364	948.72
591.561	827.89
591.758	1034.74
591.955	893.43
592.152	954.87
592.349	813.56
592.546	860.66
592.743	836.08
592.94	924.15
593.137	932.34
593.334	938.48
593.531	936.43
593.727	936.43
593.924	911.86
594.121	901.62
594.318	874.99
594.515	928.24
594.712	1001.97
594.908	913.91
595.105	897.52
595.302	956.91
595.499	895.47
595.696	1176.05
595.892	881.14
596.089	1100.27
596.286	975.35
596.482	1087.98
596.679	1120.75
596.876	965.11
597.072	1151.47
597.269	1087.98
597.466	1200.62
597.662	1102.32
597.859	1137.13
598.055	1161.71
598.252	1284.59
598.448	1368.56
598.645	1317.36
598.841	1483.24
599.038	1522.15
599.234	1530.34
599.431	1561.06
599.627	1538.54
599.824	1804.77
600.02	1683.94
600.217	1751.53
600.413	1720.81
600.609	1823.2
600.806	2146.78
601.002	2028
601.198	1970.66
601.395	2421.21
601.591	2230.75
601.787	2357.72
601.984	2425.31
602.18	2619.86
602.376	2607.58
602.572	2793.94
602.769	2931.16
602.965	2953.68
603.161	3066.32
603.357	3240.4
603.553	3396.04
603.75	3404.24
603.946	3486.15
604.142	3619.27
604.338	3717.58
604.534	3869.12
604.73	4030.91
604.926	4069.83
605.122	4170.18
605.318	4428.22
605.514	4592.06
605.71	4581.82
605.906	4794.81
606.102	4819.38
606.298	5208.5
606.494	5200.3
606.69	5388.72
606.886	5487.02
607.082	5573.03
607.278	5638.57
607.474	5962.15
607.67	6138.27
607.866	6105.51
608.062	6408.61
608.257	6562.2
608.453	6613.4
608.649	7004.57
608.845	7014.8
609.041	7299.47
609.236	7645.58
609.432	7786.89
609.628	7940.49
609.824	8196.48
610.019	8421.76
610.215	8694.14
610.411	8952.18
610.606	9218.42
610.802	9329.01
610.998	9570.67
611.193	9859.43
611.389	9871.72
611.584	10279.27
611.78	10502.5
611.976	10793.31
612.171	11426.13
612.367	11538.77
612.562	11739.47
612.758	11919.69
612.953	12140.87
613.149	12814.65
613.344	12775.74
613.539	13248.82
613.735	13756.72
613.93	13744.43
614.126	14176.55
614.321	14813.47
614.517	15245.59
614.712	15524.12
614.907	16089.35
615.103	16507.14
615.298	16523.52
615.493	16980.22
615.688	17471.73
615.884	18249.96
616.079	18237.67
616.274	19126.49
616.47	19175.64
616.665	19835.09
616.86	20424.9
617.055	20740.29
617.25	21180.6
617.445	21954.74
617.641	22200.49
617.836	22730.92
618.031	23265.44
618.226	24139.92
618.421	24252.56
618.616	25485.44
618.811	25559.16
619.006	26654.83
619.201	26595.43
619.396	27322.46
619.591	27732.06
619.786	28790.86
619.981	29026.37
620.176	30156.85
620.371	29925.43
620.566	31451.17
620.761	31567.9
620.956	32839.69
621.151	32694.29
621.346	33753.08
621.541	34062.33
621.735	35309.54
621.93	35264.49
622.125	35780.57
622.32	36390.87
622.515	37439.43
622.709	37992.38
622.904	38817.71
623.099	39047.08
623.294	40079.26
623.488	40208.28
623.683	41635.72
623.878	41486.21
624.072	42823.54
624.267	43429.74
624.462	43777.89
624.656	43927.39
624.851	45420.36
625.046	45895.49
625.24	46405.44
625.435	46683.96
625.629	47466.28
625.824	48246.56
626.018	49086.23
626.213	48746.26
626.407	49798.92
626.602	49782.54
626.796	51185.39
626.991	51191.54
627.185	51957.48
627.38	51687.15
627.574	52469.47
627.768	52483.81
627.963	52713.18
628.157	52252.39
628.352	53346
628.546	52965.08
628.74	53493.46
628.935	52825.82
629.129	53346
629.323	52547.29
629.517	52350.69
629.712	52498.14
629.906	51658.48
630.1	50894.58
630.294	51539.69
630.489	50157.31
630.683	50392.83
630.877	49053.46
631.071	48150.31
631.265	47890.21
631.459	46653.24
631.653	45856.58
631.848	45174.61
632.042	43634.53
632.236	43208.56
632.43	41346.95
632.624	41070.48
632.818	39475.11
633.012	38023.1
633.206	36814.8
633.4	36235.22
633.594	34723.82
633.788	33660.93
633.982	32542.74
634.176	31359.01
634.369	30416.94
634.563	29098.05
634.757	27789.4
634.951	27166.82
635.145	26472.56
635.339	25016.45
635.533	24068.24
635.726	23021.73
635.92	22020.27
636.114	21094.59
636.308	20250.83
636.501	19722.45
636.695	18786.53
636.889	17889.52
637.083	17277.18
637.276	16683.27
637.47	15825.17
637.664	15300.89
637.857	14526.75
638.051	14027.05
638.244	13586.74
638.438	13058.36
638.632	12538.18
638.825	11868.49
639.019	11499.86
639.212	11065.69
639.406	10668.38
639.599	10017.13
639.793	9838.95
639.986	9361.78
640.18	9075.06
640.373	8722.81
640.567	8237.44
640.76	8155.52
640.954	7719.31
641.147	7297.42
641.34	7100.82
641.534	6750.62
641.727	6662.55
641.92	6347.17
642.114	6138.27
642.307	6048.16
642.5	5677.48
642.694	5433.77
642.887	5384.62
643.08	5237.17
643.273	4860.34
643.467	4843.96
643.66	4499.9
643.853	4272.57
644.046	4186.56
644.239	4014.53
644.432	3756.49
644.626	3627.46
644.819	3602.89
645.012	3480.01
645.205	3291.6
645.398	3242.45
645.591	2982.35
645.784	2845.14
645.977	2785.75
646.17	2697.69
646.363	2652.63
646.556	2468.31
646.749	2365.92
646.942	2320.86
647.135	2300.38
647.328	2089.44
647.521	2120.16
647.714	1978.85
647.907	1972.71
648.099	1884.64
648.292	1870.31
648.485	1815.01
648.678	1614.31
648.871	1569.26
649.064	1595.88
649.256	1513.96
649.449	1411.56
649.642	1300.97
649.835	1321.45
650.027	1202.67
650.22	1331.69
650.413	1147.37
650.605	1227.25
650.798	1053.17
650.991	1063.41
651.183	1108.46
651.376	1090.03
651.568	1049.07
651.761	911.86
651.954	1008.11
652.146	858.61
652.339	987.63
652.531	825.84
652.724	745.97
652.916	831.99
653.109	733.68
653.301	799.22
653.494	793.08
653.686	768.5
653.879	760.31
654.071	645.62
654.263	621.05
654.456	608.76
654.648	694.77
654.84	711.16
655.033	586.23
655.225	719.35
655.417	477.69
655.61	666.1
655.802	666.1
655.994	619
656.186	440.83
656.379	680.44
656.571	494.07
656.763	489.98
656.955	465.4
657.148	489.98
657.34	580.09
657.532	442.87
657.724	440.83
657.916	573.94
658.108	543.22
658.3	446.97
658.492	487.93
658.684	330.23
658.876	453.11
659.068	379.39
659.26	309.76
659.452	287.23
659.644	420.35
659.836	535.03
660.028	373.24
660.22	322.04
660.412	397.82
660.604	416.25
660.796	401.91
660.988	416.25
661.18	352.76
661.372	406.01
661.563	352.76
661.755	287.23
661.947	254.46
662.139	287.23
662.331	301.56
662.522	350.71
662.714	274.94
662.906	317.95
663.097	301.56
663.289	201.21
663.481	190.97
663.673	313.85
663.864	262.65
664.056	422.39
664.247	207.36
664.439	365.05
664.631	344.57
664.822	412.15
665.014	283.13
665.205	317.95
665.397	270.84
665.588	254.46
665.78	336.38
665.971	299.52
666.163	137.73
666.354	356.86
666.546	225.79
666.737	285.18
666.929	356.86
667.12	260.6
667.311	350.71
667.503	299.52
667.694	297.47
667.885	227.84
668.077	389.63
668.268	236.03
668.459	256.51
668.651	371.19
668.842	266.75
669.033	188.93
669.224	129.53
669.416	479.74
669.607	303.61
669.798	240.12
669.989	375.29
670.18	238.08
670.371	350.71
670.563	209.4
670.754	381.43
670.945	315.9
671.136	365.05
671.327	186.88
671.518	457.21
671.709	373.24
671.9	299.52
672.091	387.58
672.282	295.42
672.473	299.52
672.664	236.03
672.855	334.33
673.046	293.37
673.237	408.06
673.428	348.67
673.619	397.82
673.809	367.1
674	414.2
674.191	393.72
674.382	322.04
674.573	350.71
674.764	369.15
674.954	512.5
675.145	213.5
675.336	305.66
675.527	313.85
675.717	244.22
675.908	375.29
676.099	381.43
676.289	426.49
676.48	285.18
676.671	365.05
676.861	377.34
677.052	412.15
677.243	334.33
677.433	373.24
677.624	457.21
677.814	416.25
678.005	338.43
678.195	461.3
678.386	369.15
678.576	446.97
678.767	313.85
678.957	469.5
679.148	432.63
679.338	481.78
679.529	451.07
679.719	489.98
679.909	467.45
680.1	522.74
680.29	541.18
680.481	360.95
680.671	504.31
680.861	481.78
681.052	514.55
681.242	434.68
681.432	633.33
681.622	518.65
681.813	446.97
682.003	481.78
682.193	504.31
682.383	530.94
682.573	479.74
682.764	455.16
682.954	494.07
683.144	612.85
683.334	520.7
683.524	471.54
683.714	541.18
683.904	569.85
684.094	586.23
684.284	487.93
684.474	680.44
684.664	629.24
684.854	537.08
685.044	514.55
685.234	526.84
685.424	541.18
685.614	440.83
685.804	733.68
685.994	598.52
686.184	582.14
686.374	573.94
686.564	520.7
686.753	520.7
686.943	412.15
687.133	537.08
687.323	551.42
687.513	565.75
687.702	596.47
687.892	500.22
688.082	653.81
688.272	539.13
688.461	582.14
688.651	637.43
688.841	616.95
689.03	514.55
689.22	492.02
689.41	604.66
689.599	553.46
689.789	489.98
689.979	719.35
690.168	496.12
690.358	508.41
690.547	539.13
690.737	510.46
690.926	567.8
691.116	559.61
691.305	619
691.495	555.51
691.684	459.26
691.874	477.69
692.063	481.78
692.252	573.94
692.442	442.87
692.631	496.12
692.82	516.6
693.01	471.54
693.199	590.33
693.388	498.17
693.578	428.54
693.767	602.61
693.956	467.45
694.146	430.59
694.335	516.6
694.524	420.35
694.713	526.84
694.902	475.64
695.092	494.07
695.281	465.4
695.47	487.93
695.659	483.83
695.848	408.06
696.037	444.92
696.226	514.55
696.415	569.85
696.604	512.5
696.793	487.93
696.982	463.35
697.171	514.55
697.36	406.01
697.549	444.92
697.738	354.81
697.927	406.01
698.116	432.63
698.305	514.55
698.494	385.53
698.683	461.3
698.872	553.46
699.061	399.87
699.25	428.54
699.438	453.11
699.627	408.06
699.816	588.28
700.005	430.59
700.193	446.97
700.382	487.93
700.571	461.3
700.76	442.87
700.948	428.54
701.137	465.4
701.326	457.21
701.514	369.15
701.703	440.83
701.892	432.63
702.08	608.76
702.269	528.89
702.457	322.04
702.646	457.21
702.834	375.29
703.023	518.65
703.212	473.59
703.4	326.14
703.589	330.23
703.777	373.24
703.965	414.2
704.154	434.68
704.342	338.43
704.531	406.01
704.719	498.17
704.907	528.89
705.096	303.61
705.284	365.05
705.472	440.83
705.661	420.35
705.849	489.98
706.037	457.21
706.226	459.26
706.414	410.11
706.602	348.67
706.79	408.06
706.979	373.24
707.167	348.67
707.355	311.8
707.543	461.3
707.731	406.01
707.919	430.59
708.107	449.02
708.296	451.07
708.484	412.15
708.672	432.63
708.86	481.78
709.048	461.3
709.236	305.66
709.424	512.5
709.612	391.67
709.8	328.19
709.988	475.64
710.176	469.5
710.364	537.08
710.551	352.76
710.739	363
710.927	432.63
711.115	367.1
711.303	512.5
711.491	500.22
711.679	326.14
711.866	512.5
712.054	309.76
712.242	465.4
712.43	463.35
712.617	387.58
712.805	565.75
712.993	506.36
713.181	344.57
713.368	551.42
713.556	369.15
713.744	365.05
713.931	612.85
714.119	383.48
714.306	399.87
714.494	432.63
714.682	451.07
714.869	365.05
715.057	485.88
715.244	334.33
715.432	438.78
715.619	424.44
715.807	389.63
715.994	436.73
716.182	449.02
716.369	512.5
716.556	535.03
716.744	383.48
716.931	348.67
717.119	516.6
717.306	377.34
717.493	422.39
717.681	391.67
717.868	387.58
718.055	469.5
718.242	455.16
718.43	477.69
718.617	545.27
718.804	342.52
718.991	557.56
719.179	492.02
719.366	430.59
719.553	539.13
719.74	492.02
719.927	442.87
720.114	436.73
720.301	352.76
720.488	422.39
720.676	387.58
720.863	539.13
721.05	629.24
721.237	496.12
721.424	496.12
721.611	489.98
721.798	287.23
721.985	506.36
722.172	377.34
722.358	522.74
722.545	467.45
722.732	459.26
722.919	567.8
723.106	451.07
723.293	399.87
723.48	434.68
723.667	401.91
723.853	465.4
724.04	520.7
724.227	504.31
724.414	426.49
724.6	561.66
724.787	637.43
724.974	563.7
725.161	446.97
725.347	408.06
725.534	469.5
725.72	555.51
725.907	530.94
726.094	532.98
726.28	461.3
726.467	432.63
726.653	344.57
726.84	518.65
727.027	619
727.213	504.31
727.4	518.65
727.586	494.07
727.773	489.98
727.959	471.54
728.145	449.02
728.332	420.35
728.518	451.07
728.705	543.22
728.891	506.36
729.077	586.23
729.264	393.72
729.45	436.73
729.636	557.56
729.823	510.46
730.009	494.07
730.195	483.83
730.382	518.65
730.568	465.4
730.754	475.64
730.94	414.2
731.126	541.18
731.313	487.93
731.499	494.07
731.685	504.31
731.871	449.02
732.057	502.26
732.243	555.51
732.429	553.46
732.615	592.37
732.801	461.3
732.987	489.98
733.173	518.65
733.359	481.78
733.545	514.55
733.731	395.77
733.917	539.13
734.103	512.5
734.289	631.29
734.475	410.11
734.661	627.19
734.847	506.36
735.033	465.4
735.219	682.49
735.404	449.02
735.59	539.13
735.776	530.94
735.962	543.22
736.148	557.56
736.333	584.18
736.519	479.74
736.705	524.79
736.89	432.63
737.076	498.17
737.262	444.92
737.447	422.39
737.633	451.07
737.819	657.91
738.004	420.35
738.19	541.18
738.375	471.54
738.561	586.23
738.747	530.94
738.932	457.21
739.118	610.81
739.303	594.42
739.489	563.7
739.674	467.45
739.859	418.3
740.045	543.22
740.23	516.6
740.416	399.87
740.601	510.46
740.786	537.08
740.972	428.54
741.157	524.79
741.342	442.87
741.528	453.11
741.713	569.85
741.898	461.3
742.084	502.26
742.269	516.6
742.454	508.41
742.639	604.66
742.824	588.28
743.01	555.51
743.195	565.75
743.38	610.81
743.565	465.4
743.75	459.26
743.935	467.45
744.12	504.31
744.305	414.2
744.49	426.49
744.675	485.88
744.86	516.6
745.045	494.07
745.23	428.54
745.415	512.5
745.6	582.14
745.785	432.63
745.97	553.46
746.155	522.74
746.34	602.61
746.525	485.88
746.71	535.03
746.895	397.82
747.079	346.62
747.264	422.39
747.449	535.03
747.634	551.42
747.819	463.35
748.003	389.63
748.188	432.63
748.373	494.07
748.557	449.02
748.742	539.13
748.927	457.21
749.111	455.16
749.296	399.87
749.481	489.98
749.665	387.58
749.85	385.53
750.034	485.88
750.219	406.01
750.404	363
750.588	494.07
750.773	391.67
750.957	449.02
751.141	311.8
751.326	471.54
751.51	283.13
751.695	418.3
751.879	424.44
752.064	487.93
752.248	444.92
752.432	469.5
752.617	494.07
752.801	449.02
752.985	416.25
753.17	346.62
753.354	459.26
753.538	350.71
753.722	272.89
753.907	289.28
754.091	315.9
754.275	391.67
754.459	262.65
754.643	285.18
754.828	389.63
755.012	305.66
755.196	213.5
755.38	397.82
755.564	342.52
755.748	416.25
755.932	309.76
756.116	358.91
756.3	334.33
756.484	317.95
756.668	322.04
756.852	242.17
757.036	317.95
757.22	281.08
757.404	266.75
757.588	299.52
757.772	315.9
757.956	254.46
758.14	457.21
758.323	293.37
758.507	322.04
758.691	211.45
758.875	334.33
759.059	397.82
759.242	229.88
759.426	289.28
759.61	365.05
759.794	256.51
759.977	338.43
760.161	524.79
760.345	344.57
760.528	408.06
760.712	274.94
760.895	238.08
761.079	285.18
761.263	256.51
761.446	152.06
761.63	182.78
761.813	301.56
761.997	219.64
762.18	223.74
762.364	242.17
762.547	145.92
762.731	219.64
762.914	252.41
763.098	276.99
763.281	197.12
763.464	186.88
763.648	311.8
763.831	221.69
764.015	195.07
764.198	352.76
764.381	231.93
764.564	227.84
764.748	225.79
764.931	164.35
765.114	184.83
765.297	272.89
765.481	133.63
765.664	236.03
765.847	215.55
766.03	358.91
766.213	213.5
766.397	213.5
766.58	98.81
766.763	276.99
766.946	195.07
767.129	121.34
767.312	195.07
767.495	246.27
767.678	176.64
767.861	186.88
768.044	231.93
768.227	197.12
768.41	154.11
768.593	195.07
768.776	264.7
768.959	158.21
769.142	233.98
769.324	160.25
769.507	195.07
769.69	164.35
769.873	131.58
770.056	315.9
770.239	150.01
770.421	315.9
770.604	281.08
770.787	152.06
770.97	252.41
771.152	102.91
771.335	260.6
771.518	164.35
771.7	238.08
771.883	379.39
772.066	141.82
772.248	233.98
772.431	295.42
772.613	238.08
772.796	182.78
772.978	178.69
773.161	276.99
773.343	190.97
773.526	84.48
773.708	82.43
773.891	51.71
774.073	147.97
774.256	74.24
774.438	289.28
774.621	135.68
774.803	137.73
774.985	107.01
775.168	205.31
775.35	86.53
775.532	272.89
775.715	70.14
775.897	207.36
776.079	88.57
776.261	141.82
776.444	180.73
776.626	98.81
776.808	53.76
776.99	-3.58
777.173	90.62
777.355	107.01
777.537	174.59
777.719	139.77
777.901	125.44
778.083	49.66
778.265	109.05
778.447	141.82
778.629	80.38
778.811	113.15
778.993	141.82
779.175	201.21
779.357	145.92
779.539	72.19
779.721	145.92
779.903	199.16
780.085	66.05
780.267	162.3
780.449	100.86
780.631	156.16
780.812	188.93
780.994	119.29
781.176	98.81
781.358	43.52
781.54	162.3
781.721	227.84
781.903	137.73
782.085	55.81
782.267	184.83
782.448	-17.92
782.63	133.63
782.812	82.43
782.993	154.11
783.175	215.55
783.357	78.33
783.538	147.97
783.72	104.96
783.901	193.02
784.083	111.1
784.264	113.15
784.446	27.14
784.627	23.04
784.809	141.82
784.99	51.71
785.172	59.9
785.353	76.29
785.535	158.21
785.716	6.66
785.897	-22.02
786.079	98.81
786.26	117.25
786.441	162.3
786.623	10.75
786.804	57.86
786.985	53.76
787.167	162.3
787.348	94.72
787.529	98.81
787.71	158.21
787.891	145.92
788.073	18.94
788.254	33.28
788.435	223.74
788.616	127.49
788.797	-103.93
788.978	55.81
789.159	86.53
789.34	193.02
789.522	129.53
789.703	43.52
789.884	139.77
790.065	221.69
790.246	190.97
790.427	55.81
790.607	178.69
790.788	164.35
790.969	41.47
791.15	70.14
791.331	76.29
791.512	49.66
791.693	47.62
791.874	-9.73
792.054	215.55
792.235	137.73
792.416	10.75
792.597	43.52
792.778	195.07
792.958	113.15
793.139	166.4
793.32	53.76
793.5	10.75
793.681	154.11
793.862	94.72
794.042	33.28
794.223	-17.92
794.404	49.66
794.584	4.61
794.765	33.28
794.945	61.95
795.126	68.09
795.306	119.29
795.487	117.25
795.667	72.19
795.848	94.72
796.028	33.28
796.209	68.09
796.389	53.76
796.57	43.52
796.75	12.8
796.93	66.05
797.111	37.38
797.291	-30.21
797.471	64
797.652	-11.78
797.832	2.56
798.012	127.49
798.192	8.7
798.373	-11.78
798.553	113.15
798.733	109.05
798.913	43.52
799.093	-34.3
799.274	121.34
799.454	180.73
799.634	143.87
799.814	37.38
799.994	55.81
800.174	55.81
800.354	31.23
800.534	-83.45
800.714	123.39
800.894	10.75
801.074	-30.21
801.254	-11.78
801.434	78.33
801.614	80.38
801.794	-54.78
801.974	1763.81
802.154	12.8
802.334	109.05
802.514	-62.98
802.693	25.09
802.873	-32.26
803.053	203.26
803.233	121.34
803.413	16.9
803.592	39.42
803.772	57.86
803.952	137.73
804.131	20.99
804.311	92.67
804.491	174.59
804.67	-40.45
804.85	-48.64
805.03	96.77
805.209	168.45
805.389	47.62
805.568	0.51
805.748	-26.11
805.928	76.29
806.107	164.35
806.287	29.18
806.466	47.62
806.646	86.53
806.825	78.33
807.004	29.18
807.184	102.91
807.363	80.38
807.543	113.15
807.722	-52.74
807.901	166.4
808.081	82.43
808.26	-26.11
808.439	102.91
808.619	121.34
808.798	-28.16
808.977	51.71
809.156	70.14
809.336	90.62
809.515	92.67
809.694	-26.11
809.873	72.19
810.052	100.86
810.231	143.87
810.411	84.48
810.59	59.9
810.769	27.14
810.948	96.77
811.127	-24.06
811.306	4.61
811.485	14.85
811.664	147.97
811.843	59.9
812.022	102.91
812.201	-28.16
812.38	2.56
812.559	4.61
812.737	135.68
812.916	6.66
813.095	12.8
813.274	2.56
813.453	8.7
813.632	84.48
813.811	127.49
813.989	-60.93
814.168	23.04
814.347	-19.97
814.526	8.7
814.704	121.34
814.883	125.44
815.062	18.94
815.24	96.77
815.419	41.47
815.598	96.77
815.776	-62.98
815.955	53.76
816.133	-73.21
816.312	107.01
816.49	-13.82
816.669	16.9
816.847	10.75
817.026	80.38
817.204	66.05
817.383	125.44
817.561	27.14
817.74	168.45
817.918	41.47
818.097	18.94
818.275	0.51
818.453	39.42
818.632	16.9
818.81	33.28
818.988	-11.78
819.167	35.33
819.345	41.47
819.523	20.99
819.701	86.53
819.879	68.09
820.058	66.05
820.236	41.47
820.414	31.23
820.592	47.62
820.77	35.33
820.948	6.66
821.127	20.99
821.305	57.86
821.483	-3.58
821.661	137.73
821.839	29.18
822.017	61.95
822.195	25.09
822.373	127.49
822.551	4.61
822.729	53.76
822.907	59.9
823.085	115.2
823.262	45.57
823.44	-36.35
823.618	29.18
823.796	68.09
823.974	2.56
824.152	39.42
824.329	33.28
824.507	57.86
824.685	111.1
824.863	117.25
825.04	-9.73
825.218	129.53
825.396	2.56
825.574	98.81
825.751	-9.73
825.929	84.48
826.107	-9.73
826.284	25.09
826.462	117.25
826.639	4.61
826.817	0.51
826.994	18.94
827.172	-44.54
827.349	205.31
827.527	51.71
827.704	64
827.882	109.05
828.059	14.85
828.237	-5.63
828.414	45.57
828.591	-42.5
828.769	-38.4
828.946	27.14
829.124	100.86
829.301	164.35
829.478	-13.82
829.655	49.66
829.833	33.28
830.01	-69.12
830.187	78.33
830.364	111.1
830.542	94.72
830.719	115.2
830.896	74.24
831.073	57.86
831.25	88.57
831.427	84.48
831.604	35.33
831.782	33.28
831.959	80.38
832.136	14.85
832.313	59.9
832.49	80.38
832.667	31.23
832.844	14.85
833.021	141.82
833.198	74.24
833.374	0.51
833.551	66.05
833.728	41.47
833.905	156.16
834.082	-11.78
834.259	55.81
834.436	162.3
834.612	-40.45
834.789	43.52
834.966	84.48
835.143	47.62
835.319	-26.11
835.496	178.69
835.673	66.05
835.85	74.24
836.026	102.91
836.203	137.73
836.38	10.75
836.556	-11.78
836.733	14.85
836.909	193.02
837.086	-5.63
837.262	-146.94
837.439	92.67
837.616	-5.63
837.792	16.9
837.968	100.86
838.145	-58.88
838.321	66.05
838.498	25.09
838.674	68.09
838.851	125.44
839.027	-5.63
839.203	59.9
839.38	37.38
839.556	68.09
839.732	143.87
839.909	98.81
840.085	72.19
840.261	0.51
840.437	51.71
840.614	18.94
840.79	37.38
840.966	98.81
841.142	-11.78
841.318	37.38
841.494	37.38
841.671	61.95
841.847	4.61
842.023	20.99
842.199	47.62
842.375	115.2
842.551	-65.02
842.727	-48.64
842.903	154.11
843.079	-67.07
843.255	184.83
843.431	12.8
843.607	-9.73
843.783	-85.5
843.959	55.81
844.134	-24.06
844.31	172.54
844.486	-42.5
844.662	-13.82
844.838	-46.59
845.013	86.53
845.189	133.63
845.365	49.66
845.541	84.48
845.716	0.51
845.892	135.68
846.068	-1.54
846.244	29.18
846.419	145.92
846.595	4.61
846.77	-9.73
846.946	152.06
847.122	41.47
847.297	6.66
847.473	150.01
847.648	4.61
847.824	31.23
847.999	-136.7
848.175	-50.69
848.35	49.66
848.526	31.23
848.701	125.44
848.876	72.19
849.052	90.62
849.227	43.52
849.403	45.57
849.578	57.86
849.753	12.8
849.929	49.66
850.104	-22.02
850.279	72.19
850.454	98.81
850.63	113.15
850.805	29.18
850.98	-62.98
851.155	78.33
851.33	-28.16
851.505	-65.02
851.681	160.25
851.856	6.66
852.031	90.62
852.206	37.38
852.381	-24.06
852.556	18.94
852.731	70.14
852.906	84.48
853.081	96.77
853.256	66.05
853.431	-85.5
853.606	20.99
853.781	-22.02
853.956	-67.07
854.131	-30.21
854.305	-42.5
854.48	49.66
854.655	61.95
854.83	6.66
855.005	0.51
855.18	94.72
855.354	-19.97
855.529	64
855.704	-38.4
855.879	64
856.053	-67.07
856.228	80.38
856.403	-38.4
856.577	55.81
856.752	-17.92
856.926	39.42
857.101	78.33
857.276	-62.98
857.45	68.09
857.625	74.24
857.799	4.61
857.974	-7.68
858.148	-40.45
858.323	37.38
858.497	14.85
858.672	45.57
858.846	6.66
859.02	35.33
859.195	-58.88
859.369	-95.74
859.543	80.38
859.718	45.57
859.892	57.86
860.066	4.61
860.241	-36.35
860.415	23.04
860.589	2.56
860.763	-26.11
860.938	49.66
861.112	107.01
861.286	16.9
861.46	-26.11
861.634	43.52
861.808	104.96
861.982	-34.3
862.157	-36.35
862.331	-52.74
862.505	-69.12
862.679	27.14
862.853	12.8
863.027	-13.82
863.201	117.25
863.375	66.05
863.549	139.77
863.722	-32.26
863.896	141.82
864.07	10.75
864.244	-42.5
864.418	29.18
864.592	47.62
864.766	51.71
864.939	84.48
865.113	80.38
865.287	92.67
865.461	-40.45
865.634	76.29
865.808	27.14
865.982	-56.83
866.156	76.29
866.329	-40.45
866.503	43.52
866.676	31.23
866.85	115.2
867.024	-32.26
867.197	158.21
867.371	64
867.544	51.71
867.718	-75.26
867.891	90.62
868.065	27.14
868.238	51.71
868.412	104.96
868.585	100.86
868.759	49.66
868.932	12.8
869.105	-93.69
869.279	14.85
869.452	-42.5
869.625	47.62
869.799	51.71
869.972	-122.37
870.145	53.76
870.319	115.2
870.492	-44.54
870.665	18.94
870.838	-7.68
871.011	-91.65
871.185	-9.73
871.358	-97.79
871.531	37.38
871.704	37.38
871.877	68.09
872.05	-42.5
872.223	-75.26
872.396	76.29
872.569	121.34
872.742	-54.78
872.915	33.28
873.088	45.57
873.261	-54.78
873.434	43.52
873.607	53.76
873.78	119.29
873.953	-73.21
874.126	-1.54
874.299	72.19
874.471	-5.63
874.644	47.62
874.817	109.05
874.99	207.36
875.163	-11.78
875.335	61.95
875.508	-28.16
875.681	150.01
875.853	4.61
876.026	20.99
876.199	47.62
876.371	49.66
876.544	29.18
876.717	47.62
876.889	-26.11
877.062	8.7
877.234	-71.17
877.407	-32.26
877.579	25.09
877.752	76.29
877.924	94.72
878.097	100.86
878.269	88.57
878.442	-9.73
878.614	92.67
878.786	0.51
878.959	-15.87
879.131	61.95
879.303	-87.55
879.476	-62.98
879.648	107.01
879.82	74.24
879.993	-46.59
880.165	-26.11
880.337	-9.73
880.509	45.57
880.681	-71.17
880.854	31.23
881.026	66.05
881.198	135.68
881.37	61.95
881.542	35.33
881.714	-22.02
881.886	-9.73
882.058	29.18
882.23	45.57
882.402	45.57
882.574	92.67
882.746	66.05
882.918	115.2
883.09	125.44
883.262	20.99
883.434	70.14
883.606	-103.93
883.778	12.8
883.95	107.01
884.122	20.99
884.293	96.77
884.465	18.94
884.637	178.69
884.809	-9.73
884.98	94.72
885.152	6.66
885.324	41.47
885.496	41.47
885.667	18.94
885.839	14.85
886.011	88.57
886.182	57.86
886.354	41.47
886.525	25.09
886.697	39.42
886.869	-24.06
887.04	39.42
887.212	131.58
887.383	152.06
887.555	68.09
887.726	16.9
887.897	37.38
888.069	25.09
888.24	129.53
888.412	31.23
888.583	39.42
888.754	4.61
888.926	-146.94
889.097	-30.21
889.268	-85.5
889.44	-7.68
889.611	-36.35
889.782	-13.82
889.953	-48.64
890.125	168.45
890.296	-30.21
890.467	18.94
890.638	0.51
890.809	102.91
890.98	45.57
891.151	4.61
891.323	64
891.494	23.04
891.665	66.05
891.836	20.99
892.007	107.01
892.178	4.61
892.349	-9.73
892.52	-17.92
892.691	-7.68
892.862	-30.21
893.032	-40.45
893.203	-3.58
893.374	82.43
893.545	100.86
893.716	-28.16
893.887	66.05
894.057	-42.5
894.228	16.9
894.399	-19.97
894.57	166.4
894.74	-13.82
894.911	27.14
895.082	14.85
895.253	-26.11
895.423	59.9
895.594	86.53
895.764	49.66
895.935	-34.3
896.106	72.19
896.276	-19.97
896.447	64
896.617	-56.83
896.788	-11.78
896.958	-42.5
897.129	29.18
897.299	-52.74
897.47	143.87
897.64	125.44
897.81	47.62
897.981	78.33
898.151	-34.3
898.322	20.99
898.492	59.9
898.662	-34.3
898.832	-17.92
899.003	20.99
899.173	102.91
899.343	-62.98
899.513	-91.65
