Data from USB4F104151__177__11-05-02-934.txt Node

Date: Wed Feb 26 11:05:02 EST 2025
User: louis
Spectrometer: USB4F10415
Trigger mode: 4
Integration Time (sec): 1.000000E-1
Scans to average: 1
Electric dark correction enabled: true
Nonlinearity correction enabled: false
Boxcar width: 0
XAxis mode: Wavelengths
Number of Pixels in Spectrum: 3648
>>>>>Begin Spectral Data<<<<<
178.204	-397.82
178.424	-397.82
178.644	-397.82
178.864	-442.87
179.084	-369.15
179.304	44.54
179.524	13.82
179.744	56.83
179.964	-2.56
180.184	-49.66
180.404	19.97
180.624	-37.38
180.844	-43.52
181.064	-29.18
181.283	32.26
181.503	-45.57
181.723	40.45
181.943	-68.09
182.163	202.24
182.383	-16.9
182.602	22.02
182.822	144.89
183.042	105.98
183.262	-39.42
183.482	-39.42
183.701	60.93
183.921	85.5
184.141	34.3
184.361	87.55
184.58	75.26
184.8	38.4
185.02	-31.23
185.239	60.93
185.459	126.46
185.679	153.09
185.898	-96.77
186.118	-2.56
186.338	87.55
186.557	60.93
186.777	-127.49
186.997	-0.51
187.216	-59.9
187.436	216.57
187.655	75.26
187.875	130.56
188.095	60.93
188.314	181.76
188.534	97.79
188.753	-49.66
188.973	202.24
189.192	194.05
189.412	38.4
189.631	36.35
189.851	161.28
190.07	187.9
190.29	-10.75
190.509	17.92
190.729	62.98
190.948	157.18
191.168	237.05
191.387	130.56
191.607	-25.09
191.826	83.45
192.045	15.87
192.265	5.63
192.484	60.93
192.704	46.59
192.923	-66.05
193.142	124.41
193.362	153.09
193.581	155.13
193.8	110.08
194.02	120.32
194.239	122.37
194.458	87.55
194.678	81.41
194.897	24.06
195.116	91.65
195.335	7.68
195.555	24.06
195.774	-14.85
195.993	120.32
196.212	3.58
196.432	-8.7
196.651	7.68
196.87	62.98
197.089	245.24
197.308	79.36
197.528	122.37
197.747	-45.57
197.966	75.26
198.185	212.48
198.404	-16.9
198.623	69.12
198.842	144.89
199.062	95.74
199.281	167.42
199.5	36.35
199.719	189.95
199.938	120.32
200.157	105.98
200.376	87.55
200.595	126.46
200.814	105.98
201.033	62.98
201.252	140.8
201.471	5.63
201.69	73.21
201.909	-14.85
202.128	65.02
202.347	136.7
202.566	11.78
202.785	-66.05
203.004	9.73
203.223	232.96
203.442	73.21
203.661	-8.7
203.879	132.61
204.098	132.61
204.317	46.59
204.536	126.46
204.755	165.37
204.974	95.74
205.193	-88.57
205.411	134.65
205.63	169.47
205.849	75.26
206.068	-8.7
206.287	1.54
206.505	183.81
206.724	-8.7
206.943	67.07
207.162	-70.14
207.381	89.6
207.599	65.02
207.818	85.5
208.037	-53.76
208.255	17.92
208.474	62.98
208.693	122.37
208.911	48.64
209.13	108.03
209.349	97.79
209.567	60.93
209.786	108.03
210.005	138.75
210.223	42.5
210.442	-33.28
210.661	54.78
210.879	52.74
211.098	-2.56
211.316	87.55
211.535	67.07
211.753	48.64
211.972	69.12
212.191	-18.94
212.409	3.58
212.628	52.74
212.846	-27.14
213.065	120.32
213.283	157.18
213.502	71.17
213.72	-16.9
213.938	108.03
214.157	19.97
214.375	85.5
214.594	-16.9
214.812	118.27
215.031	62.98
215.249	-61.95
215.467	159.23
215.686	36.35
215.904	93.69
216.122	36.35
216.341	144.89
216.559	75.26
216.778	118.27
216.996	89.6
217.214	105.98
217.432	77.31
217.651	-68.09
217.869	34.3
218.087	48.64
218.306	62.98
218.524	91.65
218.742	28.16
218.96	159.23
219.179	42.5
219.397	15.87
219.615	132.61
219.833	114.17
220.051	19.97
220.27	69.12
220.488	130.56
220.706	36.35
220.924	19.97
221.142	17.92
221.36	36.35
221.578	97.79
221.796	-4.61
222.015	3.58
222.233	19.97
222.451	136.7
222.669	-70.14
222.887	65.02
223.105	30.21
223.323	28.16
223.541	5.63
223.759	42.5
223.977	48.64
224.195	181.76
224.413	50.69
224.631	79.36
224.849	58.88
225.067	189.95
225.285	65.02
225.503	5.63
225.721	-68.09
225.939	89.6
226.157	97.79
226.375	206.33
226.592	-57.86
226.81	89.6
227.028	99.84
227.246	122.37
227.464	38.4
227.682	112.13
227.9	56.83
228.117	73.21
228.335	69.12
228.553	103.93
228.771	40.45
228.989	110.08
229.206	48.64
229.424	9.73
229.642	34.3
229.86	-8.7
230.077	171.52
230.295	95.74
230.513	24.06
230.731	99.84
230.948	101.89
231.166	146.94
231.384	-61.95
231.601	-4.61
231.819	163.33
232.037	-20.99
232.254	-117.25
232.472	83.45
232.689	1.54
232.907	67.07
233.125	73.21
233.342	-20.99
233.56	56.83
233.777	36.35
233.995	7.68
234.213	144.89
234.43	144.89
234.648	83.45
234.865	-55.81
235.083	5.63
235.3	15.87
235.518	38.4
235.735	91.65
235.953	46.59
236.17	87.55
236.388	50.69
236.605	67.07
236.822	65.02
237.04	118.27
237.257	108.03
237.475	-45.57
237.692	5.63
237.909	50.69
238.127	22.02
238.344	108.03
238.562	71.17
238.779	13.82
238.996	-10.75
239.214	52.74
239.431	91.65
239.648	7.68
239.865	73.21
240.083	52.74
240.3	54.78
240.517	-41.47
240.735	138.75
240.952	110.08
241.169	81.41
241.386	54.78
241.603	24.06
241.821	-43.52
242.038	30.21
242.255	85.5
242.472	-64
242.689	36.35
242.907	120.32
243.124	93.69
243.341	13.82
243.558	28.16
243.775	7.68
243.992	-20.99
244.209	167.42
244.426	192
244.643	118.27
244.86	7.68
245.078	62.98
245.295	130.56
245.512	44.54
245.729	-2.56
245.946	114.17
246.163	22.02
246.38	7.68
246.597	79.36
246.814	26.11
247.031	11.78
247.248	52.74
247.464	48.64
247.681	62.98
247.898	22.02
248.115	22.02
248.332	-39.42
248.549	202.24
248.766	132.61
248.983	40.45
249.2	165.37
249.417	138.75
249.633	-0.51
249.85	32.26
250.067	22.02
250.284	85.5
250.501	134.65
250.717	146.94
250.934	-82.43
251.151	77.31
251.368	-39.42
251.585	44.54
251.801	67.07
252.018	-25.09
252.235	101.89
252.451	-0.51
252.668	32.26
252.885	112.13
253.102	105.98
253.318	11.78
253.535	-0.51
253.752	22.02
253.968	30.21
254.185	3.58
254.401	40.45
254.618	105.98
254.835	-6.66
255.051	77.31
255.268	126.46
255.484	7.68
255.701	1.54
255.917	112.13
256.134	79.36
256.351	122.37
256.567	-41.47
256.784	93.69
257	-96.77
257.217	136.7
257.433	157.18
257.65	-55.81
257.866	185.85
258.082	-12.8
258.299	-131.58
258.515	83.45
258.732	26.11
258.948	-39.42
259.165	62.98
259.381	-35.33
259.597	60.93
259.814	11.78
260.03	44.54
260.246	-14.85
260.463	130.56
260.679	93.69
260.895	79.36
261.112	95.74
261.328	-43.52
261.544	-27.14
261.761	114.17
261.977	58.88
262.193	-6.66
262.409	142.85
262.626	11.78
262.842	-31.23
263.058	-45.57
263.274	128.51
263.49	128.51
263.707	91.65
263.923	-27.14
264.139	-61.95
264.355	22.02
264.571	48.64
264.787	79.36
265.004	200.19
265.22	36.35
265.436	-31.23
265.652	-37.38
265.868	36.35
266.084	-57.86
266.3	9.73
266.516	40.45
266.732	54.78
266.948	71.17
267.164	13.82
267.38	146.94
267.596	99.84
267.812	163.33
268.028	87.55
268.244	97.79
268.46	52.74
268.676	-0.51
268.892	134.65
269.108	-49.66
269.324	7.68
269.54	5.63
269.756	75.26
269.972	42.5
270.188	81.41
270.403	34.3
270.619	77.31
270.835	128.51
271.051	101.89
271.267	9.73
271.483	-27.14
271.698	196.09
271.914	83.45
272.13	101.89
272.346	46.59
272.562	126.46
272.777	144.89
272.993	40.45
273.209	-57.86
273.425	87.55
273.64	-68.09
273.856	83.45
274.072	-29.18
274.287	62.98
274.503	65.02
274.719	99.84
274.934	40.45
275.15	-29.18
275.366	91.65
275.581	-2.56
275.797	99.84
276.012	67.07
276.228	-41.47
276.444	38.4
276.659	126.46
276.875	-2.56
277.09	38.4
277.306	-18.94
277.521	89.6
277.737	93.69
277.952	120.32
278.168	34.3
278.383	50.69
278.599	44.54
278.814	44.54
279.03	38.4
279.245	189.95
279.461	5.63
279.676	99.84
279.892	-10.75
280.107	-27.14
280.322	-47.62
280.538	97.79
280.753	-33.28
280.969	58.88
281.184	105.98
281.399	216.57
281.615	54.78
281.83	52.74
282.045	-23.04
282.26	-16.9
282.476	-6.66
282.691	60.93
282.906	62.98
283.122	-8.7
283.337	46.59
283.552	122.37
283.767	62.98
283.983	93.69
284.198	38.4
284.413	91.65
284.628	-59.9
284.843	26.11
285.058	95.74
285.274	9.73
285.489	-6.66
285.704	54.78
285.919	67.07
286.134	22.02
286.349	81.41
286.564	-49.66
286.779	124.41
286.995	77.31
287.21	-37.38
287.425	67.07
287.64	-12.8
287.855	65.02
288.07	-80.38
288.285	157.18
288.5	159.23
288.715	95.74
288.93	44.54
289.145	-18.94
289.36	91.65
289.575	24.06
289.79	169.47
290.004	-8.7
290.219	140.8
290.434	-8.7
290.649	-57.86
290.864	-49.66
291.079	-12.8
291.294	22.02
291.509	75.26
291.724	67.07
291.938	-29.18
292.153	110.08
292.368	1.54
292.583	40.45
292.798	124.41
293.012	34.3
293.227	11.78
293.442	15.87
293.657	67.07
293.871	196.09
294.086	142.85
294.301	153.09
294.516	83.45
294.73	24.06
294.945	-35.33
295.16	24.06
295.374	165.37
295.589	81.41
295.804	-6.66
296.018	13.82
296.233	116.22
296.447	118.27
296.662	-6.66
296.877	101.89
297.091	144.89
297.306	62.98
297.52	89.6
297.735	120.32
297.949	1.54
298.164	58.88
298.378	50.69
298.593	-2.56
298.807	19.97
299.022	58.88
299.236	136.7
299.451	65.02
299.665	114.17
299.88	42.5
300.094	83.45
300.309	1.54
300.523	144.89
300.737	69.12
300.952	151.04
301.166	81.41
301.381	71.17
301.595	7.68
301.809	3.58
302.024	24.06
302.238	-41.47
302.452	128.51
302.667	79.36
302.881	204.28
303.095	87.55
303.309	132.61
303.524	-29.18
303.738	28.16
303.952	-51.71
304.166	46.59
304.381	-111.1
304.595	165.37
304.809	-72.19
305.023	-2.56
305.237	32.26
305.452	5.63
305.666	83.45
305.88	50.69
306.094	9.73
306.308	67.07
306.522	151.04
306.736	48.64
306.95	93.69
307.164	93.69
307.379	-49.66
307.593	247.29
307.807	132.61
308.021	58.88
308.235	99.84
308.449	-12.8
308.663	71.17
308.877	286.2
309.091	48.64
309.305	56.83
309.519	-150.01
309.733	112.13
309.947	-29.18
310.161	89.6
310.374	126.46
310.588	173.57
310.802	-20.99
311.016	58.88
311.23	105.98
311.444	44.54
311.658	1.54
311.872	48.64
312.085	110.08
312.299	124.41
312.513	118.27
312.727	103.93
312.941	1.54
313.154	62.98
313.368	32.26
313.582	-29.18
313.796	50.69
314.009	-29.18
314.223	216.57
314.437	151.04
314.651	122.37
314.864	-20.99
315.078	30.21
315.292	40.45
315.505	22.02
315.719	-10.75
315.933	95.74
316.146	32.26
316.36	26.11
316.573	124.41
316.787	83.45
317.001	77.31
317.214	9.73
317.428	77.31
317.641	-72.19
317.855	-43.52
318.068	67.07
318.282	1.54
318.495	159.23
318.709	155.13
318.922	71.17
319.136	163.33
319.349	120.32
319.563	-27.14
319.776	189.95
319.99	-33.28
320.203	93.69
320.417	38.4
320.63	62.98
320.843	167.42
321.057	151.04
321.27	13.82
321.483	44.54
321.697	179.71
321.91	46.59
322.124	89.6
322.337	110.08
322.55	-25.09
322.763	99.84
322.977	-27.14
323.19	-33.28
323.403	91.65
323.617	22.02
323.83	126.46
324.043	-6.66
324.256	124.41
324.469	-8.7
324.683	52.74
324.896	99.84
325.109	58.88
325.322	-113.15
325.535	208.38
325.748	112.13
325.962	11.78
326.175	-20.99
326.388	32.26
326.601	230.91
326.814	71.17
327.027	85.5
327.24	138.75
327.453	-90.62
327.666	50.69
327.879	155.13
328.092	122.37
328.305	60.93
328.518	65.02
328.731	-61.95
328.944	28.16
329.157	11.78
329.37	-39.42
329.583	198.14
329.796	122.37
330.009	-61.95
330.222	99.84
330.435	97.79
330.648	112.13
330.861	9.73
331.073	30.21
331.286	110.08
331.499	108.03
331.712	48.64
331.925	40.45
332.138	40.45
332.35	120.32
332.563	-18.94
332.776	75.26
332.989	9.73
333.202	7.68
333.414	77.31
333.627	75.26
333.84	40.45
334.053	-0.51
334.265	40.45
334.478	-18.94
334.691	89.6
334.903	87.55
335.116	54.78
335.329	73.21
335.541	114.17
335.754	142.85
335.966	28.16
336.179	11.78
336.392	-16.9
336.604	46.59
336.817	97.79
337.029	167.42
337.242	22.02
337.454	112.13
337.667	54.78
337.88	204.28
338.092	44.54
338.305	159.23
338.517	24.06
338.729	67.07
338.942	153.09
339.154	-37.38
339.367	-51.71
339.579	97.79
339.792	-74.24
340.004	120.32
340.217	17.92
340.429	38.4
340.641	15.87
340.854	-39.42
341.066	-55.81
341.278	163.33
341.491	185.85
341.703	-0.51
341.915	-12.8
342.128	89.6
342.34	52.74
342.552	34.3
342.764	-2.56
342.977	7.68
343.189	54.78
343.401	-0.51
343.613	-72.19
343.826	105.98
344.038	-68.09
344.25	-25.09
344.462	24.06
344.674	77.31
344.886	15.87
345.099	97.79
345.311	103.93
345.523	36.35
345.735	-43.52
345.947	93.69
346.159	83.45
346.371	62.98
346.583	87.55
346.795	282.11
347.007	28.16
347.219	56.83
347.431	62.98
347.643	120.32
347.855	15.87
348.067	216.57
348.279	13.82
348.491	-29.18
348.703	146.94
348.915	-43.52
349.127	11.78
349.339	54.78
349.551	46.59
349.763	124.41
349.975	56.83
350.187	108.03
350.399	206.33
350.61	89.6
350.822	-10.75
351.034	-25.09
351.246	136.7
351.458	118.27
351.669	134.65
351.881	13.82
352.093	126.46
352.305	148.99
352.517	19.97
352.728	108.03
352.94	114.17
353.152	103.93
353.363	-14.85
353.575	97.79
353.787	138.75
353.999	91.65
354.21	177.66
354.422	-0.51
354.633	34.3
354.845	-0.51
355.057	65.02
355.268	89.6
355.48	122.37
355.692	13.82
355.903	60.93
356.115	26.11
356.326	-133.63
356.538	235
356.749	97.79
356.961	226.81
357.172	48.64
357.384	5.63
357.595	220.67
357.807	91.65
358.018	36.35
358.23	-4.61
358.441	167.42
358.653	122.37
358.864	28.16
359.075	-18.94
359.287	19.97
359.498	95.74
359.709	122.37
359.921	-6.66
360.132	13.82
360.344	99.84
360.555	3.58
360.766	95.74
360.977	40.45
361.189	58.88
361.4	-18.94
361.611	128.51
361.823	114.17
362.034	159.23
362.245	-43.52
362.456	69.12
362.667	169.47
362.879	36.35
363.09	46.59
363.301	99.84
363.512	93.69
363.723	-8.7
363.935	11.78
364.146	89.6
364.357	-6.66
364.568	56.83
364.779	-47.62
364.99	183.81
365.201	-12.8
365.412	187.9
365.623	-29.18
365.834	-4.61
366.045	-31.23
366.256	132.61
366.467	85.5
366.678	75.26
366.889	128.51
367.1	-14.85
367.311	128.51
367.522	-14.85
367.733	95.74
367.944	36.35
368.155	56.83
368.366	42.5
368.577	118.27
368.788	126.46
368.999	28.16
369.209	93.69
369.42	163.33
369.631	220.67
369.842	165.37
370.053	42.5
370.264	103.93
370.474	7.68
370.685	73.21
370.896	17.92
371.107	196.09
371.317	116.22
371.528	-10.75
371.739	97.79
371.95	67.07
372.16	128.51
372.371	-43.52
372.582	-23.04
372.792	26.11
373.003	46.59
373.214	87.55
373.424	46.59
373.635	3.58
373.846	189.95
374.056	22.02
374.267	73.21
374.477	120.32
374.688	7.68
374.898	69.12
375.109	81.41
375.319	60.93
375.53	153.09
375.74	85.5
375.951	15.87
376.161	67.07
376.372	155.13
376.582	60.93
376.793	130.56
377.003	-23.04
377.214	-27.14
377.424	60.93
377.635	89.6
377.845	11.78
378.055	7.68
378.266	-31.23
378.476	69.12
378.686	110.08
378.897	24.06
379.107	97.79
379.317	52.74
379.528	-53.76
379.738	136.7
379.948	-80.38
380.158	163.33
380.369	42.5
380.579	114.17
380.789	79.36
380.999	128.51
381.21	128.51
381.42	247.29
381.63	93.69
381.84	65.02
382.05	60.93
382.261	177.66
382.471	89.6
382.681	44.54
382.891	163.33
383.101	42.5
383.311	-55.81
383.521	19.97
383.731	30.21
383.941	230.91
384.151	3.58
384.361	28.16
384.571	83.45
384.781	65.02
384.991	167.42
385.201	161.28
385.411	161.28
385.621	34.3
385.831	-39.42
386.041	108.03
386.251	144.89
386.461	118.27
386.671	122.37
386.881	30.21
387.091	62.98
387.301	24.06
387.511	22.02
387.72	101.89
387.93	128.51
388.14	-47.62
388.35	48.64
388.56	99.84
388.769	126.46
388.979	15.87
389.189	5.63
389.399	69.12
389.609	52.74
389.818	108.03
390.028	-25.09
390.238	108.03
390.447	-16.9
390.657	95.74
390.867	50.69
391.076	-94.72
391.286	155.13
391.496	73.21
391.705	101.89
391.915	136.7
392.125	142.85
392.334	60.93
392.544	148.99
392.753	95.74
392.963	7.68
393.172	3.58
393.382	-57.86
393.591	206.33
393.801	54.78
394.01	85.5
394.22	110.08
394.429	52.74
394.639	-10.75
394.848	93.69
395.058	65.02
395.267	75.26
395.477	167.42
395.686	60.93
395.895	232.96
396.105	230.91
396.314	85.5
396.524	9.73
396.733	24.06
396.942	132.61
397.152	134.65
397.361	122.37
397.57	97.79
397.78	56.83
397.989	95.74
398.198	208.38
398.407	58.88
398.617	24.06
398.826	114.17
399.035	54.78
399.244	155.13
399.453	93.69
399.663	42.5
399.872	58.88
400.081	-12.8
400.29	146.94
400.499	7.68
400.708	89.6
400.917	85.5
401.127	69.12
401.336	19.97
401.545	134.65
401.754	87.55
401.963	81.41
402.172	52.74
402.381	-57.86
402.59	19.97
402.799	36.35
403.008	116.22
403.217	65.02
403.426	112.13
403.635	-14.85
403.844	50.69
404.053	62.98
404.262	34.3
404.471	124.41
404.68	56.83
404.888	-37.38
405.097	32.26
405.306	97.79
405.515	142.85
405.724	83.45
405.933	87.55
406.142	9.73
406.35	99.84
406.559	17.92
406.768	108.03
406.977	118.27
407.185	128.51
407.394	89.6
407.603	19.97
407.812	48.64
408.02	108.03
408.229	5.63
408.438	132.61
408.646	-33.28
408.855	28.16
409.064	97.79
409.272	79.36
409.481	134.65
409.69	-47.62
409.898	-4.61
410.107	105.98
410.315	185.85
410.524	65.02
410.733	46.59
410.941	114.17
411.15	200.19
411.358	46.59
411.567	101.89
411.775	122.37
411.984	99.84
412.192	73.21
412.401	38.4
412.609	204.28
412.818	142.85
413.026	118.27
413.234	93.69
413.443	79.36
413.651	-27.14
413.86	36.35
414.068	187.9
414.276	253.44
414.485	130.56
414.693	171.52
414.901	136.7
415.11	87.55
415.318	11.78
415.526	85.5
415.734	73.21
415.943	136.7
416.151	177.66
416.359	50.69
416.567	112.13
416.776	105.98
416.984	171.52
417.192	273.92
417.4	30.21
417.608	15.87
417.817	40.45
418.025	116.22
418.233	148.99
418.441	36.35
418.649	-78.33
418.857	79.36
419.065	181.76
419.273	17.92
419.481	15.87
419.689	7.68
419.897	36.35
420.105	-4.61
420.313	169.47
420.521	95.74
420.729	85.5
420.937	-10.75
421.145	19.97
421.353	105.98
421.561	169.47
421.769	93.69
421.977	48.64
422.185	134.65
422.393	95.74
422.601	91.65
422.809	19.97
423.017	85.5
423.224	146.94
423.432	173.57
423.64	19.97
423.848	83.45
424.056	3.58
424.263	167.42
424.471	54.78
424.679	228.86
424.887	-45.57
425.094	116.22
425.302	122.37
425.51	105.98
425.718	142.85
425.925	91.65
426.133	-41.47
426.341	185.85
426.548	81.41
426.756	75.26
426.964	87.55
427.171	54.78
427.379	65.02
427.586	87.55
427.794	177.66
428.001	101.89
428.209	93.69
428.417	245.24
428.624	118.27
428.832	91.65
429.039	122.37
429.247	112.13
429.454	183.81
429.662	161.28
429.869	99.84
430.076	202.24
430.284	128.51
430.491	284.16
430.699	216.57
430.906	237.05
431.114	181.76
431.321	69.12
431.528	173.57
431.736	237.05
431.943	177.66
432.15	192
432.358	171.52
432.565	282.11
432.772	108.03
432.979	163.33
433.187	79.36
433.394	212.48
433.601	134.65
433.808	200.19
434.016	318.97
434.223	265.72
434.43	148.99
434.637	275.96
434.844	288.25
435.052	269.82
435.259	368.12
435.466	239.1
435.673	185.85
435.88	318.97
436.087	318.97
436.294	331.26
436.501	351.74
436.708	331.26
436.915	370.17
437.122	327.16
437.329	220.67
437.537	419.32
437.743	343.55
437.95	355.83
438.157	368.12
438.364	421.37
438.571	366.07
438.778	450.04
438.985	458.23
439.192	468.47
439.399	415.23
439.606	443.9
439.813	534.01
440.02	523.77
440.227	593.4
440.433	456.19
440.64	572.92
440.847	466.42
441.054	548.34
441.261	701.94
441.467	546.3
441.674	544.25
441.881	744.95
442.088	544.25
442.294	742.9
442.501	738.8
442.708	654.84
442.914	787.96
443.121	794.1
443.328	806.39
443.534	890.35
443.741	863.73
443.948	679.41
444.154	896.5
444.361	990.7
444.568	964.08
444.774	972.27
444.981	923.12
445.187	1179.12
445.394	1160.69
445.6	1068.53
445.807	1359.34
446.013	1238.51
446.22	1162.73
446.426	1263.08
446.633	1416.68
446.839	1560.04
447.046	1435.11
447.252	1486.31
447.459	1506.79
447.665	1517.03
447.871	1684.97
448.078	1760.74
448.284	1813.99
448.491	1953.25
448.697	1955.3
448.903	2049.5
449.11	1998.31
449.316	2137.57
449.522	2190.81
449.728	2401.76
449.935	2432.47
450.141	2412
450.347	2684.38
450.553	2663.9
450.76	2616.79
450.966	2735.57
451.172	2866.64
451.378	2997.71
451.584	3085.78
451.791	3304.91
451.997	3153.36
452.203	3384.78
452.409	3552.71
452.615	3710.41
452.821	3622.34
453.027	3767.75
453.233	4269.5
453.44	4066.75
453.646	4195.78
453.852	4472.25
454.058	4730.3
454.264	4695.48
454.47	5295.54
454.676	5227.95
454.882	5653.93
455.088	5342.64
455.294	5694.89
455.5	5969.32
455.705	6108.58
455.911	6493.6
456.117	6507.93
456.323	6739.35
456.529	6741.4
456.735	7474.57
456.941	7622.03
457.147	7744.91
457.352	8154.5
457.558	8332.67
457.764	8826.23
457.97	8985.97
458.176	9370.99
458.381	9835.88
458.587	10014.06
458.793	10552.67
458.999	10521.95
459.204	11869.51
459.41	12375.36
459.616	11955.53
459.821	12768.57
460.027	13495.6
460.233	13880.62
460.438	14220.58
460.644	15007
460.85	15095.07
461.055	15496.47
461.261	16254.22
461.466	15830.29
461.672	16555.27
461.878	18248.94
462.083	17997.04
462.289	18418.92
462.494	19117.28
462.7	19573.97
462.905	19690.71
463.111	21193.92
463.316	22240.43
463.522	22633.64
463.727	23354.52
463.932	24235.15
464.138	25144.45
464.343	25826.42
464.549	26186.86
464.754	27878.49
464.959	28929.09
465.165	28957.77
465.37	29041.73
465.575	29228.1
465.781	31251.49
465.986	32093.21
466.191	31228.96
466.397	31955.99
466.602	30964.78
466.807	32601.1
467.012	33371.14
467.218	34065.4
467.423	33915.9
467.628	34687.98
467.833	36688.85
468.038	36162.52
468.244	35517.41
468.449	37243.85
468.654	36543.44
468.859	36633.55
469.064	36778.96
469.269	35664.86
469.474	36185.05
469.679	36981.71
469.885	35769.31
470.09	36101.08
470.295	36531.15
470.5	35607.52
470.705	35695.58
470.91	34683.89
471.115	34573.3
471.32	35511.27
471.525	34589.68
471.73	34057.21
471.935	33694.72
472.139	32326.67
472.344	32396.31
472.549	32394.26
472.754	31695.9
472.959	30772.27
473.164	30051.38
473.369	29604.92
473.574	30288.95
473.778	30000.18
473.983	29369.41
474.188	28898.38
474.393	27087.97
474.598	27278.43
474.802	26596.46
475.007	26270.83
475.212	26115.19
475.417	24788.1
475.621	24517.77
475.826	24714.37
476.031	23622.81
476.235	23583.9
476.44	23223.45
476.645	22719.65
476.849	22416.55
477.054	22330.54
477.259	21748.92
477.463	21529.78
477.668	21054.65
477.872	20985.02
478.077	20509.9
478.282	19875.02
478.486	19778.77
478.691	19641.56
478.895	19313.88
479.1	19326.17
479.304	18842.85
479.509	18265.32
479.713	18959.58
479.918	18263.27
480.122	17835.25
480.326	18142.44
480.531	18054.38
480.735	17675.51
480.94	17208.57
481.144	17941.74
481.348	17093.88
481.553	17259.77
481.757	16737.54
481.961	16911.61
482.166	17046.78
482.37	16839.94
482.574	16340.23
482.778	16553.22
482.983	16813.31
483.187	16076.04
483.391	16266.5
483.595	16012.56
483.8	15717.65
484.004	15709.46
484.208	15828.24
484.412	15252.76
484.616	15303.96
484.821	15017.24
485.025	14484.77
485.229	14769.44
485.433	14556.45
485.637	14425.38
485.841	14146.86
486.045	14142.76
486.249	13964.59
486.453	13790.51
486.657	13360.44
486.861	13225.27
487.065	12653.89
487.269	12848.44
487.473	12574.02
487.677	12639.55
487.881	12653.89
488.085	12330.31
488.289	11918.67
488.493	11371.86
488.697	11713.87
488.901	11427.15
489.105	11091.29
489.309	10845.53
489.512	10693.98
489.716	10515.81
489.92	10341.73
490.124	10003.82
490.328	10292.58
490.531	9569.65
490.735	9772.39
490.939	9538.93
491.143	9239.92
491.346	8906.1
491.55	9002.36
491.754	8826.23
491.958	8945.02
492.161	8646.01
492.365	8541.57
492.569	8238.47
492.772	8246.66
492.976	7959.94
493.18	8023.43
493.383	7982.47
493.587	7921.03
493.79	7675.27
493.994	7564.68
494.197	7828.87
494.401	7490.96
494.605	7273.87
494.808	7234.96
495.012	7208.34
495.215	7273.87
495.419	7331.22
495.622	7032.21
495.825	7114.13
496.029	7007.64
496.232	7202.19
496.436	6862.23
496.639	6960.53
496.843	6923.67
497.046	6829.46
497.249	6817.18
497.453	6876.57
497.656	6860.18
497.859	6923.67
498.063	6917.53
498.266	6856.09
498.469	6782.36
498.673	6923.67
498.876	6956.44
499.079	6942.1
499.282	6983.06
499.485	7359.89
499.689	7075.22
499.892	7191.95
500.095	7179.67
500.298	7261.59
500.501	7177.62
500.705	7464.33
500.908	7474.57
501.111	7515.53
501.314	7658.89
501.517	7642.51
501.72	7665.04
501.923	7519.63
502.126	7822.73
502.329	7828.87
502.532	7964.04
502.735	7878.02
502.938	8060.29
503.141	8168.84
503.344	8181.12
503.547	8338.82
503.75	8449.41
503.953	8426.88
504.156	8682.88
504.359	8871.29
504.562	8990.07
504.765	9024.89
504.968	9254.26
505.17	9430.38
505.373	9241.97
505.576	9608.56
505.779	9823.59
505.982	9923.94
506.185	10204.52
506.387	10186.08
506.59	10558.81
506.793	10550.62
506.996	10698.08
507.198	11119.96
507.401	11337.04
507.604	11476.3
507.807	11566.42
508.009	11853.13
508.212	12170.57
508.415	12242.25
508.617	12643.65
508.82	12813.63
509.022	12789.05
509.225	13112.63
509.428	13788.46
509.63	13993.26
509.833	14109.99
510.035	14773.53
510.238	14742.82
510.44	14851.36
510.643	15631.63
510.845	15863.05
511.048	16049.42
511.25	16594.18
511.453	16823.55
511.655	17499.38
511.858	17667.31
512.06	17908.97
512.262	18228.46
512.465	18451.69
512.667	18963.68
512.87	19633.36
513.072	20065.49
513.274	20503.75
513.477	21050.56
513.679	21421.24
513.881	21748.92
514.084	22230.19
514.286	22396.07
514.488	23276.7
514.69	24083.6
514.893	24306.83
515.095	24886.4
515.297	25212.03
515.499	25875.57
515.701	26209.39
515.904	27118.69
516.106	27563.1
516.308	27980.89
516.51	28533.84
516.712	28869.7
516.914	29789.24
517.116	30442.54
517.318	30536.75
517.52	31511.58
517.722	31398.94
517.925	32470.03
518.127	33373.19
518.329	33768.44
518.531	34206.71
518.733	34657.26
518.935	35425.25
519.136	35693.54
519.338	36400.08
519.54	36783.05
519.742	37919.68
519.944	38112.19
520.146	38603.7
520.348	39719.84
520.55	39646.12
520.752	39920.54
520.954	40776.59
521.155	40674.2
521.357	41689.99
521.559	42183.55
521.761	42767.22
521.963	42587
522.164	43256.68
522.366	43668.33
522.568	43766.63
522.77	44594.01
522.971	45044.56
523.173	44899.15
523.375	45386.57
523.576	45687.62
523.778	45544.27
523.98	45798.21
524.181	46445.37
524.383	46121.79
524.584	46570.3
524.786	46476.09
524.988	46359.36
525.189	47096.63
525.391	46865.2
525.592	47026.99
525.794	46840.63
525.995	47080.24
526.197	46701.37
526.398	46979.89
526.6	47129.39
526.801	46906.16
527.003	47182.64
527.204	46037.83
527.406	46820.15
527.607	46631.74
527.808	46596.92
528.01	45171.53
528.211	45378.38
528.412	45749.06
528.614	45235.02
528.815	45030.22
529.016	44884.82
529.218	43785.06
529.419	44219.23
529.62	43537.26
529.822	42900.34
530.023	42943.34
530.224	42247.04
530.425	41839.49
530.626	41255.82
530.828	40838.03
531.029	41235.34
531.23	40203.16
531.431	39715.75
531.632	39834.53
531.833	39101.36
532.035	38650.8
532.236	38130.62
532.437	37700.54
532.638	37057.48
532.839	37131.21
533.04	36240.34
533.241	35425.25
533.442	36096.99
533.643	34845.68
533.844	34399.22
534.045	33887.23
534.246	33479.68
534.447	33149.96
534.648	32883.72
534.849	32564.24
535.05	31751.2
535.251	31915.03
535.451	30825.51
535.652	30700.59
535.853	29768.76
536.054	29463.61
536.255	29447.23
536.456	28759.11
536.657	29068.36
536.857	28132.43
537.058	27708.51
537.259	27708.51
537.46	27497.56
537.66	26655.85
537.861	26551.4
538.062	25988.21
538.263	25699.45
538.463	25302.14
538.664	25089.15
538.865	24827.01
539.065	24925.32
539.266	24089.74
539.466	24093.84
539.667	23594.14
539.868	23426.2
540.068	22916.26
540.269	22766.76
540.469	23043.23
540.67	22308.01
540.87	21986.48
541.071	21636.28
541.271	21546.17
541.472	21406.91
541.672	21161.15
541.873	20614.34
542.073	20276.43
542.274	20253.9
542.474	20214.99
542.675	19590.36
542.875	20139.21
543.075	19420.38
543.276	19043.55
543.476	18853.09
543.676	18842.85
543.877	18386.15
544.077	18560.23
544.277	18449.64
544.478	17870.06
544.678	17806.58
544.878	17769.71
545.078	17298.68
545.279	17284.34
545.479	17007.87
545.679	16850.17
545.879	16573.7
546.079	16493.83
546.28	16454.92
546.48	15953.16
546.68	15928.59
546.88	15897.87
547.08	15637.78
547.28	15308.05
547.48	14949.66
547.68	15228.18
547.88	14757.15
548.081	14669.09
548.281	14462.24
548.481	14146.86
548.681	14447.91
548.881	14009.64
549.081	13583.66
549.28	13501.75
549.48	13538.61
549.68	13024.57
549.88	13196.6
550.08	12690.75
550.28	12416.32
550.48	12401.99
550.68	12277.06
550.88	11967.82
551.08	11795.79
551.279	12047.69
551.479	11437.39
551.679	11634
551.879	11062.62
552.079	11142.49
552.278	10974.55
552.478	11011.42
552.678	10591.58
552.878	10628.45
553.077	10081.64
553.277	10108.26
553.477	10112.36
553.676	9764.2
553.876	9911.66
554.076	9682.28
554.275	9414
554.475	9010.55
554.674	9100.66
554.874	9033.08
555.074	8641.92
555.273	8846.71
555.473	8525.18
555.672	8349.06
555.872	8357.25
556.071	8332.67
556.271	8201.6
556.47	7880.07
556.67	7685.51
556.869	7650.7
557.068	7564.68
557.268	7417.23
557.467	7257.49
557.667	7419.28
557.866	6993.3
558.065	6839.7
558.265	6800.79
558.464	6782.36
558.663	6620.57
558.863	6518.17
559.062	6499.74
559.261	6366.62
559.461	6342.05
559.66	6135.2
559.859	5864.87
560.058	5846.44
560.258	5758.38
560.457	5703.08
560.656	5842.34
560.855	5455.28
561.054	5619.11
561.253	5430.7
561.453	5420.46
561.652	5459.37
561.851	5330.35
562.05	5035.44
562.249	4914.61
562.448	5098.93
562.647	4881.85
562.846	4781.5
563.045	4736.44
563.244	4679.1
563.443	4654.52
563.642	4394.43
563.841	4349.37
564.04	4337.09
564.239	4373.95
564.438	4269.5
564.637	4189.63
564.836	4027.84
565.035	4083.14
565.234	3999.17
565.432	3851.72
565.631	4003.27
565.83	3800.52
566.029	3818.95
566.228	3653.06
566.427	3812.81
566.625	3622.34
566.824	3573.19
567.023	3730.89
567.222	3392.97
567.42	3462.6
567.619	3460.56
567.818	3268.05
568.016	3433.93
568.215	3132.88
568.414	3175.89
568.612	3167.7
568.811	3093.97
569.01	3091.92
569.208	3030.48
569.407	3089.87
569.605	3026.39
569.804	2915.8
570.002	3003.86
570.201	2758.1
570.4	2784.73
570.598	2803.16
570.797	2651.61
570.995	2512.35
571.193	2577.88
571.392	2577.88
571.59	2487.77
571.789	2465.24
571.987	2547.16
572.186	2395.61
572.384	2414.04
572.582	2373.08
572.781	2401.76
572.979	2262.49
573.177	2180.57
573.376	2137.57
573.574	2325.98
573.772	2133.47
573.971	2045.41
574.169	1945.06
574.367	2029.03
574.565	1990.11
574.763	2055.65
574.962	1906.15
575.16	1809.89
575.358	1949.15
575.556	1842.66
575.754	1971.68
575.952	1832.42
576.151	1846.76
576.349	1813.99
576.547	1617.38
576.745	1682.92
576.943	1684.97
577.141	1617.38
577.339	1619.43
577.537	1615.34
577.735	1584.62
577.933	1471.98
578.131	1428.97
578.329	1566.18
578.527	1517.03
578.725	1482.22
578.923	1330.67
579.121	1453.55
579.319	1211.89
579.516	1385.96
579.714	1447.4
579.912	1318.38
580.11	1211.89
580.308	1285.61
580.506	1205.74
580.704	1142.25
580.901	1162.73
581.099	1316.33
581.297	1078.77
581.495	1134.06
581.692	1215.98
581.89	1306.09
582.088	1240.56
582.285	1037.81
582.483	996.85
582.681	1086.96
582.878	1097.2
583.076	998.9
583.274	1080.82
583.471	1132.01
583.669	1046
583.866	951.79
584.064	935.41
584.262	851.44
584.459	888.31
584.657	970.23
584.854	998.9
585.052	1019.38
585.249	929.27
585.447	959.99
585.644	736.76
585.841	935.41
586.039	902.64
586.236	900.59
586.434	785.91
586.631	820.72
586.828	718.33
587.026	798.2
587.223	767.48
587.42	800.24
587.618	826.87
587.815	912.88
588.012	790
588.21	773.62
588.407	755.19
588.604	792.05
588.801	652.79
588.999	706.04
589.196	712.18
589.393	658.93
589.59	699.89
589.787	669.17
589.984	751.09
590.182	726.52
590.379	499.19
590.576	603.64
590.773	556.54
590.97	679.41
591.167	769.52
591.364	663.03
591.561	617.97
591.758	759.28
591.955	722.42
592.152	716.28
592.349	556.54
592.546	611.83
592.743	585.21
592.94	587.26
593.137	626.17
593.334	769.52
593.531	687.61
593.727	572.92
593.924	718.33
594.121	701.94
594.318	622.07
594.515	724.47
594.712	798.2
594.908	814.58
595.105	548.34
595.302	771.57
595.499	781.81
595.696	781.81
595.892	609.78
596.089	785.91
596.286	630.26
596.482	849.4
596.679	757.24
596.876	720.37
597.072	826.87
597.269	820.72
597.466	865.78
597.662	781.81
597.859	822.77
598.055	935.41
598.252	896.5
598.448	992.75
598.645	1017.33
598.841	970.23
599.038	1191.41
599.234	1183.21
599.431	1222.13
599.627	1275.37
599.824	1238.51
600.02	1302
600.217	1297.9
600.413	1512.94
600.609	1543.66
600.806	1773.03
601.002	1566.18
601.198	1521.13
601.395	1699.3
601.591	1828.32
601.787	1764.84
601.984	1930.72
602.18	1975.78
602.376	1949.15
602.572	2112.99
602.769	2393.56
602.965	2268.64
603.161	2407.9
603.357	2397.66
603.553	2590.17
603.75	2420.19
603.946	2682.33
604.142	2725.33
604.338	2792.92
604.534	2897.36
604.73	2979.28
604.926	3016.15
605.122	3300.81
605.318	3214.8
605.514	3329.49
605.71	3444.17
605.906	3573.19
606.102	3712.46
606.298	3845.57
606.494	3982.79
606.69	4079.04
606.886	4165.06
607.082	4091.33
607.278	4322.75
607.474	4472.25
607.67	4617.66
607.866	4693.43
608.062	4978.1
608.257	4939.19
608.453	5100.98
608.649	5510.57
608.845	5359.02
609.041	5461.42
609.236	5690.79
609.432	5834.15
609.628	6104.48
609.824	6290.85
610.019	6180.26
610.215	6563.23
610.411	6753.69
610.606	6895
610.802	6860.18
610.998	7245.2
611.193	7427.47
611.389	7456.14
611.584	7857.54
611.78	7814.54
611.976	8111.49
612.171	8658.3
612.367	8682.88
612.562	8734.07
612.758	9039.22
612.953	9229.68
613.149	9543.02
613.344	9633.13
613.539	10190.18
613.735	10351.97
613.93	10622.3
614.126	10726.75
614.321	11191.64
614.517	11412.82
614.712	11869.51
614.907	11953.48
615.103	12395.84
615.298	12391.75
615.493	12973.37
615.688	12963.13
615.884	13733.17
616.079	13563.19
616.274	14308.65
616.47	14527.78
616.665	14920.99
616.86	15500.56
617.055	15805.71
617.25	16041.23
617.445	16618.75
617.641	16512.26
617.836	17016.06
618.031	17515.76
618.226	18296.04
618.421	18392.3
618.616	19203.29
618.811	19203.29
619.006	19793.11
619.201	20047.05
619.396	20640.97
619.591	20769.99
619.786	21763.25
619.981	21800.12
620.176	22363.31
620.371	22682.79
620.566	23440.54
620.761	23694.49
620.956	24429.71
621.151	24835.21
621.346	25386.11
621.541	25799.8
621.735	26213.49
621.93	26270.83
622.125	26856.55
622.32	27038.82
622.515	28425.29
622.709	28804.17
622.904	28992.58
623.099	29805.63
623.294	29942.84
623.488	30110.77
623.683	31222.82
623.878	31065.13
624.072	32134.17
624.267	32300.05
624.462	32920.59
624.656	32949.26
624.851	33879.04
625.046	34225.14
625.24	34845.68
625.435	35349.48
625.629	35599.33
625.824	36107.23
626.018	36635.6
626.213	36488.15
626.407	37299.14
626.602	37514.18
626.796	38466.49
626.991	38417.33
627.185	38603.7
627.38	38587.32
627.574	38695.86
627.768	39285.67
627.963	39392.17
628.157	39183.27
628.352	39957.41
628.546	38910.89
628.74	40129.44
628.935	39001
629.129	39480.23
629.323	38779.82
629.517	39498.66
629.712	38579.12
629.906	38456.25
630.1	37766.08
630.294	37764.03
630.489	37190.6
630.683	36514.77
630.877	35488.74
631.071	35412.96
631.265	34712.56
631.459	33766.4
631.653	33235.97
631.848	32586.77
632.042	31810.59
632.236	31534.11
632.43	29991.99
632.624	29221.95
632.818	28298.32
633.012	27290.72
633.206	26649.71
633.4	25771.13
633.594	24595.59
633.788	24169.62
633.982	23262.37
634.176	22594.73
634.369	21306.55
634.563	20526.28
634.757	19703
634.951	19365.08
635.145	18459.88
635.339	17620.21
635.533	16882.94
635.726	16344.33
635.92	15215.9
636.114	15250.71
636.308	14322.98
636.501	13985.07
636.695	13245.75
636.889	12645.7
637.083	12055.88
637.276	11627.85
637.47	11214.16
637.664	10784.09
637.857	10321.25
638.051	9811.31
638.244	9360.75
638.438	9166.2
638.632	8807.8
638.825	8254.85
639.019	8127.88
639.212	7855.5
639.406	7642.51
639.599	7177.62
639.793	6946.2
639.986	6622.62
640.18	6460.83
640.373	6139.3
640.567	5842.34
640.76	5670.31
640.954	5572.01
641.147	5154.23
641.34	4971.96
641.534	4883.89
641.727	4711.86
641.92	4425.15
642.114	4357.57
642.307	4093.38
642.5	4160.96
642.694	3876.29
642.887	3773.89
643.08	3726.79
643.273	3505.61
643.467	3257.81
643.66	3241.42
643.853	3063.25
644.046	3061.2
644.239	2846.16
644.432	2688.47
644.626	2516.44
644.819	2532.83
645.012	2311.64
645.205	2455
645.398	2317.79
645.591	2151.9
645.784	2067.94
645.977	1930.72
646.17	1889.76
646.363	1736.17
646.556	1744.36
646.749	1557.99
646.942	1670.63
647.135	1738.21
647.328	1385.96
647.521	1523.18
647.714	1396.2
647.907	1404.39
648.099	1193.45
648.292	1324.52
648.485	1160.69
648.678	1154.54
648.871	1105.39
649.064	1101.3
649.256	1025.52
649.449	1009.14
649.642	919.03
649.835	976.37
650.027	837.11
650.22	978.42
650.413	900.59
650.605	900.59
650.798	726.52
650.991	810.48
651.183	724.47
651.376	728.56
651.568	794.1
651.761	679.41
651.954	587.26
652.146	613.88
652.339	589.3
652.531	695.8
652.724	499.19
652.916	482.81
653.109	331.26
653.301	626.17
653.494	519.67
653.686	556.54
653.879	515.58
654.071	556.54
654.263	445.95
654.456	400.89
654.648	548.34
654.84	462.33
655.033	325.12
655.225	447.99
655.417	251.39
655.61	441.85
655.802	404.99
655.994	458.23
656.186	331.26
656.379	450.04
656.571	251.39
656.763	349.69
656.955	310.78
657.148	318.97
657.34	429.56
657.532	265.72
657.724	325.12
657.916	335.35
658.108	370.17
658.3	386.55
658.492	251.39
658.684	134.65
658.876	343.55
659.068	200.19
659.26	120.32
659.452	224.76
659.644	216.57
659.836	384.51
660.028	206.33
660.22	177.66
660.412	292.35
660.604	183.81
660.796	243.2
660.988	267.77
661.18	245.24
661.372	243.2
661.563	200.19
661.755	282.11
661.947	99.84
662.139	179.71
662.331	192
662.522	212.48
662.714	136.7
662.906	155.13
663.097	232.96
663.289	112.13
663.481	79.36
663.673	204.28
663.864	208.38
664.056	208.38
664.247	148.99
664.439	228.86
664.631	134.65
664.822	198.14
665.014	155.13
665.205	185.85
665.397	101.89
665.588	200.19
665.78	132.61
665.971	226.81
666.163	153.09
666.354	173.57
666.546	112.13
666.737	122.37
666.929	83.45
667.12	50.69
667.311	114.17
667.503	54.78
667.694	202.24
667.885	171.52
668.077	181.76
668.268	38.4
668.459	128.51
668.651	177.66
668.842	159.23
669.033	124.41
669.224	83.45
669.416	327.16
669.607	95.74
669.798	110.08
669.989	275.96
670.18	157.18
670.371	206.33
670.563	7.68
670.754	222.72
670.945	220.67
671.136	204.28
671.327	87.55
671.518	212.48
671.709	249.34
671.9	89.6
672.091	120.32
672.282	187.9
672.473	146.94
672.664	105.98
672.855	171.52
673.046	153.09
673.237	177.66
673.428	138.75
673.619	196.09
673.809	118.27
674	187.9
674.191	232.96
674.382	155.13
674.573	134.65
674.764	159.23
674.954	224.76
675.145	44.54
675.336	151.04
675.527	56.83
675.717	30.21
675.908	128.51
676.099	138.75
676.289	93.69
676.48	67.07
676.671	159.23
676.861	103.93
677.052	183.81
677.243	89.6
677.433	81.41
677.624	232.96
677.814	146.94
678.005	120.32
678.195	216.57
678.386	54.78
678.576	181.76
678.767	183.81
678.957	153.09
679.148	218.62
679.338	265.72
679.529	138.75
679.719	110.08
679.909	241.15
680.1	165.37
680.29	275.96
680.481	46.59
680.671	232.96
680.861	120.32
681.052	146.94
681.242	101.89
681.432	235
681.622	122.37
681.813	126.46
682.003	81.41
682.193	-10.75
682.383	146.94
682.573	126.46
682.764	177.66
682.954	183.81
683.144	241.15
683.334	175.61
683.524	132.61
683.714	196.09
683.904	169.47
684.094	192
684.284	97.79
684.474	267.77
684.664	202.24
684.854	259.58
685.044	171.52
685.234	196.09
685.424	243.2
685.614	163.33
685.804	286.2
685.994	175.61
686.184	187.9
686.374	253.44
686.564	173.57
686.753	185.85
686.943	105.98
687.133	153.09
687.323	181.76
687.513	200.19
687.702	230.91
687.892	165.37
688.082	161.28
688.272	269.82
688.461	126.46
688.651	247.29
688.841	163.33
689.03	202.24
689.22	204.28
689.41	235
689.599	161.28
689.789	79.36
689.979	304.64
690.168	230.91
690.358	204.28
690.547	153.09
690.737	163.33
690.926	226.81
691.116	189.95
691.305	228.86
691.495	204.28
691.684	97.79
691.874	116.22
692.063	243.2
692.252	214.52
692.442	249.34
692.631	118.27
692.82	155.13
693.01	224.76
693.199	169.47
693.388	290.3
693.578	177.66
693.767	226.81
693.956	224.76
694.146	255.48
694.335	208.38
694.524	124.41
694.713	243.2
694.902	122.37
695.092	62.98
695.281	245.24
695.47	224.76
695.659	136.7
695.848	136.7
696.037	153.09
696.226	200.19
696.415	196.09
696.604	228.86
696.793	241.15
696.982	210.43
697.171	253.44
697.36	153.09
697.549	144.89
697.738	103.93
697.927	95.74
698.116	126.46
698.305	243.2
698.494	239.1
698.683	71.17
698.872	251.39
699.061	136.7
699.25	173.57
699.438	128.51
699.627	93.69
699.816	214.52
700.005	108.03
700.193	120.32
700.382	171.52
700.571	208.38
700.76	208.38
700.948	222.72
701.137	192
701.326	257.53
701.514	163.33
701.703	181.76
701.892	210.43
702.08	396.79
702.269	146.94
702.457	73.21
702.646	222.72
702.834	124.41
703.023	294.4
703.212	214.52
703.4	255.48
703.589	118.27
703.777	196.09
703.965	167.42
704.154	97.79
704.342	120.32
704.531	140.8
704.719	142.85
704.907	216.57
705.096	101.89
705.284	103.93
705.472	134.65
705.661	200.19
705.849	196.09
706.037	298.49
706.226	177.66
706.414	202.24
706.602	153.09
706.79	226.81
706.979	87.55
707.167	153.09
707.355	48.64
707.543	159.23
707.731	181.76
707.919	175.61
708.107	138.75
708.296	97.79
708.484	122.37
708.672	114.17
708.86	214.52
709.048	224.76
709.236	116.22
709.424	165.37
709.612	216.57
709.8	54.78
709.988	132.61
710.176	235
710.364	294.4
710.551	194.05
710.739	165.37
710.927	114.17
711.115	153.09
711.303	271.87
711.491	189.95
711.679	40.45
711.866	267.77
712.054	144.89
712.242	153.09
712.43	181.76
712.617	161.28
712.805	202.24
712.993	171.52
713.181	89.6
713.368	237.05
713.556	196.09
713.744	112.13
713.931	294.4
714.119	212.48
714.306	210.43
714.494	163.33
714.682	144.89
714.869	99.84
715.057	124.41
715.244	65.02
715.432	245.24
715.619	138.75
715.807	132.61
715.994	224.76
716.182	157.18
716.369	216.57
716.556	187.9
716.744	79.36
716.931	42.5
717.119	157.18
717.306	187.9
717.493	206.33
717.681	83.45
717.868	130.56
718.055	278.01
718.242	202.24
718.43	224.76
718.617	224.76
718.804	202.24
718.991	247.29
719.179	187.9
719.366	167.42
719.553	134.65
719.74	189.95
719.927	148.99
720.114	136.7
720.301	148.99
720.488	67.07
720.676	134.65
720.863	353.79
721.05	273.92
721.237	181.76
721.424	179.71
721.611	245.24
721.798	169.47
721.985	120.32
722.172	196.09
722.358	212.48
722.545	261.63
722.732	216.57
722.919	243.2
723.106	202.24
723.293	224.76
723.48	157.18
723.667	130.56
723.853	239.1
724.04	157.18
724.227	288.25
724.414	206.33
724.6	235
724.787	368.12
724.974	343.55
725.161	218.62
725.347	153.09
725.534	196.09
725.72	255.48
725.907	312.83
726.094	237.05
726.28	148.99
726.467	243.2
726.653	140.8
726.84	380.41
727.027	333.31
727.213	222.72
727.4	206.33
727.586	239.1
727.773	124.41
727.959	263.68
728.145	179.71
728.332	144.89
728.518	161.28
728.705	292.35
728.891	251.39
729.077	153.09
729.264	126.46
729.45	204.28
729.636	259.58
729.823	218.62
730.009	232.96
730.195	187.9
730.382	353.79
730.568	157.18
730.754	218.62
730.94	177.66
731.126	253.44
731.313	267.77
731.499	187.9
731.685	284.16
731.871	202.24
732.057	210.43
732.243	267.77
732.429	241.15
732.615	341.5
732.801	298.49
732.987	165.37
733.173	286.2
733.359	130.56
733.545	269.82
733.731	249.34
733.917	386.55
734.103	200.19
734.289	282.11
734.475	140.8
734.661	275.96
734.847	247.29
735.033	265.72
735.219	278.01
735.404	284.16
735.59	183.81
735.776	232.96
735.962	259.58
736.148	370.17
736.333	308.73
736.519	243.2
736.705	282.11
736.89	206.33
737.076	288.25
737.262	222.72
737.447	167.42
737.633	275.96
737.819	284.16
738.004	220.67
738.19	183.81
738.375	202.24
738.561	304.64
738.747	224.76
738.932	169.47
739.118	351.74
739.303	296.44
739.489	302.59
739.674	167.42
739.859	189.95
740.045	312.83
740.23	259.58
740.416	89.6
740.601	269.82
740.786	257.53
740.972	116.22
741.157	235
741.342	112.13
741.528	146.94
741.713	290.3
741.898	171.52
742.084	249.34
742.269	198.14
742.454	288.25
742.639	212.48
742.824	241.15
743.01	294.4
743.195	310.78
743.38	175.61
743.565	187.9
743.75	208.38
743.935	218.62
744.12	259.58
744.305	138.75
744.49	138.75
744.675	189.95
744.86	216.57
745.045	228.86
745.23	245.24
745.415	224.76
745.6	271.87
745.785	222.72
745.97	269.82
746.155	196.09
746.34	310.78
746.525	232.96
746.71	298.49
746.895	132.61
747.079	192
747.264	261.63
747.449	255.48
747.634	245.24
747.819	165.37
748.003	212.48
748.188	192
748.373	243.2
748.557	241.15
748.742	198.14
748.927	228.86
749.111	210.43
749.296	208.38
749.481	210.43
749.665	218.62
749.85	132.61
750.034	189.95
750.219	200.19
750.404	187.9
750.588	243.2
750.773	198.14
750.957	187.9
751.141	212.48
751.326	235
751.51	146.94
751.695	91.65
751.879	124.41
752.064	282.11
752.248	210.43
752.432	282.11
752.617	218.62
752.801	239.1
752.985	144.89
753.17	198.14
753.354	151.04
753.538	159.23
753.722	69.12
753.907	112.13
754.091	24.06
754.275	185.85
754.459	69.12
754.643	108.03
754.828	130.56
755.012	146.94
755.196	124.41
755.38	249.34
755.564	132.61
755.748	124.41
755.932	116.22
756.116	132.61
756.3	214.52
756.484	148.99
756.668	210.43
756.852	15.87
757.036	60.93
757.22	196.09
757.404	136.7
757.588	77.31
757.772	210.43
757.956	108.03
758.14	226.81
758.323	46.59
758.507	148.99
758.691	157.18
758.875	271.87
759.059	179.71
759.242	116.22
759.426	124.41
759.61	157.18
759.794	138.75
759.977	253.44
760.161	353.79
760.345	237.05
760.528	208.38
760.712	196.09
760.895	101.89
761.079	202.24
761.263	171.52
761.446	15.87
761.63	48.64
761.813	198.14
761.997	32.26
762.18	54.78
762.364	146.94
762.547	-18.94
762.731	69.12
762.914	126.46
763.098	77.31
763.281	192
763.464	101.89
763.648	99.84
763.831	132.61
764.015	44.54
764.198	194.05
764.381	99.84
764.564	89.6
764.748	159.23
764.931	189.95
765.114	101.89
765.297	136.7
765.481	58.88
765.664	103.93
765.847	46.59
766.03	222.72
766.213	81.41
766.397	56.83
766.58	50.69
766.763	157.18
766.946	24.06
767.129	81.41
767.312	48.64
767.495	118.27
767.678	17.92
767.861	103.93
768.044	134.65
768.227	38.4
768.41	42.5
768.593	83.45
768.776	46.59
768.959	15.87
769.142	146.94
769.324	85.5
769.507	142.85
769.69	32.26
769.873	24.06
770.056	294.4
770.239	110.08
770.421	122.37
770.604	114.17
770.787	110.08
770.97	130.56
771.152	36.35
771.335	148.99
771.518	89.6
771.7	132.61
771.883	157.18
772.066	62.98
772.248	54.78
772.431	167.42
772.613	95.74
772.796	-0.51
772.978	167.42
773.161	257.53
773.343	44.54
773.526	42.5
773.708	-92.67
773.891	5.63
774.073	46.59
774.256	-2.56
774.438	228.86
774.621	-55.81
774.803	136.7
774.985	-0.51
775.168	185.85
775.35	40.45
775.532	163.33
775.715	-16.9
775.897	87.55
776.079	50.69
776.261	118.27
776.444	26.11
776.626	62.98
776.808	38.4
776.99	38.4
777.173	134.65
777.355	48.64
777.537	87.55
777.719	103.93
777.901	15.87
778.083	48.64
778.265	-12.8
778.447	204.28
778.629	11.78
778.811	46.59
778.993	30.21
779.175	114.17
779.357	97.79
779.539	-0.51
779.721	128.51
779.903	159.23
780.085	65.02
780.267	46.59
780.449	19.97
780.631	42.5
780.812	71.17
780.994	73.21
781.176	-49.66
781.358	65.02
781.54	13.82
781.721	44.54
781.903	44.54
782.085	91.65
782.267	153.09
782.448	38.4
782.63	-33.28
782.812	110.08
782.993	58.88
783.175	50.69
783.357	5.63
783.538	116.22
783.72	-16.9
783.901	30.21
784.083	56.83
784.264	83.45
784.446	-2.56
784.627	-27.14
784.809	73.21
784.99	-16.9
785.172	77.31
785.353	130.56
785.535	81.41
785.716	24.06
785.897	7.68
786.079	77.31
786.26	44.54
786.441	-25.09
786.623	-0.51
786.804	46.59
786.985	13.82
787.167	136.7
787.348	9.73
787.529	46.59
787.71	173.57
787.891	83.45
788.073	19.97
788.254	-92.67
788.435	134.65
788.616	99.84
788.797	-16.9
788.978	-0.51
789.159	-8.7
789.34	48.64
789.522	87.55
789.703	19.97
789.884	24.06
790.065	34.3
790.246	105.98
790.427	56.83
790.607	134.65
790.788	71.17
790.969	-72.19
791.15	87.55
791.331	-23.04
791.512	13.82
791.693	7.68
791.874	24.06
792.054	208.38
792.235	83.45
792.416	-61.95
792.597	36.35
792.778	17.92
792.958	89.6
793.139	77.31
793.32	85.5
793.5	-49.66
793.681	81.41
793.862	11.78
794.042	-43.52
794.223	-23.04
794.404	7.68
794.584	-61.95
794.765	69.12
794.945	-20.99
795.126	81.41
795.306	101.89
795.487	-59.9
795.667	48.64
795.848	105.98
796.028	32.26
796.209	-0.51
796.389	85.5
796.57	-33.28
796.75	-23.04
796.93	32.26
797.111	-43.52
797.291	-8.7
797.471	122.37
797.652	44.54
797.832	17.92
798.012	50.69
798.192	-74.24
798.373	-96.77
798.553	22.02
798.733	11.78
798.913	-41.47
799.093	-0.51
799.274	22.02
799.454	54.78
799.634	17.92
799.814	56.83
799.994	-2.56
800.174	69.12
800.354	40.45
800.534	-152.06
800.714	124.41
800.894	-61.95
801.074	-37.38
801.254	-86.53
801.434	112.13
801.614	-8.7
801.794	26.11
801.974	1967.59
802.154	30.21
802.334	146.94
802.514	1.54
802.693	56.83
802.873	-6.66
803.053	163.33
803.233	93.69
803.413	-39.42
803.592	-59.9
803.772	-111.1
803.952	30.21
804.131	-29.18
804.311	75.26
804.491	42.5
804.67	-104.96
804.85	26.11
805.03	124.41
805.209	126.46
805.389	44.54
805.568	52.74
805.748	-80.38
805.928	110.08
806.107	5.63
806.287	46.59
806.466	93.69
806.646	-25.09
806.825	28.16
807.004	28.16
807.184	40.45
807.363	17.92
807.543	81.41
807.722	-76.29
807.901	126.46
808.081	130.56
808.26	-84.48
808.439	42.5
808.619	46.59
808.798	-27.14
808.977	62.98
809.156	108.03
809.336	32.26
809.515	146.94
809.694	-104.96
809.873	-10.75
810.052	99.84
810.231	95.74
810.411	62.98
810.59	116.22
810.769	108.03
810.948	50.69
811.127	-76.29
811.306	32.26
811.485	-29.18
811.664	112.13
811.843	17.92
812.022	65.02
812.201	50.69
812.38	1.54
812.559	-33.28
812.737	30.21
812.916	-47.62
813.095	-43.52
813.274	46.59
813.453	22.02
813.632	1.54
813.811	79.36
813.989	-92.67
814.168	60.93
814.347	-53.76
814.526	85.5
814.704	48.64
814.883	105.98
815.062	11.78
815.24	134.65
815.419	-88.57
815.598	60.93
815.776	-51.71
815.955	-57.86
816.133	-66.05
816.312	67.07
816.49	-39.42
816.669	19.97
816.847	36.35
817.026	34.3
817.204	15.87
817.383	-45.57
817.561	-72.19
817.74	34.3
817.918	52.74
818.097	-12.8
818.275	26.11
818.453	-18.94
818.632	105.98
818.81	-2.56
818.988	-59.9
819.167	-51.71
819.345	11.78
819.523	15.87
819.701	7.68
819.879	15.87
820.058	56.83
820.236	-4.61
820.414	58.88
820.592	-72.19
820.77	48.64
820.948	-55.81
821.127	-18.94
821.305	73.21
821.483	-61.95
821.661	71.17
821.839	-49.66
822.017	-90.62
822.195	-29.18
822.373	50.69
822.551	9.73
822.729	97.79
822.907	-14.85
823.085	11.78
823.262	15.87
823.44	-49.66
823.618	9.73
823.796	79.36
823.974	-57.86
824.152	3.58
824.329	-10.75
824.507	9.73
824.685	58.88
824.863	30.21
825.04	32.26
825.218	93.69
825.396	11.78
825.574	42.5
825.751	52.74
825.929	65.02
826.107	30.21
826.284	28.16
826.462	40.45
826.639	-10.75
826.817	-96.77
826.994	-20.99
827.172	-104.96
827.349	112.13
827.527	32.26
827.704	91.65
827.882	75.26
828.059	9.73
828.237	67.07
828.414	114.17
828.591	-76.29
828.769	-47.62
828.946	5.63
829.124	75.26
829.301	134.65
829.478	9.73
829.655	42.5
829.833	-0.51
830.01	-143.87
830.187	15.87
830.364	-41.47
830.542	-23.04
830.719	146.94
830.896	-8.7
831.073	62.98
831.25	26.11
831.427	93.69
831.604	-6.66
831.782	-45.57
831.959	38.4
832.136	-37.38
832.313	30.21
832.49	-59.9
832.667	81.41
832.844	11.78
833.021	24.06
833.198	108.03
833.374	-41.47
833.551	-2.56
833.728	-41.47
833.905	99.84
834.082	-41.47
834.259	42.5
834.436	114.17
834.612	1.54
834.789	19.97
834.966	-31.23
835.143	38.4
835.319	34.3
835.496	-12.8
835.673	81.41
835.85	77.31
836.026	30.21
836.203	67.07
836.38	-47.62
836.556	-41.47
836.733	-51.71
836.909	112.13
837.086	-59.9
837.262	-33.28
837.439	48.64
837.616	40.45
837.792	69.12
837.968	52.74
838.145	-59.9
838.321	-61.95
838.498	60.93
838.674	144.89
838.851	40.45
839.027	-41.47
839.203	-25.09
839.38	26.11
839.556	-61.95
839.732	132.61
839.909	-57.86
840.085	7.68
840.261	-41.47
840.437	-25.09
840.614	-33.28
840.79	36.35
840.966	48.64
841.142	-4.61
841.318	65.02
841.494	65.02
841.671	85.5
841.847	-64
842.023	-47.62
842.199	75.26
842.375	85.5
842.551	30.21
842.727	-37.38
842.903	214.52
843.079	-84.48
843.255	60.93
843.431	11.78
843.607	93.69
843.783	-131.58
843.959	1.54
844.134	-12.8
844.31	146.94
844.486	50.69
844.662	-14.85
844.838	-45.57
845.013	77.31
845.189	120.32
845.365	19.97
845.541	-8.7
845.716	17.92
845.892	-10.75
846.068	7.68
846.244	3.58
846.419	34.3
846.595	-84.48
846.77	-86.53
846.946	136.7
847.122	-41.47
847.297	-33.28
847.473	122.37
847.648	-152.06
847.824	44.54
847.999	-152.06
848.175	11.78
848.35	-4.61
848.526	15.87
848.701	89.6
848.876	15.87
849.052	62.98
849.227	22.02
849.403	-10.75
849.578	28.16
849.753	34.3
849.929	5.63
850.104	-102.91
850.279	-10.75
850.454	-6.66
850.63	1.54
850.805	-0.51
850.98	42.5
851.155	65.02
851.33	9.73
851.505	-123.39
851.681	56.83
851.856	-4.61
852.031	-61.95
852.206	-6.66
852.381	24.06
852.556	-37.38
852.731	3.58
852.906	99.84
853.081	32.26
853.256	161.28
853.431	-23.04
853.606	-68.09
853.781	-14.85
853.956	-53.76
854.131	1.54
854.305	-78.33
854.48	-47.62
854.655	-86.53
854.83	-78.33
855.005	-31.23
855.18	-16.9
855.354	75.26
855.529	69.12
855.704	-27.14
855.879	24.06
856.053	-66.05
856.228	48.64
856.403	-61.95
856.577	-59.9
856.752	-172.54
856.926	69.12
857.101	22.02
857.276	-51.71
857.45	48.64
857.625	97.79
857.799	7.68
857.974	-14.85
858.148	-115.2
858.323	24.06
858.497	36.35
858.672	-74.24
858.846	9.73
859.02	83.45
859.195	-82.43
859.369	13.82
859.543	5.63
859.718	34.3
859.892	24.06
860.066	19.97
860.241	-35.33
860.415	32.26
860.589	-49.66
860.763	-53.76
860.938	17.92
861.112	5.63
861.286	-39.42
861.46	83.45
861.634	-66.05
861.808	32.26
861.982	-8.7
862.157	-74.24
862.331	-37.38
862.505	-127.49
862.679	-64
862.853	-23.04
863.027	-4.61
863.201	134.65
863.375	3.58
863.549	46.59
863.722	-45.57
863.896	105.98
864.07	-84.48
864.244	-20.99
864.418	128.51
864.592	-8.7
864.766	-29.18
864.939	19.97
865.113	-41.47
865.287	124.41
865.461	-68.09
865.634	7.68
865.808	30.21
865.982	-64
866.156	-33.28
866.329	-115.2
866.503	7.68
866.676	28.16
866.85	87.55
867.024	-68.09
867.197	52.74
867.371	65.02
867.544	36.35
867.718	-37.38
867.891	99.84
868.065	-143.87
868.238	52.74
868.412	91.65
868.585	34.3
868.759	-64
868.932	-18.94
869.105	-66.05
869.279	-29.18
869.452	-111.1
869.625	60.93
869.799	-12.8
869.972	-55.81
870.145	79.36
870.319	110.08
870.492	9.73
870.665	30.21
870.838	-55.81
871.011	-100.86
871.185	-41.47
871.358	-20.99
871.531	91.65
871.704	-45.57
871.877	11.78
872.05	-23.04
872.223	-92.67
872.396	44.54
872.569	38.4
872.742	-94.72
872.915	40.45
873.088	28.16
873.261	-57.86
873.434	71.17
873.607	-33.28
873.78	50.69
873.953	-20.99
874.126	48.64
874.299	17.92
874.471	-2.56
874.644	-29.18
874.817	54.78
874.99	134.65
875.163	11.78
875.335	3.58
875.508	-86.53
875.681	56.83
875.853	15.87
876.026	22.02
876.199	40.45
876.371	-4.61
876.544	28.16
876.717	-4.61
876.889	24.06
877.062	79.36
877.234	-68.09
877.407	-53.76
877.579	-25.09
877.752	-57.86
877.924	77.31
878.097	42.5
878.269	5.63
878.442	13.82
878.614	3.58
878.786	-8.7
878.959	-27.14
879.131	-8.7
879.303	-90.62
879.476	48.64
879.648	52.74
879.82	30.21
879.993	-41.47
880.165	65.02
880.337	-82.43
880.509	24.06
880.681	-78.33
880.854	-31.23
881.026	38.4
881.198	110.08
881.37	56.83
881.542	11.78
881.714	11.78
881.886	-53.76
882.058	-2.56
882.23	-16.9
882.402	11.78
882.574	60.93
882.746	58.88
882.918	87.55
883.09	77.31
883.262	24.06
883.434	7.68
883.606	-41.47
883.778	34.3
883.95	56.83
884.122	5.63
884.293	28.16
884.465	93.69
884.637	101.89
884.809	-45.57
884.98	62.98
885.152	89.6
885.324	54.78
885.496	-59.9
885.667	-39.42
885.839	9.73
886.011	36.35
886.182	77.31
886.354	122.37
886.525	83.45
886.697	69.12
886.869	-74.24
887.04	-61.95
887.212	60.93
887.383	132.61
887.555	-45.57
887.726	-72.19
887.897	9.73
888.069	22.02
888.24	58.88
888.412	-27.14
888.583	17.92
888.754	-27.14
888.926	-43.52
889.097	11.78
889.268	-88.57
889.44	30.21
889.611	-59.9
889.782	-123.39
889.953	-74.24
890.125	97.79
890.296	-23.04
890.467	-82.43
890.638	-43.52
890.809	-12.8
890.98	-33.28
891.151	32.26
891.323	114.17
891.494	11.78
891.665	3.58
891.836	58.88
892.007	-25.09
892.178	1.54
892.349	56.83
892.52	-41.47
892.691	-53.76
892.862	38.4
893.032	-117.25
893.203	-4.61
893.374	3.58
893.545	15.87
893.716	-20.99
893.887	95.74
894.057	-23.04
894.228	-127.49
894.399	-10.75
894.57	120.32
894.74	-35.33
894.911	62.98
895.082	-0.51
895.253	-47.62
895.423	28.16
895.594	44.54
895.764	7.68
895.935	-98.81
896.106	-8.7
896.276	-8.7
896.447	58.88
896.617	-70.14
896.788	-78.33
896.958	-66.05
897.129	-57.86
897.299	7.68
897.47	75.26
897.64	-0.51
897.81	5.63
897.981	-4.61
898.151	-55.81
898.322	48.64
898.492	69.12
898.662	-102.91
898.832	-51.71
899.003	9.73
899.173	114.17
899.343	-66.05
899.513	-53.76
