Data from USB4F104151__11__10-41-25-289.txt Node

Date: Wed Feb 26 10:41:25 EST 2025
User: louis
Spectrometer: USB4F10415
Trigger mode: 4
Integration Time (sec): 1.000000E-1
Scans to average: 1
Electric dark correction enabled: true
Nonlinearity correction enabled: false
Boxcar width: 0
XAxis mode: Wavelengths
Number of Pixels in Spectrum: 3648
>>>>>Begin Spectral Data<<<<<
178.204	-376.14
178.424	-376.14
178.644	-376.14
178.864	-376.14
179.084	-382.29
179.304	4.78
179.524	-13.65
179.744	33.45
179.964	-13.65
180.184	-30.04
180.404	70.31
180.624	-56.66
180.844	-81.24
181.064	-42.32
181.283	94.89
181.503	-21.85
181.723	55.98
181.943	-111.96
182.163	232.1
182.383	-25.94
182.602	101.03
182.822	111.27
183.042	115.37
183.262	-11.61
183.482	-21.85
183.701	55.98
183.921	72.36
184.141	25.26
184.361	47.79
184.58	82.6
184.8	6.83
185.02	2.73
185.239	49.83
185.459	82.6
185.679	197.29
185.898	-99.67
186.118	62.12
186.338	137.9
186.557	144.04
186.777	-42.32
186.997	27.31
187.216	-1.37
187.436	193.19
187.655	125.61
187.875	49.83
188.095	82.6
188.314	60.07
188.534	221.86
188.753	-44.37
188.973	209.58
189.192	217.77
189.412	10.92
189.631	88.75
189.851	55.98
190.07	111.27
190.29	-62.8
190.509	23.21
190.729	96.94
190.948	154.28
191.168	309.93
191.387	68.27
191.607	-3.41
191.826	43.69
192.045	62.12
192.265	39.59
192.484	109.22
192.704	4.78
192.923	-87.38
193.142	176.81
193.362	53.93
193.581	160.42
193.8	121.51
194.02	131.75
194.239	70.31
194.458	117.42
194.678	74.41
194.897	-9.56
195.116	80.55
195.335	70.31
195.555	103.08
195.774	49.83
195.993	187.05
196.212	53.93
196.432	35.5
196.651	4.78
196.87	33.45
197.089	273.06
197.308	70.31
197.528	107.18
197.747	6.83
197.966	25.26
198.185	180.9
198.404	-75.09
198.623	76.46
198.842	113.32
199.062	72.36
199.281	154.28
199.5	55.98
199.719	19.11
199.938	133.8
200.157	88.75
200.376	158.38
200.595	135.85
200.814	117.42
201.033	60.07
201.252	131.75
201.471	68.27
201.69	55.98
201.909	-11.61
202.128	111.27
202.347	58.03
202.566	60.07
202.785	-17.75
203.004	33.45
203.223	258.73
203.442	84.65
203.661	-1.37
203.879	82.6
204.098	166.57
204.317	-56.66
204.536	125.61
204.755	90.79
204.974	62.12
205.193	78.51
205.411	232.1
205.63	101.03
205.849	72.36
206.068	25.26
206.287	-9.56
206.505	119.46
206.724	8.87
206.943	80.55
207.162	-1.37
207.381	113.32
207.599	84.65
207.818	76.46
208.037	-48.47
208.255	107.18
208.474	105.13
208.693	51.88
208.911	-71
209.13	68.27
209.349	107.18
209.567	62.12
209.786	101.03
210.005	139.94
210.223	21.16
210.442	-60.76
210.661	-23.89
210.879	107.18
211.098	53.93
211.316	-60.76
211.535	31.4
211.753	66.22
211.972	55.98
212.191	35.5
212.409	51.88
212.628	66.22
212.846	23.21
213.065	-3.41
213.283	109.22
213.502	39.59
213.72	53.93
213.938	84.65
214.157	25.26
214.375	68.27
214.594	90.79
214.812	64.17
215.031	6.83
215.249	31.4
215.467	74.41
215.686	88.75
215.904	66.22
216.122	103.08
216.341	199.34
216.559	82.6
216.778	131.75
216.996	84.65
217.214	103.08
217.432	-17.75
217.651	-25.94
217.869	68.27
218.087	72.36
218.306	10.92
218.524	76.46
218.742	25.26
218.96	164.52
219.179	27.31
219.397	12.97
219.615	158.38
219.833	115.37
220.051	-81.24
220.27	107.18
220.488	201.38
220.706	51.88
220.924	27.31
221.142	-62.8
221.36	15.02
221.578	90.79
221.796	-36.18
222.015	90.79
222.233	43.69
222.451	225.96
222.669	-9.56
222.887	103.08
223.105	70.31
223.323	17.07
223.541	-15.7
223.759	94.89
223.977	19.11
224.195	144.04
224.413	37.55
224.631	129.7
224.849	111.27
225.067	281.25
225.285	29.35
225.503	43.69
225.721	-38.23
225.939	60.07
226.157	70.31
226.375	260.77
226.592	4.78
226.81	92.84
227.028	88.75
227.246	111.27
227.464	96.94
227.682	160.42
227.9	-50.52
228.117	45.74
228.335	144.04
228.553	88.75
228.771	58.03
228.989	115.37
229.206	125.61
229.424	27.31
229.642	-9.56
229.86	33.45
230.077	158.38
230.295	86.7
230.513	160.42
230.731	31.4
230.948	141.99
231.166	182.95
231.384	39.59
231.601	-17.75
231.819	172.71
232.037	41.64
232.254	23.21
232.472	15.02
232.689	45.74
232.907	125.61
233.125	88.75
233.342	31.4
233.56	64.17
233.777	37.55
233.995	-15.7
234.213	84.65
234.43	70.31
234.648	19.11
234.865	58.03
235.083	45.74
235.3	27.31
235.518	94.89
235.735	144.04
235.953	113.32
236.17	49.83
236.388	-17.75
236.605	115.37
236.822	74.41
237.04	133.8
237.257	70.31
237.475	-25.94
237.692	76.46
237.909	49.83
238.127	80.55
238.344	70.31
238.562	0.68
238.779	-25.94
238.996	-21.85
239.214	96.94
239.431	113.32
239.648	15.02
239.865	121.51
240.083	144.04
240.3	27.31
240.517	-3.41
240.735	86.7
240.952	252.58
241.169	43.69
241.386	133.8
241.603	135.85
241.821	49.83
242.038	105.13
242.255	86.7
242.472	-81.24
242.689	144.04
242.907	101.03
243.124	66.22
243.341	96.94
243.558	27.31
243.775	-30.04
243.992	-44.37
244.209	98.99
244.426	176.81
244.643	117.42
244.86	-9.56
245.078	111.27
245.295	121.51
245.512	-44.37
245.729	27.31
245.946	113.32
246.163	90.79
246.38	72.36
246.597	113.32
246.814	10.92
247.031	27.31
247.248	86.7
247.464	94.89
247.681	117.42
247.898	72.36
248.115	135.85
248.332	-60.76
248.549	133.8
248.766	141.99
248.983	60.07
249.2	103.08
249.417	150.18
249.633	62.12
249.85	90.79
250.067	96.94
250.284	62.12
250.501	125.61
250.717	27.31
250.934	-30.04
251.151	45.74
251.368	55.98
251.585	111.27
251.801	-5.46
252.018	-97.62
252.235	133.8
252.451	-32.08
252.668	-7.51
252.885	125.61
253.102	135.85
253.318	12.97
253.535	84.65
253.752	-13.65
253.968	68.27
254.185	8.87
254.401	58.03
254.618	113.32
254.835	51.88
255.051	178.86
255.268	96.94
255.484	33.45
255.701	37.55
255.917	144.04
256.134	-27.99
256.351	55.98
256.567	-5.46
256.784	17.07
257	-42.32
257.217	127.66
257.433	49.83
257.65	78.51
257.866	139.94
258.082	-27.99
258.299	10.92
258.515	80.55
258.732	23.21
258.948	8.87
259.165	62.12
259.381	74.41
259.597	68.27
259.814	-5.46
260.03	6.83
260.246	23.21
260.463	152.23
260.679	166.57
260.895	70.31
261.112	66.22
261.328	31.4
261.544	58.03
261.761	119.46
261.977	31.4
262.193	51.88
262.409	107.18
262.626	90.79
262.842	82.6
263.058	-1.37
263.274	168.62
263.49	162.47
263.707	29.35
263.923	101.03
264.139	-81.24
264.355	141.99
264.571	141.99
264.787	60.07
265.004	150.18
265.22	141.99
265.436	-3.41
265.652	-23.89
265.868	78.51
266.084	-87.38
266.3	78.51
266.516	-5.46
266.732	146.09
266.948	117.42
267.164	35.5
267.38	131.75
267.596	160.42
267.812	209.58
268.028	94.89
268.244	33.45
268.46	78.51
268.676	55.98
268.892	168.62
269.108	33.45
269.324	-11.61
269.54	8.87
269.756	135.85
269.972	17.07
270.188	37.55
270.403	-3.41
270.619	31.4
270.835	193.19
271.051	2.73
271.267	-30.04
271.483	29.35
271.698	107.18
271.914	53.93
272.13	39.59
272.346	12.97
272.562	96.94
272.777	133.8
272.993	23.21
273.209	6.83
273.425	170.66
273.64	-32.08
273.856	98.99
274.072	-54.61
274.287	-7.51
274.503	84.65
274.719	115.37
274.934	33.45
275.15	-50.52
275.366	86.7
275.581	17.07
275.797	-21.85
276.012	47.79
276.228	74.41
276.444	82.6
276.659	121.51
276.875	-25.94
277.09	49.83
277.306	-5.46
277.521	107.18
277.737	17.07
277.952	68.27
278.168	53.93
278.383	129.7
278.599	60.07
278.814	162.47
279.03	-36.18
279.245	176.81
279.461	90.79
279.676	121.51
279.892	-34.13
280.107	-9.56
280.322	-34.13
280.538	115.37
280.753	53.93
280.969	19.11
281.184	160.42
281.399	158.38
281.615	53.93
281.83	105.13
282.045	-87.38
282.26	2.73
282.476	80.55
282.691	90.79
282.906	127.66
283.122	68.27
283.337	-21.85
283.552	66.22
283.767	-11.61
283.983	125.61
284.198	-32.08
284.413	25.26
284.628	6.83
284.843	76.46
285.058	45.74
285.274	2.73
285.489	-23.89
285.704	146.09
285.919	39.59
286.134	68.27
286.349	27.31
286.564	64.17
286.779	154.28
286.995	25.26
287.21	0.68
287.425	139.94
287.64	-3.41
287.855	125.61
288.07	-3.41
288.285	92.84
288.5	172.71
288.715	45.74
288.93	35.5
289.145	45.74
289.36	174.76
289.575	45.74
289.79	154.28
290.004	103.08
290.219	131.75
290.434	29.35
290.649	10.92
290.864	-21.85
291.079	107.18
291.294	64.17
291.509	135.85
291.724	29.35
291.938	74.41
292.153	66.22
292.368	35.5
292.583	135.85
292.798	152.23
293.012	113.32
293.227	131.75
293.442	37.55
293.657	101.03
293.871	123.56
294.086	55.98
294.301	180.9
294.516	129.7
294.73	66.22
294.945	-48.47
295.16	17.07
295.374	74.41
295.589	70.31
295.804	-23.89
296.018	29.35
296.233	96.94
296.447	60.07
296.662	88.75
296.877	156.33
297.091	170.66
297.306	8.87
297.52	37.55
297.735	101.03
297.949	60.07
298.164	74.41
298.378	133.8
298.593	-44.37
298.807	64.17
299.022	49.83
299.236	178.86
299.451	31.4
299.665	70.31
299.88	43.69
300.094	35.5
300.309	15.02
300.523	72.36
300.737	82.6
300.952	117.42
301.166	74.41
301.381	37.55
301.595	58.03
301.809	66.22
302.024	62.12
302.238	27.31
302.452	137.9
302.667	92.84
302.881	209.58
303.095	80.55
303.309	60.07
303.524	31.4
303.738	-25.94
303.952	8.87
304.166	19.11
304.381	-23.89
304.595	195.24
304.809	-19.8
305.023	72.36
305.237	55.98
305.452	88.75
305.666	86.7
305.88	107.18
306.094	125.61
306.308	137.9
306.522	109.22
306.736	199.34
306.95	62.12
307.164	80.55
307.379	49.83
307.593	129.7
307.807	150.18
308.021	92.84
308.235	111.27
308.449	-114
308.663	45.74
308.877	225.96
309.091	58.03
309.305	80.55
309.519	-85.33
309.733	178.86
309.947	-30.04
310.161	88.75
310.374	72.36
310.588	193.19
310.802	-15.7
311.016	-42.32
311.23	49.83
311.444	47.79
311.658	27.31
311.872	168.62
312.085	195.24
312.299	176.81
312.513	156.33
312.727	43.69
312.941	60.07
313.154	51.88
313.368	111.27
313.582	43.69
313.796	82.6
314.009	76.46
314.223	129.7
314.437	101.03
314.651	154.28
314.864	39.59
315.078	-79.19
315.292	8.87
315.505	53.93
315.719	43.69
315.933	80.55
316.146	88.75
316.36	17.07
316.573	82.6
316.787	37.55
317.001	113.32
317.214	4.78
317.428	10.92
317.641	17.07
317.855	17.07
318.068	84.65
318.282	86.7
318.495	223.91
318.709	55.98
318.922	117.42
319.136	88.75
319.349	129.7
319.563	29.35
319.776	41.64
319.99	-1.37
320.203	111.27
320.417	41.64
320.63	154.28
320.843	172.71
321.057	60.07
321.27	53.93
321.483	53.93
321.697	154.28
321.91	23.21
322.124	125.61
322.337	86.7
322.55	0.68
322.763	6.83
322.977	141.99
323.19	-3.41
323.403	125.61
323.617	105.13
323.83	119.46
324.043	15.02
324.256	133.8
324.469	-42.32
324.683	78.51
324.896	72.36
325.109	98.99
325.322	-30.04
325.535	125.61
325.748	94.89
325.962	21.16
326.175	68.27
326.388	92.84
326.601	154.28
326.814	37.55
327.027	103.08
327.24	150.18
327.453	15.02
327.666	84.65
327.879	133.8
328.092	92.84
328.305	182.95
328.518	-9.56
328.731	10.92
328.944	47.79
329.157	119.46
329.37	78.51
329.583	264.87
329.796	193.19
330.009	-46.42
330.222	139.94
330.435	90.79
330.648	84.65
330.861	72.36
331.073	60.07
331.286	127.66
331.499	78.51
331.712	2.73
331.925	-48.47
332.138	-36.18
332.35	213.67
332.563	45.74
332.776	123.56
332.989	0.68
333.202	-13.65
333.414	111.27
333.627	80.55
333.84	60.07
334.053	98.99
334.265	76.46
334.478	35.5
334.691	58.03
334.903	37.55
335.116	66.22
335.329	80.55
335.541	23.21
335.754	113.32
335.966	27.31
336.179	25.26
336.392	105.13
336.604	-1.37
336.817	121.51
337.029	27.31
337.242	58.03
337.454	121.51
337.667	49.83
337.88	127.66
338.092	53.93
338.305	78.51
338.517	-25.94
338.729	92.84
338.942	193.19
339.154	-9.56
339.367	-13.65
339.579	51.88
339.792	58.03
340.004	43.69
340.217	49.83
340.429	31.4
340.641	2.73
340.854	4.78
341.066	-5.46
341.278	191.14
341.491	232.1
341.703	64.17
341.915	-50.52
342.128	148.14
342.34	33.45
342.552	-44.37
342.764	70.31
342.977	2.73
343.189	76.46
343.401	78.51
343.613	-81.24
343.826	121.51
344.038	37.55
344.25	-7.51
344.462	74.41
344.674	109.22
344.886	25.26
345.099	88.75
345.311	47.79
345.523	51.88
345.735	31.4
345.947	49.83
346.159	4.78
346.371	29.35
346.583	-19.8
346.795	248.49
347.007	41.64
347.219	98.99
347.431	19.11
347.643	152.23
347.855	90.79
348.067	199.34
348.279	-27.99
348.491	66.22
348.703	197.29
348.915	27.31
349.127	-5.46
349.339	37.55
349.551	-27.99
349.763	21.16
349.975	66.22
350.187	92.84
350.399	154.28
350.61	12.97
350.822	43.69
351.034	139.94
351.246	25.26
351.458	103.08
351.669	156.33
351.881	119.46
352.093	148.14
352.305	174.76
352.517	101.03
352.728	156.33
352.94	31.4
353.152	109.22
353.363	-48.47
353.575	94.89
353.787	105.13
353.999	66.22
354.21	137.9
354.422	-19.8
354.633	78.51
354.845	21.16
355.057	82.6
355.268	121.51
355.48	137.9
355.692	-44.37
355.903	82.6
356.115	12.97
356.326	-71
356.538	217.77
356.749	123.56
356.961	127.66
357.172	58.03
357.384	27.31
357.595	248.49
357.807	60.07
358.018	-50.52
358.23	35.5
358.441	133.8
358.653	105.13
358.864	47.79
359.075	17.07
359.287	133.8
359.498	129.7
359.709	144.04
359.921	64.17
360.132	43.69
360.344	64.17
360.555	-34.13
360.766	98.99
360.977	31.4
361.189	131.75
361.4	125.61
361.611	103.08
361.823	201.38
362.034	0.68
362.245	-15.7
362.456	141.99
362.667	127.66
362.879	-19.8
363.09	115.37
363.301	98.99
363.512	23.21
363.723	64.17
363.935	90.79
364.146	191.14
364.357	70.31
364.568	86.7
364.779	-66.9
364.99	207.53
365.201	31.4
365.412	197.29
365.623	-34.13
365.834	131.75
366.045	68.27
366.256	117.42
366.467	72.36
366.678	92.84
366.889	107.18
367.1	-32.08
367.311	105.13
367.522	23.21
367.733	201.38
367.944	117.42
368.155	47.79
368.366	135.85
368.577	139.94
368.788	152.23
368.999	-50.52
369.209	6.83
369.42	174.76
369.631	285.35
369.842	74.41
370.053	47.79
370.264	156.33
370.474	-58.71
370.685	121.51
370.896	27.31
371.107	115.37
371.317	135.85
371.528	76.46
371.739	64.17
371.95	96.94
372.16	8.87
372.371	-38.23
372.582	109.22
372.792	148.14
373.003	66.22
373.214	96.94
373.424	211.62
373.635	31.4
373.846	170.66
374.056	-5.46
374.267	166.57
374.477	117.42
374.688	4.78
374.898	84.65
375.109	68.27
375.319	10.92
375.53	117.42
375.74	170.66
375.951	-30.04
376.161	103.08
376.372	111.27
376.582	66.22
376.793	117.42
377.003	27.31
377.214	-34.13
377.424	41.64
377.635	66.22
377.845	25.26
378.055	162.47
378.266	35.5
378.476	115.37
378.686	156.33
378.897	94.89
379.107	168.62
379.317	162.47
379.528	21.16
379.738	154.28
379.948	-13.65
380.158	39.59
380.369	141.99
380.579	88.75
380.789	88.75
380.999	72.36
381.21	84.65
381.42	162.47
381.63	6.83
381.84	117.42
382.05	109.22
382.261	174.76
382.471	115.37
382.681	10.92
382.891	98.99
383.101	119.46
383.311	55.98
383.521	-32.08
383.731	76.46
383.941	113.32
384.151	55.98
384.361	15.02
384.571	150.18
384.781	111.27
384.991	230.06
385.201	166.57
385.411	150.18
385.621	154.28
385.831	39.59
386.041	78.51
386.251	45.74
386.461	80.55
386.671	70.31
386.881	72.36
387.091	111.27
387.301	150.18
387.511	39.59
387.72	174.76
387.93	84.65
388.14	-50.52
388.35	76.46
388.56	146.09
388.769	148.14
388.979	127.66
389.189	41.64
389.399	27.31
389.609	113.32
389.818	174.76
390.028	121.51
390.238	68.27
390.447	98.99
390.657	96.94
390.867	51.88
391.076	-71
391.286	92.84
391.496	127.66
391.705	101.03
391.915	98.99
392.125	121.51
392.334	25.26
392.544	152.23
392.753	119.46
392.963	31.4
393.172	131.75
393.382	45.74
393.591	213.67
393.801	17.07
394.01	96.94
394.22	123.56
394.429	68.27
394.639	131.75
394.848	105.13
395.058	39.59
395.267	31.4
395.477	115.37
395.686	133.8
395.895	195.24
396.105	291.49
396.314	92.84
396.524	15.02
396.733	55.98
396.942	35.5
397.152	90.79
397.361	189.1
397.57	86.7
397.78	94.89
397.989	168.62
398.198	197.29
398.407	98.99
398.617	90.79
398.826	92.84
399.035	25.26
399.244	129.7
399.453	82.6
399.663	64.17
399.872	66.22
400.081	29.35
400.29	238.25
400.499	-34.13
400.708	98.99
400.917	53.93
401.127	96.94
401.336	23.21
401.545	232.1
401.754	98.99
401.963	121.51
402.172	123.56
402.381	-23.89
402.59	35.5
402.799	94.89
403.008	111.27
403.217	78.51
403.426	101.03
403.635	-25.94
403.844	53.93
404.053	19.11
404.262	35.5
404.471	148.14
404.68	80.55
404.888	37.55
405.097	31.4
405.306	58.03
405.515	107.18
405.724	49.83
405.933	133.8
406.142	49.83
406.35	148.14
406.559	72.36
406.768	98.99
406.977	168.62
407.185	152.23
407.394	162.47
407.603	10.92
407.812	78.51
408.02	211.62
408.229	47.79
408.438	90.79
408.646	21.16
408.855	51.88
409.064	152.23
409.272	-64.85
409.481	76.46
409.69	8.87
409.898	-85.33
410.107	107.18
410.315	158.38
410.524	2.73
410.733	141.99
410.941	98.99
411.15	74.41
411.358	133.8
411.567	74.41
411.775	92.84
411.984	72.36
412.192	121.51
412.401	-54.61
412.609	105.13
412.818	133.8
413.026	137.9
413.234	55.98
413.443	10.92
413.651	80.55
413.86	-3.41
414.068	111.27
414.276	250.53
414.485	80.55
414.693	148.14
414.901	203.43
415.11	172.71
415.318	78.51
415.526	70.31
415.734	62.12
415.943	80.55
416.151	205.48
416.359	55.98
416.567	213.67
416.776	137.9
416.984	105.13
417.192	213.67
417.4	68.27
417.608	17.07
417.817	10.92
418.025	154.28
418.233	182.95
418.441	-5.46
418.649	2.73
418.857	82.6
419.065	94.89
419.273	39.59
419.481	45.74
419.689	68.27
419.897	2.73
420.105	-38.23
420.313	144.04
420.521	158.38
420.729	148.14
420.937	-3.41
421.145	-44.37
421.353	174.76
421.561	131.75
421.769	27.31
421.977	-13.65
422.185	131.75
422.393	105.13
422.601	98.99
422.809	62.12
423.017	115.37
423.224	154.28
423.432	133.8
423.64	92.84
423.848	148.14
424.056	-21.85
424.263	164.52
424.471	74.41
424.679	230.06
424.887	72.36
425.094	191.14
425.302	117.42
425.51	84.65
425.718	92.84
425.925	215.72
426.133	76.46
426.341	228.01
426.548	144.04
426.756	68.27
426.964	201.38
427.171	62.12
427.379	98.99
427.586	131.75
427.794	127.66
428.001	213.67
428.209	139.94
428.417	211.62
428.624	174.76
428.832	182.95
429.039	115.37
429.247	176.81
429.454	172.71
429.662	264.87
429.869	152.23
430.076	164.52
430.284	225.96
430.491	328.36
430.699	260.77
430.906	287.4
431.114	172.71
431.321	213.67
431.528	103.08
431.736	213.67
431.943	264.87
432.15	260.77
432.358	182.95
432.565	266.92
432.772	62.12
432.979	311.97
433.187	103.08
433.394	258.73
433.601	172.71
433.808	230.06
434.016	232.1
434.223	273.06
434.43	242.34
434.637	281.25
434.844	320.17
435.052	322.21
435.259	277.16
435.466	395.94
435.673	271.01
435.88	314.02
436.087	420.52
436.294	367.27
436.501	385.7
436.708	279.21
436.915	381.6
437.122	397.99
437.329	314.02
437.537	416.42
437.743	451.24
437.95	518.82
438.157	402.08
438.364	486.05
438.571	467.62
438.778	443.04
438.985	471.72
439.192	563.87
439.399	539.3
439.606	453.28
439.813	524.96
440.02	705.18
440.227	756.38
440.433	660.13
440.64	668.32
440.847	662.18
441.054	709.28
441.261	883.36
441.467	735.9
441.674	756.38
441.881	832.16
442.088	780.96
442.294	817.82
442.501	934.56
442.708	991.9
442.914	895.64
443.121	871.07
443.328	957.08
443.534	1094.3
443.741	989.85
443.948	996
444.154	1106.59
444.361	1270.42
444.568	1114.78
444.774	1170.07
444.981	1213.08
445.187	1383.06
445.394	1368.73
445.6	1401.49
445.807	1567.38
446.013	1444.5
446.22	1450.64
446.426	1745.55
446.633	1804.94
446.839	1886.86
447.046	1673.87
447.252	1897.1
447.459	1856.14
447.665	1985.16
447.871	2044.56
448.078	2329.22
448.284	2214.54
448.491	2300.55
448.697	2513.54
448.903	2484.87
449.11	2574.98
449.316	2574.98
449.522	2865.79
449.728	2853.5
449.935	2906.75
450.141	2992.76
450.347	3269.24
450.553	3125.88
450.76	3213.95
450.966	3381.88
451.172	3410.55
451.378	3572.34
451.584	3725.94
451.791	3988.08
451.997	4192.87
452.203	4242.03
452.409	4502.12
452.615	4481.64
452.821	4414.06
453.027	4514.41
453.233	5116.51
453.44	4883.04
453.646	5202.52
453.852	5331.55
454.058	5722.71
454.264	5714.52
454.47	6367.82
454.676	6220.36
454.882	6687.3
455.088	6572.61
455.294	6666.82
455.5	7137.85
455.705	7690.81
455.911	7821.88
456.117	7821.88
456.323	8028.72
456.529	8172.08
456.735	9118.24
456.941	9046.56
457.147	9480.73
457.352	9605.66
457.558	9914.9
457.764	10754.57
457.97	11037.19
458.176	11319.81
458.381	11833.85
458.587	12018.16
458.793	12517.87
458.999	12702.18
459.204	14238.16
459.41	14830.02
459.616	14694.86
459.821	15204.8
460.027	16101.81
460.233	16452.02
460.438	17082.79
460.644	17887.64
460.85	17963.42
461.055	18809.23
461.261	19652.99
461.466	19163.53
461.672	19638.65
461.878	21956.96
462.083	21590.37
462.289	21995.87
462.494	22843.73
462.7	22923.6
462.905	23306.57
463.111	25497.89
463.316	26360.09
463.522	27040.01
463.727	27902.21
463.932	29143.28
464.138	29829.35
464.343	31144.14
464.549	31158.48
464.754	33558.7
464.959	34576.54
465.165	35152.02
465.37	34754.71
465.575	34787.48
465.781	36993.14
465.986	38494.3
466.191	37464.18
466.397	37955.69
466.602	37167.22
466.807	38813.79
467.012	39899.21
467.218	40409.15
467.423	40751.16
467.628	41943.08
467.833	43788.3
468.038	42780.7
468.244	42448.93
468.449	44457.99
468.654	43741.2
468.859	43456.53
469.064	43638.8
469.269	42641.44
469.474	43143.19
469.679	43958.28
469.885	42616.86
470.09	42991.64
470.295	43595.79
470.5	42659.87
470.705	42997.79
470.91	41848.88
471.115	41633.84
471.32	42358.82
471.525	41867.31
471.73	40654.91
471.935	40419.39
472.139	38834.27
472.344	39260.24
472.549	38783.07
472.754	38000.74
472.959	37099.64
473.164	36055.17
473.369	35647.63
473.574	36411.52
473.778	35756.17
473.983	35014.8
474.188	34699.42
474.393	33015.99
474.598	32747.7
474.802	32039.11
475.007	31946.95
475.212	31760.58
475.417	30335.2
475.621	29794.53
475.826	29526.25
476.031	28825.84
476.235	28387.58
476.44	28494.07
476.645	27484.42
476.849	27318.54
477.054	26890.51
477.259	26333.46
477.463	26257.69
477.668	25577.76
477.872	25487.65
478.077	24873.26
478.282	24193.34
478.486	23877.95
478.691	23591.23
478.895	23554.37
479.1	23361.86
479.304	23152.97
479.509	22333.78
479.713	22649.17
479.918	21926.24
480.122	21682.53
480.326	21746.01
480.531	21813.6
480.735	21277.03
480.94	20894.06
481.144	21844.32
481.348	20603.25
481.553	20713.84
481.757	20152.7
481.961	20367.73
482.166	20748.65
482.37	20468.08
482.574	19845.5
482.778	19741.05
482.983	20095.35
483.187	19704.19
483.391	19609.98
483.595	19415.43
483.8	18721.16
484.004	19032.46
484.208	18874.76
484.412	18639.25
484.616	18766.22
484.821	18514.32
485.025	17498.53
485.229	18313.62
485.433	17428.9
485.637	17564.06
485.841	17209.76
486.045	17002.92
486.249	16951.72
486.453	16548.27
486.657	16466.35
486.861	16314.8
487.065	15548.86
487.269	15632.83
487.473	15133.12
487.677	15428.03
487.881	15368.64
488.085	14844.36
488.289	14680.52
488.493	14287.31
488.697	14072.28
488.901	14068.18
489.105	13636.06
489.309	13382.11
489.512	13265.38
489.716	12939.75
489.92	12685.8
490.124	12376.56
490.328	12288.5
490.531	12020.21
490.735	12229.1
490.939	11704.82
491.143	11241.98
491.346	11254.27
491.55	11158.02
491.754	10985.99
491.958	10818.05
492.161	10545.67
492.365	10422.8
492.569	10150.42
492.772	10088.98
492.976	10179.09
493.18	9941.52
493.383	9892.37
493.587	9853.46
493.79	9581.08
493.994	9388.57
494.197	9359.9
494.401	9275.93
494.605	9064.99
494.808	9259.55
495.012	8935.97
495.215	8960.55
495.419	9161.25
495.622	8665.64
495.825	8835.62
496.029	8624.68
496.232	8907.3
496.436	8573.48
496.639	8704.55
496.843	8684.07
497.046	8673.83
497.249	8886.82
497.453	8606.25
497.656	8694.31
497.859	8618.54
498.063	8759.84
498.266	8921.63
498.469	8614.44
498.673	8630.82
498.876	8731.17
499.079	8921.63
499.282	8788.52
499.485	9196.06
499.689	8923.68
499.892	9103.9
500.095	9087.52
500.298	9411.1
500.501	9179.68
500.705	9490.97
500.908	9400.86
501.111	9658.9
501.314	9613.85
501.517	9869.84
501.72	9693.72
501.923	9769.49
502.126	10074.64
502.329	10246.67
502.532	10205.71
502.735	10430.99
502.938	10570.25
503.141	10533.39
503.344	10773
503.547	10785.29
503.75	10766.85
503.953	11026.95
504.156	11373.05
504.359	11465.21
504.562	11661.82
504.765	11887.09
504.968	12089.84
505.17	12237.3
505.373	12366.32
505.576	12638.7
505.779	12734.95
505.982	12861.93
506.185	13240.8
506.387	13341.15
506.59	13693.4
506.793	13887.96
506.996	13881.81
507.198	14512.59
507.401	14686.67
507.604	15073.73
507.807	15489.47
508.009	15462.85
508.212	15870.39
508.415	16249.27
508.617	16529.84
508.82	16804.27
509.022	16824.75
509.225	17539.49
509.428	17865.11
509.63	18428.31
509.833	18602.38
510.035	19337.6
510.238	19304.84
510.44	19917.18
510.643	20230.52
510.845	20744.56
511.048	21154.15
511.25	21674.34
511.453	21893.47
511.655	23171.4
511.858	22903.12
512.06	23300.42
512.262	23789.89
512.465	24447.29
512.667	25159.98
512.87	25915.68
513.072	26300.7
513.274	26990.86
513.477	27597.06
513.679	28145.92
513.881	28610.81
514.084	29192.43
514.286	29972.71
514.488	30302.43
514.69	31625.42
514.893	32215.23
515.095	32272.57
515.297	33460.4
515.499	33964.2
515.701	34455.71
515.904	35291.28
516.106	36368.51
516.308	36982.9
516.51	37699.69
516.712	38318.18
516.914	39129.17
517.116	39921.74
517.318	40486.98
517.52	41119.8
517.722	41836.59
517.925	42604.58
518.127	43366.42
518.329	44292.1
518.531	44384.26
518.733	45481.97
518.935	46274.54
519.136	46743.52
519.338	47534.04
519.54	48578.5
519.742	49242.04
519.944	49725.36
520.146	50972.58
520.348	51279.77
520.55	51877.78
520.752	52375.44
520.954	53397.37
521.155	53706.62
521.357	54364.01
521.559	55068.51
521.761	55850.84
521.963	56049.49
522.164	56565.58
522.366	57075.52
522.568	57761.59
522.77	58216.24
522.971	58896.17
523.173	58173.24
523.375	58900.26
523.576	58801.96
523.778	59119.4
523.98	60186.39
524.181	60184.34
524.383	60268.31
524.584	60831.5
524.786	60718.86
524.988	60624.65
525.189	61095.69
525.391	61390.59
525.592	60935.94
525.794	61208.32
525.995	60477.2
526.197	61079.3
526.398	60915.47
526.6	61112.07
526.801	61013.77
527.003	60720.91
527.204	60647.18
527.406	61011.72
527.607	60593.93
527.808	60350.23
528.01	59135.78
528.211	59248.42
528.412	59418.4
528.614	58781.48
528.815	58918.7
529.016	58611.5
529.218	57319.23
529.419	57159.49
529.62	56958.79
529.822	56567.63
530.023	55940.95
530.224	55609.18
530.425	54830.95
530.626	54038.39
530.828	53368.7
531.029	54140.78
531.23	52924.29
531.431	52209.55
531.632	51785.62
531.833	51367.83
532.035	50786.21
532.236	50323.37
532.437	49422.26
532.638	48787.39
532.839	48959.42
533.04	48082.89
533.241	46792.67
533.442	47009.76
533.643	45991.92
533.844	45389.81
534.045	45266.94
534.246	44204.04
534.447	44240.9
534.648	43493.4
534.849	43374.61
535.05	42111.02
535.251	41529.39
535.451	41361.46
535.652	40554.56
535.853	39843.91
536.054	39467.09
536.255	38844.51
536.456	38166.63
536.657	38475.87
536.857	37462.13
537.058	36995.19
537.259	36855.93
537.46	36182.15
537.66	35557.52
537.861	35289.23
538.062	34672.79
538.263	34373.79
538.463	33869.99
538.664	33175.73
538.865	32952.5
539.065	32796.85
539.266	32090.3
539.466	32211.14
539.667	31240.4
539.868	31232.21
540.068	30273.76
540.269	30327
540.469	30175.45
540.67	29729
540.87	29323.5
541.071	28782.84
541.271	28518.65
541.472	28588.28
541.672	27947.26
541.873	27353.35
542.073	27046.16
542.274	27334.92
542.474	26775.83
542.675	26417.43
542.875	26216.73
543.075	25661.73
543.276	25112.88
543.476	25446.69
543.676	25026.86
543.877	24699.19
544.077	24521.01
544.277	24326.46
544.478	23613.76
544.678	24011.07
544.878	23464.26
545.078	23308.61
545.279	22604.11
545.479	22274.39
545.679	22475.09
545.879	21946.72
546.079	21815.65
546.28	21623.14
546.48	21264.74
546.68	21092.71
546.88	21174.63
547.08	20560.24
547.28	20361.59
547.48	19921.27
547.68	19945.85
547.88	19364.23
548.081	19403.14
548.281	19134.85
548.481	18696.59
548.681	18747.79
548.881	18661.77
549.081	18522.51
549.28	17891.74
549.48	17789.34
549.68	17609.12
549.88	17688.99
550.08	16843.18
550.28	16978.34
550.48	16624.04
550.68	16265.65
550.88	16175.54
551.08	15706.56
551.279	15712.7
551.479	15278.53
551.679	15249.86
551.879	15012.29
552.079	14848.46
552.278	14336.46
552.478	14551.5
552.678	14254.55
552.878	14113.24
553.077	13742.55
553.277	13509.08
553.477	13461.98
553.676	13302.24
553.876	12835.3
554.076	12567.02
554.275	12423.66
554.475	12157.43
554.674	12335.6
554.874	11807.22
555.074	11741.69
555.273	11649.53
555.473	11491.84
555.672	11151.87
555.872	11188.74
556.071	11037.19
556.271	10670.6
556.47	10531.34
556.67	10107.41
556.869	10129.94
557.068	10078.74
557.268	9810.45
557.467	9755.16
557.667	9640.47
557.866	9310.75
558.065	9325.08
558.265	9009.7
558.464	8905.25
558.663	8960.55
558.863	8557.1
559.062	8524.33
559.261	8231.47
559.461	8411.69
559.66	8241.71
559.859	8030.77
560.058	7701.05
560.258	7830.07
560.457	7692.85
560.656	7647.8
560.855	7381.56
561.054	7371.32
561.253	6988.35
561.453	6969.92
561.652	7152.19
561.851	6885.95
562.05	6619.72
562.249	6476.36
562.448	6601.29
562.647	6261.32
562.846	6238.8
563.045	6341.19
563.244	6048.33
563.443	6206.03
563.642	5974.61
563.841	5861.97
564.04	5790.29
564.239	5583.45
564.438	5509.72
564.637	5653.08
564.836	5493.33
565.035	5405.27
565.234	5321.31
565.432	5304.92
565.631	5225.05
565.83	5223
566.029	5026.4
566.228	4899.42
566.427	4940.38
566.625	4801.12
566.824	4758.11
567.023	4782.69
567.222	4438.63
567.42	4561.51
567.619	4612.71
567.818	4563.56
568.016	4352.62
568.215	4309.61
568.414	4297.32
568.612	4158.06
568.811	4242.03
569.01	3889.78
569.208	3926.64
569.407	3947.12
569.605	3928.69
569.804	3822.19
570.002	3721.84
570.201	3668.59
570.4	3713.65
570.598	3660.4
570.797	3646.07
570.995	3525.24
571.193	3474.04
571.392	3482.23
571.59	3273.34
571.789	3381.88
571.987	3299.96
572.186	3275.38
572.384	3123.84
572.582	3117.69
572.781	3160.7
572.979	3019.39
573.177	3005.05
573.376	3041.92
573.574	2984.57
573.772	2802.3
573.971	2738.82
574.169	2790.02
574.367	2749.06
574.565	2660.99
574.763	2654.85
574.962	2636.42
575.16	2521.73
575.358	2556.55
575.556	2560.64
575.754	2433.67
575.952	2306.7
576.151	2333.32
576.349	2325.13
576.547	2239.11
576.745	2208.39
576.943	2253.45
577.141	2230.92
577.339	2122.38
577.537	2173.58
577.735	2243.21
577.933	2069.13
578.131	2019.98
578.329	2110.09
578.527	2005.64
578.725	1972.88
578.923	1878.67
579.121	2056.84
579.319	1731.22
579.516	1946.25
579.714	1954.44
579.912	1727.12
580.11	1708.69
580.308	1723.02
580.506	1694.35
580.704	1528.47
580.901	1624.72
581.099	1690.26
581.297	1561.23
581.495	1575.57
581.692	1481.36
581.89	1626.77
582.088	1536.66
582.285	1460.88
582.483	1524.37
582.681	1479.32
582.878	1444.5
583.076	1417.88
583.274	1444.5
583.471	1520.28
583.669	1321.62
583.866	1100.44
584.064	1364.63
584.262	1256.09
584.459	1215.13
584.657	1237.66
584.854	1264.28
585.052	1280.66
585.249	1235.61
585.447	1211.03
585.644	1034.91
585.841	1170.07
586.039	1186.46
586.236	1235.61
586.434	1051.29
586.631	1024.67
586.828	963.23
587.026	1174.17
587.223	1075.87
587.42	996
587.618	1057.43
587.815	1108.63
588.012	1018.52
588.21	1036.95
588.407	1010.33
588.604	1057.43
588.801	1000.09
588.999	920.22
589.196	1104.54
589.393	852.64
589.59	948.89
589.787	1061.53
589.984	846.49
590.182	981.66
590.379	840.35
590.576	979.61
590.773	922.27
590.97	871.07
591.167	969.37
591.364	846.49
591.561	879.26
591.758	983.71
591.955	881.31
592.152	975.52
592.349	850.59
592.546	846.49
592.743	746.14
592.94	826.01
593.137	965.28
593.334	922.27
593.531	903.84
593.727	791.2
593.924	901.79
594.121	832.16
594.318	869.02
594.515	819.87
594.712	952.99
594.908	936.6
595.105	897.69
595.302	889.5
595.499	959.13
595.696	1065.63
595.892	969.37
596.089	1053.34
596.286	895.64
596.482	1079.96
596.679	1053.34
596.876	1098.39
597.072	1088.15
597.269	1034.91
597.466	1151.64
597.662	1188.5
597.859	1149.59
598.055	1196.7
598.252	1317.53
598.448	1249.94
598.645	1391.25
598.841	1403.54
599.038	1544.85
599.234	1505.94
599.431	1682.06
599.627	1612.43
599.824	1632.91
600.02	1688.21
600.217	1782.42
600.413	1841.81
600.609	1786.51
600.806	2194.06
601.002	2022.03
601.198	2060.94
601.395	2302.6
601.591	2267.78
601.787	2448.01
601.984	2458.25
602.18	2478.72
602.376	2628.23
602.572	2816.64
602.769	2830.98
602.965	2994.81
603.161	3119.74
603.357	3218.04
603.553	3291.77
603.75	3230.33
603.946	3521.14
604.142	3635.83
604.338	3869.3
604.534	3719.79
604.73	3977.84
604.926	3926.64
605.122	4137.58
605.318	4219.5
605.514	4381.29
605.71	4551.27
605.906	4731.49
606.102	4903.52
606.298	5032.54
606.494	5032.54
606.69	5431.9
606.886	5493.33
607.082	5548.63
607.278	5718.61
607.474	5993.04
607.67	6011.47
607.866	6179.4
608.062	6552.13
608.257	6644.29
608.453	6498.89
608.649	6900.29
608.845	7070.27
609.041	7207.48
609.236	7557.69
609.432	7752.24
609.628	7959.09
609.824	8333.87
610.019	8364.59
610.215	8682.02
610.411	8854.05
610.606	8970.79
610.802	9343.52
610.998	9284.12
611.193	9824.79
611.389	9847.32
611.584	9990.67
611.78	10410.51
611.976	10799.62
612.171	11184.64
612.367	11405.82
612.562	11809.27
612.758	11729.4
612.953	12141.04
613.149	12780.01
613.344	12886.5
613.539	13267.42
613.735	13412.83
613.93	14076.37
614.126	14266.83
614.321	14967.24
614.517	15288.77
614.712	15722.94
614.907	15757.75
615.103	16228.79
615.298	16374.19
615.493	17099.17
615.688	17437.09
615.884	18301.33
616.079	18178.45
616.274	19095.94
616.47	19345.8
616.665	19569.02
616.86	20287.86
617.055	20722.03
617.25	21311.85
617.445	21897.56
617.641	22151.51
617.836	23136.59
618.031	23077.19
618.226	24070.46
618.421	24486.2
618.616	25489.7
618.811	25334.06
619.006	26718.48
619.201	26646.8
619.396	27685.12
619.591	27308.3
619.786	28672.25
619.981	28770.55
620.176	29487.34
620.371	30001.38
620.566	31090.9
620.761	31832.26
620.956	32448.7
621.151	32587.96
621.346	33665.19
621.541	33734.82
621.735	35244.18
621.93	35278.99
622.125	36259.97
622.32	36343.94
622.515	37425.26
622.709	37566.57
622.904	38742.11
623.099	39286.87
623.294	40423.49
623.488	40261.7
623.683	41523.25
623.878	41627.7
624.072	42616.86
624.267	43282.45
624.462	44005.39
624.656	44040.2
624.851	44941.31
625.046	45658.1
625.24	45950.96
625.435	46663.65
625.629	47435.73
625.824	47964.11
626.018	48682.95
626.213	48627.65
626.407	49690.55
626.602	49625.01
626.796	50853.79
626.991	51687.32
627.185	51582.87
627.38	52031.38
627.574	52039.57
627.768	52428.68
627.963	52367.24
628.157	52469.64
628.352	53102.46
628.546	52553.61
628.74	52924.29
628.935	52754.31
629.129	53174.14
629.323	52293.52
629.517	52694.92
629.712	52262.8
629.906	51931.03
630.1	51138.46
630.294	51318.68
630.489	50395.05
630.683	49891.25
630.877	48656.32
631.071	48476.1
631.265	47589.33
631.459	46634.98
631.653	45623.28
631.848	44699.65
632.042	43536.4
632.236	42958.88
632.43	41447.47
632.624	40890.43
632.818	39223.38
633.012	38000.74
633.206	37259.38
633.4	36505.73
633.594	34529.44
633.788	33810.6
633.982	32401.6
634.176	31283.41
634.369	30195.93
634.563	28864.75
634.757	27668.74
634.951	27111.69
635.145	26050.85
635.339	24807.73
635.533	23875.9
635.726	23114.06
635.92	21653.86
636.114	21313.89
636.308	20046.2
636.501	19442.05
636.695	18692.49
636.889	17707.42
637.083	17279.4
637.276	16320.95
637.47	15655.36
637.664	15366.59
637.857	14770.63
638.051	14135.76
638.244	13414.88
638.438	12761.58
638.632	12554.73
638.825	11760.12
639.019	11473.4
639.212	10979.84
639.406	10572.3
639.599	10295.82
639.793	9810.45
639.986	9286.17
640.18	9097.76
640.373	8661.54
640.567	8348.2
640.76	7854.64
640.954	7844.4
641.147	7350.84
641.34	7113.28
641.534	6756.93
641.727	6564.42
641.92	6359.63
642.114	6228.56
642.307	5720.66
642.5	5651.03
642.694	5397.08
642.887	4977.25
643.08	5036.64
643.273	4794.98
643.467	4610.66
643.66	4469.35
643.853	4266.6
644.046	4149.87
644.239	3904.11
644.432	3830.38
644.626	3525.24
644.819	3549.81
645.012	3398.26
645.205	3314.3
645.398	3244.67
645.591	3086.97
645.784	2808.45
645.977	2859.65
646.17	2673.28
646.363	2617.99
646.556	2568.84
646.749	2359.94
646.942	2382.47
647.135	2165.39
647.328	2165.39
647.521	2062.99
647.714	1976.97
647.907	1995.4
648.099	1811.09
648.292	1798.8
648.485	1749.65
648.678	1684.11
648.871	1643.15
649.064	1634.96
649.256	1452.69
649.449	1350.29
649.642	1368.73
649.835	1211.03
650.027	1362.58
650.22	1317.53
650.413	1161.88
650.605	1149.59
650.798	1102.49
650.991	1045.15
651.183	1108.63
651.376	1063.58
651.568	1034.91
651.761	977.56
651.954	942.75
652.146	866.97
652.339	879.26
652.531	948.89
652.724	877.21
652.916	797.34
653.109	617.12
653.301	862.88
653.494	869.02
653.686	748.19
653.879	789.15
654.071	686.75
654.263	623.27
654.456	502.44
654.648	686.75
654.84	647.84
655.033	625.31
655.225	690.85
655.417	461.48
655.61	604.83
655.802	549.54
655.994	686.75
656.186	516.77
656.379	619.17
656.571	434.85
656.763	453.28
656.955	375.46
657.148	357.03
657.34	486.05
657.532	414.37
657.724	348.84
657.916	469.67
658.108	555.68
658.3	447.14
658.492	492.2
658.684	357.03
658.876	514.72
659.068	354.98
659.26	250.53
659.452	357.03
659.644	449.19
659.836	451.24
660.028	416.42
660.22	271.01
660.412	352.93
660.604	348.84
660.796	311.97
660.988	268.97
661.18	369.32
661.372	330.41
661.563	242.34
661.755	324.26
661.947	250.53
662.139	240.3
662.331	301.73
662.522	334.5
662.714	203.43
662.906	213.67
663.097	271.01
663.289	250.53
663.481	207.53
663.673	289.45
663.864	258.73
664.056	318.12
664.247	262.82
664.439	338.6
664.631	287.4
664.822	348.84
665.014	262.82
665.205	209.58
665.397	176.81
665.588	273.06
665.78	244.39
665.971	316.07
666.163	164.52
666.354	285.35
666.546	152.23
666.737	291.49
666.929	266.92
667.12	246.44
667.311	240.3
667.503	174.76
667.694	295.59
667.885	250.53
668.077	332.45
668.268	199.34
668.459	281.25
668.651	322.21
668.842	271.01
669.033	197.29
669.224	154.28
669.416	408.23
669.607	242.34
669.798	101.03
669.989	336.55
670.18	301.73
670.371	336.55
670.563	268.97
670.754	375.46
670.945	307.88
671.136	404.13
671.327	250.53
671.518	387.75
671.709	385.7
671.9	397.99
672.091	391.84
672.282	275.11
672.473	273.06
672.664	225.96
672.855	279.21
673.046	291.49
673.237	367.27
673.428	350.89
673.619	426.66
673.809	338.6
674	432.8
674.191	316.07
674.382	301.73
674.573	344.74
674.764	295.59
674.954	459.43
675.145	330.41
675.336	285.35
675.527	344.74
675.717	314.02
675.908	293.54
676.099	363.17
676.289	309.93
676.48	207.53
676.671	375.46
676.861	338.6
677.052	320.17
677.243	385.7
677.433	273.06
677.624	481.96
677.814	338.6
678.005	484
678.195	502.44
678.386	348.84
678.576	393.89
678.767	400.04
678.957	363.17
679.148	514.72
679.338	563.87
679.529	471.72
679.719	455.33
679.909	588.45
680.1	656.03
680.29	484
680.481	418.47
680.671	635.55
680.861	443.04
681.052	443.04
681.242	477.86
681.432	574.11
681.622	592.55
681.813	361.13
682.003	383.65
682.193	445.09
682.383	436.9
682.573	553.63
682.764	512.67
682.954	518.82
683.144	561.83
683.334	514.72
683.524	504.48
683.714	522.91
683.904	553.63
684.094	514.72
684.284	502.44
684.474	662.18
684.664	553.63
684.854	613.03
685.044	563.87
685.234	570.02
685.424	629.41
685.614	580.26
685.804	694.94
685.994	510.63
686.184	553.63
686.374	524.96
686.564	613.03
686.753	598.69
686.943	420.52
687.133	518.82
687.323	490.15
687.513	660.13
687.702	543.39
687.892	649.89
688.082	604.83
688.272	639.65
688.461	600.74
688.651	651.94
688.841	651.94
689.03	510.63
689.22	520.87
689.41	555.68
689.599	574.11
689.789	549.54
689.979	635.55
690.168	475.81
690.358	600.74
690.547	451.24
690.737	539.3
690.926	541.35
691.116	567.97
691.305	553.63
691.495	545.44
691.684	463.52
691.874	488.1
692.063	477.86
692.252	457.38
692.442	606.88
692.631	412.32
692.82	385.7
693.01	508.58
693.199	488.1
693.388	559.78
693.578	510.63
693.767	496.29
693.956	516.77
694.146	467.62
694.335	428.71
694.524	471.72
694.713	535.2
694.902	494.24
695.092	441
695.281	557.73
695.47	481.96
695.659	410.28
695.848	502.44
696.037	486.05
696.226	451.24
696.415	432.8
696.604	508.58
696.793	504.48
696.982	406.18
697.171	723.62
697.36	379.56
697.549	496.29
697.738	369.32
697.927	428.71
698.116	484
698.305	502.44
698.494	492.2
698.683	406.18
698.872	578.21
699.061	486.05
699.25	393.89
699.438	516.77
699.627	365.22
699.816	596.64
700.005	404.13
700.193	414.37
700.382	498.34
700.571	496.29
700.76	473.76
700.948	561.83
701.137	514.72
701.326	469.67
701.514	348.84
701.703	477.86
701.892	477.86
702.08	613.03
702.269	344.74
702.457	397.99
702.646	438.95
702.834	473.76
703.023	481.96
703.212	508.58
703.4	400.04
703.589	365.22
703.777	426.66
703.965	297.64
704.154	371.37
704.342	393.89
704.531	469.67
704.719	385.7
704.907	426.66
705.096	381.6
705.284	363.17
705.472	471.72
705.661	436.9
705.849	441
706.037	533.15
706.226	477.86
706.414	381.6
706.602	432.8
706.79	518.82
706.979	354.98
707.167	367.27
707.355	402.08
707.543	473.76
707.731	385.7
707.919	445.09
708.107	441
708.296	357.03
708.484	309.93
708.672	445.09
708.86	389.8
709.048	369.32
709.236	361.13
709.424	445.09
709.612	367.27
709.8	359.08
709.988	324.26
710.176	514.72
710.364	430.76
710.551	379.56
710.739	371.37
710.927	361.13
711.115	428.71
711.303	432.8
711.491	498.34
711.679	400.04
711.866	436.9
712.054	371.37
712.242	447.14
712.43	457.38
712.617	418.47
712.805	535.2
712.993	375.46
713.181	268.97
713.368	426.66
713.556	369.32
713.744	424.61
713.931	561.83
714.119	522.91
714.306	297.64
714.494	443.04
714.682	318.12
714.869	334.5
715.057	424.61
715.244	293.54
715.432	481.96
715.619	301.73
715.807	377.51
715.994	408.23
716.182	402.08
716.369	471.72
716.556	455.33
716.744	248.49
716.931	340.65
717.119	514.72
717.306	447.14
717.493	492.2
717.681	359.08
717.868	420.52
718.055	457.38
718.242	369.32
718.43	387.75
718.617	361.13
718.804	416.42
718.991	559.78
719.179	535.2
719.366	533.15
719.553	498.34
719.74	455.33
719.927	393.89
720.114	424.61
720.301	391.84
720.488	332.45
720.676	402.08
720.863	477.86
721.05	596.64
721.237	496.29
721.424	477.86
721.611	412.32
721.798	393.89
721.985	438.95
722.172	385.7
722.358	512.67
722.545	475.81
722.732	533.15
722.919	613.03
723.106	443.04
723.293	492.2
723.48	488.1
723.667	506.53
723.853	479.91
724.04	531.11
724.227	537.25
724.414	385.7
724.6	496.29
724.787	504.48
724.974	682.66
725.161	461.48
725.347	490.15
725.534	400.04
725.72	535.2
725.907	520.87
726.094	455.33
726.28	459.43
726.467	545.44
726.653	400.04
726.84	586.4
727.027	635.55
727.213	453.28
727.4	516.77
727.586	481.96
727.773	471.72
727.959	395.94
728.145	469.67
728.332	449.19
728.518	500.39
728.705	537.25
728.891	502.44
729.077	467.62
729.264	527.01
729.45	504.48
729.636	510.63
729.823	527.01
730.009	580.26
730.195	498.34
730.382	514.72
730.568	453.28
730.754	426.66
730.94	522.91
731.126	475.81
731.313	588.45
731.499	447.14
731.685	592.55
731.871	531.11
732.057	524.96
732.243	527.01
732.429	547.49
732.615	584.35
732.801	473.76
732.987	477.86
733.173	522.91
733.359	518.82
733.545	488.1
733.731	488.1
733.917	563.87
734.103	471.72
734.289	625.31
734.475	410.28
734.661	637.6
734.847	563.87
735.033	555.68
735.219	631.46
735.404	502.44
735.59	410.28
735.776	522.91
735.962	494.24
736.148	563.87
736.333	608.93
736.519	553.63
736.705	504.48
736.89	598.69
737.076	541.35
737.262	412.32
737.447	377.51
737.633	510.63
737.819	619.17
738.004	471.72
738.19	567.97
738.375	496.29
738.561	563.87
738.747	533.15
738.932	408.23
739.118	678.56
739.303	598.69
739.489	514.72
739.674	559.78
739.859	441
740.045	621.22
740.23	576.16
740.416	357.03
740.601	516.77
740.786	541.35
740.972	465.57
741.157	465.57
741.342	432.8
741.528	402.08
741.713	584.35
741.898	471.72
742.084	537.25
742.269	484
742.454	561.83
742.639	506.53
742.824	557.73
743.01	617.12
743.195	729.76
743.38	543.39
743.565	447.14
743.75	529.06
743.935	555.68
744.12	684.7
744.305	430.76
744.49	430.76
744.675	432.8
744.86	438.95
745.045	537.25
745.23	486.05
745.415	373.41
745.6	541.35
745.785	459.43
745.97	547.49
746.155	586.4
746.34	543.39
746.525	531.11
746.71	600.74
746.895	332.45
747.079	334.5
747.264	383.65
747.449	518.82
747.634	543.39
747.819	471.72
748.003	492.2
748.188	393.89
748.373	475.81
748.557	422.56
748.742	334.5
748.927	414.37
749.111	502.44
749.296	357.03
749.481	406.18
749.665	471.72
749.85	350.89
750.034	447.14
750.219	455.33
750.404	436.9
750.588	449.19
750.773	430.76
750.957	387.75
751.141	408.23
751.326	414.37
751.51	334.5
751.695	381.6
751.879	340.65
752.064	563.87
752.248	377.51
752.432	469.67
752.617	492.2
752.801	469.67
752.985	371.37
753.17	449.19
753.354	344.74
753.538	428.71
753.722	277.16
753.907	271.01
754.091	271.01
754.275	385.7
754.459	260.77
754.643	228.01
754.828	414.37
755.012	391.84
755.196	234.15
755.38	420.52
755.564	264.87
755.748	352.93
755.932	389.8
756.116	397.99
756.3	395.94
756.484	219.82
756.668	363.17
756.852	201.38
757.036	320.17
757.22	326.31
757.404	285.35
757.588	281.25
757.772	336.55
757.956	293.54
758.14	381.6
758.323	354.98
758.507	322.21
758.691	260.77
758.875	311.97
759.059	416.42
759.242	232.1
759.426	230.06
759.61	305.83
759.794	217.77
759.977	348.84
760.161	504.48
760.345	346.79
760.528	324.26
760.712	275.11
760.895	348.84
761.079	248.49
761.263	158.38
761.446	262.82
761.63	252.58
761.813	365.22
761.997	268.97
762.18	301.73
762.364	260.77
762.547	191.14
762.731	219.82
762.914	256.68
763.098	225.96
763.281	324.26
763.464	166.57
763.648	240.3
763.831	172.71
764.015	230.06
764.198	273.06
764.381	242.34
764.564	217.77
764.748	223.91
764.931	260.77
765.114	236.2
765.297	242.34
765.481	150.18
765.664	219.82
765.847	154.28
766.03	318.12
766.213	170.66
766.397	205.48
766.58	123.56
766.763	236.2
766.946	164.52
767.129	176.81
767.312	135.85
767.495	205.48
767.678	162.47
767.861	162.47
768.044	248.49
768.227	127.66
768.41	199.34
768.593	242.34
768.776	236.2
768.959	174.76
769.142	258.73
769.324	193.19
769.507	201.38
769.69	131.75
769.873	51.88
770.056	334.5
770.239	268.97
770.421	291.49
770.604	236.2
770.787	180.9
770.97	119.46
771.152	78.51
771.335	193.19
771.518	119.46
771.7	266.92
771.883	379.56
772.066	141.99
772.248	123.56
772.431	283.3
772.613	283.3
772.796	86.7
772.978	125.61
773.161	252.58
773.343	152.23
773.526	88.75
773.708	51.88
773.891	19.11
774.073	103.08
774.256	162.47
774.438	336.55
774.621	103.08
774.803	205.48
774.985	107.18
775.168	121.51
775.35	133.8
775.532	207.53
775.715	150.18
775.897	170.66
776.079	76.46
776.261	129.7
776.444	123.56
776.626	131.75
776.808	168.62
776.99	12.97
777.173	47.79
777.355	144.04
777.537	139.94
777.719	144.04
777.901	137.9
778.083	148.14
778.265	107.18
778.447	180.9
778.629	76.46
778.811	121.51
778.993	240.3
779.175	182.95
779.357	168.62
779.539	96.94
779.721	82.6
779.903	103.08
780.085	29.35
780.267	166.57
780.449	193.19
780.631	187.05
780.812	217.77
780.994	103.08
781.176	148.14
781.358	62.12
781.54	162.47
781.721	191.14
781.903	180.9
782.085	131.75
782.267	144.04
782.448	84.65
782.63	4.78
782.812	103.08
782.993	158.38
783.175	199.34
783.357	37.55
783.538	119.46
783.72	-7.51
783.901	76.46
784.083	127.66
784.264	129.7
784.446	12.97
784.627	4.78
784.809	160.42
784.99	21.16
785.172	127.66
785.353	-15.7
785.535	90.79
785.716	103.08
785.897	-1.37
786.079	41.64
786.26	29.35
786.441	90.79
786.623	-13.65
786.804	45.74
786.985	103.08
787.167	84.65
787.348	25.26
787.529	144.04
787.71	182.95
787.891	139.94
788.073	10.92
788.254	35.5
788.435	156.33
788.616	55.98
788.797	31.4
788.978	35.5
789.159	115.37
789.34	115.37
789.522	129.7
789.703	107.18
789.884	84.65
790.065	125.61
790.246	238.25
790.427	41.64
790.607	197.29
790.788	139.94
790.969	-58.71
791.15	137.9
791.331	21.16
791.512	53.93
791.693	45.74
791.874	21.16
792.054	195.24
792.235	191.14
792.416	37.55
792.597	-21.85
792.778	113.32
792.958	-27.99
793.139	129.7
793.32	-7.51
793.5	4.78
793.681	152.23
793.862	125.61
794.042	-36.18
794.223	-9.56
794.404	45.74
794.584	10.92
794.765	90.79
794.945	55.98
795.126	96.94
795.306	117.42
795.487	58.03
795.667	55.98
795.848	80.55
796.028	-32.08
796.209	86.7
796.389	105.13
796.57	55.98
796.75	-11.61
796.93	33.45
797.111	-32.08
797.291	51.88
797.471	154.28
797.652	37.55
797.832	41.64
798.012	45.74
798.192	37.55
798.373	4.78
798.553	21.16
798.733	156.33
798.913	-52.56
799.093	21.16
799.274	70.31
799.454	117.42
799.634	51.88
799.814	111.27
799.994	129.7
800.174	86.7
800.354	103.08
800.534	-71
800.714	103.08
800.894	0.68
801.074	-68.95
801.254	8.87
801.434	170.66
801.614	39.59
801.794	55.98
801.974	1798.8
802.154	70.31
802.334	92.84
802.514	-1.37
802.693	92.84
802.873	23.21
803.053	146.09
803.233	160.42
803.413	-19.8
803.592	8.87
803.772	68.27
803.952	-5.46
804.131	-25.94
804.311	86.7
804.491	29.35
804.67	29.35
804.85	51.88
805.03	62.12
805.209	55.98
805.389	-32.08
805.568	12.97
805.748	41.64
805.928	33.45
806.107	160.42
806.287	29.35
806.466	113.32
806.646	8.87
806.825	6.83
807.004	58.03
807.184	88.75
807.363	-5.46
807.543	31.4
807.722	-9.56
807.901	72.36
808.081	62.12
808.26	-91.48
808.439	51.88
808.619	-25.94
808.798	39.59
808.977	53.93
809.156	139.94
809.336	33.45
809.515	55.98
809.694	10.92
809.873	15.02
810.052	58.03
810.231	139.94
810.411	0.68
810.59	107.18
810.769	53.93
810.948	74.41
811.127	-116.05
811.306	17.07
811.485	72.36
811.664	166.57
811.843	68.27
812.022	10.92
812.201	-30.04
812.38	64.17
812.559	60.07
812.737	103.08
812.916	-56.66
813.095	49.83
813.274	105.13
813.453	-11.61
813.632	47.79
813.811	135.85
813.989	-42.32
814.168	62.12
814.347	-3.41
814.526	17.07
814.704	172.71
814.883	156.33
815.062	31.4
815.24	152.23
815.419	-9.56
815.598	60.07
815.776	-136.53
815.955	15.02
816.133	-25.94
816.312	84.65
816.49	-23.89
816.669	55.98
816.847	33.45
817.026	164.52
817.204	62.12
817.383	76.46
817.561	-79.19
817.74	55.98
817.918	123.56
818.097	12.97
818.275	-11.61
818.453	21.16
818.632	135.85
818.81	-7.51
818.988	-9.56
819.167	-7.51
819.345	21.16
819.523	-77.14
819.701	-52.56
819.879	94.89
820.058	-9.56
820.236	72.36
820.414	-13.65
820.592	-64.85
820.77	23.21
820.948	-13.65
821.127	-109.91
821.305	31.4
821.483	-1.37
821.661	121.51
821.839	72.36
822.017	-17.75
822.195	64.17
822.373	94.89
822.551	78.51
822.729	88.75
822.907	68.27
823.085	37.55
823.262	-23.89
823.44	-58.71
823.618	62.12
823.796	12.97
823.974	2.73
824.152	-66.9
824.329	-5.46
824.507	64.17
824.685	109.22
824.863	2.73
825.04	-27.99
825.218	135.85
825.396	105.13
825.574	86.7
825.751	21.16
825.929	66.22
826.107	-40.28
826.284	49.83
826.462	55.98
826.639	60.07
826.817	31.4
826.994	-25.94
827.172	-32.08
827.349	6.83
827.527	37.55
827.704	39.59
827.882	166.57
828.059	6.83
828.237	-15.7
828.414	96.94
828.591	-83.28
828.769	64.17
828.946	17.07
829.124	88.75
829.301	101.03
829.478	35.5
829.655	37.55
829.833	45.74
830.01	-50.52
830.187	47.79
830.364	-46.42
830.542	-42.32
830.719	158.38
830.896	84.65
831.073	37.55
831.25	35.5
831.427	25.26
831.604	-93.52
831.782	-64.85
831.959	88.75
832.136	105.13
832.313	58.03
832.49	-1.37
832.667	60.07
832.844	-19.8
833.021	92.84
833.198	-15.7
833.374	-25.94
833.551	21.16
833.728	-68.95
833.905	43.69
834.082	-56.66
834.259	78.51
834.436	158.38
834.612	-52.56
834.789	78.51
834.966	55.98
835.143	68.27
835.319	-42.32
835.496	-9.56
835.673	-3.41
835.85	68.27
836.026	35.5
836.203	101.03
836.38	10.92
836.556	64.17
836.733	0.68
836.909	58.03
837.086	-73.04
837.262	-71
837.439	-13.65
837.616	-93.52
837.792	76.46
837.968	21.16
838.145	-27.99
838.321	6.83
838.498	15.02
838.674	58.03
838.851	39.59
839.027	-93.52
839.203	90.79
839.38	72.36
839.556	-81.24
839.732	66.22
839.909	-9.56
840.085	45.74
840.261	-54.61
840.437	49.83
840.614	-58.71
840.79	39.59
840.966	137.9
841.142	70.31
841.318	60.07
841.494	70.31
841.671	101.03
841.847	-40.28
842.023	-34.13
842.199	94.89
842.375	141.99
842.551	-91.48
842.727	72.36
842.903	76.46
843.079	-62.8
843.255	201.38
843.431	72.36
843.607	12.97
843.783	-97.62
843.959	21.16
844.134	43.69
844.31	84.65
844.486	-40.28
844.662	-5.46
844.838	47.79
845.013	66.22
845.189	62.12
845.365	21.16
845.541	29.35
845.716	70.31
845.892	139.94
846.068	6.83
846.244	21.16
846.419	55.98
846.595	-9.56
846.77	-60.76
846.946	119.46
847.122	33.45
847.297	2.73
847.473	78.51
847.648	-15.7
847.824	66.22
847.999	-73.04
848.175	51.88
848.35	31.4
848.526	189.1
848.701	150.18
848.876	133.8
849.052	90.79
849.227	33.45
849.403	-17.75
849.578	45.74
849.753	86.7
849.929	-3.41
850.104	-15.7
850.279	0.68
850.454	21.16
850.63	41.64
850.805	74.41
850.98	29.35
851.155	-5.46
851.33	62.12
851.505	-93.52
851.681	117.42
851.856	-54.61
852.031	70.31
852.206	55.98
852.381	-11.61
852.556	23.21
852.731	66.22
852.906	68.27
853.081	119.46
853.256	58.03
853.431	-38.23
853.606	-1.37
853.781	-71
853.956	-99.67
854.131	4.78
854.305	-66.9
854.48	8.87
854.655	-9.56
854.83	-36.18
855.005	-62.8
855.18	21.16
855.354	55.98
855.529	25.26
855.704	19.11
855.879	125.61
856.053	72.36
856.228	60.07
856.403	82.6
856.577	78.51
856.752	-52.56
856.926	119.46
857.101	121.51
857.276	-85.33
857.45	37.55
857.625	-5.46
857.799	86.7
857.974	45.74
858.148	-122.2
858.323	113.32
858.497	-17.75
858.672	43.69
858.846	-27.99
859.02	45.74
859.195	-56.66
859.369	-3.41
859.543	45.74
859.718	45.74
859.892	-13.65
860.066	58.03
860.241	-34.13
860.415	-42.32
860.589	-5.46
860.763	8.87
860.938	-46.42
861.112	29.35
861.286	-46.42
861.46	45.74
861.634	31.4
861.808	49.83
861.982	-1.37
862.157	-64.85
862.331	-5.46
862.505	-87.38
862.679	-79.19
862.853	-34.13
863.027	80.55
863.201	84.65
863.375	-42.32
863.549	19.11
863.722	51.88
863.896	31.4
864.07	-58.71
864.244	29.35
864.418	135.85
864.592	43.69
864.766	25.26
864.939	8.87
865.113	-34.13
865.287	4.78
865.461	-42.32
865.634	66.22
865.808	-5.46
865.982	-75.09
866.156	-7.51
866.329	-56.66
866.503	10.92
866.676	109.22
866.85	17.07
867.024	19.11
867.197	58.03
867.371	33.45
867.544	60.07
867.718	-99.67
867.891	84.65
868.065	-54.61
868.238	0.68
868.412	55.98
868.585	19.11
868.759	-38.23
868.932	58.03
869.105	-52.56
869.279	43.69
869.452	-52.56
869.625	70.31
869.799	33.45
869.972	-99.67
870.145	-25.94
870.319	72.36
870.492	-44.37
870.665	74.41
870.838	-17.75
871.011	-130.39
871.185	-23.89
871.358	-56.66
871.531	49.83
871.704	-5.46
871.877	41.64
872.05	-15.7
872.223	-56.66
872.396	43.69
872.569	12.97
872.742	-66.9
872.915	35.5
873.088	-58.71
873.261	23.21
873.434	45.74
873.607	-9.56
873.78	137.9
873.953	-50.52
874.126	10.92
874.299	21.16
874.471	23.21
874.644	35.5
874.817	29.35
874.99	148.14
875.163	6.83
875.335	119.46
875.508	35.5
875.681	172.71
875.853	-23.89
876.026	6.83
876.199	76.46
876.371	60.07
876.544	12.97
876.717	82.6
876.889	-17.75
877.062	2.73
877.234	-97.62
877.407	6.83
877.579	21.16
877.752	-1.37
877.924	72.36
878.097	111.27
878.269	-9.56
878.442	53.93
878.614	45.74
878.786	49.83
878.959	19.11
879.131	45.74
879.303	-85.33
879.476	-25.94
879.648	133.8
879.82	55.98
879.993	-68.95
880.165	39.59
880.337	-101.72
880.509	-5.46
880.681	-114
880.854	-91.48
881.026	62.12
881.198	191.14
881.37	23.21
881.542	-9.56
881.714	-95.57
881.886	-30.04
882.058	-40.28
882.23	55.98
882.402	-25.94
882.574	-17.75
882.746	21.16
882.918	117.42
883.09	-48.47
883.262	109.22
883.434	0.68
883.606	-152.91
883.778	58.03
883.95	90.79
884.122	-11.61
884.293	113.32
884.465	101.03
884.637	92.84
884.809	-19.8
884.98	74.41
885.152	17.07
885.324	33.45
885.496	-66.9
885.667	10.92
885.839	-30.04
886.011	109.22
886.182	92.84
886.354	47.79
886.525	47.79
886.697	0.68
886.869	2.73
887.04	29.35
887.212	133.8
887.383	164.52
887.555	51.88
887.726	21.16
887.897	-46.42
888.069	-17.75
888.24	74.41
888.412	31.4
888.583	12.97
888.754	-44.37
888.926	-15.7
889.097	-13.65
889.268	-50.52
889.44	0.68
889.611	-38.23
889.782	-85.33
889.953	45.74
890.125	152.23
890.296	-42.32
890.467	-11.61
890.638	0.68
890.809	-5.46
890.98	33.45
891.151	29.35
891.323	49.83
891.494	66.22
891.665	39.59
891.836	33.45
892.007	23.21
892.178	53.93
892.349	21.16
892.52	-32.08
892.691	6.83
892.862	-13.65
893.032	-60.76
893.203	-7.51
893.374	60.07
893.545	66.22
893.716	-42.32
893.887	72.36
894.057	-54.61
894.228	23.21
894.399	-40.28
894.57	47.79
894.74	-27.99
894.911	33.45
895.082	-38.23
895.253	-58.71
895.423	17.07
895.594	62.12
895.764	55.98
895.935	-7.51
896.106	49.83
896.276	-83.28
896.447	86.7
896.617	-19.8
896.788	-101.72
896.958	-54.61
897.129	-71
897.299	-30.04
897.47	103.08
897.64	125.61
897.81	0.68
897.981	64.17
898.151	21.16
898.322	-7.51
898.492	58.03
898.662	-42.32
898.832	-21.85
899.003	4.78
899.173	-71
899.343	-101.72
899.513	-3.41
