Data from USB4F104151__161__11-04-42-936.txt Node

Date: Wed Feb 26 11:04:42 EST 2025
User: louis
Spectrometer: USB4F10415
Trigger mode: 4
Integration Time (sec): 1.000000E-1
Scans to average: 1
Electric dark correction enabled: true
Nonlinearity correction enabled: false
Boxcar width: 0
XAxis mode: Wavelengths
Number of Pixels in Spectrum: 3648
>>>>>Begin Spectral Data<<<<<
178.204	-392.87
178.424	-392.87
178.644	-392.87
178.864	-351.91
179.084	-423.59
179.304	14.68
179.524	18.77
179.744	2.39
179.964	-59.05
180.184	43.35
180.404	61.78
180.624	31.06
180.844	-26.28
181.064	-97.96
181.283	4.44
181.503	-36.52
181.723	43.35
181.943	-50.86
182.163	221.52
182.383	12.63
182.602	59.73
182.822	94.55
183.042	80.21
183.262	20.82
183.482	67.92
183.701	-9.9
183.921	18.77
184.141	49.49
184.361	49.49
184.58	96.6
184.8	84.31
185.02	-26.28
185.239	155.99
185.459	59.73
185.679	141.65
185.898	-54.95
186.118	29.01
186.338	84.31
186.557	82.26
186.777	-26.28
186.997	-50.86
187.216	78.16
187.436	256.34
187.655	45.4
187.875	51.54
188.095	55.64
188.314	252.24
188.534	84.31
188.753	8.53
188.973	141.65
189.192	168.27
189.412	0.34
189.631	37.2
189.851	80.21
190.07	104.79
190.29	-57
190.509	18.77
190.729	14.68
190.948	106.84
191.168	287.06
191.387	-13.99
191.607	69.97
191.826	139.6
192.045	88.4
192.265	-44.71
192.484	121.17
192.704	57.68
192.923	-42.67
193.142	141.65
193.362	88.4
193.581	78.16
193.8	115.03
194.02	129.36
194.239	80.21
194.458	76.12
194.678	2.39
194.897	29.01
195.116	121.17
195.335	51.54
195.555	98.64
195.774	-30.38
195.993	155.99
196.212	29.01
196.432	108.88
196.651	-16.04
196.87	49.49
197.089	250.19
197.308	67.92
197.528	135.51
197.747	-57
197.966	33.11
198.185	102.74
198.404	8.53
198.623	104.79
198.842	139.6
199.062	158.03
199.281	117.08
199.5	88.4
199.719	145.75
199.938	65.88
200.157	149.84
200.376	211.28
200.595	149.84
200.814	61.78
201.033	67.92
201.252	145.75
201.471	59.73
201.69	98.64
201.909	24.92
202.128	164.18
202.347	108.88
202.566	67.92
202.785	-38.57
203.004	92.5
203.223	264.53
203.442	96.6
203.661	29.01
203.879	170.32
204.098	194.9
204.317	37.2
204.536	115.03
204.755	121.17
204.974	145.75
205.193	35.16
205.411	92.5
205.63	96.6
205.849	94.55
206.068	31.06
206.287	-38.57
206.505	145.75
206.724	12.63
206.943	-46.76
207.162	-22.19
207.381	164.18
207.599	55.64
207.818	35.16
208.037	-3.75
208.255	98.64
208.474	57.68
208.693	129.36
208.911	108.88
209.13	51.54
209.349	145.75
209.567	80.21
209.786	45.4
210.005	182.61
210.223	12.63
210.442	-124.58
210.661	76.12
210.879	18.77
211.098	69.97
211.316	31.06
211.535	20.82
211.753	53.59
211.972	94.55
212.191	72.02
212.409	2.39
212.628	57.68
212.846	96.6
213.065	10.58
213.283	160.08
213.502	55.64
213.72	53.59
213.938	-3.75
214.157	94.55
214.375	102.74
214.594	4.44
214.812	35.16
215.031	10.58
215.249	29.01
215.467	-11.95
215.686	45.4
215.904	55.64
216.122	43.35
216.341	155.99
216.559	110.93
216.778	168.27
216.996	108.88
217.214	29.01
217.432	-20.14
217.651	51.54
217.869	69.97
218.087	18.77
218.306	-24.23
218.524	72.02
218.742	45.4
218.96	141.65
219.179	84.31
219.397	104.79
219.615	219.47
219.833	172.37
220.051	-85.67
220.27	112.98
220.488	55.64
220.706	100.69
220.924	76.12
221.142	-24.23
221.36	86.36
221.578	82.26
221.796	55.64
222.015	96.6
222.233	37.2
222.451	192.85
222.669	-30.38
222.887	147.8
223.105	55.64
223.323	33.11
223.541	-26.28
223.759	22.87
223.977	-24.23
224.195	188.75
224.413	96.6
224.631	86.36
224.849	61.78
225.067	158.03
225.285	-18.09
225.503	131.41
225.721	-63.15
225.939	24.92
226.157	141.65
226.375	235.86
226.592	69.97
226.81	-26.28
227.028	121.17
227.246	192.85
227.464	8.53
227.682	143.7
227.9	143.7
228.117	125.27
228.335	69.97
228.553	108.88
228.771	74.07
228.989	-20.14
229.206	106.84
229.424	4.44
229.642	88.4
229.86	-42.67
230.077	192.85
230.295	69.97
230.513	123.22
230.731	100.69
230.948	221.52
231.166	221.52
231.384	84.31
231.601	16.73
231.819	176.47
232.037	63.83
232.254	-7.85
232.472	51.54
232.689	-24.23
232.907	170.32
233.125	49.49
233.342	4.44
233.56	49.49
233.777	6.49
233.995	8.53
234.213	123.22
234.43	-24.23
234.648	-3.75
234.865	-3.75
235.083	26.96
235.3	55.64
235.518	158.03
235.735	133.46
235.953	26.96
236.17	90.45
236.388	106.84
236.605	45.4
236.822	90.45
237.04	155.99
237.257	72.02
237.475	-7.85
237.692	94.55
237.909	131.41
238.127	76.12
238.344	104.79
238.562	47.44
238.779	22.87
238.996	-83.63
239.214	69.97
239.431	151.89
239.648	-65.19
239.865	90.45
240.083	84.31
240.3	-1.71
240.517	24.92
240.735	18.77
240.952	170.32
241.169	61.78
241.386	49.49
241.603	55.64
241.821	-48.81
242.038	119.12
242.255	166.23
242.472	-48.81
242.689	92.5
242.907	67.92
243.124	72.02
243.341	82.26
243.558	-28.33
243.775	-44.71
243.992	-44.71
244.209	67.92
244.426	170.32
244.643	98.64
244.86	-16.04
245.078	104.79
245.295	47.44
245.512	55.64
245.729	0.34
245.946	57.68
246.163	51.54
246.38	51.54
246.597	57.68
246.814	22.87
247.031	74.07
247.248	35.16
247.464	112.98
247.681	33.11
247.898	141.65
248.115	106.84
248.332	-26.28
248.549	176.47
248.766	182.61
248.983	4.44
249.2	92.5
249.417	61.78
249.633	108.88
249.85	37.2
250.067	49.49
250.284	121.17
250.501	139.6
250.717	82.26
250.934	-9.9
251.151	115.03
251.368	-1.71
251.585	139.6
251.801	67.92
252.018	-59.05
252.235	133.46
252.451	-65.19
252.668	-50.86
252.885	110.93
253.102	31.06
253.318	10.58
253.535	63.83
253.752	-50.86
253.968	-1.71
254.185	-85.67
254.401	-11.95
254.618	127.32
254.835	39.25
255.051	117.08
255.268	67.92
255.484	98.64
255.701	147.8
255.917	67.92
256.134	65.88
256.351	-11.95
256.567	14.68
256.784	24.92
257	-26.28
257.217	145.75
257.433	115.03
257.65	49.49
257.866	168.27
258.082	-44.71
258.299	35.16
258.515	131.41
258.732	55.64
258.948	-16.04
259.165	112.98
259.381	-9.9
259.597	49.49
259.814	80.21
260.03	55.64
260.246	-52.91
260.463	110.93
260.679	172.37
260.895	47.44
261.112	76.12
261.328	29.01
261.544	39.25
261.761	153.94
261.977	24.92
262.193	-9.9
262.409	88.4
262.626	24.92
262.842	106.84
263.058	12.63
263.274	100.69
263.49	31.06
263.707	137.56
263.923	37.2
264.139	-57
264.355	37.2
264.571	108.88
264.787	61.78
265.004	121.17
265.22	33.11
265.436	35.16
265.652	-30.38
265.868	110.93
266.084	-36.52
266.3	59.73
266.516	37.2
266.732	45.4
266.948	35.16
267.164	0.34
267.38	121.17
267.596	84.31
267.812	196.95
268.028	16.73
268.244	102.74
268.46	39.25
268.676	88.4
268.892	82.26
269.108	35.16
269.324	20.82
269.54	37.2
269.756	121.17
269.972	-3.75
270.188	39.25
270.403	-13.99
270.619	39.25
270.835	24.92
271.051	33.11
271.267	20.82
271.483	59.73
271.698	88.4
271.914	121.17
272.13	96.6
272.346	55.64
272.562	119.12
272.777	170.32
272.993	2.39
273.209	72.02
273.425	86.36
273.64	-95.91
273.856	98.64
274.072	-46.76
274.287	6.49
274.503	63.83
274.719	84.31
274.934	8.53
275.15	-30.38
275.366	59.73
275.581	-26.28
275.797	18.77
276.012	41.3
276.228	-20.14
276.444	45.4
276.659	121.17
276.875	43.35
277.09	94.55
277.306	-16.04
277.521	96.6
277.737	39.25
277.952	108.88
278.168	33.11
278.383	100.69
278.599	59.73
278.814	117.08
279.03	-7.85
279.245	178.51
279.461	8.53
279.676	172.37
279.892	-1.71
280.107	76.12
280.322	-106.15
280.538	115.03
280.753	-22.19
280.969	82.26
281.184	37.2
281.399	170.32
281.615	86.36
281.83	82.26
282.045	-46.76
282.26	24.92
282.476	4.44
282.691	82.26
282.906	80.21
283.122	106.84
283.337	20.82
283.552	20.82
283.767	-9.9
283.983	88.4
284.198	-11.95
284.413	45.4
284.628	-46.76
284.843	12.63
285.058	176.47
285.274	26.96
285.489	41.3
285.704	74.07
285.919	4.44
286.134	39.25
286.349	57.68
286.564	-11.95
286.779	231.76
286.995	-22.19
287.21	86.36
287.425	86.36
287.64	0.34
287.855	-5.8
288.07	-77.48
288.285	88.4
288.5	203.09
288.715	76.12
288.93	26.96
289.145	80.21
289.36	49.49
289.575	29.01
289.79	168.27
290.004	-61.1
290.219	110.93
290.434	12.63
290.649	47.44
290.864	51.54
291.079	84.31
291.294	102.74
291.509	61.78
291.724	106.84
291.938	43.35
292.153	80.21
292.368	67.92
292.583	96.6
292.798	137.56
293.012	45.4
293.227	47.44
293.442	14.68
293.657	31.06
293.871	98.64
294.086	12.63
294.301	244.05
294.516	80.21
294.73	18.77
294.945	-40.62
295.16	16.73
295.374	131.41
295.589	94.55
295.804	29.01
296.018	53.59
296.233	84.31
296.447	35.16
296.662	55.64
296.877	178.51
297.091	98.64
297.306	8.53
297.52	-20.14
297.735	96.6
297.949	57.68
298.164	117.08
298.378	112.98
298.593	4.44
298.807	24.92
299.022	98.64
299.236	188.75
299.451	10.58
299.665	51.54
299.88	31.06
300.094	100.69
300.309	74.07
300.523	117.08
300.737	-20.14
300.952	117.08
301.166	26.96
301.381	24.92
301.595	49.49
301.809	-3.75
302.024	37.2
302.238	26.96
302.452	170.32
302.667	-52.91
302.881	168.27
303.095	112.98
303.309	90.45
303.524	24.92
303.738	16.73
303.952	-40.62
304.166	131.41
304.381	-108.2
304.595	125.27
304.809	74.07
305.023	51.54
305.237	-52.91
305.452	49.49
305.666	84.31
305.88	115.03
306.094	131.41
306.308	45.4
306.522	121.17
306.736	82.26
306.95	65.88
307.164	47.44
307.379	-50.86
307.593	182.61
307.807	172.37
308.021	51.54
308.235	119.12
308.449	-112.3
308.663	-11.95
308.877	252.24
309.091	166.23
309.305	131.41
309.519	-11.95
309.733	188.75
309.947	-79.53
310.161	108.88
310.374	53.59
310.588	92.5
310.802	31.06
311.016	76.12
311.23	100.69
311.444	37.2
311.658	59.73
311.872	37.2
312.085	104.79
312.299	172.37
312.513	127.32
312.727	106.84
312.941	-61.1
313.154	57.68
313.368	69.97
313.582	33.11
313.796	115.03
314.009	82.26
314.223	160.08
314.437	43.35
314.651	151.89
314.864	78.16
315.078	69.97
315.292	-18.09
315.505	110.93
315.719	117.08
315.933	47.44
316.146	59.73
316.36	-42.67
316.573	198.99
316.787	100.69
317.001	117.08
317.214	51.54
317.428	90.45
317.641	0.34
317.855	-38.57
318.068	65.88
318.282	104.79
318.495	151.89
318.709	164.18
318.922	39.25
319.136	196.95
319.349	137.56
319.563	-16.04
319.776	147.8
319.99	-24.23
320.203	131.41
320.417	86.36
320.63	127.32
320.843	174.42
321.057	72.02
321.27	53.59
321.483	53.59
321.697	133.46
321.91	102.74
322.124	143.7
322.337	63.83
322.55	22.87
322.763	43.35
322.977	67.92
323.19	-130.73
323.403	80.21
323.617	57.68
323.83	119.12
324.043	96.6
324.256	82.26
324.469	-5.8
324.683	110.93
324.896	-5.8
325.109	112.98
325.322	-26.28
325.535	98.64
325.748	125.27
325.962	63.83
326.175	100.69
326.388	162.13
326.601	88.4
326.814	43.35
327.027	125.27
327.24	198.99
327.453	-24.23
327.666	127.32
327.879	69.97
328.092	108.88
328.305	127.32
328.518	-50.86
328.731	-38.57
328.944	-30.38
329.157	125.27
329.37	78.16
329.583	237.91
329.796	112.98
330.009	-1.71
330.222	65.88
330.435	94.55
330.648	108.88
330.861	35.16
331.073	115.03
331.286	158.03
331.499	12.63
331.712	-3.75
331.925	8.53
332.138	6.49
332.35	96.6
332.563	55.64
332.776	139.6
332.989	31.06
333.202	47.44
333.414	-9.9
333.627	110.93
333.84	92.5
334.053	141.65
334.265	4.44
334.478	63.83
334.691	49.49
334.903	37.2
335.116	-34.47
335.329	2.39
335.541	33.11
335.754	141.65
335.966	53.59
336.179	-3.75
336.392	26.96
336.604	2.39
336.817	158.03
337.029	29.01
337.242	76.12
337.454	168.27
337.667	69.97
337.88	143.7
338.092	135.51
338.305	123.22
338.517	-40.62
338.729	92.5
338.942	123.22
339.154	-20.14
339.367	-46.76
339.579	53.59
339.792	-20.14
340.004	49.49
340.217	45.4
340.429	-3.75
340.641	22.87
340.854	-18.09
341.066	24.92
341.278	108.88
341.491	117.08
341.703	43.35
341.915	20.82
342.128	110.93
342.34	131.41
342.552	37.2
342.764	29.01
342.977	76.12
343.189	69.97
343.401	65.88
343.613	-5.8
343.826	61.78
344.038	-91.82
344.25	119.12
344.462	-57
344.674	106.84
344.886	49.49
345.099	104.79
345.311	117.08
345.523	-28.33
345.735	-52.91
345.947	47.44
346.159	69.97
346.371	33.11
346.583	88.4
346.795	215.38
347.007	57.68
347.219	100.69
347.431	18.77
347.643	76.12
347.855	72.02
348.067	139.6
348.279	-38.57
348.491	59.73
348.703	164.18
348.915	4.44
349.127	-42.67
349.339	51.54
349.551	-1.71
349.763	55.64
349.975	-24.23
350.187	190.8
350.399	164.18
350.61	104.79
350.822	45.4
351.034	92.5
351.246	86.36
351.458	110.93
351.669	102.74
351.881	94.55
352.093	145.75
352.305	166.23
352.517	139.6
352.728	86.36
352.94	59.73
353.152	74.07
353.363	-7.85
353.575	135.51
353.787	280.91
353.999	125.27
354.21	125.27
354.422	14.68
354.633	4.44
354.845	20.82
355.057	92.5
355.268	149.84
355.48	141.65
355.692	67.92
355.903	65.88
356.115	6.49
356.326	-59.05
356.538	178.51
356.749	18.77
356.961	80.21
357.172	10.58
357.384	53.59
357.595	256.34
357.807	-22.19
358.018	-3.75
358.23	35.16
358.441	196.95
358.653	112.98
358.864	80.21
359.075	6.49
359.287	117.08
359.498	72.02
359.709	63.83
359.921	57.68
360.132	43.35
360.344	108.88
360.555	41.3
360.766	59.73
360.977	16.73
361.189	115.03
361.4	41.3
361.611	131.41
361.823	137.56
362.034	49.49
362.245	-22.19
362.456	84.31
362.667	131.41
362.879	-48.81
363.09	96.6
363.301	121.17
363.512	74.07
363.723	41.3
363.935	-65.19
364.146	102.74
364.357	24.92
364.568	78.16
364.779	4.44
364.99	184.66
365.201	-36.52
365.412	76.12
365.623	-3.75
365.834	49.49
366.045	59.73
366.256	166.23
366.467	145.75
366.678	-13.99
366.889	80.21
367.1	12.63
367.311	115.03
367.522	-3.75
367.733	96.6
367.944	166.23
368.155	-22.19
368.366	102.74
368.577	151.89
368.788	158.03
368.999	0.34
369.209	80.21
369.42	229.71
369.631	272.72
369.842	88.4
370.053	24.92
370.264	223.57
370.474	-18.09
370.685	137.56
370.896	0.34
371.107	129.36
371.317	45.4
371.528	33.11
371.739	80.21
371.95	145.75
372.16	92.5
372.371	-16.04
372.582	45.4
372.792	137.56
373.003	78.16
373.214	51.54
373.424	172.37
373.635	4.44
373.846	110.93
374.056	55.64
374.267	145.75
374.477	49.49
374.688	-28.33
374.898	37.2
375.109	82.26
375.319	92.5
375.53	145.75
375.74	98.64
375.951	41.3
376.161	112.98
376.372	182.61
376.582	41.3
376.793	80.21
377.003	31.06
377.214	-9.9
377.424	131.41
377.635	147.8
377.845	104.79
378.055	194.9
378.266	-42.67
378.476	31.06
378.686	78.16
378.897	123.22
379.107	115.03
379.317	84.31
379.528	-32.43
379.738	129.36
379.948	53.59
380.158	115.03
380.369	115.03
380.579	131.41
380.789	22.87
380.999	65.88
381.21	123.22
381.42	194.9
381.63	6.49
381.84	135.51
382.05	22.87
382.261	196.95
382.471	155.99
382.681	-5.8
382.891	143.7
383.101	92.5
383.311	-20.14
383.521	-13.99
383.731	84.31
383.941	119.12
384.151	49.49
384.361	-46.76
384.571	86.36
384.781	53.59
384.991	262.48
385.201	217.43
385.411	-34.47
385.621	94.55
385.831	86.36
386.041	110.93
386.251	-38.57
386.461	108.88
386.671	45.4
386.881	117.08
387.091	33.11
387.301	188.75
387.511	139.6
387.72	67.92
387.93	88.4
388.14	-67.24
388.35	37.2
388.56	184.66
388.769	186.71
388.979	82.26
389.189	-20.14
389.399	53.59
389.609	149.84
389.818	45.4
390.028	37.2
390.238	119.12
390.447	65.88
390.657	57.68
390.867	-20.14
391.076	-30.38
391.286	22.87
391.496	12.63
391.705	51.54
391.915	147.8
392.125	176.47
392.334	33.11
392.544	192.85
392.753	6.49
392.963	-18.09
393.172	55.64
393.382	65.88
393.591	235.86
393.801	18.77
394.01	209.23
394.22	170.32
394.429	10.58
394.639	86.36
394.848	51.54
395.058	80.21
395.267	100.69
395.477	90.45
395.686	127.32
395.895	242
396.105	211.28
396.314	94.55
396.524	61.78
396.733	16.73
396.942	67.92
397.152	112.98
397.361	84.31
397.57	72.02
397.78	47.44
397.989	86.36
398.198	184.66
398.407	100.69
398.617	12.63
398.826	-16.04
399.035	69.97
399.244	72.02
399.453	41.3
399.663	72.02
399.872	78.16
400.081	6.49
400.29	119.12
400.499	43.35
400.708	201.04
400.917	67.92
401.127	8.53
401.336	33.11
401.545	139.6
401.754	149.84
401.963	119.12
402.172	-13.99
402.381	-3.75
402.59	51.54
402.799	162.13
403.008	172.37
403.217	57.68
403.426	80.21
403.635	-22.19
403.844	-61.1
404.053	20.82
404.262	63.83
404.471	203.09
404.68	22.87
404.888	100.69
405.097	102.74
405.306	-18.09
405.515	67.92
405.724	-26.28
405.933	108.88
406.142	37.2
406.35	106.84
406.559	55.64
406.768	61.78
406.977	153.94
407.185	24.92
407.394	72.02
407.603	-9.9
407.812	86.36
408.02	125.27
408.229	78.16
408.438	57.68
408.646	-46.76
408.855	39.25
409.064	82.26
409.272	43.35
409.481	80.21
409.69	35.16
409.898	-30.38
410.107	133.46
410.315	94.55
410.524	59.73
410.733	86.36
410.941	149.84
411.15	180.56
411.358	123.22
411.567	135.51
411.775	51.54
411.984	86.36
412.192	76.12
412.401	22.87
412.609	213.33
412.818	205.14
413.026	90.45
413.234	55.64
413.443	88.4
413.651	2.39
413.86	55.64
414.068	88.4
414.276	178.51
414.485	16.73
414.693	176.47
414.901	264.53
415.11	115.03
415.318	76.12
415.526	31.06
415.734	90.45
415.943	-11.95
416.151	137.56
416.359	86.36
416.567	72.02
416.776	115.03
416.984	74.07
417.192	168.27
417.4	74.07
417.608	8.53
417.817	-1.71
418.025	125.27
418.233	213.33
418.441	4.44
418.649	22.87
418.857	176.47
419.065	176.47
419.273	29.01
419.481	22.87
419.689	39.25
419.897	6.49
420.105	12.63
420.313	127.32
420.521	223.57
420.729	110.93
420.937	35.16
421.145	-26.28
421.353	100.69
421.561	170.32
421.769	115.03
421.977	53.59
422.185	213.33
422.393	-16.04
422.601	188.75
422.809	92.5
423.017	45.4
423.224	47.44
423.432	108.88
423.64	106.84
423.848	170.32
424.056	20.82
424.263	80.21
424.471	59.73
424.679	149.84
424.887	43.35
425.094	141.65
425.302	147.8
425.51	51.54
425.718	67.92
425.925	84.31
426.133	-30.38
426.341	229.71
426.548	-30.38
426.756	61.78
426.964	176.47
427.171	90.45
427.379	149.84
427.586	141.65
427.794	137.56
428.001	178.51
428.209	141.65
428.417	201.04
428.624	135.51
428.832	108.88
429.039	149.84
429.247	115.03
429.454	145.75
429.662	196.95
429.869	164.18
430.076	166.23
430.284	121.17
430.491	237.91
430.699	196.95
430.906	244.05
431.114	176.47
431.321	139.6
431.528	160.08
431.736	151.89
431.943	221.52
432.15	102.74
432.358	166.23
432.565	252.24
432.772	37.2
432.979	174.42
433.187	155.99
433.394	325.97
433.601	121.17
433.808	225.62
434.016	340.3
434.223	155.99
434.43	182.61
434.637	319.82
434.844	299.34
435.052	254.29
435.259	301.39
435.466	325.97
435.673	266.58
435.88	244.05
436.087	346.45
436.294	309.58
436.501	285.01
436.708	262.48
436.915	242
437.122	354.64
437.329	274.77
437.537	295.25
437.743	340.3
437.95	450.89
438.157	399.7
438.364	373.07
438.571	469.33
438.778	352.59
438.985	459.09
439.192	481.61
439.399	366.93
439.606	467.28
439.813	469.33
440.02	614.73
440.227	647.5
440.433	530.77
440.64	498
440.847	475.47
441.054	536.91
441.261	741.71
441.467	606.54
441.674	598.35
441.881	684.36
442.088	667.98
442.294	760.14
442.501	762.19
442.708	842.06
442.914	741.71
443.121	817.48
443.328	813.38
443.534	899.4
443.741	827.72
443.948	766.28
444.154	1028.42
444.361	1118.53
444.568	1018.18
444.774	991.56
444.981	862.54
445.187	1177.92
445.394	1069.38
445.6	1153.35
445.807	1222.98
446.013	1265.99
446.22	1155.4
446.426	1390.91
446.633	1323.33
446.839	1618.24
447.046	1382.72
447.252	1689.92
447.459	1571.13
447.665	1616.19
447.871	1790.27
448.078	1921.34
448.284	1839.42
448.491	2025.78
448.697	2001.21
448.903	2044.21
449.11	2115.89
449.316	2148.66
449.522	2394.42
449.728	2367.79
449.935	2519.34
450.141	2488.62
450.347	2709.8
450.553	2619.69
450.76	2707.76
450.966	2851.11
451.172	2988.33
451.378	3019.05
451.584	3055.91
451.791	3428.64
451.997	3309.86
452.203	3477.79
452.409	3778.84
452.615	3801.37
452.821	3682.59
453.027	3858.71
453.233	4329.75
453.44	4241.68
453.646	4372.75
453.852	4481.3
454.058	4634.89
454.264	4796.68
454.47	5202.18
454.676	5103.88
454.882	5789.95
455.088	5327.11
455.294	5783.81
455.5	5998.84
455.705	6336.76
455.911	6490.35
456.117	6435.06
456.323	6791.41
456.529	6912.24
456.735	7555.3
456.941	7528.67
457.147	7983.32
457.352	8188.12
457.558	8253.66
457.764	8906.96
457.97	9183.43
458.176	9578.69
458.381	10152.12
458.587	10006.72
458.793	10817.71
458.999	10746.03
459.204	11935.9
459.41	12548.25
459.616	12302.49
459.821	12929.17
460.027	13650.05
460.233	14205.05
460.438	14258.3
460.644	15169.65
460.85	15296.62
461.055	16048.22
461.261	16480.35
461.466	16384.09
461.672	16549.98
461.878	18710.58
462.083	18366.53
462.289	18479.16
462.494	19466.28
462.7	19662.89
462.905	19990.56
463.111	21698.57
463.316	22544.38
463.522	22777.85
463.727	23715.82
463.932	24555.49
464.138	25337.81
464.343	26466.24
464.549	26480.58
464.754	28678.05
464.959	29233.05
465.165	29294.49
465.37	29413.27
465.575	29513.62
465.781	31586.16
465.986	32409.45
466.191	31793.01
466.397	31940.46
466.602	31663.99
466.807	33263.45
467.012	33318.74
467.218	34031.44
467.423	34269
467.628	35626.81
467.833	37117.73
468.038	36331.31
468.244	36065.07
468.449	37914.39
468.654	37070.62
468.859	36747.04
469.064	36685.61
469.269	35948.34
469.474	36538.15
469.679	37490.46
469.885	35874.61
470.09	36962.08
470.295	37044
470.5	36034.35
470.705	36329.26
470.91	35217.21
471.115	35092.29
471.32	35372.86
471.525	35727.16
471.73	34174.8
471.935	33918.8
472.139	32679.78
472.344	32714.59
472.549	32862.05
472.754	32010.09
472.959	31227.77
473.164	30281.61
473.369	29550.48
473.574	30760.83
473.778	29816.72
473.983	29525.91
474.188	28751.77
474.393	27529.14
474.598	27744.17
474.802	26789.82
475.007	26445.76
475.212	26142.66
475.417	25159.64
475.621	25186.26
475.826	24694.75
476.031	24197.09
476.235	23562.22
476.44	23621.61
476.645	22814.71
476.849	22534.14
477.054	22446.08
477.259	21682.19
477.463	21776.39
477.668	21415.95
477.872	21354.51
478.077	20705.31
478.282	20150.31
478.486	19994.66
478.691	19734.57
478.895	19634.22
479.1	19275.82
479.304	19437.61
479.509	18614.33
479.713	18823.22
479.918	18378.81
480.122	18315.33
480.326	18434.11
480.531	18145.34
480.735	18008.13
480.94	17811.53
481.144	18241.6
481.348	17199.18
481.553	17508.43
481.757	16736.34
481.961	17164.37
482.166	17289.29
482.37	17100.88
482.574	16558.17
482.778	16476.25
482.983	16855.12
483.187	16560.22
483.391	16455.77
483.595	15966.31
483.8	15788.13
484.004	15992.93
484.208	15820.9
484.412	15704.17
484.616	15433.83
484.821	15315.05
485.025	14743.67
485.229	14860.4
485.433	14858.35
485.637	14471.29
485.841	14354.55
486.045	14354.55
486.249	14219.39
486.453	13838.47
486.657	13668.48
486.861	13529.22
487.065	13056.14
487.269	13138.06
487.473	12339.35
487.677	12595.35
487.881	12679.32
488.085	12249.24
488.289	11962.53
488.493	11540.65
488.697	11522.21
488.901	11339.94
489.105	11104.43
489.309	11075.76
489.512	10985.65
489.716	10709.17
489.92	10389.69
490.124	10356.92
490.328	10236.09
490.531	9910.46
490.735	9912.51
490.939	9662.66
491.143	9197.77
491.346	9152.71
491.55	9072.84
491.754	9070.79
491.958	8890.57
492.161	8689.87
492.365	8521.94
492.569	8415.44
492.772	8190.17
492.976	8288.47
493.18	8112.35
493.383	7882.97
493.587	7958.75
493.79	7981.28
493.994	7678.18
494.197	7573.73
494.401	7471.33
494.605	7373.03
494.808	7495.91
495.012	7235.81
495.215	7413.99
495.419	7282.92
495.622	7096.55
495.825	7067.88
496.029	7114.98
496.232	7301.35
496.436	7028.97
496.639	7198.95
496.843	7043.31
497.046	7016.68
497.249	7133.42
497.453	6953.2
497.656	6936.81
497.859	6949.1
498.063	7125.22
498.266	7033.07
498.469	7088.36
498.673	6932.72
498.876	7063.79
499.079	7006.44
499.282	7008.49
499.485	7428.32
499.689	7170.28
499.892	7289.06
500.095	7391.46
500.298	7362.79
500.501	7334.12
500.705	7352.55
500.908	7360.74
501.111	7405.8
501.314	7704.8
501.517	7719.14
501.72	7725.28
501.923	7919.84
502.126	8050.91
502.329	8151.26
502.532	7944.41
502.735	8224.98
502.938	8372.44
503.141	8472.79
503.344	8513.75
503.547	8657.11
503.75	8528.08
503.953	8753.36
504.156	8861.9
504.359	9040.08
504.562	9277.64
504.765	9304.26
504.968	9423.05
505.17	9521.35
505.373	9904.32
505.576	9826.5
505.779	9941.18
505.982	9900.22
506.185	10285.24
506.387	10518.71
506.59	10471.61
506.793	10868.91
506.996	10963.12
507.198	11530.41
507.401	11458.73
507.604	11727.01
507.807	11915.42
508.009	12134.56
508.212	12294.3
508.415	12529.81
508.617	12992.66
508.82	13107.34
509.022	13156.49
509.225	13826.18
509.428	13691.01
509.63	14272.64
509.833	14291.07
510.035	15147.12
510.238	15411.31
510.44	15327.34
510.643	15835.24
510.845	16271.45
511.048	16414.81
511.25	16748.63
511.453	16953.43
511.655	17825.86
511.858	18131.01
512.06	18509.88
512.262	18372.67
512.465	18890.81
512.667	19669.03
512.87	20086.82
513.072	20465.69
513.274	21012.5
513.477	21438.48
513.679	21823.5
513.881	22550.53
514.084	23021.56
514.286	23091.19
514.488	24027.11
514.69	24870.87
514.893	24909.79
515.095	25286.61
515.297	26079.18
515.499	26431.43
515.701	27043.77
515.904	27541.43
516.106	28157.86
516.308	28790.69
516.51	29323.16
516.712	29605.78
516.914	30519.17
517.116	31209.34
517.318	31881.07
517.52	32366.44
517.722	32593.76
517.925	33458.01
518.127	34334.54
518.329	34543.43
518.531	34817.86
518.733	36194.09
518.935	36331.31
519.136	36761.38
519.338	37000.99
519.54	37918.48
519.742	38932.23
519.944	38960.9
520.146	39808.76
520.348	40609.51
520.55	40871.65
520.752	41260.77
520.954	42047.19
521.155	42325.71
521.357	42741.45
521.559	43546.3
521.761	44043.96
521.963	43648.7
522.164	44490.41
522.366	44605.1
522.568	45434.53
522.77	45319.84
522.971	46413.46
523.173	46229.14
523.375	46325.39
523.576	46773.9
523.778	46904.97
523.98	47474.3
524.181	47912.57
524.383	47265.41
524.584	48000.63
524.786	48041.59
524.988	47429.25
525.189	48361.08
525.391	48344.69
525.592	48295.54
525.794	48688.75
525.995	48653.93
526.197	48281.2
526.398	48635.5
526.6	48092.79
526.801	48158.33
527.003	47914.62
527.204	47541.89
527.406	47785.6
527.607	47681.15
527.808	47615.61
528.01	46472.85
528.211	46995.08
528.412	46857.87
528.614	46444.18
528.815	46204.56
529.016	46083.73
529.218	45059.75
529.419	44969.64
529.62	44521.13
529.822	44043.96
530.023	43763.39
530.224	43497.15
530.425	43230.91
530.626	42194.64
530.828	41391.84
531.029	42208.98
531.23	41164.51
531.431	40527.59
531.632	40972
531.833	40361.71
532.035	39515.9
532.236	38967.04
532.437	38917.89
532.638	38049.55
532.839	37676.82
533.04	37586.71
533.241	36441.9
533.442	36591.4
533.643	35688.24
533.844	35243.84
534.045	34748.23
534.246	34162.51
534.447	34492.23
534.648	33621.84
534.849	33134.43
535.05	32626.53
535.251	32130.92
535.451	31680.37
535.652	31129.47
535.853	31242.1
536.054	30891.9
536.255	30416.77
536.456	29691.79
536.657	29677.46
536.857	29061.02
537.058	28358.56
537.259	28325.8
537.46	27858.86
537.66	27387.83
537.861	27424.69
538.062	26755.01
538.263	26482.63
538.463	26224.58
538.664	25808.84
538.865	25528.27
539.065	25149.4
539.266	24684.51
539.466	24926.17
539.667	23848.94
539.868	24098.79
540.068	23824.36
540.269	23283.7
540.469	23422.96
540.67	22644.73
540.87	22620.16
541.071	22216.71
541.271	22190.08
541.472	21817.35
541.672	21680.14
541.873	21340.18
542.073	20897.81
542.274	21092.37
542.474	20506.65
542.675	20199.46
542.875	20070.44
543.075	20039.72
543.276	19464.24
543.476	19677.23
543.676	19474.48
543.877	19216.43
544.077	18829.37
544.277	18487.36
544.478	18421.82
544.678	18526.27
544.878	18118.72
545.078	17922.12
545.279	17588.3
545.479	17160.27
545.679	17354.83
545.879	17053.78
546.079	16900.18
546.28	16509.02
546.48	16525.4
546.68	16373.85
546.88	15882.34
547.08	16054.37
547.28	15622.25
547.48	15405.16
547.68	15278.19
547.88	15003.76
548.081	15026.29
548.281	14758
548.481	14729.33
548.681	14383.23
548.881	13963.39
549.081	13944.96
549.28	13942.91
549.48	13594.76
549.68	13322.38
549.88	13328.52
550.08	12927.12
550.28	12779.67
550.48	12658.84
550.68	12753.04
550.88	12372.12
551.08	12435.61
551.279	12075.17
551.479	11673.76
551.679	11974.81
551.879	11444.39
552.079	11565.22
552.278	11235.5
552.478	11280.55
552.678	10793.14
552.878	10924.21
553.077	10729.65
553.277	10328.25
553.477	10328.25
553.676	10053.82
553.876	9824.45
554.076	9779.39
554.275	9427.14
554.475	9240.78
554.674	9412.81
554.874	9158.86
555.074	9033.93
555.273	9113.8
555.473	8650.96
555.672	8573.14
555.872	8460.5
556.071	8399.06
556.271	8478.93
556.47	8052.95
556.67	7899.36
556.869	8018.14
557.068	7684.32
557.268	7612.64
557.467	7454.95
557.667	7399.65
557.866	7188.71
558.065	7278.82
558.265	7069.93
558.464	6902
558.663	6711.53
558.863	6602.99
559.062	6623.47
559.261	6349.04
559.461	6385.91
559.66	6140.15
559.859	6265.08
560.058	6064.38
560.258	5912.83
560.457	5826.81
560.656	5765.37
560.855	5439.75
561.054	5818.62
561.253	5615.87
561.453	5421.31
561.652	5388.55
561.851	5327.11
562.05	5091.59
562.249	4968.71
562.448	5062.92
562.647	4935.95
562.846	4694.29
563.045	4897.03
563.244	4653.33
563.443	4649.23
563.642	4548.88
563.841	4503.82
564.04	4491.54
564.239	4436.24
564.438	4243.73
564.637	4294.93
564.836	4213.01
565.035	4182.29
565.234	4120.85
565.432	4157.72
565.631	4069.66
565.83	4086.04
566.029	3934.49
566.228	3815.71
566.427	3760.41
566.625	3514.66
566.824	3594.53
567.023	3713.31
567.222	3510.56
567.42	3514.66
567.619	3559.71
567.818	3496.22
568.016	3592.48
568.215	3338.53
568.414	3268.9
568.612	3203.36
568.811	3158.31
569.01	3107.11
569.208	3066.15
569.407	3139.88
569.605	3035.43
569.804	2941.22
570.002	3051.81
570.201	2806.06
570.4	2844.97
570.598	2683.18
570.797	2773.29
570.995	2619.69
571.193	2638.13
571.392	2683.18
571.59	2552.11
571.789	2605.36
571.987	2537.77
572.186	2615.6
572.384	2539.82
572.582	2339.12
572.781	2418.99
572.979	2271.54
573.177	2242.87
573.376	2214.2
573.574	2373.94
573.772	2119.99
573.971	2031.93
574.169	1939.77
574.367	2081.08
574.565	2011.45
574.763	1980.73
574.962	2070.84
575.16	1931.58
575.358	1943.86
575.556	1870.14
575.754	1952.06
575.952	1833.27
576.151	1825.08
576.349	1763.64
576.547	1730.87
576.745	1800.51
576.943	1694.01
577.141	1698.11
577.339	1577.28
577.537	1665.34
577.735	1790.27
577.933	1677.63
578.131	1505.6
578.329	1593.66
578.527	1550.65
578.725	1501.5
578.923	1474.88
579.121	1421.63
579.319	1360.19
579.516	1425.73
579.714	1603.9
579.912	1323.33
580.11	1198.4
580.308	1354.05
580.506	1331.52
580.704	1167.68
580.901	1112.39
581.099	1335.62
581.297	1290.56
581.495	1200.45
581.692	1218.88
581.89	1294.66
582.088	1055.05
582.285	1143.11
582.483	1057.09
582.681	1124.68
582.878	1059.14
583.076	1055.05
583.274	1050.95
583.471	1208.64
583.669	1007.94
583.866	868.68
584.064	977.22
584.262	913.74
584.459	878.92
584.657	944.45
584.854	1032.52
585.052	952.65
585.249	1007.94
585.447	794.95
585.644	758.09
585.841	964.93
586.039	928.07
586.236	964.93
586.434	727.37
586.631	772.43
586.828	729.42
587.026	833.86
587.223	641.36
587.42	780.62
587.618	790.86
587.815	874.82
588.012	741.71
588.21	723.27
588.407	850.25
588.604	751.95
588.801	743.75
588.999	700.75
589.196	850.25
589.393	700.75
589.59	698.7
589.787	731.47
589.984	710.99
590.182	678.22
590.379	665.93
590.576	637.26
590.773	674.12
590.97	627.02
591.167	678.22
591.364	760.14
591.561	575.82
591.758	768.33
591.955	651.6
592.152	715.08
592.349	678.22
592.546	612.68
592.743	522.57
592.94	645.45
593.137	766.28
593.334	756.04
593.531	688.46
593.727	717.13
593.924	778.57
594.121	543.05
594.318	620.88
594.515	577.87
594.712	803.15
594.908	764.23
595.105	584.01
595.302	678.22
595.499	721.23
595.696	766.28
595.892	725.32
596.089	954.69
596.286	637.26
596.482	932.17
596.679	837.96
596.876	717.13
597.072	901.45
597.269	760.14
597.466	915.78
597.662	817.48
597.859	889.16
598.055	969.03
598.252	962.89
598.448	1104.2
598.645	1083.72
598.841	1116.48
599.038	1214.79
599.234	1304.9
599.431	1276.23
599.627	1192.26
599.824	1395.01
600.02	1409.34
600.217	1304.9
600.413	1462.59
600.609	1468.73
600.806	1653.05
601.002	1743.16
601.198	1612.09
601.395	1741.11
601.591	1833.27
601.787	1894.71
601.984	2025.78
602.18	2001.21
602.376	2044.21
602.572	2173.24
602.769	2251.06
602.965	2375.99
603.161	2343.22
603.357	2509.1
603.553	2613.55
603.75	2539.82
603.946	2711.85
604.142	2838.83
604.338	2926.89
604.534	2953.51
604.73	3109.16
604.926	3203.36
605.122	3414.31
605.318	3283.24
605.514	3496.22
605.71	3610.91
605.906	3739.93
606.102	3864.86
606.298	4047.13
606.494	4045.08
606.69	4167.96
606.886	4219.16
607.082	4436.24
607.278	4469.01
607.474	4518.16
607.67	4806.92
607.866	4772.11
608.062	5177.61
608.257	5187.85
608.453	5273.86
608.649	5445.89
608.845	5509.38
609.041	5501.19
609.236	5777.66
609.432	6146.3
609.628	6242.55
609.824	6457.59
610.019	6592.75
610.215	6643.95
610.411	7008.49
610.606	7063.79
610.802	7241.96
610.998	7321.83
611.193	7514.34
611.389	7614.69
611.584	7952.6
611.78	8073.43
611.976	8480.98
612.171	8714.45
612.367	8939.72
612.562	8896.72
612.758	8995.02
612.953	9285.83
613.149	9892.03
613.344	10004.67
613.539	10397.88
613.735	10412.21
613.93	10692.79
614.126	11090.09
614.321	11698.34
614.517	11735.2
614.712	11966.62
614.907	12224.67
615.103	12486.81
615.298	12576.92
615.493	13095.05
615.688	13291.66
615.884	13955.2
616.079	14051.45
616.274	14583.93
616.47	14743.67
616.665	15196.27
616.86	15581.29
617.055	15964.26
617.25	16222.3
617.445	16842.84
617.641	16846.93
617.836	17903.68
618.031	17502.28
618.226	18616.38
618.421	18868.28
618.616	19466.28
618.811	19679.27
619.006	20461.6
619.201	20660.25
619.396	21205.01
619.591	21172.24
619.786	22077.44
619.981	22343.68
620.176	23169.01
620.371	23228.4
620.566	23750.63
620.761	24225.76
620.956	24799.19
621.151	24819.67
621.346	25831.37
621.541	25954.25
621.735	26666.94
621.93	26752.96
622.125	27465.65
622.32	27895.72
622.515	28608.42
622.709	29001.63
622.904	29716.37
623.099	29845.39
623.294	30881.66
623.488	30816.13
623.683	31704.95
623.878	31760.24
624.072	32792.42
624.267	33292.12
624.462	33369.94
624.656	33681.24
624.851	34805.57
625.046	34877.25
625.24	35522.36
625.435	35796.79
625.629	36378.41
625.824	36704.04
626.018	37160.73
626.213	37111.58
626.407	37922.58
626.602	37953.3
626.796	38956.8
626.991	39313.15
627.185	39589.63
627.38	39487.23
627.574	39503.61
627.768	39831.29
627.963	40052.47
628.157	39984.88
628.352	40249.07
628.546	40005.36
628.74	40490.73
628.935	40396.52
629.129	40629.99
629.323	39491.32
629.517	39446.27
629.712	39012.1
629.906	38944.52
630.1	38213.39
630.294	38377.23
630.489	37459.74
630.683	37156.64
630.877	36431.66
631.071	35852.08
631.265	35655.48
631.459	34518.85
631.653	33228.63
631.848	32915.3
632.042	31844.21
632.236	31473.53
632.43	30295.94
632.624	30066.57
632.818	28399.52
633.012	27606.96
633.206	26888.12
633.4	26148.81
633.594	25071.57
633.788	24512.48
633.982	23312.37
634.176	22771.71
634.369	21690.38
634.563	20801.56
634.757	19949.6
634.951	19550.25
635.145	18675.77
635.339	17944.64
635.533	17311.82
635.726	16642.14
635.92	15685.73
636.114	15134.83
636.308	14413.95
636.501	14194.81
636.695	13396.1
636.889	12630.16
637.083	12230.81
637.276	12019.87
637.47	11215.02
637.664	11014.32
637.857	10549.43
638.051	9926.85
638.244	9699.52
638.438	9107.66
638.632	8884.43
638.825	8554.71
639.019	8378.58
639.212	7731.42
639.406	7561.44
639.599	7157.99
639.793	7090.41
639.986	6691.06
640.18	6496.5
640.373	6134.01
640.567	5818.62
640.76	5763.33
640.954	5472.51
641.147	5198.09
641.34	4927.75
641.534	4935.95
641.727	4862.22
641.92	4364.56
642.114	4264.21
642.307	4079.9
642.5	4073.75
642.694	3766.56
642.887	3756.32
643.08	3744.03
643.273	3623.2
643.467	3297.57
643.66	3238.18
643.853	3072.29
644.046	2918.7
644.239	2959.66
644.432	2591.02
644.626	2621.74
644.819	2470.19
645.012	2500.91
645.205	2292.02
645.398	2328.88
645.591	2206
645.784	2076.98
645.977	1888.57
646.17	1931.58
646.363	1796.41
646.556	1722.68
646.749	1687.87
646.942	1706.3
647.135	1558.85
647.328	1521.98
647.521	1448.26
647.714	1444.16
647.907	1362.24
648.099	1321.28
648.292	1311.04
648.485	1249.6
648.678	1190.21
648.871	1081.67
649.064	1091.91
649.256	944.45
649.449	999.75
649.642	874.82
649.835	887.11
650.027	868.68
650.22	891.21
650.413	772.43
650.605	797
650.798	813.38
650.991	735.56
651.183	731.47
651.376	756.04
651.568	715.08
651.761	704.84
651.954	678.22
652.146	604.49
652.339	674.12
652.531	682.31
652.724	481.61
652.916	567.63
653.109	358.74
653.301	575.82
653.494	557.39
653.686	442.7
653.879	543.05
654.071	557.39
654.263	467.28
654.456	438.61
654.648	543.05
654.84	467.28
655.033	397.65
655.225	561.48
655.417	338.26
655.61	545.1
655.802	436.56
655.994	442.7
656.186	287.06
656.379	422.22
656.571	297.3
656.763	260.43
656.955	325.97
657.148	356.69
657.34	452.94
657.532	297.3
657.724	295.25
657.916	393.55
658.108	252.24
658.3	371.02
658.492	364.88
658.684	289.1
658.876	399.7
659.068	231.76
659.26	147.8
659.452	194.9
659.644	250.19
659.836	334.16
660.028	233.81
660.22	225.62
660.412	248.15
660.604	170.32
660.796	188.75
660.988	285.01
661.18	182.61
661.372	303.44
661.563	209.23
661.755	213.33
661.947	143.7
662.139	168.27
662.331	182.61
662.522	194.9
662.714	86.36
662.906	106.84
663.097	172.37
663.289	174.42
663.481	149.84
663.673	196.95
663.864	233.81
664.056	160.08
664.247	110.93
664.439	213.33
664.631	149.84
664.822	256.34
665.014	129.36
665.205	96.6
665.397	143.7
665.588	213.33
665.78	170.32
665.971	211.28
666.163	143.7
666.354	178.51
666.546	82.26
666.737	129.36
666.929	131.41
667.12	72.02
667.311	252.24
667.503	213.33
667.694	231.76
667.885	162.13
668.077	287.06
668.268	31.06
668.459	141.65
668.651	180.56
668.842	201.04
669.033	-9.9
669.224	92.5
669.416	319.82
669.607	139.6
669.798	47.44
669.989	229.71
670.18	90.45
670.371	184.66
670.563	20.82
670.754	250.19
670.945	221.52
671.136	188.75
671.327	39.25
671.518	192.85
671.709	285.01
671.9	141.65
672.091	285.01
672.282	123.22
672.473	127.32
672.664	39.25
672.855	94.55
673.046	133.46
673.237	192.85
673.428	211.28
673.619	180.56
673.809	178.51
674	266.58
674.191	217.43
674.382	131.41
674.573	153.94
674.764	164.18
674.954	250.19
675.145	110.93
675.336	137.56
675.527	98.64
675.717	178.51
675.908	196.95
676.099	110.93
676.289	194.9
676.48	143.7
676.671	104.79
676.861	121.17
677.052	139.6
677.243	147.8
677.433	139.6
677.624	198.99
677.814	246.1
678.005	153.94
678.195	317.78
678.386	147.8
678.576	207.19
678.767	119.12
678.957	153.94
679.148	170.32
679.338	250.19
679.529	170.32
679.719	141.65
679.909	188.75
680.1	248.15
680.29	207.19
680.481	98.64
680.671	248.15
680.861	182.61
681.052	209.23
681.242	180.56
681.432	250.19
681.622	246.1
681.813	115.03
682.003	145.75
682.193	172.37
682.383	172.37
682.573	151.89
682.764	213.33
682.954	221.52
683.144	287.06
683.334	242
683.524	151.89
683.714	182.61
683.904	239.95
684.094	121.17
684.284	242
684.474	307.54
684.664	248.15
684.854	266.58
685.044	141.65
685.234	258.39
685.424	227.67
685.614	174.42
685.804	250.19
685.994	186.71
686.184	215.38
686.374	209.23
686.564	213.33
686.753	143.7
686.943	162.13
687.133	299.34
687.323	221.52
687.513	209.23
687.702	227.67
687.892	164.18
688.082	201.04
688.272	250.19
688.461	133.46
688.651	346.45
688.841	246.1
689.03	123.22
689.22	242
689.41	295.25
689.599	268.63
689.789	78.16
689.979	391.5
690.168	207.19
690.358	252.24
690.547	219.47
690.737	254.29
690.926	213.33
691.116	235.86
691.305	205.14
691.495	317.78
691.684	125.27
691.874	188.75
692.063	237.91
692.252	227.67
692.442	242
692.631	141.65
692.82	178.51
693.01	155.99
693.199	178.51
693.388	299.34
693.578	215.38
693.767	231.76
693.956	270.67
694.146	90.45
694.335	258.39
694.524	160.08
694.713	278.87
694.902	125.27
695.092	121.17
695.281	242
695.47	190.8
695.659	229.71
695.848	203.09
696.037	178.51
696.226	231.76
696.415	178.51
696.604	313.68
696.793	305.49
696.982	155.99
697.171	305.49
697.36	180.56
697.549	188.75
697.738	158.03
697.927	158.03
698.116	174.42
698.305	145.75
698.494	225.62
698.683	147.8
698.872	323.92
699.061	127.32
699.25	223.57
699.438	205.14
699.627	153.94
699.816	321.87
700.005	160.08
700.193	203.09
700.382	219.47
700.571	190.8
700.76	170.32
700.948	262.48
701.137	178.51
701.326	233.81
701.514	117.08
701.703	299.34
701.892	164.18
702.08	332.11
702.269	153.94
702.457	153.94
702.646	188.75
702.834	147.8
703.023	215.38
703.212	215.38
703.4	139.6
703.589	186.71
703.777	231.76
703.965	37.2
704.154	172.37
704.342	186.71
704.531	209.23
704.719	221.52
704.907	262.48
705.096	141.65
705.284	92.5
705.472	192.85
705.661	213.33
705.849	223.57
706.037	313.68
706.226	147.8
706.414	221.52
706.602	178.51
706.79	313.68
706.979	196.95
707.167	260.43
707.355	90.45
707.543	237.91
707.731	217.43
707.919	223.57
708.107	133.46
708.296	151.89
708.484	190.8
708.672	262.48
708.86	231.76
709.048	162.13
709.236	125.27
709.424	336.21
709.612	262.48
709.8	31.06
709.988	153.94
710.176	198.99
710.364	233.81
710.551	239.95
710.739	129.36
710.927	186.71
711.115	201.04
711.303	276.82
711.491	270.67
711.679	166.23
711.866	227.67
712.054	178.51
712.242	203.09
712.43	289.1
712.617	217.43
712.805	252.24
712.993	254.29
713.181	160.08
713.368	242
713.556	223.57
713.744	135.51
713.931	352.59
714.119	248.15
714.306	229.71
714.494	106.84
714.682	209.23
714.869	92.5
715.057	102.74
715.244	72.02
715.432	207.19
715.619	145.75
715.807	170.32
715.994	80.21
716.182	213.33
716.369	338.26
716.556	246.1
716.744	69.97
716.931	88.4
717.119	250.19
717.306	194.9
717.493	242
717.681	166.23
717.868	139.6
718.055	250.19
718.242	178.51
718.43	246.1
718.617	368.98
718.804	162.13
718.991	297.3
719.179	244.05
719.366	295.25
719.553	266.58
719.74	235.86
719.927	264.53
720.114	217.43
720.301	88.4
720.488	233.81
720.676	188.75
720.863	311.63
721.05	323.92
721.237	223.57
721.424	264.53
721.611	192.85
721.798	203.09
721.985	190.8
722.172	180.56
722.358	53.59
722.545	311.63
722.732	219.47
722.919	227.67
723.106	244.05
723.293	194.9
723.48	289.1
723.667	233.81
723.853	309.58
724.04	282.96
724.227	207.19
724.414	158.03
724.6	207.19
724.787	328.02
724.974	411.98
725.161	164.18
725.347	235.86
725.534	278.87
725.72	278.87
725.907	285.01
726.094	395.6
726.28	88.4
726.467	242
726.653	151.89
726.84	291.15
727.027	354.64
727.213	209.23
727.4	278.87
727.586	209.23
727.773	213.33
727.959	188.75
728.145	237.91
728.332	250.19
728.518	182.61
728.705	242
728.891	325.97
729.077	299.34
729.264	198.99
729.45	219.47
729.636	299.34
729.823	190.8
730.009	254.29
730.195	252.24
730.382	317.78
730.568	231.76
730.754	301.39
730.94	256.34
731.126	248.15
731.313	299.34
731.499	201.04
731.685	334.16
731.871	250.19
732.057	278.87
732.243	303.44
732.429	266.58
732.615	280.91
732.801	272.72
732.987	274.77
733.173	182.61
733.359	143.7
733.545	323.92
733.731	244.05
733.917	266.58
734.103	381.26
734.289	233.81
734.475	209.23
734.661	373.07
734.847	315.73
735.033	307.54
735.219	342.35
735.404	184.66
735.59	194.9
735.776	182.61
735.962	297.3
736.148	299.34
736.333	418.13
736.519	211.28
736.705	274.77
736.89	266.58
737.076	221.52
737.262	176.47
737.447	246.1
737.633	215.38
737.819	287.06
738.004	276.82
738.19	192.85
738.375	270.67
738.561	309.58
738.747	317.78
738.932	272.72
739.118	434.51
739.303	323.92
739.489	237.91
739.674	231.76
739.859	147.8
740.045	258.39
740.23	270.67
740.416	176.47
740.601	278.87
740.786	268.63
740.972	225.62
741.157	266.58
741.342	225.62
741.528	172.37
741.713	364.88
741.898	250.19
742.084	254.29
742.269	180.56
742.454	254.29
742.639	291.15
742.824	178.51
743.01	348.5
743.195	336.21
743.38	239.95
743.565	315.73
743.75	287.06
743.935	239.95
744.12	358.74
744.305	149.84
744.49	227.67
744.675	158.03
744.86	227.67
745.045	354.64
745.23	229.71
745.415	260.43
745.6	325.97
745.785	276.82
745.97	291.15
746.155	237.91
746.34	252.24
746.525	239.95
746.71	309.58
746.895	143.7
747.079	198.99
747.264	237.91
747.449	307.54
747.634	260.43
747.819	274.77
748.003	155.99
748.188	182.61
748.373	260.43
748.557	272.72
748.742	155.99
748.927	211.28
749.111	242
749.296	219.47
749.481	285.01
749.665	205.14
749.85	201.04
750.034	252.24
750.219	184.66
750.404	227.67
750.588	198.99
750.773	153.94
750.957	252.24
751.141	211.28
751.326	196.95
751.51	96.6
751.695	233.81
751.879	112.98
752.064	364.88
752.248	153.94
752.432	280.91
752.617	182.61
752.801	227.67
752.985	184.66
753.17	270.67
753.354	186.71
753.538	196.95
753.722	190.8
753.907	74.07
754.091	188.75
754.275	242
754.459	104.79
754.643	117.08
754.828	178.51
755.012	213.33
755.196	106.84
755.38	125.27
755.564	141.65
755.748	127.32
755.932	137.56
756.116	262.48
756.3	207.19
756.484	196.95
756.668	176.47
756.852	43.35
757.036	106.84
757.22	135.51
757.404	127.32
757.588	153.94
757.772	303.44
757.956	106.84
758.14	242
758.323	84.31
758.507	170.32
758.691	108.88
758.875	221.52
759.059	233.81
759.242	151.89
759.426	139.6
759.61	233.81
759.794	135.51
759.977	121.17
760.161	315.73
760.345	248.15
760.528	133.46
760.712	151.89
760.895	207.19
761.079	141.65
761.263	37.2
761.446	61.78
761.63	110.93
761.813	233.81
761.997	51.54
762.18	135.51
762.364	188.75
762.547	86.36
762.731	102.74
762.914	104.79
763.098	164.18
763.281	86.36
763.464	98.64
763.648	110.93
763.831	92.5
764.015	100.69
764.198	248.15
764.381	168.27
764.564	141.65
764.748	137.56
764.931	88.4
765.114	96.6
765.297	35.16
765.481	72.02
765.664	84.31
765.847	129.36
766.03	178.51
766.213	80.21
766.397	51.54
766.58	51.54
766.763	225.62
766.946	55.64
767.129	137.56
767.312	6.49
767.495	72.02
767.678	123.22
767.861	137.56
768.044	74.07
768.227	117.08
768.41	57.68
768.593	16.73
768.776	80.21
768.959	90.45
769.142	188.75
769.324	121.17
769.507	61.78
769.69	10.58
769.873	53.59
770.056	141.65
770.239	63.83
770.421	203.09
770.604	127.32
770.787	16.73
770.97	26.96
771.152	61.78
771.335	106.84
771.518	53.59
771.7	211.28
771.883	184.66
772.066	55.64
772.248	119.12
772.431	90.45
772.613	158.03
772.796	115.03
772.978	131.41
773.161	227.67
773.343	90.45
773.526	88.4
773.708	-24.23
773.891	-38.57
774.073	29.01
774.256	45.4
774.438	217.43
774.621	4.44
774.803	90.45
774.985	106.84
775.168	186.71
775.35	88.4
775.532	127.32
775.715	2.39
775.897	127.32
776.079	74.07
776.261	141.65
776.444	65.88
776.626	22.87
776.808	33.11
776.99	47.44
777.173	22.87
777.355	127.32
777.537	72.02
777.719	115.03
777.901	63.83
778.083	51.54
778.265	39.25
778.447	102.74
778.629	129.36
778.811	94.55
778.993	119.12
779.175	221.52
779.357	96.6
779.539	29.01
779.721	45.4
779.903	88.4
780.085	78.16
780.267	108.88
780.449	84.31
780.631	117.08
780.812	123.22
780.994	8.53
781.176	115.03
781.358	49.49
781.54	-38.57
781.721	129.36
781.903	190.8
782.085	49.49
782.267	102.74
782.448	-116.39
782.63	22.87
782.812	110.93
782.993	176.47
783.175	102.74
783.357	61.78
783.538	49.49
783.72	33.11
783.901	119.12
784.083	123.22
784.264	55.64
784.446	-32.43
784.627	6.49
784.809	92.5
784.99	-13.99
785.172	59.73
785.353	61.78
785.535	69.97
785.716	-36.52
785.897	2.39
786.079	29.01
786.26	39.25
786.441	106.84
786.623	-120.49
786.804	18.77
786.985	41.3
787.167	104.79
787.348	33.11
787.529	102.74
787.71	211.28
787.891	55.64
788.073	-9.9
788.254	-16.04
788.435	268.63
788.616	104.79
788.797	-13.99
788.978	24.92
789.159	20.82
789.34	72.02
789.522	45.4
789.703	20.82
789.884	127.32
790.065	31.06
790.246	180.56
790.427	-1.71
790.607	123.22
790.788	155.99
790.969	-65.19
791.15	12.63
791.331	4.44
791.512	4.44
791.693	10.58
791.874	37.2
792.054	223.57
792.235	127.32
792.416	6.49
792.597	-22.19
792.778	131.41
792.958	24.92
793.139	112.98
793.32	90.45
793.5	22.87
793.681	117.08
793.862	94.55
794.042	-7.85
794.223	29.01
794.404	69.97
794.584	-24.23
794.765	-42.67
794.945	10.58
795.126	88.4
795.306	182.61
795.487	-36.52
795.667	10.58
795.848	96.6
796.028	-11.95
796.209	29.01
796.389	145.75
796.57	61.78
796.75	-5.8
796.93	-5.8
797.111	-9.9
797.291	26.96
797.471	115.03
797.652	-7.85
797.832	-65.19
798.012	33.11
798.192	18.77
798.373	-104.11
798.553	72.02
798.733	61.78
798.913	-124.58
799.093	-13.99
799.274	10.58
799.454	76.12
799.634	121.17
799.814	72.02
799.994	41.3
800.174	16.73
800.354	65.88
800.534	-102.06
800.714	86.36
800.894	-108.2
801.074	-59.05
801.254	-85.67
801.434	88.4
801.614	-18.09
801.794	-5.8
801.974	1945.91
802.154	6.49
802.334	80.21
802.514	-42.67
802.693	-22.19
802.873	39.25
803.053	121.17
803.233	102.74
803.413	-44.71
803.592	-7.85
803.772	-30.38
803.952	31.06
804.131	-65.19
804.311	31.06
804.491	119.12
804.67	-79.53
804.85	-36.52
805.03	80.21
805.209	86.36
805.389	16.73
805.568	-75.43
805.748	8.53
805.928	29.01
806.107	131.41
806.287	-7.85
806.466	41.3
806.646	24.92
806.825	22.87
807.004	14.68
807.184	106.84
807.363	16.73
807.543	20.82
807.722	-18.09
807.901	131.41
808.081	80.21
808.26	-59.05
808.439	37.2
808.619	88.4
808.798	4.44
808.977	102.74
809.156	63.83
809.336	45.4
809.515	72.02
809.694	-63.15
809.873	-9.9
810.052	98.64
810.231	143.7
810.411	22.87
810.59	143.7
810.769	53.59
810.948	80.21
811.127	-81.58
811.306	-26.28
811.485	-40.62
811.664	180.56
811.843	-36.52
812.022	18.77
812.201	14.68
812.38	4.44
812.559	-34.47
812.737	80.21
812.916	-13.99
813.095	-57
813.274	69.97
813.453	106.84
813.632	90.45
813.811	45.4
813.989	-106.15
814.168	39.25
814.347	2.39
814.526	8.53
814.704	186.71
814.883	41.3
815.062	6.49
815.24	51.54
815.419	12.63
815.598	102.74
815.776	-85.67
815.955	39.25
816.133	-116.39
816.312	-7.85
816.49	-79.53
816.669	108.88
816.847	39.25
817.026	102.74
817.204	-71.34
817.383	-13.99
817.561	69.97
817.74	67.92
817.918	41.3
818.097	-52.91
818.275	-69.29
818.453	57.68
818.632	14.68
818.81	2.39
818.988	22.87
819.167	33.11
819.345	-20.14
819.523	-44.71
819.701	55.64
819.879	45.4
820.058	2.39
820.236	74.07
820.414	164.18
820.592	37.2
820.77	4.44
820.948	-61.1
821.127	18.77
821.305	45.4
821.483	-24.23
821.661	78.16
821.839	53.59
822.017	-30.38
822.195	-44.71
822.373	102.74
822.551	-7.85
822.729	110.93
822.907	-22.19
823.085	49.49
823.262	117.08
823.44	-48.81
823.618	20.82
823.796	0.34
823.974	8.53
824.152	10.58
824.329	41.3
824.507	45.4
824.685	78.16
824.863	59.73
825.04	-1.71
825.218	29.01
825.396	67.92
825.574	88.4
825.751	45.4
825.929	82.26
826.107	-50.86
826.284	31.06
826.462	69.97
826.639	-52.91
826.817	-63.15
826.994	-59.05
827.172	-108.2
827.349	145.75
827.527	2.39
827.704	26.96
827.882	61.78
828.059	12.63
828.237	-69.29
828.414	108.88
828.591	-40.62
828.769	-9.9
828.946	-18.09
829.124	151.89
829.301	4.44
829.478	53.59
829.655	37.2
829.833	-26.28
830.01	-134.82
830.187	74.07
830.364	0.34
830.542	37.2
830.719	166.23
830.896	0.34
831.073	51.54
831.25	0.34
831.427	153.94
831.604	37.2
831.782	-36.52
831.959	-18.09
832.136	33.11
832.313	80.21
832.49	-57
832.667	63.83
832.844	-42.67
833.021	133.46
833.198	16.73
833.374	37.2
833.551	92.5
833.728	-32.43
833.905	92.5
834.082	-81.58
834.259	-5.8
834.436	106.84
834.612	-59.05
834.789	129.36
834.966	-20.14
835.143	37.2
835.319	20.82
835.496	69.97
835.673	29.01
835.85	67.92
836.026	65.88
836.203	94.55
836.38	-59.05
836.556	-20.14
836.733	-32.43
836.909	172.37
837.086	8.53
837.262	-138.92
837.439	78.16
837.616	-32.43
837.792	29.01
837.968	24.92
838.145	-104.11
838.321	-26.28
838.498	45.4
838.674	84.31
838.851	24.92
839.027	-22.19
839.203	-44.71
839.38	43.35
839.556	12.63
839.732	55.64
839.909	-24.23
840.085	-24.23
840.261	-83.63
840.437	51.54
840.614	-3.75
840.79	123.22
840.966	108.88
841.142	18.77
841.318	0.34
841.494	4.44
841.671	51.54
841.847	-3.75
842.023	-26.28
842.199	-13.99
842.375	65.88
842.551	-79.53
842.727	-20.14
842.903	135.51
843.079	-89.77
843.255	131.41
843.431	37.2
843.607	26.96
843.783	-151.21
843.959	33.11
844.134	31.06
844.31	33.11
844.486	14.68
844.662	-46.76
844.838	12.63
845.013	-20.14
845.189	55.64
845.365	76.12
845.541	-26.28
845.716	29.01
845.892	22.87
846.068	-67.24
846.244	-54.95
846.419	22.87
846.595	-34.47
846.77	-11.95
846.946	86.36
847.122	-48.81
847.297	-28.33
847.473	119.12
847.648	-46.76
847.824	45.4
847.999	-112.3
848.175	-5.8
848.35	14.68
848.526	125.27
848.701	115.03
848.876	84.31
849.052	174.42
849.227	-26.28
849.403	-1.71
849.578	-38.57
849.753	16.73
849.929	61.78
850.104	-61.1
850.279	8.53
850.454	6.49
850.63	14.68
850.805	16.73
850.98	43.35
851.155	4.44
851.33	29.01
851.505	-73.39
851.681	133.46
851.856	-1.71
852.031	12.63
852.206	37.2
852.381	-7.85
852.556	18.77
852.731	-18.09
852.906	108.88
853.081	57.68
853.256	45.4
853.431	-93.87
853.606	-32.43
853.781	-42.67
853.956	-38.57
854.131	51.54
854.305	-85.67
854.48	-11.95
854.655	-61.1
854.83	-71.34
855.005	51.54
855.18	6.49
855.354	16.73
855.529	22.87
855.704	12.63
855.879	18.77
856.053	-11.95
856.228	143.7
856.403	-9.9
856.577	24.92
856.752	-89.77
856.926	29.01
857.101	59.73
857.276	-48.81
857.45	-3.75
857.625	-20.14
857.799	22.87
857.974	10.58
858.148	-57
858.323	55.64
858.497	45.4
858.672	-46.76
858.846	-73.39
859.02	72.02
859.195	-52.91
859.369	26.96
859.543	2.39
859.718	-24.23
859.892	39.25
860.066	55.64
860.241	-40.62
860.415	16.73
860.589	12.63
860.763	-26.28
860.938	-42.67
861.112	59.73
861.286	12.63
861.46	0.34
861.634	35.16
861.808	53.59
861.982	20.82
862.157	-130.73
862.331	-106.15
862.505	-44.71
862.679	-50.86
862.853	-22.19
863.027	-30.38
863.201	147.8
863.375	-32.43
863.549	59.73
863.722	-36.52
863.896	53.59
864.07	10.58
864.244	6.49
864.418	51.54
864.592	10.58
864.766	8.53
864.939	-34.47
865.113	-7.85
865.287	35.16
865.461	-100.01
865.634	24.92
865.808	39.25
865.982	-13.99
866.156	-7.85
866.329	-95.91
866.503	6.49
866.676	123.22
866.85	67.92
867.024	-85.67
867.197	80.21
867.371	98.64
867.544	104.79
867.718	2.39
867.891	145.75
868.065	-77.48
868.238	22.87
868.412	41.3
868.585	69.97
868.759	-40.62
868.932	-16.04
869.105	-44.71
869.279	59.73
869.452	-67.24
869.625	61.78
869.799	8.53
869.972	-89.77
870.145	8.53
870.319	115.03
870.492	-16.04
870.665	-18.09
870.838	-24.23
871.011	-128.68
871.185	-24.23
871.358	-93.87
871.531	96.6
871.704	4.44
871.877	49.49
872.05	-59.05
872.223	-95.91
872.396	65.88
872.569	0.34
872.742	-65.19
872.915	63.83
873.088	4.44
873.261	-112.3
873.434	45.4
873.607	-22.19
873.78	76.12
873.953	-34.47
874.126	-16.04
874.299	31.06
874.471	78.16
874.644	80.21
874.817	76.12
874.99	90.45
875.163	-11.95
875.335	72.02
875.508	55.64
875.681	18.77
875.853	-24.23
876.026	-13.99
876.199	94.55
876.371	-5.8
876.544	-95.91
876.717	-5.8
876.889	-20.14
877.062	0.34
877.234	-69.29
877.407	0.34
877.579	49.49
877.752	51.54
877.924	115.03
878.097	74.07
878.269	6.49
878.442	67.92
878.614	133.46
878.786	61.78
878.959	43.35
879.131	90.45
879.303	-75.43
879.476	14.68
879.648	106.84
879.82	-48.81
879.993	-32.43
880.165	0.34
880.337	-44.71
880.509	63.83
880.681	-9.9
880.854	-42.67
881.026	53.59
881.198	123.22
881.37	18.77
881.542	-18.09
881.714	-40.62
881.886	-36.52
882.058	35.16
882.23	74.07
882.402	14.68
882.574	51.54
882.746	22.87
882.918	55.64
883.09	33.11
883.262	74.07
883.434	4.44
883.606	-114.34
883.778	10.58
883.95	90.45
884.122	-42.67
884.293	76.12
884.465	110.93
884.637	149.84
884.809	-16.04
884.98	51.54
885.152	59.73
885.324	55.64
885.496	-11.95
885.667	-75.43
885.839	39.25
886.011	51.54
886.182	24.92
886.354	35.16
886.525	63.83
886.697	51.54
886.869	-110.25
887.04	-20.14
887.212	94.55
887.383	160.08
887.555	65.88
887.726	29.01
887.897	-50.86
888.069	-16.04
888.24	78.16
888.412	20.82
888.583	82.26
888.754	-3.75
888.926	-46.76
889.097	-67.24
889.268	-87.72
889.44	12.63
889.611	6.49
889.782	-87.72
889.953	-48.81
890.125	78.16
890.296	-59.05
890.467	29.01
890.638	-26.28
890.809	59.73
890.98	12.63
891.151	-20.14
891.323	84.31
891.494	20.82
891.665	-30.38
891.836	-3.75
892.007	-57
892.178	-34.47
892.349	20.82
892.52	16.73
892.691	90.45
892.862	-102.06
893.032	-28.33
893.203	-5.8
893.374	-13.99
893.545	123.22
893.716	-44.71
893.887	86.36
894.057	53.59
894.228	18.77
894.399	-16.04
894.57	49.49
894.74	-44.71
894.911	74.07
895.082	-36.52
895.253	12.63
895.423	61.78
895.594	16.73
895.764	-3.75
895.935	-81.58
896.106	43.35
896.276	-7.85
896.447	47.44
896.617	-75.43
896.788	-44.71
896.958	24.92
897.129	-1.71
897.299	-54.95
897.47	112.98
897.64	69.97
897.81	14.68
897.981	63.83
898.151	-114.34
898.322	16.73
898.492	47.44
898.662	-26.28
898.832	29.01
899.003	4.44
899.173	-42.67
899.343	-28.33
899.513	-50.86
