Data from USB4F104151__105__10-45-30-563.txt Node

Date: Wed Feb 26 10:45:30 EST 2025
User: louis
Spectrometer: USB4F10415
Trigger mode: 4
Integration Time (sec): 1.000000E-1
Scans to average: 1
Electric dark correction enabled: true
Nonlinearity correction enabled: false
Boxcar width: 0
XAxis mode: Wavelengths
Number of Pixels in Spectrum: 3648
>>>>>Begin Spectral Data<<<<<
178.204	-388.26
178.424	-388.26
178.644	-388.26
178.864	-337.06
179.084	-384.16
179.304	-33.96
179.524	23.38
179.744	0.85
179.964	15.19
180.184	54.1
180.404	4.95
180.624	11.09
180.844	-48.3
181.064	-68.78
181.283	93.01
181.503	-68.78
181.723	17.24
181.943	-101.55
182.163	176.98
182.383	19.29
182.602	-38.06
182.822	90.96
183.042	187.22
183.262	-25.77
183.482	-3.24
183.701	23.38
183.921	60.24
184.141	-72.87
184.361	39.76
184.58	50
184.8	39.76
185.02	-25.77
185.239	148.31
185.459	62.29
185.679	152.4
185.898	-46.25
186.118	35.67
186.338	29.52
186.557	185.17
186.777	7
186.997	29.52
187.216	107.35
187.436	234.32
187.655	117.59
187.875	56.15
188.095	70.48
188.314	123.73
188.534	232.27
188.753	27.48
188.973	129.88
189.192	195.41
189.412	-31.91
189.631	164.69
189.851	2.9
190.07	144.21
190.29	-25.77
190.509	-87.21
190.729	68.44
190.948	99.16
191.168	224.08
191.387	52.05
191.607	-11.43
191.826	103.25
192.045	19.29
192.265	64.34
192.484	52.05
192.704	64.34
192.923	-19.63
193.142	115.54
193.362	152.4
193.581	146.26
193.8	68.44
194.02	215.89
194.239	64.34
194.458	93.01
194.678	37.72
194.897	-1.19
195.116	50
195.335	68.44
195.555	84.82
195.774	25.43
195.993	56.15
196.212	43.86
196.432	54.1
196.651	29.52
196.87	105.3
197.089	189.27
197.308	56.15
197.528	76.63
197.747	-62.63
197.966	82.77
198.185	21.33
198.404	-58.54
198.623	82.77
198.842	113.49
199.062	93.01
199.281	60.24
199.5	66.39
199.719	93.01
199.938	72.53
200.157	152.4
200.376	105.3
200.595	80.72
200.814	2.9
201.033	-23.72
201.252	127.83
201.471	54.1
201.69	117.59
201.909	-19.63
202.128	125.78
202.347	54.1
202.566	64.34
202.785	-50.35
203.004	64.34
203.223	314.19
203.442	62.29
203.661	-83.11
203.879	33.62
204.098	129.88
204.317	15.19
204.536	86.87
204.755	29.52
204.974	187.22
205.193	60.24
205.411	142.16
205.63	93.01
205.849	54.1
206.068	23.38
206.287	-31.91
206.505	160.59
206.724	29.52
206.943	-1.19
207.162	-66.73
207.381	187.22
207.599	-17.58
207.818	27.48
208.037	-68.78
208.255	54.1
208.474	146.26
208.693	-29.87
208.911	-15.53
209.13	93.01
209.349	109.4
209.567	23.38
209.786	54.1
210.005	140.12
210.223	41.81
210.442	-15.53
210.661	27.48
210.879	90.96
211.098	13.14
211.316	37.72
211.535	154.45
211.753	-11.43
211.972	82.77
212.191	7
212.409	107.35
212.628	58.2
212.846	-3.24
213.065	-5.29
213.283	78.68
213.502	25.43
213.72	-5.29
213.938	-7.34
214.157	23.38
214.375	99.16
214.594	2.9
214.812	99.16
215.031	66.39
215.249	58.2
215.467	35.67
215.686	37.72
215.904	142.16
216.122	125.78
216.341	191.31
216.559	152.4
216.778	93.01
216.996	97.11
217.214	15.19
217.432	121.68
217.651	35.67
217.869	43.86
218.087	66.39
218.306	54.1
218.524	76.63
218.742	45.91
218.96	74.58
219.179	56.15
219.397	58.2
219.615	187.22
219.833	138.07
220.051	45.91
220.27	152.4
220.488	160.59
220.706	66.39
220.924	52.05
221.142	21.33
221.36	95.06
221.578	82.77
221.796	-7.34
222.015	37.72
222.233	-5.29
222.451	189.27
222.669	-13.48
222.887	93.01
223.105	74.58
223.323	39.76
223.541	31.57
223.759	27.48
223.977	7
224.195	240.47
224.413	80.72
224.631	62.29
224.849	70.48
225.067	213.84
225.285	93.01
225.503	-29.87
225.721	-19.63
225.939	78.68
226.157	121.68
226.375	265.04
226.592	11.09
226.81	33.62
227.028	168.79
227.246	95.06
227.464	80.72
227.682	70.48
227.9	70.48
228.117	58.2
228.335	64.34
228.553	29.52
228.771	13.14
228.989	64.34
229.206	107.35
229.424	29.52
229.642	11.09
229.86	19.29
230.077	133.97
230.295	107.35
230.513	121.68
230.731	56.15
230.948	160.59
231.166	176.98
231.384	54.1
231.601	25.43
231.819	269.14
232.037	-19.63
232.254	-21.67
232.472	45.91
232.689	74.58
232.907	154.45
233.125	21.33
233.342	17.24
233.56	56.15
233.777	41.81
233.995	-21.67
234.213	88.92
234.43	43.86
234.648	27.48
234.865	80.72
235.083	101.2
235.3	62.29
235.518	103.25
235.735	222.03
235.953	99.16
236.17	-13.48
236.388	11.09
236.605	74.58
236.822	95.06
237.04	209.75
237.257	62.29
237.475	-9.39
237.692	23.38
237.909	56.15
238.127	2.9
238.344	72.53
238.562	31.57
238.779	-27.82
238.996	-9.39
239.214	80.72
239.431	35.67
239.648	31.57
239.865	78.68
240.083	84.82
240.3	45.91
240.517	15.19
240.735	43.86
240.952	164.69
241.169	86.87
241.386	103.25
241.603	45.91
241.821	-38.06
242.038	88.92
242.255	95.06
242.472	-33.96
242.689	111.44
242.907	138.07
243.124	52.05
243.341	60.24
243.558	62.29
243.775	37.72
243.992	-48.3
244.209	146.26
244.426	166.74
244.643	52.05
244.86	33.62
245.078	140.12
245.295	158.55
245.512	50
245.729	25.43
245.946	97.11
246.163	47.96
246.38	19.29
246.597	33.62
246.814	80.72
247.031	68.44
247.248	41.81
247.464	156.5
247.681	140.12
247.898	27.48
248.115	95.06
248.332	-9.39
248.549	150.36
248.766	228.18
248.983	17.24
249.2	88.92
249.417	72.53
249.633	-72.87
249.85	88.92
250.067	70.48
250.284	37.72
250.501	117.59
250.717	45.91
250.934	-15.53
251.151	37.72
251.368	-29.87
251.585	45.91
251.801	95.06
252.018	11.09
252.235	172.88
252.451	-11.43
252.668	70.48
252.885	72.53
253.102	136.02
253.318	-17.58
253.535	-40.11
253.752	-95.4
253.968	-25.77
254.185	2.9
254.401	9.05
254.618	95.06
254.835	-21.67
255.051	101.2
255.268	50
255.484	70.48
255.701	84.82
255.917	-25.77
256.134	11.09
256.351	78.68
256.567	0.85
256.784	29.52
257	-13.48
257.217	43.86
257.433	107.35
257.65	37.72
257.866	158.55
258.082	27.48
258.299	23.38
258.515	60.24
258.732	-31.91
258.948	-40.11
259.165	-42.15
259.381	43.86
259.597	86.87
259.814	76.63
260.03	27.48
260.246	56.15
260.463	156.5
260.679	131.92
260.895	123.73
261.112	121.68
261.328	56.15
261.544	37.72
261.761	144.21
261.977	52.05
262.193	-29.87
262.409	60.24
262.626	68.44
262.842	29.52
263.058	-60.59
263.274	105.3
263.49	60.24
263.707	144.21
263.923	58.2
264.139	-70.83
264.355	88.92
264.571	86.87
264.787	95.06
265.004	168.79
265.22	60.24
265.436	-52.39
265.652	37.72
265.868	88.92
266.084	-17.58
266.3	27.48
266.516	-1.19
266.732	47.96
266.948	21.33
267.164	74.58
267.38	113.49
267.596	86.87
267.812	156.5
268.028	78.68
268.244	13.14
268.46	43.86
268.676	29.52
268.892	86.87
269.108	2.9
269.324	-56.49
269.54	-31.91
269.756	160.59
269.972	-19.63
270.188	-7.34
270.403	-36.01
270.619	9.05
270.835	119.64
271.051	62.29
271.267	-19.63
271.483	23.38
271.698	150.36
271.914	74.58
272.13	70.48
272.346	82.77
272.562	41.81
272.777	105.3
272.993	41.81
273.209	15.19
273.425	115.54
273.64	-21.67
273.856	119.64
274.072	-62.63
274.287	-33.96
274.503	64.34
274.719	179.03
274.934	7
275.15	-142.5
275.366	62.29
275.581	54.1
275.797	109.4
276.012	-7.34
276.228	9.05
276.444	7
276.659	109.4
276.875	-25.77
277.09	25.43
277.306	-9.39
277.521	11.09
277.737	93.01
277.952	93.01
278.168	-3.24
278.383	60.24
278.599	125.78
278.814	58.2
279.03	66.39
279.245	121.68
279.461	-11.43
279.676	103.25
279.892	-19.63
280.107	54.1
280.322	4.95
280.538	109.4
280.753	-29.87
280.969	52.05
281.184	17.24
281.399	191.31
281.615	41.81
281.83	93.01
282.045	15.19
282.26	52.05
282.476	-7.34
282.691	107.35
282.906	101.2
283.122	76.63
283.337	19.29
283.552	86.87
283.767	-1.19
283.983	119.64
284.198	27.48
284.413	54.1
284.628	-17.58
284.843	54.1
285.058	37.72
285.274	78.68
285.489	11.09
285.704	93.01
285.919	-3.24
286.134	119.64
286.349	68.44
286.564	-9.39
286.779	148.31
286.995	60.24
287.21	-76.97
287.425	97.11
287.64	21.33
287.855	-38.06
288.07	0.85
288.285	107.35
288.5	66.39
288.715	97.11
288.93	-52.39
289.145	35.67
289.36	88.92
289.575	25.43
289.79	136.02
290.004	35.67
290.219	64.34
290.434	35.67
290.649	-19.63
290.864	-13.48
291.079	68.44
291.294	93.01
291.509	140.12
291.724	64.34
291.938	-33.96
292.153	66.39
292.368	68.44
292.583	52.05
292.798	133.97
293.012	37.72
293.227	90.96
293.442	-19.63
293.657	142.16
293.871	78.68
294.086	37.72
294.301	174.93
294.516	121.68
294.73	52.05
294.945	2.9
295.16	-5.29
295.374	109.4
295.589	95.06
295.804	-60.59
296.018	27.48
296.233	115.54
296.447	31.57
296.662	43.86
296.877	144.21
297.091	117.59
297.306	-64.68
297.52	47.96
297.735	17.24
297.949	158.55
298.164	109.4
298.378	88.92
298.593	19.29
298.807	64.34
299.022	72.53
299.236	154.45
299.451	-50.35
299.665	0.85
299.88	72.53
300.094	66.39
300.309	54.1
300.523	84.82
300.737	-21.67
300.952	58.2
301.166	90.96
301.381	43.86
301.595	31.57
301.809	27.48
302.024	-11.43
302.238	-19.63
302.452	148.31
302.667	54.1
302.881	140.12
303.095	39.76
303.309	84.82
303.524	-11.43
303.738	88.92
303.952	35.67
304.166	105.3
304.381	-154.79
304.595	172.88
304.809	-21.67
305.023	115.54
305.237	50
305.452	103.25
305.666	43.86
305.88	95.06
306.094	50
306.308	66.39
306.522	13.14
306.736	78.68
306.95	150.36
307.164	-44.2
307.379	37.72
307.593	174.93
307.807	148.31
308.021	74.58
308.235	140.12
308.449	-11.43
308.663	41.81
308.877	207.7
309.091	119.64
309.305	56.15
309.519	-52.39
309.733	103.25
309.947	-122.02
310.161	39.76
310.374	150.36
310.588	142.16
310.802	-31.91
311.016	37.72
311.23	88.92
311.444	-42.15
311.658	-23.72
311.872	86.87
312.085	123.73
312.299	105.3
312.513	148.31
312.727	39.76
312.941	41.81
313.154	99.16
313.368	54.1
313.582	70.48
313.796	-21.67
314.009	-3.24
314.223	138.07
314.437	64.34
314.651	117.59
314.864	-19.63
315.078	70.48
315.292	-38.06
315.505	113.49
315.719	99.16
315.933	64.34
316.146	13.14
316.36	-72.87
316.573	109.4
316.787	88.92
317.001	76.63
317.214	-1.19
317.428	60.24
317.641	-62.63
317.855	-9.39
318.068	109.4
318.282	56.15
318.495	160.59
318.709	107.35
318.922	43.86
319.136	172.88
319.349	103.25
319.563	41.81
319.776	95.06
319.99	-25.77
320.203	93.01
320.417	62.29
320.63	166.74
320.843	166.74
321.057	64.34
321.27	93.01
321.483	117.59
321.697	228.18
321.91	168.79
322.124	76.63
322.337	154.45
322.55	17.24
322.763	93.01
322.977	9.05
323.19	33.62
323.403	97.11
323.617	123.73
323.83	99.16
324.043	105.3
324.256	103.25
324.469	-60.59
324.683	80.72
324.896	-3.24
325.109	0.85
325.322	-19.63
325.535	72.53
325.748	158.55
325.962	45.91
326.175	107.35
326.388	103.25
326.601	105.3
326.814	56.15
327.027	78.68
327.24	187.22
327.453	-46.25
327.666	101.2
327.879	183.12
328.092	70.48
328.305	138.07
328.518	-25.77
328.731	-15.53
328.944	97.11
329.157	84.82
329.37	76.63
329.583	156.5
329.796	121.68
330.009	-23.72
330.222	115.54
330.435	129.88
330.648	84.82
330.861	43.86
331.073	64.34
331.286	93.01
331.499	60.24
331.712	0.85
331.925	33.62
332.138	4.95
332.35	66.39
332.563	23.38
332.776	185.17
332.989	-3.24
333.202	-9.39
333.414	150.36
333.627	60.24
333.84	72.53
334.053	-3.24
334.265	72.53
334.478	70.48
334.691	4.95
334.903	33.62
335.116	-44.2
335.329	115.54
335.541	179.03
335.754	131.92
335.966	56.15
336.179	68.44
336.392	99.16
336.604	64.34
336.817	166.74
337.029	195.41
337.242	103.25
337.454	191.31
337.667	58.2
337.88	203.6
338.092	78.68
338.305	39.76
338.517	-9.39
338.729	107.35
338.942	150.36
339.154	4.95
339.367	29.52
339.579	17.24
339.792	-19.63
340.004	121.68
340.217	11.09
340.429	39.76
340.641	-48.3
340.854	-21.67
341.066	23.38
341.278	58.2
341.491	199.51
341.703	60.24
341.915	-23.72
342.128	47.96
342.34	119.64
342.552	27.48
342.764	111.44
342.977	-1.19
343.189	101.2
343.401	13.14
343.613	-15.53
343.826	15.19
344.038	-17.58
344.25	25.43
344.462	-1.19
344.674	33.62
344.886	-52.39
345.099	72.53
345.311	176.98
345.523	27.48
345.735	-60.59
345.947	-5.29
346.159	56.15
346.371	62.29
346.583	33.62
346.795	136.02
347.007	-46.25
347.219	23.38
347.431	58.2
347.643	37.72
347.855	62.29
348.067	109.4
348.279	-40.11
348.491	19.29
348.703	131.92
348.915	15.19
349.127	25.43
349.339	131.92
349.551	129.88
349.763	160.59
349.975	76.63
350.187	97.11
350.399	84.82
350.61	113.49
350.822	-17.58
351.034	103.25
351.246	133.97
351.458	-27.82
351.669	70.48
351.881	76.63
352.093	58.2
352.305	88.92
352.517	152.4
352.728	136.02
352.94	58.2
353.152	174.93
353.363	17.24
353.575	-1.19
353.787	107.35
353.999	68.44
354.21	168.79
354.422	7
354.633	70.48
354.845	107.35
355.057	43.86
355.268	-7.34
355.48	113.49
355.692	9.05
355.903	23.38
356.115	39.76
356.326	-124.07
356.538	142.16
356.749	62.29
356.961	158.55
357.172	56.15
357.384	-7.34
357.595	244.56
357.807	-17.58
358.018	-15.53
358.23	43.86
358.441	144.21
358.653	56.15
358.864	23.38
359.075	-7.34
359.287	56.15
359.498	111.44
359.709	97.11
359.921	111.44
360.132	113.49
360.344	62.29
360.555	19.29
360.766	25.43
360.977	2.9
361.189	121.68
361.4	9.05
361.611	121.68
361.823	119.64
362.034	15.19
362.245	-42.15
362.456	54.1
362.667	129.88
362.879	-79.02
363.09	138.07
363.301	84.82
363.512	52.05
363.723	25.43
363.935	45.91
364.146	72.53
364.357	52.05
364.568	29.52
364.779	-46.25
364.99	68.44
365.201	7
365.412	101.2
365.623	-3.24
365.834	64.34
366.045	56.15
366.256	115.54
366.467	47.96
366.678	54.1
366.889	50
367.1	-36.01
367.311	195.41
367.522	29.52
367.733	64.34
367.944	93.01
368.155	72.53
368.366	90.96
368.577	240.47
368.788	140.12
368.999	29.52
369.209	97.11
369.42	195.41
369.631	185.17
369.842	-13.48
370.053	2.9
370.264	111.44
370.474	-1.19
370.685	41.81
370.896	64.34
371.107	129.88
371.317	68.44
371.528	62.29
371.739	205.65
371.95	105.3
372.16	129.88
372.371	-54.44
372.582	43.86
372.792	39.76
373.003	117.59
373.214	4.95
373.424	111.44
373.635	-29.87
373.846	138.07
374.056	66.39
374.267	50
374.477	156.5
374.688	-9.39
374.898	86.87
375.109	90.96
375.319	80.72
375.53	123.73
375.74	88.92
375.951	-13.48
376.161	70.48
376.372	56.15
376.582	80.72
376.793	99.16
377.003	68.44
377.214	11.09
377.424	84.82
377.635	82.77
377.845	25.43
378.055	142.16
378.266	-85.16
378.476	50
378.686	121.68
378.897	39.76
379.107	97.11
379.317	150.36
379.528	54.1
379.738	78.68
379.948	19.29
380.158	119.64
380.369	72.53
380.579	39.76
380.789	76.63
380.999	119.64
381.21	123.73
381.42	160.59
381.63	56.15
381.84	66.39
382.05	105.3
382.261	107.35
382.471	82.77
382.681	-23.72
382.891	224.08
383.101	80.72
383.311	-52.39
383.521	-48.3
383.731	74.58
383.941	115.54
384.151	7
384.361	74.58
384.571	82.77
384.781	47.96
384.991	250.71
385.201	246.61
385.411	54.1
385.621	54.1
385.831	41.81
386.041	97.11
386.251	95.06
386.461	82.77
386.671	-29.87
386.881	133.97
387.091	43.86
387.301	115.54
387.511	84.82
387.72	-21.67
387.93	187.22
388.14	-13.48
388.35	95.06
388.56	133.97
388.769	162.64
388.979	123.73
389.189	37.72
389.399	43.86
389.609	88.92
389.818	25.43
390.028	58.2
390.238	156.5
390.447	19.29
390.657	138.07
390.867	84.82
391.076	-25.77
391.286	64.34
391.496	86.87
391.705	9.05
391.915	105.3
392.125	93.01
392.334	58.2
392.544	170.83
392.753	41.81
392.963	-42.15
393.172	19.29
393.382	23.38
393.591	262.99
393.801	66.39
394.01	187.22
394.22	107.35
394.429	11.09
394.639	154.45
394.848	27.48
395.058	119.64
395.267	86.87
395.477	107.35
395.686	97.11
395.895	265.04
396.105	228.18
396.314	125.78
396.524	93.01
396.733	45.91
396.942	207.7
397.152	136.02
397.361	123.73
397.57	33.62
397.78	-9.39
397.989	45.91
398.198	230.23
398.407	19.29
398.617	43.86
398.826	62.29
399.035	113.49
399.244	185.17
399.453	115.54
399.663	68.44
399.872	39.76
400.081	0.85
400.29	144.21
400.499	50
400.708	142.16
400.917	19.29
401.127	37.72
401.336	-46.25
401.545	162.64
401.754	78.68
401.963	136.02
402.172	45.91
402.381	11.09
402.59	56.15
402.799	41.81
403.008	133.97
403.217	119.64
403.426	11.09
403.635	-7.34
403.844	72.53
404.053	68.44
404.262	-33.96
404.471	133.97
404.68	103.25
404.888	68.44
405.097	15.19
405.306	115.54
405.515	17.24
405.724	64.34
405.933	95.06
406.142	80.72
406.35	111.44
406.559	86.87
406.768	62.29
406.977	195.41
407.185	64.34
407.394	41.81
407.603	-54.44
407.812	111.44
408.02	78.68
408.229	97.11
408.438	113.49
408.646	0.85
408.855	78.68
409.064	138.07
409.272	66.39
409.481	133.97
409.69	35.67
409.898	-40.11
410.107	66.39
410.315	181.07
410.524	45.91
410.733	37.72
410.941	99.16
411.15	127.83
411.358	119.64
411.567	199.51
411.775	43.86
411.984	80.72
412.192	101.2
412.401	37.72
412.609	279.38
412.818	148.31
413.026	68.44
413.234	-1.19
413.443	52.05
413.651	-7.34
413.86	80.72
414.068	127.83
414.276	162.64
414.485	15.19
414.693	154.45
414.901	240.47
415.11	90.96
415.318	41.81
415.526	11.09
415.734	142.16
415.943	84.82
416.151	154.45
416.359	105.3
416.567	35.67
416.776	152.4
416.984	99.16
417.192	185.17
417.4	33.62
417.608	39.76
417.817	-15.53
418.025	201.55
418.233	246.61
418.441	39.76
418.649	23.38
418.857	93.01
419.065	142.16
419.273	-27.82
419.481	93.01
419.689	43.86
419.897	29.52
420.105	-7.34
420.313	197.46
420.521	187.22
420.729	244.56
420.937	7
421.145	31.57
421.353	107.35
421.561	144.21
421.769	64.34
421.977	74.58
422.185	125.78
422.393	97.11
422.601	197.46
422.809	107.35
423.017	129.88
423.224	45.91
423.432	125.78
423.64	76.63
423.848	150.36
424.056	11.09
424.263	166.74
424.471	95.06
424.679	252.75
424.887	52.05
425.094	181.07
425.302	101.2
425.51	97.11
425.718	115.54
425.925	129.88
426.133	9.05
426.341	168.79
426.548	43.86
426.756	109.4
426.964	50
427.171	29.52
427.379	105.3
427.586	97.11
427.794	211.79
428.001	217.94
428.209	138.07
428.417	242.51
428.624	232.27
428.832	170.83
429.039	168.79
429.247	88.92
429.454	136.02
429.662	228.18
429.869	187.22
430.076	189.27
430.284	230.23
430.491	217.94
430.699	107.35
430.906	185.17
431.114	193.36
431.321	213.84
431.528	183.12
431.736	156.5
431.943	293.71
432.15	236.37
432.358	185.17
432.565	310.1
432.772	43.86
432.979	240.47
433.187	185.17
433.394	365.39
433.601	240.47
433.808	308.05
434.016	299.86
434.223	252.75
434.43	314.19
434.637	209.75
434.844	349.01
435.052	281.43
435.259	306
435.466	396.11
435.673	320.34
435.88	432.97
436.087	424.78
436.294	383.82
436.501	451.41
436.708	418.64
436.915	488.27
437.122	490.32
437.329	308.05
437.537	473.93
437.743	453.45
437.95	555.85
438.157	465.74
438.364	469.84
438.571	578.38
438.778	535.37
438.985	656.2
439.192	645.96
439.399	592.72
439.606	699.21
439.813	643.92
440.02	852.81
440.227	813.9
440.433	817.99
440.64	807.75
440.847	715.59
441.054	811.85
441.261	869.19
441.467	742.22
441.674	836.42
441.881	1018.69
442.088	990.02
442.294	979.78
442.501	1037.13
442.708	1164.1
442.914	1112.9
443.121	1219.39
443.328	1188.68
443.534	1272.64
443.741	1268.55
443.948	1131.33
444.154	1260.35
444.361	1452.86
444.568	1405.76
444.774	1456.96
444.981	1323.84
445.187	1596.22
445.394	1518.4
445.6	1551.17
445.807	1925.94
446.013	1698.62
446.22	1727.29
446.426	1925.94
446.633	1985.34
446.839	2220.85
447.046	1964.86
447.252	2310.96
447.459	2304.82
447.665	2149.17
447.871	2521.9
448.078	2665.26
448.284	2560.81
448.491	2792.23
448.697	2835.24
448.903	3009.32
449.11	3199.78
449.316	2949.93
449.522	3353.38
449.728	3345.19
449.935	3336.99
450.141	3511.07
450.347	3754.78
450.553	3605.28
450.76	3902.23
450.966	4170.52
451.172	4033.3
451.378	4301.59
451.584	4446.99
451.791	4875.02
451.997	4864.78
452.203	4946.7
452.409	5276.42
452.615	5405.44
452.821	5206.79
453.027	5255.94
453.233	5870.33
453.44	5798.65
453.646	6279.93
453.852	6417.14
454.058	6572.79
454.264	6757.1
454.47	7377.64
454.676	7430.88
454.882	8024.79
455.088	7725.79
455.294	8026.84
455.5	8471.25
455.705	8917.71
455.911	9081.55
456.117	9456.33
456.323	9650.88
456.529	9743.04
456.735	10427.06
456.941	10855.09
457.147	11248.3
457.352	11498.15
457.558	11831.97
457.764	12602.01
457.97	12765.84
458.176	13310.6
458.381	14101.12
458.587	14082.69
458.793	15157.87
458.999	14865.01
459.204	16872.02
459.41	17199.69
459.616	17138.26
459.821	18377.28
460.027	18948.66
460.233	19915.3
460.438	19829.29
460.644	21070.36
460.85	21172.75
461.055	21914.12
461.261	23366.13
461.466	22725.11
461.672	23159.28
461.878	26124.74
462.083	25698.77
462.289	26048.97
462.494	26898.87
462.7	27546.03
462.905	27898.28
463.111	30175.62
463.316	31375.73
463.522	32282.98
463.727	33030.49
463.932	34394.44
464.138	35330.36
464.343	36608.29
464.549	37138.72
464.754	39670.01
464.959	40485.1
465.165	40857.83
465.37	40724.71
465.575	41029.86
465.781	43880.63
465.986	45205.67
466.191	44042.42
466.397	44755.11
466.602	43399.36
466.807	45844.63
467.012	46874.76
467.218	47947.9
467.423	47720.57
467.628	49246.31
467.833	51183.69
468.038	50808.91
468.244	49807.45
468.449	52209.72
468.654	51003.47
468.859	51101.77
469.064	51175.5
469.269	49901.66
469.474	50968.65
469.679	51955.77
469.885	50212.95
470.09	51441.73
470.295	51353.67
470.5	50110.55
470.705	50557.01
470.91	49621.09
471.115	48932.97
471.32	49436.77
471.525	49266.79
471.73	47759.48
471.935	47605.89
472.139	45596.83
472.344	46256.28
472.549	45820.06
472.754	44597.42
472.959	43905.21
473.164	42402
473.369	41861.33
473.574	42795.21
473.778	42053.84
473.983	41115.87
474.188	40384.75
474.393	38717.7
474.598	38723.85
474.802	37749.01
475.007	37452.06
475.212	37085.47
475.417	35285.31
475.621	35307.83
475.826	35037.5
476.031	33732.95
476.235	33157.47
476.44	33636.69
476.645	32420.2
476.849	32180.59
477.054	31736.18
477.259	31019.39
477.463	30527.88
477.668	29731.22
477.872	29825.42
478.077	29229.46
478.282	28459.43
478.486	28326.31
478.691	28168.62
478.895	27298.23
479.1	27212.21
479.304	27509.17
479.509	26409.41
479.713	26606.02
479.918	26057.16
480.122	25194.96
480.326	25579.98
480.531	25723.34
480.735	25209.3
480.94	24918.49
481.144	25547.22
481.348	24443.36
481.553	24568.29
481.757	23386.61
481.961	24240.61
482.166	24347.11
482.37	23871.98
482.574	23327.22
482.778	23194.1
482.983	23806.44
483.187	23323.12
483.391	23280.11
483.595	22602.24
483.8	22202.88
484.004	22391.3
484.208	22258.18
484.412	21803.53
484.616	22004.23
484.821	21574.16
485.025	20810.26
485.229	21172.75
485.433	20599.32
485.637	20593.18
485.841	20277.79
486.045	19810.86
486.249	19989.03
486.453	19415.6
486.657	19270.19
486.861	19051.06
487.065	18303.55
487.269	18358.85
487.473	17699.4
487.677	17826.37
487.881	17611.34
488.085	17410.64
488.289	17099.34
488.493	16761.43
488.697	16570.97
488.901	16482.91
489.105	15641.19
489.309	15516.26
489.512	15309.42
489.716	15030.9
489.92	14647.93
490.124	14477.94
490.328	14434.94
490.531	13750.92
490.735	13849.22
490.939	13623.94
491.143	13290.12
491.346	12866.19
491.55	12929.68
491.754	12595.86
491.958	12657.3
492.161	12276.38
492.365	12071.58
492.569	11831.97
492.772	11526.82
492.976	11561.64
493.18	11295.4
493.383	11258.54
493.587	11102.89
493.79	11063.98
493.994	10693.3
494.197	10498.74
494.401	10439.35
494.605	10590.9
494.808	10345.14
495.012	10295.99
495.215	10279.61
495.419	10111.68
495.622	9898.69
495.825	9908.93
496.029	9870.01
496.232	10019.52
496.436	9962.17
496.639	9857.73
496.843	9585.35
497.046	9743.04
497.249	9798.34
497.453	9917.12
497.656	9738.94
497.859	9685.7
498.063	9669.31
498.266	9831.1
498.469	9573.06
498.673	9792.19
498.876	9906.88
499.079	9851.58
499.282	9888.45
499.485	10005.18
499.689	9939.65
499.892	10123.96
500.095	9988.8
500.298	10058.43
500.501	10015.42
500.705	10351.29
500.908	10267.32
501.111	10418.87
501.314	10490.55
501.517	10744.5
501.72	10750.64
501.923	10560.18
502.126	11070.12
502.329	10908.33
502.532	11002.54
502.735	11240.11
502.938	11356.84
503.141	11528.87
503.344	11551.4
503.547	11768.48
503.75	11834.02
503.953	11905.7
504.156	12145.31
504.359	12329.63
504.562	12251.8
504.765	12386.97
504.968	12817.04
505.17	13009.55
505.373	13146.76
505.576	13361.8
505.779	13378.19
505.982	13613.7
506.185	14119.55
506.387	14238.33
506.59	14625.4
506.793	14789.24
506.996	14746.23
507.198	15536.74
507.401	15321.71
507.604	15884.9
507.807	16142.94
508.009	16527.96
508.212	16679.51
508.415	16800.34
508.617	17148.5
508.82	17599.05
509.022	17928.77
509.225	18612.79
509.428	18723.38
509.63	19108.4
509.833	19327.53
510.035	20017.7
510.238	19972.64
510.44	20517.4
510.643	21041.68
510.845	22006.28
511.048	21907.98
511.25	22366.72
511.453	22600.19
511.655	23888.36
511.858	24209.89
512.06	24453.6
512.262	25272.79
512.465	25362.9
512.667	26016.2
512.87	26427.84
513.072	27240.89
513.274	27728.3
513.477	28680.61
513.679	29213.08
513.881	29755.79
514.084	30292.36
514.286	30765.44
514.488	31715.7
514.69	32743.78
514.893	33083.74
515.095	33677.65
515.297	34089.29
515.499	34869.57
515.701	35834.16
515.904	36647.21
516.106	37126.43
516.308	38220.05
516.51	38455.56
516.712	39373.05
516.914	40024.31
517.116	40693.99
517.318	41271.52
517.52	42121.43
517.722	42485.97
517.925	43468.99
518.127	44429.49
518.329	45181.09
518.531	45519.01
518.733	46846.09
518.935	47446.15
519.136	47698.05
519.338	48787.56
519.54	49037.42
519.742	50069.59
519.944	50729.04
520.146	51880
520.348	52103.23
520.55	52467.76
520.752	52871.21
520.954	54106.14
521.155	53862.43
521.357	55388.17
521.559	55685.12
521.761	56760.31
521.963	56782.83
522.164	57069.55
522.366	57550.82
522.568	58310.62
522.77	58193.89
522.971	59064.27
523.173	58759.12
523.375	60417.98
523.576	59760.58
523.778	59797.44
523.98	60483.51
524.181	60536.76
524.383	60706.74
524.584	61042.61
524.786	61159.34
524.988	60485.56
525.189	61353.9
525.391	61620.14
525.592	61495.21
525.794	61521.83
525.995	61503.4
526.197	61579.18
526.398	61491.12
526.6	61472.68
526.801	61091.76
527.003	61081.52
527.204	61075.38
527.406	61071.28
527.607	60264.38
527.808	60276.67
528.01	59099.09
528.211	59379.66
528.412	60100.54
528.614	59332.56
528.815	58499.03
529.016	59037.65
529.218	57786.34
529.419	57559.02
529.62	56602.61
529.822	56299.51
530.023	56068.09
530.224	55615.49
530.425	54970.38
530.626	53882.91
530.828	53575.72
531.029	54233.11
531.23	52936.75
531.431	52215.86
531.632	51800.13
531.833	51343.43
532.035	50673.74
532.236	50176.09
532.437	49647.71
532.638	48963.69
532.839	48683.12
533.04	47777.92
533.241	46387.35
533.442	47335.56
533.643	46518.42
533.844	45154.47
534.045	45017.25
534.246	43788.47
534.447	43716.79
534.648	43186.37
534.849	42748.11
535.05	41517.28
535.251	41341.15
535.451	40691.94
535.652	40820.97
535.853	39727.35
536.054	39477.5
536.255	38922.5
536.456	37976.34
536.657	38428.94
536.857	36933.92
537.058	36845.86
537.259	36589.86
537.46	35930.42
537.66	35162.43
537.861	35109.18
538.062	34281.8
538.263	33986.89
538.463	33661.27
538.664	33223
538.865	32985.44
539.065	32293.22
539.266	31916.4
539.466	31639.92
539.667	31097.21
539.868	30941.57
540.068	30163.34
540.269	30185.86
540.469	29665.68
540.67	29262.23
540.87	29260.18
541.071	28778.91
541.271	28488.1
541.472	28316.07
541.672	27806.13
541.873	27249.08
542.073	26755.52
542.274	27552.18
542.474	26493.38
542.675	25936.33
542.875	25835.98
543.075	25463.25
543.276	25067.99
543.476	25219.54
543.676	24486.37
543.877	24658.4
544.077	24478.18
544.277	24115.69
544.478	23683.56
544.678	23392.75
544.878	23351.79
545.078	22907.38
545.279	22417.92
545.479	22084.1
545.679	22280.71
545.879	21932.55
546.079	21498.38
546.28	21180.95
546.48	20843.03
546.68	21377.55
546.88	20978.2
547.08	20548.12
547.28	19986.98
547.48	19802.66
547.68	19548.72
547.88	19206.7
548.081	19378.73
548.281	18948.66
548.481	18663.99
548.681	18698.81
548.881	18274.88
549.081	18285.12
549.28	17472.07
549.48	17562.19
549.68	17324.62
549.88	17400.4
550.08	16796.25
550.28	16763.48
550.48	16400.99
550.68	16351.84
550.88	15913.57
551.08	15782.5
551.279	15794.79
551.479	15245.93
551.679	15196.78
551.879	14711.41
552.079	14707.32
552.278	14482.04
552.478	14258.81
552.678	14097.02
552.878	13924.99
553.077	13482.63
553.277	13312.65
553.477	13439.62
553.676	13212.3
553.876	12874.38
554.076	12526.23
554.275	12212.89
554.475	12288.67
554.674	11958.94
554.874	11874.98
555.074	11428.52
555.273	11453.09
555.473	11014.83
555.672	11016.88
555.872	10836.66
556.071	10855.09
556.271	10617.52
556.47	10484.41
556.67	10044.09
556.869	10050.24
557.068	10068.67
557.268	9902.78
557.467	9777.86
557.667	9597.63
557.866	9269.96
558.065	9073.35
558.265	9130.7
558.464	8868.56
558.663	8860.37
558.863	8594.13
559.062	8426.2
559.261	8190.68
559.461	8245.98
559.66	8022.75
559.859	7926.49
560.058	7748.32
560.258	7727.84
560.457	7654.11
560.656	7627.49
560.855	7203.56
561.054	7439.08
561.253	7258.85
561.453	7011.05
561.652	6943.47
561.851	6920.94
562.05	6617.84
562.249	6449.91
562.448	6583.02
562.647	6236.92
562.846	6370.04
563.045	6345.46
563.244	6079.22
563.443	6062.84
563.642	5737.21
563.841	5915.39
564.04	5800.7
564.239	5710.59
564.438	5710.59
564.637	5448.45
564.836	5511.94
565.035	5602.05
565.234	5319.43
565.432	5280.52
565.631	5180.17
565.83	5186.31
566.029	5063.43
566.228	4967.18
566.427	4967.18
566.625	4754.19
566.824	4627.21
567.023	4723.47
567.222	4551.44
567.42	4526.86
567.619	4508.43
567.818	4397.84
568.016	4516.62
568.215	4338.45
568.414	4324.12
568.612	4170.52
568.811	4025.11
569.01	4037.4
569.208	3998.49
569.407	4014.87
569.605	3857.18
569.804	3724.06
570.002	3818.27
570.201	3631.9
570.4	3750.68
570.598	3574.56
570.797	3496.74
570.995	3494.69
571.193	3429.15
571.392	3525.41
571.59	3296.04
571.789	3400.48
571.987	3287.84
572.186	3304.23
572.384	3191.59
572.582	3054.37
572.781	3177.25
572.979	2898.73
573.177	2894.63
573.376	2986.79
573.574	3115.81
573.772	2968.36
573.971	2788.14
574.169	2575.15
574.367	2779.95
574.565	2751.28
574.763	2571.05
574.962	2648.88
575.16	2396.98
575.358	2368.31
575.556	2353.97
575.754	2462.51
575.952	2259.76
576.151	2472.75
576.349	2429.74
576.547	2198.32
576.745	2356.02
576.943	2265.91
577.141	2186.04
577.339	2161.46
577.537	2081.59
577.735	2089.78
577.933	2048.82
578.131	1930.04
578.329	2106.17
578.527	1968.95
578.725	1936.18
578.923	1731.39
579.121	1889.08
579.319	1796.92
579.516	1772.35
579.714	1907.51
579.912	1872.7
580.11	1663.8
580.308	1682.24
580.506	1790.78
580.704	1567.55
580.901	1536.83
581.099	1796.92
581.297	1678.14
581.495	1653.56
581.692	1626.94
581.89	1639.23
582.088	1538.88
582.285	1444.67
582.483	1557.31
582.681	1504.06
582.878	1438.53
583.076	1397.57
583.274	1383.23
583.471	1493.82
583.669	1436.48
583.866	1307.46
584.064	1413.95
584.262	1198.92
584.459	1211.2
584.657	1243.97
584.854	1307.46
585.052	1315.65
585.249	1227.59
585.447	1286.98
585.644	1043.27
585.841	1203.01
586.039	1229.63
586.236	1207.11
586.434	1205.06
586.631	1104.71
586.828	1092.42
587.026	1092.42
587.223	965.45
587.42	1033.03
587.618	1065.8
587.815	1053.51
588.012	1002.31
588.21	973.64
588.407	998.21
588.604	1041.22
588.801	938.82
588.999	891.72
589.196	1030.98
589.393	973.64
589.59	1010.5
589.787	940.87
589.984	904.01
590.182	883.53
590.379	791.37
590.576	869.19
590.773	830.28
590.97	861
591.167	996.17
591.364	953.16
591.561	920.39
591.758	934.73
591.955	832.33
592.152	920.39
592.349	795.47
592.546	885.58
592.743	830.28
592.94	854.86
593.137	824.14
593.334	854.86
593.531	881.48
593.727	934.73
593.924	936.78
594.121	858.95
594.318	789.32
594.515	901.96
594.712	959.3
594.908	981.83
595.105	832.33
595.302	916.3
595.499	1004.36
595.696	1041.22
595.892	908.1
596.089	985.93
596.286	947.01
596.482	1198.92
596.679	1166.15
596.876	1096.52
597.072	1178.44
597.269	1141.57
597.466	1235.78
597.662	1188.68
597.859	1231.68
598.055	1342.27
598.252	1413.95
598.448	1485.63
598.645	1475.39
598.841	1397.57
599.038	1590.08
599.234	1684.28
599.431	1624.89
599.627	1813.31
599.824	1723.2
600.02	1788.73
600.217	1825.59
600.413	1907.51
600.609	1991.48
600.806	2267.95
601.002	2120.5
601.198	2220.85
601.395	2267.95
601.591	2491.18
601.787	2513.71
601.984	2593.58
602.18	2745.13
602.376	2894.63
602.572	2976.55
602.769	3074.85
602.965	3175.2
603.161	3306.27
603.357	3308.32
603.553	3588.89
603.75	3441.44
603.946	3904.28
604.142	3920.67
604.338	4109.08
604.534	4002.58
604.73	4287.25
604.926	4287.25
605.122	4541.2
605.318	4655.89
605.514	4688.65
605.71	4971.27
605.906	5145.35
606.102	5212.93
606.298	5311.24
606.494	5585.66
606.69	5866.24
606.886	5862.14
607.082	6040.31
607.278	6238.97
607.474	6324.98
607.67	6533.87
607.866	6619.89
608.062	7191.27
608.257	7088.87
608.453	7326.44
608.649	7662.3
608.845	7842.53
609.041	7920.35
609.236	8387.29
609.432	8407.77
609.628	8841.93
609.824	9087.69
610.019	9046.73
610.215	9298.63
610.411	9827.01
610.606	9890.49
610.802	9984.7
610.998	10447.54
611.193	10848.94
611.389	10996.4
611.584	11379.37
611.78	11545.25
611.976	11897.5
612.171	12372.63
612.367	12731.03
612.562	12909.2
612.758	12952.21
612.953	13142.67
613.149	13871.75
613.344	14230.14
613.539	14770.8
613.735	14979.7
613.93	15546.98
614.126	15653.48
614.321	16267.87
614.517	16988.75
614.712	17289.81
614.907	17472.07
615.103	18113.09
615.298	18223.68
615.493	18971.19
615.688	18981.43
615.884	20331.04
616.079	20240.93
616.274	20795.93
616.47	21768.71
616.665	22053.38
616.86	22577.66
617.055	23114.23
617.25	23439.86
617.445	24654.3
617.641	24478.18
617.836	25412.05
618.031	25899.47
618.226	26739.13
618.421	27060.66
618.616	28109.22
618.811	28320.17
619.006	29510.04
619.201	29677.97
619.396	30701.95
619.591	30574.98
619.786	32239.98
619.981	32264.55
620.176	33636.69
620.371	33210.71
620.566	34974.02
620.761	35256.64
620.956	36153.65
621.151	36589.86
621.346	37675.29
621.541	37925.14
621.735	39227.65
621.93	39049.47
622.125	39930.1
622.32	40532.2
622.515	41623.77
622.709	41916.63
622.904	43342.02
623.099	43600.06
623.294	44626.09
623.488	44791.98
623.683	46293.14
623.878	46375.06
624.072	47571.07
624.267	48087.16
624.462	48789.61
624.656	48803.95
624.851	50237.53
625.046	50669.65
625.24	51750.98
625.435	52123.71
625.629	53037.1
625.824	53231.66
626.018	54362.14
626.213	54165.53
626.407	55509
626.602	55334.92
626.796	56619
626.991	57233.39
627.185	57282.54
627.38	57481.19
627.574	57952.23
627.768	58136.54
627.963	58589.14
628.157	58408.92
628.352	59152.33
628.546	58437.59
628.74	59473.87
628.935	59058.13
629.129	59574.22
629.323	58916.82
629.517	58308.57
629.712	58327
629.906	57655.27
630.1	56686.58
630.294	56723.44
630.489	55992.32
630.683	55707.65
630.877	54693.91
631.071	53438.5
631.265	53674.02
631.459	52152.38
631.653	50856.01
631.848	50114.65
632.042	48687.21
632.236	48185.46
632.43	46327.95
632.624	45516.96
632.818	44243.12
633.012	42545.36
633.206	41750.74
633.4	40655.08
633.594	38793.48
633.788	37701.91
633.982	36659.49
634.176	35285.31
634.369	34040.14
634.563	32903.52
634.757	31261.05
634.951	30509.44
635.145	29454.74
635.339	27888.04
635.533	26782.14
635.726	25842.12
635.92	24652.25
636.114	23929.32
636.308	22505.98
636.501	21862.92
636.695	21449.23
636.889	19909.16
637.083	19583.53
637.276	18629.18
637.47	17922.63
637.664	16812.63
637.857	16585.3
638.051	15747.69
638.244	14985.84
638.438	14649.97
638.632	14025.34
638.825	13249.16
639.019	12890.77
639.212	12094.11
639.406	11868.83
639.599	11471.53
639.793	10977.97
639.986	10543.8
640.18	10386.1
640.373	9831.1
640.567	9374.41
640.76	9089.74
640.954	8717.01
641.147	8331.99
641.34	8026.84
641.534	7617.25
641.727	7473.89
641.92	7224.04
642.114	7072.49
642.307	6675.18
642.5	6386.42
642.694	6025.98
642.887	6124.28
643.08	5849.85
643.273	5559.04
643.467	5311.24
643.66	4954.89
643.853	4786.96
644.046	4782.86
644.239	4420.37
644.432	4354.83
644.626	3998.49
644.819	4006.68
645.012	3900.19
645.205	3814.17
645.398	3765.02
645.591	3363.62
645.784	3269.41
645.977	3103.53
646.17	3121.96
646.363	2853.67
646.556	2706.22
646.749	2632.49
646.942	2845.48
647.135	2560.81
647.328	2526
647.521	2413.36
647.714	2208.56
647.907	2227
648.099	2038.58
648.292	2114.36
648.485	1981.24
648.678	1817.4
648.871	1737.53
649.064	1735.48
649.256	1653.56
649.449	1579.84
649.642	1495.87
649.835	1483.58
650.027	1409.86
650.22	1459.01
650.413	1356.61
650.605	1364.8
650.798	1227.59
650.991	1225.54
651.183	1239.87
651.376	1082.18
651.568	1160
651.761	1020.74
651.954	1127.24
652.146	932.68
652.339	1026.89
652.531	987.97
652.724	875.34
652.916	840.52
653.109	707.4
653.301	904.01
653.494	824.14
653.686	725.83
653.879	846.66
654.071	787.27
654.263	731.98
654.456	719.69
654.648	787.27
654.84	748.36
655.033	578.38
655.225	766.79
655.417	543.57
655.61	727.88
655.802	703.31
655.994	648.01
656.186	566.09
656.379	576.33
656.571	482.13
656.763	455.5
656.955	451.41
657.148	537.42
657.34	551.76
657.532	531.28
657.724	482.13
657.916	521.04
658.108	523.09
658.3	516.94
658.492	416.59
658.684	285.52
658.876	455.5
659.068	338.77
659.26	250.71
659.452	387.92
659.644	357.2
659.836	494.41
660.028	394.06
660.22	287.57
660.412	377.68
660.604	344.91
660.796	334.67
660.988	428.88
661.18	394.06
661.372	430.93
661.563	373.58
661.755	332.62
661.947	201.55
662.139	203.6
662.331	273.23
662.522	277.33
662.714	316.24
662.906	203.6
663.097	248.66
663.289	240.47
663.481	121.68
663.673	291.66
663.864	320.34
664.056	316.24
664.247	197.46
664.439	318.29
664.631	265.04
664.822	365.39
665.014	312.14
665.205	174.93
665.397	183.12
665.588	226.13
665.78	211.79
665.971	232.27
666.163	191.31
666.354	320.34
666.546	168.79
666.737	152.4
666.929	125.78
667.12	205.65
667.311	238.42
667.503	199.51
667.694	240.47
667.885	254.8
668.077	275.28
668.268	127.83
668.459	252.75
668.651	277.33
668.842	150.36
669.033	164.69
669.224	162.64
669.416	426.83
669.607	160.59
669.798	189.27
669.989	342.86
670.18	181.07
670.371	308.05
670.563	181.07
670.754	262.99
670.945	334.67
671.136	291.66
671.327	136.02
671.518	285.52
671.709	285.52
671.9	246.61
672.091	273.23
672.282	185.17
672.473	191.31
672.664	146.26
672.855	209.75
673.046	349.01
673.237	287.57
673.428	217.94
673.619	230.23
673.809	232.27
674	252.75
674.191	340.82
674.382	209.75
674.573	219.99
674.764	250.71
674.954	293.71
675.145	193.36
675.336	228.18
675.527	244.56
675.717	144.21
675.908	197.46
676.099	219.99
676.289	316.24
676.48	125.78
676.671	193.36
676.861	213.84
677.052	191.31
677.243	248.66
677.433	224.08
677.624	295.76
677.814	279.38
678.005	262.99
678.195	353.1
678.386	215.89
678.576	207.7
678.767	224.08
678.957	398.16
679.148	340.82
679.338	428.88
679.529	361.3
679.719	316.24
679.909	424.78
680.1	308.05
680.29	316.24
680.481	238.42
680.671	367.44
680.861	254.8
681.052	262.99
681.242	310.1
681.432	314.19
681.622	240.47
681.813	267.09
682.003	267.09
682.193	306
682.383	279.38
682.573	256.85
682.764	207.7
682.954	299.86
683.144	402.26
683.334	328.53
683.524	414.54
683.714	377.68
683.904	346.96
684.094	306
684.284	250.71
684.474	432.97
684.664	404.3
684.854	396.11
685.044	234.32
685.234	306
685.424	375.63
685.614	283.47
685.804	488.27
685.994	412.5
686.184	396.11
686.374	420.69
686.564	340.82
686.753	322.38
686.943	199.51
687.133	332.62
687.323	330.58
687.513	406.35
687.702	398.16
687.892	338.77
688.082	410.45
688.272	492.37
688.461	312.14
688.651	418.64
688.841	338.77
689.03	207.7
689.22	377.68
689.41	443.21
689.599	367.44
689.789	306
689.979	432.97
690.168	322.38
690.358	357.2
690.547	398.16
690.737	443.21
690.926	381.78
691.116	279.38
691.305	424.78
691.495	451.41
691.684	291.66
691.874	283.47
692.063	312.14
692.252	365.39
692.442	377.68
692.631	248.66
692.82	291.66
693.01	310.1
693.199	355.15
693.388	289.62
693.578	330.58
693.767	262.99
693.956	389.97
694.146	236.37
694.335	269.14
694.524	322.38
694.713	365.39
694.902	224.08
695.092	336.72
695.281	254.8
695.47	277.33
695.659	254.8
695.848	217.94
696.037	222.03
696.226	367.44
696.415	271.19
696.604	355.15
696.793	316.24
696.982	293.71
697.171	392.02
697.36	301.9
697.549	207.7
697.738	62.29
697.927	287.57
698.116	183.12
698.305	299.86
698.494	283.47
698.683	279.38
698.872	447.31
699.061	205.65
699.25	252.75
699.438	240.47
699.627	269.14
699.816	394.06
700.005	146.26
700.193	273.23
700.382	365.39
700.571	228.18
700.76	310.1
700.948	344.91
701.137	418.64
701.326	332.62
701.514	265.04
701.703	385.87
701.892	314.19
702.08	457.55
702.269	246.61
702.457	230.23
702.646	222.03
702.834	301.9
703.023	314.19
703.212	277.33
703.4	389.97
703.589	160.59
703.777	250.71
703.965	133.97
704.154	242.51
704.342	168.79
704.531	217.94
704.719	293.71
704.907	316.24
705.096	246.61
705.284	133.97
705.472	230.23
705.661	299.86
705.849	299.86
706.037	334.67
706.226	205.65
706.414	236.37
706.602	250.71
706.79	324.43
706.979	205.65
707.167	260.95
707.355	146.26
707.543	377.68
707.731	252.75
707.919	283.47
708.107	242.51
708.296	260.95
708.484	172.88
708.672	277.33
708.86	265.04
709.048	361.3
709.236	213.84
709.424	318.29
709.612	287.57
709.8	117.59
709.988	207.7
710.176	238.42
710.364	310.1
710.551	250.71
710.739	273.23
710.927	179.03
711.115	228.18
711.303	250.71
711.491	283.47
711.679	217.94
711.866	324.43
712.054	277.33
712.242	242.51
712.43	287.57
712.617	252.75
712.805	320.34
712.993	230.23
713.181	146.26
713.368	297.81
713.556	238.42
713.744	254.8
713.931	518.99
714.119	224.08
714.306	236.37
714.494	265.04
714.682	228.18
714.869	209.75
715.057	234.32
715.244	201.55
715.432	293.71
715.619	211.79
715.807	260.95
715.994	232.27
716.182	338.77
716.369	320.34
716.556	250.71
716.744	168.79
716.931	187.22
717.119	310.1
717.306	332.62
717.493	310.1
717.681	183.12
717.868	260.95
718.055	297.81
718.242	193.36
718.43	283.47
718.617	404.3
718.804	240.47
718.991	363.34
719.179	256.85
719.366	199.51
719.553	205.65
719.74	260.95
719.927	291.66
720.114	279.38
720.301	279.38
720.488	224.08
720.676	217.94
720.863	344.91
721.05	357.2
721.237	295.76
721.424	414.54
721.611	424.78
721.798	174.93
721.985	228.18
722.172	303.95
722.358	211.79
722.545	330.58
722.732	301.9
722.919	383.82
723.106	279.38
723.293	242.51
723.48	267.09
723.667	254.8
723.853	310.1
724.04	346.96
724.227	392.02
724.414	219.99
724.6	326.48
724.787	383.82
724.974	351.06
725.161	326.48
725.347	189.27
725.534	279.38
725.72	363.34
725.907	340.82
726.094	297.81
726.28	240.47
726.467	217.94
726.653	256.85
726.84	418.64
727.027	414.54
727.213	246.61
727.4	316.24
727.586	295.76
727.773	310.1
727.959	236.37
728.145	318.29
728.332	359.25
728.518	244.56
728.705	338.77
728.891	297.81
729.077	310.1
729.264	217.94
729.45	363.34
729.636	285.52
729.823	373.58
730.009	230.23
730.195	306
730.382	357.2
730.568	201.55
730.754	338.77
730.94	301.9
731.126	299.86
731.313	342.86
731.499	310.1
731.685	336.72
731.871	363.34
732.057	336.72
732.243	293.71
732.429	283.47
732.615	471.89
732.801	332.62
732.987	262.99
733.173	318.29
733.359	299.86
733.545	389.97
733.731	379.73
733.917	406.35
734.103	332.62
734.289	297.81
734.475	260.95
734.661	416.59
734.847	334.67
735.033	389.97
735.219	326.48
735.404	336.72
735.59	232.27
735.776	283.47
735.962	392.02
736.148	396.11
736.333	330.58
736.519	293.71
736.705	349.01
736.89	273.23
737.076	312.14
737.262	273.23
737.447	248.66
737.633	312.14
737.819	342.86
738.004	392.02
738.19	295.76
738.375	310.1
738.561	422.73
738.747	287.57
738.932	281.43
739.118	471.89
739.303	389.97
739.489	414.54
739.674	332.62
739.859	340.82
740.045	346.96
740.23	381.78
740.416	242.51
740.601	308.05
740.786	256.85
740.972	281.43
741.157	174.93
741.342	158.55
741.528	197.46
741.713	330.58
741.898	289.62
742.084	275.28
742.269	265.04
742.454	408.4
742.639	398.16
742.824	234.32
743.01	447.31
743.195	439.12
743.38	316.24
743.565	283.47
743.75	310.1
743.935	312.14
744.12	400.21
744.305	211.79
744.49	269.14
744.675	334.67
744.86	262.99
745.045	312.14
745.23	353.1
745.415	351.06
745.6	369.49
745.785	299.86
745.97	320.34
746.155	336.72
746.34	377.68
746.525	322.38
746.71	328.53
746.895	234.32
747.079	205.65
747.264	312.14
747.449	267.09
747.634	355.15
747.819	234.32
748.003	248.66
748.188	320.34
748.373	344.91
748.557	355.15
748.742	283.47
748.927	275.28
749.111	185.17
749.296	271.19
749.481	355.15
749.665	322.38
749.85	238.42
750.034	238.42
750.219	232.27
750.404	312.14
750.588	303.95
750.773	207.7
750.957	203.6
751.141	265.04
751.326	236.37
751.51	152.4
751.695	306
751.879	207.7
752.064	336.72
752.248	240.47
752.432	349.01
752.617	398.16
752.801	359.25
752.985	111.44
753.17	273.23
753.354	258.9
753.538	275.28
753.722	258.9
753.907	146.26
754.091	164.69
754.275	199.51
754.459	172.88
754.643	215.89
754.828	242.51
755.012	297.81
755.196	119.64
755.38	193.36
755.564	152.4
755.748	158.55
755.932	162.64
756.116	234.32
756.3	260.95
756.484	152.4
756.668	299.86
756.852	138.07
757.036	176.98
757.22	246.61
757.404	113.49
757.588	189.27
757.772	242.51
757.956	185.17
758.14	242.51
758.323	148.31
758.507	103.25
758.691	199.51
758.875	219.99
759.059	148.31
759.242	160.59
759.426	150.36
759.61	254.8
759.794	146.26
759.977	244.56
760.161	392.02
760.345	287.57
760.528	258.9
760.712	158.55
760.895	160.59
761.079	125.78
761.263	68.44
761.446	70.48
761.63	181.07
761.813	256.85
761.997	76.63
762.18	133.97
762.364	222.03
762.547	33.62
762.731	101.2
762.914	138.07
763.098	193.36
763.281	111.44
763.464	95.06
763.648	150.36
763.831	115.54
764.015	39.76
764.198	215.89
764.381	129.88
764.564	117.59
764.748	217.94
764.931	189.27
765.114	181.07
765.297	142.16
765.481	72.53
765.664	107.35
765.847	197.46
766.03	217.94
766.213	19.29
766.397	113.49
766.58	80.72
766.763	181.07
766.946	80.72
767.129	70.48
767.312	41.81
767.495	133.97
767.678	119.64
767.861	228.18
768.044	109.4
768.227	37.72
768.41	125.78
768.593	142.16
768.776	201.55
768.959	109.4
769.142	158.55
769.324	105.3
769.507	119.64
769.69	99.16
769.873	119.64
770.056	291.66
770.239	127.83
770.421	179.03
770.604	207.7
770.787	58.2
770.97	162.64
771.152	19.29
771.335	131.92
771.518	56.15
771.7	205.65
771.883	193.36
772.066	50
772.248	56.15
772.431	203.6
772.613	199.51
772.796	101.2
772.978	172.88
773.161	207.7
773.343	86.87
773.526	33.62
773.708	25.43
773.891	31.57
774.073	99.16
774.256	74.58
774.438	199.51
774.621	66.39
774.803	133.97
774.985	101.2
775.168	90.96
775.35	13.14
775.532	158.55
775.715	68.44
775.897	111.44
776.079	90.96
776.261	31.57
776.444	58.2
776.626	115.54
776.808	19.29
776.99	25.43
777.173	45.91
777.355	62.29
777.537	103.25
777.719	140.12
777.901	60.24
778.083	54.1
778.265	-1.19
778.447	111.44
778.629	68.44
778.811	27.48
778.993	144.21
779.175	164.69
779.357	113.49
779.539	-33.96
779.721	107.35
779.903	148.31
780.085	19.29
780.267	111.44
780.449	119.64
780.631	88.92
780.812	205.65
780.994	-42.15
781.176	27.48
781.358	64.34
781.54	56.15
781.721	133.97
781.903	144.21
782.085	-66.73
782.267	142.16
782.448	21.33
782.63	50
782.812	58.2
782.993	125.78
783.175	70.48
783.357	-68.78
783.538	60.24
783.72	-31.91
783.901	136.02
784.083	37.72
784.264	68.44
784.446	-5.29
784.627	21.33
784.809	127.83
784.99	15.19
785.172	103.25
785.353	93.01
785.535	90.96
785.716	-25.77
785.897	-15.53
786.079	-38.06
786.26	84.82
786.441	80.72
786.623	-11.43
786.804	50
786.985	25.43
787.167	103.25
787.348	60.24
787.529	86.87
787.71	197.46
787.891	82.77
788.073	-44.2
788.254	-83.11
788.435	254.8
788.616	80.72
788.797	-93.35
788.978	-58.54
789.159	62.29
789.34	144.21
789.522	25.43
789.703	66.39
789.884	117.59
790.065	62.29
790.246	207.7
790.427	35.67
790.607	226.13
790.788	70.48
790.969	35.67
791.15	148.31
791.331	-74.92
791.512	-17.58
791.693	-42.15
791.874	-19.63
792.054	156.5
792.235	103.25
792.416	-42.15
792.597	21.33
792.778	78.68
792.958	23.38
793.139	117.59
793.32	47.96
793.5	11.09
793.681	72.53
793.862	-27.82
794.042	62.29
794.223	-89.26
794.404	2.9
794.584	2.9
794.765	-33.96
794.945	-1.19
795.126	17.24
795.306	148.31
795.487	-11.43
795.667	41.81
795.848	111.44
796.028	82.77
796.209	0.85
796.389	62.29
796.57	33.62
796.75	13.14
796.93	74.58
797.111	39.76
797.291	4.95
797.471	54.1
797.652	-25.77
797.832	45.91
798.012	86.87
798.192	-38.06
798.373	-46.25
798.553	25.43
798.733	31.57
798.913	31.57
799.093	-9.39
799.274	-5.29
799.454	45.91
799.634	109.4
799.814	35.67
799.994	58.2
800.174	70.48
800.354	47.96
800.534	21.33
800.714	97.11
800.894	-33.96
801.074	-48.3
801.254	-56.49
801.434	84.82
801.614	33.62
801.794	-56.49
801.974	1674.04
802.154	-27.82
802.334	115.54
802.514	-64.68
802.693	27.48
802.873	2.9
803.053	90.96
803.233	105.3
803.413	21.33
803.592	-11.43
803.772	-64.68
803.952	11.09
804.131	23.38
804.311	90.96
804.491	131.92
804.67	-19.63
804.85	-42.15
805.03	19.29
805.209	78.68
805.389	-3.24
805.568	4.95
805.748	-17.58
805.928	-23.72
806.107	68.44
806.287	13.14
806.466	60.24
806.646	7
806.825	-33.96
807.004	7
807.184	27.48
807.363	27.48
807.543	23.38
807.722	-76.97
807.901	80.72
808.081	56.15
808.26	-113.83
808.439	43.86
808.619	-19.63
808.798	-21.67
808.977	9.05
809.156	119.64
809.336	60.24
809.515	138.07
809.694	2.9
809.873	17.24
810.052	68.44
810.231	138.07
810.411	43.86
810.59	54.1
810.769	2.9
810.948	47.96
811.127	-40.11
811.306	-97.45
811.485	17.24
811.664	181.07
811.843	7
812.022	-1.19
812.201	2.9
812.38	17.24
812.559	-19.63
812.737	80.72
812.916	-36.01
813.095	29.52
813.274	62.29
813.453	68.44
813.632	39.76
813.811	29.52
813.989	-115.88
814.168	27.48
814.347	7
814.526	23.38
814.704	158.55
814.883	146.26
815.062	-13.48
815.24	72.53
815.419	-62.63
815.598	-19.63
815.776	-44.2
815.955	9.05
816.133	-91.31
816.312	37.72
816.49	11.09
816.669	90.96
816.847	-9.39
817.026	56.15
817.204	-58.54
817.383	27.48
817.561	-122.02
817.74	60.24
817.918	62.29
818.097	-27.82
818.275	-83.11
818.453	45.91
818.632	29.52
818.81	21.33
818.988	76.63
819.167	-74.92
819.345	-42.15
819.523	-46.25
819.701	43.86
819.879	7
820.058	27.48
820.236	68.44
820.414	23.38
820.592	-23.72
820.77	64.34
820.948	-23.72
821.127	-40.11
821.305	23.38
821.483	-5.29
821.661	154.45
821.839	7
822.017	-109.74
822.195	-42.15
822.373	31.57
822.551	70.48
822.729	47.96
822.907	-62.63
823.085	39.76
823.262	50
823.44	-76.97
823.618	-91.31
823.796	78.68
823.974	-31.91
824.152	25.43
824.329	-1.19
824.507	35.67
824.685	78.68
824.863	13.14
825.04	45.91
825.218	93.01
825.396	21.33
825.574	-117.93
825.751	76.63
825.929	37.72
826.107	-74.92
826.284	29.52
826.462	-3.24
826.639	-5.29
826.817	-74.92
826.994	109.4
827.172	-48.3
827.349	136.02
827.527	29.52
827.704	11.09
827.882	146.26
828.059	-21.67
828.237	-3.24
828.414	144.21
828.591	-103.59
828.769	-7.34
828.946	-11.43
829.124	88.92
829.301	62.29
829.478	17.24
829.655	64.34
829.833	-25.77
830.01	-89.26
830.187	54.1
830.364	27.48
830.542	-13.48
830.719	103.25
830.896	68.44
831.073	39.76
831.25	47.96
831.427	52.05
831.604	-54.44
831.782	29.52
831.959	9.05
832.136	43.86
832.313	19.29
832.49	-19.63
832.667	-3.24
832.844	7
833.021	105.3
833.198	23.38
833.374	-27.82
833.551	33.62
833.728	-33.96
833.905	-3.24
834.082	-85.16
834.259	52.05
834.436	101.2
834.612	-27.82
834.789	54.1
834.966	88.92
835.143	-19.63
835.319	-144.55
835.496	52.05
835.673	21.33
835.85	52.05
836.026	-5.29
836.203	72.53
836.38	-50.35
836.556	-87.21
836.733	37.72
836.909	70.48
837.086	39.76
837.262	-115.88
837.439	11.09
837.616	33.62
837.792	-29.87
837.968	9.05
838.145	-93.35
838.321	-60.59
838.498	43.86
838.674	90.96
838.851	2.9
839.027	-103.59
839.203	43.86
839.38	60.24
839.556	-83.11
839.732	107.35
839.909	-36.01
840.085	64.34
840.261	-33.96
840.437	-50.35
840.614	-11.43
840.79	52.05
840.966	52.05
841.142	19.29
841.318	7
841.494	121.68
841.671	86.87
841.847	-33.96
842.023	-58.54
842.199	127.83
842.375	117.59
842.551	-160.94
842.727	-52.39
842.903	121.68
843.079	-87.21
843.255	131.92
843.431	47.96
843.607	54.1
843.783	-148.65
843.959	39.76
844.134	43.86
844.31	90.96
844.486	23.38
844.662	15.19
844.838	-7.34
845.013	2.9
845.189	82.77
845.365	60.24
845.541	9.05
845.716	11.09
845.892	86.87
846.068	9.05
846.244	19.29
846.419	31.57
846.595	-74.92
846.77	-99.5
846.946	41.81
847.122	-3.24
847.297	-38.06
847.473	164.69
847.648	-126.12
847.824	64.34
847.999	-124.07
848.175	13.14
848.35	0.85
848.526	105.3
848.701	66.39
848.876	127.83
849.052	93.01
849.227	-54.44
849.403	-122.02
849.578	15.19
849.753	29.52
849.929	-15.53
850.104	-42.15
850.279	13.14
850.454	47.96
850.63	52.05
850.805	-9.39
850.98	11.09
851.155	-9.39
851.33	0.85
851.505	-50.35
851.681	86.87
851.856	-17.58
852.031	19.29
852.206	-38.06
852.381	-91.31
852.556	-9.39
852.731	88.92
852.906	37.72
853.081	58.2
853.256	97.11
853.431	4.95
853.606	-13.48
853.781	-17.58
853.956	-150.7
854.131	-23.72
854.305	-95.4
854.48	-25.77
854.655	19.29
854.83	-1.19
855.005	-17.58
855.18	-11.43
855.354	-36.01
855.529	19.29
855.704	23.38
855.879	76.63
856.053	-58.54
856.228	60.24
856.403	-48.3
856.577	50
856.752	-64.68
856.926	-15.53
857.101	50
857.276	-81.07
857.45	4.95
857.625	25.43
857.799	60.24
857.974	-3.24
858.148	-132.26
858.323	17.24
858.497	-31.91
858.672	-3.24
858.846	-46.25
859.02	107.35
859.195	-93.35
859.369	-23.72
859.543	58.2
859.718	-11.43
859.892	99.16
860.066	52.05
860.241	-93.35
860.415	-31.91
860.589	-56.49
860.763	31.57
860.938	-44.2
861.112	-1.19
861.286	-42.15
861.46	-58.54
861.634	17.24
861.808	-48.3
861.982	-48.3
862.157	-74.92
862.331	0.85
862.505	-19.63
862.679	-140.46
862.853	35.67
863.027	-48.3
863.201	152.4
863.375	-15.53
863.549	97.11
863.722	-1.19
863.896	25.43
864.07	-44.2
864.244	9.05
864.418	17.24
864.592	-5.29
864.766	37.72
864.939	-66.73
865.113	-25.77
865.287	39.76
865.461	-46.25
865.634	93.01
865.808	19.29
865.982	27.48
866.156	-13.48
866.329	-111.78
866.503	13.14
866.676	50
866.85	37.72
867.024	-48.3
867.197	72.53
867.371	58.2
867.544	54.1
867.718	-95.4
867.891	39.76
868.065	-38.06
868.238	-15.53
868.412	82.77
868.585	47.96
868.759	-3.24
868.932	-48.3
869.105	-62.63
869.279	-9.39
869.452	-58.54
869.625	74.58
869.799	-19.63
869.972	-66.73
870.145	-56.49
870.319	35.67
870.492	-21.67
870.665	-27.82
870.838	-9.39
871.011	-103.59
871.185	-21.67
871.358	-29.87
871.531	72.53
871.704	4.95
871.877	-21.67
872.05	2.9
872.223	-42.15
872.396	45.91
872.569	58.2
872.742	-11.43
872.915	58.2
873.088	-95.4
873.261	-70.83
873.434	52.05
873.607	37.72
873.78	101.2
873.953	-17.58
874.126	31.57
874.299	66.39
874.471	72.53
874.644	-36.01
874.817	29.52
874.99	121.68
875.163	-29.87
875.335	45.91
875.508	-3.24
875.681	80.72
875.853	-7.34
876.026	-13.48
876.199	80.72
876.371	17.24
876.544	9.05
876.717	13.14
876.889	-48.3
877.062	66.39
877.234	-85.16
877.407	-40.11
877.579	-56.49
877.752	-72.87
877.924	88.92
878.097	62.29
878.269	76.63
878.442	-62.63
878.614	-17.58
878.786	93.01
878.959	-50.35
879.131	2.9
879.303	-66.73
879.476	-9.39
879.648	50
879.82	-27.82
879.993	-79.02
880.165	-15.53
880.337	-40.11
880.509	31.57
880.681	-68.78
880.854	-68.78
881.026	78.68
881.198	115.54
881.37	15.19
881.542	17.24
881.714	15.19
881.886	-44.2
882.058	39.76
882.23	-56.49
882.402	-17.58
882.574	7
882.746	138.07
882.918	84.82
883.09	19.29
883.262	-60.59
883.434	-91.31
883.606	-154.79
883.778	-1.19
883.95	95.06
884.122	-40.11
884.293	113.49
884.465	17.24
884.637	99.16
884.809	2.9
884.98	7
885.152	4.95
885.324	86.87
885.496	-111.78
885.667	-42.15
885.839	-46.25
886.011	138.07
886.182	7
886.354	21.33
886.525	109.4
886.697	43.86
886.869	-58.54
887.04	2.9
887.212	103.25
887.383	133.97
887.555	19.29
887.726	-21.67
887.897	-50.35
888.069	86.87
888.24	7
888.412	-5.29
888.583	13.14
888.754	-21.67
888.926	-72.87
889.097	-46.25
889.268	-64.68
889.44	-48.3
889.611	-97.45
889.782	-101.55
889.953	-140.46
890.125	168.79
890.296	-42.15
890.467	-15.53
890.638	-46.25
890.809	-74.92
890.98	7
891.151	50
891.323	50
891.494	-13.48
891.665	4.95
891.836	-42.15
892.007	-64.68
892.178	56.15
892.349	4.95
892.52	-64.68
892.691	-13.48
892.862	-48.3
893.032	-79.02
893.203	15.19
893.374	17.24
893.545	82.77
893.716	-46.25
893.887	41.81
894.057	31.57
894.228	-81.07
894.399	11.09
894.57	68.44
894.74	-7.34
894.911	-9.39
895.082	-52.39
895.253	-7.34
895.423	9.05
895.594	11.09
895.764	25.43
895.935	-91.31
896.106	39.76
896.276	-70.83
896.447	35.67
896.617	-7.34
896.788	-21.67
896.958	-42.15
897.129	-21.67
897.299	-56.49
897.47	90.96
897.64	74.58
897.81	45.91
897.981	41.81
898.151	0.85
898.322	23.38
898.492	39.76
898.662	-76.97
898.832	-40.11
899.003	2.9
899.173	41.81
899.343	-103.59
899.513	-74.92
