Data from USB4F104151__150__11-04-24-539.txt Node

Date: Wed Feb 26 11:04:24 EST 2025
User: louis
Spectrometer: USB4F10415
Trigger mode: 4
Integration Time (sec): 1.000000E-1
Scans to average: 1
Electric dark correction enabled: true
Nonlinearity correction enabled: false
Boxcar width: 0
XAxis mode: Wavelengths
Number of Pixels in Spectrum: 3648
>>>>>Begin Spectral Data<<<<<
178.204	-396.96
178.424	-396.96
178.644	-396.96
178.864	-407.2
179.084	-423.59
179.304	35.16
179.524	-1.71
179.744	-16.04
179.964	61.78
180.184	86.36
180.404	12.63
180.624	-16.04
180.844	-28.33
181.064	-112.3
181.283	80.21
181.503	-95.91
181.723	-5.8
181.943	-95.91
182.163	166.23
182.383	-34.47
182.602	96.6
182.822	135.51
183.042	141.65
183.262	-11.95
183.482	39.25
183.701	57.68
183.921	18.77
184.141	-77.48
184.361	90.45
184.58	24.92
184.8	92.5
185.02	-26.28
185.239	80.21
185.459	172.37
185.679	174.42
185.898	-120.49
186.118	86.36
186.338	74.07
186.557	198.99
186.777	-52.91
186.997	-36.52
187.216	106.84
187.436	192.85
187.655	115.03
187.875	82.26
188.095	59.73
188.314	182.61
188.534	112.98
188.753	-65.19
188.973	110.93
189.192	176.47
189.412	82.26
189.631	20.82
189.851	96.6
190.07	178.51
190.29	-5.8
190.509	53.59
190.729	-7.85
190.948	160.08
191.168	223.57
191.387	102.74
191.607	16.73
191.826	55.64
192.045	49.49
192.265	-18.09
192.484	0.34
192.704	104.79
192.923	104.79
193.142	244.05
193.362	215.38
193.581	139.6
193.8	158.03
194.02	166.23
194.239	86.36
194.458	96.6
194.678	41.3
194.897	-63.15
195.116	100.69
195.335	108.88
195.555	72.02
195.774	47.44
195.993	145.75
196.212	121.17
196.432	20.82
196.651	47.44
196.87	51.54
197.089	278.87
197.308	80.21
197.528	84.31
197.747	-22.19
197.966	110.93
198.185	143.7
198.404	-16.04
198.623	151.89
198.842	92.5
199.062	170.32
199.281	115.03
199.5	0.34
199.719	151.89
199.938	119.12
200.157	69.97
200.376	139.6
200.595	100.69
200.814	88.4
201.033	35.16
201.252	201.04
201.471	127.32
201.69	12.63
201.909	61.78
202.128	117.08
202.347	125.27
202.566	51.54
202.785	-81.58
203.004	-16.04
203.223	282.96
203.442	80.21
203.661	-28.33
203.879	125.27
204.098	137.56
204.317	-61.1
204.536	145.75
204.755	151.89
204.974	86.36
205.193	35.16
205.411	123.22
205.63	127.32
205.849	31.06
206.068	-36.52
206.287	29.01
206.505	162.13
206.724	100.69
206.943	55.64
207.162	4.44
207.381	76.12
207.599	29.01
207.818	24.92
208.037	-57
208.255	33.11
208.474	61.78
208.693	18.77
208.911	22.87
209.13	129.36
209.349	129.36
209.567	31.06
209.786	129.36
210.005	139.6
210.223	82.26
210.442	-73.39
210.661	47.44
210.879	41.3
211.098	90.45
211.316	61.78
211.535	94.55
211.753	65.88
211.972	61.78
212.191	37.2
212.409	-1.71
212.628	127.32
212.846	-40.62
213.065	59.73
213.283	88.4
213.502	92.5
213.72	31.06
213.938	63.83
214.157	29.01
214.375	88.4
214.594	24.92
214.812	86.36
215.031	-54.95
215.249	24.92
215.467	123.22
215.686	4.44
215.904	88.4
216.122	35.16
216.341	57.68
216.559	29.01
216.778	92.5
216.996	131.41
217.214	6.49
217.432	112.98
217.651	-50.86
217.869	94.55
218.087	67.92
218.306	-52.91
218.524	6.49
218.742	76.12
218.96	143.7
219.179	-22.19
219.397	-26.28
219.615	248.15
219.833	133.46
220.051	-22.19
220.27	51.54
220.488	98.64
220.706	61.78
220.924	-46.76
221.142	-9.9
221.36	61.78
221.578	-16.04
221.796	49.49
222.015	74.07
222.233	82.26
222.451	123.22
222.669	-1.71
222.887	92.5
223.105	10.58
223.323	39.25
223.541	102.74
223.759	106.84
223.977	72.02
224.195	94.55
224.413	88.4
224.631	76.12
224.849	143.7
225.067	287.06
225.285	84.31
225.503	-38.57
225.721	-44.71
225.939	69.97
226.157	74.07
226.375	223.57
226.592	86.36
226.81	139.6
227.028	139.6
227.246	145.75
227.464	78.16
227.682	112.98
227.9	186.71
228.117	47.44
228.335	151.89
228.553	76.12
228.771	22.87
228.989	35.16
229.206	108.88
229.424	18.77
229.642	41.3
229.86	-28.33
230.077	137.56
230.295	61.78
230.513	106.84
230.731	90.45
230.948	147.8
231.166	121.17
231.384	-26.28
231.601	31.06
231.819	239.95
232.037	-1.71
232.254	-22.19
232.472	59.73
232.689	24.92
232.907	186.71
233.125	100.69
233.342	33.11
233.56	35.16
233.777	57.68
233.995	-22.19
234.213	110.93
234.43	127.32
234.648	59.73
234.865	43.35
235.083	35.16
235.3	39.25
235.518	53.59
235.735	119.12
235.953	115.03
236.17	90.45
236.388	14.68
236.605	104.79
236.822	-18.09
237.04	198.99
237.257	115.03
237.475	31.06
237.692	20.82
237.909	49.49
238.127	18.77
238.344	18.77
238.562	92.5
238.779	-42.67
238.996	-3.75
239.214	67.92
239.431	100.69
239.648	41.3
239.865	94.55
240.083	115.03
240.3	20.82
240.517	33.11
240.735	57.68
240.952	145.75
241.169	63.83
241.386	43.35
241.603	108.88
241.821	18.77
242.038	137.56
242.255	137.56
242.472	-22.19
242.689	131.41
242.907	131.41
243.124	69.97
243.341	92.5
243.558	31.06
243.775	-73.39
243.992	-91.82
244.209	82.26
244.426	158.03
244.643	135.51
244.86	-24.23
245.078	121.17
245.295	82.26
245.512	80.21
245.729	-89.77
245.946	84.31
246.163	115.03
246.38	10.58
246.597	84.31
246.814	29.01
247.031	24.92
247.248	143.7
247.464	123.22
247.681	72.02
247.898	82.26
248.115	129.36
248.332	12.63
248.549	176.47
248.766	188.75
248.983	86.36
249.2	59.73
249.417	84.31
249.633	47.44
249.85	143.7
250.067	84.31
250.284	74.07
250.501	8.53
250.717	94.55
250.934	-50.86
251.151	35.16
251.368	24.92
251.585	123.22
251.801	121.17
252.018	-11.95
252.235	100.69
252.451	-54.95
252.668	-9.9
252.885	158.03
253.102	125.27
253.318	-32.43
253.535	39.25
253.752	-48.81
253.968	51.54
254.185	-30.38
254.401	37.2
254.618	94.55
254.835	-57
255.051	139.6
255.268	117.08
255.484	76.12
255.701	61.78
255.917	69.97
256.134	12.63
256.351	174.42
256.567	-1.71
256.784	29.01
257	-1.71
257.217	112.98
257.433	86.36
257.65	43.35
257.866	135.51
258.082	-102.06
258.299	20.82
258.515	90.45
258.732	22.87
258.948	-97.96
259.165	74.07
259.381	31.06
259.597	86.36
259.814	55.64
260.03	33.11
260.246	72.02
260.463	63.83
260.679	153.94
260.895	37.2
261.112	65.88
261.328	43.35
261.544	18.77
261.761	184.66
261.977	-9.9
262.193	6.49
262.409	129.36
262.626	45.4
262.842	100.69
263.058	18.77
263.274	135.51
263.49	106.84
263.707	106.84
263.923	88.4
264.139	20.82
264.355	69.97
264.571	133.46
264.787	45.4
265.004	160.08
265.22	63.83
265.436	47.44
265.652	24.92
265.868	86.36
266.084	-54.95
266.3	10.58
266.516	14.68
266.732	2.39
266.948	100.69
267.164	53.59
267.38	104.79
267.596	123.22
267.812	129.36
268.028	65.88
268.244	53.59
268.46	119.12
268.676	80.21
268.892	129.36
269.108	-30.38
269.324	4.44
269.54	29.01
269.756	72.02
269.972	-63.15
270.188	0.34
270.403	45.4
270.619	84.31
270.835	115.03
271.051	-7.85
271.267	8.53
271.483	37.2
271.698	170.32
271.914	96.6
272.13	86.36
272.346	-13.99
272.562	102.74
272.777	104.79
272.993	26.96
273.209	41.3
273.425	84.31
273.64	-93.87
273.856	102.74
274.072	29.01
274.287	26.96
274.503	117.08
274.719	110.93
274.934	10.58
275.15	-5.8
275.366	67.92
275.581	26.96
275.797	-32.43
276.012	47.44
276.228	39.25
276.444	151.89
276.659	125.27
276.875	-7.85
277.09	4.44
277.306	0.34
277.521	127.32
277.737	106.84
277.952	59.73
278.168	61.78
278.383	74.07
278.599	2.39
278.814	166.23
279.03	121.17
279.245	119.12
279.461	61.78
279.676	135.51
279.892	-5.8
280.107	12.63
280.322	6.49
280.538	92.5
280.753	10.58
280.969	39.25
281.184	139.6
281.399	149.84
281.615	-7.85
281.83	10.58
282.045	-5.8
282.26	-16.04
282.476	0.34
282.691	139.6
282.906	104.79
283.122	82.26
283.337	-87.72
283.552	119.12
283.767	74.07
283.983	137.56
284.198	31.06
284.413	104.79
284.628	-9.9
284.843	102.74
285.058	61.78
285.274	-28.33
285.489	-9.9
285.704	96.6
285.919	18.77
286.134	88.4
286.349	29.01
286.564	29.01
286.779	139.6
286.995	4.44
287.21	-71.34
287.425	-5.8
287.64	43.35
287.855	72.02
288.07	-65.19
288.285	100.69
288.5	141.65
288.715	88.4
288.93	49.49
289.145	-34.47
289.36	31.06
289.575	63.83
289.79	184.66
290.004	-26.28
290.219	104.79
290.434	-13.99
290.649	-24.23
290.864	61.78
291.079	-9.9
291.294	86.36
291.509	112.98
291.724	39.25
291.938	-3.75
292.153	98.64
292.368	-3.75
292.583	49.49
292.798	166.23
293.012	106.84
293.227	47.44
293.442	16.73
293.657	63.83
293.871	78.16
294.086	59.73
294.301	198.99
294.516	231.76
294.73	102.74
294.945	-26.28
295.16	4.44
295.374	59.73
295.589	80.21
295.804	-13.99
296.018	94.55
296.233	82.26
296.447	155.99
296.662	6.49
296.877	33.11
297.091	55.64
297.306	69.97
297.52	72.02
297.735	26.96
297.949	41.3
298.164	104.79
298.378	14.68
298.593	-61.1
298.807	108.88
299.022	18.77
299.236	176.47
299.451	57.68
299.665	-11.95
299.88	-7.85
300.094	78.16
300.309	0.34
300.523	57.68
300.737	12.63
300.952	96.6
301.166	86.36
301.381	37.2
301.595	90.45
301.809	35.16
302.024	121.17
302.238	55.64
302.452	74.07
302.667	-13.99
302.881	100.69
303.095	168.27
303.309	96.6
303.524	37.2
303.738	10.58
303.952	0.34
304.166	92.5
304.381	-65.19
304.595	186.71
304.809	67.92
305.023	69.97
305.237	67.92
305.452	35.16
305.666	-5.8
305.88	84.31
306.094	96.6
306.308	86.36
306.522	108.88
306.736	96.6
306.95	110.93
307.164	90.45
307.379	0.34
307.593	201.04
307.807	98.64
308.021	123.22
308.235	147.8
308.449	-69.29
308.663	63.83
308.877	176.47
309.091	112.98
309.305	104.79
309.519	-104.11
309.733	115.03
309.947	-52.91
310.161	88.4
310.374	82.26
310.588	164.18
310.802	-24.23
311.016	53.59
311.23	65.88
311.444	22.87
311.658	119.12
311.872	162.13
312.085	147.8
312.299	147.8
312.513	184.66
312.727	43.35
312.941	-61.1
313.154	57.68
313.368	53.59
313.582	-18.09
313.796	67.92
314.009	39.25
314.223	149.84
314.437	55.64
314.651	90.45
314.864	-22.19
315.078	67.92
315.292	-46.76
315.505	-20.14
315.719	94.55
315.933	135.51
316.146	-13.99
316.36	-13.99
316.573	112.98
316.787	100.69
317.001	61.78
317.214	-28.33
317.428	100.69
317.641	-32.43
317.855	108.88
318.068	35.16
318.282	94.55
318.495	211.28
318.709	53.59
318.922	100.69
319.136	174.42
319.349	186.71
319.563	2.39
319.776	112.98
319.99	-89.77
320.203	76.12
320.417	26.96
320.63	160.08
320.843	278.87
321.057	12.63
321.27	63.83
321.483	117.08
321.697	67.92
321.91	69.97
322.124	45.4
322.337	20.82
322.55	-32.43
322.763	6.49
322.977	49.49
323.19	31.06
323.403	127.32
323.617	82.26
323.83	145.75
324.043	72.02
324.256	-22.19
324.469	-50.86
324.683	153.94
324.896	49.49
325.109	-7.85
325.322	-38.57
325.535	90.45
325.748	127.32
325.962	37.2
326.175	145.75
326.388	123.22
326.601	158.03
326.814	-5.8
327.027	102.74
327.24	209.23
327.453	-24.23
327.666	98.64
327.879	172.37
328.092	143.7
328.305	78.16
328.518	-67.24
328.731	43.35
328.944	-34.47
329.157	117.08
329.37	-36.52
329.583	119.12
329.796	108.88
330.009	41.3
330.222	137.56
330.435	123.22
330.648	49.49
330.861	24.92
331.073	86.36
331.286	121.17
331.499	69.97
331.712	-30.38
331.925	37.2
332.138	76.12
332.35	104.79
332.563	57.68
332.776	155.99
332.989	8.53
333.202	-7.85
333.414	16.73
333.627	33.11
333.84	-11.95
334.053	20.82
334.265	26.96
334.478	-30.38
334.691	69.97
334.903	94.55
335.116	51.54
335.329	65.88
335.541	80.21
335.754	184.66
335.966	45.4
336.179	41.3
336.392	-16.04
336.604	92.5
336.817	69.97
337.029	20.82
337.242	39.25
337.454	90.45
337.667	61.78
337.88	112.98
338.092	104.79
338.305	76.12
338.517	37.2
338.729	125.27
338.942	131.41
339.154	-1.71
339.367	18.77
339.579	20.82
339.792	16.73
340.004	88.4
340.217	41.3
340.429	110.93
340.641	-48.81
340.854	-36.52
341.066	78.16
341.278	133.46
341.491	162.13
341.703	14.68
341.915	-5.8
342.128	155.99
342.34	18.77
342.552	-30.38
342.764	53.59
342.977	88.4
343.189	115.03
343.401	84.31
343.613	-34.47
343.826	98.64
344.038	20.82
344.25	53.59
344.462	16.73
344.674	41.3
344.886	24.92
345.099	29.01
345.311	82.26
345.523	2.39
345.735	-18.09
345.947	94.55
346.159	88.4
346.371	100.69
346.583	61.78
346.795	235.86
347.007	-3.75
347.219	69.97
347.431	94.55
347.643	178.51
347.855	74.07
348.067	205.14
348.279	-20.14
348.491	61.78
348.703	108.88
348.915	8.53
349.127	49.49
349.339	121.17
349.551	47.44
349.763	104.79
349.975	67.92
350.187	131.41
350.399	198.99
350.61	55.64
350.822	2.39
351.034	22.87
351.246	0.34
351.458	129.36
351.669	26.96
351.881	106.84
352.093	211.28
352.305	121.17
352.517	90.45
352.728	102.74
352.94	92.5
353.152	209.23
353.363	29.01
353.575	80.21
353.787	182.61
353.999	149.84
354.21	119.12
354.422	-22.19
354.633	29.01
354.845	51.54
355.057	69.97
355.268	6.49
355.48	102.74
355.692	29.01
355.903	96.6
356.115	-46.76
356.326	-11.95
356.538	198.99
356.749	63.83
356.961	135.51
357.172	41.3
357.384	45.4
357.595	309.58
357.807	18.77
358.018	-7.85
358.23	20.82
358.441	123.22
358.653	98.64
358.864	-40.62
359.075	-42.67
359.287	133.46
359.498	131.41
359.709	108.88
359.921	35.16
360.132	110.93
360.344	26.96
360.555	-16.04
360.766	76.12
360.977	-28.33
361.189	166.23
361.4	106.84
361.611	102.74
361.823	168.27
362.034	102.74
362.245	12.63
362.456	72.02
362.667	80.21
362.879	-9.9
363.09	96.6
363.301	78.16
363.512	22.87
363.723	26.96
363.935	37.2
364.146	110.93
364.357	-32.43
364.568	-11.95
364.779	47.44
364.99	119.12
365.201	22.87
365.412	67.92
365.623	-69.29
365.834	39.25
366.045	26.96
366.256	162.13
366.467	141.65
366.678	-16.04
366.889	131.41
367.1	4.44
367.311	69.97
367.522	57.68
367.733	123.22
367.944	96.6
368.155	29.01
368.366	135.51
368.577	180.56
368.788	92.5
368.999	37.2
369.209	98.64
369.42	205.14
369.631	264.53
369.842	35.16
370.053	31.06
370.264	153.94
370.474	2.39
370.685	86.36
370.896	43.35
371.107	108.88
371.317	82.26
371.528	-42.67
371.739	166.23
371.95	133.46
372.16	80.21
372.371	10.58
372.582	24.92
372.792	45.4
373.003	31.06
373.214	84.31
373.424	106.84
373.635	-59.05
373.846	141.65
374.056	43.35
374.267	63.83
374.477	18.77
374.688	-28.33
374.898	74.07
375.109	69.97
375.319	88.4
375.53	98.64
375.74	82.26
375.951	-1.71
376.161	94.55
376.372	90.45
376.582	-32.43
376.793	29.01
377.003	-11.95
377.214	16.73
377.424	12.63
377.635	33.11
377.845	31.06
378.055	141.65
378.266	22.87
378.476	137.56
378.686	106.84
378.897	80.21
379.107	155.99
379.317	196.95
379.528	14.68
379.738	125.27
379.948	-36.52
380.158	158.03
380.369	37.2
380.579	31.06
380.789	41.3
380.999	88.4
381.21	78.16
381.42	205.14
381.63	43.35
381.84	51.54
382.05	149.84
382.261	102.74
382.471	117.08
382.681	24.92
382.891	282.96
383.101	100.69
383.311	-5.8
383.521	29.01
383.731	90.45
383.941	106.84
384.151	80.21
384.361	65.88
384.571	112.98
384.781	72.02
384.991	239.95
385.201	188.75
385.411	149.84
385.621	125.27
385.831	41.3
386.041	80.21
386.251	76.12
386.461	110.93
386.671	84.31
386.881	110.93
387.091	-1.71
387.301	143.7
387.511	29.01
387.72	88.4
387.93	137.56
388.14	-18.09
388.35	61.78
388.56	88.4
388.769	145.75
388.979	41.3
389.189	2.39
389.399	88.4
389.609	57.68
389.818	160.08
390.028	29.01
390.238	26.96
390.447	29.01
390.657	4.44
390.867	63.83
391.076	-48.81
391.286	96.6
391.496	53.59
391.705	129.36
391.915	145.75
392.125	168.27
392.334	-7.85
392.544	133.46
392.753	94.55
392.963	4.44
393.172	20.82
393.382	35.16
393.591	102.74
393.801	-50.86
394.01	63.83
394.22	55.64
394.429	4.44
394.639	31.06
394.848	92.5
395.058	59.73
395.267	53.59
395.477	115.03
395.686	61.78
395.895	145.75
396.105	188.75
396.314	45.4
396.524	72.02
396.733	108.88
396.942	125.27
397.152	82.26
397.361	51.54
397.57	117.08
397.78	88.4
397.989	57.68
398.198	258.39
398.407	45.4
398.617	37.2
398.826	55.64
399.035	41.3
399.244	127.32
399.453	127.32
399.663	121.17
399.872	94.55
400.081	-59.05
400.29	166.23
400.499	33.11
400.708	94.55
400.917	65.88
401.127	55.64
401.336	29.01
401.545	211.28
401.754	153.94
401.963	121.17
402.172	14.68
402.381	43.35
402.59	33.11
402.799	131.41
403.008	90.45
403.217	4.44
403.426	57.68
403.635	-34.47
403.844	80.21
404.053	-9.9
404.262	22.87
404.471	188.75
404.68	166.23
404.888	119.12
405.097	-5.8
405.306	133.46
405.515	98.64
405.724	72.02
405.933	90.45
406.142	35.16
406.35	63.83
406.559	82.26
406.768	180.56
406.977	178.51
407.185	80.21
407.394	131.41
407.603	12.63
407.812	145.75
408.02	108.88
408.229	51.54
408.438	47.44
408.646	-71.34
408.855	72.02
409.064	55.64
409.272	59.73
409.481	59.73
409.69	18.77
409.898	10.58
410.107	123.22
410.315	153.94
410.524	-13.99
410.733	82.26
410.941	-16.04
411.15	137.56
411.358	139.6
411.567	131.41
411.775	-52.91
411.984	57.68
412.192	112.98
412.401	-34.47
412.609	162.13
412.818	90.45
413.026	151.89
413.234	123.22
413.443	78.16
413.651	-7.85
413.86	29.01
414.068	219.47
414.276	244.05
414.485	45.4
414.693	184.66
414.901	151.89
415.11	119.12
415.318	16.73
415.526	74.07
415.734	168.27
415.943	29.01
416.151	141.65
416.359	-1.71
416.567	84.31
416.776	106.84
416.984	102.74
417.192	256.34
417.4	55.64
417.608	57.68
417.817	84.31
418.025	127.32
418.233	217.43
418.441	10.58
418.649	6.49
418.857	102.74
419.065	192.85
419.273	-59.05
419.481	102.74
419.689	65.88
419.897	55.64
420.105	-73.39
420.313	121.17
420.521	166.23
420.729	160.08
420.937	45.4
421.145	45.4
421.353	131.41
421.561	151.89
421.769	137.56
421.977	14.68
422.185	112.98
422.393	-20.14
422.601	104.79
422.809	108.88
423.017	149.84
423.224	80.21
423.432	110.93
423.64	29.01
423.848	125.27
424.056	33.11
424.263	178.51
424.471	78.16
424.679	176.47
424.887	98.64
425.094	102.74
425.302	119.12
425.51	4.44
425.718	184.66
425.925	57.68
426.133	37.2
426.341	186.71
426.548	16.73
426.756	47.44
426.964	78.16
427.171	-11.95
427.379	137.56
427.586	139.6
427.794	67.92
428.001	176.47
428.209	112.98
428.417	252.24
428.624	215.38
428.832	143.7
429.039	108.88
429.247	115.03
429.454	127.32
429.662	242
429.869	160.08
430.076	133.46
430.284	190.8
430.491	235.86
430.699	178.51
430.906	287.06
431.114	121.17
431.321	203.09
431.528	155.99
431.736	229.71
431.943	258.39
432.15	182.61
432.358	215.38
432.565	250.19
432.772	76.12
432.979	229.71
433.187	131.41
433.394	213.33
433.601	149.84
433.808	289.1
434.016	295.25
434.223	289.1
434.43	291.15
434.637	307.54
434.844	246.1
435.052	301.39
435.259	229.71
435.466	368.98
435.673	221.52
435.88	323.92
436.087	436.56
436.294	397.65
436.501	340.3
436.708	321.87
436.915	303.44
437.122	426.32
437.329	186.71
437.537	409.94
437.743	385.36
437.95	495.95
438.157	442.7
438.364	387.41
438.571	512.33
438.778	444.75
438.985	506.19
439.192	514.38
439.399	416.08
439.606	575.82
439.813	543.05
440.02	690.51
440.227	702.79
440.433	598.35
440.64	602.44
440.847	543.05
441.054	704.84
441.261	672.08
441.467	686.41
441.674	670.03
441.881	854.34
442.088	690.51
442.294	790.86
442.501	860.49
442.708	807.24
442.914	846.15
443.121	1020.23
443.328	940.36
443.534	1079.62
443.741	1009.99
443.948	909.64
444.154	1005.89
444.361	1315.14
444.568	1118.53
444.774	1104.2
444.981	1061.19
445.187	1243.46
445.394	1222.98
445.6	1229.12
445.807	1458.5
446.013	1315.14
446.22	1360.19
446.426	1536.32
446.633	1708.35
446.839	1911.1
447.046	1536.32
447.252	1724.73
447.459	1800.51
447.665	1798.46
447.871	1923.38
448.078	2144.56
448.284	1990.97
448.491	2152.76
448.697	2244.92
448.903	2359.6
449.11	2427.18
449.316	2343.22
449.522	2578.73
449.728	2693.42
449.935	2691.37
450.141	2830.63
450.347	3060.01
450.553	2998.57
450.76	3162.41
450.966	3301.67
451.172	3316
451.378	3453.22
451.584	3565.85
451.791	3756.32
451.997	3846.43
452.203	3991.83
452.409	4067.61
452.615	4194.58
452.821	4079.9
453.027	4266.26
453.233	4976.91
453.44	4692.24
453.646	4970.76
453.852	5071.11
454.058	5216.52
454.264	5488.9
454.47	5687.55
454.676	5820.67
454.882	6312.18
455.088	6000.89
455.294	6590.7
455.5	6740.21
455.705	7256.29
455.911	7209.19
456.117	7428.32
456.323	7706.85
456.529	7608.55
456.735	8497.36
456.941	8628.43
457.147	9228.49
457.352	9158.86
457.558	9437.38
457.764	10078.4
457.97	10285.24
458.176	10715.31
458.381	11339.94
458.587	11442.34
458.793	11974.81
458.999	11655.33
459.204	13564.04
459.41	13736.07
459.616	14026.88
459.821	14415.99
460.027	15200.37
460.233	15730.79
460.438	15964.26
460.644	16816.21
460.85	17023.06
461.055	17715.27
461.261	18419.77
461.466	18260.03
461.672	18505.79
461.878	20944.92
462.083	20310.05
462.289	20758.55
462.494	21721.1
462.7	21710.86
462.905	22243.33
463.111	24072.17
463.316	25251.8
463.522	25550.8
463.727	26570.69
463.932	27441.07
464.138	28366.76
464.343	29226.9
464.549	29566.87
464.754	31868.78
464.959	32526.18
465.165	32993.12
465.37	33265.5
465.575	32454.5
465.781	35241.79
465.986	36122.41
466.191	35501.88
466.397	35817.27
466.602	34666.31
466.807	37009.18
467.012	37564.18
467.218	37859.09
467.423	37977.87
467.628	39409.4
467.833	41017.06
468.038	40388.33
468.244	39603.96
468.449	41588.44
468.654	40820.45
468.859	41215.71
469.064	40914.66
469.269	39880.44
469.474	40134.38
469.679	41651.93
469.885	39782.13
470.09	40584.94
470.295	40625.9
470.5	39532.28
470.705	40031.99
470.91	39114.5
471.115	38240.01
471.32	38731.53
471.525	38962.95
471.73	37568.28
471.935	37435.16
472.139	35532.6
472.344	36071.21
472.549	36011.82
472.754	35360.57
472.959	34197.32
473.164	33259.35
473.369	32995.17
473.574	33830.74
473.778	32798.56
473.983	32526.18
474.188	31819.63
474.393	30336.9
474.598	30295.94
474.802	29314.97
475.007	29138.84
475.212	28743.58
475.417	27574.19
475.621	27643.82
475.826	27158.45
476.031	26769.34
476.235	25970.63
476.44	25663.44
476.645	25163.73
476.849	25073.62
477.054	24473.57
477.259	23713.77
477.463	24201.19
477.668	23379.95
477.872	23328.75
478.077	22564.86
478.282	22097.92
478.486	21878.79
478.691	21739.53
478.895	21473.29
479.1	21286.93
479.304	21237.78
479.509	20277.28
479.713	20602.91
479.918	20148.26
480.122	19920.93
480.326	20324.38
480.531	19982.37
480.735	19839.01
480.94	19505.2
481.144	20070.44
481.348	19017.78
481.553	19091.51
481.757	18587.71
481.961	18669.62
482.166	18874.42
482.37	18671.67
482.574	18323.52
482.778	17789
482.983	18505.79
483.187	17829.96
483.391	17987.65
483.595	17438.8
483.8	17397.84
484.004	17338.44
484.208	17166.42
484.412	16887.89
484.616	16787.54
484.821	16771.16
485.025	16228.45
485.229	16363.61
485.433	15890.53
485.637	15915.11
485.841	15564.9
486.045	15442.03
486.249	15528.04
486.453	14987.38
486.657	15071.34
486.861	14696.57
487.065	14252.16
487.269	14315.64
487.473	13668.48
487.677	13965.44
487.881	13760.64
488.085	13066.38
488.289	13146.25
488.493	12664.98
488.697	12839.06
488.901	12558.49
489.105	12120.22
489.309	12298.39
489.512	11858.08
489.716	11700.39
489.92	11405.48
490.124	11305.13
490.328	11133.1
490.531	10774.7
490.735	11022.51
490.939	10614.96
491.143	10324.15
491.346	10080.44
491.55	10174.65
491.754	9908.41
491.958	9777.34
492.161	9736.38
492.365	9513.16
492.569	9023.69
492.772	9257.16
492.976	9150.67
493.18	8730.83
493.383	9048.27
493.587	8736.98
493.79	8859.85
493.994	8423.64
494.197	8366.29
494.401	8456.4
494.605	8179.93
494.808	8169.69
495.012	8210.65
495.215	8311
495.419	8095.96
495.622	7852.25
495.825	8055
496.029	8036.57
496.232	8214.74
496.436	7901.4
496.639	7991.52
496.843	7839.97
497.046	7995.61
497.249	8118.49
497.453	7958.75
497.656	7966.94
497.859	7805.15
498.063	7915.74
498.266	8175.83
498.469	7735.52
498.673	8106.2
498.876	8077.53
499.079	7991.52
499.282	8163.54
499.485	8319.19
499.689	8229.08
499.892	8362.2
500.095	8390.87
500.298	8569.04
500.501	8388.82
500.705	8583.38
500.908	8526.04
501.111	8765.65
501.314	8962.25
501.517	9050.32
501.72	9050.32
501.923	9064.65
502.126	9392.33
502.329	9365.7
502.532	9205.96
502.735	9347.27
502.938	9748.67
503.141	9871.55
503.344	9820.35
503.547	9877.69
503.75	10064.06
503.953	10277.05
504.156	10307.77
504.359	10432.69
504.562	10588.34
504.765	10997.93
504.968	10811.57
505.17	11364.52
505.373	11352.23
505.576	11643.04
505.779	11821.22
505.982	11868.32
506.185	12220.57
506.387	12443.8
506.59	12511.38
506.793	12775.57
506.996	12910.74
507.198	13459.59
507.401	13275.27
507.604	13979.78
507.807	14215.29
508.009	14205.05
508.212	14504.06
508.415	14993.52
508.617	15274.09
508.82	15534.18
509.022	15728.74
509.225	16287.84
509.428	16599.13
509.63	17014.87
509.833	17098.83
510.035	17735.75
510.238	18032.71
510.44	18268.22
510.643	18878.52
510.845	19460.14
511.048	19701.8
511.25	20111.39
511.453	20146.21
511.655	21356.56
511.858	21614.6
512.06	21999.62
512.262	22310.91
512.465	22728.7
512.667	23388.14
512.87	23916.52
513.072	24317.92
513.274	25184.21
513.477	25632.72
513.679	26159.05
513.881	26798.01
514.084	27187.13
514.286	27592.62
514.488	28684.19
514.69	29347.73
514.893	29665.17
515.095	30209.93
515.297	31096.7
515.499	31432.57
515.701	32536.42
515.904	32941.92
516.106	33302.36
516.308	34156.36
516.51	34940.74
516.712	35340.09
516.914	36394.79
517.116	37123.87
517.318	37758.74
517.52	38301.45
517.722	38534.92
517.925	39743.22
518.127	40507.12
518.329	41246.43
518.531	41113.31
518.733	42530.51
518.935	42757.83
519.136	43398.85
519.338	44072.63
519.54	44779.18
519.742	45969.05
519.944	46069.4
520.146	47232.64
520.348	47793.79
520.55	48076.41
520.752	48461.43
520.954	49657.44
521.155	49333.86
521.357	50157.14
521.559	51144.26
521.761	51672.64
521.963	51648.07
522.164	52289.08
522.366	52624.95
522.568	53358.12
522.77	53343.78
522.971	53976.61
523.173	53902.88
523.375	54615.57
523.576	54437.4
523.778	55186.96
523.98	55436.81
524.181	55741.95
524.383	55635.46
524.584	56196.6
524.786	55770.63
524.988	55455.24
525.189	56387.06
525.391	56927.73
525.592	55969.28
525.794	56729.08
525.995	56202.75
526.197	55846.4
526.398	56417.78
526.6	56165.88
526.801	55868.93
527.003	55764.48
527.204	55811.59
527.406	55825.92
527.607	55483.91
527.808	55279.11
528.01	54099.48
528.211	54433.3
528.412	54961.68
528.614	54158.87
528.815	53222.95
529.016	53505.57
529.218	52706.87
529.419	52590.13
529.62	52004.41
529.822	51465.8
530.023	50867.79
530.224	50327.13
530.425	50280.02
530.626	49141.35
530.828	48496.24
531.029	49098.34
531.23	47842.94
531.431	47349.38
531.632	46902.92
531.833	46683.79
532.035	45487.78
532.236	45627.04
532.437	44740.27
532.638	43947.7
532.839	43683.51
533.04	43251.39
533.241	42276.56
533.442	42749.64
533.643	41977.56
533.844	40584.94
534.045	40554.22
534.246	39765.75
534.447	39513.85
534.648	38864.64
534.849	38698.76
535.05	37932.82
535.251	37113.63
535.451	36611.88
535.652	36310.83
535.853	35692.34
536.054	35428.15
536.255	35010.37
536.456	34326.35
536.657	34604.87
536.857	33249.11
537.058	33222.49
537.259	32573.28
537.46	32561
537.66	31766.38
537.861	31518.58
538.062	30910.33
538.263	30736.26
538.463	30150.54
538.664	29638.55
538.865	29222.81
539.065	29130.65
539.266	28614.56
539.466	28338.08
539.667	27576.24
539.868	27822
540.068	27156.41
540.269	26828.73
540.469	26881.98
540.67	26288.07
540.87	26019.78
541.071	25855.95
541.271	25622.48
541.472	25368.53
541.672	24866.78
541.873	24578.01
542.073	24033.25
542.274	23973.86
542.474	23891.94
542.675	23363.57
542.875	23298.03
543.075	22837.24
543.276	22517.76
543.476	22544.38
543.676	21899.27
543.877	21854.22
544.077	21747.72
544.277	21497.87
544.478	21354.51
544.678	21106.71
544.878	20963.35
545.078	20385.82
545.279	20185.12
545.479	20258.85
545.679	19648.55
545.879	19558.44
546.079	19378.22
546.28	19058.74
546.48	18780.21
546.68	18765.88
546.88	18679.86
547.08	18552.89
547.28	18063.43
547.48	17436.75
547.68	17666.12
547.88	17231.95
548.081	17281.1
548.281	16707.67
548.481	16662.62
548.681	16603.22
548.881	16412.76
549.081	15954.02
549.28	15724.65
549.48	15691.88
549.68	15517.8
549.88	15362.15
550.08	14837.87
550.28	14821.49
550.48	14602.36
550.68	14436.47
550.88	14145.66
551.08	14094.46
551.279	13906.05
551.479	13277.32
551.679	13555.85
551.879	13254.8
552.079	12992.66
552.278	12927.12
552.478	12804.24
552.678	12540.05
552.878	12417.18
553.077	12236.95
553.277	11694.24
553.477	11569.32
553.676	11638.95
553.876	11557.03
554.076	11143.34
554.275	11194.54
554.475	10770.61
554.674	10981.55
554.874	10594.48
555.074	10096.83
555.273	10145.98
555.473	10275
555.672	9875.65
555.872	9433.29
556.071	9429.19
556.271	9488.58
556.47	9455.81
556.67	9025.74
556.869	8841.42
557.068	8673.49
557.268	8569.04
557.467	8556.75
557.667	8458.45
557.866	8214.74
558.065	8091.87
558.265	7872.73
558.464	7741.66
558.663	7768.29
558.863	7338.21
559.062	7477.48
559.261	7198.95
559.461	7452.9
559.66	6981.87
559.859	7119.08
560.058	6779.12
560.258	6727.92
560.457	6660.34
560.656	6680.82
560.855	6314.23
561.054	6441.2
561.253	6308.09
561.453	6248.69
561.652	6103.29
561.851	6064.38
562.05	5933.31
562.249	5597.44
562.448	5763.33
562.647	5509.38
562.846	5544.19
563.045	5499.14
563.244	5206.28
563.443	5443.84
563.642	5150.98
563.841	5124.36
564.04	5179.65
564.239	5099.78
564.438	5107.98
564.637	4686.09
564.836	4872.46
565.035	4725.01
565.234	4593.94
565.432	4548.88
565.631	4489.49
565.83	4526.35
566.029	4403.47
566.228	4370.71
566.427	4382.99
566.625	4141.33
566.824	4157.72
567.023	4323.6
567.222	3899.67
567.42	3895.58
567.619	3875.1
567.818	3938.59
568.016	4073.75
568.215	3782.94
568.414	3830.04
568.612	3612.96
568.811	3701.02
569.01	3641.63
569.208	3627.29
569.407	3592.48
569.605	3375.39
569.804	3383.59
570.002	3313.95
570.201	3268.9
570.4	3076.39
570.598	3223.84
570.797	3060.01
570.995	2933.03
571.193	2986.28
571.392	2908.46
571.59	2775.34
571.789	2945.32
571.987	2818.35
572.186	2861.35
572.384	2771.24
572.582	2734.38
572.781	2726.19
572.979	2566.45
573.177	2568.49
573.376	2656.56
573.574	2511.15
573.772	2437.42
573.971	2492.72
574.169	2341.17
574.367	2382.13
574.565	2271.54
574.763	2271.54
574.962	2259.25
575.16	2228.53
575.358	2124.08
575.556	2234.68
575.754	2185.52
575.952	2150.71
576.151	2031.93
576.349	2058.55
576.547	1907
576.745	1962.3
576.943	1952.06
577.141	1902.9
577.339	1857.85
577.537	1831.23
577.735	1863.99
577.933	1753.4
578.131	1708.35
578.329	1952.06
578.527	1630.52
578.725	1847.61
578.923	1603.9
579.121	1612.09
579.319	1511.74
579.516	1571.13
579.714	1782.07
579.912	1546.56
580.11	1413.44
580.308	1464.64
580.506	1466.69
580.704	1339.71
580.901	1397.06
581.099	1438.02
581.297	1470.78
581.495	1368.38
581.692	1261.89
581.89	1417.54
582.088	1364.29
582.285	1323.33
582.483	1265.99
582.681	1247.55
582.878	1196.36
583.076	1268.03
583.274	1237.31
583.471	1331.52
583.669	1155.4
583.866	1038.66
584.064	1001.8
584.262	1028.42
584.459	1114.44
584.657	1065.29
584.854	1046.85
585.052	1132.87
585.249	999.75
585.447	962.89
585.644	956.74
585.841	995.65
586.039	1042.76
586.236	1157.44
586.434	909.64
586.631	876.87
586.828	936.26
587.026	893.26
587.223	833.86
587.42	815.43
587.618	897.35
587.815	979.27
588.012	860.49
588.21	872.78
588.407	991.56
588.604	989.51
588.801	715.08
588.999	764.23
589.196	919.88
589.393	811.34
589.59	827.72
589.787	760.14
589.984	786.76
590.182	840.01
590.379	686.41
590.576	659.79
590.773	799.05
590.97	698.7
591.167	856.39
591.364	727.37
591.561	678.22
591.758	860.49
591.955	805.19
592.152	784.71
592.349	721.23
592.546	756.04
592.743	805.19
592.94	704.84
593.137	780.62
593.334	727.37
593.531	817.48
593.727	770.38
593.924	758.09
594.121	747.85
594.318	698.7
594.515	803.15
594.712	872.78
594.908	799.05
595.105	665.93
595.302	739.66
595.499	829.77
595.696	928.07
595.892	708.94
596.089	923.98
596.286	819.53
596.482	948.55
596.679	995.65
596.876	960.84
597.072	1036.61
597.269	973.13
597.466	1005.89
597.662	1018.18
597.859	999.75
598.055	1102.15
598.252	1055.05
598.448	1122.63
598.645	1259.84
598.841	1126.72
599.038	1392.96
599.234	1397.06
599.431	1413.44
599.627	1378.62
599.824	1474.88
600.02	1386.82
600.217	1478.97
600.413	1601.85
600.609	1618.24
600.806	2070.84
601.002	1784.12
601.198	1759.55
601.395	1882.42
601.591	1941.82
601.787	2130.23
601.984	2197.81
602.18	2246.96
602.376	2396.46
602.572	2363.7
602.769	2531.63
602.965	2552.11
603.161	2656.56
603.357	2746.67
603.553	2941.22
603.75	2758.96
603.946	2867.5
604.142	3133.73
604.338	3299.62
604.534	3154.21
604.73	3289.38
604.926	3537.18
605.122	3655.97
605.318	3692.83
605.514	3957.02
605.71	3776.8
605.906	4223.25
606.102	4131.09
606.298	4352.27
606.494	4495.63
606.69	4505.87
606.886	4577.55
607.082	4868.36
607.278	4772.11
607.474	5134.6
607.67	5294.34
607.866	5208.33
608.062	5800.19
608.257	5597.44
608.453	5671.17
608.649	5878.01
608.845	5992.7
609.041	6316.28
609.236	6543.6
609.432	6670.58
609.628	6818.03
609.824	7045.35
610.019	7248.1
610.215	7321.83
610.411	7700.7
610.606	7876.83
610.802	7870.69
610.998	8218.84
611.193	8333.53
611.389	8265.94
611.584	8829.13
611.78	8884.43
611.976	9240.78
612.171	9617.6
612.367	9691.33
612.562	9875.65
612.758	9957.57
612.953	10563.76
613.149	10731.7
613.344	10842.29
613.539	11577.51
613.735	11583.65
613.93	11868.32
614.126	12079.26
614.321	12646.55
614.517	12953.74
614.712	13084.81
614.907	13363.34
615.103	13996.16
615.298	14178.43
615.493	14358.65
615.688	14807.16
615.884	15454.31
616.079	15550.57
616.274	16183.39
616.47	16097.38
616.665	17039.44
616.86	17217.61
617.055	17872.96
617.25	18073.67
617.445	18747.45
617.641	18860.09
617.836	19560.49
618.031	19681.32
618.226	20486.17
618.421	20506.65
618.616	21762.06
618.811	21653.51
619.006	22593.53
619.201	22740.99
619.396	23195.64
619.591	23349.23
619.786	24502.24
619.981	24512.48
620.176	25622.48
620.371	25606.09
620.566	26269.64
620.761	27004.86
620.956	27811.76
621.151	27817.9
621.346	28604.32
621.541	28649.38
621.735	29714.32
621.93	29843.34
622.125	30551.94
622.32	30713.73
622.515	31954.8
622.709	32309.1
622.904	33050.46
623.099	33087.32
623.294	33994.57
623.488	34232.14
623.683	35153.72
623.878	35354.43
624.072	35870.51
624.267	36773.67
624.462	37078.82
624.656	37353.24
624.851	38121.23
625.046	38276.88
625.24	39243.52
625.435	39155.46
625.629	40021.75
625.824	40666.86
626.018	40906.47
626.213	40779.5
626.407	41592.54
626.602	41889.49
626.796	42694.35
626.991	43206.34
627.185	43460.29
627.38	42901.19
627.574	43699.9
627.768	43632.32
627.963	43835.06
628.157	43495.1
628.352	44369.58
628.546	43552.44
628.74	44146.36
628.935	43847.35
629.129	44195.51
629.323	43464.38
629.517	43042.5
629.712	42874.57
629.906	42614.48
630.1	41686.75
630.294	41711.32
630.489	40984.29
630.683	40728.3
630.877	39499.51
631.071	38561.54
631.265	38754.05
631.459	37404.44
631.653	36693.8
631.848	35964.72
632.042	34795.33
632.236	34133.84
632.43	32913.25
632.624	32065.39
632.818	31123.32
633.012	29826.96
633.206	28850.08
633.4	28172.2
633.594	27203.51
633.788	26486.72
633.982	25497.55
634.176	24633.31
634.369	23468.02
634.563	22378.5
634.757	21542.92
634.951	21026.84
635.145	20168.74
635.339	19468.33
635.533	18481.21
635.726	17537.1
635.92	16926.8
636.114	16191.58
636.308	15710.31
636.501	14844.02
636.695	14413.95
636.889	13840.51
637.083	13197.45
637.276	12628.12
637.47	12023.97
637.664	11890.85
637.857	11204.78
638.051	10707.12
638.244	10309.82
638.438	9855.17
638.632	9564.36
638.825	9165
639.019	8822.99
639.212	8419.54
639.406	8098.01
639.599	7674.08
639.793	7487.72
639.986	7379.17
640.18	7168.23
640.373	6646
640.567	6349.04
640.76	6203.64
640.954	5914.88
641.147	5572.86
641.34	5460.23
641.534	5333.25
641.727	5222.66
641.92	5003.53
642.114	4776.2
642.307	4563.22
642.5	4430.1
642.694	3928.35
642.887	4092.18
643.08	4127
643.273	3766.56
643.467	3553.57
643.66	3371.3
643.853	3225.89
644.046	3084.58
644.239	3143.97
644.432	2892.07
644.626	2679.08
644.819	2642.22
645.012	2652.46
645.205	2570.54
645.398	2552.11
645.591	2246.96
645.784	2193.72
645.977	2029.88
646.17	2048.31
646.363	2062.65
646.556	1995.06
646.749	1857.85
646.942	1909.05
647.135	1681.72
647.328	1601.85
647.521	1599.8
647.714	1450.3
647.907	1501.5
648.099	1323.33
648.292	1478.97
648.485	1341.76
648.678	1210.69
648.871	1157.44
649.064	1192.26
649.256	1024.33
649.449	1042.76
649.642	940.36
649.835	917.83
650.027	903.5
650.22	983.37
650.413	942.41
650.605	928.07
650.798	780.62
650.991	823.62
651.183	885.06
651.376	797
651.568	819.53
651.761	655.69
651.954	602.44
652.146	612.68
652.339	760.14
652.531	821.58
652.724	713.03
652.916	651.6
653.109	508.24
653.301	680.27
653.494	631.12
653.686	510.29
653.879	610.64
654.071	553.29
654.263	508.24
654.456	416.08
654.648	489.81
654.84	502.09
655.033	454.99
655.225	588.11
655.417	346.45
655.61	584.01
655.802	418.13
655.994	557.39
656.186	299.34
656.379	471.37
656.571	395.6
656.763	295.25
656.955	315.73
657.148	340.3
657.34	389.46
657.532	285.01
657.724	358.74
657.916	311.63
658.108	434.51
658.3	282.96
658.492	399.7
658.684	237.91
658.876	371.02
659.068	262.48
659.26	92.5
659.452	170.32
659.644	280.91
659.836	395.6
660.028	244.05
660.22	254.29
660.412	211.28
660.604	203.09
660.796	297.3
660.988	266.58
661.18	209.23
661.372	229.71
661.563	160.08
661.755	219.47
661.947	151.89
662.139	211.28
662.331	205.14
662.522	215.38
662.714	121.17
662.906	131.41
663.097	143.7
663.289	188.75
663.481	49.49
663.673	248.15
663.864	184.66
664.056	254.29
664.247	67.92
664.439	231.76
664.631	198.99
664.822	213.33
665.014	184.66
665.205	162.13
665.397	180.56
665.588	188.75
665.78	190.8
665.971	188.75
666.163	72.02
666.354	198.99
666.546	104.79
666.737	182.61
666.929	94.55
667.12	121.17
667.311	213.33
667.503	72.02
667.694	203.09
667.885	117.08
668.077	164.18
668.268	69.97
668.459	145.75
668.651	176.47
668.842	180.56
669.033	108.88
669.224	-24.23
669.416	268.63
669.607	35.16
669.798	100.69
669.989	266.58
670.18	141.65
670.371	117.08
670.563	51.54
670.754	252.24
670.945	151.89
671.136	139.6
671.327	190.8
671.518	225.62
671.709	201.04
671.9	203.09
672.091	278.87
672.282	72.02
672.473	100.69
672.664	31.06
672.855	104.79
673.046	164.18
673.237	184.66
673.428	69.97
673.619	153.94
673.809	96.6
674	231.76
674.191	184.66
674.382	127.32
674.573	88.4
674.764	102.74
674.954	250.19
675.145	112.98
675.336	65.88
675.527	127.32
675.717	84.31
675.908	125.27
676.099	33.11
676.289	149.84
676.48	47.44
676.671	67.92
676.861	110.93
677.052	147.8
677.243	127.32
677.433	100.69
677.624	117.08
677.814	178.51
678.005	102.74
678.195	250.19
678.386	145.75
678.576	59.73
678.767	80.21
678.957	67.92
679.148	131.41
679.338	317.78
679.529	137.56
679.719	35.16
679.909	219.47
680.1	141.65
680.29	203.09
680.481	63.83
680.671	229.71
680.861	137.56
681.052	108.88
681.242	78.16
681.432	178.51
681.622	112.98
681.813	90.45
682.003	137.56
682.193	43.35
682.383	182.61
682.573	63.83
682.764	16.73
682.954	135.51
683.144	260.43
683.334	22.87
683.524	219.47
683.714	233.81
683.904	166.23
684.094	194.9
684.284	143.7
684.474	258.39
684.664	217.43
684.854	217.43
685.044	215.38
685.234	207.19
685.424	119.12
685.614	88.4
685.804	258.39
685.994	198.99
686.184	186.71
686.374	172.37
686.564	223.57
686.753	145.75
686.943	57.68
687.133	192.85
687.323	203.09
687.513	239.95
687.702	166.23
687.892	149.84
688.082	225.62
688.272	280.91
688.461	278.87
688.651	252.24
688.841	233.81
689.03	137.56
689.22	256.34
689.41	184.66
689.599	127.32
689.789	125.27
689.979	358.74
690.168	170.32
690.358	274.77
690.547	219.47
690.737	162.13
690.926	141.65
691.116	201.04
691.305	270.67
691.495	231.76
691.684	180.56
691.874	155.99
692.063	127.32
692.252	209.23
692.442	174.42
692.631	57.68
692.82	145.75
693.01	143.7
693.199	96.6
693.388	215.38
693.578	137.56
693.767	215.38
693.956	201.04
694.146	155.99
694.335	301.39
694.524	131.41
694.713	209.23
694.902	180.56
695.092	133.46
695.281	160.08
695.47	166.23
695.659	57.68
695.848	110.93
696.037	135.51
696.226	285.01
696.415	207.19
696.604	299.34
696.793	262.48
696.982	53.59
697.171	231.76
697.36	149.84
697.549	131.41
697.738	-20.14
697.927	147.8
698.116	59.73
698.305	233.81
698.494	174.42
698.683	207.19
698.872	285.01
699.061	201.04
699.25	158.03
699.438	190.8
699.627	239.95
699.816	309.58
700.005	45.4
700.193	98.64
700.382	231.76
700.571	115.03
700.76	260.43
700.948	323.92
701.137	198.99
701.326	227.67
701.514	59.73
701.703	221.52
701.892	239.95
702.08	348.5
702.269	96.6
702.457	121.17
702.646	223.57
702.834	133.46
703.023	225.62
703.212	178.51
703.4	160.08
703.589	76.12
703.777	180.56
703.965	45.4
704.154	166.23
704.342	110.93
704.531	106.84
704.719	209.23
704.907	225.62
705.096	198.99
705.284	76.12
705.472	201.04
705.661	237.91
705.849	180.56
706.037	340.3
706.226	129.36
706.414	192.85
706.602	137.56
706.79	299.34
706.979	155.99
707.167	139.6
707.355	151.89
707.543	141.65
707.731	190.8
707.919	188.75
708.107	145.75
708.296	43.35
708.484	168.27
708.672	235.86
708.86	219.47
709.048	168.27
709.236	51.54
709.424	190.8
709.612	178.51
709.8	37.2
709.988	155.99
710.176	282.96
710.364	256.34
710.551	84.31
710.739	55.64
710.927	135.51
711.115	198.99
711.303	219.47
711.491	287.06
711.679	180.56
711.866	227.67
712.054	123.22
712.242	151.89
712.43	262.48
712.617	155.99
712.805	211.28
712.993	217.43
713.181	108.88
713.368	280.91
713.556	158.03
713.744	117.08
713.931	280.91
714.119	244.05
714.306	180.56
714.494	145.75
714.682	160.08
714.869	88.4
715.057	90.45
715.244	80.21
715.432	203.09
715.619	90.45
715.807	155.99
715.994	112.98
716.182	203.09
716.369	242
716.556	104.79
716.744	67.92
716.931	209.23
717.119	145.75
717.306	178.51
717.493	178.51
717.681	201.04
717.868	131.41
718.055	246.1
718.242	213.33
718.43	170.32
718.617	229.71
718.804	215.38
718.991	248.15
719.179	188.75
719.366	237.91
719.553	254.29
719.74	176.47
719.927	117.08
720.114	215.38
720.301	49.49
720.488	190.8
720.676	180.56
720.863	223.57
721.05	285.01
721.237	184.66
721.424	242
721.611	215.38
721.798	133.46
721.985	110.93
722.172	112.98
722.358	160.08
722.545	242
722.732	131.41
722.919	178.51
723.106	192.85
723.293	112.98
723.48	162.13
723.667	137.56
723.853	174.42
724.04	174.42
724.227	325.97
724.414	94.55
724.6	209.23
724.787	426.32
724.974	211.28
725.161	153.94
725.347	143.7
725.534	188.75
725.72	182.61
725.907	250.19
726.094	272.72
726.28	203.09
726.467	215.38
726.653	129.36
726.84	309.58
727.027	354.64
727.213	289.1
727.4	260.43
727.586	215.38
727.773	246.1
727.959	145.75
728.145	137.56
728.332	221.52
728.518	137.56
728.705	223.57
728.891	280.91
729.077	188.75
729.264	90.45
729.45	223.57
729.636	274.77
729.823	242
730.009	217.43
730.195	217.43
730.382	260.43
730.568	158.03
730.754	229.71
730.94	160.08
731.126	196.95
731.313	250.19
731.499	160.08
731.685	317.78
731.871	209.23
732.057	176.47
732.243	291.15
732.429	217.43
732.615	285.01
732.801	303.44
732.987	225.62
733.173	133.46
733.359	190.8
733.545	176.47
733.731	235.86
733.917	246.1
734.103	244.05
734.289	188.75
734.475	162.13
734.661	414.03
734.847	285.01
735.033	178.51
735.219	209.23
735.404	123.22
735.59	139.6
735.776	186.71
735.962	225.62
736.148	254.29
736.333	321.87
736.519	207.19
736.705	209.23
736.89	205.14
737.076	303.44
737.262	252.24
737.447	172.37
737.633	235.86
737.819	252.24
738.004	133.46
738.19	137.56
738.375	276.82
738.561	285.01
738.747	221.52
738.932	110.93
739.118	309.58
739.303	301.39
739.489	303.44
739.674	242
739.859	155.99
740.045	305.49
740.23	203.09
740.416	61.78
740.601	270.67
740.786	162.13
740.972	180.56
741.157	225.62
741.342	198.99
741.528	121.17
741.713	272.72
741.898	264.53
742.084	166.23
742.269	182.61
742.454	268.63
742.639	297.3
742.824	166.23
743.01	278.87
743.195	307.54
743.38	184.66
743.565	242
743.75	174.42
743.935	246.1
744.12	229.71
744.305	98.64
744.49	252.24
744.675	194.9
744.86	213.33
745.045	252.24
745.23	250.19
745.415	151.89
745.6	315.73
745.785	231.76
745.97	328.02
746.155	219.47
746.34	262.48
746.525	217.43
746.71	307.54
746.895	147.8
747.079	92.5
747.264	186.71
747.449	223.57
747.634	344.4
747.819	268.63
748.003	196.95
748.188	127.32
748.373	217.43
748.557	201.04
748.742	207.19
748.927	188.75
749.111	137.56
749.296	190.8
749.481	209.23
749.665	217.43
749.85	143.7
750.034	158.03
750.219	123.22
750.404	188.75
750.588	133.46
750.773	104.79
750.957	160.08
751.141	155.99
751.326	242
751.51	94.55
751.695	203.09
751.879	98.64
752.064	221.52
752.248	135.51
752.432	215.38
752.617	282.96
752.801	213.33
752.985	151.89
753.17	225.62
753.354	217.43
753.538	127.32
753.722	129.36
753.907	164.18
754.091	90.45
754.275	164.18
754.459	151.89
754.643	151.89
754.828	190.8
755.012	260.43
755.196	4.44
755.38	147.8
755.564	129.36
755.748	188.75
755.932	207.19
756.116	194.9
756.3	225.62
756.484	151.89
756.668	176.47
756.852	69.97
757.036	117.08
757.22	14.68
757.404	45.4
757.588	131.41
757.772	119.12
757.956	170.32
758.14	291.15
758.323	45.4
758.507	221.52
758.691	92.5
758.875	176.47
759.059	182.61
759.242	84.31
759.426	145.75
759.61	168.27
759.794	29.01
759.977	176.47
760.161	387.41
760.345	178.51
760.528	125.27
760.712	92.5
760.895	229.71
761.079	65.88
761.263	35.16
761.446	86.36
761.63	151.89
761.813	205.14
761.997	-1.71
762.18	102.74
762.364	147.8
762.547	-44.71
762.731	-11.95
762.914	90.45
763.098	145.75
763.281	72.02
763.464	72.02
763.648	98.64
763.831	65.88
764.015	-24.23
764.198	125.27
764.381	74.07
764.564	69.97
764.748	164.18
764.931	131.41
765.114	29.01
765.297	131.41
765.481	49.49
765.664	69.97
765.847	155.99
766.03	221.52
766.213	86.36
766.397	61.78
766.58	-13.99
766.763	155.99
766.946	80.21
767.129	59.73
767.312	35.16
767.495	57.68
767.678	14.68
767.861	117.08
768.044	24.92
768.227	80.21
768.41	53.59
768.593	55.64
768.776	123.22
768.959	112.98
769.142	166.23
769.324	41.3
769.507	76.12
769.69	123.22
769.873	115.03
770.056	217.43
770.239	39.25
770.421	149.84
770.604	188.75
770.787	112.98
770.97	94.55
771.152	-18.09
771.335	127.32
771.518	6.49
771.7	231.76
771.883	112.98
772.066	47.44
772.248	37.2
772.431	198.99
772.613	94.55
772.796	78.16
772.978	139.6
773.161	203.09
773.343	37.2
773.526	102.74
773.708	-9.9
773.891	-118.44
774.073	-1.71
774.256	4.44
774.438	186.71
774.621	51.54
774.803	100.69
774.985	20.82
775.168	153.94
775.35	-38.57
775.532	106.84
775.715	33.11
775.897	115.03
776.079	82.26
776.261	125.27
776.444	88.4
776.626	76.12
776.808	-3.75
776.99	8.53
777.173	76.12
777.355	26.96
777.537	133.46
777.719	94.55
777.901	35.16
778.083	22.87
778.265	0.34
778.447	55.64
778.629	92.5
778.811	135.51
778.993	129.36
779.175	141.65
779.357	106.84
779.539	67.92
779.721	24.92
779.903	170.32
780.085	49.49
780.267	65.88
780.449	72.02
780.631	84.31
780.812	170.32
780.994	31.06
781.176	-24.23
781.358	18.77
781.54	53.59
781.721	121.17
781.903	96.6
782.085	-38.57
782.267	100.69
782.448	-97.96
782.63	41.3
782.812	55.64
782.993	104.79
783.175	110.93
783.357	4.44
783.538	45.4
783.72	100.69
783.901	59.73
784.083	47.44
784.264	151.89
784.446	-87.72
784.627	-71.34
784.809	110.93
784.99	-5.8
785.172	160.08
785.353	14.68
785.535	102.74
785.716	-28.33
785.897	-38.57
786.079	53.59
786.26	14.68
786.441	74.07
786.623	65.88
786.804	-28.33
786.985	61.78
787.167	53.59
787.348	26.96
787.529	57.68
787.71	147.8
787.891	82.26
788.073	-3.75
788.254	-32.43
788.435	155.99
788.616	88.4
788.797	-16.04
788.978	-61.1
789.159	-22.19
789.34	94.55
789.522	14.68
789.703	6.49
789.884	6.49
790.065	127.32
790.246	100.69
790.427	90.45
790.607	90.45
790.788	133.46
790.969	-50.86
791.15	55.64
791.331	-22.19
791.512	-81.58
791.693	-54.95
791.874	14.68
792.054	297.3
792.235	80.21
792.416	-26.28
792.597	45.4
792.778	80.21
792.958	55.64
793.139	2.39
793.32	4.44
793.5	-42.67
793.681	92.5
793.862	98.64
794.042	86.36
794.223	-65.19
794.404	18.77
794.584	-97.96
794.765	8.53
794.945	-13.99
795.126	188.75
795.306	92.5
795.487	31.06
795.667	29.01
795.848	121.17
796.028	31.06
796.209	-3.75
796.389	135.51
796.57	-11.95
796.75	-13.99
796.93	-5.8
797.111	-16.04
797.291	-11.95
797.471	65.88
797.652	-3.75
797.832	10.58
798.012	106.84
798.192	-3.75
798.373	-110.25
798.553	43.35
798.733	37.2
798.913	-59.05
799.093	14.68
799.274	43.35
799.454	41.3
799.634	92.5
799.814	47.44
799.994	121.17
800.174	55.64
800.354	55.64
800.534	-71.34
800.714	102.74
800.894	6.49
801.074	-102.06
801.254	-36.52
801.434	129.36
801.614	-13.99
801.794	-13.99
801.974	1831.23
802.154	-44.71
802.334	76.12
802.514	-57
802.693	-52.91
802.873	-42.67
803.053	86.36
803.233	115.03
803.413	-30.38
803.592	-40.62
803.772	-24.23
803.952	80.21
804.131	-50.86
804.311	37.2
804.491	133.46
804.67	-42.67
804.85	-61.1
805.03	16.73
805.209	80.21
805.389	-36.52
805.568	-7.85
805.748	0.34
805.928	51.54
806.107	104.79
806.287	37.2
806.466	69.97
806.646	0.34
806.825	47.44
807.004	-13.99
807.184	53.59
807.363	69.97
807.543	57.68
807.722	-16.04
807.901	110.93
808.081	14.68
808.26	-130.73
808.439	106.84
808.619	16.73
808.798	33.11
808.977	37.2
809.156	121.17
809.336	63.83
809.515	121.17
809.694	2.39
809.873	-26.28
810.052	53.59
810.231	127.32
810.411	78.16
810.59	131.41
810.769	55.64
810.948	47.44
811.127	-102.06
811.306	-13.99
811.485	-85.67
811.664	160.08
811.843	24.92
812.022	16.73
812.201	22.87
812.38	2.39
812.559	-20.14
812.737	-3.75
812.916	-52.91
813.095	-75.43
813.274	61.78
813.453	51.54
813.632	47.44
813.811	59.73
813.989	-85.67
814.168	47.44
814.347	-81.58
814.526	20.82
814.704	131.41
814.883	82.26
815.062	-40.62
815.24	168.27
815.419	-85.67
815.598	82.26
815.776	-67.24
815.955	33.11
816.133	-122.54
816.312	26.96
816.49	-50.86
816.669	78.16
816.847	33.11
817.026	20.82
817.204	12.63
817.383	-46.76
817.561	-16.04
817.74	72.02
817.918	76.12
818.097	22.87
818.275	-7.85
818.453	63.83
818.632	72.02
818.81	47.44
818.988	-13.99
819.167	-93.87
819.345	31.06
819.523	-75.43
819.701	41.3
819.879	41.3
820.058	18.77
820.236	26.96
820.414	76.12
820.592	-44.71
820.77	24.92
820.948	-59.05
821.127	-42.67
821.305	72.02
821.483	35.16
821.661	94.55
821.839	-18.09
822.017	-7.85
822.195	84.31
822.373	78.16
822.551	55.64
822.729	117.08
822.907	-57
823.085	29.01
823.262	-24.23
823.44	-32.43
823.618	-67.24
823.796	-38.57
823.974	-28.33
824.152	-63.15
824.329	-48.81
824.507	84.31
824.685	39.25
824.863	2.39
825.04	-54.95
825.218	45.4
825.396	12.63
825.574	45.4
825.751	96.6
825.929	53.59
826.107	-87.72
826.284	0.34
826.462	74.07
826.639	-97.96
826.817	-89.77
826.994	22.87
827.172	49.49
827.349	88.4
827.527	-3.75
827.704	-18.09
827.882	131.41
828.059	0.34
828.237	-32.43
828.414	39.25
828.591	-89.77
828.769	18.77
828.946	-122.54
829.124	125.27
829.301	135.51
829.478	10.58
829.655	94.55
829.833	-34.47
830.01	-108.2
830.187	61.78
830.364	59.73
830.542	-13.99
830.719	129.36
830.896	47.44
831.073	35.16
831.25	72.02
831.427	67.92
831.604	45.4
831.782	-11.95
831.959	92.5
832.136	35.16
832.313	74.07
832.49	-7.85
832.667	-30.38
832.844	-134.82
833.021	110.93
833.198	57.68
833.374	-54.95
833.551	82.26
833.728	-7.85
833.905	51.54
834.082	-73.39
834.259	90.45
834.436	10.58
834.612	-63.15
834.789	61.78
834.966	29.01
835.143	45.4
835.319	-46.76
835.496	16.73
835.673	76.12
835.85	-26.28
836.026	-20.14
836.203	63.83
836.38	16.73
836.556	-61.1
836.733	20.82
836.909	112.98
837.086	-81.58
837.262	-124.58
837.439	22.87
837.616	-73.39
837.792	-77.48
837.968	43.35
838.145	-130.73
838.321	53.59
838.498	29.01
838.674	121.17
838.851	2.39
839.027	43.35
839.203	-13.99
839.38	45.4
839.556	-22.19
839.732	45.4
839.909	41.3
840.085	80.21
840.261	-50.86
840.437	-20.14
840.614	2.39
840.79	84.31
840.966	-7.85
841.142	0.34
841.318	14.68
841.494	-52.91
841.671	59.73
841.847	-67.24
842.023	-61.1
842.199	2.39
842.375	100.69
842.551	-124.58
842.727	-112.3
842.903	112.98
843.079	-50.86
843.255	37.2
843.431	43.35
843.607	135.51
843.783	-126.63
843.959	24.92
844.134	-11.95
844.31	37.2
844.486	-44.71
844.662	-7.85
844.838	29.01
845.013	112.98
845.189	67.92
845.365	-1.71
845.541	-13.99
845.716	92.5
845.892	51.54
846.068	-18.09
846.244	-11.95
846.419	-9.9
846.595	-46.76
846.77	-77.48
846.946	110.93
847.122	4.44
847.297	10.58
847.473	135.51
847.648	-65.19
847.824	16.73
847.999	-63.15
848.175	6.49
848.35	59.73
848.526	129.36
848.701	123.22
848.876	47.44
849.052	41.3
849.227	10.58
849.403	-42.67
849.578	2.39
849.753	88.4
849.929	61.78
850.104	-91.82
850.279	16.73
850.454	18.77
850.63	72.02
850.805	129.36
850.98	-26.28
851.155	55.64
851.33	41.3
851.505	-26.28
851.681	84.31
851.856	-69.29
852.031	72.02
852.206	6.49
852.381	-83.63
852.556	-54.95
852.731	-22.19
852.906	51.54
853.081	39.25
853.256	33.11
853.431	51.54
853.606	-52.91
853.781	-1.71
853.956	-106.15
854.131	22.87
854.305	-65.19
854.48	18.77
854.655	-11.95
854.83	-63.15
855.005	18.77
855.18	-36.52
855.354	-20.14
855.529	18.77
855.704	29.01
855.879	155.99
856.053	-5.8
856.228	35.16
856.403	-71.34
856.577	102.74
856.752	-73.39
856.926	-54.95
857.101	20.82
857.276	22.87
857.45	-30.38
857.625	69.97
857.799	72.02
857.974	-91.82
858.148	-159.4
858.323	86.36
858.497	20.82
858.672	-46.76
858.846	-9.9
859.02	100.69
859.195	-83.63
859.369	6.49
859.543	-11.95
859.718	-54.95
859.892	76.12
860.066	-3.75
860.241	20.82
860.415	-36.52
860.589	-59.05
860.763	-3.75
860.938	-28.33
861.112	74.07
861.286	8.53
861.46	-9.9
861.634	18.77
861.808	147.8
861.982	-44.71
862.157	-1.71
862.331	35.16
862.505	-75.43
862.679	-97.96
862.853	-32.43
863.027	0.34
863.201	155.99
863.375	-67.24
863.549	2.39
863.722	39.25
863.896	82.26
864.07	-67.24
864.244	-38.57
864.418	178.51
864.592	-11.95
864.766	63.83
864.939	59.73
865.113	-71.34
865.287	12.63
865.461	12.63
865.634	18.77
865.808	-63.15
865.982	-50.86
866.156	-54.95
866.329	-100.01
866.503	8.53
866.676	76.12
866.85	20.82
867.024	-44.71
867.197	45.4
867.371	94.55
867.544	57.68
867.718	-75.43
867.891	65.88
868.065	-48.81
868.238	-11.95
868.412	129.36
868.585	-44.71
868.759	-18.09
868.932	-140.97
869.105	43.35
869.279	72.02
869.452	-79.53
869.625	80.21
869.799	0.34
869.972	-54.95
870.145	-30.38
870.319	33.11
870.492	-30.38
870.665	-32.43
870.838	-89.77
871.011	-122.54
871.185	35.16
871.358	-61.1
871.531	-7.85
871.704	-83.63
871.877	-7.85
872.05	2.39
872.223	14.68
872.396	18.77
872.569	29.01
872.742	-128.68
872.915	41.3
873.088	20.82
873.261	-79.53
873.434	12.63
873.607	-44.71
873.78	57.68
873.953	-77.48
874.126	24.92
874.299	43.35
874.471	-59.05
874.644	-22.19
874.817	61.78
874.99	78.16
875.163	43.35
875.335	22.87
875.508	-7.85
875.681	84.31
875.853	-61.1
876.026	22.87
876.199	119.12
876.371	0.34
876.544	-38.57
876.717	10.58
876.889	18.77
877.062	31.06
877.234	-44.71
877.407	-32.43
877.579	-7.85
877.752	55.64
877.924	8.53
878.097	-11.95
878.269	18.77
878.442	-16.04
878.614	35.16
878.786	53.59
878.959	76.12
879.131	29.01
879.303	-85.67
879.476	-32.43
879.648	63.83
879.82	-38.57
879.993	-61.1
880.165	-67.24
880.337	18.77
880.509	24.92
880.681	-5.8
880.854	-24.23
881.026	33.11
881.198	135.51
881.37	-3.75
881.542	-54.95
881.714	-46.76
881.886	76.12
882.058	39.25
882.23	155.99
882.402	-32.43
882.574	16.73
882.746	-5.8
882.918	102.74
883.09	47.44
883.262	-81.58
883.434	6.49
883.606	-79.53
883.778	84.31
883.95	110.93
884.122	-40.62
884.293	51.54
884.465	-1.71
884.637	94.55
884.809	-26.28
884.98	59.73
885.152	29.01
885.324	115.03
885.496	-7.85
885.667	-73.39
885.839	0.34
886.011	162.13
886.182	35.16
886.354	74.07
886.525	18.77
886.697	-26.28
886.869	-22.19
887.04	-44.71
887.212	63.83
887.383	178.51
887.555	-5.8
887.726	-24.23
887.897	-50.86
888.069	29.01
888.24	57.68
888.412	-13.99
888.583	-34.47
888.754	18.77
888.926	-120.49
889.097	4.44
889.268	-138.92
889.44	14.68
889.611	-122.54
889.782	-89.77
889.953	8.53
890.125	84.31
890.296	-155.3
890.467	-73.39
890.638	39.25
890.809	-26.28
890.98	18.77
891.151	12.63
891.323	108.88
891.494	43.35
891.665	-52.91
891.836	-57
892.007	29.01
892.178	35.16
892.349	33.11
892.52	-30.38
892.691	33.11
892.862	-36.52
893.032	-42.67
893.203	-20.14
893.374	16.73
893.545	90.45
893.716	-32.43
893.887	78.16
894.057	-20.14
894.228	16.73
894.399	-46.76
894.57	74.07
894.74	-61.1
894.911	31.06
895.082	16.73
895.253	-52.91
895.423	14.68
895.594	16.73
895.764	72.02
895.935	-75.43
896.106	55.64
896.276	-67.24
896.447	8.53
896.617	-28.33
896.788	-28.33
896.958	14.68
897.129	-108.2
897.299	-24.23
897.47	82.26
897.64	24.92
897.81	33.11
897.981	10.58
898.151	33.11
898.322	51.54
898.492	-9.9
898.662	-38.57
898.832	-34.47
899.003	-42.67
899.173	29.01
899.343	-63.15
899.513	-93.87
