Data from USB4F104151__272__11-20-42-831.txt Node

Date: Wed Feb 26 11:20:42 EST 2025
User: louis
Spectrometer: USB4F10415
Trigger mode: 4
Integration Time (sec): 1.000000E-1
Scans to average: 1
Electric dark correction enabled: true
Nonlinearity correction enabled: false
Boxcar width: 0
XAxis mode: Wavelengths
Number of Pixels in Spectrum: 3648
>>>>>Begin Spectral Data<<<<<
178.204	-383.31
178.424	-383.31
178.644	-383.31
178.864	-495.95
179.084	-432.46
179.304	-57.68
179.524	24.23
179.744	-26.96
179.964	81.58
180.184	22.19
180.404	81.58
180.624	-37.2
180.844	-2.39
181.064	-151.89
181.283	7.85
181.503	-8.53
181.723	67.24
181.943	-51.54
182.163	130.73
182.383	-65.88
182.602	69.29
182.822	79.53
183.042	-4.44
183.262	-14.68
183.482	-86.36
183.701	91.82
183.921	34.47
184.141	-43.35
184.361	77.48
184.58	13.99
184.8	85.67
185.02	-35.16
185.239	81.58
185.459	83.63
185.679	73.39
185.898	-78.16
186.118	26.28
186.338	28.33
186.557	128.68
186.777	-61.78
186.997	13.99
187.216	-10.58
187.436	159.4
187.655	65.19
187.875	83.63
188.095	-6.49
188.314	159.4
188.534	116.39
188.753	-115.03
188.973	120.49
189.192	210.6
189.412	-14.68
189.631	42.67
189.851	26.28
190.07	100.01
190.29	-45.4
190.509	-10.58
190.729	61.1
190.948	118.44
191.168	212.65
191.387	71.34
191.607	-4.44
191.826	91.82
192.045	-4.44
192.265	-22.87
192.484	59.05
192.704	61.1
192.923	-65.88
193.142	149.16
193.362	108.2
193.581	75.43
193.8	32.43
194.02	110.25
194.239	73.39
194.458	18.09
194.678	50.86
194.897	-14.68
195.116	36.52
195.335	34.47
195.555	46.76
195.774	-31.06
195.993	-10.58
196.212	5.8
196.432	-78.16
196.651	-20.82
196.87	-18.77
197.089	304.81
197.308	-6.49
197.528	75.43
197.747	-20.82
197.966	61.1
198.185	89.77
198.404	-33.11
198.623	52.91
198.842	179.88
199.062	134.82
199.281	114.34
199.5	71.34
199.719	59.05
199.938	91.82
200.157	61.1
200.376	75.43
200.595	155.3
200.814	118.44
201.033	-18.77
201.252	124.58
201.471	24.23
201.69	32.43
201.909	-14.68
202.128	5.8
202.347	89.77
202.566	-0.34
202.785	-53.59
203.004	-57.68
203.223	239.27
203.442	87.72
203.661	-10.58
203.879	52.91
204.098	54.95
204.317	-29.01
204.536	106.15
204.755	81.58
204.974	124.58
205.193	-37.2
205.411	97.96
205.63	77.48
205.849	40.62
206.068	13.99
206.287	-31.06
206.505	134.82
206.724	-22.87
206.943	42.67
207.162	-12.63
207.381	34.47
207.599	22.19
207.818	18.09
208.037	-12.63
208.255	18.09
208.474	85.67
208.693	81.58
208.911	-57.68
209.13	93.87
209.349	87.72
209.567	151.21
209.786	108.2
210.005	38.57
210.223	79.53
210.442	-123.22
210.661	-53.59
210.879	122.54
211.098	-6.49
211.316	22.19
211.535	22.19
211.753	-33.11
211.972	-6.49
212.191	-10.58
212.409	-20.82
212.628	95.91
212.846	-12.63
213.065	52.91
213.283	46.76
213.502	34.47
213.72	77.48
213.938	38.57
214.157	-61.78
214.375	63.15
214.594	-22.87
214.812	102.06
215.031	22.19
215.249	11.95
215.467	1.71
215.686	81.58
215.904	-16.73
216.122	-69.97
216.341	155.3
216.559	44.71
216.778	95.91
216.996	87.72
217.214	42.67
217.432	-35.16
217.651	-96.6
217.869	28.33
218.087	71.34
218.306	42.67
218.524	87.72
218.742	50.86
218.96	122.54
219.179	50.86
219.397	-55.64
219.615	188.07
219.833	108.2
220.051	-8.53
220.27	-12.63
220.488	46.76
220.706	5.8
220.924	-65.88
221.142	-6.49
221.36	61.1
221.578	91.82
221.796	50.86
222.015	36.52
222.233	54.95
222.451	151.21
222.669	-123.22
222.887	57
223.105	-24.92
223.323	-20.82
223.541	-37.2
223.759	24.23
223.977	46.76
224.195	87.72
224.413	97.96
224.631	-18.77
224.849	95.91
225.067	179.88
225.285	7.85
225.503	30.38
225.721	-125.27
225.939	18.09
226.157	108.2
226.375	226.98
226.592	13.99
226.81	36.52
227.028	100.01
227.246	122.54
227.464	114.34
227.682	126.63
227.9	79.53
228.117	65.19
228.335	32.43
228.553	18.09
228.771	20.14
228.989	89.77
229.206	20.14
229.424	38.57
229.642	50.86
229.86	-4.44
230.077	110.25
230.295	95.91
230.513	100.01
230.731	81.58
230.948	79.53
231.166	114.34
231.384	-47.44
231.601	-39.25
231.819	173.74
232.037	-2.39
232.254	1.71
232.472	59.05
232.689	-72.02
232.907	83.63
233.125	-45.4
233.342	-10.58
233.56	7.85
233.777	5.8
233.995	40.62
234.213	77.48
234.43	38.57
234.648	-18.77
234.865	26.28
235.083	124.58
235.3	-12.63
235.518	83.63
235.735	67.24
235.953	114.34
236.17	81.58
236.388	42.67
236.605	79.53
236.822	89.77
237.04	122.54
237.257	18.09
237.475	-29.01
237.692	50.86
237.909	87.72
238.127	-29.01
238.344	65.19
238.562	42.67
238.779	-53.59
238.996	-80.21
239.214	-31.06
239.431	44.71
239.648	-63.83
239.865	40.62
240.083	69.29
240.3	-67.92
240.517	-24.92
240.735	26.28
240.952	79.53
241.169	50.86
241.386	3.75
241.603	61.1
241.821	-26.96
242.038	67.24
242.255	65.19
242.472	-22.87
242.689	32.43
242.907	52.91
243.124	38.57
243.341	-8.53
243.558	5.8
243.775	-31.06
243.992	-63.83
244.209	124.58
244.426	167.59
244.643	24.23
244.86	5.8
245.078	69.29
245.295	75.43
245.512	-16.73
245.729	22.19
245.946	63.15
246.163	18.09
246.38	-31.06
246.597	-12.63
246.814	65.19
247.031	3.75
247.248	9.9
247.464	63.15
247.681	-4.44
247.898	59.05
248.115	26.28
248.332	-53.59
248.549	130.73
248.766	120.49
248.983	67.24
249.2	20.14
249.417	118.44
249.633	-20.82
249.85	93.87
250.067	42.67
250.284	42.67
250.501	69.29
250.717	7.85
250.934	-80.21
251.151	-90.45
251.368	-10.58
251.585	63.15
251.801	28.33
252.018	-31.06
252.235	140.97
252.451	-104.79
252.668	13.99
252.885	36.52
253.102	28.33
253.318	-45.4
253.535	-22.87
253.752	-22.87
253.968	7.85
254.185	-100.69
254.401	79.53
254.618	57
254.835	-53.59
255.051	167.59
255.268	-18.77
255.484	63.15
255.701	-37.2
255.917	28.33
256.134	-39.25
256.351	26.28
256.567	20.14
256.784	-10.58
257	-65.88
257.217	57
257.433	77.48
257.65	-26.96
257.866	155.3
258.082	-4.44
258.299	-51.54
258.515	54.95
258.732	54.95
258.948	-29.01
259.165	48.81
259.381	-22.87
259.597	108.2
259.814	44.71
260.03	-20.82
260.246	-6.49
260.463	159.4
260.679	140.97
260.895	77.48
261.112	13.99
261.328	-2.39
261.544	-18.77
261.761	159.4
261.977	-47.44
262.193	-41.3
262.409	122.54
262.626	22.19
262.842	22.19
263.058	-74.07
263.274	102.06
263.49	3.75
263.707	93.87
263.923	130.73
264.139	-63.83
264.355	34.47
264.571	54.95
264.787	-8.53
265.004	34.47
265.22	1.71
265.436	-29.01
265.652	-24.92
265.868	50.86
266.084	-108.88
266.3	-4.44
266.516	-88.4
266.732	46.76
266.948	32.43
267.164	-35.16
267.38	61.1
267.596	32.43
267.812	85.67
268.028	83.63
268.244	-22.87
268.46	110.25
268.676	-51.54
268.892	-20.82
269.108	-35.16
269.324	-20.82
269.54	-45.4
269.756	48.81
269.972	-57.68
270.188	-29.01
270.403	-88.4
270.619	-35.16
270.835	95.91
271.051	-41.3
271.267	-10.58
271.483	-14.68
271.698	130.73
271.914	20.14
272.13	11.95
272.346	7.85
272.562	63.15
272.777	54.95
272.993	-22.87
273.209	-10.58
273.425	67.24
273.64	-102.74
273.856	85.67
274.072	-29.01
274.287	-45.4
274.503	61.1
274.719	69.29
274.934	-26.96
275.15	-67.92
275.366	42.67
275.581	-65.88
275.797	69.29
276.012	65.19
276.228	32.43
276.444	42.67
276.659	124.58
276.875	30.38
277.09	-4.44
277.306	30.38
277.521	28.33
277.737	-59.73
277.952	126.63
278.168	110.25
278.383	57
278.599	-16.73
278.814	57
279.03	11.95
279.245	143.02
279.461	11.95
279.676	132.78
279.892	-63.83
280.107	-35.16
280.322	-74.07
280.538	44.71
280.753	20.14
280.969	91.82
281.184	-0.34
281.399	132.78
281.615	42.67
281.83	24.23
282.045	-135.51
282.26	-37.2
282.476	-16.73
282.691	71.34
282.906	77.48
283.122	1.71
283.337	-69.97
283.552	32.43
283.767	63.15
283.983	52.91
284.198	11.95
284.413	104.11
284.628	-35.16
284.843	32.43
285.058	52.91
285.274	-53.59
285.489	-8.53
285.704	95.91
285.919	7.85
286.134	-51.54
286.349	-22.87
286.564	-6.49
286.779	108.2
286.995	-51.54
287.21	-63.83
287.425	63.15
287.64	30.38
287.855	36.52
288.07	-110.93
288.285	132.78
288.5	110.25
288.715	97.96
288.93	18.09
289.145	-29.01
289.36	59.05
289.575	-26.96
289.79	69.29
290.004	-41.3
290.219	116.39
290.434	-14.68
290.649	-55.64
290.864	-4.44
291.079	-20.82
291.294	-16.73
291.509	-24.92
291.724	3.75
291.938	-39.25
292.153	61.1
292.368	65.19
292.583	11.95
292.798	97.96
293.012	83.63
293.227	54.95
293.442	-20.82
293.657	114.34
293.871	67.24
294.086	42.67
294.301	118.44
294.516	61.1
294.73	93.87
294.945	-43.35
295.16	22.19
295.374	38.57
295.589	81.58
295.804	-26.96
296.018	-16.73
296.233	73.39
296.447	44.71
296.662	22.19
296.877	102.06
297.091	54.95
297.306	9.9
297.52	-80.21
297.735	24.23
297.949	44.71
298.164	26.28
298.378	-4.44
298.593	-4.44
298.807	1.71
299.022	67.24
299.236	110.25
299.451	-6.49
299.665	-8.53
299.88	22.19
300.094	-6.49
300.309	32.43
300.523	26.28
300.737	-90.45
300.952	26.28
301.166	36.52
301.381	-96.6
301.595	-76.12
301.809	-4.44
302.024	20.14
302.238	-72.02
302.452	120.49
302.667	-20.82
302.881	79.53
303.095	50.86
303.309	97.96
303.524	-2.39
303.738	63.15
303.952	-35.16
304.166	97.96
304.381	-8.53
304.595	132.78
304.809	-59.73
305.023	-4.44
305.237	7.85
305.452	-41.3
305.666	104.11
305.88	67.24
306.094	38.57
306.308	50.86
306.522	32.43
306.736	77.48
306.95	132.78
307.164	-16.73
307.379	1.71
307.593	73.39
307.807	95.91
308.021	32.43
308.235	110.25
308.449	-127.32
308.663	34.47
308.877	214.7
309.091	42.67
309.305	91.82
309.519	-90.45
309.733	83.63
309.947	-121.17
310.161	71.34
310.374	42.67
310.588	81.58
310.802	-51.54
311.016	71.34
311.23	42.67
311.444	-37.2
311.658	89.77
311.872	73.39
312.085	38.57
312.299	140.97
312.513	50.86
312.727	-2.39
312.941	-35.16
313.154	16.04
313.368	-4.44
313.582	71.34
313.796	9.9
314.009	61.1
314.223	100.01
314.437	-4.44
314.651	61.1
314.864	36.52
315.078	-20.82
315.292	-53.59
315.505	24.23
315.719	65.19
315.933	26.28
316.146	18.09
316.36	-65.88
316.573	106.15
316.787	38.57
317.001	73.39
317.214	-45.4
317.428	5.8
317.641	-49.49
317.855	5.8
318.068	24.23
318.282	46.76
318.495	161.45
318.709	46.76
318.922	44.71
319.136	57
319.349	69.29
319.563	28.33
319.776	54.95
319.99	-102.74
320.203	106.15
320.417	-31.06
320.63	104.11
320.843	208.55
321.057	67.24
321.27	-37.2
321.483	46.76
321.697	159.4
321.91	38.57
322.124	46.76
322.337	57
322.55	-51.54
322.763	42.67
322.977	44.71
323.19	-14.68
323.403	38.57
323.617	75.43
323.83	95.91
324.043	22.19
324.256	34.47
324.469	-82.26
324.683	143.02
324.896	-8.53
325.109	-6.49
325.322	-55.64
325.535	57
325.748	126.63
325.962	-37.2
326.175	69.29
326.388	1.71
326.601	11.95
326.814	32.43
327.027	-22.87
327.24	112.3
327.453	-84.31
327.666	-8.53
327.879	136.87
328.092	93.87
328.305	83.63
328.518	-22.87
328.731	-51.54
328.944	-55.64
329.157	18.09
329.37	28.33
329.583	116.39
329.796	97.96
330.009	-53.59
330.222	81.58
330.435	106.15
330.648	44.71
330.861	44.71
331.073	16.04
331.286	102.06
331.499	24.23
331.712	3.75
331.925	3.75
332.138	89.77
332.35	130.73
332.563	-0.34
332.776	140.97
332.989	-110.93
333.202	-35.16
333.414	52.91
333.627	-8.53
333.84	36.52
334.053	132.78
334.265	36.52
334.478	-55.64
334.691	11.95
334.903	-33.11
335.116	-4.44
335.329	36.52
335.541	61.1
335.754	192.17
335.966	83.63
336.179	48.81
336.392	28.33
336.604	-22.87
336.817	26.28
337.029	63.15
337.242	44.71
337.454	44.71
337.667	18.09
337.88	169.64
338.092	57
338.305	18.09
338.517	-55.64
338.729	7.85
338.942	79.53
339.154	-35.16
339.367	-69.97
339.579	63.15
339.792	-16.73
340.004	69.29
340.217	13.99
340.429	38.57
340.641	-92.5
340.854	-57.68
341.066	20.14
341.278	67.24
341.491	-0.34
341.703	42.67
341.915	42.67
342.128	93.87
342.34	38.57
342.552	-88.4
342.764	-10.58
342.977	42.67
343.189	65.19
343.401	52.91
343.613	-129.36
343.826	34.47
344.038	-6.49
344.25	91.82
344.462	-61.78
344.674	26.28
344.886	69.29
345.099	57
345.311	42.67
345.523	11.95
345.735	-29.01
345.947	28.33
346.159	-10.58
346.371	63.15
346.583	-18.77
346.795	235.18
347.007	91.82
347.219	67.24
347.431	40.62
347.643	157.35
347.855	-29.01
348.067	108.2
348.279	-29.01
348.491	13.99
348.703	87.72
348.915	11.95
349.127	32.43
349.339	77.48
349.551	-57.68
349.763	106.15
349.975	-0.34
350.187	44.71
350.399	104.11
350.61	100.01
350.822	24.23
351.034	-8.53
351.246	26.28
351.458	22.19
351.669	40.62
351.881	124.58
352.093	42.67
352.305	102.06
352.517	61.1
352.728	253.61
352.94	65.19
353.152	57
353.363	-8.53
353.575	32.43
353.787	81.58
353.999	44.71
354.21	42.67
354.422	-26.96
354.633	-10.58
354.845	-2.39
355.057	-24.92
355.268	65.19
355.48	91.82
355.692	20.14
355.903	50.86
356.115	-45.4
356.326	-133.46
356.538	46.76
356.749	104.11
356.961	95.91
357.172	7.85
357.384	-102.74
357.595	169.64
357.807	-47.44
358.018	-41.3
358.23	20.14
358.441	100.01
358.653	50.86
358.864	-45.4
359.075	-65.88
359.287	-0.34
359.498	52.91
359.709	83.63
359.921	-24.92
360.132	81.58
360.344	44.71
360.555	-16.73
360.766	52.91
360.977	-45.4
361.189	18.09
361.4	-18.77
361.611	85.67
361.823	118.44
362.034	52.91
362.245	-24.92
362.456	42.67
362.667	26.28
362.879	-47.44
363.09	67.24
363.301	110.25
363.512	36.52
363.723	-45.4
363.935	50.86
364.146	63.15
364.357	-10.58
364.568	26.28
364.779	-33.11
364.99	132.78
365.201	38.57
365.412	54.95
365.623	-94.55
365.834	-0.34
366.045	30.38
366.256	50.86
366.467	97.96
366.678	-18.77
366.889	102.06
367.1	-49.49
367.311	-18.77
367.522	48.81
367.733	114.34
367.944	40.62
368.155	-12.63
368.366	106.15
368.577	112.3
368.788	126.63
368.999	5.8
369.209	9.9
369.42	100.01
369.631	167.59
369.842	108.2
370.053	-31.06
370.264	65.19
370.474	-47.44
370.685	5.8
370.896	-49.49
371.107	61.1
371.317	44.71
371.528	52.91
371.739	126.63
371.95	102.06
372.16	120.49
372.371	-26.96
372.582	24.23
372.792	3.75
373.003	42.67
373.214	36.52
373.424	30.38
373.635	-84.31
373.846	108.2
374.056	20.14
374.267	44.71
374.477	71.34
374.688	-51.54
374.898	112.3
375.109	46.76
375.319	-18.77
375.53	71.34
375.74	44.71
375.951	-8.53
376.161	36.52
376.372	81.58
376.582	1.71
376.793	69.29
377.003	-37.2
377.214	-20.82
377.424	110.25
377.635	34.47
377.845	63.15
378.055	106.15
378.266	-90.45
378.476	24.23
378.686	40.62
378.897	59.05
379.107	28.33
379.317	26.28
379.528	-39.25
379.738	59.05
379.948	-33.11
380.158	24.23
380.369	-33.11
380.579	44.71
380.789	-29.01
380.999	71.34
381.21	36.52
381.42	220.84
381.63	26.28
381.84	73.39
382.05	85.67
382.261	124.58
382.471	134.82
382.681	-24.92
382.891	151.21
383.101	73.39
383.311	-29.01
383.521	36.52
383.731	83.63
383.941	13.99
384.151	24.23
384.361	28.33
384.571	50.86
384.781	140.97
384.991	179.88
385.201	200.36
385.411	42.67
385.621	71.34
385.831	44.71
386.041	28.33
386.251	44.71
386.461	87.72
386.671	28.33
386.881	57
387.091	-84.31
387.301	83.63
387.511	50.86
387.72	69.29
387.93	79.53
388.14	-74.07
388.35	67.24
388.56	50.86
388.769	83.63
388.979	-0.34
389.189	42.67
389.399	11.95
389.609	93.87
389.818	44.71
390.028	59.05
390.238	91.82
390.447	5.8
390.657	79.53
390.867	36.52
391.076	-57.68
391.286	26.28
391.496	87.72
391.705	-72.02
391.915	87.72
392.125	161.45
392.334	3.75
392.544	165.54
392.753	16.04
392.963	-20.82
393.172	-20.82
393.382	-35.16
393.591	169.64
393.801	9.9
394.01	118.44
394.22	93.87
394.429	36.52
394.639	13.99
394.848	61.1
395.058	120.49
395.267	-26.96
395.477	48.81
395.686	116.39
395.895	218.79
396.105	196.26
396.314	30.38
396.524	3.75
396.733	-20.82
396.942	67.24
397.152	87.72
397.361	11.95
397.57	59.05
397.78	85.67
397.989	102.06
398.198	220.84
398.407	-2.39
398.617	40.62
398.826	83.63
399.035	-12.63
399.244	108.2
399.453	11.95
399.663	140.97
399.872	112.3
400.081	-26.96
400.29	118.44
400.499	-49.49
400.708	126.63
400.917	3.75
401.127	32.43
401.336	-29.01
401.545	149.16
401.754	50.86
401.963	75.43
402.172	-78.16
402.381	-53.59
402.59	-82.26
402.799	7.85
403.008	69.29
403.217	97.96
403.426	38.57
403.635	-112.98
403.844	7.85
404.053	-53.59
404.262	81.58
404.471	93.87
404.68	52.91
404.888	59.05
405.097	-69.97
405.306	18.09
405.515	112.3
405.724	-8.53
405.933	110.25
406.142	-43.35
406.35	100.01
406.559	3.75
406.768	48.81
406.977	100.01
407.185	71.34
407.394	106.15
407.603	-82.26
407.812	61.1
408.02	40.62
408.229	44.71
408.438	3.75
408.646	-6.49
408.855	48.81
409.064	79.53
409.272	48.81
409.481	-4.44
409.69	18.09
409.898	16.04
410.107	42.67
410.315	112.3
410.524	-10.58
410.733	20.14
410.941	-0.34
411.15	30.38
411.358	102.06
411.567	89.77
411.775	-4.44
411.984	22.19
412.192	83.63
412.401	22.19
412.609	112.3
412.818	106.15
413.026	79.53
413.234	26.28
413.443	134.82
413.651	-31.06
413.86	-2.39
414.068	183.98
414.276	165.54
414.485	20.14
414.693	157.35
414.901	208.55
415.11	46.76
415.318	-67.92
415.526	-31.06
415.734	63.15
415.943	87.72
416.151	124.58
416.359	9.9
416.567	114.34
416.776	7.85
416.984	69.29
417.192	212.65
417.4	36.52
417.608	36.52
417.817	-67.92
418.025	95.91
418.233	134.82
418.441	48.81
418.649	-26.96
418.857	30.38
419.065	87.72
419.273	-57.68
419.481	71.34
419.689	44.71
419.897	28.33
420.105	-78.16
420.313	71.34
420.521	136.87
420.729	188.07
420.937	-14.68
421.145	-49.49
421.353	67.24
421.561	155.3
421.769	65.19
421.977	-26.96
422.185	67.24
422.393	36.52
422.601	-10.58
422.809	108.2
423.017	34.47
423.224	34.47
423.432	77.48
423.64	42.67
423.848	100.01
424.056	-45.4
424.263	159.4
424.471	34.47
424.679	165.54
424.887	22.19
425.094	120.49
425.302	81.58
425.51	69.29
425.718	61.1
425.925	145.06
426.133	-0.34
426.341	186.02
426.548	18.09
426.756	20.14
426.964	100.01
427.171	-6.49
427.379	3.75
427.586	126.63
427.794	75.43
428.001	161.45
428.209	83.63
428.417	171.69
428.624	126.63
428.832	30.38
429.039	42.67
429.247	38.57
429.454	134.82
429.662	267.94
429.869	106.15
430.076	79.53
430.284	155.3
430.491	202.41
430.699	93.87
430.906	167.59
431.114	124.58
431.321	126.63
431.528	69.29
431.736	140.97
431.943	202.41
432.15	192.17
432.358	177.83
432.565	241.32
432.772	50.86
432.979	124.58
433.187	108.2
433.394	124.58
433.601	42.67
433.808	239.27
434.016	261.8
434.223	165.54
434.43	200.36
434.637	200.36
434.844	214.7
435.052	143.02
435.259	269.99
435.466	243.37
435.673	171.69
435.88	255.65
436.087	290.47
436.294	323.24
436.501	253.61
436.708	253.61
436.915	282.28
437.122	259.75
437.329	190.12
437.537	343.72
437.743	282.28
437.95	487.08
438.157	274.09
438.364	335.53
438.571	278.18
438.778	304.81
438.985	331.43
439.192	403.11
439.399	327.33
439.606	435.88
439.813	347.81
440.02	538.27
440.227	618.15
440.433	468.64
440.64	394.92
440.847	401.06
441.054	466.6
441.261	597.67
441.467	566.95
441.674	446.12
441.881	581.28
442.088	575.14
442.294	663.2
442.501	691.87
442.708	751.26
442.914	564.9
443.121	757.41
443.328	738.98
443.534	820.89
443.741	779.93
443.948	741.02
444.154	949.92
444.361	994.97
444.568	908.96
444.774	1033.88
444.981	882.33
445.187	1054.36
445.394	956.06
445.6	962.2
445.807	1097.37
446.013	1076.89
446.22	1107.61
446.426	1117.85
446.633	1296.02
446.839	1457.81
447.046	1226.39
447.252	1392.28
447.459	1416.85
447.665	1486.48
447.871	1584.79
448.078	1787.54
448.284	1689.23
448.491	1812.11
448.697	1826.45
448.903	1912.46
449.11	1951.37
449.316	1943.18
449.522	2088.59
449.728	2199.18
449.935	2250.38
450.141	2092.68
450.347	2506.37
450.553	2422.41
450.76	2403.97
450.966	2580.1
451.172	2592.39
451.378	2772.61
451.584	2879.1
451.791	3001.98
451.997	3088
452.203	3214.97
452.409	3245.69
452.615	3387
452.821	3341.94
453.027	3436.15
453.233	3817.07
453.44	3780.21
453.646	3835.5
453.852	3937.9
454.058	4202.09
454.264	4388.46
454.47	4689.51
454.676	4646.5
454.882	5045.85
455.088	4830.82
455.294	5176.92
455.5	5320.28
455.705	5840.47
455.911	5746.26
456.117	5813.84
456.323	6043.21
456.529	6037.07
456.735	6776.39
456.941	6839.87
457.147	6932.03
457.352	7224.89
457.558	7523.9
457.764	7859.76
457.97	8056.37
458.176	8480.3
458.381	8846.88
458.587	9035.3
458.793	9516.57
458.999	9448.99
459.204	10620.42
459.41	10962.44
459.616	10894.85
459.821	11611.64
460.027	11982.32
460.233	12740.07
460.438	12412.4
460.644	13274.59
460.85	13561.31
461.055	13950.42
461.261	14845.38
461.466	14308.82
461.672	14669.26
461.878	16291.25
462.083	16002.49
462.289	16672.17
462.494	17216.93
462.7	17266.08
462.905	17638.81
463.111	18822.54
463.316	19998.07
463.522	20450.67
463.727	20944.24
463.932	21851.49
464.138	22461.78
464.343	23381.32
464.549	23137.61
464.754	25363.75
464.959	25740.58
465.165	26309.91
465.37	26197.27
465.575	26193.18
465.781	27692.29
465.986	28677.37
466.191	28275.96
466.397	28452.09
466.602	28146.94
466.807	29162.73
467.012	29574.38
467.218	30563.54
467.423	30143.71
467.628	31544.52
467.833	33041.59
468.038	32754.87
468.244	31694.02
468.449	33563.82
468.654	32988.34
468.859	32820.41
469.064	32701.62
469.269	32476.35
469.474	32519.35
469.679	33426.6
469.885	32330.94
470.09	32648.38
470.295	33117.36
470.5	32332.99
470.705	32177.34
470.91	31313.1
471.115	31538.38
471.32	31648.97
471.525	31646.92
471.73	30784.72
471.935	30303.45
472.139	29328.62
472.344	29240.56
472.549	29271.28
472.754	28656.89
472.959	28214.52
473.164	27251.98
473.369	26789.14
473.574	27538.69
473.778	26963.22
473.983	26631.44
474.188	26291.48
474.393	24898.86
474.598	24818.99
474.802	23967.04
475.007	23924.03
475.212	23645.51
475.417	22553.94
475.621	22621.52
475.826	22084.95
476.031	21851.49
476.235	21263.72
476.44	21280.1
476.645	20802.93
476.849	20215.16
477.054	20456.82
477.259	19758.46
477.463	19705.21
477.668	19023.24
477.872	19252.61
478.077	18365.84
478.282	18054.55
478.486	17796.51
478.691	17694.11
478.895	17454.5
479.1	17438.11
479.304	17505.7
479.509	16756.14
479.713	16932.26
479.918	16721.32
480.122	16422.32
480.326	16360.88
480.531	16321.97
480.735	15984.05
480.94	15709.63
481.144	16623.02
481.348	15392.19
481.553	15529.41
481.757	15269.31
481.961	15261.12
482.166	15369.66
482.37	15191.49
482.574	14654.92
482.778	14796.23
482.983	15187.39
483.187	14800.33
483.391	14699.98
483.595	14245.33
483.8	14351.82
484.004	14118.36
484.208	14331.34
484.412	14081.49
484.616	13659.61
484.821	13815.26
485.025	13118.95
485.229	13528.54
485.433	13100.51
485.637	12858.85
485.841	12948.97
486.045	12926.44
486.249	12760.55
486.453	12344.81
486.657	12203.5
486.861	12090.87
487.065	11736.57
487.269	11601.4
487.473	11150.85
487.677	11427.32
487.881	11324.93
488.085	11023.87
488.289	10786.31
488.493	10528.27
488.697	10571.27
488.901	10124.82
489.105	10094.1
489.309	9743.89
489.512	9911.83
489.716	9682.45
489.92	9221.66
490.124	9236
490.328	9432.6
490.531	8869.41
490.735	8824.36
490.939	8674.85
491.143	8384.04
491.346	8398.38
491.55	8203.82
491.754	8236.59
491.958	8267.31
492.161	7712.31
492.365	7577.14
492.569	7427.64
492.772	7478.84
492.976	7349.82
493.18	7319.1
493.383	7339.58
493.587	7245.37
493.79	7366.2
493.994	6874.69
494.197	6874.69
494.401	7085.63
494.605	6579.78
494.808	6710.85
495.012	6678.08
495.215	6860.35
495.419	6757.96
495.622	6327.88
495.825	6440.52
496.029	6594.12
496.232	6637.13
496.436	6395.47
496.639	6499.91
496.843	6381.13
497.046	6364.75
497.249	6389.32
497.453	6231.63
497.656	6350.41
497.859	6338.12
498.063	6518.34
498.266	6477.38
498.469	6270.54
498.673	6336.07
498.876	6489.67
499.079	6538.82
499.282	6366.79
499.485	6792.77
499.689	6753.86
499.892	6676.04
500.095	6516.3
500.298	6921.79
500.501	6624.84
500.705	6999.62
500.908	6886.98
501.111	6886.98
501.314	7274.04
501.517	7272
501.72	7116.35
501.923	7106.11
502.126	7097.92
502.329	7210.56
502.532	7466.55
502.735	7413.31
502.938	7650.87
503.141	7675.45
503.344	7827
503.547	7972.4
503.75	7806.52
503.953	8003.12
504.156	8232.49
504.359	8177.2
504.562	8185.39
504.765	8478.25
504.968	8607.27
505.17	8685.09
505.373	8781.35
505.576	8883.75
505.779	9090.59
505.982	9377.31
506.185	9553.43
506.387	9584.15
506.59	9782.81
506.793	9928.21
506.996	10020.37
507.198	10575.37
507.401	10558.99
507.604	10878.47
507.807	11077.12
508.009	11347.45
508.212	11396.6
508.415	11572.73
508.617	11875.83
508.82	11935.22
509.022	12013.04
509.225	12766.7
509.428	12719.59
509.63	12991.97
509.833	13028.84
510.035	13559.26
510.238	13931.99
510.44	13956.57
510.643	14595.53
510.845	14663.11
511.048	14702.03
511.25	15138.24
511.453	15285.7
511.655	16545.2
511.858	16713.13
512.06	16887.21
512.262	17165.73
512.465	17210.79
512.667	17923.48
512.87	18261.4
513.072	18584.98
513.274	19160.45
513.477	19780.99
513.679	20166.01
513.881	20241.78
514.084	21089.64
514.286	21355.88
514.488	22031.71
514.69	22648.15
514.893	22842.7
515.095	23299.4
515.297	23842.11
515.499	24182.07
515.701	24739.12
515.904	25410.85
516.106	25912.61
516.308	26342.68
516.51	26756.37
516.712	27235.6
516.914	27849.99
517.116	28622.07
517.318	29041.9
517.52	29471.98
517.722	29664.49
517.925	30426.33
518.127	31417.55
518.329	31698.12
518.531	32003.27
518.733	32711.86
518.935	32922.8
519.136	33572.01
519.338	34395.29
519.54	34815.13
519.742	35210.39
519.944	35730.57
520.146	36508.8
520.348	37377.14
520.55	37428.34
520.752	37758.06
520.954	38820.95
521.155	38722.65
521.357	39054.42
521.559	39855.18
521.761	40334.4
521.963	40479.81
522.164	41143.35
522.366	41376.82
522.568	41528.37
522.77	41724.97
522.971	42511.39
523.173	42191.91
523.375	42849.31
523.576	43090.97
523.778	42937.37
523.98	43543.57
524.181	44237.83
524.383	43916.3
524.584	44264.46
524.786	44180.49
524.988	44362.76
525.189	44311.56
525.391	44620.8
525.592	44583.94
525.794	44401.67
525.995	44508.16
526.197	44577.79
526.398	44749.82
526.6	44758.02
526.801	44178.44
527.003	44233.74
527.204	43951.12
527.406	44665.86
527.607	43791.37
527.808	44491.78
528.01	43187.22
528.211	43375.64
528.412	43666.45
528.614	43332.63
528.815	42576.93
529.016	42951.71
529.218	41747.5
529.419	41593.9
529.62	41350.2
529.822	40913.98
530.023	41131.06
530.224	40772.67
530.425	40121.41
530.626	39629.9
530.828	38632.54
531.029	39513.17
531.23	38401.12
531.431	38036.58
531.632	37864.55
531.833	37737.58
532.035	37221.49
532.236	36603
532.437	36273.28
532.638	35333.26
532.839	35234.96
533.04	34968.73
533.241	33918.12
533.442	34354.33
533.643	33645.74
533.844	32900.28
534.045	32939.19
534.246	31980.74
534.447	32246.97
534.648	31200.46
534.849	31206.61
535.05	30526.68
535.251	30133.47
535.451	29971.68
535.652	29394.15
535.853	28919.03
536.054	28681.46
536.255	28581.11
536.456	27845.89
536.657	27700.48
536.857	26985.74
537.058	26623.25
537.259	26873.1
537.46	26285.34
537.66	25873.7
537.861	25191.72
538.062	25150.76
538.263	24816.94
538.463	24331.58
538.664	24558.9
538.865	23919.93
539.065	23979.32
539.266	23192.9
539.466	22805.84
539.667	22713.68
539.868	22771.02
540.068	22388.05
540.269	21818.72
540.469	21914.97
540.67	21411.17
540.87	21261.67
541.071	20997.48
541.271	20614.51
541.472	20426.1
541.672	20268.41
541.873	19928.44
542.073	19457.41
542.274	19598.72
542.474	19492.23
542.675	19000.71
542.875	19080.58
543.075	18859.4
543.276	18101.65
543.476	18443.67
543.676	18089.37
543.877	17816.99
544.077	17921.43
544.277	17421.73
544.478	17155.49
544.678	17106.34
544.878	16745.9
545.078	16602.54
545.279	16616.88
545.479	16356.79
545.679	16086.45
545.879	15967.67
546.079	15728.06
546.28	15574.46
546.48	15437.25
546.68	15490.49
546.88	15123.91
547.08	14962.12
547.28	14691.79
547.48	14400.97
547.68	14362.06
547.88	13907.41
548.081	14126.55
548.281	13661.66
548.481	13680.09
548.681	13706.71
548.881	13368.8
549.081	13204.96
549.28	12936.68
549.48	12891.62
549.68	12678.63
549.88	12555.76
550.08	12266.99
550.28	12248.56
550.48	12119.54
550.68	11943.41
550.88	11793.91
551.08	11372.03
551.279	11525.63
551.479	11083.27
551.679	11140.61
551.879	10690.06
552.079	11046.4
552.278	10632.71
552.478	10628.62
552.678	10360.33
552.878	10057.23
553.077	9741.85
553.277	9559.58
553.477	9778.71
553.676	9631.26
553.876	9301.53
554.076	9090.59
554.275	9113.12
554.475	8758.82
554.674	8812.07
554.874	8472.11
555.074	8453.67
555.273	8574.5
555.473	8345.13
555.672	8085.04
555.872	8097.33
556.071	7857.71
556.271	7878.19
556.47	7605.81
556.67	7353.91
556.869	7364.15
557.068	7298.62
557.268	7003.71
557.467	7085.63
557.667	7108.16
557.866	6753.86
558.065	6669.89
558.265	6600.26
558.464	6368.84
558.663	6450.76
558.863	6135.37
559.062	6348.36
559.261	6147.66
559.461	6209.1
559.66	5811.79
559.859	5858.9
560.058	5635.67
560.258	5416.54
560.457	5488.21
560.656	5586.52
560.855	5269.08
561.054	5326.43
561.253	5289.56
561.453	5150.3
561.652	5146.2
561.851	5185.12
562.05	4796
562.249	4830.82
562.448	4941.41
562.647	4437.61
562.846	4736.61
563.045	4535.91
563.244	4410.98
563.443	4386.41
563.642	4310.63
563.841	4241
564.04	4197.99
564.239	4048.49
564.438	4087.4
564.637	3933.81
564.836	4015.73
565.035	3901.04
565.234	3853.94
565.432	3683.95
565.631	3700.34
565.83	3841.65
566.029	3493.49
566.228	3503.73
566.427	3483.25
566.625	3479.16
566.824	3434.1
567.023	3495.54
567.222	3239.55
567.42	3268.22
567.619	3245.69
567.818	3196.54
568.016	3159.67
568.215	3008.12
568.414	3053.18
568.612	3116.67
568.811	2825.86
569.01	2975.36
569.208	2797.18
569.407	2864.77
569.605	2780.8
569.804	2786.94
570.002	2729.6
570.201	2635.39
570.4	2705.03
570.598	2631.3
570.797	2537.09
570.995	2498.18
571.193	2385.54
571.392	2410.12
571.59	2356.87
571.789	2440.84
571.987	2387.59
572.186	2311.82
572.384	2176.65
572.582	2190.99
572.781	2272.9
572.979	2139.79
573.177	2172.55
573.376	2051.72
573.574	2133.64
573.772	2061.96
573.971	1943.18
574.169	1932.94
574.367	1875.6
574.565	1984.14
574.763	1851.02
574.962	1791.63
575.16	1777.3
575.358	1838.73
575.556	1748.62
575.754	1752.72
575.952	1754.77
576.151	1701.52
576.349	1834.64
576.547	1461.91
576.745	1552.02
576.943	1678.99
577.141	1482.39
577.339	1420.95
577.537	1519.25
577.735	1533.59
577.933	1443.48
578.131	1451.67
578.329	1564.31
578.527	1412.76
578.725	1445.52
578.923	1302.17
579.121	1320.6
579.319	1218.2
579.516	1253.02
579.714	1478.29
579.912	1255.06
580.11	1142.43
580.308	1113.75
580.506	1191.58
580.704	1066.65
580.901	1048.22
581.099	1314.45
581.297	1136.28
581.495	1091.23
581.692	1101.47
581.89	1187.48
582.088	1056.41
582.285	1048.22
582.483	1019.55
582.681	1011.36
582.878	992.92
583.076	925.34
583.274	988.83
583.471	1128.09
583.669	954.01
583.866	831.13
584.064	900.76
584.262	820.89
584.459	829.09
584.657	878.24
584.854	992.92
585.052	921.24
585.249	896.67
585.447	786.08
585.644	732.83
585.841	870.05
586.039	833.18
586.236	849.57
586.434	724.64
586.631	712.35
586.828	775.84
587.026	712.35
587.223	779.93
587.42	634.53
587.618	710.3
587.815	761.5
588.012	650.91
588.21	675.49
588.407	728.74
588.604	693.92
588.801	523.94
588.999	575.14
589.196	695.97
589.393	634.53
589.59	665.25
589.787	679.58
589.984	665.25
590.182	616.1
590.379	503.46
590.576	626.34
590.773	536.23
590.97	579.23
591.167	603.81
591.364	710.3
591.561	624.29
591.758	691.87
591.955	622.24
592.152	564.9
592.349	560.8
592.546	581.28
592.743	528.03
592.94	650.91
593.137	566.95
593.334	634.53
593.531	644.77
593.727	577.19
593.924	593.57
594.121	548.51
594.318	587.43
594.515	573.09
594.712	695.97
594.908	659.1
595.105	487.08
595.302	675.49
595.499	511.65
595.696	769.69
595.892	595.62
596.089	738.98
596.286	644.77
596.482	738.98
596.679	677.54
596.876	749.22
597.072	767.65
597.269	700.06
597.466	753.31
597.662	706.21
597.859	706.21
598.055	859.81
598.252	888.48
598.448	888.48
598.645	992.92
598.841	968.35
599.038	1052.31
599.234	1103.51
599.431	1115.8
599.627	1089.18
599.824	1150.62
600.02	1185.43
600.217	1228.44
600.413	1275.54
600.609	1271.45
600.806	1566.35
601.002	1492.63
601.198	1451.67
601.395	1621.65
601.591	1658.51
601.787	1740.43
601.984	1738.38
602.18	1771.15
602.376	1857.17
602.572	2014.86
602.769	2037.39
602.965	1996.43
603.161	2121.35
603.357	2102.92
603.553	2365.06
603.75	2209.42
603.946	2283.14
604.142	2395.78
604.338	2647.68
604.534	2528.9
604.73	2774.66
604.926	2782.85
605.122	3047.04
605.318	3030.65
605.514	3235.45
605.71	3071.61
605.906	3399.29
606.102	3337.85
606.298	3612.28
606.494	3722.87
606.69	3751.54
606.886	3823.22
607.082	3923.57
607.278	4042.35
607.474	4193.9
607.67	4304.49
607.866	4284.01
608.062	4488.81
608.257	4601.44
608.453	4505.19
608.649	5011.04
608.845	4918.88
609.041	5099.1
609.236	5248.6
609.432	5418.58
609.628	5475.93
609.824	5654.1
610.019	5873.23
610.215	6098.51
610.411	6364.75
610.606	6477.38
610.802	6471.24
610.998	6659.65
611.193	6884.93
611.389	6934.08
611.584	7243.32
611.78	7274.04
611.976	7693.88
612.171	7902.77
612.367	7814.71
612.562	8078.9
612.758	8281.64
612.953	8414.76
613.149	8789.54
613.344	8980
613.539	9238.05
613.735	9440.79
613.93	9907.73
614.126	9920.02
614.321	10417.68
614.517	10595.85
614.712	10601.99
614.907	10984.96
615.103	11079.17
615.298	11603.45
615.493	11933.17
615.688	12051.95
615.884	12627.43
616.079	12494.32
616.274	13301.22
616.47	13460.96
616.665	13864.41
616.86	14237.14
617.055	14351.82
617.25	14876.1
617.445	15427.01
617.641	15304.13
617.836	16068.02
618.031	16047.54
618.226	16803.24
618.421	16889.26
618.616	17722.78
618.811	17618.33
619.006	18361.75
619.201	18494.86
619.396	19152.26
619.591	19168.65
619.786	20125.05
619.981	20448.63
620.176	20993.39
620.371	20905.32
620.566	21691.74
620.761	22074.71
620.956	22572.37
621.151	22568.27
621.346	23678.27
621.541	23766.34
621.735	24651.06
621.93	24243.51
622.125	24925.49
622.32	25533.73
622.515	26062.11
622.709	26559.77
622.904	26811.67
623.099	27335.95
623.294	28347.64
623.488	28400.89
623.683	28812.53
623.878	29095.15
624.072	30020.83
624.267	30377.18
624.462	30754.01
624.656	31061.2
624.851	31954.12
625.046	31980.74
625.24	32455.87
625.435	32543.93
625.629	33277.1
625.824	33715.37
626.018	34086.05
626.213	33981.6
626.407	34886.81
626.602	35103.89
626.796	35751.05
626.991	35943.56
627.185	36283.52
627.38	36365.44
627.574	36668.54
627.768	36824.18
627.963	37135.48
628.157	37049.46
628.352	37645.42
628.546	37090.42
628.74	37751.91
628.935	37135.48
629.129	37201.01
629.323	37045.37
629.517	37115
629.712	36746.36
629.906	36840.57
630.1	35841.16
630.294	35994.76
630.489	35673.23
630.683	35542.16
630.877	34376.86
631.071	33967.27
631.265	33572.01
631.459	32877.75
631.653	32281.79
631.848	31552.71
632.042	30592.22
632.236	30432.47
632.43	29148.4
632.624	28824.82
632.818	27868.42
633.012	26815.76
633.206	25988.38
633.4	25554.21
633.594	24362.29
633.788	23790.91
633.982	22943.05
634.176	22429.01
634.369	21198.18
634.563	20479.35
634.757	19598.72
634.951	19142.02
635.145	18331.03
635.339	17771.93
635.533	16729.52
635.726	16223.67
635.92	15453.63
636.114	15089.09
636.308	14173.65
636.501	13800.92
636.695	13270.5
636.889	12623.34
637.083	12070.39
637.276	11793.91
637.47	11005.44
637.664	10669.58
637.857	10323.47
638.051	9768.47
638.244	9348.64
638.438	9227.81
638.632	8775.2
638.825	8478.25
639.019	8150.57
639.212	7501.37
639.406	7431.74
639.599	7091.77
639.793	7003.71
639.986	6614.6
640.18	6446.66
640.373	6207.05
640.567	5901.9
640.76	5572.18
640.954	5416.54
641.147	5144.16
641.34	4818.53
641.534	4914.78
641.727	4740.71
641.92	4535.91
642.114	4187.75
642.307	4087.4
642.5	4030.06
642.694	3815.02
642.887	3712.63
643.08	3675.76
643.273	3485.3
643.467	3339.9
643.66	3120.76
643.853	2842.24
644.046	3022.46
644.239	2754.18
644.432	2602.63
644.626	2582.15
644.819	2449.03
645.012	2283.14
645.205	2524.8
645.398	2326.15
645.591	2178.7
645.784	1971.85
645.977	1885.84
646.17	1865.36
646.363	1785.49
646.556	1787.54
646.749	1627.79
646.942	1599.12
647.135	1664.66
647.328	1453.72
647.521	1388.18
647.714	1443.48
647.907	1355.41
648.099	1279.64
648.292	1379.99
648.485	1261.21
648.678	1117.85
648.871	1076.89
649.064	1265.3
649.256	984.73
649.449	1025.69
649.642	839.33
649.835	802.46
650.027	865.95
650.22	906.91
650.413	847.52
650.605	800.41
650.798	628.39
650.991	771.74
651.183	798.37
651.376	685.73
651.568	644.77
651.761	677.54
651.954	675.49
652.146	532.13
652.339	700.06
652.531	577.19
652.724	454.31
652.916	550.56
653.109	366.25
653.301	601.76
653.494	528.03
653.686	501.41
653.879	566.95
654.071	419.49
654.263	431.78
654.456	401.06
654.648	503.46
654.84	517.79
655.033	419.49
655.225	493.22
655.417	302.76
655.61	462.5
655.802	442.02
655.994	431.78
656.186	333.48
656.379	462.5
656.571	259.75
656.763	313
656.955	267.94
657.148	300.71
657.34	366.25
657.532	296.61
657.724	267.94
657.916	331.43
658.108	319.14
658.3	251.56
658.492	360.1
658.684	212.65
658.876	333.48
659.068	130.73
659.26	186.02
659.452	116.39
659.644	235.18
659.836	351.91
660.028	231.08
660.22	190.12
660.412	167.59
660.604	226.98
660.796	231.08
660.988	280.23
661.18	161.45
661.372	220.84
661.563	255.65
661.755	183.98
661.947	145.06
662.139	106.15
662.331	149.16
662.522	235.18
662.714	216.74
662.906	216.74
663.097	204.46
663.289	83.63
663.481	42.67
663.673	118.44
663.864	159.4
664.056	167.59
664.247	89.77
664.439	255.65
664.631	198.31
664.822	237.22
665.014	126.63
665.205	130.73
665.397	97.96
665.588	145.06
665.78	134.82
665.971	263.85
666.163	194.22
666.354	239.27
666.546	100.01
666.737	188.07
666.929	188.07
667.12	130.73
667.311	124.58
667.503	32.43
667.694	229.03
667.885	190.12
668.077	102.06
668.268	106.15
668.459	147.11
668.651	192.17
668.842	200.36
669.033	50.86
669.224	40.62
669.416	370.34
669.607	79.53
669.798	102.06
669.989	208.55
670.18	79.53
670.371	233.13
670.563	75.43
670.754	198.31
670.945	272.04
671.136	220.84
671.327	118.44
671.518	239.27
671.709	288.42
671.9	126.63
672.091	231.08
672.282	167.59
672.473	247.46
672.664	218.79
672.855	128.68
673.046	231.08
673.237	186.02
673.428	110.25
673.619	204.46
673.809	136.87
674	214.7
674.191	231.08
674.382	61.1
674.573	116.39
674.764	167.59
674.954	294.57
675.145	143.02
675.336	151.21
675.527	124.58
675.717	177.83
675.908	198.31
676.099	138.92
676.289	192.17
676.48	114.34
676.671	229.03
676.861	153.26
677.052	194.22
677.243	173.74
677.433	134.82
677.624	237.22
677.814	204.46
678.005	155.3
678.195	243.37
678.386	120.49
678.576	143.02
678.767	134.82
678.957	140.97
679.148	298.66
679.338	327.33
679.529	237.22
679.719	149.16
679.909	294.57
680.1	218.79
680.29	280.23
680.481	208.55
680.671	298.66
680.861	233.13
681.052	255.65
681.242	165.54
681.432	280.23
681.622	317.09
681.813	140.97
682.003	239.27
682.193	124.58
682.383	233.13
682.573	226.98
682.764	212.65
682.954	335.53
683.144	251.56
683.334	296.61
683.524	263.85
683.714	269.99
683.904	278.18
684.094	169.64
684.284	269.99
684.474	331.43
684.664	333.48
684.854	298.66
685.044	202.41
685.234	224.94
685.424	204.46
685.614	161.45
685.804	405.16
685.994	278.18
686.184	304.81
686.374	235.18
686.564	298.66
686.753	186.02
686.943	190.12
687.133	272.04
687.323	276.13
687.513	351.91
687.702	257.7
687.892	204.46
688.082	437.92
688.272	327.33
688.461	288.42
688.651	417.44
688.841	321.19
689.03	229.03
689.22	237.22
689.41	319.14
689.599	222.89
689.789	190.12
689.979	343.72
690.168	353.96
690.358	341.67
690.547	290.47
690.737	216.74
690.926	286.37
691.116	284.33
691.305	345.77
691.495	358.05
691.684	155.3
691.874	214.7
692.063	269.99
692.252	282.28
692.442	249.51
692.631	237.22
692.82	267.94
693.01	241.32
693.199	241.32
693.388	194.22
693.578	310.95
693.767	298.66
693.956	321.19
694.146	245.41
694.335	243.37
694.524	167.59
694.713	243.37
694.902	231.08
695.092	212.65
695.281	206.5
695.47	263.85
695.659	229.03
695.848	306.85
696.037	222.89
696.226	356.01
696.415	212.65
696.604	339.62
696.793	325.29
696.982	253.61
697.171	308.9
697.36	175.78
697.549	220.84
697.738	202.41
697.927	233.13
698.116	216.74
698.305	269.99
698.494	229.03
698.683	261.8
698.872	341.67
699.061	214.7
699.25	222.89
699.438	206.5
699.627	202.41
699.816	339.62
700.005	179.88
700.193	241.32
700.382	317.09
700.571	224.94
700.76	255.65
700.948	196.26
701.137	245.41
701.326	319.14
701.514	149.16
701.703	214.7
701.892	224.94
702.08	435.88
702.269	222.89
702.457	188.07
702.646	267.94
702.834	181.93
703.023	300.71
703.212	302.76
703.4	224.94
703.589	208.55
703.777	186.02
703.965	136.87
704.154	186.02
704.342	130.73
704.531	155.3
704.719	302.76
704.907	304.81
705.096	231.08
705.284	175.78
705.472	292.52
705.661	284.33
705.849	296.61
706.037	327.33
706.226	313
706.414	171.69
706.602	204.46
706.79	261.8
706.979	210.6
707.167	265.89
707.355	75.43
707.543	241.32
707.731	237.22
707.919	220.84
708.107	288.42
708.296	290.47
708.484	132.78
708.672	222.89
708.86	253.61
709.048	249.51
709.236	165.54
709.424	212.65
709.612	235.18
709.8	181.93
709.988	239.27
710.176	317.09
710.364	278.18
710.551	224.94
710.739	233.13
710.927	257.7
711.115	255.65
711.303	265.89
711.491	323.24
711.679	229.03
711.866	405.16
712.054	249.51
712.242	241.32
712.43	235.18
712.617	157.35
712.805	263.85
712.993	235.18
713.181	165.54
713.368	327.33
713.556	237.22
713.744	171.69
713.931	460.45
714.119	347.81
714.306	261.8
714.494	263.85
714.682	237.22
714.869	222.89
715.057	212.65
715.244	128.68
715.432	288.42
715.619	274.09
715.807	229.03
715.994	255.65
716.182	212.65
716.369	292.52
716.556	341.67
716.744	196.26
716.931	163.5
717.119	327.33
717.306	249.51
717.493	239.27
717.681	167.59
717.868	194.22
718.055	315.05
718.242	255.65
718.43	331.43
718.617	294.57
718.804	321.19
718.991	323.24
719.179	235.18
719.366	335.53
719.553	313
719.74	239.27
719.927	194.22
720.114	202.41
720.301	167.59
720.488	210.6
720.676	175.78
720.863	353.96
721.05	442.02
721.237	274.09
721.424	290.47
721.611	345.77
721.798	192.17
721.985	214.7
722.172	188.07
722.358	257.7
722.545	286.37
722.732	325.29
722.919	360.1
723.106	292.52
723.293	278.18
723.48	308.9
723.667	263.85
723.853	333.48
724.04	351.91
724.227	425.64
724.414	200.36
724.6	261.8
724.787	372.39
724.974	335.53
725.161	235.18
725.347	245.41
725.534	136.87
725.72	349.86
725.907	364.2
726.094	356.01
726.28	261.8
726.467	306.85
726.653	288.42
726.84	341.67
727.027	394.92
727.213	247.46
727.4	339.62
727.586	317.09
727.773	280.23
727.959	317.09
728.145	351.91
728.332	255.65
728.518	282.28
728.705	386.72
728.891	313
729.077	323.24
729.264	276.13
729.45	347.81
729.636	415.4
729.823	317.09
730.009	261.8
730.195	415.4
730.382	382.63
730.568	243.37
730.754	265.89
730.94	192.17
731.126	313
731.313	341.67
731.499	343.72
731.685	310.95
731.871	317.09
732.057	278.18
732.243	310.95
732.429	272.04
732.615	382.63
732.801	366.25
732.987	323.24
733.173	403.11
733.359	171.69
733.545	298.66
733.731	267.94
733.917	347.81
734.103	356.01
734.289	345.77
734.475	239.27
734.661	480.93
734.847	343.72
735.033	409.25
735.219	413.35
735.404	229.03
735.59	298.66
735.776	218.79
735.962	370.34
736.148	315.05
736.333	439.97
736.519	272.04
736.705	302.76
736.89	343.72
737.076	315.05
737.262	243.37
737.447	302.76
737.633	278.18
737.819	403.11
738.004	319.14
738.19	329.38
738.375	366.25
738.561	394.92
738.747	407.2
738.932	290.47
739.118	497.32
739.303	380.58
739.489	341.67
739.674	294.57
739.859	177.83
740.045	366.25
740.23	323.24
740.416	231.08
740.601	351.91
740.786	286.37
740.972	286.37
741.157	237.22
741.342	241.32
741.528	323.24
741.713	388.77
741.898	308.9
742.084	321.19
742.269	343.72
742.454	384.68
742.639	409.25
742.824	325.29
743.01	394.92
743.195	462.5
743.38	310.95
743.565	282.28
743.75	306.85
743.935	368.29
744.12	384.68
744.305	298.66
744.49	257.7
744.675	276.13
744.86	208.55
745.045	300.71
745.23	263.85
745.415	269.99
745.6	460.45
745.785	222.89
745.97	345.77
746.155	394.92
746.34	349.86
746.525	345.77
746.71	433.83
746.895	272.04
747.079	315.05
747.264	300.71
747.449	265.89
747.634	351.91
747.819	300.71
748.003	298.66
748.188	179.88
748.373	401.06
748.557	333.48
748.742	269.99
748.927	239.27
749.111	167.59
749.296	290.47
749.481	321.19
749.665	220.84
749.85	267.94
750.034	269.99
750.219	161.45
750.404	229.03
750.588	286.37
750.773	257.7
750.957	269.99
751.141	263.85
751.326	247.46
751.51	143.02
751.695	241.32
751.879	235.18
752.064	304.81
752.248	208.55
752.432	282.28
752.617	331.43
752.801	341.67
752.985	226.98
753.17	269.99
753.354	218.79
753.538	257.7
753.722	237.22
753.907	249.51
754.091	140.97
754.275	280.23
754.459	126.63
754.643	52.91
754.828	212.65
755.012	214.7
755.196	138.92
755.38	257.7
755.564	194.22
755.748	196.26
755.932	245.41
756.116	251.56
756.3	196.26
756.484	118.44
756.668	269.99
756.852	81.58
757.036	145.06
757.22	206.5
757.404	159.4
757.588	147.11
757.772	183.98
757.956	153.26
758.14	298.66
758.323	140.97
758.507	173.74
758.691	130.73
758.875	220.84
759.059	253.61
759.242	106.15
759.426	206.5
759.61	196.26
759.794	145.06
759.977	155.3
760.161	360.1
760.345	306.85
760.528	239.27
760.712	153.26
760.895	233.13
761.079	220.84
761.263	40.62
761.446	100.01
761.63	89.77
761.813	196.26
761.997	147.11
762.18	79.53
762.364	181.93
762.547	79.53
762.731	157.35
762.914	188.07
763.098	85.67
763.281	257.7
763.464	122.54
763.648	165.54
763.831	126.63
764.015	95.91
764.198	192.17
764.381	147.11
764.564	128.68
764.748	110.25
764.931	204.46
765.114	175.78
765.297	202.41
765.481	48.81
765.664	128.68
765.847	130.73
766.03	149.16
766.213	110.25
766.397	118.44
766.58	-8.53
766.763	159.4
766.946	110.25
767.129	147.11
767.312	102.06
767.495	134.82
767.678	112.3
767.861	130.73
768.044	75.43
768.227	69.29
768.41	100.01
768.593	140.97
768.776	118.44
768.959	97.96
769.142	136.87
769.324	134.82
769.507	120.49
769.69	95.91
769.873	46.76
770.056	263.85
770.239	140.97
770.421	138.92
770.604	140.97
770.787	147.11
770.97	85.67
771.152	65.19
771.335	97.96
771.518	7.85
771.7	140.97
771.883	224.94
772.066	87.72
772.248	89.77
772.431	181.93
772.613	161.45
772.796	13.99
772.978	179.88
773.161	136.87
773.343	183.98
773.526	85.67
773.708	-31.06
773.891	28.33
774.073	85.67
774.256	59.05
774.438	157.35
774.621	77.48
774.803	126.63
774.985	24.23
775.168	83.63
775.35	46.76
775.532	112.3
775.715	34.47
775.897	100.01
776.079	42.67
776.261	143.02
776.444	18.09
776.626	77.48
776.808	38.57
776.99	-90.45
777.173	13.99
777.355	42.67
777.537	85.67
777.719	36.52
777.901	28.33
778.083	-2.39
778.265	32.43
778.447	75.43
778.629	7.85
778.811	136.87
778.993	71.34
779.175	145.06
779.357	93.87
779.539	-14.68
779.721	95.91
779.903	138.92
780.085	40.62
780.267	155.3
780.449	65.19
780.631	128.68
780.812	229.03
780.994	87.72
781.176	-10.58
781.358	-8.53
781.54	20.14
781.721	118.44
781.903	134.82
782.085	77.48
782.267	143.02
782.448	-18.77
782.63	-45.4
782.812	57
782.993	59.05
783.175	91.82
783.357	-2.39
783.538	122.54
783.72	-43.35
783.901	38.57
784.083	75.43
784.264	120.49
784.446	-24.92
784.627	-100.69
784.809	28.33
784.99	44.71
785.172	173.74
785.353	48.81
785.535	3.75
785.716	40.62
785.897	-26.96
786.079	5.8
786.26	83.63
786.441	89.77
786.623	-119.12
786.804	-6.49
786.985	13.99
787.167	30.38
787.348	1.71
787.529	32.43
787.71	171.69
787.891	143.02
788.073	-39.25
788.254	-18.77
788.435	190.12
788.616	-24.92
788.797	-16.73
788.978	-20.82
789.159	11.95
789.34	81.58
789.522	83.63
789.703	-33.11
789.884	42.67
790.065	143.02
790.246	206.5
790.427	-16.73
790.607	116.39
790.788	18.09
790.969	-12.63
791.15	38.57
791.331	50.86
791.512	44.71
791.693	-24.92
791.874	-24.92
792.054	190.12
792.235	151.21
792.416	-24.92
792.597	46.76
792.778	22.19
792.958	13.99
793.139	95.91
793.32	28.33
793.5	-20.82
793.681	69.29
793.862	42.67
794.042	59.05
794.223	-69.97
794.404	-24.92
794.584	-49.49
794.765	-51.54
794.945	-22.87
795.126	52.91
795.306	13.99
795.487	9.9
795.667	-31.06
795.848	-24.92
796.028	-49.49
796.209	40.62
796.389	110.25
796.57	-8.53
796.75	26.28
796.93	50.86
797.111	-29.01
797.291	-45.4
797.471	75.43
797.652	-6.49
797.832	-74.07
798.012	46.76
798.192	-39.25
798.373	-72.02
798.553	-10.58
798.733	34.47
798.913	-4.44
799.093	-55.64
799.274	-2.39
799.454	52.91
799.634	81.58
799.814	54.95
799.994	69.29
800.174	52.91
800.354	7.85
800.534	-92.5
800.714	-22.87
800.894	-74.07
801.074	-12.63
801.254	-20.82
801.434	50.86
801.614	-53.59
801.794	-43.35
801.974	1965.71
802.154	-63.83
802.334	85.67
802.514	-59.73
802.693	71.34
802.873	34.47
803.053	89.77
803.233	42.67
803.413	-14.68
803.592	-22.87
803.772	-45.4
803.952	-14.68
804.131	-35.16
804.311	104.11
804.491	28.33
804.67	-45.4
804.85	-86.36
805.03	18.09
805.209	122.54
805.389	-49.49
805.568	-29.01
805.748	-6.49
805.928	65.19
806.107	67.24
806.287	32.43
806.466	52.91
806.646	-45.4
806.825	-0.34
807.004	-20.82
807.184	59.05
807.363	81.58
807.543	32.43
807.722	-16.73
807.901	102.06
808.081	108.2
808.26	-143.7
808.439	-10.58
808.619	24.23
808.798	-49.49
808.977	5.8
809.156	95.91
809.336	3.75
809.515	169.64
809.694	-102.74
809.873	-39.25
810.052	24.23
810.231	173.74
810.411	-20.82
810.59	77.48
810.769	-24.92
810.948	106.15
811.127	-112.98
811.306	-29.01
811.485	-31.06
811.664	83.63
811.843	-14.68
812.022	20.14
812.201	-0.34
812.38	-69.97
812.559	-61.78
812.737	71.34
812.916	-88.4
813.095	-45.4
813.274	50.86
813.453	65.19
813.632	16.04
813.811	112.3
813.989	-49.49
814.168	50.86
814.347	-74.07
814.526	54.95
814.704	65.19
814.883	93.87
815.062	-131.41
815.24	-35.16
815.419	-65.88
815.598	13.99
815.776	-123.22
815.955	-41.3
816.133	-121.17
816.312	-37.2
816.49	-26.96
816.669	-24.92
816.847	-24.92
817.026	36.52
817.204	50.86
817.383	-39.25
817.561	-57.68
817.74	81.58
817.918	-12.63
818.097	-39.25
818.275	-69.97
818.453	32.43
818.632	69.29
818.81	18.09
818.988	-2.39
819.167	-47.44
819.345	-31.06
819.523	-33.11
819.701	-20.82
819.879	61.1
820.058	36.52
820.236	34.47
820.414	-29.01
820.592	-49.49
820.77	-67.92
820.948	-86.36
821.127	-6.49
821.305	-22.87
821.483	-33.11
821.661	13.99
821.839	-29.01
822.017	-55.64
822.195	-92.5
822.373	95.91
822.551	-10.58
822.729	34.47
822.907	11.95
823.085	-6.49
823.262	73.39
823.44	-35.16
823.618	-6.49
823.796	-14.68
823.974	-112.98
824.152	-37.2
824.329	-12.63
824.507	-35.16
824.685	7.85
824.863	-63.83
825.04	-41.3
825.218	38.57
825.396	-24.92
825.574	42.67
825.751	28.33
825.929	13.99
826.107	-82.26
826.284	-80.21
826.462	-10.58
826.639	-69.97
826.817	-74.07
826.994	-26.96
827.172	-45.4
827.349	110.25
827.527	42.67
827.704	18.09
827.882	71.34
828.059	-0.34
828.237	-24.92
828.414	42.67
828.591	-137.56
828.769	30.38
828.946	-61.78
829.124	40.62
829.301	32.43
829.478	-39.25
829.655	18.09
829.833	-8.53
830.01	-76.12
830.187	32.43
830.364	5.8
830.542	-16.73
830.719	134.82
830.896	28.33
831.073	46.76
831.25	44.71
831.427	-0.34
831.604	22.19
831.782	-65.88
831.959	40.62
832.136	-12.63
832.313	18.09
832.49	-26.96
832.667	-35.16
832.844	-72.02
833.021	118.44
833.198	-39.25
833.374	-49.49
833.551	-14.68
833.728	-45.4
833.905	104.11
834.082	-121.17
834.259	13.99
834.436	50.86
834.612	-59.73
834.789	36.52
834.966	-22.87
835.143	38.57
835.319	-63.83
835.496	11.95
835.673	-26.96
835.85	143.02
836.026	-22.87
836.203	13.99
836.38	-69.97
836.556	-29.01
836.733	13.99
836.909	122.54
837.086	-76.12
837.262	-106.84
837.439	-2.39
837.616	11.95
837.792	34.47
837.968	-10.58
838.145	-176.47
838.321	-12.63
838.498	-4.44
838.674	61.1
838.851	36.52
839.027	11.95
839.203	24.23
839.38	-22.87
839.556	-29.01
839.732	120.49
839.909	-24.92
840.085	67.24
840.261	-57.68
840.437	-2.39
840.614	-78.16
840.79	7.85
840.966	16.04
841.142	34.47
841.318	-96.6
841.494	69.29
841.671	110.25
841.847	-78.16
842.023	-86.36
842.199	-26.96
842.375	108.2
842.551	-162.13
842.727	-80.21
842.903	204.46
843.079	-33.11
843.255	89.77
843.431	34.47
843.607	26.28
843.783	-106.84
843.959	-41.3
844.134	-127.32
844.31	100.01
844.486	18.09
844.662	26.28
844.838	11.95
845.013	-0.34
845.189	57
845.365	-76.12
845.541	46.76
845.716	-2.39
845.892	67.24
846.068	-51.54
846.244	-14.68
846.419	-53.59
846.595	-33.11
846.77	-80.21
846.946	1.71
847.122	-102.74
847.297	-88.4
847.473	126.63
847.648	-143.7
847.824	40.62
847.999	-123.22
848.175	-37.2
848.35	36.52
848.526	118.44
848.701	50.86
848.876	95.91
849.052	13.99
849.227	-78.16
849.403	-24.92
849.578	-18.77
849.753	-51.54
849.929	24.23
850.104	-115.03
850.279	18.09
850.454	-12.63
850.63	32.43
850.805	5.8
850.98	-92.5
851.155	3.75
851.33	108.2
851.505	-151.89
851.681	91.82
851.856	-90.45
852.031	-37.2
852.206	38.57
852.381	-102.74
852.556	-78.16
852.731	-33.11
852.906	46.76
853.081	-20.82
853.256	145.06
853.431	-57.68
853.606	-76.12
853.781	-86.36
853.956	-131.41
854.131	-8.53
854.305	-78.16
854.48	-41.3
854.655	-117.08
854.83	-127.32
855.005	1.71
855.18	-39.25
855.354	-33.11
855.529	-4.44
855.704	-67.92
855.879	26.28
856.053	-184.66
856.228	-39.25
856.403	-88.4
856.577	79.53
856.752	-141.65
856.926	48.81
857.101	85.67
857.276	-143.7
857.45	-43.35
857.625	95.91
857.799	22.19
857.974	-8.53
858.148	-104.79
858.323	-6.49
858.497	-74.07
858.672	-74.07
858.846	-84.31
859.02	61.1
859.195	-74.07
859.369	-31.06
859.543	-12.63
859.718	-29.01
859.892	36.52
860.066	-29.01
860.241	-57.68
860.415	-10.58
860.589	-61.78
860.763	-12.63
860.938	-29.01
861.112	-10.58
861.286	-84.31
861.46	-45.4
861.634	-10.58
861.808	13.99
861.982	-86.36
862.157	-112.98
862.331	-24.92
862.505	-41.3
862.679	-37.2
862.853	-88.4
863.027	-14.68
863.201	85.67
863.375	-143.7
863.549	24.23
863.722	24.23
863.896	44.71
864.07	-61.78
864.244	-47.44
864.418	26.28
864.592	-37.2
864.766	3.75
864.939	-76.12
865.113	13.99
865.287	1.71
865.461	-117.08
865.634	-6.49
865.808	-51.54
865.982	18.09
866.156	-76.12
866.329	-178.51
866.503	-22.87
866.676	40.62
866.85	-0.34
867.024	-41.3
867.197	36.52
867.371	9.9
867.544	-80.21
867.718	-129.36
867.891	54.95
868.065	-94.55
868.238	24.23
868.412	30.38
868.585	-10.58
868.759	-24.92
868.932	-82.26
869.105	-115.03
869.279	-14.68
869.452	-65.88
869.625	-33.11
869.799	-10.58
869.972	-37.2
870.145	-37.2
870.319	24.23
870.492	-100.69
870.665	-61.78
870.838	16.04
871.011	-174.42
871.185	-14.68
871.358	-20.82
871.531	16.04
871.704	-47.44
871.877	52.91
872.05	-12.63
872.223	-125.27
872.396	46.76
872.569	-22.87
872.742	-158.03
872.915	79.53
873.088	-51.54
873.261	-96.6
873.434	13.99
873.607	-119.12
873.78	73.39
873.953	-100.69
874.126	-39.25
874.299	9.9
874.471	-100.69
874.644	67.24
874.817	63.15
874.99	136.87
875.163	-39.25
875.335	57
875.508	-86.36
875.681	63.15
875.853	-92.5
876.026	-10.58
876.199	44.71
876.371	-47.44
876.544	38.57
876.717	-59.73
876.889	3.75
877.062	-2.39
877.234	28.33
877.407	-127.32
877.579	-102.74
877.752	28.33
877.924	11.95
878.097	-29.01
878.269	38.57
878.442	-35.16
878.614	54.95
878.786	42.67
878.959	13.99
879.131	-65.88
879.303	-143.7
879.476	34.47
879.648	-20.82
879.82	34.47
879.993	-76.12
880.165	-16.73
880.337	-145.75
880.509	32.43
880.681	-135.51
880.854	-47.44
881.026	122.54
881.198	198.31
881.37	-14.68
881.542	-45.4
881.714	-96.6
881.886	-20.82
882.058	-76.12
882.23	-49.49
882.402	-16.73
882.574	-0.34
882.746	59.05
882.918	57
883.09	52.91
883.262	-65.88
883.434	38.57
883.606	-117.08
883.778	-35.16
883.95	118.44
884.122	-26.96
884.293	69.29
884.465	-29.01
884.637	36.52
884.809	-98.64
884.98	34.47
885.152	22.19
885.324	18.09
885.496	-33.11
885.667	-24.92
885.839	1.71
886.011	97.96
886.182	-2.39
886.354	95.91
886.525	-47.44
886.697	-12.63
886.869	-102.74
887.04	-29.01
887.212	128.68
887.383	100.01
887.555	-39.25
887.726	-49.49
887.897	-26.96
888.069	-0.34
888.24	3.75
888.412	-31.06
888.583	-51.54
888.754	32.43
888.926	-92.5
889.097	-43.35
889.268	-61.78
889.44	-55.64
889.611	-182.61
889.782	-92.5
889.953	-90.45
890.125	100.01
890.296	48.81
890.467	-47.44
890.638	-127.32
890.809	-67.92
890.98	-37.2
891.151	-47.44
891.323	3.75
891.494	-20.82
891.665	-57.68
891.836	-39.25
892.007	-61.78
892.178	52.91
892.349	-37.2
892.52	-43.35
892.691	-14.68
892.862	-80.21
893.032	-106.84
893.203	-4.44
893.374	-0.34
893.545	5.8
893.716	-88.4
893.887	11.95
894.057	-0.34
894.228	-90.45
894.399	-133.46
894.57	77.48
894.74	-20.82
894.911	42.67
895.082	-86.36
895.253	-31.06
895.423	3.75
895.594	61.1
895.764	-10.58
895.935	-67.92
896.106	24.23
896.276	-35.16
896.447	18.09
896.617	-166.23
896.788	-115.03
896.958	-98.64
897.129	-26.96
897.299	-78.16
897.47	97.96
897.64	67.24
897.81	24.23
897.981	-4.44
898.151	-100.69
898.322	26.28
898.492	-20.82
898.662	-112.98
898.832	-76.12
899.003	3.75
899.173	7.85
899.343	-43.35
899.513	-63.83
