Data from USB4F104151__178__11-05-03-744.txt Node

Date: Wed Feb 26 11:05:03 EST 2025
User: louis
Spectrometer: USB4F10415
Trigger mode: 4
Integration Time (sec): 1.000000E-1
Scans to average: 1
Electric dark correction enabled: true
Nonlinearity correction enabled: false
Boxcar width: 0
XAxis mode: Wavelengths
Number of Pixels in Spectrum: 3648
>>>>>Begin Spectral Data<<<<<
178.204	-358.39
178.424	-358.39
178.644	-358.39
178.864	-405.5
179.084	-370.68
179.304	-28.67
179.524	-8.19
179.744	-20.48
179.964	16.38
180.184	-79.87
180.404	65.53
180.624	-32.77
180.844	49.15
181.064	-88.06
181.283	116.73
181.503	-65.54
181.723	75.77
181.943	-92.16
182.163	182.27
182.383	-30.72
182.602	59.39
182.822	137.21
183.042	135.17
183.262	4.1
183.482	-49.15
183.701	69.63
183.921	53.25
184.141	-12.29
184.361	102.4
184.58	28.67
184.8	63.49
185.02	-26.62
185.239	124.93
185.459	26.62
185.679	120.83
185.898	-18.43
186.118	45.06
186.338	12.29
186.557	90.11
186.777	-32.77
186.997	-18.43
187.216	61.44
187.436	184.32
187.655	18.43
187.875	104.45
188.095	-36.86
188.314	237.56
188.534	194.56
188.753	-18.43
188.973	110.59
189.192	204.8
189.412	-20.48
189.631	55.3
189.851	-2.05
190.07	141.31
190.29	8.19
190.509	24.58
190.729	47.1
190.948	120.83
191.168	241.66
191.387	59.39
191.607	16.38
191.826	53.25
192.045	59.39
192.265	51.2
192.484	63.49
192.704	-8.19
192.923	-61.44
193.142	233.47
193.362	135.17
193.581	184.32
193.8	4.1
194.02	49.15
194.239	59.39
194.458	110.59
194.678	40.96
194.897	10.24
195.116	63.49
195.335	73.73
195.555	88.06
195.774	63.49
195.993	75.77
196.212	32.77
196.432	26.62
196.651	-67.58
196.87	47.1
197.089	268.28
197.308	137.21
197.528	147.45
197.747	-12.29
197.966	43.01
198.185	92.16
198.404	-36.86
198.623	55.3
198.842	129.02
199.062	88.06
199.281	116.73
199.5	98.3
199.719	129.02
199.938	59.39
200.157	79.87
200.376	124.93
200.595	229.37
200.814	169.98
201.033	-6.14
201.252	180.22
201.471	102.4
201.69	94.21
201.909	36.86
202.128	147.45
202.347	104.45
202.566	55.3
202.785	-24.58
203.004	-26.62
203.223	227.32
203.442	45.06
203.661	16.38
203.879	104.45
204.098	184.32
204.317	47.1
204.536	210.94
204.755	90.11
204.974	73.73
205.193	36.86
205.411	147.45
205.63	73.73
205.849	147.45
206.068	69.63
206.287	20.48
206.505	133.12
206.724	77.82
206.943	-71.68
207.162	26.62
207.381	59.39
207.599	36.86
207.818	34.82
208.037	-8.19
208.255	-16.38
208.474	40.96
208.693	22.53
208.911	10.24
209.13	43.01
209.349	86.01
209.567	12.29
209.786	55.3
210.005	92.16
210.223	36.86
210.442	-104.45
210.661	106.49
210.879	116.73
211.098	55.3
211.316	59.39
211.535	55.3
211.753	139.26
211.972	36.86
212.191	-2.05
212.409	34.82
212.628	122.88
212.846	-40.96
213.065	30.72
213.283	69.63
213.502	63.49
213.72	102.4
213.938	38.91
214.157	45.06
214.375	88.06
214.594	55.3
214.812	53.25
215.031	-16.38
215.249	77.82
215.467	92.16
215.686	38.91
215.904	88.06
216.122	139.26
216.341	135.17
216.559	67.58
216.778	153.6
216.996	86.01
217.214	6.14
217.432	-12.29
217.651	14.34
217.869	59.39
218.087	-26.62
218.306	34.82
218.524	6.14
218.742	43.01
218.96	69.63
219.179	-26.62
219.397	-34.82
219.615	276.48
219.833	122.88
220.051	-28.67
220.27	104.45
220.488	106.49
220.706	102.4
220.924	-59.39
221.142	24.58
221.36	73.73
221.578	-4.1
221.796	53.25
222.015	34.82
222.233	67.58
222.451	151.55
222.669	67.58
222.887	86.01
223.105	47.1
223.323	36.86
223.541	43.01
223.759	81.92
223.977	-10.24
224.195	182.27
224.413	67.58
224.631	12.29
224.849	98.3
225.067	202.75
225.285	-65.54
225.503	-28.67
225.721	-100.35
225.939	2.05
226.157	61.44
226.375	262.14
226.592	16.38
226.81	61.44
227.028	143.36
227.246	112.64
227.464	73.73
227.682	28.67
227.9	34.82
228.117	122.88
228.335	55.3
228.553	-0
228.771	34.82
228.989	114.69
229.206	100.35
229.424	-16.38
229.642	-26.62
229.86	22.53
230.077	96.25
230.295	71.68
230.513	83.97
230.731	57.34
230.948	126.97
231.166	190.46
231.384	65.53
231.601	-30.72
231.819	176.13
232.037	-4.1
232.254	-55.3
232.472	131.07
232.689	16.38
232.907	135.17
233.125	28.67
233.342	32.77
233.56	-10.24
233.777	38.91
233.995	10.24
234.213	112.64
234.43	61.44
234.648	40.96
234.865	73.73
235.083	120.83
235.3	61.44
235.518	4.1
235.735	124.93
235.953	59.39
236.17	90.11
236.388	73.73
236.605	59.39
236.822	90.11
237.04	165.89
237.257	73.73
237.475	-69.63
237.692	24.58
237.909	77.82
238.127	-14.34
238.344	57.34
238.562	51.2
238.779	-43.01
238.996	-43.01
239.214	102.4
239.431	124.93
239.648	-10.24
239.865	49.15
240.083	83.97
240.3	47.1
240.517	20.48
240.735	114.69
240.952	43.01
241.169	143.36
241.386	124.93
241.603	10.24
241.821	-2.05
242.038	94.21
242.255	73.73
242.472	-49.15
242.689	129.02
242.907	69.63
243.124	38.91
243.341	83.97
243.558	-49.15
243.775	24.58
243.992	-51.2
244.209	143.36
244.426	149.5
244.643	131.07
244.86	67.58
245.078	61.44
245.295	92.16
245.512	59.39
245.729	-22.53
245.946	49.15
246.163	67.58
246.38	38.91
246.597	129.02
246.814	43.01
247.031	36.86
247.248	106.49
247.464	100.35
247.681	53.25
247.898	90.11
248.115	112.64
248.332	47.1
248.549	200.7
248.766	235.52
248.983	106.49
249.2	49.15
249.417	94.21
249.633	53.25
249.85	16.38
250.067	-28.67
250.284	90.11
250.501	20.48
250.717	122.88
250.934	-10.24
251.151	79.87
251.368	18.43
251.585	-12.29
251.801	2.05
252.018	24.58
252.235	98.3
252.451	65.53
252.668	83.97
252.885	96.25
253.102	90.11
253.318	10.24
253.535	24.58
253.752	22.53
253.968	67.58
254.185	-94.21
254.401	57.34
254.618	106.49
254.835	86.01
255.051	110.59
255.268	110.59
255.484	38.91
255.701	61.44
255.917	151.55
256.134	20.48
256.351	100.35
256.567	-79.87
256.784	59.39
257	-28.67
257.217	165.89
257.433	6.14
257.65	-55.3
257.866	139.26
258.082	-40.96
258.299	-18.43
258.515	36.86
258.732	-2.05
258.948	-14.34
259.165	61.44
259.381	-86.01
259.597	92.16
259.814	14.34
260.03	-8.19
260.246	59.39
260.463	122.88
260.679	200.7
260.895	94.21
261.112	69.63
261.328	22.53
261.544	-45.06
261.761	190.46
261.977	-22.53
262.193	-28.67
262.409	129.02
262.626	20.48
262.842	26.62
263.058	47.1
263.274	122.88
263.49	55.3
263.707	22.53
263.923	131.07
264.139	-110.59
264.355	26.62
264.571	59.39
264.787	49.15
265.004	94.21
265.22	67.58
265.436	38.91
265.652	-4.1
265.868	81.92
266.084	-57.34
266.3	47.1
266.516	-30.72
266.732	90.11
266.948	-8.19
267.164	-34.82
267.38	116.73
267.596	36.86
267.812	157.69
268.028	55.3
268.244	18.43
268.46	96.25
268.676	43.01
268.892	79.87
269.108	38.91
269.324	30.72
269.54	-67.58
269.756	182.27
269.972	-147.45
270.188	65.53
270.403	-30.72
270.619	83.97
270.835	90.11
271.051	65.53
271.267	-77.82
271.483	2.05
271.698	61.44
271.914	90.11
272.13	90.11
272.346	-18.43
272.562	83.97
272.777	102.4
272.993	-16.38
273.209	47.1
273.425	86.01
273.64	-124.93
273.856	118.78
274.072	36.86
274.287	49.15
274.503	63.49
274.719	86.01
274.934	20.48
275.15	-32.77
275.366	75.77
275.581	-61.44
275.797	34.82
276.012	24.58
276.228	36.86
276.444	71.68
276.659	104.45
276.875	-14.34
277.09	-2.05
277.306	-30.72
277.521	59.39
277.737	8.19
277.952	157.69
278.168	102.4
278.383	55.3
278.599	69.63
278.814	194.56
279.03	36.86
279.245	79.87
279.461	57.34
279.676	124.93
279.892	55.3
280.107	-20.48
280.322	16.38
280.538	40.96
280.753	-22.53
280.969	65.53
281.184	129.02
281.399	90.11
281.615	135.17
281.83	102.4
282.045	18.43
282.26	47.1
282.476	73.73
282.691	114.69
282.906	100.35
283.122	167.93
283.337	-12.29
283.552	83.97
283.767	-8.19
283.983	174.08
284.198	38.91
284.413	-30.72
284.628	22.53
284.843	43.01
285.058	49.15
285.274	47.1
285.489	6.14
285.704	30.72
285.919	43.01
286.134	-12.29
286.349	94.21
286.564	-36.86
286.779	163.84
286.995	30.72
287.21	-32.77
287.425	151.55
287.64	47.1
287.855	51.2
288.07	-73.73
288.285	135.17
288.5	149.5
288.715	116.73
288.93	-20.48
289.145	-57.34
289.36	90.11
289.575	8.19
289.79	137.21
290.004	77.82
290.219	108.54
290.434	38.91
290.649	-38.91
290.864	36.86
291.079	24.58
291.294	63.49
291.509	77.82
291.724	-10.24
291.938	32.77
292.153	4.1
292.368	45.06
292.583	49.15
292.798	71.68
293.012	63.49
293.227	86.01
293.442	14.34
293.657	145.41
293.871	174.08
294.086	112.64
294.301	161.79
294.516	53.25
294.73	55.3
294.945	-61.44
295.16	49.15
295.374	131.07
295.589	53.25
295.804	6.14
296.018	79.87
296.233	114.69
296.447	71.68
296.662	20.48
296.877	112.64
297.091	24.58
297.306	45.06
297.52	14.34
297.735	108.54
297.949	88.06
298.164	77.82
298.378	118.78
298.593	-77.82
298.807	26.62
299.022	14.34
299.236	149.5
299.451	-20.48
299.665	-22.53
299.88	32.77
300.094	77.82
300.309	-4.1
300.523	86.01
300.737	49.15
300.952	126.97
301.166	6.14
301.381	20.48
301.595	22.53
301.809	126.97
302.024	30.72
302.238	-24.58
302.452	133.12
302.667	-18.43
302.881	192.51
303.095	90.11
303.309	71.68
303.524	53.25
303.738	-40.96
303.952	-53.25
304.166	59.39
304.381	-73.73
304.595	110.59
304.809	-8.19
305.023	88.06
305.237	6.14
305.452	77.82
305.666	108.54
305.88	90.11
306.094	153.6
306.308	102.4
306.522	86.01
306.736	120.83
306.95	88.06
307.164	32.77
307.379	-16.38
307.593	112.64
307.807	90.11
308.021	71.68
308.235	38.91
308.449	-40.96
308.663	-43.01
308.877	178.17
309.091	65.53
309.305	51.2
309.519	-75.77
309.733	124.93
309.947	-14.34
310.161	147.45
310.374	137.21
310.588	227.32
310.802	-0
311.016	6.14
311.23	102.4
311.444	26.62
311.658	53.25
311.872	239.61
312.085	112.64
312.299	147.45
312.513	186.37
312.727	36.86
312.941	-43.01
313.154	26.62
313.368	79.87
313.582	96.25
313.796	131.07
314.009	14.34
314.223	143.36
314.437	106.49
314.651	92.16
314.864	-4.1
315.078	49.15
315.292	-86.01
315.505	65.53
315.719	55.3
315.933	112.64
316.146	-34.82
316.36	-49.15
316.573	110.59
316.787	100.35
317.001	69.63
317.214	-24.58
317.428	53.25
317.641	14.34
317.855	71.68
318.068	49.15
318.282	81.92
318.495	231.42
318.709	45.06
318.922	53.25
319.136	163.84
319.349	57.34
319.563	32.77
319.776	98.3
319.99	-6.14
320.203	116.73
320.417	16.38
320.63	86.01
320.843	219.13
321.057	96.25
321.27	49.15
321.483	8.19
321.697	151.55
321.91	63.49
322.124	55.3
322.337	184.32
322.55	6.14
322.763	83.97
322.977	2.05
323.19	-0
323.403	20.48
323.617	45.06
323.83	81.92
324.043	-22.53
324.256	71.68
324.469	22.53
324.683	169.98
324.896	73.73
325.109	102.4
325.322	28.67
325.535	131.07
325.748	94.21
325.962	69.63
326.175	92.16
326.388	73.73
326.601	118.78
326.814	-0
327.027	71.68
327.24	204.8
327.453	-94.21
327.666	22.53
327.879	153.6
328.092	49.15
328.305	118.78
328.518	-0
328.731	55.3
328.944	43.01
329.157	47.1
329.37	28.67
329.583	149.5
329.796	69.63
330.009	-8.19
330.222	83.97
330.435	86.01
330.648	12.29
330.861	40.96
331.073	16.38
331.286	75.77
331.499	4.1
331.712	-36.86
331.925	6.14
332.138	63.49
332.35	69.63
332.563	28.67
332.776	63.49
332.989	-57.34
333.202	-4.1
333.414	51.2
333.627	86.01
333.84	61.44
334.053	118.78
334.265	-30.72
334.478	26.62
334.691	24.58
334.903	32.77
335.116	-34.82
335.329	69.63
335.541	108.54
335.754	112.64
335.966	59.39
336.179	30.72
336.392	-16.38
336.604	55.3
336.817	100.35
337.029	22.53
337.242	108.54
337.454	83.97
337.667	114.69
337.88	106.49
338.092	38.91
338.305	20.48
338.517	16.38
338.729	32.77
338.942	61.44
339.154	-47.1
339.367	-32.77
339.579	59.39
339.792	-4.1
340.004	22.53
340.217	45.06
340.429	67.58
340.641	43.01
340.854	4.1
341.066	-12.29
341.278	129.02
341.491	221.18
341.703	20.48
341.915	-34.82
342.128	-2.05
342.34	94.21
342.552	-38.91
342.764	-6.14
342.977	-47.1
343.189	81.92
343.401	49.15
343.613	8.19
343.826	75.77
344.038	53.25
344.25	116.73
344.462	-6.14
344.674	43.01
344.886	98.3
345.099	88.06
345.311	63.49
345.523	26.62
345.735	-88.06
345.947	22.53
346.159	131.07
346.371	18.43
346.583	-28.67
346.795	270.33
347.007	4.1
347.219	69.63
347.431	38.91
347.643	141.31
347.855	-36.86
348.067	45.06
348.279	-18.43
348.491	98.3
348.703	178.17
348.915	-20.48
349.127	55.3
349.339	102.4
349.551	-53.25
349.763	65.53
349.975	-0
350.187	98.3
350.399	100.35
350.61	69.63
350.822	59.39
351.034	38.91
351.246	86.01
351.458	96.25
351.669	63.49
351.881	126.97
352.093	139.26
352.305	124.93
352.517	147.45
352.728	114.69
352.94	-6.14
353.152	131.07
353.363	6.14
353.575	81.92
353.787	253.95
353.999	67.58
354.21	188.41
354.422	-34.82
354.633	-6.14
354.845	55.3
355.057	59.39
355.268	55.3
355.48	96.25
355.692	18.43
355.903	98.3
356.115	28.67
356.326	-34.82
356.538	184.32
356.749	75.77
356.961	143.36
357.172	10.24
357.384	-14.34
357.595	178.17
357.807	79.87
358.018	96.25
358.23	63.49
358.441	106.49
358.653	96.25
358.864	14.34
359.075	4.1
359.287	-26.62
359.498	180.22
359.709	98.3
359.921	63.49
360.132	120.83
360.344	28.67
360.555	69.63
360.766	22.53
360.977	73.73
361.189	133.12
361.4	53.25
361.611	131.07
361.823	126.97
362.034	75.77
362.245	-83.97
362.456	10.24
362.667	67.58
362.879	81.92
363.09	83.97
363.301	69.63
363.512	-36.86
363.723	4.1
363.935	-47.1
364.146	71.68
364.357	-8.19
364.568	32.77
364.779	-55.3
364.99	167.93
365.201	-12.29
365.412	137.21
365.623	-47.1
365.834	57.34
366.045	53.25
366.256	161.79
366.467	131.07
366.678	92.16
366.889	75.77
367.1	88.06
367.311	133.12
367.522	14.34
367.733	104.45
367.944	69.63
368.155	106.49
368.366	43.01
368.577	153.6
368.788	73.73
368.999	-45.06
369.209	88.06
369.42	235.52
369.631	184.32
369.842	176.13
370.053	61.44
370.264	122.88
370.474	-8.19
370.685	73.73
370.896	77.82
371.107	83.97
371.317	49.15
371.528	81.92
371.739	96.25
371.95	159.74
372.16	22.53
372.371	-4.1
372.582	-20.48
372.792	43.01
373.003	-0
373.214	110.59
373.424	55.3
373.635	-63.49
373.846	141.31
374.056	36.86
374.267	12.29
374.477	59.39
374.688	32.77
374.898	16.38
375.109	51.2
375.319	61.44
375.53	104.45
375.74	81.92
375.951	32.77
376.161	10.24
376.372	129.02
376.582	-59.39
376.793	96.25
377.003	6.14
377.214	38.91
377.424	79.87
377.635	102.4
377.845	-20.48
378.055	178.17
378.266	12.29
378.476	59.39
378.686	98.3
378.897	55.3
379.107	104.45
379.317	77.82
379.528	65.53
379.738	73.73
379.948	-49.15
380.158	167.93
380.369	61.44
380.579	110.59
380.789	34.82
380.999	77.82
381.21	182.27
381.42	206.84
381.63	47.1
381.84	73.73
382.05	71.68
382.261	120.83
382.471	163.84
382.681	-55.3
382.891	182.27
383.101	10.24
383.311	34.82
383.521	86.01
383.731	104.45
383.941	149.5
384.151	51.2
384.361	61.44
384.571	38.91
384.781	-10.24
384.991	172.03
385.201	94.21
385.411	40.96
385.621	96.25
385.831	145.41
386.041	100.35
386.251	-38.91
386.461	118.78
386.671	14.34
386.881	57.34
387.091	26.62
387.301	118.78
387.511	-10.24
387.72	114.69
387.93	38.91
388.14	-26.62
388.35	67.58
388.56	145.41
388.769	88.06
388.979	45.06
389.189	-51.2
389.399	55.3
389.609	116.73
389.818	81.92
390.028	26.62
390.238	139.26
390.447	-12.29
390.657	59.39
390.867	-26.62
391.076	16.38
391.286	120.83
391.496	-0
391.705	34.82
391.915	114.69
392.125	149.5
392.334	8.19
392.544	184.32
392.753	94.21
392.963	-65.54
393.172	-43.01
393.382	20.48
393.591	243.71
393.801	16.38
394.01	192.51
394.22	129.02
394.429	49.15
394.639	-20.48
394.848	-10.24
395.058	10.24
395.267	43.01
395.477	90.11
395.686	73.73
395.895	258.04
396.105	186.37
396.314	112.64
396.524	2.05
396.733	-8.19
396.942	124.93
397.152	180.22
397.361	188.41
397.57	161.79
397.78	53.25
397.989	129.02
398.198	299
398.407	-10.24
398.617	65.53
398.826	-0
399.035	-28.67
399.244	126.97
399.453	57.34
399.663	47.1
399.872	90.11
400.081	-34.82
400.29	92.16
400.499	-49.15
400.708	79.87
400.917	-26.62
401.127	2.05
401.336	47.1
401.545	161.79
401.754	124.93
401.963	77.82
402.172	-12.29
402.381	-26.62
402.59	61.44
402.799	8.19
403.008	143.36
403.217	61.44
403.426	161.79
403.635	-4.1
403.844	30.72
404.053	30.72
404.262	73.73
404.471	188.41
404.68	30.72
404.888	-12.29
405.097	98.3
405.306	116.73
405.515	110.59
405.724	59.39
405.933	88.06
406.142	67.58
406.35	131.07
406.559	2.05
406.768	126.97
406.977	133.12
407.185	67.58
407.394	108.54
407.603	-63.49
407.812	22.53
408.02	182.27
408.229	-8.19
408.438	133.12
408.646	8.19
408.855	20.48
409.064	32.77
409.272	22.53
409.481	94.21
409.69	-32.77
409.898	10.24
410.107	28.67
410.315	161.79
410.524	10.24
410.733	-16.38
410.941	86.01
411.15	71.68
411.358	65.53
411.567	153.6
411.775	18.43
411.984	10.24
412.192	45.06
412.401	14.34
412.609	178.17
412.818	147.45
413.026	81.92
413.234	100.35
413.443	45.06
413.651	-18.43
413.86	88.06
414.068	180.22
414.276	131.07
414.485	133.12
414.693	129.02
414.901	247.8
415.11	30.72
415.318	36.86
415.526	49.15
415.734	98.3
415.943	90.11
416.151	90.11
416.359	6.14
416.567	57.34
416.776	53.25
416.984	157.69
417.192	145.41
417.4	-20.48
417.608	65.53
417.817	34.82
418.025	155.65
418.233	69.63
418.441	12.29
418.649	-69.63
418.857	71.68
419.065	139.26
419.273	75.77
419.481	47.1
419.689	38.91
419.897	36.86
420.105	-28.67
420.313	145.41
420.521	143.36
420.729	112.64
420.937	43.01
421.145	-61.44
421.353	116.73
421.561	180.22
421.769	124.93
421.977	98.3
422.185	92.16
422.393	77.82
422.601	110.59
422.809	135.17
423.017	92.16
423.224	24.58
423.432	98.3
423.64	94.21
423.848	133.12
424.056	51.2
424.263	198.65
424.471	116.73
424.679	135.17
424.887	24.58
425.094	106.49
425.302	73.73
425.51	10.24
425.718	163.84
425.925	104.45
426.133	34.82
426.341	159.74
426.548	129.02
426.756	102.4
426.964	55.3
427.171	28.67
427.379	129.02
427.586	36.86
427.794	100.35
428.001	83.97
428.209	71.68
428.417	133.12
428.624	96.25
428.832	104.45
429.039	114.69
429.247	34.82
429.454	143.36
429.662	206.84
429.869	137.21
430.076	206.84
430.284	118.78
430.491	202.75
430.699	94.21
430.906	149.5
431.114	135.17
431.321	100.35
431.528	108.54
431.736	122.88
431.943	165.89
432.15	184.32
432.358	245.76
432.565	251.9
432.772	63.49
432.979	229.37
433.187	145.41
433.394	290.81
433.601	114.69
433.808	249.85
434.016	135.17
434.223	296.96
434.43	264.19
434.637	233.47
434.844	333.82
435.052	235.52
435.259	323.58
435.466	303.1
435.673	352.25
435.88	296.96
436.087	350.2
436.294	303.1
436.501	311.29
436.708	266.24
436.915	321.53
437.122	307.2
437.329	233.47
437.537	292.86
437.743	321.53
437.95	456.7
438.157	366.59
438.364	401.4
438.571	337.91
438.778	442.36
438.985	505.85
439.192	520.18
439.399	432.12
439.606	462.84
439.813	471.03
440.02	612.34
440.227	655.35
440.433	505.85
440.64	489.46
440.847	454.65
441.054	561.14
441.261	800.76
441.467	589.81
441.674	507.9
441.881	675.83
442.088	548.86
442.294	722.93
442.501	767.99
442.708	770.04
442.914	718.84
443.121	841.72
443.328	737.27
443.534	825.33
443.741	915.44
443.948	745.46
444.154	921.59
444.361	1165.29
444.568	972.79
444.774	1062.9
444.981	964.59
445.187	1103.86
445.394	1103.86
445.6	1120.24
445.807	1232.88
446.013	1304.56
446.22	1171.44
446.426	1214.45
446.633	1497.07
446.839	1542.12
447.046	1331.18
447.252	1476.59
447.459	1523.69
447.665	1581.03
447.871	1751.01
448.078	1832.93
448.284	1816.55
448.491	1943.52
448.697	2033.63
448.903	2109.41
449.11	2121.7
449.316	2035.68
449.522	2336.73
449.728	2357.21
449.935	2553.82
450.141	2387.93
450.347	2695.13
450.553	2588.63
450.76	2654.17
450.966	2848.72
451.172	2885.59
451.378	2885.59
451.584	2906.07
451.791	3342.28
451.997	3248.08
452.203	3448.78
452.409	3608.52
452.615	3706.82
452.821	3659.72
453.027	3680.2
453.233	4214.72
453.44	4059.07
453.646	4306.88
453.852	4442.04
454.058	4575.16
454.264	4888.5
454.47	5205.94
454.676	5250.99
454.882	5513.13
455.088	5312.43
455.294	5492.65
455.5	6029.22
455.705	6313.89
455.911	6348.7
456.117	6389.66
456.323	6598.56
456.529	6897.56
456.735	7372.69
456.941	7579.53
457.147	7833.48
457.352	7999.37
457.558	8271.75
457.764	8820.6
457.97	9043.83
458.176	9430.9
458.381	9742.19
458.587	9840.49
458.793	10692.44
458.999	10413.92
459.204	11679.57
459.41	12209.99
459.616	11759.44
459.821	12824.38
460.027	13131.58
460.233	14092.07
460.438	13940.52
460.644	14802.72
460.85	15079.19
461.055	15675.15
461.261	16590.59
461.466	16015.12
461.672	16389.89
461.878	18568.93
462.083	18169.58
462.289	18284.26
462.494	19164.89
462.7	19398.36
462.905	19484.37
463.111	21282.49
463.316	22406.83
463.522	22601.38
463.727	23019.17
463.932	24250
464.138	24895.11
464.343	25992.82
464.549	26097.27
464.754	27827.8
464.959	28741.19
465.165	29199.94
465.37	29142.6
465.575	28937.8
465.781	31155.75
465.986	31778.33
466.191	31239.72
466.397	32001.56
466.602	31055.4
466.807	32826.89
467.012	33316.36
467.218	33924.6
467.423	33787.39
467.628	35411.43
467.833	36787.66
468.038	36175.32
468.244	35337.7
468.449	37154.25
468.654	36539.86
468.859	36490.71
469.064	36554.19
469.269	35622.37
469.474	35900.89
469.679	37080.52
469.885	35855.84
470.09	36513.23
470.295	36539.86
470.5	35724.77
470.705	36113.88
470.91	34852.33
471.115	34360.82
471.32	35202.53
471.525	35046.89
471.73	33857.02
471.935	33558.02
472.139	32339.47
472.344	32691.73
472.549	32613.9
472.754	31768.09
472.959	30918.18
473.164	29773.37
473.369	29578.81
473.574	30129.72
473.778	29984.31
473.983	29441.6
474.188	28530.25
474.393	27149.92
474.598	27448.93
474.802	26404.46
475.007	26144.37
475.212	25951.86
475.417	24972.93
475.621	24602.25
475.826	24704.65
476.031	23750.29
476.235	23213.73
476.44	23482.01
476.645	22853.28
476.849	22634.15
477.054	22066.86
477.259	21757.62
477.463	21569.21
477.668	21116.61
477.872	21227.2
478.077	20481.74
478.282	19871.44
478.486	19705.56
478.691	19637.97
478.895	19287.77
479.1	19039.97
479.304	19078.88
479.509	18609.89
479.713	19052.25
479.918	18222.83
480.122	18097.9
480.326	17923.82
480.531	18124.52
480.735	17772.27
480.94	17604.34
481.144	17866.48
481.348	16989.95
481.553	17274.62
481.757	16703.23
481.961	17082.11
482.166	17178.36
482.37	16690.95
482.574	16541.44
482.778	15990.54
482.983	16602.88
483.187	16371.46
483.391	16191.24
483.595	15812.37
483.8	15642.39
484.004	15763.22
484.208	15662.86
484.412	15378.2
484.616	15394.58
484.821	15296.28
485.025	14630.69
485.229	14944.03
485.433	14389.03
485.637	14311.21
485.841	14319.4
486.045	14055.21
486.249	13784.88
486.453	13631.28
486.657	13426.48
486.861	13489.97
487.065	12840.76
487.269	13068.09
487.473	12449.6
487.677	12472.13
487.881	12666.69
488.085	12146.5
488.289	11935.56
488.493	11704.14
488.697	11552.59
488.901	11206.48
489.105	11143
489.309	11171.67
489.512	10919.77
489.716	10712.92
489.92	10422.11
490.124	10194.79
490.328	10389.35
490.531	9893.74
490.735	9604.97
490.939	9482.1
491.143	9172.85
491.346	9043.83
491.55	9004.92
491.754	8802.17
491.958	8740.73
492.161	8509.31
492.365	8533.89
492.569	8286.08
492.772	8148.87
492.976	8003.46
493.18	7860.1
493.383	8052.61
493.587	7970.69
493.79	7917.45
493.994	7468.94
494.197	7593.87
494.401	7421.84
494.605	7206.8
494.808	7264.15
495.012	7243.67
495.215	7110.55
495.419	7126.93
495.622	7165.84
495.825	6944.66
496.029	6784.92
496.232	6825.88
496.436	7038.87
496.639	6954.9
496.843	6907.8
497.046	6795.16
497.249	6954.9
497.453	6907.8
497.656	6815.64
497.859	6905.75
498.063	6997.91
498.266	6942.61
498.469	6811.54
498.673	6887.32
498.876	7042.96
499.079	7045.01
499.282	6956.95
499.485	7296.91
499.689	7122.84
499.892	7368.59
500.095	7077.78
500.298	7245.71
500.501	7071.64
500.705	7380.88
500.908	7376.78
501.111	7446.41
501.314	7759.75
501.517	7647.12
501.72	7706.51
501.923	7622.54
502.126	7702.41
502.329	7794.57
502.532	7860.1
502.735	7929.73
502.938	8269.7
503.141	8097.67
503.344	8290.18
503.547	8505.21
503.75	8441.73
503.953	8540.03
504.156	8542.08
504.359	8853.37
504.562	8982.39
504.765	9080.69
504.968	9158.52
505.17	9484.14
505.373	9426.8
505.576	9754.48
505.779	9889.64
505.982	9938.79
506.185	10239.84
506.387	10063.72
506.59	10323.81
506.793	10532.7
506.996	10733.4
507.198	11114.33
507.401	10985.3
507.604	11292.5
507.807	11687.76
508.009	11974.47
508.212	12105.54
508.415	12166.98
508.617	12541.76
508.82	12689.21
509.022	12861.24
509.225	13506.35
509.428	13788.97
509.63	13735.73
509.833	14004.01
510.035	14765.85
510.238	14583.59
510.44	14966.56
510.643	15615.76
510.845	15777.55
511.048	15953.68
511.25	16150.28
511.453	16834.3
511.655	17196.79
511.858	17387.25
512.06	17872.62
512.262	18122.48
512.465	18380.52
512.667	19171.04
512.87	19545.81
513.072	19920.59
513.274	20528.84
513.477	20965.06
513.679	21290.68
513.881	21622.45
514.084	22124.21
514.286	22779.56
514.488	23426.71
514.69	24157.84
514.893	24229.52
515.095	24544.91
515.297	25362.04
515.499	25763.45
515.701	26170.99
515.904	26838.63
516.106	27362.91
516.308	27690.59
516.51	28591.69
516.712	28884.55
516.914	29462.08
517.116	30414.38
517.318	30912.04
517.52	31522.33
517.722	31821.34
517.925	32484.88
518.127	33179.14
518.329	33545.73
518.531	33617.41
518.733	34819.56
518.935	35188.2
519.136	35546.59
519.338	36492.76
519.54	36853.2
519.742	37508.55
519.944	38204.86
520.146	38768.05
520.348	39134.63
520.55	39474.6
520.752	40009.12
520.954	40789.39
521.155	40660.37
521.357	41612.68
521.559	42421.62
521.761	42749.3
521.963	42980.72
522.164	43408.75
522.366	43613.54
522.568	44172.64
522.77	44223.84
522.971	44954.96
523.173	44848.47
523.375	45313.36
523.576	45466.95
523.778	45516.11
523.98	46251.33
524.181	46499.13
524.383	46417.21
524.584	46699.83
524.786	47142.19
524.988	46329.15
525.189	47086.9
525.391	46822.71
525.592	47177.01
525.794	47344.94
525.995	46855.48
526.197	46853.43
526.398	46912.82
526.6	46976.31
526.801	47097.14
527.003	46652.73
527.204	46552.38
527.406	46908.72
527.607	46554.43
527.808	46421.31
528.01	45407.56
528.211	45299.02
528.412	45784.39
528.614	45337.93
528.815	44258.65
529.016	45118.8
529.218	43847.01
529.419	44199.26
529.62	43494.76
529.822	42847.6
530.023	42634.61
530.224	41934.21
530.425	42161.53
530.626	40789.39
530.828	40799.63
531.029	41495.94
531.23	40103.32
531.431	39624.1
531.632	39470.5
531.833	39255.46
532.035	38348.21
532.236	38163.9
532.437	37907.9
532.638	36879.82
532.839	36537.81
533.04	36543.95
533.241	35849.69
533.442	35661.28
533.643	35155.43
533.844	34582
534.045	34223.61
534.246	33545.73
534.447	33543.68
534.648	32734.73
534.849	32267.8
535.05	31546.91
535.251	31323.68
535.451	30707.24
535.652	30774.83
535.853	30060.09
536.054	29959.73
536.255	29582.91
536.456	28591.69
536.657	28827.21
536.857	28214.87
537.058	27780.7
537.259	27805.27
537.46	27014.76
537.66	26580.59
537.861	26467.95
538.062	25869.94
538.263	25775.73
538.463	25151.1
538.664	24999.55
538.865	24931.97
539.065	24577.67
539.266	23950.99
539.466	24280.72
539.667	23510.68
539.868	23498.39
540.068	23013.02
540.269	22619.81
540.469	22425.26
540.67	22361.77
540.87	22001.33
541.071	21614.26
541.271	21821.11
541.472	21229.24
541.672	20987.58
541.873	20696.77
542.073	20209.36
542.274	20354.76
542.474	20135.63
542.675	19795.67
542.875	19615.44
543.075	19205.85
543.276	19015.39
543.476	19177.18
543.676	18728.67
543.877	18575.08
544.077	18380.52
544.277	18435.81
544.478	17956.59
544.678	17891.06
544.878	17671.92
545.078	17282.81
545.279	17155.83
545.479	16758.53
545.679	16797.44
545.879	16539.4
546.079	16402.18
546.28	16043.79
546.48	16008.97
546.68	16211.72
546.88	15793.93
547.08	15607.57
547.28	15255.32
547.48	15136.54
547.68	14960.41
547.88	14483.23
548.081	14575.39
548.281	14442.28
548.481	14247.72
548.681	14274.34
548.881	14024.49
549.081	13774.64
549.28	13250.36
549.48	13248.31
549.68	13041.46
549.88	13141.82
550.08	12664.64
550.28	12719.93
550.48	12590.91
550.68	12238.66
550.88	12123.97
551.08	11986.76
551.279	11886.41
551.479	11448.15
551.679	11493.2
551.879	11349.84
552.079	11095.89
552.278	10948.44
552.478	11136.85
552.678	10747.74
552.878	10590.05
553.077	10258.28
553.277	10094.44
553.477	10129.25
553.676	10055.53
553.876	9699.18
554.076	9703.28
554.275	9355.12
554.475	9244.53
554.674	9152.37
554.874	8974.2
555.074	8818.55
555.273	8605.56
555.473	8613.76
555.672	8386.43
555.872	8146.82
556.071	8066.95
556.271	8124.29
556.47	7862.15
556.67	7708.55
556.869	7552.91
557.068	7411.6
557.268	7391.12
557.467	7323.54
557.667	7344.02
557.866	7026.58
558.065	7075.73
558.265	6926.23
558.464	6623.13
558.663	6477.73
558.863	6584.22
559.062	6631.32
559.261	6418.33
559.461	6262.69
559.66	5965.73
559.859	5957.54
560.058	5799.85
560.258	5726.12
560.457	5560.24
560.656	5803.94
560.855	5574.57
561.054	5504.94
561.253	5355.44
561.453	5396.4
561.652	5199.79
561.851	5177.26
562.05	5066.67
562.249	4741.05
562.448	5007.28
562.647	4984.76
562.846	4630.46
563.045	4648.89
563.244	4605.88
563.443	4663.22
563.642	4513.72
563.841	4437.95
564.04	4405.18
564.239	4163.52
564.438	4151.23
564.637	4085.7
564.836	4212.67
565.035	3983.3
565.234	4052.93
565.432	3913.67
565.631	3966.92
565.83	3760.07
566.029	3749.83
566.228	3704.78
566.427	3710.92
566.625	3549.13
566.824	3620.81
567.023	3493.83
567.222	3289.04
567.42	3350.48
567.619	3405.77
567.818	3268.56
568.016	3379.15
568.215	3319.76
568.414	3092.43
568.612	3069.91
568.811	3049.43
569.01	3129.3
569.208	2785.24
569.407	3067.86
569.605	2983.89
569.804	2787.29
570.002	2842.58
570.201	2629.59
570.4	2783.19
570.598	2824.15
570.797	2725.85
570.995	2617.3
571.193	2578.39
571.392	2512.86
571.59	2385.88
571.789	2519
571.987	2420.7
572.186	2467.8
572.384	2316.25
572.582	2256.86
572.781	2318.3
572.979	2226.14
573.177	2150.37
573.376	2250.72
573.574	2201.57
573.772	2154.46
573.971	2084.83
574.169	2017.25
574.367	2168.8
574.565	2023.39
574.763	1941.47
574.962	1888.23
575.16	1859.56
575.358	1810.4
575.556	1875.94
575.754	1765.35
575.952	1751.01
576.151	1818.6
576.349	1736.68
576.547	1601.51
576.745	1769.44
576.943	1732.58
577.141	1687.53
577.339	1505.26
577.537	1644.52
577.735	1658.85
577.933	1671.14
578.131	1472.49
578.329	1591.27
578.527	1449.96
578.725	1593.32
578.923	1333.23
579.121	1382.38
579.319	1214.45
579.516	1329.13
579.714	1501.16
579.912	1320.94
580.11	1183.73
580.308	1253.36
580.506	1212.4
580.704	1095.66
580.901	1267.69
581.099	1263.6
581.297	1163.25
581.495	1232.88
581.692	1044.46
581.89	1265.64
582.088	1110
582.285	1069.04
582.483	1085.42
582.681	1093.62
582.878	1019.89
583.076	1005.55
583.274	1140.72
583.471	1107.95
583.669	962.55
583.866	915.44
584.064	890.87
584.262	862.19
584.459	921.59
584.657	1019.89
584.854	983.02
585.052	937.97
585.249	978.93
585.447	987.12
585.644	837.62
585.841	854
586.039	905.2
586.236	923.63
586.434	849.91
586.631	753.65
586.828	772.08
587.026	784.37
587.223	690.17
587.42	677.88
587.618	710.65
587.815	899.06
588.012	739.32
588.21	802.8
588.407	778.23
588.604	784.37
588.801	653.3
588.999	708.6
589.196	770.04
589.393	604.15
589.59	667.64
589.787	708.6
589.984	630.77
590.182	727.03
590.379	577.53
590.576	587.77
590.773	653.3
590.97	671.73
591.167	669.69
591.364	669.69
591.561	579.58
591.758	747.51
591.955	679.93
592.152	589.81
592.349	645.11
592.546	610.29
592.743	565.24
592.94	598.01
593.137	602.1
593.334	718.84
593.531	649.21
593.727	624.63
593.924	673.78
594.121	616.44
594.318	585.72
594.515	729.08
594.712	712.69
594.908	694.26
595.105	614.39
595.302	753.65
595.499	722.93
595.696	724.98
595.892	720.88
596.089	722.93
596.286	704.5
596.482	843.76
596.679	841.72
596.876	714.74
597.072	811
597.269	780.28
597.466	899.06
597.662	903.15
597.859	833.52
598.055	835.57
598.252	1026.03
598.448	1032.18
598.645	964.59
598.841	987.12
599.038	1097.71
599.234	1144.81
599.431	1290.22
599.627	1269.74
599.824	1277.93
600.02	1343.47
600.217	1216.49
600.413	1454.06
600.609	1419.24
600.806	1753.06
601.002	1564.65
601.198	1578.98
601.395	1728.49
601.591	1888.23
601.787	1818.6
601.984	1966.05
602.18	1961.95
602.376	2088.93
602.572	2211.81
602.769	2168.8
602.965	2228.19
603.161	2439.13
603.357	2428.89
603.553	2449.37
603.75	2516.95
603.946	2594.78
604.142	2631.64
604.338	2758.61
604.534	2830.29
604.73	2998.23
604.926	3045.33
605.122	3377.1
605.318	3176.4
605.514	3391.44
605.71	3483.59
605.906	3659.72
606.102	3717.06
606.298	3866.56
606.494	3983.3
606.69	4155.33
606.886	4163.52
607.082	4134.85
607.278	4184
607.474	4542.39
607.67	4605.88
607.866	4599.74
608.062	4964.28
608.257	5087.15
608.453	5027.76
608.649	5228.46
608.845	5259.18
609.041	5369.77
609.236	5736.36
609.432	6016.93
609.628	5935.01
609.824	6229.92
610.019	6160.29
610.215	6514.59
610.411	6645.66
610.606	6913.94
610.802	7040.92
610.998	7229.33
611.193	7401.36
611.389	7557
611.584	7759.75
611.78	7927.69
611.976	8159.11
612.171	8591.23
612.367	8658.81
612.562	8826.75
612.758	8908.66
612.953	9265.01
613.149	9594.73
613.344	9568.11
613.539	10098.53
613.735	10258.28
613.93	10641.25
614.126	10794.84
614.321	11343.7
614.517	11364.18
614.712	11654.99
614.907	11814.73
615.103	12257.09
615.298	12543.81
615.493	12859.2
615.688	12939.07
615.884	13657.9
616.079	13590.32
616.274	14346.02
616.47	14507.81
616.665	15128.35
616.86	15318.81
617.055	15838.99
617.25	16056.08
617.445	16445.19
617.641	16807.68
617.836	17260.28
618.031	17241.85
618.226	18118.38
618.421	18503.4
618.616	18841.31
618.811	19255
619.006	20033.23
619.201	20160.2
619.396	20903.62
619.591	20895.43
619.786	21454.52
619.981	21690.04
620.176	22251.18
620.371	22714.02
620.566	23301.79
620.761	23971.47
620.956	24479.37
621.151	24446.6
621.346	24997.51
621.541	25169.54
621.735	26132.08
621.93	26400.37
622.125	26869.35
622.32	27154.02
622.515	28116.56
622.709	28374.61
622.904	29197.89
623.099	29480.51
623.294	30166.58
623.488	30531.12
623.683	31088.17
623.878	31094.31
624.072	32108.05
624.267	32202.26
624.462	32804.36
624.656	33334.79
624.851	33959.42
625.046	34283
625.24	34792.94
625.435	34977.26
625.629	35941.85
625.824	36160.98
626.018	36486.61
626.213	36531.67
626.407	37467.59
626.602	37096.91
626.796	37868.99
626.991	38397.37
627.185	38268.34
627.38	38946.22
627.574	38725.04
627.768	39220.65
627.963	39321
628.157	39161.26
628.352	39798.18
628.546	39226.79
628.74	40080.8
628.935	39515.56
629.129	39339.43
629.323	39087.53
629.517	38870.45
629.712	38780.34
629.906	38495.67
630.1	37768.64
630.294	37561.79
630.489	36861.39
630.683	36869.58
630.877	35667.42
631.071	35053.03
631.265	34858.48
631.459	33717.76
631.653	33240.58
631.848	32415.25
632.042	31471.14
632.236	30813.74
632.43	29824.57
632.624	29269.57
632.818	28532.3
633.012	27272.8
633.206	26424.94
633.4	26087.03
633.594	24284.81
633.788	24106.64
633.982	23291.55
634.176	22632.1
634.369	21372.6
634.563	20686.53
634.757	19834.58
634.951	19367.64
635.145	18538.21
635.339	17667.83
635.533	17202.94
635.726	16486.15
635.92	15386.39
636.114	15345.43
636.308	14286.63
636.501	13903.66
636.695	13260.6
636.889	12461.89
637.083	11976.52
637.276	11468.62
637.47	11147.09
637.664	10776.41
637.857	10291.04
638.051	10049.38
638.244	9664.36
638.438	9068.41
638.632	8849.27
638.825	8359.81
639.019	8114.05
639.212	7987.08
639.406	7643.02
639.599	7198.61
639.793	6727.58
639.986	6530.97
640.18	6455.2
640.373	6102.95
640.567	5871.53
640.76	5640.11
640.954	5519.28
641.147	5056.43
641.34	4958.13
641.534	4913.08
641.727	4693.94
641.92	4550.59
642.114	4468.67
642.307	4081.6
642.5	4093.89
642.694	3833.8
642.887	3694.54
643.08	3624.9
643.273	3504.07
643.467	3366.86
643.66	3043.28
643.853	3016.66
644.046	3026.9
644.239	2883.54
644.432	2635.74
644.626	2645.98
644.819	2461.66
645.012	2459.61
645.205	2428.89
645.398	2342.88
645.591	2125.79
645.784	2013.15
645.977	2009.06
646.17	1957.86
646.363	1824.74
646.556	1679.33
646.749	1583.08
646.942	1722.34
647.135	1679.33
647.328	1519.59
647.521	1490.92
647.714	1392.62
647.907	1372.14
648.099	1247.21
648.292	1325.04
648.485	1196.01
648.678	1191.92
648.871	1044.46
649.064	1110
649.256	968.69
649.449	972.79
649.642	987.12
649.835	935.92
650.027	987.12
650.22	954.35
650.413	774.13
650.605	821.24
650.798	815.09
650.991	731.12
651.183	694.26
651.376	727.03
651.568	831.48
651.761	606.2
651.954	686.07
652.146	684.02
652.339	724.98
652.531	684.02
652.724	485.37
652.916	538.62
653.109	403.45
653.301	591.86
653.494	542.71
653.686	501.75
653.879	501.75
654.071	456.7
654.263	415.74
654.456	425.98
654.648	518.14
654.84	417.79
655.033	325.63
655.225	530.42
655.417	294.91
655.61	454.65
655.802	301.05
655.994	440.31
656.186	264.19
656.379	346.11
656.571	276.48
656.763	296.96
656.955	210.94
657.148	299
657.34	405.5
657.532	296.96
657.724	210.94
657.916	309.24
658.108	344.06
658.3	350.2
658.492	294.91
658.684	258.04
658.876	356.35
659.068	210.94
659.26	256
659.452	169.98
659.644	215.04
659.836	387.07
660.028	251.9
660.22	227.32
660.412	124.93
660.604	227.32
660.796	253.95
660.988	329.72
661.18	139.26
661.372	335.87
661.563	268.28
661.755	290.81
661.947	178.17
662.139	165.89
662.331	149.5
662.522	212.99
662.714	137.21
662.906	120.83
663.097	212.99
663.289	106.49
663.481	124.93
663.673	215.04
663.864	165.89
664.056	165.89
664.247	61.44
664.439	253.95
664.631	206.84
664.822	163.84
665.014	210.94
665.205	102.4
665.397	57.34
665.588	176.13
665.78	141.31
665.971	217.08
666.163	155.65
666.354	210.94
666.546	180.22
666.737	133.12
666.929	120.83
667.12	96.25
667.311	143.36
667.503	71.68
667.694	235.52
667.885	176.13
668.077	198.65
668.268	55.3
668.459	98.3
668.651	176.13
668.842	198.65
669.033	92.16
669.224	79.87
669.416	260.09
669.607	116.73
669.798	75.77
669.989	235.52
670.18	98.3
670.371	159.74
670.563	73.73
670.754	241.66
670.945	198.65
671.136	165.89
671.327	102.4
671.518	229.37
671.709	253.95
671.9	153.6
672.091	243.71
672.282	143.36
672.473	143.36
672.664	77.82
672.855	176.13
673.046	167.93
673.237	221.18
673.428	131.07
673.619	182.27
673.809	57.34
674	274.43
674.191	256
674.382	202.75
674.573	96.25
674.764	192.51
674.954	229.37
675.145	71.68
675.336	55.3
675.527	126.97
675.717	126.97
675.908	28.67
676.099	114.69
676.289	204.8
676.48	32.77
676.671	129.02
676.861	157.69
677.052	227.32
677.243	92.16
677.433	88.06
677.624	249.85
677.814	251.9
678.005	116.73
678.195	303.1
678.386	133.12
678.576	139.26
678.767	69.63
678.957	104.45
679.148	262.14
679.338	243.71
679.529	229.37
679.719	178.17
679.909	256
680.1	188.41
680.29	223.23
680.481	49.15
680.671	268.28
680.861	184.32
681.052	133.12
681.242	145.41
681.432	137.21
681.622	184.32
681.813	61.44
682.003	223.23
682.193	129.02
682.383	229.37
682.573	145.41
682.764	32.77
682.954	126.97
683.144	251.9
683.334	141.31
683.524	135.17
683.714	169.98
683.904	204.8
684.094	165.89
684.284	163.84
684.474	292.86
684.664	186.37
684.854	208.89
685.044	186.37
685.234	251.9
685.424	241.66
685.614	100.35
685.804	354.3
685.994	165.89
686.184	231.42
686.374	198.65
686.564	206.84
686.753	225.28
686.943	137.21
687.133	256
687.323	245.76
687.513	176.13
687.702	161.79
687.892	147.45
688.082	256
688.272	299
688.461	264.19
688.651	212.99
688.841	262.14
689.03	204.8
689.22	212.99
689.41	260.09
689.599	178.17
689.789	133.12
689.979	319.48
690.168	167.93
690.358	251.9
690.547	176.13
690.737	215.04
690.926	251.9
691.116	219.13
691.305	260.09
691.495	196.6
691.684	186.37
691.874	258.04
692.063	165.89
692.252	219.13
692.442	251.9
692.631	190.46
692.82	182.27
693.01	176.13
693.199	180.22
693.388	256
693.578	208.89
693.767	233.47
693.956	172.03
694.146	212.99
694.335	256
694.524	243.71
694.713	305.15
694.902	147.45
695.092	92.16
695.281	251.9
695.47	184.32
695.659	194.56
695.848	153.6
696.037	122.88
696.226	124.93
696.415	188.41
696.604	190.46
696.793	270.33
696.982	149.5
697.171	256
697.36	212.99
697.549	184.32
697.738	55.3
697.927	149.5
698.116	100.35
698.305	182.27
698.494	157.69
698.683	147.45
698.872	262.14
699.061	151.55
699.25	165.89
699.438	208.89
699.627	190.46
699.816	268.28
700.005	67.58
700.193	180.22
700.382	253.95
700.571	145.41
700.76	198.65
700.948	186.37
701.137	241.66
701.326	206.84
701.514	143.36
701.703	159.74
701.892	264.19
702.08	428.03
702.269	155.65
702.457	147.45
702.646	116.73
702.834	212.99
703.023	204.8
703.212	253.95
703.4	200.7
703.589	126.97
703.777	131.07
703.965	120.83
704.154	169.98
704.342	141.31
704.531	120.83
704.719	126.97
704.907	274.43
705.096	147.45
705.284	129.02
705.472	178.17
705.661	188.41
705.849	243.71
706.037	272.38
706.226	225.28
706.414	186.37
706.602	92.16
706.79	178.17
706.979	129.02
707.167	124.93
707.355	57.34
707.543	186.37
707.731	294.91
707.919	169.98
708.107	241.66
708.296	88.06
708.484	116.73
708.672	225.28
708.86	239.61
709.048	264.19
709.236	79.87
709.424	243.71
709.612	202.75
709.8	124.93
709.988	176.13
710.176	159.74
710.364	262.14
710.551	210.94
710.739	157.69
710.927	141.31
711.115	149.5
711.303	215.04
711.491	239.61
711.679	137.21
711.866	264.19
712.054	169.98
712.242	165.89
712.43	278.52
712.617	141.31
712.805	276.48
712.993	231.42
713.181	73.73
713.368	296.96
713.556	202.75
713.744	69.63
713.931	370.68
714.119	200.7
714.306	172.03
714.494	159.74
714.682	100.35
714.869	69.63
715.057	133.12
715.244	147.45
715.432	237.56
715.619	133.12
715.807	126.97
715.994	96.25
716.182	174.08
716.369	192.51
716.556	198.65
716.744	61.44
716.931	96.25
717.119	143.36
717.306	200.7
717.493	169.98
717.681	135.17
717.868	157.69
718.055	202.75
718.242	157.69
718.43	217.08
718.617	311.29
718.804	217.08
718.991	307.2
719.179	243.71
719.366	223.23
719.553	280.57
719.74	233.47
719.927	178.17
720.114	288.76
720.301	129.02
720.488	155.65
720.676	145.41
720.863	223.23
721.05	346.11
721.237	249.85
721.424	264.19
721.611	307.2
721.798	124.93
721.985	245.76
722.172	229.37
722.358	137.21
722.545	217.08
722.732	157.69
722.919	278.52
723.106	194.56
723.293	155.65
723.48	194.56
723.667	145.41
723.853	249.85
724.04	245.76
724.227	286.72
724.414	221.18
724.6	325.63
724.787	311.29
724.974	284.67
725.161	260.09
725.347	118.78
725.534	290.81
725.72	227.32
725.907	290.81
726.094	356.35
726.28	149.5
726.467	219.13
726.653	161.79
726.84	405.5
727.027	350.2
727.213	165.89
727.4	249.85
727.586	188.41
727.773	245.76
727.959	290.81
728.145	204.8
728.332	235.52
728.518	126.97
728.705	292.86
728.891	256
729.077	286.72
729.264	194.56
729.45	178.17
729.636	282.62
729.823	231.42
730.009	280.57
730.195	317.44
730.382	282.62
730.568	133.12
730.754	208.89
730.94	190.46
731.126	231.42
731.313	276.48
731.499	305.15
731.685	239.61
731.871	245.76
732.057	329.72
732.243	264.19
732.429	135.17
732.615	303.1
732.801	225.28
732.987	239.61
733.173	217.08
733.359	206.84
733.545	212.99
733.731	258.04
733.917	333.82
734.103	241.66
734.289	237.56
734.475	129.02
734.661	348.15
734.847	202.75
735.033	247.8
735.219	235.52
735.404	188.41
735.59	133.12
735.776	219.13
735.962	229.37
736.148	217.08
736.333	227.32
736.519	231.42
736.705	313.34
736.89	196.6
737.076	249.85
737.262	206.84
737.447	204.8
737.633	145.41
737.819	329.72
738.004	231.42
738.19	237.56
738.375	231.42
738.561	327.67
738.747	256
738.932	176.13
739.118	303.1
739.303	342.01
739.489	325.63
739.674	167.93
739.859	165.89
740.045	272.38
740.23	243.71
740.416	100.35
740.601	290.81
740.786	239.61
740.972	176.13
741.157	145.41
741.342	190.46
741.528	137.21
741.713	331.77
741.898	237.56
742.084	282.62
742.269	239.61
742.454	256
742.639	323.58
742.824	198.65
743.01	256
743.195	385.02
743.38	301.05
743.565	143.36
743.75	237.56
743.935	276.48
744.12	382.97
744.305	153.6
744.49	215.04
744.675	212.99
744.86	262.14
745.045	299
745.23	188.41
745.415	176.13
745.6	280.57
745.785	178.17
745.97	296.96
746.155	339.96
746.34	204.8
746.525	198.65
746.71	378.87
746.895	131.07
747.079	192.51
747.264	149.5
747.449	198.65
747.634	198.65
747.819	243.71
748.003	184.32
748.188	176.13
748.373	192.51
748.557	194.56
748.742	212.99
748.927	124.93
749.111	206.84
749.296	192.51
749.481	278.52
749.665	169.98
749.85	153.6
750.034	227.32
750.219	260.09
750.404	292.86
750.588	239.61
750.773	176.13
750.957	100.35
751.141	180.22
751.326	239.61
751.51	96.25
751.695	135.17
751.879	192.51
752.064	311.29
752.248	194.56
752.432	358.39
752.617	241.66
752.801	215.04
752.985	159.74
753.17	356.35
753.354	174.08
753.538	159.74
753.722	139.26
753.907	137.21
754.091	69.63
754.275	219.13
754.459	30.72
754.643	192.51
754.828	143.36
755.012	180.22
755.196	92.16
755.38	165.89
755.564	126.97
755.748	159.74
755.932	237.56
756.116	151.55
756.3	221.18
756.484	102.4
756.668	145.41
756.852	49.15
757.036	100.35
757.22	210.94
757.404	133.12
757.588	57.34
757.772	192.51
757.956	88.06
758.14	223.23
758.323	116.73
758.507	83.97
758.691	100.35
758.875	198.65
759.059	192.51
759.242	79.87
759.426	57.34
759.61	188.41
759.794	100.35
759.977	180.22
760.161	270.33
760.345	217.08
760.528	100.35
760.712	178.17
760.895	215.04
761.079	92.16
761.263	-16.38
761.446	108.54
761.63	114.69
761.813	155.65
761.997	34.82
762.18	94.21
762.364	196.6
762.547	4.1
762.731	139.26
762.914	124.93
763.098	110.59
763.281	61.44
763.464	45.06
763.648	200.7
763.831	49.15
764.015	16.38
764.198	102.4
764.381	81.92
764.564	86.01
764.748	135.17
764.931	192.51
765.114	157.69
765.297	172.03
765.481	-2.05
765.664	40.96
765.847	73.73
766.03	182.27
766.213	81.92
766.397	102.4
766.58	-16.38
766.763	180.22
766.946	75.77
767.129	63.49
767.312	24.58
767.495	59.39
767.678	73.73
767.861	124.93
768.044	108.54
768.227	55.3
768.41	145.41
768.593	118.78
768.776	96.25
768.959	57.34
769.142	114.69
769.324	53.25
769.507	143.36
769.69	49.15
769.873	38.91
770.056	247.8
770.239	98.3
770.421	161.79
770.604	143.36
770.787	53.25
770.97	81.92
771.152	65.53
771.335	194.56
771.518	92.16
771.7	129.02
771.883	67.58
772.066	24.58
772.248	110.59
772.431	159.74
772.613	149.5
772.796	40.96
772.978	151.55
773.161	143.36
773.343	71.68
773.526	20.48
773.708	45.06
773.891	10.24
774.073	40.96
774.256	77.82
774.438	149.5
774.621	112.64
774.803	18.43
774.985	47.1
775.168	106.49
775.35	53.25
775.532	88.06
775.715	88.06
775.897	47.1
776.079	10.24
776.261	96.25
776.444	94.21
776.626	22.53
776.808	90.11
776.99	12.29
777.173	92.16
777.355	90.11
777.537	61.44
777.719	-6.14
777.901	51.2
778.083	38.91
778.265	-38.91
778.447	151.55
778.629	26.62
778.811	45.06
778.993	145.41
779.175	151.55
779.357	77.82
779.539	57.34
779.721	77.82
779.903	118.78
780.085	100.35
780.267	67.58
780.449	63.49
780.631	-20.48
780.812	98.3
780.994	124.93
781.176	26.62
781.358	53.25
781.54	65.53
781.721	147.45
781.903	94.21
782.085	12.29
782.267	145.41
782.448	-24.58
782.63	36.86
782.812	96.25
782.993	49.15
783.175	100.35
783.357	4.1
783.538	159.74
783.72	24.58
783.901	28.67
784.083	88.06
784.264	79.87
784.446	-104.45
784.627	-16.38
784.809	63.49
784.99	92.16
785.172	10.24
785.353	-2.05
785.535	51.2
785.716	38.91
785.897	-26.62
786.079	112.64
786.26	83.97
786.441	-26.62
786.623	-45.06
786.804	61.44
786.985	36.86
787.167	63.49
787.348	-8.19
787.529	14.34
787.71	178.17
787.891	108.54
788.073	-40.96
788.254	-28.67
788.435	133.12
788.616	26.62
788.797	-20.48
788.978	24.58
789.159	34.82
789.34	106.49
789.522	-67.58
789.703	10.24
789.884	137.21
790.065	69.63
790.246	186.37
790.427	-24.58
790.607	108.54
790.788	92.16
790.969	-65.54
791.15	92.16
791.331	-73.73
791.512	-6.14
791.693	-22.53
791.874	-34.82
792.054	186.37
792.235	86.01
792.416	-51.2
792.597	-26.62
792.778	135.17
792.958	45.06
793.139	-2.05
793.32	57.34
793.5	-53.25
793.681	188.41
793.862	118.78
794.042	-22.53
794.223	-57.34
794.404	-81.92
794.584	-51.2
794.765	32.77
794.945	-43.01
795.126	108.54
795.306	96.25
795.487	4.1
795.667	-0
795.848	8.19
796.028	51.2
796.209	34.82
796.389	49.15
796.57	-6.14
796.75	-28.67
796.93	43.01
797.111	-94.21
797.291	-86.01
797.471	116.73
797.652	14.34
797.832	-83.97
798.012	118.78
798.192	-32.77
798.373	-88.06
798.553	-18.43
798.733	98.3
798.913	-6.14
799.093	20.48
799.274	22.53
799.454	63.49
799.634	86.01
799.814	59.39
799.994	55.3
800.174	10.24
800.354	57.34
800.534	-124.93
800.714	55.3
800.894	-92.16
801.074	-12.29
801.254	32.77
801.434	86.01
801.614	-28.67
801.794	16.38
801.974	1996.77
802.154	-16.38
802.334	116.73
802.514	-12.29
802.693	16.38
802.873	14.34
803.053	145.41
803.233	98.3
803.413	28.67
803.592	-71.68
803.772	-45.06
803.952	69.63
804.131	-98.3
804.311	122.88
804.491	151.55
804.67	-2.05
804.85	-59.39
805.03	45.06
805.209	59.39
805.389	-69.63
805.568	-38.91
805.748	45.06
805.928	-28.67
806.107	145.41
806.287	26.62
806.466	51.2
806.646	-14.34
806.825	14.34
807.004	-16.38
807.184	32.77
807.363	49.15
807.543	53.25
807.722	-2.05
807.901	40.96
808.081	24.58
808.26	-94.21
808.439	55.3
808.619	32.77
808.798	-16.38
808.977	43.01
809.156	124.93
809.336	20.48
809.515	86.01
809.694	-59.39
809.873	-75.77
810.052	61.44
810.231	124.93
810.411	45.06
810.59	22.53
810.769	106.49
810.948	110.59
811.127	-112.64
811.306	18.43
811.485	26.62
811.664	141.31
811.843	-2.05
812.022	-22.53
812.201	-36.86
812.38	81.92
812.559	-63.49
812.737	141.31
812.916	-47.1
813.095	-28.67
813.274	83.97
813.453	4.1
813.632	55.3
813.811	92.16
813.989	-77.82
814.168	63.49
814.347	-14.34
814.526	40.96
814.704	106.49
814.883	149.5
815.062	-90.11
815.24	116.73
815.419	-67.58
815.598	75.77
815.776	-116.73
815.955	-4.1
816.133	-59.39
816.312	-6.14
816.49	-98.3
816.669	-38.91
816.847	-38.91
817.026	45.06
817.204	-79.87
817.383	36.86
817.561	-86.01
817.74	-0
817.918	53.25
818.097	-49.15
818.275	-32.77
818.453	40.96
818.632	32.77
818.81	71.68
818.988	69.63
819.167	-32.77
819.345	-2.05
819.523	-36.86
819.701	14.34
819.879	-16.38
820.058	26.62
820.236	71.68
820.414	-67.58
820.592	-43.01
820.77	22.53
820.948	26.62
821.127	-30.72
821.305	73.73
821.483	-75.77
821.661	28.67
821.839	6.14
822.017	-49.15
822.195	24.58
822.373	104.45
822.551	-2.05
822.729	36.86
822.907	-36.86
823.085	34.82
823.262	-18.43
823.44	-36.86
823.618	14.34
823.796	10.24
823.974	-47.1
824.152	-133.12
824.329	-12.29
824.507	-18.43
824.685	49.15
824.863	49.15
825.04	-10.24
825.218	22.53
825.396	45.06
825.574	94.21
825.751	43.01
825.929	28.67
826.107	-12.29
826.284	-30.72
826.462	38.91
826.639	55.3
826.817	24.58
826.994	-2.05
827.172	6.14
827.349	155.65
827.527	65.53
827.704	-49.15
827.882	14.34
828.059	-73.73
828.237	-51.2
828.414	98.3
828.591	-81.92
828.769	6.14
828.946	4.1
829.124	51.2
829.301	116.73
829.478	-14.34
829.655	43.01
829.833	-36.86
830.01	-67.58
830.187	110.59
830.364	14.34
830.542	71.68
830.719	184.32
830.896	67.58
831.073	59.39
831.25	57.34
831.427	73.73
831.604	18.43
831.782	-55.3
831.959	81.92
832.136	-63.49
832.313	-24.58
832.49	-30.72
832.667	102.4
832.844	38.91
833.021	137.21
833.198	38.91
833.374	53.25
833.551	59.39
833.728	-22.53
833.905	-10.24
834.082	-102.4
834.259	114.69
834.436	124.93
834.612	-61.44
834.789	63.49
834.966	16.38
835.143	-16.38
835.319	-26.62
835.496	77.82
835.673	100.35
835.85	38.91
836.026	112.64
836.203	116.73
836.38	26.62
836.556	-2.05
836.733	-38.91
836.909	36.86
837.086	47.1
837.262	-75.77
837.439	34.82
837.616	-110.59
837.792	-22.53
837.968	-8.19
838.145	-51.2
838.321	-14.34
838.498	69.63
838.674	102.4
838.851	36.86
839.027	-51.2
839.203	2.05
839.38	59.39
839.556	-18.43
839.732	90.11
839.909	-4.1
840.085	114.69
840.261	-86.01
840.437	10.24
840.614	-4.1
840.79	63.49
840.966	49.15
841.142	-2.05
841.318	-55.3
841.494	36.86
841.671	18.43
841.847	-34.82
842.023	-20.48
842.199	63.49
842.375	141.31
842.551	-155.65
842.727	-53.25
842.903	133.12
843.079	-88.06
843.255	24.58
843.431	51.2
843.607	30.72
843.783	-141.31
843.959	38.91
844.134	-51.2
844.31	77.82
844.486	22.53
844.662	-65.54
844.838	-0
845.013	40.96
845.189	71.68
845.365	49.15
845.541	49.15
845.716	-34.82
845.892	51.2
846.068	-24.58
846.244	-32.77
846.419	26.62
846.595	-30.72
846.77	-26.62
846.946	6.14
847.122	-110.59
847.297	-65.54
847.473	79.87
847.648	-30.72
847.824	10.24
847.999	-77.82
848.175	-47.1
848.35	51.2
848.526	104.45
848.701	102.4
848.876	71.68
849.052	43.01
849.227	-18.43
849.403	-30.72
849.578	-4.1
849.753	-20.48
849.929	65.53
850.104	-141.31
850.279	32.77
850.454	-20.48
850.63	36.86
850.805	-36.86
850.98	75.77
851.155	-36.86
851.33	63.49
851.505	-65.54
851.681	40.96
851.856	-12.29
852.031	22.53
852.206	59.39
852.381	-24.58
852.556	4.1
852.731	49.15
852.906	94.21
853.081	-4.1
853.256	75.77
853.431	-6.14
853.606	-6.14
853.781	-81.92
853.956	-165.89
854.131	-24.58
854.305	65.53
854.48	-47.1
854.655	-67.58
854.83	-20.48
855.005	-63.49
855.18	79.87
855.354	36.86
855.529	-10.24
855.704	-51.2
855.879	63.49
856.053	-75.77
856.228	16.38
856.403	-77.82
856.577	61.44
856.752	-55.3
856.926	-38.91
857.101	16.38
857.276	-32.77
857.45	-47.1
857.625	114.69
857.799	-34.82
857.974	4.1
858.148	-96.25
858.323	86.01
858.497	-47.1
858.672	-61.44
858.846	-0
859.02	-34.82
859.195	-55.3
859.369	-10.24
859.543	22.53
859.718	-4.1
859.892	-6.14
860.066	-38.91
860.241	18.43
860.415	-30.72
860.589	-43.01
860.763	-63.49
860.938	-22.53
861.112	110.59
861.286	-49.15
861.46	-14.34
861.634	22.53
861.808	10.24
861.982	-8.19
862.157	4.1
862.331	14.34
862.505	-32.77
862.679	-98.3
862.853	-61.44
863.027	53.25
863.201	71.68
863.375	12.29
863.549	114.69
863.722	-12.29
863.896	176.13
864.07	-40.96
864.244	-36.86
864.418	49.15
864.592	10.24
864.766	26.62
864.939	38.91
865.113	-16.38
865.287	106.49
865.461	-67.58
865.634	26.62
865.808	-8.19
865.982	-43.01
866.156	-96.25
866.329	-94.21
866.503	-16.38
866.676	129.02
866.85	18.43
867.024	-8.19
867.197	4.1
867.371	8.19
867.544	47.1
867.718	-67.58
867.891	88.06
868.065	-83.97
868.238	10.24
868.412	81.92
868.585	49.15
868.759	-43.01
868.932	8.19
869.105	-92.16
869.279	-22.53
869.452	-43.01
869.625	51.2
869.799	32.77
869.972	-131.07
870.145	-24.58
870.319	67.58
870.492	-10.24
870.665	32.77
870.838	-34.82
871.011	-153.6
871.185	-34.82
871.358	-26.62
871.531	-0
871.704	-59.39
871.877	12.29
872.05	34.82
872.223	-47.1
872.396	104.45
872.569	92.16
872.742	-92.16
872.915	24.58
873.088	28.67
873.261	-20.48
873.434	81.92
873.607	-6.14
873.78	57.34
873.953	-65.54
874.126	18.43
874.299	18.43
874.471	-49.15
874.644	-100.35
874.817	83.97
874.99	194.56
875.163	-79.87
875.335	34.82
875.508	45.06
875.681	22.53
875.853	-4.1
876.026	16.38
876.199	75.77
876.371	-12.29
876.544	12.29
876.717	-36.86
876.889	-75.77
877.062	38.91
877.234	-47.1
877.407	-2.05
877.579	-12.29
877.752	-40.96
877.924	10.24
878.097	-18.43
878.269	47.1
878.442	18.43
878.614	4.1
878.786	-16.38
878.959	-18.43
879.131	53.25
879.303	-157.69
879.476	59.39
879.648	75.77
879.82	12.29
879.993	-55.3
880.165	-4.1
880.337	-165.89
880.509	36.86
880.681	-86.01
880.854	-67.58
881.026	45.06
881.198	174.08
881.37	-14.34
881.542	-43.01
881.714	-38.91
881.886	6.14
882.058	-10.24
882.23	6.14
882.402	-38.91
882.574	14.34
882.746	90.11
882.918	-6.14
883.09	-10.24
883.262	12.29
883.434	-4.1
883.606	-71.68
883.778	-6.14
883.95	92.16
884.122	-77.82
884.293	92.16
884.465	36.86
884.637	75.77
884.809	-51.2
884.98	81.92
885.152	14.34
885.324	55.3
885.496	-47.1
885.667	-4.1
885.839	-88.06
886.011	155.65
886.182	-24.58
886.354	24.58
886.525	22.53
886.697	-43.01
886.869	-20.48
887.04	63.49
887.212	73.73
887.383	133.12
887.555	69.63
887.726	-14.34
887.897	-104.45
888.069	10.24
888.24	106.49
888.412	-12.29
888.583	-34.82
888.754	-16.38
888.926	-71.68
889.097	-38.91
889.268	-30.72
889.44	6.14
889.611	-118.78
889.782	-79.87
889.953	-43.01
890.125	59.39
890.296	-63.49
890.467	-20.48
890.638	-28.67
890.809	24.58
890.98	-36.86
891.151	-28.67
891.323	55.3
891.494	16.38
891.665	-24.58
891.836	2.05
892.007	-14.34
892.178	53.25
892.349	-30.72
892.52	-38.91
892.691	8.19
892.862	-81.92
893.032	-10.24
893.203	-28.67
893.374	96.25
893.545	100.35
893.716	-24.58
893.887	24.58
894.057	-8.19
894.228	8.19
894.399	-20.48
894.57	94.21
894.74	16.38
894.911	51.2
895.082	-6.14
895.253	-20.48
895.423	-34.82
895.594	26.62
895.764	69.63
895.935	-90.11
896.106	26.62
896.276	-90.11
896.447	2.05
896.617	-40.96
896.788	-47.1
896.958	-18.43
897.129	-26.62
897.299	-81.92
897.47	69.63
897.64	22.53
897.81	-22.53
897.981	55.3
898.151	-38.91
898.322	-57.34
898.492	49.15
898.662	-98.3
898.832	-100.35
899.003	26.62
899.173	102.4
899.343	-61.44
899.513	-102.4
