Data from USB4F104151__36__10-42-34-882.txt Node

Date: Wed Feb 26 10:42:34 EST 2025
User: louis
Spectrometer: USB4F10415
Trigger mode: 4
Integration Time (sec): 1.000000E-1
Scans to average: 1
Electric dark correction enabled: true
Nonlinearity correction enabled: false
Boxcar width: 0
XAxis mode: Wavelengths
Number of Pixels in Spectrum: 3648
>>>>>Begin Spectral Data<<<<<
178.204	-360.27
178.424	-360.27
178.644	-360.27
178.864	-454.48
179.084	-403.28
179.304	-51.03
179.524	12.46
179.744	-18.26
179.964	10.41
180.184	53.42
180.404	16.55
180.624	-20.31
180.844	-26.45
181.064	-79.7
181.283	45.23
181.503	-16.21
181.723	73.9
181.943	-34.64
182.163	135.34
182.383	-3.93
182.602	86.19
182.822	80.04
183.042	24.75
183.262	-1.88
183.482	-14.17
183.701	8.36
183.921	57.51
184.141	12.46
184.361	114.86
184.58	32.94
184.8	166.06
185.02	0.17
185.239	108.71
185.459	43.18
185.679	123.05
185.898	-51.03
186.118	92.33
186.338	77.99
186.557	73.9
186.777	-94.04
186.997	4.27
187.216	34.99
187.436	94.38
187.655	88.23
187.875	59.56
188.095	26.79
188.314	92.33
188.534	112.81
188.753	22.7
188.973	118.95
189.192	143.53
189.412	94.38
189.631	37.03
189.851	100.52
190.07	192.68
190.29	4.27
190.509	-12.12
190.729	-24.4
190.948	106.67
191.168	227.5
191.387	88.23
191.607	22.7
191.826	96.43
192.045	65.71
192.265	-26.45
192.484	53.42
192.704	61.61
192.923	-40.79
193.142	153.77
193.362	80.04
193.581	135.34
193.8	41.13
194.02	43.18
194.239	45.23
194.458	-34.64
194.678	-12.12
194.897	-34.64
195.116	71.85
195.335	80.04
195.555	-8.02
195.774	-3.93
195.993	45.23
196.212	39.08
196.432	-18.26
196.651	-38.74
196.87	41.13
197.089	213.16
197.308	102.57
197.528	20.65
197.747	-71.51
197.966	55.47
198.185	143.53
198.404	-53.08
198.623	63.66
198.842	108.71
199.062	96.43
199.281	37.03
199.5	63.66
199.719	90.28
199.938	59.56
200.157	71.85
200.376	59.56
200.595	116.9
200.814	57.51
201.033	30.89
201.252	192.68
201.471	106.67
201.69	63.66
201.909	55.47
202.128	139.43
202.347	47.27
202.566	30.89
202.785	-73.56
203.004	-67.41
203.223	252.07
203.442	57.51
203.661	-28.5
203.879	43.18
204.098	127.14
204.317	-61.27
204.536	86.19
204.755	61.61
204.974	123.05
205.193	-128.85
205.411	131.24
205.63	80.04
205.849	104.62
206.068	0.17
206.287	-8.02
206.505	137.38
206.724	-34.64
206.943	-22.36
207.162	-57.17
207.381	110.76
207.599	-10.07
207.818	-18.26
208.037	10.41
208.255	59.56
208.474	24.75
208.693	-53.08
208.911	10.41
209.13	63.66
209.349	98.47
209.567	106.67
209.786	121
210.005	61.61
210.223	51.37
210.442	-65.36
210.661	43.18
210.879	63.66
211.098	94.38
211.316	59.56
211.535	139.43
211.753	137.38
211.972	67.75
212.191	-53.08
212.409	4.27
212.628	65.71
212.846	-8.02
213.065	47.27
213.283	67.75
213.502	-40.79
213.72	8.36
213.938	10.41
214.157	-75.6
214.375	118.95
214.594	-5.97
214.812	57.51
215.031	77.99
215.249	22.7
215.467	-5.97
215.686	32.94
215.904	121
216.122	-24.4
216.341	59.56
216.559	45.23
216.778	104.62
216.996	90.28
217.214	-24.4
217.432	6.31
217.651	-48.98
217.869	-14.17
218.087	71.85
218.306	12.46
218.524	47.27
218.742	-22.36
218.96	112.81
219.179	10.41
219.397	10.41
219.615	237.74
219.833	108.71
220.051	-30.55
220.27	116.9
220.488	131.24
220.706	75.95
220.924	12.46
221.142	28.84
221.36	26.79
221.578	49.32
221.796	30.89
222.015	53.42
222.233	47.27
222.451	125.1
222.669	-46.93
222.887	73.9
223.105	-20.31
223.323	8.36
223.541	-137.04
223.759	39.08
223.977	92.33
224.195	204.97
224.413	61.61
224.631	8.36
224.849	98.47
225.067	186.54
225.285	-22.36
225.503	69.8
225.721	-112.47
225.939	-5.97
226.157	71.85
226.375	131.24
226.592	-53.08
226.81	43.18
227.028	125.1
227.246	213.16
227.464	73.9
227.682	116.9
227.9	137.38
228.117	8.36
228.335	104.62
228.553	32.94
228.771	-85.84
228.989	98.47
229.206	73.9
229.424	0.17
229.642	6.31
229.86	-63.32
230.077	88.23
230.295	67.75
230.513	67.75
230.731	12.46
230.948	137.38
231.166	106.67
231.384	-12.12
231.601	-104.28
231.819	186.54
232.037	71.85
232.254	-91.99
232.472	84.14
232.689	18.6
232.907	143.53
233.125	-14.17
233.342	-53.08
233.56	-112.47
233.777	22.7
233.995	18.6
234.213	63.66
234.43	57.51
234.648	32.94
234.865	32.94
235.083	86.19
235.3	34.99
235.518	61.61
235.735	147.62
235.953	47.27
236.17	45.23
236.388	-10.07
236.605	28.84
236.822	73.9
237.04	32.94
237.257	39.08
237.475	-57.17
237.692	-10.07
237.909	121
238.127	34.99
238.344	82.09
238.562	100.52
238.779	-28.5
238.996	14.51
239.214	4.27
239.431	100.52
239.648	16.55
239.865	45.23
240.083	82.09
240.3	-63.32
240.517	-36.69
240.735	90.28
240.952	164.01
241.169	102.57
241.386	6.31
241.603	-53.08
241.821	-81.75
242.038	71.85
242.255	96.43
242.472	-57.17
242.689	127.14
242.907	112.81
243.124	127.14
243.341	18.6
243.558	-32.6
243.775	-18.26
243.992	20.65
244.209	45.23
244.426	176.3
244.643	28.84
244.86	43.18
245.078	108.71
245.295	61.61
245.512	63.66
245.729	-8.02
245.946	108.71
246.163	32.94
246.38	41.13
246.597	43.18
246.814	32.94
247.031	43.18
247.248	-51.03
247.464	63.66
247.681	65.71
247.898	57.51
248.115	129.19
248.332	-26.45
248.549	252.07
248.766	241.83
248.983	90.28
249.2	61.61
249.417	135.34
249.633	8.36
249.85	34.99
250.067	47.27
250.284	47.27
250.501	135.34
250.717	49.32
250.934	-10.07
251.151	0.17
251.368	2.22
251.585	73.9
251.801	59.56
252.018	-8.02
252.235	139.43
252.451	-114.52
252.668	20.65
252.885	155.82
253.102	94.38
253.318	67.75
253.535	8.36
253.752	37.03
253.968	14.51
254.185	-28.5
254.401	26.79
254.618	61.61
254.835	-53.08
255.051	131.24
255.268	123.05
255.484	28.84
255.701	34.99
255.917	32.94
256.134	20.65
256.351	-40.79
256.567	-14.17
256.784	-16.21
257	-32.6
257.217	104.62
257.433	143.53
257.65	49.32
257.866	133.29
258.082	-42.84
258.299	-3.93
258.515	84.14
258.732	47.27
258.948	-46.93
259.165	-8.02
259.381	-94.04
259.597	80.04
259.814	49.32
260.03	-36.69
260.246	49.32
260.463	73.9
260.679	139.43
260.895	-42.84
261.112	86.19
261.328	37.03
261.544	55.47
261.761	159.91
261.977	22.7
262.193	-5.97
262.409	108.71
262.626	26.79
262.842	28.84
263.058	-3.93
263.274	77.99
263.49	-28.5
263.707	94.38
263.923	67.75
264.139	-102.23
264.355	65.71
264.571	59.56
264.787	96.43
265.004	82.09
265.22	26.79
265.436	0.17
265.652	0.17
265.868	6.31
266.084	-118.61
266.3	34.99
266.516	-16.21
266.732	-5.97
266.948	45.23
267.164	28.84
267.38	75.95
267.596	59.56
267.812	190.63
268.028	30.89
268.244	39.08
268.46	53.42
268.676	-24.4
268.892	77.99
269.108	-20.31
269.324	-28.5
269.54	-26.45
269.756	137.38
269.972	4.27
270.188	8.36
270.403	-42.84
270.619	4.27
270.835	82.09
271.051	24.75
271.267	10.41
271.483	49.32
271.698	108.71
271.914	96.43
272.13	80.04
272.346	-14.17
272.562	73.9
272.777	43.18
272.993	-1.88
273.209	-3.93
273.425	22.7
273.64	-42.84
273.856	82.09
274.072	-22.36
274.287	-53.08
274.503	22.7
274.719	69.8
274.934	-10.07
275.15	-18.26
275.366	98.47
275.581	-12.12
275.797	69.8
276.012	37.03
276.228	-32.6
276.444	55.47
276.659	125.1
276.875	14.51
277.09	45.23
277.306	10.41
277.521	80.04
277.737	14.51
277.952	45.23
278.168	43.18
278.383	10.41
278.599	47.27
278.814	37.03
279.03	6.31
279.245	114.86
279.461	16.55
279.676	98.47
279.892	18.6
280.107	41.13
280.322	-98.13
280.538	80.04
280.753	16.55
280.969	49.32
281.184	59.56
281.399	133.29
281.615	32.94
281.83	37.03
282.045	0.17
282.26	-12.12
282.476	69.8
282.691	84.14
282.906	94.38
283.122	73.9
283.337	-12.12
283.552	65.71
283.767	-34.64
283.983	106.67
284.198	-1.88
284.413	104.62
284.628	-38.74
284.843	77.99
285.058	90.28
285.274	47.27
285.489	-34.64
285.704	114.86
285.919	-5.97
286.134	90.28
286.349	26.79
286.564	-53.08
286.779	106.67
286.995	49.32
287.21	-20.31
287.425	10.41
287.64	-3.93
287.855	61.61
288.07	-46.93
288.285	182.44
288.5	59.56
288.715	24.75
288.93	112.81
289.145	-28.5
289.36	100.52
289.575	-38.74
289.79	108.71
290.004	6.31
290.219	57.51
290.434	-38.74
290.649	-3.93
290.864	32.94
291.079	34.99
291.294	51.37
291.509	112.81
291.724	14.51
291.938	65.71
292.153	41.13
292.368	-28.5
292.583	32.94
292.798	67.75
293.012	55.47
293.227	108.71
293.442	10.41
293.657	114.86
293.871	215.21
294.086	71.85
294.301	184.49
294.516	127.14
294.73	57.51
294.945	-1.88
295.16	110.76
295.374	131.24
295.589	127.14
295.804	8.36
296.018	65.71
296.233	151.72
296.447	59.56
296.662	8.36
296.877	204.97
297.091	4.27
297.306	77.99
297.52	41.13
297.735	125.1
297.949	61.61
298.164	53.42
298.378	37.03
298.593	47.27
298.807	43.18
299.022	41.13
299.236	186.54
299.451	-22.36
299.665	20.65
299.88	65.71
300.094	63.66
300.309	53.42
300.523	2.22
300.737	18.6
300.952	51.37
301.166	127.14
301.381	24.75
301.595	-1.88
301.809	47.27
302.024	-81.75
302.238	14.51
302.452	55.47
302.667	94.38
302.881	139.43
303.095	106.67
303.309	67.75
303.524	24.75
303.738	16.55
303.952	-14.17
304.166	104.62
304.381	-87.89
304.595	98.47
304.809	-5.97
305.023	71.85
305.237	8.36
305.452	114.86
305.666	53.42
305.88	51.37
306.094	157.86
306.308	34.99
306.522	110.76
306.736	80.04
306.95	67.75
307.164	32.94
307.379	30.89
307.593	164.01
307.807	92.33
308.021	59.56
308.235	43.18
308.449	-28.5
308.663	-16.21
308.877	186.54
309.091	92.33
309.305	59.56
309.519	-126.8
309.733	84.14
309.947	-81.75
310.161	151.72
310.374	131.24
310.588	63.66
310.802	49.32
311.016	12.46
311.23	53.42
311.444	-1.88
311.658	-12.12
311.872	131.24
312.085	168.1
312.299	114.86
312.513	192.68
312.727	67.75
312.941	32.94
313.154	59.56
313.368	55.47
313.582	147.62
313.796	73.9
314.009	8.36
314.223	219.3
314.437	84.14
314.651	41.13
314.864	39.08
315.078	12.46
315.292	-59.22
315.505	12.46
315.719	61.61
315.933	53.42
316.146	14.51
316.36	-10.07
316.573	141.48
316.787	90.28
317.001	90.28
317.214	-116.56
317.428	90.28
317.641	-65.36
317.855	-8.02
318.068	45.23
318.282	80.04
318.495	108.71
318.709	69.8
318.922	51.37
319.136	129.19
319.349	57.51
319.563	24.75
319.776	24.75
319.99	-14.17
320.203	59.56
320.417	47.27
320.63	65.71
320.843	264.36
321.057	26.79
321.27	16.55
321.483	71.85
321.697	123.05
321.91	61.61
322.124	18.6
322.337	80.04
322.55	30.89
322.763	22.7
322.977	2.22
323.19	73.9
323.403	57.51
323.617	90.28
323.83	49.32
324.043	20.65
324.256	-20.31
324.469	-55.12
324.683	125.1
324.896	73.9
325.109	100.52
325.322	41.13
325.535	147.62
325.748	102.57
325.962	28.84
326.175	14.51
326.388	112.81
326.601	112.81
326.814	6.31
327.027	53.42
327.24	84.14
327.453	-53.08
327.666	123.05
327.879	102.57
328.092	123.05
328.305	57.51
328.518	-18.26
328.731	22.7
328.944	41.13
329.157	53.42
329.37	-40.79
329.583	250.02
329.796	116.9
330.009	-46.93
330.222	121
330.435	96.43
330.648	-16.21
330.861	61.61
331.073	30.89
331.286	129.19
331.499	133.29
331.712	-28.5
331.925	37.03
332.138	-20.31
332.35	65.71
332.563	-112.47
332.776	135.34
332.989	-59.22
333.202	108.71
333.414	2.22
333.627	-5.97
333.84	20.65
334.053	24.75
334.265	20.65
334.478	-40.79
334.691	98.47
334.903	57.51
335.116	59.56
335.329	-63.32
335.541	82.09
335.754	137.38
335.966	-3.93
336.179	41.13
336.392	67.75
336.604	71.85
336.817	94.38
337.029	80.04
337.242	28.84
337.454	141.48
337.667	-44.88
337.88	174.25
338.092	127.14
338.305	82.09
338.517	-8.02
338.729	151.72
338.942	90.28
339.154	-26.45
339.367	-44.88
339.579	75.95
339.792	-48.98
340.004	82.09
340.217	59.56
340.429	131.24
340.641	-1.88
340.854	-36.69
341.066	2.22
341.278	116.9
341.491	131.24
341.703	8.36
341.915	12.46
342.128	86.19
342.34	43.18
342.552	18.6
342.764	80.04
342.977	-1.88
343.189	94.38
343.401	63.66
343.613	-71.51
343.826	32.94
344.038	-71.51
344.25	0.17
344.462	-3.93
344.674	53.42
344.886	28.84
345.099	129.19
345.311	39.08
345.523	-18.26
345.735	-106.32
345.947	8.36
346.159	53.42
346.371	71.85
346.583	6.31
346.795	155.82
347.007	61.61
347.219	82.09
347.431	26.79
347.643	143.53
347.855	12.46
348.067	88.23
348.279	-36.69
348.491	47.27
348.703	26.79
348.915	65.71
349.127	-42.84
349.339	43.18
349.551	32.94
349.763	108.71
349.975	84.14
350.187	73.9
350.399	98.47
350.61	49.32
350.822	-42.84
351.034	88.23
351.246	10.41
351.458	71.85
351.669	41.13
351.881	112.81
352.093	104.62
352.305	108.71
352.517	30.89
352.728	176.3
352.94	110.76
353.152	80.04
353.363	-20.31
353.575	43.18
353.787	161.96
353.999	84.14
354.21	106.67
354.422	-24.4
354.633	-8.02
354.845	8.36
355.057	100.52
355.268	61.61
355.48	82.09
355.692	2.22
355.903	24.75
356.115	2.22
356.326	-106.32
356.538	145.58
356.749	34.99
356.961	63.66
357.172	20.65
357.384	-24.4
357.595	180.39
357.807	14.51
358.018	18.6
358.23	55.47
358.441	184.49
358.653	159.91
358.864	69.8
359.075	-75.6
359.287	82.09
359.498	139.43
359.709	73.9
359.921	2.22
360.132	67.75
360.344	16.55
360.555	59.56
360.766	59.56
360.977	-28.5
361.189	82.09
361.4	28.84
361.611	143.53
361.823	112.81
362.034	80.04
362.245	-73.56
362.456	32.94
362.667	45.23
362.879	-16.21
363.09	57.51
363.301	75.95
363.512	67.75
363.723	24.75
363.935	39.08
364.146	73.9
364.357	37.03
364.568	69.8
364.779	-36.69
364.99	170.15
365.201	-28.5
365.412	92.33
365.623	-67.41
365.834	67.75
366.045	24.75
366.256	65.71
366.467	86.19
366.678	22.7
366.889	65.71
367.1	-42.84
367.311	106.67
367.522	-34.64
367.733	63.66
367.944	34.99
368.155	59.56
368.366	123.05
368.577	98.47
368.788	67.75
368.999	-67.41
369.209	69.8
369.42	153.77
369.631	215.21
369.842	80.04
370.053	39.08
370.264	47.27
370.474	-42.84
370.685	80.04
370.896	53.42
371.107	100.52
371.317	2.22
371.528	28.84
371.739	112.81
371.95	188.58
372.16	116.9
372.371	80.04
372.582	26.79
372.792	37.03
373.003	71.85
373.214	127.14
373.424	116.9
373.635	-42.84
373.846	186.54
374.056	69.8
374.267	125.1
374.477	73.9
374.688	-8.02
374.898	69.8
375.109	73.9
375.319	12.46
375.53	129.19
375.74	94.38
375.951	77.99
376.161	63.66
376.372	86.19
376.582	75.95
376.793	121
377.003	-10.07
377.214	-22.36
377.424	16.55
377.635	49.32
377.845	12.46
378.055	196.78
378.266	2.22
378.476	8.36
378.686	59.56
378.897	61.61
379.107	102.57
379.317	57.51
379.528	28.84
379.738	127.14
379.948	-75.6
380.158	106.67
380.369	-67.41
380.579	57.51
380.789	45.23
380.999	80.04
381.21	71.85
381.42	170.15
381.63	-12.12
381.84	108.71
382.05	43.18
382.261	10.41
382.471	30.89
382.681	-34.64
382.891	159.91
383.101	131.24
383.311	2.22
383.521	8.36
383.731	88.23
383.941	131.24
384.151	121
384.361	10.41
384.571	114.86
384.781	18.6
384.991	159.91
385.201	164.01
385.411	139.43
385.621	73.9
385.831	43.18
386.041	118.95
386.251	-8.02
386.461	131.24
386.671	-48.98
386.881	53.42
387.091	2.22
387.301	80.04
387.511	32.94
387.72	118.95
387.93	82.09
388.14	-77.65
388.35	-5.97
388.56	110.76
388.769	127.14
388.979	73.9
389.189	8.36
389.399	-1.88
389.609	168.1
389.818	59.56
390.028	51.37
390.238	88.23
390.447	-30.55
390.657	110.76
390.867	108.71
391.076	-36.69
391.286	121
391.496	49.32
391.705	164.01
391.915	88.23
392.125	149.67
392.334	-28.5
392.544	114.86
392.753	49.32
392.963	4.27
393.172	20.65
393.382	16.55
393.591	229.54
393.801	67.75
394.01	112.81
394.22	49.32
394.429	-42.84
394.639	71.85
394.848	28.84
395.058	51.37
395.267	12.46
395.477	86.19
395.686	96.43
395.895	155.82
396.105	186.54
396.314	6.31
396.524	84.14
396.733	14.51
396.942	67.75
397.152	118.95
397.361	80.04
397.57	92.33
397.78	80.04
397.989	71.85
398.198	229.54
398.407	47.27
398.617	45.23
398.826	69.8
399.035	63.66
399.244	159.91
399.453	-5.97
399.663	96.43
399.872	28.84
400.081	47.27
400.29	145.58
400.499	-16.21
400.708	43.18
400.917	12.46
401.127	71.85
401.336	-5.97
401.545	137.38
401.754	110.76
401.963	168.1
402.172	18.6
402.381	14.51
402.59	77.99
402.799	47.27
403.008	143.53
403.217	47.27
403.426	67.75
403.635	-34.64
403.844	53.42
404.053	2.22
404.262	-3.93
404.471	186.54
404.68	69.8
404.888	82.09
405.097	-14.17
405.306	-24.4
405.515	131.24
405.724	14.51
405.933	110.76
406.142	57.51
406.35	80.04
406.559	18.6
406.768	16.55
406.977	135.34
407.185	102.57
407.394	127.14
407.603	16.55
407.812	47.27
408.02	137.38
408.229	39.08
408.438	94.38
408.646	39.08
408.855	61.61
409.064	96.43
409.272	-8.02
409.481	188.58
409.69	0.17
409.898	-73.56
410.107	61.61
410.315	121
410.524	6.31
410.733	67.75
410.941	39.08
411.15	96.43
411.358	94.38
411.567	245.93
411.775	4.27
411.984	147.62
412.192	67.75
412.401	-26.45
412.609	270.5
412.818	123.05
413.026	84.14
413.234	51.37
413.443	90.28
413.651	0.17
413.86	28.84
414.068	104.62
414.276	164.01
414.485	45.23
414.693	159.91
414.901	174.25
415.11	63.66
415.318	53.42
415.526	86.19
415.734	125.1
415.943	104.62
416.151	121
416.359	67.75
416.567	82.09
416.776	118.95
416.984	73.9
417.192	235.69
417.4	-24.4
417.608	41.13
417.817	6.31
418.025	127.14
418.233	241.83
418.441	-69.46
418.649	-26.45
418.857	65.71
419.065	22.7
419.273	94.38
419.481	92.33
419.689	86.19
419.897	92.33
420.105	-40.79
420.313	129.19
420.521	57.51
420.729	135.34
420.937	61.61
421.145	34.99
421.353	49.32
421.561	82.09
421.769	153.77
421.977	63.66
422.185	102.57
422.393	82.09
422.601	139.43
422.809	63.66
423.017	96.43
423.224	24.75
423.432	172.2
423.64	71.85
423.848	69.8
424.056	-10.07
424.263	143.53
424.471	22.7
424.679	166.06
424.887	69.8
425.094	190.63
425.302	43.18
425.51	86.19
425.718	143.53
425.925	57.51
426.133	-8.02
426.341	170.15
426.548	51.37
426.756	100.52
426.964	137.38
427.171	8.36
427.379	67.75
427.586	69.8
427.794	157.86
428.001	202.92
428.209	131.24
428.417	190.63
428.624	188.58
428.832	43.18
429.039	84.14
429.247	59.56
429.454	143.53
429.662	235.69
429.869	110.76
430.076	161.96
430.284	182.44
430.491	209.06
430.699	180.39
430.906	204.97
431.114	69.8
431.321	174.25
431.528	178.34
431.736	219.3
431.943	290.98
432.15	227.5
432.358	264.36
432.565	301.22
432.772	73.9
432.979	225.45
433.187	174.25
433.394	194.73
433.601	231.59
433.808	213.16
434.016	278.69
434.223	231.59
434.43	252.07
434.637	379.04
434.844	270.5
435.052	344.23
435.259	344.23
435.466	366.76
435.673	323.75
435.88	405.67
436.087	428.2
436.294	460.96
436.501	381.09
436.708	379.04
436.915	358.57
437.122	508.07
437.329	331.94
437.537	385.19
437.743	413.86
437.95	538.79
438.157	487.59
438.364	475.3
438.571	473.25
438.778	585.89
438.985	577.7
439.192	549.03
439.399	561.31
439.606	587.94
439.813	673.95
440.02	741.54
440.227	671.9
440.433	661.66
440.64	651.42
440.847	680.1
441.054	755.87
441.261	829.6
441.467	764.06
441.674	733.34
441.881	827.55
442.088	880.8
442.294	983.2
442.501	981.15
442.708	964.76
442.914	927.9
443.121	1140.89
443.328	1108.12
443.534	1142.94
443.741	1149.08
443.948	977.05
444.154	1271.96
444.361	1409.17
444.568	1177.75
444.774	1351.83
444.981	1304.73
445.187	1507.48
445.394	1446.04
445.6	1456.28
445.807	1728.66
446.013	1663.12
446.22	1589.39
446.426	1800.34
446.633	1941.65
446.839	2076.81
447.046	1884.3
447.252	2058.38
447.459	2007.18
447.665	1974.41
447.871	2398.34
448.078	2449.54
448.284	2447.49
448.491	2529.41
448.697	2713.73
448.903	2769.02
449.11	2738.3
449.316	2785.41
449.522	2996.35
449.728	3057.79
449.935	3199.1
450.141	3371.13
450.347	3403.89
450.553	3430.52
450.76	3534.96
450.966	3631.22
451.172	3960.94
451.378	4180.07
451.584	4016.24
451.791	4251.75
451.997	4524.13
452.203	4677.73
452.409	4683.88
452.615	4862.05
452.821	4843.62
453.027	5118.04
453.233	5644.37
453.44	5402.71
453.646	5763.15
453.852	5886.03
454.058	6213.71
454.264	6383.69
454.47	6922.31
454.676	6811.71
454.882	7630.9
455.088	7266.36
455.294	7632.95
455.5	8085.55
455.705	8478.76
455.911	8382.51
456.117	8667.17
456.323	8806.44
456.529	8882.21
456.735	9924.63
456.941	10176.53
457.147	10594.31
457.352	10784.77
457.558	11034.63
457.764	11640.83
457.97	12074.99
458.176	12554.22
458.381	13189.09
458.587	13453.28
458.793	13885.4
458.999	14249.94
459.204	15884.22
459.41	16648.11
459.616	16054.2
459.821	16988.07
460.027	17860.51
460.233	18708.37
460.438	18509.71
460.644	19675.01
460.85	20457.33
461.055	20658.03
461.261	21985.12
461.466	21421.92
461.672	21663.58
461.878	24381.24
462.083	23967.55
462.289	24596.28
462.494	25650.98
462.7	25909.02
462.905	25970.46
463.111	28456.7
463.316	29677.29
463.522	30207.71
463.727	31035.09
463.932	32253.63
464.138	33060.53
464.343	34522.78
464.549	34625.18
464.754	37402.22
464.959	38190.69
465.165	38987.35
465.37	38456.93
465.575	38762.08
465.781	41086.52
465.986	42421.8
466.191	41735.73
466.397	42145.32
466.602	40969.79
466.807	43607.57
467.012	44011.02
467.218	44846.59
467.423	44928.51
467.628	46413.29
467.833	48422.34
468.038	48076.24
468.244	46740.96
468.449	49706.42
468.654	48424.39
468.859	48448.97
469.064	48299.47
469.269	47162.84
469.474	47850.96
469.679	48776.64
469.885	47803.86
470.09	48399.82
470.295	48371.14
470.5	47533.53
470.705	48367.05
470.91	46192.11
471.115	46460.39
471.32	47222.23
471.525	46613.99
471.73	45164.03
471.935	45149.69
472.139	43382.29
472.344	43370
472.549	43142.68
472.754	42239.53
472.959	41524.79
473.164	39947.85
473.369	39265.88
473.574	40642.11
473.778	39611.98
473.983	39194.2
474.188	38737.5
474.393	36742.78
474.598	36671.1
474.802	35745.42
475.007	34999.96
475.212	34692.76
475.417	33576.62
475.621	33453.74
475.826	32962.23
476.031	32329.41
476.235	31532.75
476.44	31475.4
476.645	30475.99
476.849	30303.96
477.054	30080.74
477.259	29284.08
477.463	29193.97
477.668	28088.06
477.872	28430.07
478.077	27547.4
478.282	26713.88
478.486	26492.69
478.691	26214.17
478.895	26191.64
479.1	26019.61
479.304	25540.39
479.509	24799.02
479.713	25265.96
479.918	24948.53
480.122	24143.67
480.326	23891.77
480.531	24223.55
480.735	23818.05
480.94	23643.97
481.144	24368.95
481.348	22992.72
481.553	23428.93
481.757	22277.97
481.961	22871.89
482.166	22939.47
482.37	22576.98
482.574	22173.53
482.778	22155.1
482.983	21854.05
483.187	22069.08
483.391	21890.91
483.595	21370.72
483.8	20803.44
484.004	21034.86
484.208	21000.04
484.412	20694.89
484.616	20467.57
484.821	20375.41
485.025	19492.74
485.229	19797.88
485.433	19193.73
485.637	19380.1
485.841	18976.65
486.045	18970.51
486.249	18710.41
486.453	18143.13
486.657	18169.75
486.861	17848.22
487.065	17217.44
487.269	17438.62
487.473	16619.44
487.677	17117.09
487.881	16908.2
488.085	16316.34
488.289	16111.54
488.493	15562.69
488.697	15482.81
488.901	15210.43
489.105	14897.1
489.309	14690.25
489.512	14540.75
489.716	14104.53
489.92	13815.77
490.124	13453.28
490.328	13752.28
490.531	13363.17
490.735	13015.01
490.939	12802.02
491.143	12543.98
491.346	12347.37
491.55	12251.12
491.754	12306.41
491.958	11683.83
492.161	11597.82
492.365	11507.71
492.569	11102.21
492.772	10967.04
492.976	10958.85
493.18	10825.73
493.383	10745.86
493.587	10729.48
493.79	10610.7
493.994	10035.22
494.197	10119.18
494.401	10147.86
494.605	10024.98
494.808	9986.07
495.012	9805.85
495.215	9889.81
495.419	9887.76
495.622	9515.03
495.825	9457.69
496.029	9314.33
496.232	9482.27
496.436	9381.92
496.639	9627.67
496.843	9207.84
497.046	9666.58
497.249	9742.36
497.453	9363.48
497.656	9170.97
497.859	9349.15
498.063	9525.27
498.266	9381.92
498.469	9263.13
498.673	9363.48
498.876	9328.67
499.079	9326.62
499.282	9386.01
499.485	9707.54
499.689	9508.89
499.892	9642.01
500.095	9779.22
500.298	9725.97
500.501	9635.86
500.705	9977.87
500.908	10092.56
501.111	10029.07
501.314	10291.21
501.517	10301.45
501.72	10190.86
501.923	10211.34
502.126	10229.77
502.329	10702.86
502.532	10840.07
502.735	10891.27
502.938	11016.19
503.141	11036.67
503.344	11153.41
503.547	11298.81
503.75	11466.75
503.953	11501.56
504.156	11726.84
504.359	12128.24
504.562	11802.61
504.765	12341.23
504.968	12343.28
505.17	12617.71
505.373	12675.05
505.576	12912.61
505.779	12969.96
505.982	13273.06
506.185	13438.94
506.387	13737.95
506.59	13942.74
506.793	14378.96
506.996	14346.19
507.198	15065.03
507.401	15062.98
507.604	15222.72
507.807	15837.11
508.009	15937.46
508.212	16263.09
508.415	16412.59
508.617	16869.29
508.82	17199.01
509.022	17274.79
509.225	17944.47
509.428	18401.17
509.63	18333.59
509.833	18612.11
510.035	19545.98
510.238	19890.04
510.44	20160.38
510.643	20686.7
510.845	21213.03
511.048	20950.89
511.25	21911.39
511.453	22480.72
511.655	23299.91
511.858	23504.71
512.06	24045.37
512.262	24205.11
512.465	24788.78
512.667	25456.42
512.87	26013.47
513.072	26560.28
513.274	27119.37
513.477	27471.62
513.679	28245.76
513.881	28804.85
514.084	29830.88
514.286	30082.78
514.488	30473.95
514.69	31590.09
514.893	32184
515.095	32607.93
515.297	33617.58
515.499	33978.02
515.701	34868.89
515.904	35282.58
516.106	36286.08
516.308	37027.45
516.51	37676.65
516.712	38288.99
516.914	38753.88
517.116	40054.34
517.318	40007.24
517.52	41289.27
517.722	41682.48
517.925	42477.09
518.127	43216.41
518.329	44103.18
518.531	44037.64
518.733	45438.45
518.935	45948.4
519.136	46208.49
519.338	47822.29
519.54	48457.16
519.742	49046.97
519.944	49233.34
520.146	50466.22
520.348	50961.83
520.55	51230.11
520.752	52053.39
520.954	52690.31
521.155	52962.69
521.357	54029.68
521.559	54078.83
521.761	55330.14
521.963	55375.2
522.164	55876.95
522.366	56194.39
522.568	56833.35
522.77	57161.03
522.971	58004.79
523.173	57691.45
523.375	58633.52
523.576	58426.67
523.778	58332.46
523.98	58987.81
524.181	59249.95
524.383	59555.1
524.584	59995.42
524.786	59827.48
524.988	59274.53
525.189	60278.03
525.391	59936.02
525.592	60462.35
525.794	60124.44
525.995	59983.13
526.197	60437.78
526.398	59659.55
526.6	59774.23
526.801	59983.13
527.003	59632.92
527.204	59802.91
527.406	59579.68
527.607	59209
527.808	59364.64
528.01	58260.79
528.211	58070.32
528.412	58627.37
528.614	57992.5
528.815	57836.86
529.016	57759.03
529.218	56528.2
529.419	56198.48
529.62	55633.24
529.822	55358.81
530.023	54916.45
530.224	54449.52
530.425	54054.26
530.626	53130.62
530.828	52110.74
531.029	52893.06
531.23	51365.27
531.431	50859.43
531.632	50562.47
531.833	50216.36
532.035	49825.2
532.236	48846.27
532.437	48862.66
532.638	47859.15
532.839	47691.22
533.04	47005.15
533.241	45995.5
533.442	46091.76
533.643	45184.51
533.844	44494.34
534.045	43755.02
534.246	43234.84
534.447	43193.88
534.648	41707.05
534.849	41975.34
535.05	41195.06
535.251	40779.32
535.451	40244.8
535.652	39767.63
535.853	39040.6
536.054	38809.18
536.255	38028.9
536.456	37207.67
536.657	37611.12
536.857	36722.3
537.058	35913.35
537.259	35620.49
537.46	35321.49
537.66	34789.02
537.861	34174.63
538.062	33805.99
538.263	33289.9
538.463	32810.68
538.664	32081.6
538.865	32329.41
539.065	32155.33
539.266	31119.06
539.466	31286.99
539.667	30574.3
539.868	30271.2
540.068	30146.27
540.269	29550.31
540.469	29443.82
540.67	28909.3
540.87	28743.41
541.071	28090.11
541.271	28114.69
541.472	27639.56
541.672	27086.61
541.873	26818.32
542.073	26629.91
542.274	26335
542.474	26244.89
542.675	25599.78
542.875	25497.38
543.075	25050.92
543.276	24395.57
543.476	24579.89
543.676	24362.81
543.877	24203.07
544.077	23861.05
544.277	23691.07
544.478	23377.73
544.678	23027.53
544.878	22939.47
545.078	22646.61
545.279	22353.75
545.479	22007.64
545.679	21845.85
545.879	21464.93
546.079	21297
546.28	21129.06
546.48	20580.21
546.68	20694.89
546.88	20451.19
547.08	20250.49
547.28	19914.62
547.48	19249.03
547.68	19513.22
547.88	19103.62
548.081	18939.79
548.281	18587.54
548.481	18290.58
548.681	18292.63
548.881	18114.45
549.081	17725.34
549.28	17557.41
549.48	17268.64
549.68	17149.86
549.88	17287.07
550.08	16242.61
550.28	16281.52
550.48	16199.6
550.68	15927.22
550.88	15560.64
551.08	15482.81
551.279	15427.52
551.479	14784.46
551.679	14782.41
551.879	14518.22
552.079	14460.88
552.278	14137.3
552.478	14012.37
552.678	13739.99
552.878	13737.95
553.077	13127.65
553.277	12953.57
553.477	13080.55
553.676	12689.39
553.876	12558.32
554.076	12439.53
554.275	12183.54
554.475	11982.84
554.674	11716.6
554.874	11769.85
555.074	11384.83
555.273	11315.2
555.473	11091.97
555.672	10917.89
555.872	10692.62
556.071	10745.86
556.271	10534.92
556.47	10256.4
556.67	9926.68
556.869	9981.97
557.068	9865.24
557.268	9599
557.467	9435.16
557.667	9578.52
557.866	9224.22
558.065	8923.17
558.265	8814.63
558.464	8566.82
558.663	8794.15
558.863	8450.09
559.062	8513.58
559.261	8249.39
559.461	8155.18
559.66	7671.86
559.859	7882.8
560.058	7735.35
560.258	7575.61
560.457	7370.81
560.656	7553.08
560.855	7200.83
561.054	7239.74
561.253	6899.78
561.453	6987.84
561.652	6701.12
561.851	6631.49
562.05	6416.46
562.249	6316.11
562.448	6469.7
562.647	6334.54
562.846	6248.52
563.045	6180.94
563.244	5877.84
563.443	5926.99
563.642	5830.74
563.841	5791.83
564.04	5783.63
564.239	5738.58
564.438	5595.22
564.637	5400.66
564.836	5361.75
565.035	5183.58
565.234	5093.47
565.432	5130.33
565.631	5189.72
565.83	5003.36
566.029	4995.17
566.228	4872.29
566.427	4816.99
566.625	4608.1
566.824	4577.38
567.023	4651.11
567.222	4397.16
567.42	4485.22
567.619	4509.8
567.818	4298.86
568.016	4317.29
568.215	4186.22
568.414	4096.11
568.612	4128.88
568.811	4032.62
569.01	3956.85
569.208	3870.83
569.407	3934.32
569.605	3885.17
569.804	3586.16
570.002	3608.69
570.201	3573.88
570.4	3668.08
570.598	3356.79
570.797	3420.28
570.995	3414.13
571.193	3307.64
571.392	3291.26
571.59	3225.72
571.789	3235.96
571.987	3379.32
572.186	3225.72
572.384	3113.08
572.582	3082.36
572.781	3199.1
572.979	2873.47
573.177	2814.08
573.376	2963.58
573.574	2852.99
573.772	2797.7
573.971	2740.35
574.169	2705.54
574.367	2597
574.565	2668.67
574.763	2533.51
574.962	2486.4
575.16	2439.3
575.358	2398.34
575.556	2381.96
575.754	2394.25
575.952	2406.53
576.151	2263.18
576.349	2390.15
576.547	2125.96
576.745	2152.59
576.943	2269.32
577.141	2275.46
577.339	2062.48
577.537	2082.95
577.735	2054.28
577.933	2113.67
578.131	1953.93
578.329	2044.04
578.527	1923.21
578.725	2013.32
578.923	1730.7
579.121	1845.39
579.319	1812.62
579.516	1745.04
579.714	2058.38
579.912	1779.86
580.11	1577.11
580.308	1646.74
580.506	1601.68
580.704	1493.14
580.901	1517.72
581.099	1683.6
581.297	1534.1
581.495	1628.31
581.692	1562.77
581.89	1654.93
582.088	1396.89
582.285	1439.89
582.483	1499.28
582.681	1288.34
582.878	1280.15
583.076	1466.52
583.274	1413.27
583.471	1487
583.669	1296.53
583.866	1255.58
584.064	1267.86
584.262	1153.18
584.459	1138.84
584.657	1278.1
584.854	1233.05
585.052	1155.23
585.249	1259.67
585.447	1144.99
585.644	1140.89
585.841	1251.48
586.039	1085.59
586.236	1163.42
586.434	1050.78
586.631	954.52
586.828	1032.35
587.026	1015.96
587.223	891.04
587.42	878.75
587.618	999.58
587.815	1020.06
588.012	962.72
588.21	952.48
588.407	934.04
588.604	972.96
588.801	954.52
588.999	888.99
589.196	960.67
589.393	868.51
589.59	874.65
589.787	905.37
589.984	831.65
590.182	872.61
590.379	850.08
590.576	831.65
590.773	788.64
590.97	888.99
591.167	827.55
591.364	917.66
591.561	749.73
591.758	948.38
591.955	864.41
592.152	831.65
592.349	798.88
592.546	784.54
592.743	829.6
592.94	866.46
593.137	794.78
593.334	837.79
593.531	929.95
593.727	888.99
593.924	868.51
594.121	809.12
594.318	866.46
594.515	854.17
594.712	970.91
594.908	956.57
595.105	807.07
595.302	850.08
595.499	1015.96
595.696	987.29
595.892	860.32
596.089	964.76
596.286	948.38
596.482	1089.69
596.679	1067.16
596.876	895.13
597.072	1085.59
597.269	1128.6
597.466	1073.31
597.662	1114.27
597.859	1052.83
598.055	1085.59
598.252	1237.14
598.448	1357.97
598.645	1317.01
598.841	1398.93
599.038	1448.08
599.234	1579.15
599.431	1489.04
599.627	1511.57
599.824	1663.12
600.02	1667.22
600.217	1697.94
600.413	1808.53
600.609	1939.6
600.806	2154.63
601.002	2203.79
601.198	2044.04
601.395	2109.58
601.591	2275.46
601.787	2353.29
601.984	2508.93
602.18	2588.8
602.376	2523.27
602.572	2672.77
602.769	2900.09
602.965	3031.16
603.161	2906.24
603.357	3111.04
603.553	3184.76
603.75	3430.52
603.946	3369.08
604.142	3702.9
604.338	3817.58
604.534	3879.02
604.73	3903.6
604.926	4008.05
605.122	4319.34
605.318	4302.95
605.514	4452.45
605.71	4608.1
605.906	4833.38
606.102	4753.51
606.298	5208.16
606.494	5060.7
606.69	5386.33
606.886	5445.72
607.082	5662.8
607.278	5740.63
607.474	6045.77
607.67	6082.64
607.866	6185.04
608.062	6778.95
608.257	6678.6
608.453	6694.98
608.649	6918.21
608.845	7149.63
609.041	7276.6
609.236	7669.81
609.432	7829.56
609.628	8009.78
609.824	8376.36
610.019	8339.5
610.215	8804.39
610.411	9162.78
610.606	9289.76
610.802	9441.31
610.998	9580.57
611.193	9981.97
611.389	10117.14
611.584	10502.15
611.78	10682.38
611.976	11030.53
612.171	11425.79
612.367	11632.63
612.562	11810.81
612.758	12013.56
612.953	12312.56
613.149	12840.93
613.344	13131.75
613.539	13598.68
613.735	13914.07
613.93	14127.06
614.126	14542.8
614.321	14933.96
614.517	15392.7
614.712	15878.07
614.907	16056.25
615.103	16676.78
615.298	16676.78
615.493	17635.23
615.688	17774.49
615.884	18653.07
616.079	18519.95
616.274	19201.93
616.47	19718.01
616.665	20236.15
616.86	20559.73
617.055	21217.13
617.25	21450.6
617.445	22470.48
617.641	22413.14
617.836	23357.25
618.031	23523.14
618.226	24561.46
618.421	25087.79
618.616	25614.12
618.811	25673.51
619.006	26842.9
619.201	27057.93
619.396	27762.44
619.591	28266.24
619.786	29413.1
619.981	29505.26
620.176	30801.62
620.371	30922.45
620.566	31712.97
620.761	32317.12
620.956	33390.25
621.151	33265.33
621.346	34569.88
621.541	34479.77
621.735	36144.77
621.93	36042.37
622.125	36744.83
622.32	37045.88
622.515	38207.08
622.709	38661.72
622.904	39851.59
623.099	40162.89
623.294	41197.11
623.488	41344.56
623.683	42290.73
623.878	42518.05
624.072	43669.01
624.267	44422.66
624.462	45121.02
624.656	45127.16
624.851	46269.93
625.046	46763.49
625.24	47181.27
625.435	47924.69
625.629	48709.06
625.824	49198.52
626.018	49894.83
626.213	49675.7
626.407	51346.84
626.602	51230.11
626.796	51965.33
626.991	52571.53
627.185	52589.96
627.38	53222.78
627.574	53552.51
627.768	53855.6
627.963	54068.59
628.157	53654.9
628.352	54732.14
628.546	53867.89
628.74	54889.83
628.935	54537.58
629.129	54617.45
629.323	53945.72
629.517	54084.98
629.712	53599.61
629.906	53644.66
630.1	52180.37
630.294	52190.61
630.489	51813.78
630.683	51846.55
630.877	50337.19
631.071	49649.08
631.265	49053.12
631.459	47928.78
631.653	47238.62
631.848	46368.23
632.042	44957.18
632.236	44465.67
632.43	42591.78
632.624	42026.54
632.818	40633.92
633.012	39358.03
633.206	38542.94
633.4	37574.25
633.594	35470.99
633.788	34449.05
633.982	33709.74
634.176	32511.67
634.369	31028.95
634.563	30181.09
634.757	28794.61
634.951	28389.11
635.145	26904.34
635.339	25941.79
635.533	24686.39
635.726	24137.53
635.92	22613.84
636.114	22216.54
636.308	21036.91
636.501	20574.06
636.695	19404.67
636.889	18429.84
637.083	17678.24
637.276	17172.39
637.47	16365.49
637.664	15972.28
637.857	14956.49
638.051	14620.62
638.244	13981.65
638.438	13428.7
638.632	12830.69
638.825	12363.76
639.019	11921.4
639.212	11446.27
639.406	10985.48
639.599	10627.08
639.793	10223.63
639.986	9592.86
640.18	9318.43
640.373	8775.72
640.567	8730.66
640.76	8421.42
640.954	8048.69
641.147	7649.33
641.34	7508.02
641.534	7268.41
641.727	7077.95
641.92	6735.94
642.114	6326.35
642.307	6113.36
642.5	5967.95
642.694	5556.31
642.887	5367.9
643.08	5298.27
643.273	5107.8
643.467	4853.86
643.66	4716.64
643.853	4487.27
644.046	4399.21
644.239	4188.27
644.432	3883.12
644.626	3811.44
644.819	3752.05
645.012	3653.75
645.205	3524.72
645.398	3504.25
645.591	3145.85
645.784	3068.03
645.977	2889.85
646.17	2752.64
646.363	2848.9
646.556	2525.32
646.749	2457.73
646.942	2449.54
647.135	2302.09
647.328	2289.8
647.521	2181.26
647.714	2103.43
647.907	1968.27
648.099	1923.21
648.292	1869.97
648.485	1728.66
648.678	1769.62
648.871	1575.06
649.064	1484.95
649.256	1470.61
649.449	1421.46
649.642	1398.93
649.835	1362.07
650.027	1284.25
650.22	1384.6
650.413	1278.1
650.605	1292.44
650.798	1110.17
650.991	1069.21
651.183	1085.59
651.376	1155.23
651.568	999.58
651.761	954.52
651.954	1054.87
652.146	899.23
652.339	921.76
652.531	975
652.724	782.49
652.916	696.48
653.109	622.75
653.301	829.6
653.494	886.94
653.686	704.67
653.879	796.83
654.071	712.86
654.263	647.33
654.456	661.66
654.648	678.05
654.84	737.44
655.033	581.79
655.225	698.53
655.417	387.24
655.61	659.62
655.802	561.31
655.994	587.94
656.186	473.25
656.379	544.93
656.571	483.49
656.763	393.38
656.955	528.55
657.148	401.57
657.34	518.31
657.532	442.53
657.724	397.48
657.916	563.36
658.108	501.92
658.3	465.06
658.492	442.53
658.684	293.03
658.876	520.35
659.068	219.3
659.26	235.69
659.452	344.23
659.644	346.28
659.836	501.92
660.028	252.07
660.22	309.41
660.412	342.18
660.604	276.65
660.796	268.45
660.988	356.52
661.18	321.7
661.372	366.76
661.563	282.79
661.755	301.22
661.947	188.58
662.139	293.03
662.331	217.26
662.522	155.82
662.714	170.15
662.906	174.25
663.097	233.64
663.289	196.78
663.481	131.24
663.673	297.13
663.864	247.97
664.056	282.79
664.247	213.16
664.439	327.85
664.631	239.78
664.822	266.41
665.014	250.02
665.205	190.63
665.397	172.2
665.588	227.5
665.78	161.96
665.971	268.45
666.163	125.1
666.354	151.72
666.546	266.41
666.737	209.06
666.929	123.05
667.12	166.06
667.311	245.93
667.503	164.01
667.694	133.29
667.885	141.48
668.077	245.93
668.268	96.43
668.459	186.54
668.651	155.82
668.842	213.16
669.033	104.62
669.224	98.47
669.416	323.75
669.607	200.87
669.798	129.19
669.989	317.61
670.18	166.06
670.371	202.92
670.563	65.71
670.754	202.92
670.945	178.34
671.136	211.11
671.327	37.03
671.518	245.93
671.709	262.31
671.9	209.06
672.091	202.92
672.282	272.55
672.473	170.15
672.664	94.38
672.855	155.82
673.046	131.24
673.237	192.68
673.428	149.67
673.619	131.24
673.809	127.14
674	174.25
674.191	245.93
674.382	125.1
674.573	213.16
674.764	194.73
674.954	266.41
675.145	125.1
675.336	153.77
675.527	164.01
675.717	182.44
675.908	190.63
676.099	153.77
676.289	155.82
676.48	24.75
676.671	164.01
676.861	108.71
677.052	213.16
677.243	260.26
677.433	247.97
677.624	215.21
677.814	147.62
678.005	92.33
678.195	278.69
678.386	98.47
678.576	92.33
678.767	110.76
678.957	90.28
679.148	213.16
679.338	282.79
679.529	260.26
679.719	268.45
679.909	276.65
680.1	168.1
680.29	260.26
680.481	100.52
680.671	200.87
680.861	161.96
681.052	223.4
681.242	139.43
681.432	129.19
681.622	211.11
681.813	135.34
682.003	204.97
682.193	202.92
682.383	200.87
682.573	145.58
682.764	243.88
682.954	211.11
683.144	264.36
683.334	121
683.524	241.83
683.714	268.45
683.904	237.74
684.094	182.44
684.284	213.16
684.474	204.97
684.664	311.46
684.854	268.45
685.044	284.84
685.234	260.26
685.424	227.5
685.614	196.78
685.804	311.46
685.994	215.21
686.184	225.45
686.374	194.73
686.564	333.99
686.753	229.54
686.943	235.69
687.133	147.62
687.323	196.78
687.513	233.64
687.702	217.26
687.892	274.6
688.082	260.26
688.272	225.45
688.461	180.39
688.651	344.23
688.841	307.37
689.03	102.57
689.22	215.21
689.41	247.97
689.599	180.39
689.789	137.38
689.979	309.41
690.168	211.11
690.358	262.31
690.547	227.5
690.737	237.74
690.926	231.59
691.116	250.02
691.305	198.82
691.495	258.21
691.684	114.86
691.874	153.77
692.063	143.53
692.252	202.92
692.442	303.27
692.631	194.73
692.82	137.38
693.01	204.97
693.199	153.77
693.388	202.92
693.578	153.77
693.767	233.64
693.956	272.55
694.146	141.48
694.335	235.69
694.524	219.3
694.713	174.25
694.902	164.01
695.092	241.83
695.281	225.45
695.47	207.02
695.659	233.64
695.848	166.06
696.037	184.49
696.226	272.55
696.415	155.82
696.604	221.35
696.793	170.15
696.982	211.11
697.171	313.51
697.36	233.64
697.549	233.64
697.738	102.57
697.927	192.68
698.116	141.48
698.305	235.69
698.494	213.16
698.683	71.85
698.872	344.23
699.061	139.43
699.25	123.05
699.438	174.25
699.627	151.72
699.816	333.99
700.005	141.48
700.193	65.71
700.382	239.78
700.571	174.25
700.76	266.41
700.948	262.31
701.137	280.74
701.326	284.84
701.514	139.43
701.703	161.96
701.892	262.31
702.08	340.13
702.269	180.39
702.457	133.29
702.646	180.39
702.834	159.91
703.023	204.97
703.212	262.31
703.4	190.63
703.589	127.14
703.777	123.05
703.965	239.78
704.154	159.91
704.342	194.73
704.531	84.14
704.719	264.36
704.907	235.69
705.096	82.09
705.284	204.97
705.472	270.5
705.661	301.22
705.849	350.37
706.037	293.03
706.226	237.74
706.414	272.55
706.602	184.49
706.79	223.4
706.979	170.15
707.167	186.54
707.355	147.62
707.543	233.64
707.731	229.54
707.919	194.73
708.107	209.06
708.296	196.78
708.484	102.57
708.672	182.44
708.86	190.63
709.048	188.58
709.236	125.1
709.424	202.92
709.612	217.26
709.8	168.1
709.988	178.34
710.176	307.37
710.364	282.79
710.551	256.17
710.739	172.2
710.927	159.91
711.115	172.2
711.303	280.74
711.491	219.3
711.679	116.9
711.866	223.4
712.054	202.92
712.242	182.44
712.43	264.36
712.617	202.92
712.805	221.35
712.993	178.34
713.181	137.38
713.368	243.88
713.556	147.62
713.744	137.38
713.931	438.44
714.119	252.07
714.306	219.3
714.494	223.4
714.682	186.54
714.869	90.28
715.057	221.35
715.244	139.43
715.432	290.98
715.619	198.82
715.807	182.44
715.994	188.58
716.182	215.21
716.369	278.69
716.556	252.07
716.744	178.34
716.931	153.77
717.119	258.21
717.306	186.54
717.493	188.58
717.681	96.43
717.868	164.01
718.055	346.28
718.242	200.87
718.43	256.17
718.617	266.41
718.804	198.82
718.991	278.69
719.179	309.41
719.366	172.2
719.553	295.08
719.74	274.6
719.927	164.01
720.114	250.02
720.301	200.87
720.488	196.78
720.676	112.81
720.863	264.36
721.05	290.98
721.237	192.68
721.424	252.07
721.611	256.17
721.798	182.44
721.985	155.82
722.172	264.36
722.358	186.54
722.545	321.7
722.732	286.89
722.919	258.21
723.106	233.64
723.293	157.86
723.48	225.45
723.667	223.4
723.853	317.61
724.04	301.22
724.227	313.51
724.414	192.68
724.6	270.5
724.787	290.98
724.974	383.14
725.161	241.83
725.347	215.21
725.534	235.69
725.72	315.56
725.907	333.99
726.094	323.75
726.28	229.54
726.467	252.07
726.653	231.59
726.84	313.51
727.027	491.68
727.213	258.21
727.4	327.85
727.586	262.31
727.773	336.04
727.959	252.07
728.145	200.87
728.332	327.85
728.518	159.91
728.705	325.8
728.891	241.83
729.077	295.08
729.264	225.45
729.45	209.06
729.636	266.41
729.823	282.79
730.009	327.85
730.195	293.03
730.382	311.46
730.568	100.52
730.754	315.56
730.94	157.86
731.126	313.51
731.313	297.13
731.499	207.02
731.685	354.47
731.871	260.26
732.057	313.51
732.243	340.13
732.429	286.89
732.615	393.38
732.801	247.97
732.987	303.27
733.173	354.47
733.359	174.25
733.545	272.55
733.731	270.5
733.917	342.18
734.103	264.36
734.289	286.89
734.475	237.74
734.661	407.72
734.847	280.74
735.033	305.32
735.219	313.51
735.404	170.15
735.59	213.16
735.776	219.3
735.962	256.17
736.148	307.37
736.333	340.13
736.519	254.12
736.705	297.13
736.89	358.57
737.076	243.88
737.262	207.02
737.447	153.77
737.633	272.55
737.819	346.28
738.004	243.88
738.19	290.98
738.375	256.17
738.561	403.62
738.747	303.27
738.932	239.78
739.118	327.85
739.303	333.99
739.489	360.61
739.674	178.34
739.859	223.4
740.045	321.7
740.23	295.08
740.416	141.48
740.601	344.23
740.786	284.84
740.972	221.35
741.157	250.02
741.342	139.43
741.528	229.54
741.713	366.76
741.898	213.16
742.084	331.94
742.269	305.32
742.454	297.13
742.639	352.42
742.824	235.69
743.01	364.71
743.195	438.44
743.38	299.17
743.565	336.04
743.75	354.47
743.935	323.75
744.12	354.47
744.305	186.54
744.49	288.93
744.675	264.36
744.86	125.1
745.045	299.17
745.23	297.13
745.415	264.36
745.6	340.13
745.785	186.54
745.97	370.85
746.155	221.35
746.34	329.89
746.525	295.08
746.71	352.42
746.895	213.16
747.079	237.74
747.264	270.5
747.449	250.02
747.634	352.42
747.819	307.37
748.003	254.12
748.188	121
748.373	235.69
748.557	225.45
748.742	170.15
748.927	108.71
749.111	221.35
749.296	204.97
749.481	274.6
749.665	229.54
749.85	186.54
750.034	256.17
750.219	166.06
750.404	219.3
750.588	254.12
750.773	186.54
750.957	211.11
751.141	217.26
751.326	219.3
751.51	114.86
751.695	86.19
751.879	192.68
752.064	352.42
752.248	188.58
752.432	327.85
752.617	336.04
752.801	227.5
752.985	184.49
753.17	321.7
753.354	237.74
753.538	247.97
753.722	118.95
753.907	131.24
754.091	192.68
754.275	182.44
754.459	127.14
754.643	170.15
754.828	282.79
755.012	247.97
755.196	118.95
755.38	237.74
755.564	155.82
755.748	135.34
755.932	166.06
756.116	217.26
756.3	204.97
756.484	159.91
756.668	170.15
756.852	96.43
757.036	108.71
757.22	121
757.404	127.14
757.588	57.51
757.772	200.87
757.956	178.34
758.14	284.84
758.323	55.47
758.507	262.31
758.691	73.9
758.875	247.97
759.059	217.26
759.242	65.71
759.426	161.96
759.61	204.97
759.794	88.23
759.977	209.06
760.161	381.09
760.345	139.43
760.528	215.21
760.712	161.96
760.895	166.06
761.079	112.81
761.263	114.86
761.446	114.86
761.63	116.9
761.813	241.83
761.997	26.79
762.18	118.95
762.364	121
762.547	41.13
762.731	43.18
762.914	131.24
763.098	131.24
763.281	104.62
763.464	112.81
763.648	69.8
763.831	69.8
764.015	47.27
764.198	145.58
764.381	106.67
764.564	256.17
764.748	172.2
764.931	184.49
765.114	98.47
765.297	139.43
765.481	114.86
765.664	131.24
765.847	110.76
766.03	194.73
766.213	14.51
766.397	157.86
766.58	71.85
766.763	188.58
766.946	102.57
767.129	108.71
767.312	129.19
767.495	69.8
767.678	61.61
767.861	159.91
768.044	149.67
768.227	32.94
768.41	127.14
768.593	102.57
768.776	114.86
768.959	116.9
769.142	207.02
769.324	96.43
769.507	94.38
769.69	28.84
769.873	145.58
770.056	262.31
770.239	71.85
770.421	94.38
770.604	82.09
770.787	92.33
770.97	114.86
771.152	32.94
771.335	53.42
771.518	34.99
771.7	125.1
771.883	166.06
772.066	30.89
772.248	118.95
772.431	221.35
772.613	213.16
772.796	69.8
772.978	106.67
773.161	207.02
773.343	57.51
773.526	14.51
773.708	-20.31
773.891	16.55
774.073	82.09
774.256	10.41
774.438	196.78
774.621	94.38
774.803	86.19
774.985	34.99
775.168	77.99
775.35	53.42
775.532	82.09
775.715	45.23
775.897	118.95
776.079	49.32
776.261	96.43
776.444	133.29
776.626	65.71
776.808	18.6
776.99	-40.79
777.173	168.1
777.355	55.47
777.537	104.62
777.719	123.05
777.901	-5.97
778.083	8.36
778.265	-75.6
778.447	96.43
778.629	82.09
778.811	45.23
778.993	94.38
779.175	47.27
779.357	131.24
779.539	-22.36
779.721	80.04
779.903	65.71
780.085	-3.93
780.267	30.89
780.449	127.14
780.631	104.62
780.812	202.92
780.994	30.89
781.176	59.56
781.358	2.22
781.54	26.79
781.721	100.52
781.903	139.43
782.085	16.55
782.267	159.91
782.448	22.7
782.63	49.32
782.812	104.62
782.993	69.8
783.175	194.73
783.357	20.65
783.538	57.51
783.72	-3.93
783.901	61.61
784.083	18.6
784.264	92.33
784.446	-46.93
784.627	-5.97
784.809	149.67
784.99	-44.88
785.172	22.7
785.353	-5.97
785.535	67.75
785.716	0.17
785.897	-40.79
786.079	92.33
786.26	-1.88
786.441	59.56
786.623	-102.23
786.804	47.27
786.985	59.56
787.167	82.09
787.348	37.03
787.529	-28.5
787.71	121
787.891	51.37
788.073	-3.93
788.254	-71.51
788.435	129.19
788.616	37.03
788.797	0.17
788.978	84.14
789.159	22.7
789.34	96.43
789.522	-10.07
789.703	-48.98
789.884	34.99
790.065	16.55
790.246	225.45
790.427	10.41
790.607	159.91
790.788	127.14
790.969	-30.55
791.15	94.38
791.331	-38.74
791.512	8.36
791.693	16.55
791.874	88.23
792.054	190.63
792.235	121
792.416	-42.84
792.597	-59.22
792.778	94.38
792.958	80.04
793.139	110.76
793.32	90.28
793.5	-65.36
793.681	10.41
793.862	127.14
794.042	94.38
794.223	-51.03
794.404	-16.21
794.584	-57.17
794.765	-20.31
794.945	55.47
795.126	92.33
795.306	61.61
795.487	43.18
795.667	8.36
795.848	0.17
796.028	80.04
796.209	-5.97
796.389	77.99
796.57	14.51
796.75	-34.64
796.93	-32.6
797.111	-24.4
797.291	-71.51
797.471	137.38
797.652	-83.8
797.832	-16.21
798.012	92.33
798.192	-51.03
798.373	-112.47
798.553	-10.07
798.733	90.28
798.913	-59.22
799.093	-1.88
799.274	20.65
799.454	32.94
799.634	12.46
799.814	82.09
799.994	94.38
800.174	26.79
800.354	82.09
800.534	-89.94
800.714	80.04
800.894	-44.88
801.074	-5.97
801.254	-46.93
801.434	10.41
801.614	65.71
801.794	-53.08
801.974	1706.13
802.154	-10.07
802.334	32.94
802.514	-55.12
802.693	-3.93
802.873	4.27
803.053	139.43
803.233	-24.4
803.413	-34.64
803.592	8.36
803.772	-18.26
803.952	43.18
804.131	-110.42
804.311	28.84
804.491	86.19
804.67	4.27
804.85	-87.89
805.03	55.47
805.209	41.13
805.389	-55.12
805.568	-67.41
805.748	-12.12
805.928	18.6
806.107	-36.69
806.287	20.65
806.466	75.95
806.646	-12.12
806.825	-3.93
807.004	-16.21
807.184	37.03
807.363	75.95
807.543	127.14
807.722	-61.27
807.901	84.14
808.081	147.62
808.26	-85.84
808.439	59.56
808.619	-20.31
808.798	-16.21
808.977	22.7
809.156	98.47
809.336	28.84
809.515	73.9
809.694	0.17
809.873	4.27
810.052	22.7
810.231	123.05
810.411	24.75
810.59	-12.12
810.769	-32.6
810.948	110.76
811.127	-102.23
811.306	-34.64
811.485	4.27
811.664	147.62
811.843	0.17
812.022	-16.21
812.201	45.23
812.38	-14.17
812.559	49.32
812.737	-3.93
812.916	-135
813.095	-81.75
813.274	0.17
813.453	-40.79
813.632	77.99
813.811	32.94
813.989	-57.17
814.168	24.75
814.347	32.94
814.526	2.22
814.704	94.38
814.883	69.8
815.062	-85.84
815.24	45.23
815.419	4.27
815.598	24.75
815.776	-112.47
815.955	-28.5
816.133	-67.41
816.312	-57.17
816.49	49.32
816.669	-10.07
816.847	106.67
817.026	121
817.204	-24.4
817.383	49.32
817.561	-48.98
817.74	-75.6
817.918	6.31
818.097	-112.47
818.275	-28.5
818.453	51.37
818.632	41.13
818.81	-32.6
818.988	-81.75
819.167	-30.55
819.345	-16.21
819.523	-48.98
819.701	20.65
819.879	41.13
820.058	8.36
820.236	30.89
820.414	-48.98
820.592	-20.31
820.77	43.18
820.948	39.08
821.127	-42.84
821.305	37.03
821.483	-30.55
821.661	98.47
821.839	-20.31
822.017	-12.12
822.195	-16.21
822.373	71.85
822.551	51.37
822.729	73.9
822.907	-57.17
823.085	41.13
823.262	96.43
823.44	0.17
823.618	-24.4
823.796	-73.56
823.974	88.23
824.152	-79.7
824.329	-18.26
824.507	39.08
824.685	92.33
824.863	6.31
825.04	-73.56
825.218	96.43
825.396	12.46
825.574	18.6
825.751	-8.02
825.929	22.7
826.107	-59.22
826.284	-42.84
826.462	47.27
826.639	-53.08
826.817	-48.98
826.994	-3.93
827.172	-87.89
827.349	143.53
827.527	43.18
827.704	-36.69
827.882	125.1
828.059	-42.84
828.237	51.37
828.414	-14.17
828.591	-94.04
828.769	37.03
828.946	-30.55
829.124	86.19
829.301	121
829.478	-22.36
829.655	-12.12
829.833	-85.84
830.01	-104.28
830.187	16.55
830.364	2.22
830.542	65.71
830.719	139.43
830.896	53.42
831.073	22.7
831.25	45.23
831.427	106.67
831.604	-12.12
831.782	-79.7
831.959	30.89
832.136	-20.31
832.313	39.08
832.49	-44.88
832.667	82.09
832.844	-77.65
833.021	49.32
833.198	39.08
833.374	-71.51
833.551	20.65
833.728	-22.36
833.905	59.56
834.082	-38.74
834.259	73.9
834.436	10.41
834.612	-44.88
834.789	71.85
834.966	34.99
835.143	49.32
835.319	-40.79
835.496	0.17
835.673	59.56
835.85	77.99
836.026	43.18
836.203	37.03
836.38	-63.32
836.556	-48.98
836.733	-77.65
836.909	49.32
837.086	-67.41
837.262	-94.04
837.439	-5.97
837.616	-59.22
837.792	-5.97
837.968	0.17
838.145	-118.61
838.321	-30.55
838.498	55.47
838.674	49.32
838.851	12.46
839.027	20.65
839.203	-18.26
839.38	123.05
839.556	-57.17
839.732	28.84
839.909	-8.02
840.085	4.27
840.261	-81.75
840.437	22.7
840.614	-59.22
840.79	24.75
840.966	102.57
841.142	14.51
841.318	-1.88
841.494	55.47
841.671	-14.17
841.847	-98.13
842.023	-8.02
842.199	32.94
842.375	61.61
842.551	-91.99
842.727	-53.08
842.903	90.28
843.079	-188.24
843.255	137.38
843.431	8.36
843.607	71.85
843.783	-94.04
843.959	4.27
844.134	-36.69
844.31	69.8
844.486	-130.9
844.662	24.75
844.838	34.99
845.013	65.71
845.189	123.05
845.365	39.08
845.541	32.94
845.716	-106.32
845.892	47.27
846.068	-16.21
846.244	-16.21
846.419	18.6
846.595	-71.51
846.77	-38.74
846.946	20.65
847.122	0.17
847.297	-26.45
847.473	127.14
847.648	-81.75
847.824	51.37
847.999	-137.04
848.175	-16.21
848.35	-44.88
848.526	90.28
848.701	90.28
848.876	12.46
849.052	39.08
849.227	24.75
849.403	-10.07
849.578	43.18
849.753	-26.45
849.929	-83.8
850.104	-73.56
850.279	51.37
850.454	-10.07
850.63	20.65
850.805	34.99
850.98	-63.32
851.155	-51.03
851.33	43.18
851.505	-116.56
851.681	88.23
851.856	-106.32
852.031	49.32
852.206	45.23
852.381	-96.08
852.556	14.51
852.731	55.47
852.906	59.56
853.081	12.46
853.256	123.05
853.431	43.18
853.606	-75.6
853.781	-3.93
853.956	-85.84
854.131	102.57
854.305	-61.27
854.48	-26.45
854.655	-63.32
854.83	65.71
855.005	-18.26
855.18	77.99
855.354	-42.84
855.529	-40.79
855.704	-46.93
855.879	-46.93
856.053	-10.07
856.228	24.75
856.403	-120.66
856.577	47.27
856.752	-34.64
856.926	14.51
857.101	-8.02
857.276	-79.7
857.45	-75.6
857.625	-8.02
857.799	0.17
857.974	-57.17
858.148	-114.52
858.323	0.17
858.497	-79.7
858.672	-42.84
858.846	-38.74
859.02	0.17
859.195	-38.74
859.369	-65.36
859.543	-5.97
859.718	53.42
859.892	12.46
860.066	57.51
860.241	-38.74
860.415	-24.4
860.589	-81.75
860.763	-1.88
860.938	-44.88
861.112	59.56
861.286	-40.79
861.46	63.66
861.634	-48.98
861.808	32.94
861.982	-12.12
862.157	-120.66
862.331	-16.21
862.505	-73.56
862.679	-159.57
862.853	-55.12
863.027	-63.32
863.201	102.57
863.375	-73.56
863.549	-20.31
863.722	106.67
863.896	141.48
864.07	-28.5
864.244	-96.08
864.418	32.94
864.592	-14.17
864.766	-40.79
864.939	41.13
865.113	14.51
865.287	90.28
865.461	-24.4
865.634	-12.12
865.808	-3.93
865.982	-42.84
866.156	-5.97
866.329	-63.32
866.503	-28.5
866.676	77.99
866.85	37.03
867.024	12.46
867.197	18.6
867.371	32.94
867.544	-30.55
867.718	-98.13
867.891	59.56
868.065	-81.75
868.238	26.79
868.412	47.27
868.585	-51.03
868.759	-16.21
868.932	-75.6
869.105	-96.08
869.279	84.14
869.452	-108.37
869.625	30.89
869.799	-63.32
869.972	-87.89
870.145	-22.36
870.319	57.51
870.492	-32.6
870.665	22.7
870.838	-12.12
871.011	-143.19
871.185	-83.8
871.358	-59.22
871.531	106.67
871.704	-34.64
871.877	-30.55
872.05	-98.13
872.223	-83.8
872.396	41.13
872.569	-12.12
872.742	-118.61
872.915	-5.97
873.088	-32.6
873.261	-94.04
873.434	30.89
873.607	-51.03
873.78	45.23
873.953	-73.56
874.126	45.23
874.299	30.89
874.471	-110.42
874.644	49.32
874.817	-24.4
874.99	143.53
875.163	-46.93
875.335	63.66
875.508	2.22
875.681	-28.5
875.853	-38.74
876.026	22.7
876.199	90.28
876.371	2.22
876.544	-46.93
876.717	-14.17
876.889	2.22
877.062	-26.45
877.234	-145.24
877.407	-71.51
877.579	-32.6
877.752	-5.97
877.924	51.37
878.097	-5.97
878.269	14.51
878.442	67.75
878.614	43.18
878.786	-12.12
878.959	-98.13
879.131	8.36
879.303	-169.81
879.476	-18.26
879.648	96.43
879.82	43.18
879.993	-53.08
880.165	2.22
880.337	-96.08
880.509	80.04
880.681	-128.85
880.854	47.27
881.026	28.84
881.198	135.34
881.37	-14.17
881.542	-26.45
881.714	-3.93
881.886	-59.22
882.058	-12.12
882.23	10.41
882.402	24.75
882.574	20.65
882.746	20.65
882.918	100.52
883.09	24.75
883.262	-14.17
883.434	-5.97
883.606	-94.04
883.778	-46.93
883.95	49.32
884.122	-46.93
884.293	112.81
884.465	-10.07
884.637	55.47
884.809	-22.36
884.98	43.18
885.152	53.42
885.324	-20.31
885.496	-46.93
885.667	-91.99
885.839	-55.12
886.011	49.32
886.182	28.84
886.354	65.71
886.525	61.61
886.697	100.52
886.869	-149.33
887.04	-51.03
887.212	164.01
887.383	116.9
887.555	-5.97
887.726	8.36
887.897	-48.98
888.069	-3.93
888.24	32.94
888.412	26.79
888.583	-20.31
888.754	-30.55
888.926	-73.56
889.097	-106.32
889.268	-53.08
889.44	6.31
889.611	-77.65
889.782	-137.04
889.953	-120.66
890.125	37.03
890.296	-67.41
890.467	-12.12
890.638	-57.17
890.809	12.46
890.98	-5.97
891.151	-69.46
891.323	168.1
891.494	4.27
891.665	-8.02
891.836	4.27
892.007	-24.4
892.178	108.71
892.349	53.42
892.52	-67.41
892.691	-1.88
892.862	-16.21
893.032	-91.99
893.203	-12.12
893.374	-28.5
893.545	65.71
893.716	-44.88
893.887	-26.45
894.057	-38.74
894.228	-96.08
894.399	-14.17
894.57	20.65
894.74	86.19
894.911	-36.69
895.082	-5.97
895.253	-114.52
895.423	-26.45
895.594	59.56
895.764	12.46
895.935	-108.37
896.106	-3.93
896.276	-55.12
896.447	-57.17
896.617	-53.08
896.788	-67.41
896.958	-28.5
897.129	-81.75
897.299	-167.76
897.47	39.08
897.64	43.18
897.81	-14.17
897.981	20.65
898.151	-110.42
898.322	0.17
898.492	49.32
898.662	-98.13
898.832	-87.89
899.003	16.55
899.173	-22.36
899.343	-32.6
899.513	-28.5
