Data from USB4F104151__166__11-04-49-136.txt Node

Date: Wed Feb 26 11:04:49 EST 2025
User: louis
Spectrometer: USB4F10415
Trigger mode: 4
Integration Time (sec): 1.000000E-1
Scans to average: 1
Electric dark correction enabled: true
Nonlinearity correction enabled: false
Boxcar width: 0
XAxis mode: Wavelengths
Number of Pixels in Spectrum: 3648
>>>>>Begin Spectral Data<<<<<
178.204	-458.4
178.424	-458.4
178.644	-458.4
178.864	-392.87
179.084	-399.01
179.304	10.58
179.524	-9.9
179.744	-16.04
179.964	8.53
180.184	-40.62
180.404	67.92
180.624	-52.91
180.844	45.4
181.064	-34.47
181.283	33.11
181.503	-26.28
181.723	14.68
181.943	-95.91
182.163	119.12
182.383	-71.34
182.602	12.63
182.822	137.56
183.042	125.27
183.262	-46.76
183.482	-59.05
183.701	31.06
183.921	14.68
184.141	-93.87
184.361	26.96
184.58	6.49
184.8	12.63
185.02	-79.53
185.239	14.68
185.459	31.06
185.679	115.03
185.898	-59.05
186.118	12.63
186.338	37.2
186.557	92.5
186.777	-77.48
186.997	-11.95
187.216	2.39
187.436	229.71
187.655	69.97
187.875	141.65
188.095	-11.95
188.314	133.46
188.534	131.41
188.753	-18.09
188.973	76.12
189.192	112.98
189.412	18.77
189.631	4.44
189.851	78.16
190.07	69.97
190.29	-1.71
190.509	-59.05
190.729	26.96
190.948	78.16
191.168	233.81
191.387	51.54
191.607	-13.99
191.826	86.36
192.045	-46.76
192.265	-20.14
192.484	22.87
192.704	-30.38
192.923	51.54
193.142	164.18
193.362	69.97
193.581	141.65
193.8	98.64
194.02	100.69
194.239	18.77
194.458	88.4
194.678	-77.48
194.897	76.12
195.116	37.2
195.335	86.36
195.555	51.54
195.774	-38.57
195.993	112.98
196.212	8.53
196.432	-54.95
196.651	-11.95
196.87	10.58
197.089	233.81
197.308	12.63
197.528	41.3
197.747	-91.82
197.966	78.16
198.185	137.56
198.404	2.39
198.623	141.65
198.842	47.44
199.062	94.55
199.281	82.26
199.5	100.69
199.719	57.68
199.938	76.12
200.157	67.92
200.376	72.02
200.595	170.32
200.814	49.49
201.033	20.82
201.252	88.4
201.471	100.69
201.69	76.12
201.909	67.92
202.128	104.79
202.347	61.78
202.566	-30.38
202.785	-102.06
203.004	43.35
203.223	270.67
203.442	115.03
203.661	-40.62
203.879	170.32
204.098	59.73
204.317	-63.15
204.536	125.27
204.755	94.55
204.974	121.17
205.193	-32.43
205.411	72.02
205.63	139.6
205.849	43.35
206.068	39.25
206.287	0.34
206.505	102.74
206.724	96.6
206.943	16.73
207.162	-13.99
207.381	6.49
207.599	108.88
207.818	45.4
208.037	-22.19
208.255	26.96
208.474	-50.86
208.693	-7.85
208.911	33.11
209.13	115.03
209.349	16.73
209.567	57.68
209.786	123.22
210.005	59.73
210.223	16.73
210.442	-87.72
210.661	16.73
210.879	-22.19
211.098	-36.52
211.316	14.68
211.535	90.45
211.753	88.4
211.972	137.56
212.191	-7.85
212.409	-22.19
212.628	133.46
212.846	10.58
213.065	72.02
213.283	90.45
213.502	0.34
213.72	51.54
213.938	-26.28
214.157	-32.43
214.375	153.94
214.594	-42.67
214.812	61.78
215.031	33.11
215.249	20.82
215.467	29.01
215.686	-7.85
215.904	35.16
216.122	39.25
216.341	98.64
216.559	-32.43
216.778	88.4
216.996	213.33
217.214	67.92
217.432	10.58
217.651	-134.82
217.869	43.35
218.087	-16.04
218.306	53.59
218.524	20.82
218.742	49.49
218.96	57.68
219.179	-11.95
219.397	45.4
219.615	153.94
219.833	100.69
220.051	-50.86
220.27	108.88
220.488	43.35
220.706	57.68
220.924	61.78
221.142	-28.33
221.36	82.26
221.578	127.32
221.796	69.97
222.015	127.32
222.233	74.07
222.451	133.46
222.669	6.49
222.887	12.63
223.105	24.92
223.323	-16.04
223.541	-16.04
223.759	90.45
223.977	20.82
224.195	149.84
224.413	88.4
224.631	33.11
224.849	88.4
225.067	170.32
225.285	0.34
225.503	14.68
225.721	-126.63
225.939	-54.95
226.157	-9.9
226.375	239.95
226.592	37.2
226.81	65.88
227.028	92.5
227.246	143.7
227.464	51.54
227.682	90.45
227.9	80.21
228.117	98.64
228.335	94.55
228.553	43.35
228.771	78.16
228.989	65.88
229.206	92.5
229.424	39.25
229.642	29.01
229.86	-24.23
230.077	96.6
230.295	53.59
230.513	131.41
230.731	67.92
230.948	174.42
231.166	186.71
231.384	-46.76
231.601	-77.48
231.819	160.08
232.037	12.63
232.254	-42.67
232.472	-42.67
232.689	-63.15
232.907	72.02
233.125	24.92
233.342	55.64
233.56	10.58
233.777	37.2
233.995	14.68
234.213	55.64
234.43	35.16
234.648	51.54
234.865	20.82
235.083	24.92
235.3	106.84
235.518	96.6
235.735	86.36
235.953	72.02
236.17	0.34
236.388	69.97
236.605	67.92
236.822	123.22
237.04	84.31
237.257	-36.52
237.475	37.2
237.692	-18.09
237.909	61.78
238.127	35.16
238.344	51.54
238.562	-1.71
238.779	-16.04
238.996	-65.19
239.214	39.25
239.431	82.26
239.648	4.44
239.865	121.17
240.083	123.22
240.3	-32.43
240.517	-26.28
240.735	6.49
240.952	133.46
241.169	53.59
241.386	-28.33
241.603	24.92
241.821	0.34
242.038	-1.71
242.255	106.84
242.472	-34.47
242.689	24.92
242.907	129.36
243.124	39.25
243.341	80.21
243.558	57.68
243.775	-100.01
243.992	-95.91
244.209	112.98
244.426	153.94
244.643	37.2
244.86	-36.52
245.078	29.01
245.295	53.59
245.512	-63.15
245.729	-69.29
245.946	37.2
246.163	69.97
246.38	-18.09
246.597	18.77
246.814	47.44
247.031	92.5
247.248	63.83
247.464	78.16
247.681	31.06
247.898	86.36
248.115	112.98
248.332	-54.95
248.549	133.46
248.766	59.73
248.983	135.51
249.2	31.06
249.417	104.79
249.633	-69.29
249.85	61.78
250.067	-9.9
250.284	55.64
250.501	26.96
250.717	67.92
250.934	29.01
251.151	20.82
251.368	-1.71
251.585	78.16
251.801	-1.71
252.018	8.53
252.235	149.84
252.451	-38.57
252.668	55.64
252.885	117.08
253.102	49.49
253.318	65.88
253.535	67.92
253.752	80.21
253.968	-34.47
254.185	-93.87
254.401	92.5
254.618	84.31
254.835	-34.47
255.051	117.08
255.268	76.12
255.484	96.6
255.701	22.87
255.917	-9.9
256.134	-22.19
256.351	-9.9
256.567	-1.71
256.784	-18.09
257	-77.48
257.217	112.98
257.433	74.07
257.65	16.73
257.866	115.03
258.082	-44.71
258.299	16.73
258.515	14.68
258.732	31.06
258.948	-50.86
259.165	14.68
259.381	37.2
259.597	43.35
259.814	-46.76
260.03	2.39
260.246	45.4
260.463	151.89
260.679	24.92
260.895	49.49
261.112	0.34
261.328	-30.38
261.544	14.68
261.761	168.27
261.977	-28.33
262.193	-36.52
262.409	84.31
262.626	69.97
262.842	41.3
263.058	-75.43
263.274	57.68
263.49	115.03
263.707	24.92
263.923	90.45
264.139	-124.58
264.355	8.53
264.571	94.55
264.787	37.2
265.004	172.37
265.22	-28.33
265.436	-52.91
265.652	22.87
265.868	86.36
266.084	0.34
266.3	43.35
266.516	-22.19
266.732	76.12
266.948	35.16
267.164	14.68
267.38	94.55
267.596	147.8
267.812	194.9
268.028	41.3
268.244	-42.67
268.46	16.73
268.676	-28.33
268.892	-42.67
269.108	-65.19
269.324	2.39
269.54	-52.91
269.756	72.02
269.972	-7.85
270.188	45.4
270.403	-11.95
270.619	-30.38
270.835	102.74
271.051	6.49
271.267	10.58
271.483	-28.33
271.698	74.07
271.914	92.5
272.13	-36.52
272.346	43.35
272.562	2.39
272.777	155.99
272.993	33.11
273.209	51.54
273.425	33.11
273.64	-67.24
273.856	96.6
274.072	-34.47
274.287	6.49
274.503	86.36
274.719	102.74
274.934	-13.99
275.15	-46.76
275.366	14.68
275.581	-18.09
275.797	20.82
276.012	47.44
276.228	-24.23
276.444	135.51
276.659	53.59
276.875	-24.23
277.09	-11.95
277.306	8.53
277.521	31.06
277.737	4.44
277.952	29.01
278.168	2.39
278.383	20.82
278.599	16.73
278.814	57.68
279.03	8.53
279.245	94.55
279.461	-18.09
279.676	80.21
279.892	-7.85
280.107	-73.39
280.322	-42.67
280.538	6.49
280.753	-26.28
280.969	26.96
281.184	-30.38
281.399	112.98
281.615	-54.95
281.83	57.68
282.045	-65.19
282.26	-30.38
282.476	6.49
282.691	149.84
282.906	61.78
283.122	14.68
283.337	-11.95
283.552	80.21
283.767	12.63
283.983	96.6
284.198	72.02
284.413	125.27
284.628	-83.63
284.843	41.3
285.058	12.63
285.274	-20.14
285.489	-126.63
285.704	135.51
285.919	-11.95
286.134	8.53
286.349	20.82
286.564	-36.52
286.779	149.84
286.995	14.68
287.21	-89.77
287.425	37.2
287.64	22.87
287.855	37.2
288.07	-26.28
288.285	69.97
288.5	139.6
288.715	51.54
288.93	4.44
289.145	-20.14
289.36	57.68
289.575	-5.8
289.79	12.63
290.004	-52.91
290.219	139.6
290.434	-52.91
290.649	-85.67
290.864	0.34
291.079	-18.09
291.294	14.68
291.509	65.88
291.724	10.58
291.938	67.92
292.153	92.5
292.368	-20.14
292.583	39.25
292.798	121.17
293.012	65.88
293.227	72.02
293.442	12.63
293.657	102.74
293.871	135.51
294.086	72.02
294.301	198.99
294.516	96.6
294.73	55.64
294.945	-30.38
295.16	16.73
295.374	49.49
295.589	86.36
295.804	8.53
296.018	-32.43
296.233	131.41
296.447	108.88
296.662	33.11
296.877	123.22
297.091	174.42
297.306	0.34
297.52	43.35
297.735	65.88
297.949	65.88
298.164	102.74
298.378	14.68
298.593	-59.05
298.807	-67.24
299.022	12.63
299.236	170.32
299.451	-28.33
299.665	-83.63
299.88	-9.9
300.094	69.97
300.309	39.25
300.523	92.5
300.737	-18.09
300.952	22.87
301.166	20.82
301.381	-85.67
301.595	-52.91
301.809	6.49
302.024	24.92
302.238	-34.47
302.452	92.5
302.667	29.01
302.881	102.74
303.095	92.5
303.309	49.49
303.524	-48.81
303.738	2.39
303.952	-59.05
304.166	47.44
304.381	-126.63
304.595	112.98
304.809	65.88
305.023	55.64
305.237	-30.38
305.452	-91.82
305.666	100.69
305.88	117.08
306.094	104.79
306.308	16.73
306.522	94.55
306.736	115.03
306.95	135.51
307.164	26.96
307.379	-22.19
307.593	108.88
307.807	102.74
308.021	123.22
308.235	92.5
308.449	-102.06
308.663	-3.75
308.877	160.08
309.091	51.54
309.305	82.26
309.519	-63.15
309.733	143.7
309.947	-79.53
310.161	108.88
310.374	14.68
310.588	121.17
310.802	16.73
311.016	72.02
311.23	49.49
311.444	-16.04
311.658	-36.52
311.872	49.49
312.085	74.07
312.299	123.22
312.513	149.84
312.727	100.69
312.941	-75.43
313.154	108.88
313.368	-9.9
313.582	0.34
313.796	57.68
314.009	24.92
314.223	141.65
314.437	131.41
314.651	143.7
314.864	35.16
315.078	-26.28
315.292	-42.67
315.505	-3.75
315.719	86.36
315.933	-22.19
316.146	33.11
316.36	-40.62
316.573	31.06
316.787	78.16
317.001	55.64
317.214	-7.85
317.428	-65.19
317.641	-13.99
317.855	-16.04
318.068	10.58
318.282	33.11
318.495	250.19
318.709	115.03
318.922	24.92
319.136	133.46
319.349	139.6
319.563	53.59
319.776	108.88
319.99	16.73
320.203	106.84
320.417	115.03
320.63	80.21
320.843	192.85
321.057	4.44
321.27	-16.04
321.483	78.16
321.697	55.64
321.91	51.54
322.124	0.34
322.337	-1.71
322.55	8.53
322.763	59.73
322.977	14.68
323.19	12.63
323.403	-40.62
323.617	2.39
323.83	55.64
324.043	-50.86
324.256	33.11
324.469	-65.19
324.683	78.16
324.896	35.16
325.109	22.87
325.322	-3.75
325.535	137.56
325.748	39.25
325.962	45.4
326.175	14.68
326.388	4.44
326.601	178.51
326.814	18.77
327.027	35.16
327.24	182.61
327.453	-61.1
327.666	74.07
327.879	31.06
328.092	53.59
328.305	51.54
328.518	-28.33
328.731	-69.29
328.944	-42.67
329.157	78.16
329.37	-40.62
329.583	96.6
329.796	18.77
330.009	-42.67
330.222	90.45
330.435	96.6
330.648	51.54
330.861	82.26
331.073	33.11
331.286	72.02
331.499	39.25
331.712	22.87
331.925	-9.9
332.138	45.4
332.35	90.45
332.563	-5.8
332.776	170.32
332.989	-5.8
333.202	53.59
333.414	37.2
333.627	41.3
333.84	24.92
334.053	82.26
334.265	-106.15
334.478	-7.85
334.691	20.82
334.903	-7.85
335.116	-52.91
335.329	-26.28
335.541	65.88
335.754	153.94
335.966	-1.71
336.179	6.49
336.392	33.11
336.604	33.11
336.817	98.64
337.029	61.78
337.242	112.98
337.454	55.64
337.667	10.58
337.88	123.22
338.092	61.78
338.305	98.64
338.517	6.49
338.729	88.4
338.942	139.6
339.154	-42.67
339.367	-95.91
339.579	6.49
339.792	22.87
340.004	63.83
340.217	20.82
340.429	141.65
340.641	-59.05
340.854	24.92
341.066	31.06
341.278	145.75
341.491	201.04
341.703	67.92
341.915	-71.34
342.128	96.6
342.34	20.82
342.552	12.63
342.764	67.92
342.977	29.01
343.189	145.75
343.401	39.25
343.613	-81.58
343.826	63.83
344.038	-69.29
344.25	98.64
344.462	-48.81
344.674	47.44
344.886	10.58
345.099	186.71
345.311	147.8
345.523	-5.8
345.735	-87.72
345.947	4.44
346.159	33.11
346.371	-1.71
346.583	12.63
346.795	137.56
347.007	-5.8
347.219	31.06
347.431	-11.95
347.643	112.98
347.855	-24.23
348.067	149.84
348.279	-30.38
348.491	61.78
348.703	57.68
348.915	100.69
349.127	43.35
349.339	-1.71
349.551	-112.3
349.763	80.21
349.975	67.92
350.187	43.35
350.399	192.85
350.61	78.16
350.822	43.35
351.034	35.16
351.246	65.88
351.458	26.96
351.669	-11.95
351.881	108.88
352.093	-3.75
352.305	55.64
352.517	8.53
352.728	121.17
352.94	59.73
353.152	29.01
353.363	-120.49
353.575	43.35
353.787	153.94
353.999	61.78
354.21	170.32
354.422	63.83
354.633	-20.14
354.845	-7.85
355.057	84.31
355.268	-54.95
355.48	63.83
355.692	-71.34
355.903	63.83
356.115	12.63
356.326	-28.33
356.538	209.23
356.749	49.49
356.961	180.56
357.172	-34.47
357.384	-24.23
357.595	186.71
357.807	2.39
358.018	-28.33
358.23	-18.09
358.441	123.22
358.653	74.07
358.864	-26.28
359.075	-1.71
359.287	90.45
359.498	61.78
359.709	104.79
359.921	29.01
360.132	37.2
360.344	88.4
360.555	26.96
360.766	92.5
360.977	41.3
361.189	117.08
361.4	-38.57
361.611	174.42
361.823	80.21
362.034	59.73
362.245	-71.34
362.456	10.58
362.667	72.02
362.879	22.87
363.09	110.93
363.301	-16.04
363.512	112.98
363.723	-18.09
363.935	-38.57
364.146	59.73
364.357	31.06
364.568	86.36
364.779	-75.43
364.99	166.23
365.201	-61.1
365.412	22.87
365.623	-65.19
365.834	18.77
366.045	92.5
366.256	141.65
366.467	35.16
366.678	-1.71
366.889	51.54
367.1	57.68
367.311	45.4
367.522	2.39
367.733	31.06
367.944	39.25
368.155	-46.76
368.366	-30.38
368.577	158.03
368.788	10.58
368.999	84.31
369.209	-1.71
369.42	233.81
369.631	203.09
369.842	119.12
370.053	78.16
370.264	92.5
370.474	-114.34
370.685	94.55
370.896	18.77
371.107	121.17
371.317	84.31
371.528	82.26
371.739	164.18
371.95	47.44
372.16	57.68
372.371	-73.39
372.582	0.34
372.792	49.49
373.003	10.58
373.214	45.4
373.424	63.83
373.635	-30.38
373.846	22.87
374.056	22.87
374.267	24.92
374.477	76.12
374.688	12.63
374.898	72.02
375.109	90.45
375.319	90.45
375.53	82.26
375.74	110.93
375.951	-57
376.161	2.39
376.372	110.93
376.582	33.11
376.793	41.3
377.003	-30.38
377.214	-20.14
377.424	39.25
377.635	12.63
377.845	12.63
378.055	137.56
378.266	-1.71
378.476	-3.75
378.686	61.78
378.897	53.59
379.107	127.32
379.317	69.97
379.528	-16.04
379.738	112.98
379.948	-75.43
380.158	49.49
380.369	-22.19
380.579	61.78
380.789	41.3
380.999	76.12
381.21	115.03
381.42	162.13
381.63	26.96
381.84	129.36
382.05	90.45
382.261	117.08
382.471	59.73
382.681	-36.52
382.891	172.37
383.101	51.54
383.311	-83.63
383.521	-24.23
383.731	67.92
383.941	172.37
384.151	22.87
384.361	49.49
384.571	18.77
384.781	35.16
384.991	123.22
385.201	178.51
385.411	43.35
385.621	29.01
385.831	29.01
386.041	51.54
386.251	-50.86
386.461	123.22
386.671	57.68
386.881	4.44
387.091	84.31
387.301	117.08
387.511	39.25
387.72	67.92
387.93	65.88
388.14	-73.39
388.35	-57
388.56	45.4
388.769	104.79
388.979	53.59
389.189	-30.38
389.399	69.97
389.609	133.46
389.818	78.16
390.028	29.01
390.238	76.12
390.447	-34.47
390.657	84.31
390.867	47.44
391.076	-73.39
391.286	78.16
391.496	10.58
391.705	47.44
391.915	65.88
392.125	117.08
392.334	49.49
392.544	141.65
392.753	-20.14
392.963	-79.53
393.172	-11.95
393.382	-26.28
393.591	201.04
393.801	-20.14
394.01	84.31
394.22	94.55
394.429	-11.95
394.639	37.2
394.848	39.25
395.058	26.96
395.267	47.44
395.477	45.4
395.686	35.16
395.895	164.18
396.105	121.17
396.314	45.4
396.524	47.44
396.733	63.83
396.942	45.4
397.152	98.64
397.361	155.99
397.57	47.44
397.78	78.16
397.989	47.44
398.198	188.75
398.407	82.26
398.617	88.4
398.826	76.12
399.035	26.96
399.244	133.46
399.453	80.21
399.663	-3.75
399.872	69.97
400.081	-5.8
400.29	78.16
400.499	29.01
400.708	67.92
400.917	94.55
401.127	-61.1
401.336	-7.85
401.545	135.51
401.754	53.59
401.963	45.4
402.172	10.58
402.381	-54.95
402.59	-28.33
402.799	51.54
403.008	78.16
403.217	90.45
403.426	-22.19
403.635	39.25
403.844	4.44
404.053	39.25
404.262	6.49
404.471	166.23
404.68	51.54
404.888	26.96
405.097	0.34
405.306	76.12
405.515	80.21
405.724	49.49
405.933	121.17
406.142	86.36
406.35	112.98
406.559	-73.39
406.768	29.01
406.977	186.71
407.185	31.06
407.394	65.88
407.603	-61.1
407.812	12.63
408.02	155.99
408.229	39.25
408.438	74.07
408.646	-67.24
408.855	-7.85
409.064	59.73
409.272	10.58
409.481	14.68
409.69	-36.52
409.898	-52.91
410.107	78.16
410.315	121.17
410.524	-5.8
410.733	59.73
410.941	59.73
411.15	104.79
411.358	94.55
411.567	198.99
411.775	-26.28
411.984	61.78
412.192	84.31
412.401	39.25
412.609	123.22
412.818	74.07
413.026	102.74
413.234	98.64
413.443	-9.9
413.651	29.01
413.86	35.16
414.068	72.02
414.276	223.57
414.485	-52.91
414.693	96.6
414.901	186.71
415.11	82.26
415.318	53.59
415.526	53.59
415.734	131.41
415.943	133.46
416.151	39.25
416.359	-11.95
416.567	88.4
416.776	117.08
416.984	98.64
417.192	180.56
417.4	-28.33
417.608	51.54
417.817	-28.33
418.025	98.64
418.233	147.8
418.441	-1.71
418.649	-52.91
418.857	35.16
419.065	162.13
419.273	-9.9
419.481	88.4
419.689	82.26
419.897	-5.8
420.105	45.4
420.313	112.98
420.521	76.12
420.729	143.7
420.937	72.02
421.145	4.44
421.353	51.54
421.561	160.08
421.769	59.73
421.977	-32.43
422.185	139.6
422.393	37.2
422.601	96.6
422.809	26.96
423.017	59.73
423.224	8.53
423.432	96.6
423.64	39.25
423.848	53.59
424.056	-22.19
424.263	115.03
424.471	78.16
424.679	160.08
424.887	2.39
425.094	129.36
425.302	88.4
425.51	-65.19
425.718	155.99
425.925	106.84
426.133	12.63
426.341	168.27
426.548	47.44
426.756	88.4
426.964	112.98
427.171	37.2
427.379	115.03
427.586	55.64
427.794	92.5
428.001	182.61
428.209	47.44
428.417	127.32
428.624	110.93
428.832	61.78
429.039	-3.75
429.247	127.32
429.454	162.13
429.662	229.71
429.869	127.32
430.076	82.26
430.284	196.95
430.491	188.75
430.699	117.08
430.906	162.13
431.114	127.32
431.321	166.23
431.528	100.69
431.736	153.94
431.943	205.14
432.15	147.8
432.358	170.32
432.565	192.85
432.772	-20.14
432.979	160.08
433.187	176.47
433.394	209.23
433.601	61.78
433.808	162.13
434.016	229.71
434.223	174.42
434.43	158.03
434.637	282.96
434.844	287.06
435.052	223.57
435.259	258.39
435.466	188.75
435.673	244.05
435.88	262.48
436.087	313.68
436.294	297.3
436.501	203.09
436.708	225.62
436.915	291.15
437.122	393.55
437.329	244.05
437.537	295.25
437.743	317.78
437.95	440.65
438.157	338.26
438.364	301.39
438.571	405.84
438.778	442.7
438.985	381.26
439.192	467.28
439.399	438.61
439.606	407.89
439.813	446.8
440.02	686.41
440.227	657.74
440.433	526.67
440.64	479.57
440.847	491.85
441.054	563.53
441.261	665.93
441.467	602.44
441.674	557.39
441.881	713.03
442.088	612.68
442.294	692.55
442.501	809.29
442.708	782.67
442.914	745.8
443.121	862.54
443.328	852.3
443.534	831.82
443.741	887.11
443.948	827.72
444.154	870.73
444.361	1053
444.568	1003.85
444.774	977.22
444.981	917.83
445.187	1147.2
445.394	1057.09
445.6	1175.88
445.807	1270.08
446.013	1235.27
446.22	1206.59
446.426	1390.91
446.633	1431.87
446.839	1569.09
447.046	1321.28
447.252	1669.44
447.459	1630.52
447.665	1671.48
447.871	1775.93
448.078	1917.24
448.284	1812.79
448.491	1911.1
448.697	2050.36
448.903	2175.28
449.11	2062.65
449.316	2064.69
449.522	2275.63
449.728	2400.56
449.935	2576.69
450.141	2517.29
450.347	2654.51
450.553	2627.89
450.76	2718
450.966	2916.65
451.172	2912.55
451.378	3064.1
451.584	3199.27
451.791	3408.16
451.997	3492.13
452.203	3510.56
452.409	3883.29
452.615	3795.23
452.821	3696.92
453.027	3852.57
453.233	4364.56
453.44	4071.7
453.646	4475.15
453.852	4446.48
454.058	4829.45
454.264	4915.47
454.47	5040.39
454.676	5042.44
454.882	5884.16
455.088	5546.24
455.294	5853.44
455.5	6209.78
455.705	6465.78
455.911	6420.72
456.117	6451.44
456.323	6854.89
456.529	7022.83
456.735	7540.96
456.941	7680.22
457.147	8098.01
457.352	8186.07
457.558	8360.15
457.764	9107.66
457.97	9328.84
458.176	9652.42
458.381	9996.48
458.587	10356.92
458.793	10690.74
458.999	10635.44
459.204	12144.8
459.41	12593.3
459.616	12296.35
459.821	13006.99
460.027	13785.22
460.233	14356.6
460.438	14397.56
460.644	15183.98
460.85	15204.46
461.055	15716.45
461.261	16640.09
461.466	16240.73
461.672	16670.81
461.878	18923.57
462.083	18446.4
462.289	18872.37
462.494	19714.09
462.7	19564.59
462.905	20099.11
463.111	21438.48
463.316	22798.33
463.522	22904.82
463.727	23959.53
463.932	24555.49
464.138	25724.88
464.343	26720.19
464.549	26867.64
464.754	28643.23
464.959	29521.81
465.165	29949.84
465.37	29605.78
465.575	29685.65
465.781	31684.47
465.986	32632.68
466.191	32370.54
466.397	32530.28
466.602	31666.03
466.807	33666.9
467.012	33918.8
467.218	34754.37
467.423	34508.61
467.628	36038.45
467.833	37576.47
468.038	36837.16
468.244	36069.17
468.449	38014.74
468.654	37336.86
468.859	37162.78
469.064	37531.42
469.269	36411.18
469.474	36804.39
469.679	37662.49
469.885	36687.65
470.09	36878.11
470.295	36980.51
470.5	36060.98
470.705	36351.79
470.91	35733.3
471.115	35561.27
471.32	35962.67
471.525	35553.08
471.73	34457.42
471.935	34344.78
472.139	33046.37
472.344	32927.58
472.549	32962.4
472.754	31965.04
472.959	31672.18
473.164	30525.32
473.369	29714.32
473.574	30887.81
473.778	30234.5
473.983	29736.85
474.188	29169.56
474.393	27709.36
474.598	27803.57
474.802	27109.3
475.007	27045.82
475.212	26433.47
475.417	25479.12
475.621	25276.37
475.826	25098.2
476.031	24152.04
476.235	23914.47
476.44	23762.92
476.645	23234.55
476.849	23164.92
477.054	22523.9
477.259	22075.4
477.463	22061.06
477.668	21237.78
477.872	21434.38
478.077	20684.83
478.282	20332.58
478.486	20236.32
478.691	20047.91
478.895	19902.5
479.1	19525.68
479.304	19439.66
479.509	18798.65
479.713	19040.31
479.918	18602.04
480.122	18339.9
480.326	18374.72
480.531	18217.02
480.735	18217.02
480.94	17598.54
481.144	18520.12
481.348	17459.27
481.553	17641.54
481.757	17033.3
481.961	17391.69
482.166	17199.18
482.37	17092.69
482.574	16582.74
482.778	16773.21
482.983	16805.97
483.187	16547.93
483.391	16371.8
483.595	16476.25
483.8	15880.29
484.004	15779.94
484.208	16052.32
484.412	15448.17
484.616	15407.21
484.821	15435.88
485.025	14954.61
485.229	15040.62
485.433	14731.38
485.637	14876.79
485.841	14389.37
486.045	14162.05
486.249	14188.67
486.453	13992.06
486.657	13629.57
486.861	13426.82
487.065	12953.74
487.269	12959.89
487.473	12505.24
487.677	12847.25
487.881	12796.05
488.085	12279.96
488.289	12103.84
488.493	11901.09
488.697	11577.51
488.901	11440.29
489.105	11206.83
489.309	11139.24
489.512	10979.5
489.716	10975.41
489.92	10408.12
490.124	10254.52
490.328	10213.56
490.531	9889.98
490.735	10043.58
490.939	9537.73
491.143	9488.58
491.346	9484.48
491.55	9343.17
491.754	9005.26
491.958	8954.06
492.161	8689.87
492.365	8462.55
492.569	8372.44
492.772	8497.36
492.976	8311
493.18	8198.36
493.383	8112.35
493.587	7999.71
493.79	7805.15
493.994	7631.07
494.197	7700.7
494.401	7739.62
494.605	7575.78
494.808	7629.02
495.012	7454.95
495.215	7440.61
495.419	7506.15
495.622	7053.55
495.825	7112.94
496.029	7100.65
496.232	7391.46
496.436	6971.63
496.639	7127.27
496.843	7057.64
497.046	6889.71
497.249	7215.34
497.453	7141.61
497.656	6971.63
497.859	7172.33
498.063	6975.72
498.266	7198.95
498.469	7135.46
498.673	7155.94
498.876	7176.42
499.079	7078.12
499.282	7033.07
499.485	7393.51
499.689	7256.29
499.892	7549.15
500.095	7244.01
500.298	7389.41
500.501	7454.95
500.705	7581.92
500.908	7573.73
501.111	7678.18
501.314	7577.83
501.517	7854.3
501.72	7760.09
501.923	7860.45
502.126	8055
502.329	8292.57
502.532	8374.49
502.735	8347.86
502.938	8749.26
503.141	8573.14
503.344	8716.5
503.547	8685.78
503.75	8771.79
503.953	9015.5
504.156	9046.22
504.359	9275.59
504.562	9038.03
504.765	9654.47
504.968	9793.73
505.17	9773.25
505.373	9736.38
505.576	10166.46
505.779	10166.46
505.982	10416.31
506.185	10510.52
506.387	10723.51
506.59	11086
506.793	11313.32
506.996	11212.97
507.198	11868.32
507.401	11841.7
507.604	12097.69
507.807	12245.15
508.009	12501.14
508.212	12824.72
508.415	12966.03
508.617	13129.87
508.82	13551.75
509.022	13408.39
509.225	14381.18
509.428	14260.35
509.63	14581.88
509.833	14698.61
510.035	15577.19
510.238	15446.12
510.44	15843.43
510.643	16177.25
510.845	16812.12
511.048	16822.36
511.25	17080.4
511.453	17412.17
511.655	18278.46
511.858	18503.74
512.06	18864.18
512.262	19392.56
512.465	19507.24
512.667	20172.83
512.87	20520.99
513.072	21223.44
513.274	21815.3
513.477	22239.23
513.679	22722.55
513.881	23140.34
514.084	23519.21
514.286	24193
514.488	24741.85
514.69	25495.5
514.893	25927.63
515.095	25784.27
515.297	26849.21
515.499	26867.64
515.701	27635.63
515.904	28637.09
516.106	28884.89
516.308	29667.22
516.51	30271.37
516.712	30609.28
516.914	31414.13
517.116	31876.97
517.318	32505.7
517.52	33570.65
517.722	33326.94
517.925	34043.73
518.127	35043.13
518.329	35796.79
518.531	35659.57
518.733	36785.96
518.935	37265.18
519.136	37617.43
519.338	38573.83
519.54	39253.76
519.742	39700.22
519.944	39905.01
520.146	40537.83
520.348	41246.43
520.55	41787.1
520.752	42241.74
520.954	43126.47
521.155	43089.6
521.357	44234.42
521.559	44494.51
521.761	45186.72
521.963	45418.14
522.164	45577.89
522.366	45899.42
522.568	46575.25
522.77	46610.06
522.971	47060.62
523.173	47189.64
523.375	48197.24
523.576	47765.12
523.778	47715.97
523.98	48610.93
524.181	48907.88
524.383	48852.59
524.584	49213.03
524.786	49499.75
524.988	49088.1
525.189	49487.46
525.391	49290.85
525.592	50071.13
525.794	49464.93
525.995	49671.78
526.197	49778.27
526.398	49227.37
526.6	49110.63
526.801	49411.68
527.003	49069.67
527.204	48961.13
527.406	49122.92
527.607	48647.79
527.808	48938.6
528.01	47515.26
528.211	47832.7
528.412	48234.1
528.614	47767.16
528.815	47296.13
529.016	47199.88
529.218	46276.24
529.419	46173.84
529.62	45618.85
529.822	45338.27
530.023	44539.57
530.224	44990.12
530.425	44867.24
530.626	43380.42
530.828	43200.19
531.029	43404.99
531.23	42514.12
531.431	41787.1
531.632	41103.07
531.833	41078.5
532.035	40644.33
532.236	40042.23
532.437	39737.08
532.638	38727.43
532.839	38987.52
533.04	38420.24
533.241	37361.44
533.442	37443.35
533.643	36642.6
533.844	36355.88
534.045	35819.31
534.246	34959.17
534.447	34959.17
534.648	34299.72
534.849	33742.67
535.05	33111.9
535.251	32995.17
535.451	32804.7
535.652	32329.58
535.853	31502.2
536.054	31645.55
536.255	30640
536.456	30261.13
536.657	30406.53
536.857	29581.2
537.058	29069.21
537.259	29290.39
537.46	28868.51
537.66	27910.06
537.861	28022.7
538.062	27180.98
538.263	26920.89
538.463	26771.39
538.664	26374.08
538.865	26124.23
539.065	25841.61
539.266	25085.91
539.466	25524.18
539.667	24502.24
539.868	24715.23
540.068	24279.01
540.269	24016.87
540.469	23648.24
540.67	23326.71
540.87	22999.03
541.071	22945.78
541.271	22509.57
541.472	22882.3
541.672	21907.46
541.873	22009.86
542.073	21190.67
542.274	21397.52
542.474	21241.87
542.675	20779.03
542.875	20557.85
543.075	20471.84
543.276	19953.7
543.476	20070.44
543.676	19613.74
543.877	19605.55
544.077	19337.26
544.277	19025.97
544.478	18739.26
544.678	18911.28
544.878	18247.74
545.078	18206.78
545.279	17922.12
545.479	17862.72
545.679	17571.91
545.879	17408.08
546.079	17250.38
546.28	17027.15
546.48	16679
546.68	16715.86
546.88	16388.19
547.08	16416.86
547.28	16306.27
547.48	15804.52
547.68	15773.8
547.88	15556.71
548.081	15454.31
548.281	14866.55
548.481	14884.98
548.681	14809.2
548.881	14620.79
549.081	14530.68
549.28	14272.64
549.48	14162.05
549.68	13873.28
549.88	13742.21
550.08	13332.62
550.28	13183.12
550.48	13162.64
550.68	12976.27
550.88	12587.16
551.08	12425.37
551.279	12558.49
551.479	12089.5
551.679	12218.52
551.879	11741.35
552.079	11679.91
552.278	11540.65
552.478	11487.4
552.678	11262.12
552.878	11264.17
553.077	10969.26
553.277	10606.77
553.477	10617.01
553.676	10404.02
553.876	10145.98
554.076	10094.78
554.275	9808.06
554.475	9586.88
554.674	9631.94
554.874	9461.96
555.074	9369.8
555.273	9109.71
555.473	9089.23
555.672	8620.24
555.872	8732.88
556.071	8571.09
556.271	8589.52
556.47	8212.7
556.67	8095.96
556.869	7903.45
557.068	7770.33
557.268	7766.24
557.467	7538.91
557.667	7645.41
557.866	7301.35
558.065	7205.1
558.265	7143.66
558.464	7065.83
558.663	7002.35
558.863	6846.7
559.062	6734.06
559.261	6549.75
559.461	6590.7
559.66	6394.1
559.859	6168.82
560.058	6025.47
560.258	6111.48
560.457	6062.33
560.656	5964.03
560.855	5722.37
561.054	5828.86
561.253	5585.15
561.453	5587.2
561.652	5435.65
561.851	5613.82
562.05	5198.09
562.249	5290.24
562.448	5169.41
562.647	5085.45
562.846	4913.42
563.045	4823.31
563.244	4981
563.443	4911.37
563.642	4675.85
563.841	4585.74
564.04	4444.43
564.239	4555.02
564.438	4413.71
564.637	4286.74
564.836	4313.36
565.035	4280.6
565.234	4227.35
565.432	4094.23
565.631	4077.85
565.83	4067.61
566.029	3901.72
566.228	3797.28
566.427	4053.27
566.625	3696.92
566.824	3858.71
567.023	3660.06
567.222	3512.61
567.42	3625.25
567.619	3422.5
567.818	3627.29
568.016	3543.33
568.215	3498.27
568.414	3334.43
568.612	3270.95
568.811	3207.46
569.01	3178.79
569.208	2978.09
569.407	3232.04
569.605	3094.82
569.804	3021.1
570.002	3025.19
570.201	2804.01
570.4	2924.84
570.598	2847.02
570.797	2789.67
570.995	2724.14
571.193	2677.04
571.392	2660.65
571.59	2535.73
571.789	2634.03
571.987	2666.8
572.186	2599.21
572.384	2369.84
572.582	2406.7
572.781	2498.86
572.979	2304.31
573.177	2330.93
573.376	2349.36
573.574	2212.15
573.772	2175.28
573.971	2222.39
574.169	2074.93
574.367	2163
574.565	2007.35
574.763	2068.79
574.962	2025.78
575.16	1962.3
575.358	1917.24
575.556	1964.34
575.754	1876.28
575.952	1941.82
576.151	1792.31
576.349	1913.14
576.547	1630.52
576.745	1841.47
576.943	1671.48
577.141	1698.11
577.339	1585.47
577.537	1610.04
577.735	1663.29
577.933	1589.57
578.131	1513.79
578.329	1642.81
578.527	1573.18
578.725	1564.99
578.923	1407.3
579.121	1487.17
579.319	1464.64
579.516	1450.3
579.714	1622.33
579.912	1452.35
580.11	1186.12
580.308	1251.65
580.506	1308.99
580.704	1247.55
580.901	1214.79
581.099	1333.57
581.297	1110.34
581.495	1235.27
581.692	1186.12
581.89	1243.46
582.088	1151.3
582.285	1204.55
582.483	1128.77
582.681	1126.72
582.878	1118.53
583.076	997.7
583.274	1065.29
583.471	1190.21
583.669	979.27
583.866	979.27
584.064	995.65
584.262	975.17
584.459	962.89
584.657	948.55
584.854	1065.29
585.052	919.88
585.249	1036.61
585.447	891.21
585.644	858.44
585.841	1028.42
586.039	975.17
586.236	966.98
586.434	764.23
586.631	835.91
586.828	784.71
587.026	862.54
587.223	663.88
587.42	764.23
587.618	698.7
587.815	827.72
588.012	743.75
588.21	717.13
588.407	762.19
588.604	821.58
588.801	729.42
588.999	776.52
589.196	731.47
589.393	620.88
589.59	717.13
589.787	749.9
589.984	631.12
590.182	659.79
590.379	659.79
590.576	743.75
590.773	622.92
590.97	610.64
591.167	696.65
591.364	667.98
591.561	618.83
591.758	790.86
591.955	758.09
592.152	663.88
592.349	651.6
592.546	606.54
592.743	629.07
592.94	659.79
593.137	725.32
593.334	680.27
593.531	776.52
593.727	670.03
593.924	676.17
594.121	612.68
594.318	584.01
594.515	692.55
594.712	844.1
594.908	698.7
595.105	536.91
595.302	719.18
595.499	612.68
595.696	799.05
595.892	743.75
596.089	846.15
596.286	727.37
596.482	858.44
596.679	921.93
596.876	760.14
597.072	923.98
597.269	831.82
597.466	835.91
597.662	889.16
597.859	885.06
598.055	932.17
598.252	940.36
598.448	1059.14
598.645	1141.06
598.841	1218.88
599.038	1167.68
599.234	1241.41
599.431	1278.27
599.627	1386.82
599.824	1272.13
600.02	1284.42
600.217	1378.62
600.413	1352
600.609	1585.47
600.806	1800.51
601.002	1620.28
601.198	1513.79
601.395	1837.37
601.591	1823.03
601.787	1886.52
601.984	1958.2
602.18	2126.13
602.376	2191.67
602.572	2181.43
602.769	2261.3
602.965	2181.43
603.161	2509.1
603.357	2562.35
603.553	2609.45
603.75	2707.76
603.946	2701.61
604.142	2683.18
604.338	2930.98
604.534	3027.24
604.73	3111.21
604.926	3182.88
605.122	3422.5
605.318	3410.21
605.514	3526.94
605.71	3490.08
605.906	3830.04
606.102	3774.75
606.298	4090.13
606.494	4122.9
606.69	4155.67
606.886	4215.06
607.082	4374.8
607.278	4464.91
607.474	4729.1
607.67	4942.09
607.866	4786.44
608.062	4993.29
608.257	5216.52
608.453	5325.06
608.649	5564.67
608.845	5411.07
609.041	5755.13
609.236	6019.32
609.432	6179.06
609.628	6217.97
609.824	6488.31
610.019	6457.59
610.215	6748.4
610.411	7020.78
610.606	7186.66
610.802	7223.53
610.998	7368.93
611.193	7678.18
611.389	7721.18
611.584	8089.82
611.78	8118.49
611.976	8253.66
612.171	8827.09
612.367	8878.29
612.562	9001.16
612.758	9005.26
612.953	9466.05
613.149	9953.47
613.344	10068.16
613.539	10531
613.735	10598.58
613.93	11108.52
614.126	11219.11
614.321	11354.28
614.517	11970.72
614.712	12159.13
614.907	12521.62
615.103	12777.62
615.298	12765.33
615.493	13398.15
615.688	13664.39
615.884	14342.27
616.079	14102.65
616.274	14704.76
616.47	14874.74
616.665	15544.42
616.86	15868
617.055	16394.33
617.25	16377.95
617.445	17072.21
617.641	17248.33
617.836	17690.7
618.031	18200.64
618.226	18776.12
618.421	19128.37
618.616	19623.98
618.811	19677.23
619.006	20674.59
619.201	20822.04
619.396	21512.21
619.591	21387.28
619.786	22286.34
619.981	22626.3
620.176	23138.29
620.371	22982.65
620.566	24203.24
620.761	24723.42
620.956	25423.83
621.151	25538.51
621.346	26169.29
621.541	26314.69
621.735	27267
621.93	27162.55
622.125	27889.58
622.32	28102.57
622.515	28882.84
622.709	29472.66
622.904	30011.28
623.099	30373.77
623.294	31444.85
623.488	31446.9
623.683	31717.23
623.878	32272.23
624.072	33034.08
624.267	33392.47
624.462	34115.4
624.656	34346.83
624.851	35252.03
625.046	35444.54
625.24	35714.87
625.435	36155.18
625.629	37187.36
625.824	37263.13
626.018	37807.89
626.213	37670.68
626.407	38180.62
626.602	38608.65
626.796	39376.64
626.991	39509.75
627.185	39898.87
627.38	40122.1
627.574	39923.44
627.768	40204.02
627.963	40910.57
628.157	40345.33
628.352	40933.09
628.546	40900.33
628.74	41053.92
628.935	40423.15
629.129	40724.2
629.323	40011.51
629.517	39737.08
629.712	39624.44
629.906	39843.57
630.1	38612.74
630.294	38725.38
630.489	37850.9
630.683	37986.07
630.877	36841.25
631.071	36079.41
631.265	35573.56
631.459	34623.3
631.653	33804.11
631.848	33525.59
632.042	32538.47
632.236	31690.61
632.43	30560.13
632.624	29960.08
632.818	28934.04
633.012	27969.45
633.206	27316.15
633.4	26490.82
633.594	25436.11
633.788	24397.79
633.982	23705.58
634.176	22931.45
634.369	21866.5
634.563	20951.06
634.757	20432.93
634.951	19691.56
635.145	19025.97
635.339	18030.66
635.533	17363.02
635.726	16552.02
635.92	15585.38
636.114	15431.79
636.308	14788.72
636.501	13951.1
636.695	13525.13
636.889	12830.87
637.083	12279.96
637.276	11796.64
637.47	11233.45
637.664	10993.84
637.857	10471.61
638.051	10094.78
638.244	9779.39
638.438	9246.92
638.632	9017.55
638.825	8378.58
639.019	8468.69
639.212	7725.28
639.406	7686.37
639.599	7264.49
639.793	6926.57
639.986	6912.24
640.18	6670.58
640.373	6203.64
640.567	6082.81
640.76	5753.09
640.954	5505.28
641.147	5302.53
641.34	5093.64
641.534	5040.39
641.727	4817.16
641.92	4704.53
642.114	4299.03
642.307	4354.32
642.5	4149.53
642.694	3954.97
642.887	3698.97
643.08	3643.68
643.273	3537.18
643.467	3328.29
643.66	3193.12
643.853	3117.35
644.046	3008.81
644.239	2984.23
644.432	2785.58
644.626	2568.49
644.819	2570.54
645.012	2470.19
645.205	2423.09
645.398	2318.64
645.591	2119.99
645.784	1999.16
645.977	1988.92
646.17	1937.72
646.363	1829.18
646.556	1870.14
646.749	1642.81
646.942	1702.2
647.135	1675.58
647.328	1560.89
647.521	1569.09
647.714	1298.75
647.907	1294.66
648.099	1304.9
648.292	1358.14
648.485	1276.23
648.678	1093.96
648.871	1159.49
649.064	1122.63
649.256	923.98
649.449	964.93
649.642	938.31
649.835	909.64
650.027	799.05
650.22	985.41
650.413	829.77
650.605	977.22
650.798	745.8
650.991	651.6
651.183	706.89
651.376	772.43
651.568	706.89
651.761	659.79
651.954	596.3
652.146	536.91
652.339	571.72
652.531	663.88
652.724	518.48
652.916	493.9
653.109	434.51
653.301	575.82
653.494	530.77
653.686	440.65
653.879	506.19
654.071	483.66
654.263	416.08
654.456	362.83
654.648	555.34
654.84	475.47
655.033	373.07
655.225	471.37
655.417	272.72
655.61	487.76
655.802	428.37
655.994	391.5
656.186	266.58
656.379	481.61
656.571	221.52
656.763	315.73
656.955	289.1
657.148	360.78
657.34	448.85
657.532	239.95
657.724	352.59
657.916	256.34
658.108	438.61
658.3	280.91
658.492	295.25
658.684	190.8
658.876	358.74
659.068	135.51
659.26	141.65
659.452	172.37
659.644	242
659.836	338.26
660.028	293.2
660.22	213.33
660.412	307.54
660.604	215.38
660.796	162.13
660.988	307.54
661.18	98.64
661.372	311.63
661.563	133.46
661.755	162.13
661.947	102.74
662.139	88.4
662.331	76.12
662.522	147.8
662.714	102.74
662.906	78.16
663.097	133.46
663.289	164.18
663.481	45.4
663.673	215.38
663.864	125.27
664.056	221.52
664.247	127.32
664.439	149.84
664.631	141.65
664.822	153.94
665.014	129.36
665.205	69.97
665.397	223.57
665.588	119.12
665.78	166.23
665.971	117.08
666.163	100.69
666.354	188.75
666.546	72.02
666.737	80.21
666.929	80.21
667.12	72.02
667.311	176.47
667.503	115.03
667.694	158.03
667.885	104.79
668.077	182.61
668.268	37.2
668.459	139.6
668.651	121.17
668.842	139.6
669.033	102.74
669.224	149.84
669.416	276.82
669.607	33.11
669.798	29.01
669.989	209.23
670.18	96.6
670.371	151.89
670.563	31.06
670.754	180.56
670.945	108.88
671.136	201.04
671.327	149.84
671.518	225.62
671.709	244.05
671.9	108.88
672.091	192.85
672.282	178.51
672.473	164.18
672.664	6.49
672.855	90.45
673.046	106.84
673.237	201.04
673.428	90.45
673.619	215.38
673.809	141.65
674	196.95
674.191	160.08
674.382	67.92
674.573	155.99
674.764	149.84
674.954	233.81
675.145	82.26
675.336	76.12
675.527	123.22
675.717	131.41
675.908	94.55
676.099	166.23
676.289	141.65
676.48	-26.28
676.671	158.03
676.861	119.12
677.052	135.51
677.243	61.78
677.433	53.59
677.624	233.81
677.814	223.57
678.005	76.12
678.195	250.19
678.386	39.25
678.576	192.85
678.767	39.25
678.957	86.36
679.148	155.99
679.338	201.04
679.529	131.41
679.719	135.51
679.909	207.19
680.1	201.04
680.29	143.7
680.481	45.4
680.671	192.85
680.861	102.74
681.052	205.14
681.242	86.36
681.432	186.71
681.622	248.15
681.813	-7.85
682.003	196.95
682.193	59.73
682.383	174.42
682.573	94.55
682.764	78.16
682.954	168.27
683.144	211.28
683.334	172.37
683.524	110.93
683.714	237.91
683.904	190.8
684.094	127.32
684.284	211.28
684.474	280.91
684.664	250.19
684.854	203.09
685.044	170.32
685.234	196.95
685.424	211.28
685.614	246.1
685.804	309.58
685.994	184.66
686.184	155.99
686.374	182.61
686.564	219.47
686.753	129.36
686.943	84.31
687.133	184.66
687.323	164.18
687.513	272.72
687.702	190.8
687.892	139.6
688.082	227.67
688.272	172.37
688.461	174.42
688.651	250.19
688.841	141.65
689.03	129.36
689.22	186.71
689.41	276.82
689.599	201.04
689.789	67.92
689.979	244.05
690.168	225.62
690.358	219.47
690.547	133.46
690.737	194.9
690.926	207.19
691.116	190.8
691.305	201.04
691.495	276.82
691.684	29.01
691.874	178.51
692.063	158.03
692.252	252.24
692.442	258.39
692.631	174.42
692.82	98.64
693.01	139.6
693.199	172.37
693.388	184.66
693.578	184.66
693.767	203.09
693.956	219.47
694.146	133.46
694.335	203.09
694.524	127.32
694.713	219.47
694.902	215.38
695.092	88.4
695.281	203.09
695.47	155.99
695.659	176.47
695.848	201.04
696.037	147.8
696.226	176.47
696.415	119.12
696.604	182.61
696.793	315.73
696.982	172.37
697.171	379.22
697.36	112.98
697.549	168.27
697.738	69.97
697.927	149.84
698.116	102.74
698.305	198.99
698.494	217.43
698.683	139.6
698.872	356.69
699.061	160.08
699.25	145.75
699.438	162.13
699.627	248.15
699.816	295.25
700.005	100.69
700.193	129.36
700.382	256.34
700.571	198.99
700.76	182.61
700.948	205.14
701.137	145.75
701.326	184.66
701.514	96.6
701.703	246.1
701.892	137.56
702.08	340.3
702.269	141.65
702.457	131.41
702.646	190.8
702.834	125.27
703.023	221.52
703.212	151.89
703.4	174.42
703.589	104.79
703.777	63.83
703.965	104.79
704.154	121.17
704.342	151.89
704.531	33.11
704.719	145.75
704.907	293.2
705.096	135.51
705.284	53.59
705.472	258.39
705.661	225.62
705.849	248.15
706.037	194.9
706.226	174.42
706.414	219.47
706.602	96.6
706.79	168.27
706.979	123.22
707.167	160.08
707.355	-22.19
707.543	196.95
707.731	188.75
707.919	162.13
708.107	143.7
708.296	117.08
708.484	176.47
708.672	153.94
708.86	196.95
709.048	149.84
709.236	82.26
709.424	219.47
709.612	219.47
709.8	172.37
709.988	192.85
710.176	180.56
710.364	287.06
710.551	151.89
710.739	119.12
710.927	203.09
711.115	192.85
711.303	209.23
711.491	248.15
711.679	100.69
711.866	219.47
712.054	133.46
712.242	203.09
712.43	221.52
712.617	141.65
712.805	192.85
712.993	153.94
713.181	88.4
713.368	203.09
713.556	117.08
713.744	141.65
713.931	317.78
714.119	262.48
714.306	80.21
714.494	84.31
714.682	129.36
714.869	119.12
715.057	155.99
715.244	8.53
715.432	164.18
715.619	119.12
715.807	151.89
715.994	108.88
716.182	217.43
716.369	198.99
716.556	203.09
716.744	129.36
716.931	106.84
717.119	129.36
717.306	207.19
717.493	190.8
717.681	166.23
717.868	203.09
718.055	239.95
718.242	190.8
718.43	180.56
718.617	246.1
718.804	160.08
718.991	201.04
719.179	198.99
719.366	178.51
719.553	186.71
719.74	237.91
719.927	192.85
720.114	162.13
720.301	90.45
720.488	149.84
720.676	92.5
720.863	280.91
721.05	325.97
721.237	207.19
721.424	235.86
721.611	158.03
721.798	98.64
721.985	160.08
722.172	155.99
722.358	221.52
722.545	285.01
722.732	319.82
722.919	270.67
723.106	213.33
723.293	188.75
723.48	145.75
723.667	110.93
723.853	246.1
724.04	287.06
724.227	266.58
724.414	213.33
724.6	252.24
724.787	336.21
724.974	379.22
725.161	201.04
725.347	121.17
725.534	184.66
725.72	227.67
725.907	313.68
726.094	233.81
726.28	164.18
726.467	141.65
726.653	115.03
726.84	352.59
727.027	299.34
727.213	94.55
727.4	147.8
727.586	155.99
727.773	219.47
727.959	155.99
728.145	239.95
728.332	184.66
728.518	135.51
728.705	217.43
728.891	180.56
729.077	194.9
729.264	76.12
729.45	248.15
729.636	297.3
729.823	162.13
730.009	186.71
730.195	250.19
730.382	235.86
730.568	145.75
730.754	151.89
730.94	162.13
731.126	190.8
731.313	180.56
731.499	201.04
731.685	289.1
731.871	252.24
732.057	248.15
732.243	223.57
732.429	176.47
732.615	301.39
732.801	260.43
732.987	182.61
733.173	266.58
733.359	211.28
733.545	203.09
733.731	246.1
733.917	282.96
734.103	235.86
734.289	268.63
734.475	198.99
734.661	323.92
734.847	217.43
735.033	256.34
735.219	270.67
735.404	145.75
735.59	110.93
735.776	233.81
735.962	145.75
736.148	389.46
736.333	297.3
736.519	321.87
736.705	160.08
736.89	192.85
737.076	205.14
737.262	106.84
737.447	205.14
737.633	221.52
737.819	297.3
738.004	198.99
738.19	278.87
738.375	270.67
738.561	215.38
738.747	285.01
738.932	147.8
739.118	291.15
739.303	248.15
739.489	215.38
739.674	196.95
739.859	168.27
740.045	268.63
740.23	196.95
740.416	74.07
740.601	254.29
740.786	215.38
740.972	121.17
741.157	239.95
741.342	145.75
741.528	115.03
741.713	217.43
741.898	227.67
742.084	190.8
742.269	274.77
742.454	188.75
742.639	268.63
742.824	262.48
743.01	350.54
743.195	285.01
743.38	223.57
743.565	198.99
743.75	221.52
743.935	295.25
744.12	358.74
744.305	143.7
744.49	209.23
744.675	194.9
744.86	158.03
745.045	287.06
745.23	221.52
745.415	242
745.6	280.91
745.785	172.37
745.97	299.34
746.155	334.16
746.34	319.82
746.525	303.44
746.71	340.3
746.895	102.74
747.079	131.41
747.264	127.32
747.449	262.48
747.634	244.05
747.819	209.23
748.003	182.61
748.188	102.74
748.373	192.85
748.557	184.66
748.742	201.04
748.927	139.6
749.111	129.36
749.296	69.97
749.481	229.71
749.665	178.51
749.85	170.32
750.034	186.71
750.219	190.8
750.404	194.9
750.588	231.76
750.773	102.74
750.957	143.7
751.141	166.23
751.326	162.13
751.51	76.12
751.695	149.84
751.879	160.08
752.064	293.2
752.248	168.27
752.432	274.77
752.617	184.66
752.801	254.29
752.985	164.18
753.17	264.53
753.354	194.9
753.538	119.12
753.722	143.7
753.907	121.17
754.091	153.94
754.275	203.09
754.459	115.03
754.643	14.68
754.828	176.47
755.012	160.08
755.196	82.26
755.38	160.08
755.564	49.49
755.748	196.95
755.932	147.8
756.116	211.28
756.3	151.89
756.484	115.03
756.668	190.8
756.852	-18.09
757.036	69.97
757.22	141.65
757.404	92.5
757.588	139.6
757.772	205.14
757.956	47.44
758.14	231.76
758.323	158.03
758.507	209.23
758.691	127.32
758.875	141.65
759.059	260.43
759.242	63.83
759.426	186.71
759.61	55.64
759.794	43.35
759.977	168.27
760.161	307.54
760.345	186.71
760.528	207.19
760.712	33.11
760.895	72.02
761.079	72.02
761.263	6.49
761.446	65.88
761.63	119.12
761.813	180.56
761.997	6.49
762.18	47.44
762.364	92.5
762.547	33.11
762.731	110.93
762.914	65.88
763.098	76.12
763.281	88.4
763.464	94.55
763.648	86.36
763.831	74.07
764.015	35.16
764.198	176.47
764.381	69.97
764.564	-5.8
764.748	180.56
764.931	115.03
765.114	51.54
765.297	186.71
765.481	35.16
765.664	49.49
765.847	104.79
766.03	186.71
766.213	51.54
766.397	155.99
766.58	104.79
766.763	176.47
766.946	57.68
767.129	33.11
767.312	51.54
767.495	47.44
767.678	72.02
767.861	10.58
768.044	26.96
768.227	96.6
768.41	121.17
768.593	115.03
768.776	84.31
768.959	104.79
769.142	256.34
769.324	53.59
769.507	45.4
769.69	67.92
769.873	55.64
770.056	254.29
770.239	88.4
770.421	147.8
770.604	149.84
770.787	65.88
770.97	106.84
771.152	6.49
771.335	108.88
771.518	-9.9
771.7	127.32
771.883	196.95
772.066	18.77
772.248	69.97
772.431	155.99
772.613	143.7
772.796	63.83
772.978	63.83
773.161	155.99
773.343	51.54
773.526	-85.67
773.708	-61.1
773.891	2.39
774.073	92.5
774.256	39.25
774.438	141.65
774.621	35.16
774.803	74.07
774.985	45.4
775.168	168.27
775.35	6.49
775.532	80.21
775.715	39.25
775.897	67.92
776.079	69.97
776.261	72.02
776.444	47.44
776.626	49.49
776.808	72.02
776.99	-73.39
777.173	96.6
777.355	33.11
777.537	63.83
777.719	82.26
777.901	0.34
778.083	18.77
778.265	16.73
778.447	106.84
778.629	18.77
778.811	61.78
778.993	102.74
779.175	168.27
779.357	76.12
779.539	-34.47
779.721	96.6
779.903	117.08
780.085	51.54
780.267	117.08
780.449	10.58
780.631	78.16
780.812	203.09
780.994	20.82
781.176	-1.71
781.358	80.21
781.54	45.4
781.721	65.88
781.903	67.92
782.085	-11.95
782.267	96.6
782.448	-52.91
782.63	22.87
782.812	57.68
782.993	110.93
783.175	106.84
783.357	16.73
783.538	31.06
783.72	51.54
783.901	102.74
784.083	-1.71
784.264	78.16
784.446	12.63
784.627	-132.78
784.809	41.3
784.99	-26.28
785.172	88.4
785.353	76.12
785.535	57.68
785.716	-83.63
785.897	-1.71
786.079	4.44
786.26	18.77
786.441	59.73
786.623	-77.48
786.804	33.11
786.985	76.12
787.167	100.69
787.348	24.92
787.529	20.82
787.71	151.89
787.891	61.78
788.073	-38.57
788.254	8.53
788.435	104.79
788.616	80.21
788.797	33.11
788.978	8.53
789.159	12.63
789.34	63.83
789.522	10.58
789.703	-34.47
789.884	31.06
790.065	51.54
790.246	233.81
790.427	8.53
790.607	137.56
790.788	100.69
790.969	-16.04
791.15	106.84
791.331	-71.34
791.512	-52.91
791.693	-13.99
791.874	22.87
792.054	205.14
792.235	35.16
792.416	24.92
792.597	-65.19
792.778	115.03
792.958	20.82
793.139	51.54
793.32	57.68
793.5	-57
793.681	106.84
793.862	92.5
794.042	37.2
794.223	-67.24
794.404	-83.63
794.584	-22.19
794.765	22.87
794.945	10.58
795.126	98.64
795.306	41.3
795.487	53.59
795.667	24.92
795.848	45.4
796.028	2.39
796.209	24.92
796.389	57.68
796.57	102.74
796.75	-38.57
796.93	-1.71
797.111	-57
797.291	-16.04
797.471	-26.28
797.652	-20.14
797.832	-50.86
798.012	59.73
798.192	-7.85
798.373	-100.01
798.553	6.49
798.733	-26.28
798.913	-59.05
799.093	-40.62
799.274	45.4
799.454	63.83
799.634	47.44
799.814	69.97
799.994	43.35
800.174	106.84
800.354	14.68
800.534	-155.3
800.714	49.49
800.894	-34.47
801.074	-44.71
801.254	-20.14
801.434	43.35
801.614	-24.23
801.794	-50.86
801.974	1980.73
802.154	-5.8
802.334	-42.67
802.514	-140.97
802.693	57.68
802.873	-28.33
803.053	133.46
803.233	-1.71
803.413	-44.71
803.592	-1.71
803.772	-38.57
803.952	-9.9
804.131	-104.11
804.311	172.37
804.491	57.68
804.67	-57
804.85	-54.95
805.03	37.2
805.209	112.98
805.389	-26.28
805.568	-71.34
805.748	-28.33
805.928	-7.85
806.107	63.83
806.287	61.78
806.466	-9.9
806.646	-20.14
806.825	-22.19
807.004	-20.14
807.184	-71.34
807.363	88.4
807.543	16.73
807.722	-75.43
807.901	45.4
808.081	41.3
808.26	-100.01
808.439	2.39
808.619	57.68
808.798	-75.43
808.977	6.49
809.156	41.3
809.336	12.63
809.515	119.12
809.694	-102.06
809.873	-75.43
810.052	31.06
810.231	86.36
810.411	-1.71
810.59	22.87
810.769	72.02
810.948	-28.33
811.127	-75.43
811.306	2.39
811.485	-54.95
811.664	164.18
811.843	67.92
812.022	-5.8
812.201	-69.29
812.38	-63.15
812.559	-13.99
812.737	61.78
812.916	-83.63
813.095	-11.95
813.274	-61.1
813.453	33.11
813.632	41.3
813.811	96.6
813.989	-87.72
814.168	-18.09
814.347	-114.34
814.526	-18.09
814.704	108.88
814.883	67.92
815.062	-61.1
815.24	47.44
815.419	-22.19
815.598	14.68
815.776	0.34
815.955	12.63
816.133	-59.05
816.312	80.21
816.49	-13.99
816.669	35.16
816.847	33.11
817.026	-11.95
817.204	6.49
817.383	-13.99
817.561	-30.38
817.74	10.58
817.918	47.44
818.097	-1.71
818.275	0.34
818.453	53.59
818.632	6.49
818.81	-75.43
818.988	-30.38
819.167	-32.43
819.345	29.01
819.523	-65.19
819.701	14.68
819.879	51.54
820.058	20.82
820.236	-22.19
820.414	12.63
820.592	10.58
820.77	-40.62
820.948	-22.19
821.127	-48.81
821.305	-3.75
821.483	-91.82
821.661	92.5
821.839	53.59
822.017	-50.86
822.195	-32.43
822.373	22.87
822.551	22.87
822.729	100.69
822.907	4.44
823.085	53.59
823.262	-38.57
823.44	-26.28
823.618	-110.25
823.796	-7.85
823.974	16.73
824.152	-11.95
824.329	-26.28
824.507	61.78
824.685	47.44
824.863	2.39
825.04	-3.75
825.218	47.44
825.396	55.64
825.574	-7.85
825.751	31.06
825.929	37.2
826.107	-87.72
826.284	14.68
826.462	-16.04
826.639	-20.14
826.817	-95.91
826.994	-16.04
827.172	-85.67
827.349	53.59
827.527	-16.04
827.704	8.53
827.882	37.2
828.059	-24.23
828.237	-18.09
828.414	92.5
828.591	-75.43
828.769	-36.52
828.946	10.58
829.124	29.01
829.301	37.2
829.478	-59.05
829.655	39.25
829.833	74.07
830.01	-69.29
830.187	12.63
830.364	-36.52
830.542	-16.04
830.719	119.12
830.896	78.16
831.073	24.92
831.25	61.78
831.427	-5.8
831.604	16.73
831.782	33.11
831.959	78.16
832.136	-24.23
832.313	29.01
832.49	-61.1
832.667	12.63
832.844	-81.58
833.021	106.84
833.198	6.49
833.374	43.35
833.551	57.68
833.728	-52.91
833.905	63.83
834.082	-52.91
834.259	74.07
834.436	121.17
834.612	-16.04
834.789	59.73
834.966	43.35
835.143	-11.95
835.319	-69.29
835.496	-9.9
835.673	131.41
835.85	45.4
836.026	8.53
836.203	14.68
836.38	-50.86
836.556	-50.86
836.733	-65.19
836.909	-26.28
837.086	-42.67
837.262	-42.67
837.439	-32.43
837.616	-26.28
837.792	22.87
837.968	-28.33
838.145	-106.15
838.321	-34.47
838.498	106.84
838.674	45.4
838.851	14.68
839.027	12.63
839.203	-36.52
839.38	26.96
839.556	-48.81
839.732	121.17
839.909	-57
840.085	-13.99
840.261	-24.23
840.437	29.01
840.614	-120.49
840.79	37.2
840.966	4.44
841.142	26.96
841.318	-44.71
841.494	2.39
841.671	80.21
841.847	-79.53
842.023	-91.82
842.199	115.03
842.375	61.78
842.551	-147.11
842.727	-100.01
842.903	82.26
843.079	-118.44
843.255	57.68
843.431	-57
843.607	-9.9
843.783	-226.98
843.959	20.82
844.134	-89.77
844.31	123.22
844.486	-18.09
844.662	-24.23
844.838	0.34
845.013	-34.47
845.189	14.68
845.365	-34.47
845.541	-7.85
845.716	4.44
845.892	53.59
846.068	-13.99
846.244	0.34
846.419	37.2
846.595	-11.95
846.77	-79.53
846.946	59.73
847.122	-42.67
847.297	-42.67
847.473	76.12
847.648	-100.01
847.824	-26.28
847.999	-145.06
848.175	14.68
848.35	108.88
848.526	78.16
848.701	49.49
848.876	18.77
849.052	33.11
849.227	-65.19
849.403	-73.39
849.578	-1.71
849.753	-28.33
849.929	65.88
850.104	-81.58
850.279	24.92
850.454	-26.28
850.63	45.4
850.805	2.39
850.98	147.8
851.155	4.44
851.33	-54.95
851.505	-128.68
851.681	149.84
851.856	-28.33
852.031	16.73
852.206	24.92
852.381	-91.82
852.556	-36.52
852.731	33.11
852.906	-7.85
853.081	29.01
853.256	53.59
853.431	-32.43
853.606	43.35
853.781	-16.04
853.956	-192.17
854.131	-3.75
854.305	-52.91
854.48	20.82
854.655	-83.63
854.83	-36.52
855.005	-38.57
855.18	35.16
855.354	-38.57
855.529	-9.9
855.704	-81.58
855.879	22.87
856.053	-106.15
856.228	12.63
856.403	-81.58
856.577	4.44
856.752	-83.63
856.926	41.3
857.101	-34.47
857.276	-61.1
857.45	-13.99
857.625	31.06
857.799	-20.14
857.974	29.01
858.148	-100.01
858.323	-24.23
858.497	-81.58
858.672	-48.81
858.846	-3.75
859.02	53.59
859.195	-89.77
859.369	-32.43
859.543	10.58
859.718	29.01
859.892	-30.38
860.066	78.16
860.241	-32.43
860.415	22.87
860.589	-34.47
860.763	-11.95
860.938	22.87
861.112	-34.47
861.286	4.44
861.46	86.36
861.634	-9.9
861.808	12.63
861.982	-95.91
862.157	-81.58
862.331	-50.86
862.505	-118.44
862.679	-130.73
862.853	-104.11
863.027	-91.82
863.201	129.36
863.375	-91.82
863.549	72.02
863.722	65.88
863.896	137.56
864.07	-61.1
864.244	14.68
864.418	63.83
864.592	14.68
864.766	10.58
864.939	16.73
865.113	-73.39
865.287	59.73
865.461	-95.91
865.634	0.34
865.808	-20.14
865.982	-38.57
866.156	-79.53
866.329	-145.06
866.503	-59.05
866.676	47.44
866.85	65.88
867.024	-22.19
867.197	86.36
867.371	51.54
867.544	-1.71
867.718	-61.1
867.891	88.4
868.065	-97.96
868.238	-46.76
868.412	41.3
868.585	10.58
868.759	-67.24
868.932	-32.43
869.105	-83.63
869.279	-1.71
869.452	-67.24
869.625	39.25
869.799	-30.38
869.972	-34.47
870.145	-7.85
870.319	67.92
870.492	2.39
870.665	-73.39
870.838	-22.19
871.011	-222.89
871.185	-1.71
871.358	2.39
871.531	26.96
871.704	-13.99
871.877	4.44
872.05	-61.1
872.223	-61.1
872.396	59.73
872.569	24.92
872.742	-85.67
872.915	-1.71
873.088	-48.81
873.261	-97.96
873.434	45.4
873.607	-5.8
873.78	65.88
873.953	-134.82
874.126	-34.47
874.299	-22.19
874.471	2.39
874.644	-36.52
874.817	43.35
874.99	137.56
875.163	12.63
875.335	-36.52
875.508	-1.71
875.681	125.27
875.853	10.58
876.026	-3.75
876.199	18.77
876.371	-5.8
876.544	-18.09
876.717	-13.99
876.889	24.92
877.062	8.53
877.234	-65.19
877.407	-30.38
877.579	33.11
877.752	18.77
877.924	14.68
878.097	18.77
878.269	-34.47
878.442	-40.62
878.614	-16.04
878.786	2.39
878.959	-73.39
879.131	14.68
879.303	-206.5
879.476	-1.71
879.648	10.58
879.82	-22.19
879.993	-67.24
880.165	16.73
880.337	-89.77
880.509	-24.23
880.681	-71.34
880.854	-73.39
881.026	-1.71
881.198	106.84
881.37	-59.05
881.542	-34.47
881.714	-1.71
881.886	31.06
882.058	-16.04
882.23	-1.71
882.402	2.39
882.574	-7.85
882.746	-7.85
882.918	72.02
883.09	63.83
883.262	-28.33
883.434	-63.15
883.606	-102.06
883.778	-26.28
883.95	88.4
884.122	-79.53
884.293	78.16
884.465	33.11
884.637	16.73
884.809	-95.91
884.98	10.58
885.152	24.92
885.324	-24.23
885.496	-32.43
885.667	16.73
885.839	22.87
886.011	94.55
886.182	76.12
886.354	80.21
886.525	-3.75
886.697	59.73
886.869	-89.77
887.04	2.39
887.212	22.87
887.383	203.09
887.555	-42.67
887.726	39.25
887.897	-65.19
888.069	-57
888.24	69.97
888.412	-59.05
888.583	-30.38
888.754	-52.91
888.926	-48.81
889.097	-32.43
889.268	-104.11
889.44	-59.05
889.611	-75.43
889.782	-34.47
889.953	-114.34
890.125	100.69
890.296	-102.06
890.467	-36.52
890.638	-95.91
890.809	-13.99
890.98	-63.15
891.151	-3.75
891.323	92.5
891.494	-34.47
891.665	-83.63
891.836	2.39
892.007	-67.24
892.178	-52.91
892.349	-7.85
892.52	-32.43
892.691	-46.76
892.862	-73.39
893.032	-143.02
893.203	-89.77
893.374	2.39
893.545	86.36
893.716	-57
893.887	39.25
894.057	-83.63
894.228	-54.95
894.399	18.77
894.57	41.3
894.74	-46.76
894.911	43.35
895.082	-9.9
895.253	-32.43
895.423	-1.71
895.594	14.68
895.764	18.77
895.935	-106.15
896.106	-5.8
896.276	-155.3
896.447	12.63
896.617	-91.82
896.788	-85.67
896.958	-46.76
897.129	-16.04
897.299	-24.23
897.47	51.54
897.64	-30.38
897.81	-1.71
897.981	33.11
898.151	-30.38
898.322	20.82
898.492	20.82
898.662	-50.86
898.832	-32.43
899.003	-57
899.173	59.73
899.343	-54.95
899.513	-65.19
