Data from USB4F104151__120__10-46-13-958.txt Node

Date: Wed Feb 26 10:46:13 EST 2025
User: louis
Spectrometer: USB4F10415
Trigger mode: 4
Integration Time (sec): 1.000000E-1
Scans to average: 1
Electric dark correction enabled: true
Nonlinearity correction enabled: false
Boxcar width: 0
XAxis mode: Wavelengths
Number of Pixels in Spectrum: 3648
>>>>>Begin Spectral Data<<<<<
178.204	-389.11
178.424	-389.11
178.644	-389.11
178.864	-448.51
179.084	-432.12
179.304	-22.53
179.524	4.1
179.744	30.72
179.964	20.48
180.184	-16.38
180.404	10.24
180.624	14.34
180.844	10.24
181.064	-65.54
181.283	10.24
181.503	-34.82
181.723	38.91
181.943	-16.38
182.163	155.65
182.383	32.77
182.602	53.25
182.822	131.07
183.042	131.07
183.262	59.39
183.482	20.48
183.701	96.25
183.921	77.82
184.141	-53.25
184.361	108.54
184.58	129.02
184.8	63.49
185.02	63.49
185.239	141.31
185.459	94.21
185.679	86.01
185.898	-69.63
186.118	18.43
186.338	51.2
186.557	133.12
186.777	-10.24
186.997	-16.38
187.216	51.2
187.436	147.45
187.655	120.83
187.875	114.69
188.095	-22.53
188.314	182.27
188.534	90.11
188.753	-36.86
188.973	110.59
189.192	186.37
189.412	36.86
189.631	65.53
189.851	135.17
190.07	96.25
190.29	65.53
190.509	-24.58
190.729	69.63
190.948	126.97
191.168	235.52
191.387	20.48
191.607	20.48
191.826	43.01
192.045	77.82
192.265	26.62
192.484	86.01
192.704	65.53
192.923	-40.96
193.142	260.09
193.362	98.3
193.581	174.08
193.8	61.44
194.02	96.25
194.239	36.86
194.458	104.45
194.678	4.1
194.897	-61.44
195.116	16.38
195.335	88.06
195.555	90.11
195.774	10.24
195.993	153.6
196.212	-10.24
196.432	43.01
196.651	55.3
196.87	112.64
197.089	266.24
197.308	65.53
197.528	81.92
197.747	10.24
197.966	53.25
198.185	151.55
198.404	-4.1
198.623	100.35
198.842	63.49
199.062	102.4
199.281	77.82
199.5	55.3
199.719	57.34
199.938	-0
200.157	53.25
200.376	137.21
200.595	174.08
200.814	83.97
201.033	-28.67
201.252	241.66
201.471	59.39
201.69	86.01
201.909	12.29
202.128	192.51
202.347	22.53
202.566	143.36
202.785	-22.53
203.004	-59.39
203.223	278.52
203.442	98.3
203.661	67.58
203.879	118.78
204.098	135.17
204.317	-6.14
204.536	153.6
204.755	141.31
204.974	83.97
205.193	-2.05
205.411	145.41
205.63	96.25
205.849	69.63
206.068	43.01
206.287	-6.14
206.505	165.89
206.724	69.63
206.943	-12.29
207.162	-40.96
207.381	86.01
207.599	79.87
207.818	112.64
208.037	-2.05
208.255	86.01
208.474	34.82
208.693	30.72
208.911	12.29
209.13	88.06
209.349	126.97
209.567	73.73
209.786	67.58
210.005	73.73
210.223	24.58
210.442	-18.43
210.661	8.19
210.879	77.82
211.098	8.19
211.316	45.06
211.535	53.25
211.753	100.35
211.972	36.86
212.191	86.01
212.409	34.82
212.628	100.35
212.846	12.29
213.065	98.3
213.283	104.45
213.502	63.49
213.72	49.15
213.938	75.77
214.157	18.43
214.375	86.01
214.594	43.01
214.812	53.25
215.031	116.73
215.249	86.01
215.467	55.3
215.686	165.89
215.904	153.6
216.122	57.34
216.341	196.6
216.559	-10.24
216.778	67.58
216.996	188.41
217.214	34.82
217.432	47.1
217.651	20.48
217.869	-0
218.087	81.92
218.306	4.1
218.524	104.45
218.742	65.53
218.96	98.3
219.179	133.12
219.397	67.58
219.615	266.24
219.833	145.41
220.051	-40.96
220.27	151.55
220.488	129.02
220.706	200.7
220.924	20.48
221.142	22.53
221.36	38.91
221.578	20.48
221.796	34.82
222.015	106.49
222.233	59.39
222.451	133.12
222.669	18.43
222.887	92.16
223.105	-2.05
223.323	49.15
223.541	-28.67
223.759	28.67
223.977	45.06
224.195	202.75
224.413	36.86
224.631	63.49
224.849	88.06
225.067	200.7
225.285	59.39
225.503	32.77
225.721	-100.35
225.939	47.1
226.157	-4.1
226.375	225.28
226.592	10.24
226.81	83.97
227.028	126.97
227.246	149.5
227.464	96.25
227.682	110.59
227.9	81.92
228.117	47.1
228.335	53.25
228.553	4.1
228.771	79.87
228.989	12.29
229.206	139.26
229.424	26.62
229.642	34.82
229.86	-40.96
230.077	94.21
230.295	-14.34
230.513	63.49
230.731	133.12
230.948	219.13
231.166	208.89
231.384	45.06
231.601	20.48
231.819	139.26
232.037	22.53
232.254	-43.01
232.472	36.86
232.689	47.1
232.907	153.6
233.125	43.01
233.342	-79.87
233.56	59.39
233.777	86.01
233.995	59.39
234.213	139.26
234.43	57.34
234.648	81.92
234.865	4.1
235.083	100.35
235.3	112.64
235.518	161.79
235.735	165.89
235.953	63.49
236.17	116.73
236.388	2.05
236.605	32.77
236.822	63.49
237.04	104.45
237.257	112.64
237.475	-2.05
237.692	163.84
237.909	106.49
238.127	24.58
238.344	153.6
238.562	110.59
238.779	6.14
238.996	-14.34
239.214	55.3
239.431	45.06
239.648	12.29
239.865	102.4
240.083	108.54
240.3	-45.06
240.517	-0
240.735	108.54
240.952	176.13
241.169	104.45
241.386	96.25
241.603	34.82
241.821	-14.34
242.038	120.83
242.255	151.55
242.472	-22.53
242.689	108.54
242.907	161.79
243.124	10.24
243.341	106.49
243.558	63.49
243.775	-79.87
243.992	-16.38
244.209	112.64
244.426	163.84
244.643	49.15
244.86	-22.53
245.078	169.98
245.295	65.53
245.512	38.91
245.729	-77.82
245.946	77.82
246.163	81.92
246.38	38.91
246.597	106.49
246.814	61.44
247.031	122.88
247.248	71.68
247.464	57.34
247.681	36.86
247.898	112.64
248.115	77.82
248.332	-65.54
248.549	143.36
248.766	174.08
248.983	51.2
249.2	98.3
249.417	92.16
249.633	-6.14
249.85	49.15
250.067	53.25
250.284	57.34
250.501	45.06
250.717	139.26
250.934	-77.82
251.151	32.77
251.368	47.1
251.585	18.43
251.801	-34.82
252.018	-4.1
252.235	124.93
252.451	-32.77
252.668	34.82
252.885	200.7
253.102	104.45
253.318	34.82
253.535	-59.39
253.752	77.82
253.968	86.01
254.185	-88.06
254.401	-2.05
254.618	61.44
254.835	104.45
255.051	126.97
255.268	106.49
255.484	81.92
255.701	8.19
255.917	83.97
256.134	8.19
256.351	131.07
256.567	-38.91
256.784	96.25
257	-65.54
257.217	116.73
257.433	36.86
257.65	61.44
257.866	176.13
258.082	24.58
258.299	-53.25
258.515	77.82
258.732	59.39
258.948	53.25
259.165	81.92
259.381	38.91
259.597	96.25
259.814	-20.48
260.03	14.34
260.246	55.3
260.463	61.44
260.679	126.97
260.895	88.06
261.112	61.44
261.328	-49.15
261.544	-38.91
261.761	241.66
261.977	30.72
262.193	-45.06
262.409	155.65
262.626	116.73
262.842	75.77
263.058	79.87
263.274	86.01
263.49	200.7
263.707	135.17
263.923	143.36
264.139	-83.97
264.355	57.34
264.571	149.5
264.787	161.79
265.004	73.73
265.22	47.1
265.436	-12.29
265.652	18.43
265.868	53.25
266.084	10.24
266.3	69.63
266.516	-36.86
266.732	94.21
266.948	83.97
267.164	-8.19
267.38	108.54
267.596	133.12
267.812	178.17
268.028	-4.1
268.244	61.44
268.46	6.14
268.676	-24.58
268.892	55.3
269.108	53.25
269.324	-38.91
269.54	16.38
269.756	75.77
269.972	-63.49
270.188	32.77
270.403	-22.53
270.619	-2.05
270.835	43.01
271.051	-45.06
271.267	18.43
271.483	14.34
271.698	110.59
271.914	40.96
272.13	79.87
272.346	30.72
272.562	81.92
272.777	120.83
272.993	-12.29
273.209	-36.86
273.425	112.64
273.64	57.34
273.856	188.41
274.072	-73.73
274.287	32.77
274.503	131.07
274.719	106.49
274.934	-6.14
275.15	-34.82
275.366	20.48
275.581	30.72
275.797	30.72
276.012	77.82
276.228	18.43
276.444	49.15
276.659	186.37
276.875	-6.14
277.09	73.73
277.306	57.34
277.521	98.3
277.737	51.2
277.952	96.25
278.168	71.68
278.383	77.82
278.599	112.64
278.814	202.75
279.03	20.48
279.245	194.56
279.461	69.63
279.676	102.4
279.892	-10.24
280.107	-2.05
280.322	12.29
280.538	143.36
280.753	-28.67
280.969	124.93
281.184	-20.48
281.399	184.32
281.615	112.64
281.83	-12.29
282.045	-73.73
282.26	59.39
282.476	71.68
282.691	2.05
282.906	55.3
283.122	34.82
283.337	-16.38
283.552	40.96
283.767	-6.14
283.983	129.02
284.198	22.53
284.413	81.92
284.628	14.34
284.843	38.91
285.058	69.63
285.274	90.11
285.489	-40.96
285.704	98.3
285.919	34.82
286.134	165.89
286.349	45.06
286.564	24.58
286.779	81.92
286.995	30.72
287.21	-12.29
287.425	47.1
287.64	34.82
287.855	61.44
288.07	-38.91
288.285	126.97
288.5	161.79
288.715	20.48
288.93	26.62
289.145	61.44
289.36	110.59
289.575	53.25
289.79	194.56
290.004	61.44
290.219	131.07
290.434	34.82
290.649	14.34
290.864	2.05
291.079	26.62
291.294	63.49
291.509	120.83
291.724	40.96
291.938	14.34
292.153	38.91
292.368	-61.44
292.583	98.3
292.798	116.73
293.012	65.53
293.227	75.77
293.442	16.38
293.657	112.64
293.871	124.93
294.086	69.63
294.301	176.13
294.516	155.65
294.73	-2.05
294.945	-122.88
295.16	49.15
295.374	45.06
295.589	116.73
295.804	14.34
296.018	75.77
296.233	180.22
296.447	32.77
296.662	-36.86
296.877	90.11
297.091	98.3
297.306	-14.34
297.52	30.72
297.735	49.15
297.949	124.93
298.164	86.01
298.378	59.39
298.593	4.1
298.807	-47.1
299.022	57.34
299.236	79.87
299.451	61.44
299.665	-14.34
299.88	92.16
300.094	100.35
300.309	59.39
300.523	98.3
300.737	65.53
300.952	79.87
301.166	131.07
301.381	-51.2
301.595	43.01
301.809	79.87
302.024	16.38
302.238	-20.48
302.452	139.26
302.667	65.53
302.881	110.59
303.095	126.97
303.309	143.36
303.524	10.24
303.738	-8.19
303.952	8.19
304.166	104.45
304.381	-32.77
304.595	174.08
304.809	36.86
305.023	114.69
305.237	-14.34
305.452	2.05
305.666	106.49
305.88	81.92
306.094	112.64
306.308	126.97
306.522	79.87
306.736	102.4
306.95	143.36
307.164	-32.77
307.379	38.91
307.593	131.07
307.807	77.82
308.021	67.58
308.235	245.76
308.449	-40.96
308.663	45.06
308.877	165.89
309.091	49.15
309.305	77.82
309.519	-92.16
309.733	149.5
309.947	-120.83
310.161	81.92
310.374	145.41
310.588	98.3
310.802	34.82
311.016	16.38
311.23	61.44
311.444	-2.05
311.658	75.77
311.872	126.97
312.085	143.36
312.299	114.69
312.513	184.32
312.727	-12.29
312.941	-6.14
313.154	110.59
313.368	73.73
313.582	28.67
313.796	114.69
314.009	43.01
314.223	149.5
314.437	47.1
314.651	122.88
314.864	-24.58
315.078	-40.96
315.292	-71.68
315.505	-22.53
315.719	92.16
315.933	184.32
316.146	22.53
316.36	-24.58
316.573	104.45
316.787	63.49
317.001	67.58
317.214	24.58
317.428	22.53
317.641	-34.82
317.855	51.2
318.068	-34.82
318.282	63.49
318.495	151.55
318.709	83.97
318.922	24.58
319.136	147.45
319.349	131.07
319.563	12.29
319.776	190.46
319.99	-28.67
320.203	147.45
320.417	55.3
320.63	131.07
320.843	92.16
321.057	32.77
321.27	36.86
321.483	122.88
321.697	165.89
321.91	63.49
322.124	30.72
322.337	28.67
322.55	22.53
322.763	49.15
322.977	40.96
323.19	-43.01
323.403	79.87
323.617	6.14
323.83	94.21
324.043	81.92
324.256	88.06
324.469	-122.88
324.683	139.26
324.896	57.34
325.109	12.29
325.322	-106.49
325.535	143.36
325.748	108.54
325.962	-12.29
326.175	135.17
326.388	147.45
326.601	81.92
326.814	-26.62
327.027	43.01
327.24	188.41
327.453	-133.12
327.666	112.64
327.879	147.45
328.092	57.34
328.305	104.45
328.518	-4.1
328.731	49.15
328.944	28.67
329.157	135.17
329.37	-51.2
329.583	182.27
329.796	122.88
330.009	36.86
330.222	73.73
330.435	61.44
330.648	102.4
330.861	79.87
331.073	51.2
331.286	114.69
331.499	100.35
331.712	-8.19
331.925	55.3
332.138	12.29
332.35	165.89
332.563	-36.86
332.776	139.26
332.989	45.06
333.202	16.38
333.414	69.63
333.627	98.3
333.84	10.24
334.053	79.87
334.265	69.63
334.478	30.72
334.691	24.58
334.903	20.48
335.116	26.62
335.329	38.91
335.541	108.54
335.754	159.74
335.966	4.1
336.179	18.43
336.392	-8.19
336.604	83.97
336.817	83.97
337.029	77.82
337.242	79.87
337.454	104.45
337.667	-4.1
337.88	118.78
338.092	43.01
338.305	90.11
338.517	81.92
338.729	77.82
338.942	190.46
339.154	59.39
339.367	45.06
339.579	102.4
339.792	-38.91
340.004	43.01
340.217	57.34
340.429	118.78
340.641	4.1
340.854	-10.24
341.066	-45.06
341.278	104.45
341.491	233.47
341.703	36.86
341.915	6.14
342.128	102.4
342.34	40.96
342.552	-32.77
342.764	69.63
342.977	92.16
343.189	163.84
343.401	8.19
343.613	-22.53
343.826	24.58
344.038	-45.06
344.25	18.43
344.462	-0
344.674	86.01
344.886	-8.19
345.099	45.06
345.311	116.73
345.523	2.05
345.735	-47.1
345.947	79.87
346.159	120.83
346.371	65.53
346.583	36.86
346.795	272.38
347.007	18.43
347.219	83.97
347.431	34.82
347.643	124.93
347.855	14.34
348.067	178.17
348.279	18.43
348.491	28.67
348.703	102.4
348.915	-22.53
349.127	-6.14
349.339	51.2
349.551	-6.14
349.763	81.92
349.975	32.77
350.187	122.88
350.399	159.74
350.61	81.92
350.822	43.01
351.034	92.16
351.246	59.39
351.458	141.31
351.669	51.2
351.881	108.54
352.093	106.49
352.305	81.92
352.517	100.35
352.728	153.6
352.94	114.69
353.152	110.59
353.363	24.58
353.575	-16.38
353.787	176.13
353.999	51.2
354.21	157.69
354.422	-43.01
354.633	-0
354.845	94.21
355.057	75.77
355.268	90.11
355.48	139.26
355.692	-12.29
355.903	-2.05
356.115	-4.1
356.326	-47.1
356.538	124.93
356.749	96.25
356.961	122.88
357.172	22.53
357.384	40.96
357.595	147.45
357.807	-96.25
358.018	43.01
358.23	79.87
358.441	110.59
358.653	151.55
358.864	24.58
359.075	22.53
359.287	36.86
359.498	131.07
359.709	53.25
359.921	55.3
360.132	32.77
360.344	-12.29
360.555	51.2
360.766	110.59
360.977	51.2
361.189	90.11
361.4	-2.05
361.611	63.49
361.823	133.12
362.034	30.72
362.245	73.73
362.456	30.72
362.667	98.3
362.879	-67.58
363.09	81.92
363.301	69.63
363.512	45.06
363.723	71.68
363.935	51.2
364.146	90.11
364.357	57.34
364.568	139.26
364.779	-14.34
364.99	141.31
365.201	-47.1
365.412	157.69
365.623	-18.43
365.834	100.35
366.045	40.96
366.256	131.07
366.467	141.31
366.678	24.58
366.889	14.34
367.1	34.82
367.311	137.21
367.522	-6.14
367.733	147.45
367.944	102.4
368.155	65.53
368.366	129.02
368.577	83.97
368.788	88.06
368.999	-59.39
369.209	73.73
369.42	147.45
369.631	172.03
369.842	141.31
370.053	88.06
370.264	32.77
370.474	16.38
370.685	88.06
370.896	34.82
371.107	104.45
371.317	141.31
371.528	-12.29
371.739	102.4
371.95	112.64
372.16	92.16
372.371	-32.77
372.582	40.96
372.792	157.69
373.003	98.3
373.214	124.93
373.424	86.01
373.635	-28.67
373.846	172.03
374.056	143.36
374.267	49.15
374.477	4.1
374.688	36.86
374.898	63.49
375.109	116.73
375.319	4.1
375.53	77.82
375.74	98.3
375.951	20.48
376.161	53.25
376.372	196.6
376.582	-43.01
376.793	49.15
377.003	81.92
377.214	51.2
377.424	108.54
377.635	20.48
377.845	8.19
378.055	200.7
378.266	-12.29
378.476	61.44
378.686	69.63
378.897	45.06
379.107	79.87
379.317	100.35
379.528	34.82
379.738	106.49
379.948	-22.53
380.158	116.73
380.369	79.87
380.579	94.21
380.789	94.21
380.999	100.35
381.21	73.73
381.42	219.13
381.63	49.15
381.84	153.6
382.05	165.89
382.261	100.35
382.471	165.89
382.681	-10.24
382.891	108.54
383.101	63.49
383.311	-57.34
383.521	10.24
383.731	47.1
383.941	114.69
384.151	118.78
384.361	-6.14
384.571	38.91
384.781	51.2
384.991	198.65
385.201	194.56
385.411	81.92
385.621	53.25
385.831	92.16
386.041	131.07
386.251	94.21
386.461	151.55
386.671	28.67
386.881	-10.24
387.091	32.77
387.301	116.73
387.511	53.25
387.72	124.93
387.93	96.25
388.14	-36.86
388.35	90.11
388.56	98.3
388.769	186.37
388.979	83.97
389.189	-22.53
389.399	14.34
389.609	217.08
389.818	133.12
390.028	98.3
390.238	129.02
390.447	36.86
390.657	94.21
390.867	59.39
391.076	-24.58
391.286	10.24
391.496	30.72
391.705	36.86
391.915	155.65
392.125	155.65
392.334	-4.1
392.544	137.21
392.753	104.45
392.963	8.19
393.172	81.92
393.382	-28.67
393.591	163.84
393.801	40.96
394.01	184.32
394.22	40.96
394.429	73.73
394.639	20.48
394.848	30.72
395.058	32.77
395.267	-12.29
395.477	32.77
395.686	102.4
395.895	215.04
396.105	133.12
396.314	98.3
396.524	96.25
396.733	28.67
396.942	184.32
397.152	69.63
397.361	108.54
397.57	83.97
397.78	73.73
397.989	55.3
398.198	231.42
398.407	53.25
398.617	61.44
398.826	30.72
399.035	20.48
399.244	145.41
399.453	53.25
399.663	6.14
399.872	30.72
400.081	-73.73
400.29	194.56
400.499	16.38
400.708	196.6
400.917	-53.25
401.127	36.86
401.336	-12.29
401.545	182.27
401.754	112.64
401.963	73.73
402.172	94.21
402.381	-59.39
402.59	43.01
402.799	65.53
403.008	133.12
403.217	108.54
403.426	102.4
403.635	-8.19
403.844	55.3
404.053	57.34
404.262	53.25
404.471	223.23
404.68	86.01
404.888	43.01
405.097	10.24
405.306	30.72
405.515	90.11
405.724	-10.24
405.933	151.55
406.142	163.84
406.35	153.6
406.559	4.1
406.768	61.44
406.977	139.26
407.185	36.86
407.394	69.63
407.603	-47.1
407.812	73.73
408.02	83.97
408.229	22.53
408.438	124.93
408.646	16.38
408.855	98.3
409.064	143.36
409.272	18.43
409.481	118.78
409.69	-16.38
409.898	6.14
410.107	94.21
410.315	112.64
410.524	-6.14
410.733	-0
410.941	63.49
411.15	129.02
411.358	106.49
411.567	133.12
411.775	22.53
411.984	120.83
412.192	94.21
412.401	-75.77
412.609	174.08
412.818	204.8
413.026	108.54
413.234	57.34
413.443	118.78
413.651	18.43
413.86	47.1
414.068	137.21
414.276	165.89
414.485	63.49
414.693	212.99
414.901	225.28
415.11	112.64
415.318	59.39
415.526	81.92
415.734	176.13
415.943	112.64
416.151	159.74
416.359	110.59
416.567	116.73
416.776	102.4
416.984	135.17
417.192	135.17
417.4	28.67
417.608	65.53
417.817	-8.19
418.025	145.41
418.233	149.5
418.441	-18.43
418.649	-14.34
418.857	174.08
419.065	108.54
419.273	40.96
419.481	67.58
419.689	-4.1
419.897	18.43
420.105	26.62
420.313	110.59
420.521	212.99
420.729	129.02
420.937	83.97
421.145	-30.72
421.353	102.4
421.561	133.12
421.769	102.4
421.977	20.48
422.185	135.17
422.393	92.16
422.601	126.97
422.809	116.73
423.017	65.53
423.224	61.44
423.432	172.03
423.64	22.53
423.848	163.84
424.056	69.63
424.263	159.74
424.471	88.06
424.679	184.32
424.887	45.06
425.094	161.79
425.302	86.01
425.51	122.88
425.718	139.26
425.925	102.4
426.133	24.58
426.341	253.95
426.548	-26.62
426.756	90.11
426.964	149.5
427.171	59.39
427.379	116.73
427.586	141.31
427.794	104.45
428.001	131.07
428.209	178.17
428.417	206.84
428.624	137.21
428.832	83.97
429.039	153.6
429.247	26.62
429.454	139.26
429.662	227.32
429.869	155.65
430.076	157.69
430.284	155.65
430.491	247.8
430.699	178.17
430.906	233.47
431.114	194.56
431.321	143.36
431.528	147.45
431.736	126.97
431.943	194.56
432.15	186.37
432.358	159.74
432.565	165.89
432.772	-16.38
432.979	186.37
433.187	178.17
433.394	266.24
433.601	133.12
433.808	229.37
434.016	307.2
434.223	278.52
434.43	190.46
434.637	354.3
434.844	268.28
435.052	292.86
435.259	284.67
435.466	348.15
435.673	313.34
435.88	327.67
436.087	317.44
436.294	348.15
436.501	393.21
436.708	327.67
436.915	280.57
437.122	372.73
437.329	256
437.537	344.06
437.743	397.31
437.95	444.41
438.157	430.07
438.364	286.72
438.571	450.55
438.778	374.78
438.985	487.42
439.192	561.14
439.399	509.94
439.606	557.05
439.813	583.67
440.02	569.34
440.227	589.81
440.433	641.01
440.64	550.9
440.847	546.81
441.054	649.21
441.261	729.08
441.467	696.31
441.674	577.53
441.881	704.5
442.088	612.34
442.294	749.56
442.501	788.47
442.708	837.62
442.914	827.38
443.121	858.1
443.328	927.73
443.534	954.35
443.741	950.26
443.948	901.11
444.154	1089.52
444.361	1105.9
444.568	1042.42
444.774	1122.29
444.981	1095.66
445.187	1275.88
445.394	1140.72
445.6	1294.32
445.807	1357.8
446.013	1308.65
446.22	1333.23
446.426	1544.17
446.633	1609.7
446.839	1665
447.046	1535.98
447.252	1669.09
447.459	1769.44
447.665	1738.73
447.871	1826.79
448.078	2015.2
448.284	1982.43
448.491	2084.83
448.697	2105.31
448.903	2320.35
449.11	2342.88
449.316	2287.58
449.522	2545.63
449.728	2541.53
449.935	2621.4
450.141	2715.61
450.347	2785.24
450.553	2768.85
450.76	2924.5
450.966	2992.08
451.172	3227.6
451.378	3213.26
451.584	3413.96
451.791	3692.49
451.997	3692.49
452.203	3778.5
452.409	3891.14
452.615	4083.65
452.821	3895.24
453.027	4036.55
453.233	4595.64
453.44	4483
453.646	4583.35
453.852	4880.31
454.058	5171.12
454.264	5042.1
454.47	5525.42
454.676	5580.71
454.882	5869.48
455.088	5527.47
455.294	6246.3
455.5	6340.51
455.705	6832.02
455.911	6893.46
456.117	6922.13
456.323	7292.82
456.529	7339.92
456.735	7880.58
456.941	8103.81
457.147	8513.41
457.352	8746.87
457.558	9015.16
457.764	9475.95
457.97	9693.04
458.176	10026.85
458.381	10458.98
458.587	10813.27
458.793	11292.5
458.999	11298.64
459.204	12789.56
459.41	13201.21
459.616	12945.21
459.821	13561.65
460.027	14436.13
460.233	15126.3
460.438	15132.44
460.644	15765.26
460.85	15972.11
461.055	16553.73
461.261	17471.22
461.466	17094.4
461.672	17325.82
461.878	19519.19
462.083	19295.96
462.289	19609.3
462.494	20473.54
462.7	20653.76
462.905	20649.67
463.111	22578.86
463.316	23797.4
463.522	23957.14
463.727	24512.14
463.932	25945.72
464.138	26482.28
464.343	27424.35
464.549	27530.84
464.754	29693.5
464.959	30688.81
465.165	31284.77
465.37	31211.04
465.575	30813.74
465.781	32873.99
465.986	34201.08
466.191	33506.82
466.397	33672.7
466.602	32964.1
466.807	34833.9
467.012	35329.51
467.218	35888.6
467.423	36304.34
467.628	37105.1
467.833	39161.26
468.038	38380.98
468.244	37504.45
468.449	39415.21
468.654	38286.78
468.859	38677.94
469.064	39071.15
469.269	37688.77
469.474	38342.07
469.679	38987.18
469.885	37877.18
470.09	38702.51
470.295	38626.74
470.5	37836.22
470.705	38051.26
470.91	37305.8
471.115	36861.39
471.32	37340.61
471.525	37082.57
471.73	36087.26
471.935	35716.57
472.139	34557.42
472.344	34733.55
472.549	34569.71
472.754	33973.75
472.959	32785.93
473.164	32151.06
473.369	31508
473.574	32564.75
473.778	31493.66
473.983	30983.72
474.188	30496.3
474.393	29075.01
474.598	29210.18
474.802	28503.63
475.007	28370.51
475.212	27989.59
475.417	27029.09
475.621	26191.47
475.826	26054.26
476.031	25226.88
476.235	24979.07
476.44	25462.4
476.645	24168.08
476.849	24211.09
477.054	24043.15
477.259	22845.09
477.463	23127.71
477.668	22316.72
477.872	22267.56
478.077	21855.92
478.282	21059.26
478.486	21225.15
478.691	20920
478.895	20575.94
479.1	20483.78
479.304	20483.78
479.509	19660.5
479.713	19828.43
479.918	19429.08
480.122	18968.29
480.326	19226.33
480.531	19367.64
480.735	18925.28
480.94	18628.32
481.144	19001.05
481.348	17977.07
481.553	18249.45
481.757	17753.84
481.961	17921.77
482.166	18028.27
482.37	17766.13
482.574	17352.44
482.778	17645.3
482.983	17764.08
483.187	17477.37
483.391	17157.88
483.595	16832.26
483.8	16807.68
484.004	16692.99
484.208	16758.53
484.412	16498.44
484.616	16391.94
484.821	16178.95
485.025	15525.65
485.229	15685.39
485.433	15349.53
485.637	15472.4
485.841	15077.15
486.045	15019.8
486.249	14634.78
486.453	14436.13
486.657	14243.62
486.861	13909.8
487.065	13877.04
487.269	13555.51
487.473	13160.25
487.677	13666.1
487.881	13422.39
488.085	12867.39
488.289	12635.97
488.493	12439.36
488.697	12586.82
488.901	11966.28
489.105	11806.54
489.309	11511.63
489.512	11468.62
489.716	11472.72
489.92	10979.16
490.124	10930.01
490.328	10850.14
490.531	10661.73
490.735	10422.11
490.939	10248.04
491.143	9983.85
491.346	9699.18
491.55	9719.66
491.754	9484.14
491.958	9514.86
492.161	9127.8
492.365	9064.31
492.569	8886.14
492.772	8855.42
492.976	8744.83
493.18	8601.47
493.383	8634.24
493.587	8372.1
493.79	8384.38
493.994	7997.32
494.197	8195.97
494.401	8179.59
494.605	7796.62
494.808	7946.12
495.012	7694.22
495.215	7847.82
495.419	7763.85
495.622	7620.49
495.825	7597.96
496.029	7602.06
496.232	7509.9
496.436	7497.61
496.639	7739.27
496.843	7413.65
497.046	7585.68
497.249	7491.47
497.453	7372.69
497.656	7489.42
497.859	7380.88
498.063	7550.86
498.266	7757.71
498.469	7483.28
498.673	7571.34
498.876	7716.75
499.079	7618.44
499.282	7552.91
499.485	7862.15
499.689	7702.41
499.892	7968.65
500.095	8017.8
500.298	7907.21
500.501	7765.9
500.705	8138.63
500.908	8144.77
501.111	8071.04
501.314	8392.58
501.517	8421.25
501.72	8509.31
501.923	8333.18
502.126	8716.15
502.329	8656.76
502.532	8650.62
502.735	8988.53
502.938	9170.8
503.141	8994.68
503.344	9320.31
503.547	9385.84
503.75	9217.91
503.953	9680.75
504.156	9727.85
504.359	9893.74
504.562	9684.84
504.765	10006.38
504.968	10354.53
505.17	10471.26
505.373	10579.81
505.576	10878.81
505.779	11077.46
505.982	10999.64
506.185	11454.29
506.387	11374.42
506.59	11722.57
506.793	11951.95
506.996	11763.53
507.198	12547.9
507.401	12449.6
507.604	12900.16
507.807	13190.97
508.009	13317.94
508.212	13582.13
508.415	13578.03
508.617	14122.79
508.82	14255.91
509.022	14497.57
509.225	15159.06
509.428	15103.77
509.63	15771.41
509.833	15548.18
510.035	16156.43
510.238	16643.84
510.44	16779.01
510.643	17641.2
510.845	17688.31
511.048	17596.15
511.25	18446.05
511.453	18605.8
511.655	19490.52
511.858	19916.5
512.06	20176.59
512.262	20520.65
512.465	20793.03
512.667	21550.78
512.87	22042.29
513.072	22234.8
513.274	23025.31
513.477	23467.67
513.679	24166.03
513.881	24743.56
514.084	25179.78
514.286	25613.95
514.488	25998.96
514.69	27227.74
514.893	27453.02
515.095	27901.53
515.297	28503.63
515.499	29079.11
515.701	29810.23
515.904	30275.12
516.106	30957.1
516.308	31688.22
516.51	32228.88
516.712	32740.88
516.914	33416.71
517.116	34348.53
517.318	34575.86
517.52	35194.34
517.722	35964.38
517.925	36672.98
518.127	37619.14
518.329	38047.16
518.531	38368.69
518.733	39116.2
518.935	39552.42
519.136	40197.53
519.338	41147.79
519.54	41317.77
519.742	42485.11
519.944	42956.14
520.146	43847.01
520.348	43986.27
520.55	44567.9
520.752	45020.5
520.954	45737.29
521.155	45991.23
521.357	46933.3
521.559	47056.18
521.761	48606.49
521.963	48164.13
522.164	48764.18
522.366	49640.71
522.568	49792.26
522.77	50494.72
522.971	50881.78
523.173	50539.77
523.375	51215.6
523.576	51713.26
523.778	51500.27
523.98	52147.43
524.181	52837.59
524.383	52348.13
524.584	52849.88
524.786	53007.58
524.988	52645.08
525.189	53239
525.391	53404.88
525.592	53396.69
525.794	53486.8
525.995	53228.76
526.197	53202.13
526.398	53175.51
526.6	53331.15
526.801	53249.24
527.003	53034.2
527.204	52958.42
527.406	52991.19
527.607	52618.46
527.808	52610.27
528.01	51578.09
528.211	51422.45
528.412	52317.41
528.614	51893.48
528.815	51332.34
529.016	51385.58
529.218	50087.17
529.419	50085.12
529.62	49792.26
529.822	49161.49
530.023	49024.28
530.224	48413.98
530.425	47973.67
530.626	47217.97
530.828	46855.48
531.029	47328.56
531.23	46028.1
531.431	45587.78
531.632	45757.77
531.833	44485.98
532.035	44246.36
532.236	43679.08
532.437	43382.12
532.638	42435.96
532.839	42026.37
533.04	41684.36
533.241	40871.31
533.442	41350.54
533.643	40283.55
533.844	39486.89
534.045	39249.32
534.246	38497.72
534.447	38473.14
534.648	37479.88
534.849	37025.23
535.05	36265.43
535.251	35911.13
535.451	35769.82
535.652	35202.53
535.853	34956.78
536.054	34092.54
536.255	33897.98
536.456	33033.74
536.657	33191.43
536.857	32491.02
537.058	31981.08
537.259	32052.76
537.46	31358.5
537.66	30858.79
537.861	30735.91
538.062	30238.26
538.263	29681.21
538.463	29165.12
538.664	28661.32
538.865	28694.09
539.065	28589.64
539.266	27905.62
539.466	27633.24
539.667	27113.06
539.868	27385.44
540.068	26443.37
540.269	26166.9
540.469	26162.8
540.67	25683.58
540.87	25370.24
541.071	25040.51
541.271	24774.28
541.472	24233.61
541.672	24170.13
541.873	23819.92
542.073	23228.06
542.274	23400.09
542.474	22873.76
542.675	22933.15
542.875	22769.32
543.075	22435.5
543.276	21800.63
543.476	21913.27
543.676	21806.77
543.877	21165.76
544.077	21294.78
544.277	20911.81
544.478	20688.58
544.678	20672.2
544.878	20381.38
545.078	20045.52
545.279	19730.13
545.479	19586.77
545.679	19439.32
545.879	19007.2
546.079	18980.57
546.28	18734.82
546.48	18267.88
546.68	18357.99
546.88	18169.58
547.08	18079.47
547.28	17526.52
547.48	17346.3
547.68	17157.88
547.88	16795.39
548.081	16774.91
548.281	16557.83
548.481	16174.86
548.681	16398.09
548.881	15814.41
549.081	15550.23
549.28	15492.88
549.48	15181.59
549.68	15011.61
549.88	15087.39
550.08	14599.97
550.28	14593.83
550.48	14229.29
550.68	14206.76
550.88	13844.27
551.08	13938.48
551.279	13559.6
551.479	13381.43
551.679	13262.65
551.879	13080.38
552.079	12988.22
552.278	12582.72
552.478	12619.58
552.678	12480.32
552.878	12173.13
553.077	11906.89
553.277	11814.73
553.477	11482.96
553.676	11386.71
553.876	11276.12
554.076	10829.66
554.275	10987.35
554.475	10671.97
554.674	10643.29
554.874	10338.15
555.074	10229.6
555.273	10018.66
555.473	10026.85
555.672	9635.69
555.872	9512.81
556.071	9369.46
556.271	9303.92
556.47	9090.93
556.67	8841.08
556.869	8613.76
557.068	8669.05
557.268	8486.78
557.467	8513.41
557.667	8099.72
557.866	8152.96
558.065	7917.45
558.265	7804.81
558.464	7747.47
558.663	7751.56
558.863	7575.44
559.062	7460.75
559.261	7081.88
559.461	7294.86
559.66	7081.88
559.859	6860.7
560.058	6741.91
560.258	6627.23
560.457	6420.38
560.656	6692.76
560.855	6303.65
561.054	6424.48
561.253	6260.64
561.453	6125.47
561.652	6039.46
561.851	6053.8
562.05	5853.09
562.249	5492.65
562.448	5705.64
562.647	5502.89
562.846	5322.67
563.045	5459.88
563.244	5214.13
563.443	5250.99
563.642	5142.45
563.841	5169.07
564.04	4931.51
564.239	4956.08
564.438	4718.52
564.637	4663.22
564.836	4628.41
565.035	4573.11
565.234	4564.92
565.432	4515.77
565.631	4517.82
565.83	4462.52
566.029	4405.18
566.228	4224.96
566.427	4270.01
566.625	3985.35
566.824	4034.5
567.023	4079.55
567.222	3907.52
567.42	3829.7
567.619	3850.18
567.818	3846.09
568.016	3954.63
568.215	3710.92
568.414	3741.64
568.612	3620.81
568.811	3391.44
569.01	3481.55
569.208	3352.52
569.407	3540.94
569.605	3399.63
569.804	3276.75
570.002	3248.08
570.201	3207.12
570.4	3231.69
570.598	3106.77
570.797	2840.53
570.995	2975.7
571.193	2951.12
571.392	2965.46
571.59	2887.64
571.789	2901.97
571.987	2875.35
572.186	2799.57
572.384	2697.17
572.582	2623.45
572.781	2691.03
572.979	2555.86
573.177	2588.63
573.376	2467.8
573.574	2486.23
573.772	2459.61
573.971	2379.74
574.169	2328.54
574.367	2287.58
574.565	2295.77
574.763	2361.31
574.962	2316.25
575.16	2140.13
575.358	2164.7
575.556	2131.94
575.754	2154.46
575.952	2101.22
576.151	2023.39
576.349	2068.45
576.547	1847.27
576.745	1867.75
576.943	1857.51
577.141	1863.65
577.339	1783.78
577.537	1789.92
577.735	1847.27
577.933	1785.83
578.131	1755.11
578.329	1748.97
578.527	1621.99
578.725	1669.09
578.923	1507.3
579.121	1658.85
579.319	1454.06
579.516	1429.48
579.714	1687.53
579.912	1486.83
580.11	1437.67
580.308	1441.77
580.506	1380.33
580.704	1259.5
580.901	1331.18
581.099	1480.68
581.297	1368.04
581.495	1269.74
581.692	1228.78
581.89	1374.19
582.088	1239.02
582.285	1318.89
582.483	1179.63
582.681	1216.49
582.878	1216.49
583.076	1206.25
583.274	1177.58
583.471	1290.22
583.669	1138.67
583.866	1081.33
584.064	1128.43
584.262	1083.38
584.459	1071.09
584.657	985.07
584.854	1044.46
585.052	1058.8
585.249	1097.71
585.447	987.12
585.644	888.82
585.841	1044.46
586.039	1042.42
586.236	1028.08
586.434	845.81
586.631	874.48
586.828	788.47
587.026	952.31
587.223	755.7
587.42	790.52
587.618	868.34
587.815	901.11
588.012	806.9
588.21	784.37
588.407	890.87
588.604	845.81
588.801	847.86
588.999	804.85
589.196	839.67
589.393	700.41
589.59	774.13
589.787	835.57
589.984	802.8
590.182	831.48
590.379	692.21
590.576	671.73
590.773	720.88
590.97	661.49
591.167	747.51
591.364	796.66
591.561	669.69
591.758	745.46
591.955	722.93
592.152	765.94
592.349	677.88
592.546	743.41
592.743	630.77
592.94	761.84
593.137	774.13
593.334	767.99
593.531	767.99
593.727	782.32
593.924	729.08
594.121	770.04
594.318	632.82
594.515	677.88
594.712	894.96
594.908	892.91
595.105	583.67
595.302	690.17
595.499	815.09
595.696	831.48
595.892	755.7
596.089	827.38
596.286	808.95
596.482	907.25
596.679	851.95
596.876	827.38
597.072	946.16
597.269	813.04
597.466	931.83
597.662	823.28
597.859	917.49
598.055	1056.75
598.252	1081.33
598.448	1052.66
598.645	1030.13
598.841	1107.95
599.038	1292.27
599.234	1255.4
599.431	1269.74
599.627	1255.4
599.824	1277.93
600.02	1275.88
600.217	1304.56
600.413	1497.07
600.609	1433.58
600.806	1728.49
601.002	1619.94
601.198	1654.76
601.395	1826.79
601.591	1867.75
601.787	1859.56
601.984	1988.58
602.18	1959.91
602.376	2103.26
602.572	2244.57
602.769	2351.07
602.965	2295.77
603.161	2494.43
603.357	2439.13
603.553	2719.7
603.75	2602.97
603.946	2693.08
604.142	2758.61
604.338	3112.91
604.534	2938.84
604.73	3184.59
604.926	3205.07
605.122	3356.62
605.318	3393.48
605.514	3610.57
605.71	3678.15
605.906	3727.3
606.102	3694.54
606.298	4011.97
606.494	4093.89
606.69	4220.86
606.886	4300.73
607.082	4272.06
607.278	4480.96
607.474	4628.41
607.67	4663.22
607.866	4796.34
608.062	5060.53
608.257	5175.22
608.453	5291.95
608.649	5461.93
608.845	5361.58
609.041	5601.19
609.236	5984.16
609.432	5900.2
609.628	6254.5
609.824	6371.23
610.019	6442.91
610.215	6483.87
610.411	7002.01
610.606	7118.74
610.802	7208.85
610.998	7258
611.193	7700.36
611.389	7831.43
611.584	8099.72
611.78	8155.01
611.976	8357.76
612.171	8652.67
612.367	8865.66
612.562	9146.23
612.758	9185.14
612.953	9357.17
613.149	9645.93
613.344	9813.87
613.539	10403.68
613.735	10579.81
613.93	10925.91
614.126	11179.86
614.321	11306.84
614.517	11528.02
614.712	12087.11
614.907	12332.87
615.103	12384.07
615.298	12664.64
615.493	13225.78
615.688	13365.04
615.884	13879.08
616.079	14106.41
616.274	14497.57
616.47	14673.7
616.665	15306.52
616.86	15619.86
617.055	15861.52
617.25	16232.2
617.445	16842.49
617.641	17065.72
617.836	17702.64
618.031	17770.22
618.226	18519.78
618.421	18568.93
618.616	19400.41
618.811	19447.51
619.006	20205.26
619.201	20391.62
619.396	21055.17
619.591	21298.88
619.786	22077.1
619.981	22111.92
620.176	22945.44
620.371	23109.28
620.566	23897.75
620.761	24254.09
620.956	24862.34
621.151	24940.16
621.346	25816.69
621.541	26156.66
621.735	27053.67
621.93	26973.8
622.125	27690.59
622.32	27829.85
622.515	28718.67
622.709	29128.26
622.904	29396.54
623.099	30281.27
623.294	30969.38
623.488	30807.59
623.683	31852.06
623.878	32097.81
624.072	32974.34
624.267	32951.82
624.462	33414.66
624.656	33871.36
624.851	34979.31
625.046	34924.01
625.24	35401.19
625.435	35864.03
625.629	36761.04
625.824	37021.13
626.018	37080.52
626.213	37236.17
626.407	38264.25
626.602	38479.28
626.796	39413.16
626.991	39237.03
627.185	39433.64
627.38	39896.48
627.574	39953.82
627.768	40365.46
627.963	40418.71
628.157	40355.22
628.352	40875.41
628.546	40207.77
628.74	41106.83
628.935	40502.68
629.129	40519.06
629.323	40451.48
629.517	39994.78
629.712	40525.21
629.906	40447.38
630.1	39355.82
630.294	39447.97
630.489	38471.09
630.683	38147.51
630.877	37494.21
631.071	36851.15
631.265	36294.1
631.459	36058.59
631.653	34975.21
631.848	34577.9
632.042	33443.33
632.236	32769.55
632.43	31835.67
632.624	31266.34
632.818	29771.32
633.012	29296.19
633.206	28352.08
633.4	27620.95
633.594	26183.28
633.788	25874.04
633.982	24843.91
634.176	23805.59
634.369	22560.42
634.563	22105.77
634.757	21114.56
634.951	20702.92
635.145	19859.15
635.339	19123.93
635.533	18142.96
635.726	17323.77
635.92	16555.78
636.114	16049.93
636.308	15537.94
636.501	14798.62
636.695	14018.35
636.889	13522.74
637.083	13244.21
637.276	12623.68
637.47	12074.82
637.664	11456.34
637.857	11136.85
638.051	10649.44
638.244	10057.57
638.438	9918.31
638.632	9482.1
638.825	8738.68
639.019	8730.49
639.212	8351.62
639.406	8181.64
639.599	7571.34
639.793	7311.25
639.986	7210.9
640.18	7026.58
640.373	6616.99
640.567	6309.79
640.76	6039.46
640.954	5908.39
641.147	5345.2
641.34	5431.21
641.534	5177.26
641.727	5033.91
641.92	4831.16
642.114	4634.55
642.307	4577.21
642.5	4220.86
642.694	4040.64
642.887	4034.5
643.08	3964.87
643.273	3807.17
643.467	3553.23
643.66	3280.85
643.853	3268.56
644.046	3129.3
644.239	2963.41
644.432	2850.77
644.626	2758.61
644.819	2711.51
645.012	2602.97
645.205	2645.98
645.398	2396.12
645.591	2246.62
645.784	2232.29
645.977	2047.97
646.17	1978.34
646.363	1914.85
646.556	1896.42
646.749	1720.29
646.942	1808.36
647.135	1877.99
647.328	1583.08
647.521	1619.94
647.714	1429.48
647.907	1417.19
648.099	1357.8
648.292	1357.8
648.485	1376.23
648.678	1253.36
648.871	1177.58
649.064	1165.29
649.256	1046.51
649.449	1056.75
649.642	980.98
649.835	1011.7
650.027	901.11
650.22	1077.23
650.413	1007.6
650.605	923.63
650.798	765.94
650.991	835.57
651.183	815.09
651.376	808.95
651.568	770.04
651.761	765.94
651.954	813.04
652.146	669.69
652.339	761.84
652.531	661.49
652.724	548.86
652.916	585.72
653.109	411.64
653.301	610.29
653.494	608.25
653.686	462.84
653.879	595.96
654.071	606.2
654.263	505.85
654.456	458.74
654.648	589.81
654.84	602.1
655.033	407.55
655.225	602.1
655.417	358.39
655.61	499.7
655.802	532.47
655.994	528.38
656.186	473.08
656.379	479.22
656.571	319.48
656.763	344.06
656.955	344.06
657.148	442.36
657.34	378.87
657.532	301.05
657.724	282.62
657.916	331.77
658.108	389.11
658.3	339.96
658.492	354.3
658.684	212.99
658.876	331.77
659.068	192.51
659.26	229.37
659.452	204.8
659.644	243.71
659.836	413.69
660.028	303.1
660.22	272.38
660.412	256
660.604	223.23
660.796	274.43
660.988	284.67
661.18	307.2
661.372	215.04
661.563	294.91
661.755	210.94
661.947	149.5
662.139	231.42
662.331	221.18
662.522	200.7
662.714	215.04
662.906	188.41
663.097	243.71
663.289	184.32
663.481	182.27
663.673	225.28
663.864	251.9
664.056	268.28
664.247	167.93
664.439	360.44
664.631	296.96
664.822	339.96
665.014	153.6
665.205	186.37
665.397	198.65
665.588	110.59
665.78	198.65
665.971	264.19
666.163	92.16
666.354	212.99
666.546	57.34
666.737	196.6
666.929	135.17
667.12	137.21
667.311	100.35
667.503	182.27
667.694	223.23
667.885	180.22
668.077	219.13
668.268	32.77
668.459	133.12
668.651	235.52
668.842	184.32
669.033	110.59
669.224	149.5
669.416	366.59
669.607	102.4
669.798	75.77
669.989	278.52
670.18	120.83
670.371	192.51
670.563	145.41
670.754	290.81
670.945	258.04
671.136	188.41
671.327	118.78
671.518	280.57
671.709	229.37
671.9	317.44
672.091	268.28
672.282	120.83
672.473	192.51
672.664	180.22
672.855	57.34
673.046	237.56
673.237	333.82
673.428	245.76
673.619	301.05
673.809	112.64
674	280.57
674.191	178.17
674.382	196.6
674.573	200.7
674.764	180.22
674.954	149.5
675.145	151.55
675.336	210.94
675.527	172.03
675.717	192.51
675.908	147.45
676.099	217.08
676.289	186.37
676.48	157.69
676.671	241.66
676.861	57.34
677.052	268.28
677.243	208.89
677.433	167.93
677.624	305.15
677.814	155.65
678.005	143.36
678.195	288.76
678.386	196.6
678.576	227.32
678.767	118.78
678.957	192.51
679.148	342.01
679.338	260.09
679.529	241.66
679.719	172.03
679.909	245.76
680.1	268.28
680.29	249.85
680.481	161.79
680.671	290.81
680.861	370.68
681.052	200.7
681.242	243.71
681.432	219.13
681.622	225.28
681.813	153.6
682.003	223.23
682.193	233.47
682.383	280.57
682.573	264.19
682.764	262.14
682.954	258.04
683.144	276.48
683.334	243.71
683.524	305.15
683.714	262.14
683.904	317.44
684.094	278.52
684.284	276.48
684.474	339.96
684.664	276.48
684.854	280.57
685.044	258.04
685.234	280.57
685.424	270.33
685.614	231.42
685.804	350.2
685.994	311.29
686.184	184.32
686.374	266.24
686.564	374.78
686.753	385.02
686.943	178.17
687.133	258.04
687.323	204.8
687.513	360.44
687.702	256
687.892	299
688.082	311.29
688.272	247.8
688.461	335.87
688.651	485.37
688.841	305.15
689.03	339.96
689.22	208.89
689.41	315.39
689.599	311.29
689.789	169.98
689.979	456.7
690.168	229.37
690.358	311.29
690.547	247.8
690.737	311.29
690.926	247.8
691.116	258.04
691.305	339.96
691.495	264.19
691.684	202.75
691.874	249.85
692.063	206.84
692.252	315.39
692.442	321.53
692.631	237.56
692.82	245.76
693.01	239.61
693.199	227.32
693.388	272.38
693.578	239.61
693.767	397.31
693.956	348.15
694.146	321.53
694.335	206.84
694.524	264.19
694.713	335.87
694.902	217.08
695.092	264.19
695.281	290.81
695.47	190.46
695.659	223.23
695.848	212.99
696.037	190.46
696.226	272.38
696.415	292.86
696.604	323.58
696.793	362.49
696.982	208.89
697.171	405.5
697.36	163.84
697.549	200.7
697.738	159.74
697.927	163.84
698.116	126.97
698.305	325.63
698.494	237.56
698.683	143.36
698.872	354.3
699.061	194.56
699.25	215.04
699.438	282.62
699.627	196.6
699.816	354.3
700.005	180.22
700.193	237.56
700.382	266.24
700.571	313.34
700.76	301.05
700.948	344.06
701.137	266.24
701.326	233.47
701.514	163.84
701.703	282.62
701.892	178.17
702.08	323.58
702.269	186.37
702.457	217.08
702.646	258.04
702.834	182.27
703.023	296.96
703.212	299
703.4	200.7
703.589	145.41
703.777	188.41
703.965	143.36
704.154	221.18
704.342	141.31
704.531	172.03
704.719	290.81
704.907	309.24
705.096	186.37
705.284	133.12
705.472	192.51
705.661	178.17
705.849	303.1
706.037	251.9
706.226	278.52
706.414	202.75
706.602	208.89
706.79	288.76
706.979	112.64
707.167	276.48
707.355	131.07
707.543	290.81
707.731	278.52
707.919	182.27
708.107	100.35
708.296	126.97
708.484	145.41
708.672	200.7
708.86	196.6
709.048	303.1
709.236	147.45
709.424	299
709.612	296.96
709.8	94.21
709.988	190.46
710.176	282.62
710.364	276.48
710.551	208.89
710.739	155.65
710.927	202.75
711.115	186.37
711.303	286.72
711.491	301.05
711.679	184.32
711.866	219.13
712.054	100.35
712.242	237.56
712.43	233.47
712.617	212.99
712.805	327.67
712.993	292.86
713.181	86.01
713.368	339.96
713.556	188.41
713.744	141.31
713.931	421.88
714.119	243.71
714.306	208.89
714.494	172.03
714.682	208.89
714.869	153.6
715.057	176.13
715.244	143.36
715.432	301.05
715.619	188.41
715.807	292.86
715.994	272.38
716.182	141.31
716.369	237.56
716.556	239.61
716.744	174.08
716.931	206.84
717.119	274.43
717.306	190.46
717.493	229.37
717.681	147.45
717.868	169.98
718.055	290.81
718.242	251.9
718.43	274.43
718.617	321.53
718.804	321.53
718.991	276.48
719.179	264.19
719.366	251.9
719.553	223.23
719.74	221.18
719.927	247.8
720.114	227.32
720.301	200.7
720.488	184.32
720.676	157.69
720.863	307.2
721.05	325.63
721.237	327.67
721.424	262.14
721.611	272.38
721.798	194.56
721.985	167.93
722.172	229.37
722.358	192.51
722.545	235.52
722.732	196.6
722.919	337.91
723.106	370.68
723.293	184.32
723.48	223.23
723.667	243.71
723.853	395.26
724.04	290.81
724.227	362.49
724.414	217.08
724.6	325.63
724.787	364.54
724.974	352.25
725.161	225.28
725.347	143.36
725.534	260.09
725.72	284.67
725.907	268.28
726.094	301.05
726.28	200.7
726.467	262.14
726.653	272.38
726.84	425.98
727.027	342.01
727.213	253.95
727.4	251.9
727.586	325.63
727.773	149.5
727.959	153.6
728.145	264.19
728.332	229.37
728.518	194.56
728.705	309.24
728.891	288.76
729.077	331.77
729.264	256
729.45	249.85
729.636	311.29
729.823	256
730.009	313.34
730.195	233.47
730.382	364.54
730.568	172.03
730.754	268.28
730.94	225.28
731.126	258.04
731.313	266.24
731.499	256
731.685	305.15
731.871	256
732.057	311.29
732.243	299
732.429	284.67
732.615	505.85
732.801	364.54
732.987	225.28
733.173	352.25
733.359	206.84
733.545	329.72
733.731	346.11
733.917	364.54
734.103	333.82
734.289	266.24
734.475	239.61
734.661	378.87
734.847	301.05
735.033	301.05
735.219	280.57
735.404	182.27
735.59	223.23
735.776	260.09
735.962	337.91
736.148	282.62
736.333	456.7
736.519	309.24
736.705	305.15
736.89	319.48
737.076	282.62
737.262	274.43
737.447	190.46
737.633	299
737.819	370.68
738.004	290.81
738.19	245.76
738.375	286.72
738.561	292.86
738.747	266.24
738.932	190.46
739.118	395.26
739.303	413.69
739.489	376.83
739.674	262.14
739.859	161.79
740.045	296.96
740.23	227.32
740.416	129.02
740.601	360.44
740.786	294.91
740.972	190.46
741.157	247.8
741.342	182.27
741.528	235.52
741.713	296.96
741.898	155.65
742.084	280.57
742.269	237.56
742.454	303.1
742.639	315.39
742.824	251.9
743.01	319.48
743.195	346.11
743.38	223.23
743.565	215.04
743.75	262.14
743.935	331.77
744.12	325.63
744.305	219.13
744.49	262.14
744.675	243.71
744.86	331.77
745.045	344.06
745.23	272.38
745.415	331.77
745.6	364.54
745.785	208.89
745.97	339.96
746.155	299
746.34	356.35
746.525	251.9
746.71	288.76
746.895	184.32
747.079	196.6
747.264	223.23
747.449	256
747.634	286.72
747.819	286.72
748.003	188.41
748.188	194.56
748.373	296.96
748.557	274.43
748.742	256
748.927	315.39
749.111	229.37
749.296	204.8
749.481	272.38
749.665	192.51
749.85	210.94
750.034	208.89
750.219	235.52
750.404	202.75
750.588	274.43
750.773	139.26
750.957	229.37
751.141	178.17
751.326	186.37
751.51	139.26
751.695	151.55
751.879	225.28
752.064	356.35
752.248	284.67
752.432	305.15
752.617	358.39
752.801	303.1
752.985	157.69
753.17	270.33
753.354	198.65
753.538	206.84
753.722	212.99
753.907	176.13
754.091	165.89
754.275	243.71
754.459	204.8
754.643	174.08
754.828	241.66
755.012	190.46
755.196	55.3
755.38	221.18
755.564	159.74
755.748	159.74
755.932	219.13
756.116	313.34
756.3	204.8
756.484	151.55
756.668	282.62
756.852	100.35
757.036	110.59
757.22	157.69
757.404	217.08
757.588	129.02
757.772	233.47
757.956	163.84
758.14	286.72
758.323	83.97
758.507	241.66
758.691	110.59
758.875	206.84
759.059	333.82
759.242	75.77
759.426	92.16
759.61	212.99
759.794	122.88
759.977	157.69
760.161	344.06
760.345	188.41
760.528	182.27
760.712	155.65
760.895	217.08
761.079	186.37
761.263	69.63
761.446	12.29
761.63	45.06
761.813	192.51
761.997	49.15
762.18	104.45
762.364	131.07
762.547	135.17
762.731	57.34
762.914	98.3
763.098	114.69
763.281	135.17
763.464	98.3
763.648	139.26
763.831	118.78
764.015	139.26
764.198	161.79
764.381	86.01
764.564	108.54
764.748	253.95
764.931	184.32
765.114	126.97
765.297	133.12
765.481	73.73
765.664	94.21
765.847	159.74
766.03	196.6
766.213	-8.19
766.397	133.12
766.58	51.2
766.763	163.84
766.946	106.49
767.129	133.12
767.312	57.34
767.495	55.3
767.678	94.21
767.861	147.45
768.044	116.73
768.227	81.92
768.41	172.03
768.593	86.01
768.776	169.98
768.959	112.64
769.142	165.89
769.324	71.68
769.507	96.25
769.69	98.3
769.873	69.63
770.056	215.04
770.239	55.3
770.421	192.51
770.604	90.11
770.787	73.73
770.97	124.93
771.152	51.2
771.335	159.74
771.518	4.1
771.7	194.56
771.883	147.45
772.066	59.39
772.248	126.97
772.431	200.7
772.613	131.07
772.796	100.35
772.978	94.21
773.161	133.12
773.343	-0
773.526	18.43
773.708	-28.67
773.891	-36.86
774.073	47.1
774.256	96.25
774.438	215.04
774.621	77.82
774.803	108.54
774.985	57.34
775.168	129.02
775.35	90.11
775.532	24.58
775.715	92.16
775.897	120.83
776.079	86.01
776.261	49.15
776.444	43.01
776.626	20.48
776.808	63.49
776.99	26.62
777.173	96.25
777.355	32.77
777.537	90.11
777.719	133.12
777.901	34.82
778.083	43.01
778.265	47.1
778.447	178.17
778.629	20.48
778.811	38.91
778.993	110.59
779.175	126.97
779.357	131.07
779.539	-63.49
779.721	116.73
779.903	124.93
780.085	43.01
780.267	141.31
780.449	104.45
780.631	198.65
780.812	184.32
780.994	110.59
781.176	63.49
781.358	16.38
781.54	88.06
781.721	157.69
781.903	204.8
782.085	73.73
782.267	159.74
782.448	-14.34
782.63	-10.24
782.812	88.06
782.993	88.06
783.175	81.92
783.357	90.11
783.538	98.3
783.72	67.58
783.901	90.11
784.083	96.25
784.264	65.53
784.446	-2.05
784.627	22.53
784.809	75.77
784.99	30.72
785.172	83.97
785.353	114.69
785.535	73.73
785.716	43.01
785.897	-2.05
786.079	-28.67
786.26	81.92
786.441	98.3
786.623	-22.53
786.804	-26.62
786.985	16.38
787.167	157.69
787.348	43.01
787.529	28.67
787.71	163.84
787.891	36.86
788.073	-4.1
788.254	-40.96
788.435	139.26
788.616	104.45
788.797	26.62
788.978	-43.01
789.159	-12.29
789.34	86.01
789.522	-51.2
789.703	-32.77
789.884	57.34
790.065	108.54
790.246	215.04
790.427	6.14
790.607	122.88
790.788	69.63
790.969	4.1
791.15	59.39
791.331	47.1
791.512	43.01
791.693	-36.86
791.874	20.48
792.054	182.27
792.235	100.35
792.416	73.73
792.597	22.53
792.778	94.21
792.958	40.96
793.139	67.58
793.32	63.49
793.5	-26.62
793.681	145.41
793.862	47.1
794.042	-14.34
794.223	-96.25
794.404	-36.86
794.584	-143.36
794.765	-18.43
794.945	4.1
795.126	43.01
795.306	98.3
795.487	-10.24
795.667	-59.39
795.848	53.25
796.028	55.3
796.209	135.17
796.389	94.21
796.57	8.19
796.75	20.48
796.93	26.62
797.111	-49.15
797.291	-16.38
797.471	100.35
797.652	47.1
797.832	10.24
798.012	75.77
798.192	-43.01
798.373	-81.92
798.553	40.96
798.733	86.01
798.913	4.1
799.093	-2.05
799.274	153.6
799.454	51.2
799.634	118.78
799.814	114.69
799.994	30.72
800.174	86.01
800.354	63.49
800.534	-32.77
800.714	67.58
800.894	-34.82
801.074	-86.01
801.254	-28.67
801.434	112.64
801.614	-12.29
801.794	-2.05
801.974	1759.21
802.154	-10.24
802.334	69.63
802.514	-43.01
802.693	28.67
802.873	77.82
803.053	133.12
803.233	30.72
803.413	-22.53
803.592	-8.19
803.772	8.19
803.952	55.3
804.131	-32.77
804.311	129.02
804.491	106.49
804.67	24.58
804.85	65.53
805.03	22.53
805.209	90.11
805.389	14.34
805.568	8.19
805.748	-20.48
805.928	28.67
806.107	49.15
806.287	38.91
806.466	98.3
806.646	22.53
806.825	20.48
807.004	-32.77
807.184	51.2
807.363	28.67
807.543	40.96
807.722	-24.58
807.901	100.35
808.081	90.11
808.26	-96.25
808.439	110.59
808.619	45.06
808.798	-30.72
808.977	-0
809.156	79.87
809.336	63.49
809.515	69.63
809.694	-61.44
809.873	-2.05
810.052	145.41
810.231	131.07
810.411	43.01
810.59	153.6
810.769	-12.29
810.948	67.58
811.127	-75.77
811.306	2.05
811.485	-12.29
811.664	106.49
811.843	-47.1
812.022	77.82
812.201	-2.05
812.38	-32.77
812.559	-40.96
812.737	83.97
812.916	-53.25
813.095	-30.72
813.274	40.96
813.453	-26.62
813.632	63.49
813.811	96.25
813.989	-108.54
814.168	-51.2
814.347	-135.17
814.526	16.38
814.704	180.22
814.883	92.16
815.062	-63.49
815.24	92.16
815.419	-12.29
815.598	30.72
815.776	-194.56
815.955	-10.24
816.133	-86.01
816.312	61.44
816.49	53.25
816.669	-30.72
816.847	-18.43
817.026	18.43
817.204	-16.38
817.383	63.49
817.561	-45.06
817.74	61.44
817.918	43.01
818.097	49.15
818.275	6.14
818.453	-28.67
818.632	67.58
818.81	-12.29
818.988	-51.2
819.167	36.86
819.345	55.3
819.523	-18.43
819.701	77.82
819.879	57.34
820.058	63.49
820.236	40.96
820.414	-28.67
820.592	14.34
820.77	-10.24
820.948	-32.77
821.127	10.24
821.305	34.82
821.483	18.43
821.661	38.91
821.839	8.19
822.017	-6.14
822.195	-4.1
822.373	8.19
822.551	18.43
822.729	53.25
822.907	-0
823.085	28.67
823.262	40.96
823.44	-45.06
823.618	8.19
823.796	75.77
823.974	16.38
824.152	4.1
824.329	6.14
824.507	63.49
824.685	92.16
824.863	18.43
825.04	32.77
825.218	90.11
825.396	2.05
825.574	83.97
825.751	61.44
825.929	73.73
826.107	8.19
826.284	45.06
826.462	8.19
826.639	-18.43
826.817	-53.25
826.994	26.62
827.172	-129.02
827.349	94.21
827.527	92.16
827.704	45.06
827.882	83.97
828.059	-20.48
828.237	57.34
828.414	69.63
828.591	-75.77
828.769	-28.67
828.946	-51.2
829.124	135.17
829.301	106.49
829.478	45.06
829.655	32.77
829.833	43.01
830.01	-96.25
830.187	20.48
830.364	-36.86
830.542	28.67
830.719	94.21
830.896	79.87
831.073	53.25
831.25	4.1
831.427	34.82
831.604	86.01
831.782	-59.39
831.959	61.44
832.136	53.25
832.313	77.82
832.49	32.77
832.667	61.44
832.844	-20.48
833.021	90.11
833.198	55.3
833.374	20.48
833.551	30.72
833.728	-49.15
833.905	92.16
834.082	-143.36
834.259	79.87
834.436	116.73
834.612	-43.01
834.789	122.88
834.966	32.77
835.143	98.3
835.319	-135.17
835.496	10.24
835.673	32.77
835.85	118.78
836.026	126.97
836.203	108.54
836.38	-30.72
836.556	-4.1
836.733	-8.19
836.909	206.84
837.086	-59.39
837.262	-116.73
837.439	32.77
837.616	-38.91
837.792	100.35
837.968	10.24
838.145	-149.5
838.321	26.62
838.498	14.34
838.674	126.97
838.851	-8.19
839.027	12.29
839.203	-16.38
839.38	129.02
839.556	-43.01
839.732	2.05
839.909	-8.19
840.085	106.49
840.261	-24.58
840.437	43.01
840.614	-22.53
840.79	79.87
840.966	32.77
841.142	-16.38
841.318	40.96
841.494	81.92
841.671	43.01
841.847	4.1
842.023	-108.54
842.199	98.3
842.375	10.24
842.551	-65.54
842.727	-22.53
842.903	110.59
843.079	-49.15
843.255	55.3
843.431	92.16
843.607	4.1
843.783	-71.68
843.959	26.62
844.134	-40.96
844.31	116.73
844.486	-67.58
844.662	-61.44
844.838	-22.53
845.013	-6.14
845.189	43.01
845.365	45.06
845.541	22.53
845.716	-4.1
845.892	139.26
846.068	-30.72
846.244	-6.14
846.419	30.72
846.595	-14.34
846.77	-22.53
846.946	49.15
847.122	20.48
847.297	8.19
847.473	202.75
847.648	-108.54
847.824	67.58
847.999	-96.25
848.175	-12.29
848.35	69.63
848.526	92.16
848.701	79.87
848.876	45.06
849.052	98.3
849.227	-12.29
849.403	63.49
849.578	26.62
849.753	16.38
849.929	61.44
850.104	-59.39
850.279	-14.34
850.454	28.67
850.63	4.1
850.805	49.15
850.98	18.43
851.155	-12.29
851.33	12.29
851.505	-57.34
851.681	81.92
851.856	-83.97
852.031	108.54
852.206	51.2
852.381	-118.78
852.556	2.05
852.731	63.49
852.906	73.73
853.081	40.96
853.256	169.98
853.431	-30.72
853.606	55.3
853.781	-81.92
853.956	-75.77
854.131	-14.34
854.305	-67.58
854.48	-28.67
854.655	-92.16
854.83	18.43
855.005	28.67
855.18	10.24
855.354	-26.62
855.529	32.77
855.704	-20.48
855.879	96.25
856.053	-36.86
856.228	65.53
856.403	-14.34
856.577	122.88
856.752	-77.82
856.926	10.24
857.101	-63.49
857.276	-57.34
857.45	-4.1
857.625	75.77
857.799	34.82
857.974	104.45
858.148	-163.84
858.323	28.67
858.497	-53.25
858.672	-18.43
858.846	-24.58
859.02	63.49
859.195	-34.82
859.369	2.05
859.543	49.15
859.718	36.86
859.892	47.1
860.066	81.92
860.241	16.38
860.415	4.1
860.589	4.1
860.763	-45.06
860.938	22.53
861.112	2.05
861.286	10.24
861.46	32.77
861.634	-20.48
861.808	81.92
861.982	-59.39
862.157	-61.44
862.331	-110.59
862.505	-32.77
862.679	-61.44
862.853	71.68
863.027	18.43
863.201	122.88
863.375	-24.58
863.549	-6.14
863.722	20.48
863.896	110.59
864.07	-4.1
864.244	36.86
864.418	67.58
864.592	114.69
864.766	53.25
864.939	-0
865.113	-10.24
865.287	24.58
865.461	-92.16
865.634	-30.72
865.808	-30.72
865.982	20.48
866.156	14.34
866.329	-147.45
866.503	65.53
866.676	83.97
866.85	18.43
867.024	30.72
867.197	69.63
867.371	40.96
867.544	73.73
867.718	-83.97
867.891	81.92
868.065	-61.44
868.238	-40.96
868.412	10.24
868.585	-32.77
868.759	-67.58
868.932	16.38
869.105	-34.82
869.279	10.24
869.452	12.29
869.625	63.49
869.799	-4.1
869.972	-108.54
870.145	38.91
870.319	96.25
870.492	-43.01
870.665	-32.77
870.838	-51.2
871.011	-139.26
871.185	-18.43
871.358	-38.91
871.531	-8.19
871.704	-67.58
871.877	2.05
872.05	-49.15
872.223	6.14
872.396	94.21
872.569	104.45
872.742	-26.62
872.915	63.49
873.088	-69.63
873.261	-28.67
873.434	69.63
873.607	-57.34
873.78	88.06
873.953	-55.3
874.126	-14.34
874.299	14.34
874.471	-69.63
874.644	-53.25
874.817	57.34
874.99	126.97
875.163	-28.67
875.335	67.58
875.508	28.67
875.681	153.6
875.853	-75.77
876.026	32.77
876.199	20.48
876.371	26.62
876.544	8.19
876.717	59.39
876.889	-12.29
877.062	14.34
877.234	-8.19
877.407	-18.43
877.579	12.29
877.752	-26.62
877.924	24.58
878.097	43.01
878.269	12.29
878.442	61.44
878.614	36.86
878.786	94.21
878.959	2.05
879.131	118.78
879.303	-108.54
879.476	49.15
879.648	6.14
879.82	30.72
879.993	-20.48
880.165	-116.73
880.337	-81.92
880.509	57.34
880.681	-100.35
880.854	38.91
881.026	69.63
881.198	96.25
881.37	-24.58
881.542	55.3
881.714	34.82
881.886	2.05
882.058	-22.53
882.23	24.58
882.402	28.67
882.574	30.72
882.746	63.49
882.918	90.11
883.09	108.54
883.262	-10.24
883.434	-4.1
883.606	-96.25
883.778	-20.48
883.95	147.45
884.122	28.67
884.293	106.49
884.465	-4.1
884.637	32.77
884.809	-38.91
884.98	43.01
885.152	40.96
885.324	57.34
885.496	-81.92
885.667	-6.14
885.839	-20.48
886.011	129.02
886.182	55.3
886.354	79.87
886.525	24.58
886.697	88.06
886.869	43.01
887.04	-81.92
887.212	133.12
887.383	149.5
887.555	-6.14
887.726	-79.87
887.897	-55.3
888.069	43.01
888.24	65.53
888.412	-24.58
888.583	4.1
888.754	32.77
888.926	-116.73
889.097	-92.16
889.268	-55.3
889.44	96.25
889.611	-104.45
889.782	-0
889.953	-2.05
890.125	88.06
890.296	-22.53
890.467	22.53
890.638	-12.29
890.809	69.63
890.98	-59.39
891.151	47.1
891.323	114.69
891.494	32.77
891.665	-12.29
891.836	-8.19
892.007	-124.93
892.178	106.49
892.349	8.19
892.52	-118.78
892.691	-14.34
892.862	14.34
893.032	-43.01
893.203	-43.01
893.374	38.91
893.545	59.39
893.716	-26.62
893.887	86.01
894.057	-2.05
894.228	86.01
894.399	-4.1
894.57	77.82
894.74	-2.05
894.911	79.87
895.082	-43.01
895.253	-63.49
895.423	-20.48
895.594	106.49
895.764	26.62
895.935	-71.68
896.106	34.82
896.276	-40.96
896.447	6.14
896.617	-65.54
896.788	-20.48
896.958	-73.73
897.129	-110.59
897.299	-26.62
897.47	100.35
897.64	98.3
897.81	30.72
897.981	-26.62
898.151	-14.34
898.322	106.49
898.492	73.73
898.662	-26.62
898.832	-69.63
899.003	-104.45
899.173	75.77
899.343	-38.91
899.513	-75.77
