Data from USB4F104151__107__10-45-32-263.txt Node

Date: Wed Feb 26 10:45:32 EST 2025
User: louis
Spectrometer: USB4F10415
Trigger mode: 4
Integration Time (sec): 1.000000E-1
Scans to average: 1
Electric dark correction enabled: true
Nonlinearity correction enabled: false
Boxcar width: 0
XAxis mode: Wavelengths
Number of Pixels in Spectrum: 3648
>>>>>Begin Spectral Data<<<<<
178.204	-418.13
178.424	-418.13
178.644	-418.13
178.864	-344.4
179.084	-315.73
179.304	-14.68
179.524	1.71
179.744	26.28
179.964	20.14
180.184	52.91
180.404	-24.92
180.624	-41.3
180.844	-24.92
181.064	-57.68
181.283	46.76
181.503	-14.68
181.723	30.38
181.943	-86.36
182.163	122.54
182.383	-24.92
182.602	87.72
182.822	89.77
183.042	38.57
183.262	57
183.482	-6.49
183.701	22.19
183.921	-16.73
184.141	-80.21
184.361	122.54
184.58	36.52
184.8	93.87
185.02	18.09
185.239	190.12
185.459	128.68
185.679	169.64
185.898	-84.31
186.118	110.25
186.338	18.09
186.557	128.68
186.777	-12.63
186.997	-14.68
187.216	22.19
187.436	229.03
187.655	69.29
187.875	134.82
188.095	44.71
188.314	52.91
188.534	95.91
188.753	-82.26
188.973	161.45
189.192	134.82
189.412	65.19
189.631	9.9
189.851	95.91
190.07	202.41
190.29	-4.44
190.509	5.8
190.729	5.8
190.948	116.39
191.168	231.08
191.387	85.67
191.607	145.06
191.826	75.43
192.045	52.91
192.265	32.43
192.484	61.1
192.704	24.23
192.923	-67.92
193.142	83.63
193.362	102.06
193.581	145.06
193.8	54.95
194.02	75.43
194.239	104.11
194.458	167.59
194.678	-16.73
194.897	7.85
195.116	24.23
195.335	79.53
195.555	48.81
195.774	30.38
195.993	71.34
196.212	30.38
196.432	34.47
196.651	16.04
196.87	13.99
197.089	216.74
197.308	93.87
197.528	149.16
197.747	-47.44
197.966	22.19
198.185	151.21
198.404	-12.63
198.623	124.58
198.842	140.97
199.062	145.06
199.281	145.06
199.5	50.86
199.719	91.82
199.938	89.77
200.157	75.43
200.376	112.3
200.595	128.68
200.814	108.2
201.033	18.09
201.252	257.7
201.471	130.73
201.69	75.43
201.909	102.06
202.128	91.82
202.347	102.06
202.566	59.05
202.785	9.9
203.004	-41.3
203.223	241.32
203.442	138.92
203.661	-61.78
203.879	79.53
204.098	167.59
204.317	-57.68
204.536	118.44
204.755	87.72
204.974	95.91
205.193	97.96
205.411	194.22
205.63	118.44
205.849	36.52
206.068	-29.01
206.287	-0.34
206.505	67.24
206.724	50.86
206.943	5.8
207.162	52.91
207.381	102.06
207.599	40.62
207.818	46.76
208.037	42.67
208.255	5.8
208.474	110.25
208.693	24.23
208.911	7.85
209.13	116.39
209.349	169.64
209.567	71.34
209.786	85.67
210.005	145.06
210.223	100.01
210.442	-88.4
210.661	69.29
210.879	89.77
211.098	38.57
211.316	97.96
211.535	75.43
211.753	85.67
211.972	95.91
212.191	91.82
212.409	24.23
212.628	61.1
212.846	3.75
213.065	50.86
213.283	79.53
213.502	79.53
213.72	157.35
213.938	65.19
214.157	36.52
214.375	155.3
214.594	7.85
214.812	89.77
215.031	11.95
215.249	69.29
215.467	59.05
215.686	102.06
215.904	54.95
216.122	44.71
216.341	73.39
216.559	28.33
216.778	145.06
216.996	190.12
217.214	-63.83
217.432	-0.34
217.651	-41.3
217.869	124.58
218.087	69.29
218.306	46.76
218.524	-0.34
218.742	93.87
218.96	110.25
219.179	34.47
219.397	63.15
219.615	286.37
219.833	112.3
220.051	30.38
220.27	118.44
220.488	95.91
220.706	108.2
220.924	67.24
221.142	11.95
221.36	65.19
221.578	79.53
221.796	63.15
222.015	26.28
222.233	40.62
222.451	83.63
222.669	-22.87
222.887	136.87
223.105	-12.63
223.323	67.24
223.541	-84.31
223.759	85.67
223.977	63.15
224.195	140.97
224.413	-0.34
224.631	30.38
224.849	120.49
225.067	222.89
225.285	1.71
225.503	36.52
225.721	-20.82
225.939	87.72
226.157	32.43
226.375	200.36
226.592	5.8
226.81	20.14
227.028	134.82
227.246	48.81
227.464	81.58
227.682	212.65
227.9	36.52
228.117	-6.49
228.335	71.34
228.553	97.96
228.771	77.48
228.989	52.91
229.206	132.78
229.424	32.43
229.642	24.23
229.86	-45.4
230.077	157.35
230.295	44.71
230.513	118.44
230.731	36.52
230.948	192.17
231.166	212.65
231.384	40.62
231.601	36.52
231.819	202.41
232.037	57
232.254	-63.83
232.472	71.34
232.689	50.86
232.907	110.25
233.125	61.1
233.342	-29.01
233.56	16.04
233.777	-16.73
233.995	89.77
234.213	85.67
234.43	145.06
234.648	-12.63
234.865	75.43
235.083	38.57
235.3	85.67
235.518	69.29
235.735	165.54
235.953	120.49
236.17	77.48
236.388	52.91
236.605	85.67
236.822	126.63
237.04	95.91
237.257	108.2
237.475	-45.4
237.692	46.76
237.909	16.04
238.127	-10.58
238.344	59.05
238.562	34.47
238.779	-35.16
238.996	-47.44
239.214	79.53
239.431	81.58
239.648	9.9
239.865	79.53
240.083	79.53
240.3	-6.49
240.517	63.15
240.735	3.75
240.952	175.78
241.169	67.24
241.386	81.58
241.603	67.24
241.821	67.24
242.038	91.82
242.255	128.68
242.472	-2.39
242.689	52.91
242.907	79.53
243.124	116.39
243.341	122.54
243.558	22.19
243.775	-74.07
243.992	-37.2
244.209	128.68
244.426	190.12
244.643	81.58
244.86	67.24
245.078	57
245.295	153.26
245.512	63.15
245.729	-43.35
245.946	116.39
246.163	57
246.38	1.71
246.597	95.91
246.814	97.96
247.031	59.05
247.248	-6.49
247.464	36.52
247.681	52.91
247.898	81.58
248.115	71.34
248.332	11.95
248.549	128.68
248.766	165.54
248.983	91.82
249.2	126.63
249.417	79.53
249.633	87.72
249.85	140.97
250.067	52.91
250.284	57
250.501	91.82
250.717	130.73
250.934	28.33
251.151	18.09
251.368	50.86
251.585	161.45
251.801	110.25
252.018	9.9
252.235	118.44
252.451	-12.63
252.668	61.1
252.885	124.58
253.102	16.04
253.318	18.09
253.535	44.71
253.752	-26.96
253.968	32.43
254.185	-47.44
254.401	40.62
254.618	69.29
254.835	-51.54
255.051	204.46
255.268	138.92
255.484	93.87
255.701	48.81
255.917	118.44
256.134	-37.2
256.351	71.34
256.567	-92.5
256.784	44.71
257	7.85
257.217	102.06
257.433	87.72
257.65	91.82
257.866	220.84
258.082	-69.97
258.299	28.33
258.515	75.43
258.732	-14.68
258.948	-16.73
259.165	130.73
259.381	11.95
259.597	87.72
259.814	63.15
260.03	32.43
260.246	79.53
260.463	163.5
260.679	143.02
260.895	54.95
261.112	89.77
261.328	44.71
261.544	44.71
261.761	110.25
261.977	-14.68
262.193	-31.06
262.409	42.67
262.626	-0.34
262.842	36.52
263.058	-4.44
263.274	183.98
263.49	61.1
263.707	85.67
263.923	102.06
264.139	-72.02
264.355	118.44
264.571	106.15
264.787	145.06
265.004	85.67
265.22	57
265.436	36.52
265.652	95.91
265.868	114.34
266.084	-8.53
266.3	132.78
266.516	-69.97
266.732	57
266.948	40.62
267.164	93.87
267.38	61.1
267.596	157.35
267.812	138.92
268.028	36.52
268.244	18.09
268.46	42.67
268.676	71.34
268.892	69.29
269.108	30.38
269.324	-37.2
269.54	9.9
269.756	149.16
269.972	-55.64
270.188	87.72
270.403	50.86
270.619	26.28
270.835	161.45
271.051	11.95
271.267	-39.25
271.483	50.86
271.698	108.2
271.914	128.68
272.13	32.43
272.346	71.34
272.562	95.91
272.777	83.63
272.993	71.34
273.209	28.33
273.425	134.82
273.64	-72.02
273.856	20.14
274.072	13.99
274.287	22.19
274.503	108.2
274.719	77.48
274.934	91.82
275.15	-22.87
275.366	20.14
275.581	52.91
275.797	48.81
276.012	79.53
276.228	-0.34
276.444	26.28
276.659	175.78
276.875	52.91
277.09	16.04
277.306	48.81
277.521	132.78
277.737	36.52
277.952	110.25
278.168	48.81
278.383	102.06
278.599	102.06
278.814	143.02
279.03	112.3
279.245	128.68
279.461	34.47
279.676	163.5
279.892	-0.34
280.107	26.28
280.322	108.2
280.538	126.63
280.753	40.62
280.969	171.69
281.184	52.91
281.399	134.82
281.615	48.81
281.83	7.85
282.045	-49.49
282.26	-24.92
282.476	34.47
282.691	77.48
282.906	112.3
283.122	116.39
283.337	30.38
283.552	132.78
283.767	-35.16
283.983	77.48
284.198	48.81
284.413	155.3
284.628	-69.97
284.843	50.86
285.058	208.55
285.274	28.33
285.489	-78.16
285.704	69.29
285.919	97.96
286.134	65.19
286.349	73.39
286.564	-10.58
286.779	161.45
286.995	26.28
287.21	-16.73
287.425	118.44
287.64	-10.58
287.855	77.48
288.07	-14.68
288.285	241.32
288.5	147.11
288.715	95.91
288.93	97.96
289.145	36.52
289.36	147.11
289.575	16.04
289.79	169.64
290.004	44.71
290.219	140.97
290.434	32.43
290.649	5.8
290.864	124.58
291.079	38.57
291.294	91.82
291.509	52.91
291.724	54.95
291.938	50.86
292.153	83.63
292.368	97.96
292.583	-26.96
292.798	85.67
293.012	67.24
293.227	38.57
293.442	32.43
293.657	126.63
293.871	212.65
294.086	52.91
294.301	97.96
294.516	163.5
294.73	38.57
294.945	16.04
295.16	95.91
295.374	200.36
295.589	126.63
295.804	118.44
296.018	40.62
296.233	169.64
296.447	79.53
296.662	104.11
296.877	116.39
297.091	106.15
297.306	63.15
297.52	50.86
297.735	100.01
297.949	132.78
298.164	128.68
298.378	95.91
298.593	9.9
298.807	-18.77
299.022	100.01
299.236	145.06
299.451	40.62
299.665	32.43
299.88	87.72
300.094	40.62
300.309	30.38
300.523	159.4
300.737	18.09
300.952	143.02
301.166	110.25
301.381	83.63
301.595	26.28
301.809	126.63
302.024	36.52
302.238	-2.39
302.452	112.3
302.667	126.63
302.881	183.98
303.095	122.54
303.309	69.29
303.524	18.09
303.738	-8.53
303.952	32.43
304.166	116.39
304.381	-84.31
304.595	149.16
304.809	67.24
305.023	18.09
305.237	-0.34
305.452	26.28
305.666	59.05
305.88	97.96
306.094	93.87
306.308	149.16
306.522	77.48
306.736	63.15
306.95	155.3
307.164	65.19
307.379	52.91
307.593	134.82
307.807	138.92
308.021	151.21
308.235	128.68
308.449	-24.92
308.663	83.63
308.877	237.22
309.091	48.81
309.305	167.59
309.519	-49.49
309.733	208.55
309.947	-26.96
310.161	73.39
310.374	136.87
310.588	190.12
310.802	50.86
311.016	93.87
311.23	130.73
311.444	57
311.658	28.33
311.872	192.17
312.085	171.69
312.299	208.55
312.513	149.16
312.727	102.06
312.941	16.04
313.154	87.72
313.368	-12.63
313.582	112.3
313.796	73.39
314.009	71.34
314.223	93.87
314.437	85.67
314.651	112.3
314.864	44.71
315.078	11.95
315.292	26.28
315.505	48.81
315.719	52.91
315.933	65.19
316.146	-41.3
316.36	40.62
316.573	161.45
316.787	50.86
317.001	106.15
317.214	-33.11
317.428	93.87
317.641	24.23
317.855	-31.06
318.068	13.99
318.282	110.25
318.495	177.83
318.709	77.48
318.922	65.19
319.136	188.07
319.349	95.91
319.563	-2.39
319.776	57
319.99	-86.36
320.203	128.68
320.417	77.48
320.63	218.79
320.843	186.02
321.057	177.83
321.27	44.71
321.483	22.19
321.697	206.5
321.91	157.35
322.124	5.8
322.337	24.23
322.55	-55.64
322.763	79.53
322.977	34.47
323.19	83.63
323.403	-4.44
323.617	57
323.83	97.96
324.043	61.1
324.256	34.47
324.469	1.71
324.683	130.73
324.896	5.8
325.109	61.1
325.322	-14.68
325.535	71.34
325.748	110.25
325.962	38.57
326.175	63.15
326.388	75.43
326.601	179.88
326.814	42.67
327.027	83.63
327.24	171.69
327.453	-121.17
327.666	155.3
327.879	140.97
328.092	59.05
328.305	128.68
328.518	63.15
328.731	24.23
328.944	40.62
329.157	120.49
329.37	24.23
329.583	151.21
329.796	79.53
330.009	-47.44
330.222	106.15
330.435	52.91
330.648	46.76
330.861	16.04
331.073	24.23
331.286	153.26
331.499	34.47
331.712	20.14
331.925	26.28
332.138	18.09
332.35	214.7
332.563	57
332.776	87.72
332.989	75.43
333.202	22.19
333.414	44.71
333.627	93.87
333.84	36.52
334.053	100.01
334.265	79.53
334.478	87.72
334.691	102.06
334.903	48.81
335.116	13.99
335.329	28.33
335.541	116.39
335.754	175.78
335.966	61.1
336.179	63.15
336.392	20.14
336.604	65.19
336.817	118.44
337.029	30.38
337.242	110.25
337.454	34.47
337.667	28.33
337.88	149.16
338.092	106.15
338.305	91.82
338.517	11.95
338.729	210.6
338.942	196.26
339.154	-14.68
339.367	-10.58
339.579	116.39
339.792	-33.11
340.004	212.65
340.217	77.48
340.429	61.1
340.641	48.81
340.854	-0.34
341.066	52.91
341.278	181.93
341.491	79.53
341.703	-0.34
341.915	22.19
342.128	151.21
342.34	85.67
342.552	13.99
342.764	65.19
342.977	13.99
343.189	159.4
343.401	69.29
343.613	-6.49
343.826	65.19
344.038	48.81
344.25	65.19
344.462	38.57
344.674	71.34
344.886	13.99
345.099	128.68
345.311	44.71
345.523	-4.44
345.735	-0.34
345.947	106.15
346.159	57
346.371	7.85
346.583	118.44
346.795	192.17
347.007	81.58
347.219	97.96
347.431	20.14
347.643	69.29
347.855	36.52
348.067	157.35
348.279	-41.3
348.491	34.47
348.703	143.02
348.915	18.09
349.127	52.91
349.339	130.73
349.551	54.95
349.763	100.01
349.975	16.04
350.187	132.78
350.399	183.98
350.61	110.25
350.822	40.62
351.034	124.58
351.246	75.43
351.458	24.23
351.669	136.87
351.881	151.21
352.093	57
352.305	120.49
352.517	114.34
352.728	136.87
352.94	46.76
353.152	71.34
353.363	42.67
353.575	32.43
353.787	153.26
353.999	83.63
354.21	216.74
354.422	-49.49
354.633	20.14
354.845	59.05
355.057	32.43
355.268	118.44
355.48	134.82
355.692	16.04
355.903	69.29
356.115	-10.58
356.326	-69.97
356.538	190.12
356.749	106.15
356.961	186.02
357.172	69.29
357.384	-72.02
357.595	233.13
357.807	61.1
358.018	32.43
358.23	100.01
358.441	100.01
358.653	116.39
358.864	85.67
359.075	-0.34
359.287	122.54
359.498	177.83
359.709	100.01
359.921	36.52
360.132	110.25
360.344	138.92
360.555	34.47
360.766	38.57
360.977	-12.63
361.189	149.16
361.4	71.34
361.611	118.44
361.823	143.02
362.034	42.67
362.245	-59.73
362.456	61.1
362.667	32.43
362.879	-74.07
363.09	112.3
363.301	44.71
363.512	87.72
363.723	65.19
363.935	-4.44
364.146	157.35
364.357	-51.54
364.568	163.5
364.779	57
364.99	153.26
365.201	-41.3
365.412	167.59
365.623	-12.63
365.834	130.73
366.045	110.25
366.256	100.01
366.467	149.16
366.678	63.15
366.889	106.15
367.1	38.57
367.311	79.53
367.522	-31.06
367.733	73.39
367.944	52.91
368.155	91.82
368.366	52.91
368.577	83.63
368.788	143.02
368.999	67.24
369.209	122.54
369.42	192.17
369.631	253.61
369.842	120.49
370.053	85.67
370.264	173.74
370.474	-24.92
370.685	104.11
370.896	71.34
371.107	155.3
371.317	173.74
371.528	73.39
371.739	140.97
371.95	79.53
372.16	110.25
372.371	7.85
372.582	50.86
372.792	106.15
373.003	122.54
373.214	48.81
373.424	171.69
373.635	95.91
373.846	143.02
374.056	40.62
374.267	159.4
374.477	110.25
374.688	-2.39
374.898	151.21
375.109	61.1
375.319	61.1
375.53	130.73
375.74	173.74
375.951	32.43
376.161	79.53
376.372	157.35
376.582	32.43
376.793	57
377.003	54.95
377.214	-4.44
377.424	106.15
377.635	40.62
377.845	-20.82
378.055	179.88
378.266	22.19
378.476	32.43
378.686	50.86
378.897	128.68
379.107	89.77
379.317	61.1
379.528	75.43
379.738	59.05
379.948	-22.87
380.158	169.64
380.369	59.05
380.579	97.96
380.789	42.67
380.999	106.15
381.21	91.82
381.42	243.37
381.63	83.63
381.84	143.02
382.05	79.53
382.261	79.53
382.471	233.13
382.681	44.71
382.891	183.98
383.101	18.09
383.311	9.9
383.521	61.1
383.731	73.39
383.941	79.53
384.151	132.78
384.361	153.26
384.571	75.43
384.781	50.86
384.991	220.84
385.201	183.98
385.411	120.49
385.621	171.69
385.831	32.43
386.041	48.81
386.251	112.3
386.461	229.03
386.671	48.81
386.881	87.72
387.091	22.19
387.301	200.36
387.511	52.91
387.72	132.78
387.93	110.25
388.14	7.85
388.35	73.39
388.56	83.63
388.769	134.82
388.979	57
389.189	-14.68
389.399	44.71
389.609	130.73
389.818	186.02
390.028	79.53
390.238	173.74
390.447	-16.73
390.657	13.99
390.867	-14.68
391.076	32.43
391.286	114.34
391.496	34.47
391.705	138.92
391.915	130.73
392.125	83.63
392.334	59.05
392.544	210.6
392.753	116.39
392.963	69.29
393.172	134.82
393.382	38.57
393.591	202.41
393.801	-24.92
394.01	210.6
394.22	71.34
394.429	65.19
394.639	71.34
394.848	44.71
395.058	118.44
395.267	73.39
395.477	167.59
395.686	75.43
395.895	253.61
396.105	202.41
396.314	143.02
396.524	11.95
396.733	116.39
396.942	194.22
397.152	24.23
397.361	147.11
397.57	159.4
397.78	57
397.989	145.06
398.198	321.19
398.407	44.71
398.617	20.14
398.826	79.53
399.035	120.49
399.244	130.73
399.453	128.68
399.663	87.72
399.872	114.34
400.081	-10.58
400.29	181.93
400.499	3.75
400.708	143.02
400.917	13.99
401.127	44.71
401.336	40.62
401.545	214.7
401.754	157.35
401.963	130.73
402.172	11.95
402.381	-10.58
402.59	65.19
402.799	46.76
403.008	147.11
403.217	18.09
403.426	120.49
403.635	-6.49
403.844	52.91
404.053	-0.34
404.262	18.09
404.471	124.58
404.68	75.43
404.888	59.05
405.097	77.48
405.306	73.39
405.515	65.19
405.724	104.11
405.933	89.77
406.142	108.2
406.35	130.73
406.559	95.91
406.768	79.53
406.977	140.97
407.185	110.25
407.394	89.77
407.603	11.95
407.812	50.86
408.02	206.5
408.229	3.75
408.438	114.34
408.646	-8.53
408.855	77.48
409.064	175.78
409.272	38.57
409.481	140.97
409.69	26.28
409.898	-4.44
410.107	97.96
410.315	231.08
410.524	18.09
410.733	52.91
410.941	59.05
411.15	100.01
411.358	163.5
411.567	91.82
411.775	52.91
411.984	52.91
412.192	36.52
412.401	54.95
412.609	163.5
412.818	171.69
413.026	85.67
413.234	112.3
413.443	77.48
413.651	81.58
413.86	114.34
414.068	173.74
414.276	216.74
414.485	28.33
414.693	257.7
414.901	198.31
415.11	93.87
415.318	38.57
415.526	114.34
415.734	143.02
415.943	138.92
416.151	143.02
416.359	28.33
416.567	87.72
416.776	157.35
416.984	155.3
417.192	239.27
417.4	1.71
417.608	110.25
417.817	42.67
418.025	200.36
418.233	169.64
418.441	-8.53
418.649	-4.44
418.857	171.69
419.065	143.02
419.273	32.43
419.481	124.58
419.689	91.82
419.897	77.48
420.105	-26.96
420.313	54.95
420.521	120.49
420.729	222.89
420.937	-18.77
421.145	52.91
421.353	214.7
421.561	183.98
421.769	151.21
421.977	1.71
422.185	100.01
422.393	106.15
422.601	118.44
422.809	36.52
423.017	106.15
423.224	65.19
423.432	173.74
423.64	65.19
423.848	177.83
424.056	93.87
424.263	120.49
424.471	18.09
424.679	200.36
424.887	38.57
425.094	183.98
425.302	95.91
425.51	36.52
425.718	183.98
425.925	134.82
426.133	40.62
426.341	226.98
426.548	155.3
426.756	-22.87
426.964	81.58
427.171	102.06
427.379	192.17
427.586	167.59
427.794	183.98
428.001	138.92
428.209	71.34
428.417	226.98
428.624	122.54
428.832	163.5
429.039	181.93
429.247	126.63
429.454	175.78
429.662	226.98
429.869	181.93
430.076	288.42
430.284	106.15
430.491	249.51
430.699	194.22
430.906	267.94
431.114	204.46
431.321	200.36
431.528	126.63
431.736	222.89
431.943	243.37
432.15	276.13
432.358	214.7
432.565	274.09
432.772	116.39
432.979	282.28
433.187	226.98
433.394	239.27
433.601	196.26
433.808	272.04
434.016	292.52
434.223	327.33
434.43	237.22
434.637	345.77
434.844	382.63
435.052	360.1
435.259	325.29
435.466	341.67
435.673	364.2
435.88	437.92
436.087	392.87
436.294	478.88
436.501	491.17
436.708	478.88
436.915	396.96
437.122	458.4
437.329	351.91
437.537	446.12
437.743	511.65
437.95	542.37
438.157	558.75
438.364	470.69
438.571	568.99
438.778	607.91
438.985	523.94
439.192	581.28
439.399	614.05
439.606	659.1
439.813	691.87
440.02	837.28
440.227	831.13
440.433	683.68
440.64	691.87
440.847	706.21
441.054	911
441.261	960.16
441.467	831.13
441.674	868
441.881	982.68
442.088	831.13
442.294	984.73
442.501	1136.28
442.708	1052.31
442.914	1072.79
443.121	1154.71
443.328	1070.75
443.534	1212.06
443.741	1277.59
443.948	1263.26
444.154	1328.79
444.361	1566.35
444.568	1369.75
444.774	1523.35
444.981	1394.33
445.187	1687.18
445.394	1658.51
445.6	1693.33
445.807	1871.5
446.013	1777.3
446.22	1754.77
446.426	1844.88
446.633	2115.21
446.839	2260.62
447.046	1973.9
447.252	2367.11
447.459	2164.36
447.665	2297.48
447.871	2530.95
448.078	2551.43
448.284	2526.85
448.491	2733.7
448.697	2741.89
448.903	3004.03
449.11	3069.56
449.316	2987.65
449.522	3337.85
449.728	3458.68
449.935	3409.53
450.141	3499.64
450.347	3745.39
450.553	3784.3
450.76	3884.66
450.966	4066.92
451.172	4052.59
451.378	4531.81
451.584	4273.77
451.791	4701.79
451.997	4757.09
452.203	5025.37
452.409	5150.3
452.615	5373.53
452.821	5215.84
453.027	5342.81
453.233	5951.06
453.44	5862.99
453.646	6164.04
453.852	6493.77
454.058	6512.2
454.264	6766.15
454.47	7413.31
454.676	7196.22
454.882	7947.83
455.088	7536.18
455.294	8042.03
455.5	8537.64
455.705	9076.26
455.911	9197.09
456.117	9434.65
456.323	9702.93
456.529	9764.37
456.735	10642.95
456.941	10669.58
457.147	11234.82
457.352	11470.33
457.558	11832.82
457.764	12699.11
457.97	12914.15
458.176	13262.3
458.381	14110.16
458.587	14312.91
458.793	14859.72
458.999	15099.33
459.204	16956.84
459.41	17434.02
459.616	17272.23
459.821	18050.46
460.027	19064.2
460.233	19885.44
460.438	20163.96
460.644	21161.32
460.85	21396.84
461.055	22265.17
461.261	23387.46
461.466	22705.49
461.672	23219.53
461.878	26025.25
462.083	25670.95
462.289	26332.44
462.494	27184.4
462.7	27444.49
462.905	27806.98
463.111	30067.94
463.316	31306.96
463.522	32056.51
463.727	33012.91
463.932	34440.35
464.138	35005.59
464.343	36381.82
464.549	36764.79
464.754	39418.96
464.959	40238.15
465.165	41223.22
465.37	40770.62
465.575	41061.43
465.781	43787.28
465.986	44502.02
466.191	44028.94
466.397	44786.69
466.602	43738.13
466.807	45974.51
467.012	47072.22
467.218	47492.05
467.423	47944.66
467.628	49218.49
467.833	51014.56
468.038	50713.51
468.244	49572.79
468.449	52233.1
468.654	51018.66
468.859	51151.77
469.064	50803.62
469.269	49779.64
469.474	50394.03
469.679	51768.21
469.885	50455.46
470.09	51004.32
470.295	51071.9
470.5	49834.93
470.705	50330.54
470.91	48729.03
471.115	48792.51
471.32	49079.23
471.525	49279.93
471.73	47360.98
471.935	47436.76
472.139	45935.6
472.344	45886.45
472.549	45761.52
472.754	44856.32
472.959	44059.66
473.164	42449.95
473.369	41948.2
473.574	42839.07
473.778	41980.97
473.983	41460.79
474.188	40389.7
474.393	38669.4
474.598	38995.03
474.802	37852.27
475.007	37401.71
475.212	37254.26
475.417	35357.84
475.621	35069.08
475.826	34856.09
476.031	33834.15
476.235	33234.1
476.44	33463.47
476.645	32408.76
476.849	32105.66
477.054	31562.95
477.259	30622.94
477.463	31173.84
477.668	29865.19
477.872	29887.71
478.077	29082.86
478.282	28226.81
478.486	28046.59
478.691	27667.72
478.895	27458.82
479.1	27632.9
479.304	27125
479.509	26377.5
479.713	26469.65
479.918	25963.81
480.122	25726.24
480.326	25972
480.531	25623.84
480.735	25316.65
480.94	24763.7
481.144	25885.98
481.348	24393.01
481.553	24608.05
481.757	23635.27
481.961	24180.03
482.166	24313.14
482.37	24042.81
482.574	23178.57
482.778	23313.73
482.983	23356.74
483.187	23096.65
483.391	23084.36
483.595	22826.32
483.8	22097.24
484.004	22134.1
484.208	22191.45
484.412	21957.98
484.616	21892.44
484.821	21661.02
485.025	20913.52
485.229	21138.79
485.433	20684.14
485.637	20409.72
485.841	20116.86
486.045	19787.13
486.249	19473.79
486.453	19488.13
486.657	19185.03
486.861	18777.48
487.065	18302.36
487.269	18347.41
487.473	17765.79
487.677	18058.65
487.881	17735.07
488.085	17108.39
488.289	16917.93
488.493	16328.11
488.697	16696.75
488.901	16068.02
489.105	15568.32
489.309	15521.21
489.512	15316.42
489.716	15173.06
489.92	14454.22
490.124	14403.02
490.328	14501.33
490.531	13755.86
490.735	13989.33
490.939	13520.35
491.143	13200.87
491.346	13063.65
491.55	12932.58
491.754	12842.47
491.958	12400.11
492.161	12217.84
492.365	12064.24
492.569	11691.51
492.772	11552.25
492.976	11312.64
493.18	11470.33
493.383	11353.6
493.587	11290.11
493.79	11122.18
493.994	10591.75
494.197	10745.35
494.401	10604.04
494.605	10323.47
494.808	10421.77
495.012	10458.64
495.215	10231.31
495.419	10341.9
495.622	9899.54
495.825	9965.07
496.029	9817.62
496.232	9813.52
496.436	9774.61
496.639	9852.44
496.843	9641.5
497.046	9700.89
497.249	9864.72
497.453	9754.13
497.656	9750.04
497.859	9741.85
498.063	9737.75
498.266	9917.97
498.469	9614.87
498.673	9936.4
498.876	9745.94
499.079	9944.59
499.282	9870.87
499.485	10223.12
499.689	10014.23
499.892	10075.66
500.095	9920.02
500.298	10210.83
500.501	10079.76
500.705	10253.84
500.908	10425.87
501.111	10427.92
501.314	10599.94
501.517	10556.94
501.72	10595.85
501.923	10477.07
502.126	11091.46
502.329	11087.36
502.532	11202.05
502.735	11140.61
502.938	11458.04
503.141	11496.96
503.344	11333.12
503.547	11660.79
503.75	11554.3
503.953	11978.23
504.156	12213.74
504.359	12234.22
504.562	12385.77
504.765	12686.83
504.968	12877.29
505.17	13018.6
505.373	13030.88
505.576	13499.87
505.779	13362.65
505.982	13534.68
506.185	13936.09
506.387	14024.15
506.59	14448.08
506.793	14585.29
506.996	14513.61
507.198	15365.57
507.401	15390.14
507.604	15773.11
507.807	16156.08
508.009	16448.94
508.212	16645.55
508.415	17055.14
508.617	17118.63
508.82	17558.94
509.022	17532.32
509.225	18349.46
509.428	18402.71
509.63	19037.58
509.833	19195.27
510.035	19924.35
510.238	20204.92
510.44	20348.28
510.643	21179.75
510.845	21364.07
511.048	21751.13
511.25	22232.41
511.453	22783.31
511.655	23633.22
511.858	23774.53
512.06	24421.69
512.262	24741.17
512.465	25290.02
512.667	26090.78
512.87	26447.13
513.072	27403.53
513.274	27667.72
513.477	28284.16
513.679	28884.21
513.881	29879.52
514.084	30287.07
514.286	30360.8
514.488	31235.28
514.69	32257.21
514.893	32935.09
515.095	33397.93
515.297	33916.07
515.499	34534.56
515.701	35439.76
515.904	36287.62
516.106	36772.99
516.308	37500.01
516.51	38405.22
516.712	39083.09
516.914	39775.31
517.116	40385.6
517.318	41090.1
517.52	41950.25
517.722	42456.1
517.925	43256.85
518.127	44545.03
518.329	44768.26
518.531	44815.36
518.733	46214.12
518.935	47215.58
519.136	47373.27
519.338	48528.33
519.54	49025.98
519.742	49748.92
519.944	50414.51
520.146	51667.86
520.348	51538.84
520.55	51981.2
520.752	52888.45
520.954	53898.1
521.155	53695.35
521.357	54915.94
521.559	55354.21
521.761	56607.56
521.963	56359.76
522.164	57105.22
522.366	57166.66
522.568	57817.91
522.77	58090.29
522.971	59089.7
523.173	58526.51
523.375	59046.69
523.576	59241.25
523.778	59300.64
523.98	59818.78
524.181	60295.95
524.383	60359.44
524.584	60900.11
524.786	60283.67
524.988	60343.06
525.189	61117.19
525.391	61145.86
525.592	60930.82
525.794	61346.56
525.995	61149.96
526.197	61016.84
526.398	60912.39
526.6	60932.87
526.801	60740.36
527.003	60547.85
527.204	60306.19
527.406	60377.87
527.607	60255
527.808	59831.07
528.01	58786.6
528.211	59282.21
528.412	59405.09
528.614	58673.96
528.815	58497.84
529.016	58354.48
529.218	57017.16
529.419	56656.71
529.62	56376.14
529.822	55765.85
530.023	55219.04
530.224	55231.33
530.425	54584.17
530.626	53752.69
530.828	53144.45
531.029	53857.14
531.23	52444.04
531.431	52087.7
531.632	51186.59
531.833	50682.79
532.035	50768.8
532.236	49836.98
532.437	49570.74
532.638	48233.42
532.839	48083.92
533.04	47829.97
533.241	46314.47
533.442	46699.49
533.643	45593.59
533.844	45245.43
534.045	44577.79
534.246	43570.19
534.447	43596.82
534.648	42798.11
534.849	42161.19
535.05	41387.06
535.251	41362.48
535.451	40404.03
535.652	40166.47
535.853	39691.34
536.054	38894.68
536.255	38511.71
536.456	37571.69
536.657	37719.15
536.857	37213.3
537.058	36328.58
537.259	35941.51
537.46	35634.31
537.66	35329.17
537.861	34813.08
538.062	34172.07
538.263	33672.36
538.463	33420.46
538.664	32812.21
538.865	32380.09
539.065	32713.91
539.266	31478.99
539.466	31528.14
539.667	30960.85
539.868	30819.54
540.068	30129.37
540.269	29795.56
540.469	29635.81
540.67	28747
540.87	29093.1
541.071	28132.61
541.271	28351.74
541.472	27880.71
541.672	27395.34
541.873	27208.97
542.073	26727.7
542.274	26885.39
542.474	26443.03
542.675	25834.78
542.875	25959.71
543.075	25433.38
543.276	25054.51
543.476	24843.57
543.676	24374.58
543.877	24696.11
544.077	24073.53
544.277	23954.75
544.478	23487.81
544.678	23399.75
544.878	22867.28
545.078	22875.47
545.279	22476.12
545.479	21988.7
545.679	21984.6
545.879	21927.26
546.079	21706.08
546.28	21290.34
546.48	20882.8
546.68	20790.64
546.88	20604.27
547.08	20135.29
547.28	20061.56
547.48	19694.97
547.68	19703.17
547.88	19066.25
548.081	19189.13
548.281	18679.18
548.481	18376.08
548.681	18681.23
548.881	18322.84
549.081	17919.39
549.28	17589.66
549.48	17722.78
549.68	17210.79
549.88	17227.17
550.08	16663.98
550.28	16879.02
550.48	16207.28
550.68	16057.78
550.88	15726.01
551.08	15531.45
551.279	15674.81
551.479	15113.67
551.679	14974.41
551.879	14740.94
552.079	14448.08
552.278	14294.48
552.478	14249.43
552.678	14163.41
552.878	13727.19
553.077	13532.64
553.277	13184.48
553.477	13317.6
553.676	12715.5
553.876	12572.14
554.076	12488.17
554.275	12355.05
554.475	12119.54
554.674	12156.4
554.874	11685.37
555.074	11533.82
555.273	11578.87
555.473	11288.06
555.672	10952.2
555.872	10780.17
556.071	10778.12
556.271	10763.78
556.47	10511.88
556.67	10036.75
556.869	10055.19
557.068	9850.39
557.268	9639.45
557.467	9565.72
557.667	9471.51
557.866	9266.72
558.065	9328.16
558.265	9090.59
558.464	8705.57
558.663	8570.41
558.863	8435.24
559.062	8400.43
559.261	8255.02
559.461	8230.45
559.66	7894.58
559.859	7996.98
560.058	7603.77
560.258	7616.05
560.457	7478.84
560.656	7695.93
560.855	7329.34
561.054	7294.52
561.253	7011.9
561.453	7122.49
561.652	6780.48
561.851	6817.35
562.05	6762.05
562.249	6491.72
562.448	6643.27
562.647	6194.76
562.846	6256.2
563.045	6295.11
563.244	6145.61
563.443	5922.38
563.642	5903.95
563.841	5920.34
564.04	5680.72
564.239	5662.29
564.438	5594.71
564.637	5299.8
564.836	5514.84
565.035	5226.07
565.234	5234.27
565.432	5187.16
565.631	5123.68
565.83	5185.12
566.029	5095
566.228	4849.25
566.427	4775.52
566.625	4693.6
566.824	4818.53
567.023	4826.72
567.222	4494.95
567.42	4611.68
567.619	4484.71
567.818	4302.44
568.016	4484.71
568.215	4335.21
568.414	4312.68
568.612	4204.14
568.811	4095.6
569.01	4142.7
569.208	3870.32
569.407	4032.11
569.605	3907.18
569.804	3872.37
570.002	3743.35
570.201	3604.08
570.4	3706.48
570.598	3624.56
570.797	3526.26
570.995	3448.44
571.193	3399.29
571.392	3499.64
571.59	3294.84
571.789	3419.77
571.987	3401.33
572.186	3346.04
572.384	3229.31
572.582	3106.43
572.781	3174.01
572.979	2829.95
573.177	2875.01
573.376	3020.41
573.574	3006.08
573.772	2819.71
573.971	2745.98
574.169	2657.92
574.367	2778.75
574.565	2674.31
574.763	2748.03
574.962	2801.28
575.16	2705.03
575.358	2524.8
575.556	2522.76
575.754	2432.65
575.952	2383.49
576.151	2436.74
576.349	2322.06
576.547	2176.65
576.745	2152.07
576.943	2303.62
577.141	2029.2
577.339	2098.83
577.537	2125.45
577.735	2182.79
577.933	2025.1
578.131	2004.62
578.329	2160.27
578.527	2068.11
578.725	2037.39
578.923	1998.48
579.121	1937.04
579.319	1777.3
579.516	1777.3
579.714	2082.44
579.912	1844.88
580.11	1619.6
580.308	1715.86
580.506	1625.75
580.704	1580.69
580.901	1599.12
581.099	1691.28
581.297	1566.35
581.495	1570.45
581.692	1697.42
581.89	1707.66
582.088	1523.35
582.285	1517.2
582.483	1451.67
582.681	1390.23
582.878	1414.81
583.076	1447.57
583.274	1314.45
583.471	1486.48
583.669	1367.7
583.866	1230.49
584.064	1222.3
584.262	1253.02
584.459	1244.82
584.657	1347.22
584.854	1306.26
585.052	1189.53
585.249	1302.17
585.447	1201.82
585.644	1160.86
585.841	1201.82
586.039	1250.97
586.236	1273.5
586.434	1070.75
586.631	1017.5
586.828	1056.41
587.026	1087.13
587.223	970.4
587.42	1046.17
587.618	1029.79
587.815	1072.79
588.012	1027.74
588.21	976.54
588.407	1009.31
588.604	1015.45
588.801	833.18
588.999	970.4
589.196	1103.51
589.393	880.29
589.59	1015.45
589.787	923.29
589.984	999.07
590.182	876.19
590.379	904.86
590.576	876.19
590.773	921.24
590.97	886.43
591.167	915.1
591.364	951.96
591.561	802.46
591.758	1029.79
591.955	1021.6
592.152	911
592.349	863.9
592.546	849.57
592.743	857.76
592.94	837.28
593.137	868
593.334	882.33
593.531	870.05
593.727	970.4
593.924	863.9
594.121	831.13
594.318	839.33
594.515	974.49
594.712	1009.31
594.908	1029.79
595.105	911
595.302	1033.88
595.499	994.97
595.696	1074.84
595.892	906.91
596.089	984.73
596.286	978.59
596.482	1105.56
596.679	1040.03
596.876	1072.79
597.072	1203.86
597.269	1117.85
597.466	1121.95
597.662	1148.57
597.859	1222.3
598.055	1228.44
598.252	1328.79
598.448	1343.13
598.645	1552.02
598.841	1472.15
599.038	1574.55
599.234	1681.04
599.431	1744.53
599.627	1666.71
599.824	1654.42
600.02	1832.59
600.217	1828.49
600.413	1914.51
600.609	2074.25
600.806	2279.05
601.002	2170.51
601.198	2287.24
601.395	2389.64
601.591	2492.04
601.787	2416.26
601.984	2592.39
602.18	2659.97
602.376	2688.64
602.572	2958.97
602.769	3014.27
602.965	3124.86
603.161	3337.85
603.357	3477.11
603.553	3583.6
603.75	3470.97
603.946	3829.36
604.142	3833.46
604.338	4263.53
604.534	3921.52
604.73	4191.85
604.926	4421.22
605.122	4650.6
605.318	4705.89
605.514	4796
605.71	4984.41
605.906	5215.84
606.102	5248.6
606.298	5498.45
606.494	5629.52
606.69	5865.04
606.886	5906
607.082	6125.13
607.278	6217.29
607.474	6313.55
607.67	6573.64
607.866	6598.21
608.062	7325.24
608.257	7181.89
608.453	7317.05
608.649	7585.33
608.845	7708.21
609.041	8130.09
609.236	8164.91
609.432	8455.72
609.628	8658.47
609.824	8969.76
610.019	9137.7
610.215	9360.92
610.411	9684.5
610.606	9895.44
610.802	10210.83
610.998	10468.87
611.193	10749.45
611.389	11013.63
611.584	11200
611.78	11609.59
611.976	11716.09
612.171	12592.62
612.367	12543.47
612.562	12983.78
612.758	12977.64
612.953	13372.89
613.149	13876.69
613.344	14155.22
613.539	14824.9
613.735	15095.24
613.93	15332.8
614.126	15836.6
614.321	16215.48
614.517	16565.68
614.712	16889.26
614.907	17429.92
615.103	17794.46
615.298	18064.79
615.493	19111.3
615.688	19244.42
615.884	20276.6
616.079	20264.31
616.274	20946.28
616.47	21169.51
616.665	21835.1
616.86	22347.09
617.055	22775.12
617.25	23348.55
617.445	24466.74
617.641	24319.29
617.836	25269.55
618.031	25740.58
618.226	26885.39
618.421	27262.22
618.616	28101.89
618.811	28087.55
619.006	29207.79
619.201	29672.68
619.396	30637.27
619.591	30655.7
619.786	31771.85
619.981	32367.8
620.176	33133.75
620.371	33600.68
620.566	34407.58
620.761	34854.04
620.956	35961.99
621.151	36275.33
621.346	37133.43
621.541	37346.42
621.735	38886.49
621.93	39124.05
622.125	40019.02
622.32	40367.17
622.515	41759.79
622.709	41909.29
622.904	43045.91
623.099	43246.61
623.294	44385.29
623.488	44772.35
623.683	45802.48
623.878	46124.01
624.072	47035.36
624.267	48069.58
624.462	49136.57
624.656	49124.29
624.851	50062.25
625.046	50383.79
625.24	51549.08
625.435	51719.06
625.629	52880.26
625.824	53592.95
626.018	54256.49
626.213	53752.69
626.407	55229.28
626.602	54885.22
626.796	56296.27
626.991	56308.56
627.185	56875.85
627.38	57078.6
627.574	57373.5
627.768	57979.7
627.963	58147.64
628.157	58247.99
628.352	59013.93
628.546	58227.51
628.74	59052.84
628.935	58311.47
629.129	59036.45
629.323	57662.27
629.517	58450.73
629.712	57748.28
629.906	57320.26
630.1	56804.17
630.294	56347.47
630.489	55571.29
630.683	55782.23
630.877	54362.99
631.071	53572.47
631.265	53058.43
631.459	51993.49
631.653	50908.07
631.848	50078.64
632.042	48616.39
632.236	48106.44
632.43	46248.94
632.624	45671.41
632.818	43901.96
633.012	42404.9
633.206	41129.02
633.4	40535.1
633.594	38784.09
633.788	37563.5
633.982	36521.09
634.176	35460.24
634.369	33717.42
634.563	32533.69
634.757	31290.57
634.951	30514.39
635.145	29107.44
635.339	28194.04
635.533	26862.86
635.726	25804.06
635.92	24399.16
636.114	23641.41
636.308	22738.26
636.501	21988.7
636.695	21040.49
636.889	19889.53
637.083	19086.73
637.276	18425.23
637.47	17730.97
637.664	17108.39
637.857	16373.17
638.051	16059.83
638.244	15144.39
638.438	14497.23
638.632	13780.44
638.825	13219.3
639.019	13030.88
639.212	12287.47
639.406	11802.1
639.599	11443.71
639.793	11253.25
639.986	10378.76
640.18	10221.07
640.373	9834
640.567	9276.96
640.76	8965.67
640.954	8717.86
641.147	8271.4
641.34	8035.89
641.534	7710.26
641.727	7425.59
641.92	7239.23
642.114	6874.69
642.307	6680.13
642.5	6530.63
642.694	6245.96
642.887	5760.59
643.08	5858.9
643.273	5525.08
643.467	5336.67
643.66	5031.52
643.853	4847.2
644.046	4671.08
644.239	4509.29
644.432	4236.91
644.626	4005.49
644.819	4001.39
645.012	3847.79
645.205	3772.02
645.398	3645.04
645.591	3423.86
645.784	3251.83
645.977	3092.09
646.17	2997.88
646.363	3171.96
646.556	2709.12
646.749	2702.98
646.942	2659.97
647.135	2612.87
647.328	2479.75
647.521	2438.79
647.714	2174.6
647.907	2229.9
648.099	1998.48
648.292	2053.77
648.485	2029.2
648.678	1875.6
648.871	1797.78
649.064	1662.61
649.256	1664.66
649.449	1619.6
649.642	1541.78
649.835	1506.96
650.027	1392.28
650.22	1429.14
650.413	1402.52
650.605	1304.21
650.798	1283.74
650.991	1146.52
651.183	1240.73
651.376	1171.1
651.568	1152.67
651.761	1076.89
651.954	1052.31
652.146	904.86
652.339	1107.61
652.531	1126.04
652.724	941.72
652.916	921.24
653.109	747.17
653.301	974.49
653.494	911
653.686	851.61
653.879	876.19
654.071	790.17
654.263	712.35
654.456	700.06
654.648	767.65
654.84	687.78
655.033	577.19
655.225	732.83
655.417	591.52
655.61	667.3
655.802	620.19
655.994	665.25
656.186	513.7
656.379	603.81
656.571	554.66
656.763	489.12
656.955	456.36
657.148	503.46
657.34	550.56
657.532	458.4
657.724	423.59
657.916	485.03
658.108	433.83
658.3	478.88
658.492	442.02
658.684	384.68
658.876	501.41
659.068	401.06
659.26	235.18
659.452	345.77
659.644	411.3
659.836	446.12
660.028	429.73
660.22	345.77
660.412	337.57
660.604	394.92
660.796	388.77
660.988	464.55
661.18	356.01
661.372	343.72
661.563	286.37
661.755	413.35
661.947	265.89
662.139	284.33
662.331	356.01
662.522	327.33
662.714	237.22
662.906	190.12
663.097	335.53
663.289	282.28
663.481	194.22
663.673	241.32
663.864	192.17
664.056	380.58
664.247	153.26
664.439	396.96
664.631	278.18
664.822	265.89
665.014	272.04
665.205	151.21
665.397	224.94
665.588	218.79
665.78	233.13
665.971	288.42
666.163	237.22
666.354	358.05
666.546	216.74
666.737	212.65
666.929	245.41
667.12	280.23
667.311	308.9
667.503	302.76
667.694	269.99
667.885	202.41
668.077	229.03
668.268	118.44
668.459	186.02
668.651	224.94
668.842	269.99
669.033	159.4
669.224	132.78
669.416	372.39
669.607	308.9
669.798	175.78
669.989	315.05
670.18	235.18
670.371	220.84
670.563	192.17
670.754	323.24
670.945	341.67
671.136	409.25
671.327	202.41
671.518	286.37
671.709	343.72
671.9	280.23
672.091	296.61
672.282	229.03
672.473	249.51
672.664	155.3
672.855	212.65
673.046	280.23
673.237	319.14
673.428	257.7
673.619	274.09
673.809	229.03
674	313
674.191	296.61
674.382	284.33
674.573	259.75
674.764	300.71
674.954	376.48
675.145	321.19
675.336	263.85
675.527	272.04
675.717	229.03
675.908	286.37
676.099	298.66
676.289	245.41
676.48	114.34
676.671	224.94
676.861	343.72
677.052	304.81
677.243	302.76
677.433	212.65
677.624	339.62
677.814	358.05
678.005	265.89
678.195	349.86
678.386	310.95
678.576	343.72
678.767	155.3
678.957	274.09
679.148	378.53
679.338	458.4
679.529	374.44
679.719	249.51
679.909	437.92
680.1	390.82
680.29	464.55
680.481	171.69
680.671	474.79
680.861	370.34
681.052	347.81
681.242	249.51
681.432	392.87
681.622	360.1
681.813	214.7
682.003	370.34
682.193	208.55
682.383	396.96
682.573	329.38
682.764	376.48
682.954	388.77
683.144	491.17
683.334	407.2
683.524	356.01
683.714	511.65
683.904	493.22
684.094	351.91
684.284	317.09
684.474	515.75
684.664	315.05
684.854	456.36
685.044	370.34
685.234	368.29
685.424	372.39
685.614	333.48
685.804	556.71
685.994	439.97
686.184	433.83
686.374	378.53
686.564	384.68
686.753	376.48
686.943	331.43
687.133	319.14
687.323	368.29
687.513	442.02
687.702	384.68
687.892	341.67
688.082	525.99
688.272	429.73
688.461	366.25
688.651	374.44
688.841	460.45
689.03	302.76
689.22	442.02
689.41	372.39
689.599	421.54
689.789	317.09
689.979	523.94
690.168	401.06
690.358	351.91
690.547	394.92
690.737	454.31
690.926	378.53
691.116	499.36
691.305	425.64
691.495	442.02
691.684	261.8
691.874	306.85
692.063	392.87
692.252	335.53
692.442	405.16
692.631	376.48
692.82	286.37
693.01	392.87
693.199	376.48
693.388	370.34
693.578	272.04
693.767	388.77
693.956	347.81
694.146	310.95
694.335	433.83
694.524	276.13
694.713	392.87
694.902	335.53
695.092	313
695.281	360.1
695.47	315.05
695.659	321.19
695.848	245.41
696.037	319.14
696.226	452.26
696.415	294.57
696.604	476.84
696.793	427.68
696.982	294.57
697.171	425.64
697.36	294.57
697.549	251.56
697.738	153.26
697.927	358.05
698.116	257.7
698.305	313
698.494	374.44
698.683	364.2
698.872	464.55
699.061	286.37
699.25	341.67
699.438	378.53
699.627	206.5
699.816	503.46
700.005	181.93
700.193	208.55
700.382	315.05
700.571	333.48
700.76	308.9
700.948	356.01
701.137	263.85
701.326	339.62
701.514	214.7
701.703	306.85
701.892	290.47
702.08	495.27
702.269	278.18
702.457	259.75
702.646	269.99
702.834	278.18
703.023	366.25
703.212	384.68
703.4	280.23
703.589	269.99
703.777	196.26
703.965	280.23
704.154	257.7
704.342	147.11
704.531	249.51
704.719	280.23
704.907	362.15
705.096	263.85
705.284	175.78
705.472	333.48
705.661	257.7
705.849	329.38
706.037	392.87
706.226	249.51
706.414	298.66
706.602	210.6
706.79	380.58
706.979	255.65
707.167	194.22
707.355	167.59
707.543	325.29
707.731	413.35
707.919	308.9
708.107	261.8
708.296	235.18
708.484	339.62
708.672	282.28
708.86	276.13
709.048	362.15
709.236	255.65
709.424	372.39
709.612	304.81
709.8	206.5
709.988	386.72
710.176	411.3
710.364	343.72
710.551	280.23
710.739	241.32
710.927	331.43
711.115	310.95
711.303	368.29
711.491	325.29
711.679	243.37
711.866	329.38
712.054	327.33
712.242	343.72
712.43	339.62
712.617	216.74
712.805	464.55
712.993	292.52
713.181	85.67
713.368	317.09
713.556	290.47
713.744	220.84
713.931	493.22
714.119	415.4
714.306	261.8
714.494	313
714.682	290.47
714.869	214.7
715.057	282.28
715.244	183.98
715.432	300.71
715.619	226.98
715.807	349.86
715.994	226.98
716.182	282.28
716.369	345.77
716.556	358.05
716.744	190.12
716.931	253.61
717.119	251.56
717.306	290.47
717.493	331.43
717.681	188.07
717.868	214.7
718.055	366.25
718.242	233.13
718.43	296.61
718.617	370.34
718.804	288.42
718.991	286.37
719.179	274.09
719.366	409.25
719.553	319.14
719.74	255.65
719.927	294.57
720.114	390.82
720.301	190.12
720.488	210.6
720.676	194.22
720.863	366.25
721.05	466.6
721.237	265.89
721.424	380.58
721.611	337.57
721.798	226.98
721.985	292.52
722.172	290.47
722.358	274.09
722.545	384.68
722.732	276.13
722.919	450.21
723.106	313
723.293	280.23
723.48	372.39
723.667	292.52
723.853	335.53
724.04	321.19
724.227	417.44
724.414	237.22
724.6	372.39
724.787	335.53
724.974	476.84
725.161	294.57
725.347	255.65
725.534	282.28
725.72	265.89
725.907	427.68
726.094	356.01
726.28	210.6
726.467	339.62
726.653	282.28
726.84	472.74
727.027	507.55
727.213	315.05
727.4	368.29
727.586	341.67
727.773	382.63
727.959	358.05
728.145	380.58
728.332	313
728.518	302.76
728.705	347.81
728.891	409.25
729.077	347.81
729.264	220.84
729.45	370.34
729.636	394.92
729.823	337.57
730.009	442.02
730.195	413.35
730.382	374.44
730.568	343.72
730.754	415.4
730.94	292.52
731.126	358.05
731.313	353.96
731.499	284.33
731.685	356.01
731.871	255.65
732.057	351.91
732.243	435.88
732.429	341.67
732.615	474.79
732.801	327.33
732.987	325.29
733.173	335.53
733.359	290.47
733.545	310.95
733.731	339.62
733.917	460.45
734.103	370.34
734.289	382.63
734.475	384.68
734.661	474.79
734.847	390.82
735.033	415.4
735.219	456.36
735.404	339.62
735.59	341.67
735.776	245.41
735.962	341.67
736.148	485.03
736.333	407.2
736.519	339.62
736.705	319.14
736.89	339.62
737.076	325.29
737.262	300.71
737.447	368.29
737.633	343.72
737.819	384.68
738.004	362.15
738.19	294.57
738.375	356.01
738.561	460.45
738.747	384.68
738.932	241.32
739.118	513.7
739.303	394.92
739.489	409.25
739.674	366.25
739.859	190.12
740.045	480.93
740.23	392.87
740.416	294.57
740.601	337.57
740.786	304.81
740.972	288.42
741.157	294.57
741.342	265.89
741.528	325.29
741.713	425.64
741.898	399.01
742.084	315.05
742.269	349.86
742.454	323.24
742.639	435.88
742.824	405.16
743.01	417.44
743.195	427.68
743.38	362.15
743.565	327.33
743.75	315.05
743.935	315.05
744.12	417.44
744.305	249.51
744.49	212.65
744.675	345.77
744.86	337.57
745.045	374.44
745.23	327.33
745.415	339.62
745.6	444.07
745.785	276.13
745.97	372.39
746.155	366.25
746.34	403.11
746.525	394.92
746.71	423.59
746.895	239.27
747.079	194.22
747.264	315.05
747.449	337.57
747.634	392.87
747.819	317.09
748.003	294.57
748.188	257.7
748.373	302.76
748.557	286.37
748.742	282.28
748.927	294.57
749.111	200.36
749.296	315.05
749.481	310.95
749.665	356.01
749.85	288.42
750.034	431.78
750.219	245.41
750.404	224.94
750.588	298.66
750.773	147.11
750.957	280.23
751.141	249.51
751.326	427.68
751.51	179.88
751.695	200.36
751.879	214.7
752.064	370.34
752.248	190.12
752.432	317.09
752.617	392.87
752.801	366.25
752.985	261.8
753.17	339.62
753.354	294.57
753.538	255.65
753.722	159.4
753.907	218.79
754.091	65.19
754.275	220.84
754.459	181.93
754.643	210.6
754.828	310.95
755.012	278.18
755.196	173.74
755.38	233.13
755.564	200.36
755.748	308.9
755.932	304.81
756.116	317.09
756.3	339.62
756.484	147.11
756.668	323.24
756.852	85.67
757.036	147.11
757.22	97.96
757.404	108.2
757.588	202.41
757.772	245.41
757.956	177.83
758.14	298.66
758.323	120.49
758.507	235.18
758.691	167.59
758.875	257.7
759.059	323.24
759.242	95.91
759.426	116.39
759.61	188.07
759.794	50.86
759.977	272.04
760.161	384.68
760.345	290.47
760.528	386.72
760.712	222.89
760.895	272.04
761.079	257.7
761.263	100.01
761.446	97.96
761.63	226.98
761.813	210.6
761.997	83.63
762.18	143.02
762.364	212.65
762.547	52.91
762.731	120.49
762.914	169.64
763.098	161.45
763.281	153.26
763.464	161.45
763.648	171.69
763.831	183.98
764.015	224.94
764.198	249.51
764.381	126.63
764.564	222.89
764.748	200.36
764.931	208.55
765.114	118.44
765.297	140.97
765.481	81.58
765.664	52.91
765.847	48.81
766.03	278.18
766.213	85.67
766.397	95.91
766.58	91.82
766.763	136.87
766.946	110.25
767.129	85.67
767.312	81.58
767.495	130.73
767.678	50.86
767.861	188.07
768.044	177.83
768.227	106.15
768.41	100.01
768.593	171.69
768.776	155.3
768.959	147.11
769.142	263.85
769.324	102.06
769.507	143.02
769.69	63.15
769.873	100.01
770.056	263.85
770.239	132.78
770.421	177.83
770.604	179.88
770.787	97.96
770.97	128.68
771.152	-6.49
771.335	161.45
771.518	97.96
771.7	186.02
771.883	263.85
772.066	44.71
772.248	190.12
772.431	282.28
772.613	163.5
772.796	134.82
772.978	149.16
773.161	239.27
773.343	71.34
773.526	151.21
773.708	34.47
773.891	44.71
774.073	5.8
774.256	108.2
774.438	253.61
774.621	34.47
774.803	157.35
774.985	134.82
775.168	136.87
775.35	91.82
775.532	134.82
775.715	89.77
775.897	85.67
776.079	120.49
776.261	132.78
776.444	100.01
776.626	38.57
776.808	112.3
776.99	77.48
777.173	91.82
777.355	89.77
777.537	97.96
777.719	147.11
777.901	32.43
778.083	67.24
778.265	38.57
778.447	143.02
778.629	75.43
778.811	116.39
778.993	132.78
779.175	143.02
779.357	110.25
779.539	75.43
779.721	48.81
779.903	104.11
780.085	97.96
780.267	161.45
780.449	46.76
780.631	128.68
780.812	241.32
780.994	89.77
781.176	93.87
781.358	38.57
781.54	91.82
781.721	153.26
781.903	171.69
782.085	9.9
782.267	177.83
782.448	16.04
782.63	63.15
782.812	122.54
782.993	77.48
783.175	130.73
783.357	73.39
783.538	110.25
783.72	18.09
783.901	52.91
784.083	85.67
784.264	110.25
784.446	40.62
784.627	91.82
784.809	79.53
784.99	67.24
785.172	44.71
785.353	11.95
785.535	95.91
785.716	7.85
785.897	-59.73
786.079	38.57
786.26	85.67
786.441	118.44
786.623	67.24
786.804	-8.53
786.985	57
787.167	93.87
787.348	11.95
787.529	85.67
787.71	171.69
787.891	3.75
788.073	85.67
788.254	-57.68
788.435	171.69
788.616	102.06
788.797	5.8
788.978	38.57
789.159	-12.63
789.34	67.24
789.522	-14.68
789.703	40.62
789.884	65.19
790.065	114.34
790.246	118.44
790.427	93.87
790.607	128.68
790.788	93.87
790.969	-37.2
791.15	52.91
791.331	38.57
791.512	57
791.693	13.99
791.874	-2.39
792.054	224.94
792.235	147.11
792.416	3.75
792.597	-26.96
792.778	102.06
792.958	122.54
793.139	61.1
793.32	61.1
793.5	-53.59
793.681	192.17
793.862	38.57
794.042	73.39
794.223	-26.96
794.404	20.14
794.584	-104.79
794.765	63.15
794.945	24.23
795.126	85.67
795.306	116.39
795.487	-2.39
795.667	-31.06
795.848	44.71
796.028	22.19
796.209	34.47
796.389	120.49
796.57	77.48
796.75	42.67
796.93	81.58
797.111	-57.68
797.291	7.85
797.471	87.72
797.652	-51.54
797.832	24.23
798.012	128.68
798.192	32.43
798.373	-6.49
798.553	-22.87
798.733	140.97
798.913	-51.54
799.093	-29.01
799.274	-47.44
799.454	26.28
799.634	75.43
799.814	153.26
799.994	77.48
800.174	130.73
800.354	13.99
800.534	-45.4
800.714	79.53
800.894	26.28
801.074	-10.58
801.254	-0.34
801.434	120.49
801.614	34.47
801.794	18.09
801.974	1855.12
802.154	20.14
802.334	149.16
802.514	-76.12
802.693	-55.64
802.873	-31.06
803.053	122.54
803.233	108.2
803.413	-24.92
803.592	-82.26
803.772	3.75
803.952	22.19
804.131	22.19
804.311	102.06
804.491	130.73
804.67	-18.77
804.85	-96.6
805.03	57
805.209	155.3
805.389	48.81
805.568	-4.44
805.748	16.04
805.928	36.52
806.107	130.73
806.287	132.78
806.466	52.91
806.646	-33.11
806.825	-24.92
807.004	28.33
807.184	81.58
807.363	65.19
807.543	91.82
807.722	-18.77
807.901	77.48
808.081	134.82
808.26	-117.08
808.439	57
808.619	-16.73
808.798	-43.35
808.977	46.76
809.156	104.11
809.336	79.53
809.515	63.15
809.694	-41.3
809.873	-6.49
810.052	59.05
810.231	87.72
810.411	30.38
810.59	110.25
810.769	-14.68
810.948	120.49
811.127	-37.2
811.306	24.23
811.485	22.19
811.664	143.02
811.843	-8.53
812.022	63.15
812.201	-29.01
812.38	22.19
812.559	38.57
812.737	77.48
812.916	-108.88
813.095	-31.06
813.274	67.24
813.453	-2.39
813.632	122.54
813.811	85.67
813.989	-65.88
814.168	79.53
814.347	1.71
814.526	3.75
814.704	130.73
814.883	46.76
815.062	9.9
815.24	7.85
815.419	-18.77
815.598	22.19
815.776	-84.31
815.955	46.76
816.133	-82.26
816.312	20.14
816.49	13.99
816.669	22.19
816.847	-51.54
817.026	7.85
817.204	7.85
817.383	9.9
817.561	-63.83
817.74	83.63
817.918	50.86
818.097	-6.49
818.275	20.14
818.453	52.91
818.632	69.29
818.81	-65.88
818.988	-10.58
819.167	-18.77
819.345	83.63
819.523	22.19
819.701	42.67
819.879	114.34
820.058	36.52
820.236	100.01
820.414	11.95
820.592	-24.92
820.77	-4.44
820.948	63.15
821.127	-16.73
821.305	44.71
821.483	40.62
821.661	67.24
821.839	59.05
822.017	-12.63
822.195	-37.2
822.373	151.21
822.551	16.04
822.729	126.63
822.907	-98.64
823.085	69.29
823.262	-8.53
823.44	-24.92
823.618	48.81
823.796	50.86
823.974	13.99
824.152	30.38
824.329	-51.54
824.507	7.85
824.685	44.71
824.863	-63.83
825.04	-2.39
825.218	81.58
825.396	-86.36
825.574	85.67
825.751	59.05
825.929	22.19
826.107	-135.51
826.284	-6.49
826.462	24.23
826.639	-2.39
826.817	3.75
826.994	34.47
827.172	13.99
827.349	183.98
827.527	32.43
827.704	1.71
827.882	87.72
828.059	22.19
828.237	-67.92
828.414	26.28
828.591	-88.4
828.769	9.9
828.946	-18.77
829.124	116.39
829.301	157.35
829.478	40.62
829.655	73.39
829.833	102.06
830.01	-102.74
830.187	116.39
830.364	-24.92
830.542	13.99
830.719	173.74
830.896	106.15
831.073	11.95
831.25	108.2
831.427	22.19
831.604	79.53
831.782	-94.55
831.959	116.39
832.136	-6.49
832.313	7.85
832.49	-0.34
832.667	26.28
832.844	-26.96
833.021	32.43
833.198	63.15
833.374	16.04
833.551	7.85
833.728	7.85
833.905	136.87
834.082	-45.4
834.259	61.1
834.436	108.2
834.612	-31.06
834.789	61.1
834.966	81.58
835.143	-4.44
835.319	-67.92
835.496	26.28
835.673	-10.58
835.85	104.11
836.026	9.9
836.203	67.24
836.38	-43.35
836.556	-26.96
836.733	-84.31
836.909	91.82
837.086	-31.06
837.262	-143.7
837.439	-41.3
837.616	-123.22
837.792	71.34
837.968	7.85
838.145	-22.87
838.321	-4.44
838.498	73.39
838.674	44.71
838.851	128.68
839.027	-24.92
839.203	-35.16
839.38	52.91
839.556	48.81
839.732	63.15
839.909	-39.25
840.085	13.99
840.261	-18.77
840.437	36.52
840.614	-10.58
840.79	46.76
840.966	40.62
841.142	130.73
841.318	3.75
841.494	-8.53
841.671	110.25
841.847	3.75
842.023	-69.97
842.199	63.15
842.375	155.3
842.551	-6.49
842.727	1.71
842.903	128.68
843.079	-92.5
843.255	106.15
843.431	20.14
843.607	120.49
843.783	-94.55
843.959	28.33
844.134	-49.49
844.31	112.3
844.486	-55.64
844.662	-53.59
844.838	-24.92
845.013	24.23
845.189	75.43
845.365	61.1
845.541	7.85
845.716	89.77
845.892	48.81
846.068	28.33
846.244	44.71
846.419	-45.4
846.595	-78.16
846.77	-47.44
846.946	77.48
847.122	-127.32
847.297	38.57
847.473	136.87
847.648	-63.83
847.824	20.14
847.999	-110.93
848.175	-53.59
848.35	50.86
848.526	59.05
848.701	11.95
848.876	42.67
849.052	77.48
849.227	61.1
849.403	28.33
849.578	-24.92
849.753	20.14
849.929	20.14
850.104	-10.58
850.279	57
850.454	-12.63
850.63	-0.34
850.805	-22.87
850.98	-41.3
851.155	-55.64
851.33	-0.34
851.505	-51.54
851.681	97.96
851.856	18.09
852.031	81.58
852.206	73.39
852.381	-33.11
852.556	-4.44
852.731	-51.54
852.906	20.14
853.081	30.38
853.256	87.72
853.431	18.09
853.606	1.71
853.781	-49.49
853.956	-8.53
854.131	3.75
854.305	-10.58
854.48	-4.44
854.655	-43.35
854.83	-49.49
855.005	9.9
855.18	26.28
855.354	-16.73
855.529	20.14
855.704	-22.87
855.879	91.82
856.053	-106.84
856.228	20.14
856.403	-67.92
856.577	42.67
856.752	-80.21
856.926	44.71
857.101	-22.87
857.276	-115.03
857.45	26.28
857.625	11.95
857.799	18.09
857.974	108.2
858.148	-67.92
858.323	91.82
858.497	-51.54
858.672	-22.87
858.846	-43.35
859.02	30.38
859.195	-43.35
859.369	-35.16
859.543	-29.01
859.718	40.62
859.892	5.8
860.066	59.05
860.241	-31.06
860.415	-4.44
860.589	-82.26
860.763	18.09
860.938	-96.6
861.112	120.49
861.286	24.23
861.46	59.05
861.634	44.71
861.808	136.87
861.982	-90.45
862.157	-41.3
862.331	-6.49
862.505	-41.3
862.679	-47.44
862.853	-53.59
863.027	-74.07
863.201	183.98
863.375	-0.34
863.549	42.67
863.722	95.91
863.896	38.57
864.07	38.57
864.244	65.19
864.418	52.91
864.592	-8.53
864.766	71.34
864.939	24.23
865.113	-45.4
865.287	171.69
865.461	-57.68
865.634	95.91
865.808	-43.35
865.982	20.14
866.156	-69.97
866.329	-57.68
866.503	52.91
866.676	65.19
866.85	36.52
867.024	-16.73
867.197	42.67
867.371	81.58
867.544	13.99
867.718	-57.68
867.891	50.86
868.065	-59.73
868.238	-18.77
868.412	50.86
868.585	-0.34
868.759	-110.93
868.932	42.67
869.105	-0.34
869.279	5.8
869.452	1.71
869.625	40.62
869.799	61.1
869.972	-82.26
870.145	-12.63
870.319	57
870.492	-84.31
870.665	18.09
870.838	-12.63
871.011	-117.08
871.185	28.33
871.358	-12.63
871.531	-14.68
871.704	-8.53
871.877	5.8
872.05	-65.88
872.223	26.28
872.396	155.3
872.569	71.34
872.742	-67.92
872.915	79.53
873.088	-12.63
873.261	-14.68
873.434	-6.49
873.607	85.67
873.78	63.15
873.953	-14.68
874.126	20.14
874.299	118.44
874.471	22.19
874.644	-16.73
874.817	67.24
874.99	118.44
875.163	-24.92
875.335	11.95
875.508	-61.78
875.681	134.82
875.853	-41.3
876.026	20.14
876.199	97.96
876.371	11.95
876.544	-2.39
876.717	34.47
876.889	-59.73
877.062	93.87
877.234	1.71
877.407	52.91
877.579	71.34
877.752	50.86
877.924	89.77
878.097	108.2
878.269	-0.34
878.442	-16.73
878.614	42.67
878.786	-2.39
878.959	7.85
879.131	20.14
879.303	-100.69
879.476	-29.01
879.648	48.81
879.82	-82.26
879.993	-26.96
880.165	-35.16
880.337	-51.54
880.509	40.62
880.681	-115.03
880.854	-92.5
881.026	71.34
881.198	114.34
881.37	-0.34
881.542	-18.77
881.714	-20.82
881.886	-12.63
882.058	30.38
882.23	44.71
882.402	-39.25
882.574	-20.82
882.746	77.48
882.918	75.43
883.09	32.43
883.262	83.63
883.434	-0.34
883.606	3.75
883.778	-10.58
883.95	233.13
884.122	-12.63
884.293	54.95
884.465	-6.49
884.637	81.58
884.809	-16.73
884.98	73.39
885.152	26.28
885.324	73.39
885.496	-47.44
885.667	-45.4
885.839	-53.59
886.011	106.15
886.182	87.72
886.354	85.67
886.525	-20.82
886.697	-12.63
886.869	-47.44
887.04	-20.82
887.212	65.19
887.383	183.98
887.555	-20.82
887.726	36.52
887.897	3.75
888.069	44.71
888.24	81.58
888.412	40.62
888.583	-26.96
888.754	-2.39
888.926	-29.01
889.097	-29.01
889.268	-18.77
889.44	-33.11
889.611	-174.42
889.782	-61.78
889.953	-100.69
890.125	110.25
890.296	-41.3
890.467	-35.16
890.638	-24.92
890.809	-0.34
890.98	-55.64
891.151	-6.49
891.323	79.53
891.494	-18.77
891.665	-16.73
891.836	-53.59
892.007	-33.11
892.178	11.95
892.349	42.67
892.52	-61.78
892.691	40.62
892.862	9.9
893.032	-22.87
893.203	1.71
893.374	34.47
893.545	52.91
893.716	-12.63
893.887	57
894.057	-0.34
894.228	20.14
894.399	38.57
894.57	118.44
894.74	28.33
894.911	106.15
895.082	-72.02
895.253	-43.35
895.423	28.33
895.594	159.4
895.764	13.99
895.935	-90.45
896.106	87.72
896.276	9.9
896.447	26.28
896.617	-90.45
896.788	-117.08
896.958	-29.01
897.129	59.05
897.299	-18.77
897.47	106.15
897.64	83.63
897.81	-26.96
897.981	50.86
898.151	-147.8
898.322	26.28
898.492	93.87
898.662	-45.4
898.832	-10.58
899.003	-59.73
899.173	44.71
899.343	40.62
899.513	-80.21
