Data from USB4F104151__210__11-05-45-329.txt Node

Date: Wed Feb 26 11:05:45 EST 2025
User: louis
Spectrometer: USB4F10415
Trigger mode: 4
Integration Time (sec): 1.000000E-1
Scans to average: 1
Electric dark correction enabled: true
Nonlinearity correction enabled: false
Boxcar width: 0
XAxis mode: Wavelengths
Number of Pixels in Spectrum: 3648
>>>>>Begin Spectral Data<<<<<
178.204	-443.56
178.424	-443.56
178.644	-443.56
178.864	-416.93
179.084	-371.88
179.304	0.85
179.524	-29.87
179.744	66.39
179.964	47.96
180.184	58.2
180.404	2.9
180.624	17.24
180.844	-13.48
181.064	-115.88
181.283	37.72
181.503	-83.11
181.723	11.09
181.943	-44.2
182.163	136.02
182.383	-13.48
182.602	123.73
182.822	72.53
183.042	90.96
183.262	-48.3
183.482	-19.63
183.701	56.15
183.921	76.63
184.141	-1.19
184.361	60.24
184.58	4.95
184.8	82.77
185.02	31.57
185.239	82.77
185.459	72.53
185.679	168.79
185.898	-33.96
186.118	52.05
186.338	-27.82
186.557	136.02
186.777	-119.98
186.997	-36.01
187.216	19.29
187.436	142.16
187.655	95.06
187.875	117.59
188.095	43.86
188.314	199.51
188.534	152.4
188.753	29.52
188.973	125.78
189.192	150.36
189.412	13.14
189.631	86.87
189.851	60.24
190.07	95.06
190.29	-9.39
190.509	9.05
190.729	50
190.948	142.16
191.168	232.27
191.387	86.87
191.607	90.96
191.826	144.21
192.045	107.35
192.265	13.14
192.484	52.05
192.704	27.48
192.923	-33.96
193.142	232.27
193.362	129.88
193.581	185.17
193.8	39.76
194.02	129.88
194.239	2.9
194.458	13.14
194.678	56.15
194.897	66.39
195.116	54.1
195.335	131.92
195.555	64.34
195.774	70.48
195.993	64.34
196.212	76.63
196.432	-1.19
196.651	19.29
196.87	21.33
197.089	277.33
197.308	21.33
197.528	119.64
197.747	17.24
197.966	90.96
198.185	185.17
198.404	-29.87
198.623	111.44
198.842	158.55
199.062	133.97
199.281	133.97
199.5	95.06
199.719	152.4
199.938	90.96
200.157	107.35
200.376	50
200.595	117.59
200.814	35.67
201.033	13.14
201.252	181.07
201.471	41.81
201.69	82.77
201.909	11.09
202.128	86.87
202.347	88.92
202.566	68.44
202.785	-64.68
203.004	23.38
203.223	310.1
203.442	56.15
203.661	-36.01
203.879	93.01
204.098	123.73
204.317	-48.3
204.536	117.59
204.755	105.3
204.974	43.86
205.193	19.29
205.411	168.79
205.63	105.3
205.849	93.01
206.068	45.91
206.287	41.81
206.505	181.07
206.724	52.05
206.943	-29.87
207.162	-13.48
207.381	-7.34
207.599	80.72
207.818	58.2
208.037	-19.63
208.255	88.92
208.474	68.44
208.693	72.53
208.911	-5.29
209.13	50
209.349	31.57
209.567	193.36
209.786	201.55
210.005	121.68
210.223	45.91
210.442	-97.45
210.661	0.85
210.879	66.39
211.098	93.01
211.316	80.72
211.535	82.77
211.753	54.1
211.972	43.86
212.191	-7.34
212.409	-25.77
212.628	140.12
212.846	41.81
213.065	93.01
213.283	84.82
213.502	29.52
213.72	166.74
213.938	23.38
214.157	-36.01
214.375	144.21
214.594	-13.48
214.812	95.06
215.031	84.82
215.249	9.05
215.467	29.52
215.686	78.68
215.904	76.63
216.122	31.57
216.341	148.31
216.559	56.15
216.778	201.55
216.996	133.97
217.214	35.67
217.432	-15.53
217.651	-52.39
217.869	101.2
218.087	25.43
218.306	2.9
218.524	33.62
218.742	41.81
218.96	70.48
219.179	-23.72
219.397	105.3
219.615	285.52
219.833	95.06
220.051	-40.11
220.27	101.2
220.488	121.68
220.706	105.3
220.924	2.9
221.142	76.63
221.36	144.21
221.578	99.16
221.796	43.86
222.015	121.68
222.233	138.07
222.451	160.59
222.669	0.85
222.887	105.3
223.105	-62.63
223.323	9.05
223.541	39.76
223.759	136.02
223.977	9.05
224.195	129.88
224.413	142.16
224.631	125.78
224.849	29.52
225.067	236.37
225.285	-25.77
225.503	154.45
225.721	-91.31
225.939	62.29
226.157	47.96
226.375	195.41
226.592	-56.49
226.81	41.81
227.028	121.68
227.246	168.79
227.464	138.07
227.682	90.96
227.9	84.82
228.117	70.48
228.335	133.97
228.553	82.77
228.771	-33.96
228.989	39.76
229.206	117.59
229.424	54.1
229.642	2.9
229.86	-36.01
230.077	144.21
230.295	17.24
230.513	95.06
230.731	72.53
230.948	258.9
231.166	113.49
231.384	2.9
231.601	41.81
231.819	148.31
232.037	25.43
232.254	-13.48
232.472	25.43
232.689	13.14
232.907	117.59
233.125	13.14
233.342	-111.78
233.56	33.62
233.777	-38.06
233.995	111.44
234.213	117.59
234.43	82.77
234.648	35.67
234.865	-5.29
235.083	31.57
235.3	58.2
235.518	7
235.735	111.44
235.953	158.55
236.17	25.43
236.388	-40.11
236.605	76.63
236.822	93.01
237.04	29.52
237.257	80.72
237.475	-3.24
237.692	-9.39
237.909	142.16
238.127	33.62
238.344	93.01
238.562	103.25
238.779	7
238.996	29.52
239.214	41.81
239.431	33.62
239.648	-62.63
239.865	90.96
240.083	45.91
240.3	-3.24
240.517	-23.72
240.735	17.24
240.952	142.16
241.169	80.72
241.386	95.06
241.603	52.05
241.821	-48.3
242.038	-15.53
242.255	125.78
242.472	-68.78
242.689	97.11
242.907	150.36
243.124	78.68
243.341	-13.48
243.558	4.95
243.775	-48.3
243.992	-66.73
244.209	88.92
244.426	205.65
244.643	21.33
244.86	17.24
245.078	172.88
245.295	54.1
245.512	-40.11
245.729	43.86
245.946	136.02
246.163	2.9
246.38	19.29
246.597	41.81
246.814	27.48
247.031	-27.82
247.248	-29.87
247.464	35.67
247.681	119.64
247.898	41.81
248.115	54.1
248.332	-7.34
248.549	117.59
248.766	119.64
248.983	113.49
249.2	37.72
249.417	78.68
249.633	35.67
249.85	74.58
250.067	70.48
250.284	7
250.501	15.19
250.717	68.44
250.934	15.19
251.151	21.33
251.368	123.73
251.585	45.91
251.801	64.34
252.018	13.14
252.235	117.59
252.451	29.52
252.668	-7.34
252.885	95.06
253.102	-23.72
253.318	-17.58
253.535	0.85
253.752	68.44
253.968	2.9
254.185	-48.3
254.401	97.11
254.618	64.34
254.835	-5.29
255.051	58.2
255.268	90.96
255.484	105.3
255.701	25.43
255.917	84.82
256.134	23.38
256.351	66.39
256.567	-42.15
256.784	99.16
257	4.95
257.217	125.78
257.433	86.87
257.65	25.43
257.866	101.2
258.082	-23.72
258.299	58.2
258.515	58.2
258.732	-15.53
258.948	41.81
259.165	45.91
259.381	27.48
259.597	23.38
259.814	64.34
260.03	21.33
260.246	15.19
260.463	127.83
260.679	86.87
260.895	41.81
261.112	41.81
261.328	54.1
261.544	-23.72
261.761	170.83
261.977	47.96
262.193	37.72
262.409	74.58
262.626	66.39
262.842	82.77
263.058	60.24
263.274	99.16
263.49	80.72
263.707	109.4
263.923	72.53
264.139	-122.02
264.355	58.2
264.571	170.83
264.787	99.16
265.004	150.36
265.22	-21.67
265.436	113.49
265.652	21.33
265.868	66.39
266.084	-17.58
266.3	52.05
266.516	-19.63
266.732	29.52
266.948	35.67
267.164	78.68
267.38	-1.19
267.596	11.09
267.812	97.11
268.028	66.39
268.244	13.14
268.46	47.96
268.676	33.62
268.892	27.48
269.108	21.33
269.324	-13.48
269.54	-140.46
269.756	127.83
269.972	-3.24
270.188	9.05
270.403	-76.97
270.619	76.63
270.835	129.88
271.051	66.39
271.267	-5.29
271.483	13.14
271.698	111.44
271.914	52.05
272.13	113.49
272.346	62.29
272.562	31.57
272.777	144.21
272.993	-23.72
273.209	37.72
273.425	103.25
273.64	37.72
273.856	181.07
274.072	-66.73
274.287	13.14
274.503	45.91
274.719	119.64
274.934	15.19
275.15	-134.31
275.366	45.91
275.581	-13.48
275.797	31.57
276.012	35.67
276.228	-15.53
276.444	56.15
276.659	133.97
276.875	4.95
277.09	66.39
277.306	2.9
277.521	29.52
277.737	-79.02
277.952	62.29
278.168	47.96
278.383	86.87
278.599	50
278.814	70.48
279.03	25.43
279.245	80.72
279.461	-5.29
279.676	86.87
279.892	-21.67
280.107	-56.49
280.322	-60.59
280.538	80.72
280.753	27.48
280.969	105.3
281.184	86.87
281.399	176.98
281.615	105.3
281.83	60.24
282.045	64.34
282.26	66.39
282.476	-44.2
282.691	146.26
282.906	35.67
283.122	86.87
283.337	7
283.552	95.06
283.767	-38.06
283.983	119.64
284.198	33.62
284.413	54.1
284.628	37.72
284.843	47.96
285.058	154.45
285.274	19.29
285.489	-70.83
285.704	93.01
285.919	133.97
286.134	7
286.349	11.09
286.564	47.96
286.779	119.64
286.995	21.33
287.21	-107.69
287.425	187.22
287.64	-36.01
287.855	76.63
288.07	-74.92
288.285	113.49
288.5	127.83
288.715	176.98
288.93	0.85
289.145	58.2
289.36	119.64
289.575	-9.39
289.79	144.21
290.004	15.19
290.219	136.02
290.434	-72.87
290.649	4.95
290.864	-9.39
291.079	15.19
291.294	78.68
291.509	72.53
291.724	0.85
291.938	58.2
292.153	101.2
292.368	-1.19
292.583	133.97
292.798	88.92
293.012	86.87
293.227	127.83
293.442	-31.91
293.657	101.2
293.871	133.97
294.086	111.44
294.301	271.19
294.516	146.26
294.73	80.72
294.945	2.9
295.16	66.39
295.374	150.36
295.589	84.82
295.804	-5.29
296.018	78.68
296.233	105.3
296.447	56.15
296.662	-3.24
296.877	70.48
297.091	39.76
297.306	52.05
297.52	-31.91
297.735	80.72
297.949	105.3
298.164	25.43
298.378	33.62
298.593	-25.77
298.807	-25.77
299.022	-7.34
299.236	152.4
299.451	13.14
299.665	62.29
299.88	41.81
300.094	-17.58
300.309	15.19
300.523	43.86
300.737	-25.77
300.952	66.39
301.166	142.16
301.381	13.14
301.595	-27.82
301.809	17.24
302.024	58.2
302.238	62.29
302.452	138.07
302.667	56.15
302.881	129.88
303.095	54.1
303.309	99.16
303.524	41.81
303.738	68.44
303.952	80.72
304.166	58.2
304.381	-56.49
304.595	129.88
304.809	-1.19
305.023	109.4
305.237	45.91
305.452	101.2
305.666	60.24
305.88	127.83
306.094	113.49
306.308	148.31
306.522	156.5
306.736	41.81
306.95	19.29
307.164	41.81
307.379	78.68
307.593	148.31
307.807	78.68
308.021	103.25
308.235	129.88
308.449	-56.49
308.663	84.82
308.877	242.51
309.091	105.3
309.305	88.92
309.519	-40.11
309.733	129.88
309.947	13.14
310.161	64.34
310.374	105.3
310.588	172.88
310.802	33.62
311.016	-9.39
311.23	-3.24
311.444	17.24
311.658	74.58
311.872	170.83
312.085	76.63
312.299	179.03
312.513	93.01
312.727	82.77
312.941	-1.19
313.154	13.14
313.368	90.96
313.582	121.68
313.796	99.16
314.009	-25.77
314.223	107.35
314.437	66.39
314.651	117.59
314.864	99.16
315.078	0.85
315.292	-27.82
315.505	56.15
315.719	156.5
315.933	168.79
316.146	72.53
316.36	-23.72
316.573	234.32
316.787	142.16
317.001	78.68
317.214	58.2
317.428	101.2
317.641	21.33
317.855	-31.91
318.068	187.22
318.282	76.63
318.495	224.08
318.709	64.34
318.922	21.33
319.136	156.5
319.349	142.16
319.563	-11.43
319.776	-15.53
319.99	9.05
320.203	72.53
320.417	105.3
320.63	109.4
320.843	162.64
321.057	39.76
321.27	-21.67
321.483	140.12
321.697	117.59
321.91	66.39
322.124	43.86
322.337	66.39
322.55	-56.49
322.763	33.62
322.977	4.95
323.19	41.81
323.403	50
323.617	31.57
323.83	183.12
324.043	-44.2
324.256	13.14
324.469	-7.34
324.683	144.21
324.896	43.86
325.109	4.95
325.322	17.24
325.535	144.21
325.748	103.25
325.962	-5.29
326.175	41.81
326.388	101.2
326.601	72.53
326.814	15.19
327.027	47.96
327.24	125.78
327.453	-46.25
327.666	31.57
327.879	152.4
328.092	203.6
328.305	58.2
328.518	60.24
328.731	2.9
328.944	76.63
329.157	140.12
329.37	45.91
329.583	172.88
329.796	166.74
330.009	-44.2
330.222	74.58
330.435	129.88
330.648	101.2
330.861	21.33
331.073	66.39
331.286	142.16
331.499	78.68
331.712	-13.48
331.925	29.52
332.138	113.49
332.35	191.31
332.563	-48.3
332.776	199.51
332.989	-15.53
333.202	78.68
333.414	27.48
333.627	23.38
333.84	64.34
334.053	103.25
334.265	-17.58
334.478	-36.01
334.691	43.86
334.903	-42.15
335.116	39.76
335.329	0.85
335.541	74.58
335.754	185.17
335.966	-13.48
336.179	-1.19
336.392	-27.82
336.604	33.62
336.817	119.64
337.029	119.64
337.242	29.52
337.454	7
337.667	41.81
337.88	133.97
338.092	54.1
338.305	76.63
338.517	0.85
338.729	138.07
338.942	119.64
339.154	-46.25
339.367	-1.19
339.579	19.29
339.792	31.57
340.004	13.14
340.217	95.06
340.429	43.86
340.641	-46.25
340.854	-40.11
341.066	39.76
341.278	111.44
341.491	148.31
341.703	127.83
341.915	-21.67
342.128	103.25
342.34	76.63
342.552	-29.87
342.764	17.24
342.977	-9.39
343.189	90.96
343.401	-21.67
343.613	-27.82
343.826	54.1
344.038	21.33
344.25	144.21
344.462	23.38
344.674	113.49
344.886	-40.11
345.099	99.16
345.311	86.87
345.523	31.57
345.735	-138.41
345.947	64.34
346.159	43.86
346.371	-13.48
346.583	31.57
346.795	205.65
347.007	17.24
347.219	50
347.431	37.72
347.643	148.31
347.855	-11.43
348.067	152.4
348.279	13.14
348.491	66.39
348.703	70.48
348.915	-25.77
349.127	-66.73
349.339	66.39
349.551	60.24
349.763	27.48
349.975	-7.34
350.187	148.31
350.399	123.73
350.61	78.68
350.822	0.85
351.034	93.01
351.246	41.81
351.458	21.33
351.669	39.76
351.881	109.4
352.093	150.36
352.305	172.88
352.517	4.95
352.728	78.68
352.94	19.29
353.152	103.25
353.363	39.76
353.575	72.53
353.787	248.66
353.999	39.76
354.21	306
354.422	-11.43
354.633	11.09
354.845	17.24
355.057	99.16
355.268	62.29
355.48	107.35
355.692	-40.11
355.903	109.4
356.115	-40.11
356.326	-72.87
356.538	168.79
356.749	11.09
356.961	189.27
357.172	90.96
357.384	-5.29
357.595	154.45
357.807	-48.3
358.018	17.24
358.23	27.48
358.441	80.72
358.653	125.78
358.864	95.06
359.075	2.9
359.287	90.96
359.498	111.44
359.709	84.82
359.921	7
360.132	9.05
360.344	82.77
360.555	-31.91
360.766	97.11
360.977	105.3
361.189	72.53
361.4	-23.72
361.611	64.34
361.823	54.1
362.034	23.38
362.245	21.33
362.456	86.87
362.667	111.44
362.879	-38.06
363.09	95.06
363.301	64.34
363.512	136.02
363.723	54.1
363.935	52.05
364.146	27.48
364.357	-13.48
364.568	52.05
364.779	-5.29
364.99	172.88
365.201	60.24
365.412	109.4
365.623	-72.87
365.834	164.69
366.045	84.82
366.256	82.77
366.467	37.72
366.678	-17.58
366.889	54.1
367.1	39.76
367.311	72.53
367.522	-3.24
367.733	111.44
367.944	23.38
368.155	127.83
368.366	129.88
368.577	117.59
368.788	133.97
368.999	2.9
369.209	-19.63
369.42	191.31
369.631	217.94
369.842	142.16
370.053	-3.24
370.264	115.54
370.474	-33.96
370.685	54.1
370.896	74.58
371.107	131.92
371.317	82.77
371.528	74.58
371.739	152.4
371.95	154.45
372.16	-31.91
372.371	-1.19
372.582	0.85
372.792	82.77
373.003	131.92
373.214	31.57
373.424	72.53
373.635	-105.64
373.846	101.2
374.056	15.19
374.267	23.38
374.477	74.58
374.688	-42.15
374.898	99.16
375.109	29.52
375.319	74.58
375.53	105.3
375.74	219.99
375.951	-36.01
376.161	2.9
376.372	162.64
376.582	-42.15
376.793	82.77
377.003	-27.82
377.214	37.72
377.424	-5.29
377.635	43.86
377.845	39.76
378.055	41.81
378.266	21.33
378.476	95.06
378.686	76.63
378.897	29.52
379.107	93.01
379.317	35.67
379.528	-44.2
379.738	70.48
379.948	47.96
380.158	127.83
380.369	-5.29
380.579	88.92
380.789	31.57
380.999	76.63
381.21	125.78
381.42	131.92
381.63	58.2
381.84	150.36
382.05	76.63
382.261	162.64
382.471	164.69
382.681	0.85
382.891	162.64
383.101	148.31
383.311	50
383.521	25.43
383.731	56.15
383.941	129.88
384.151	-17.58
384.361	58.2
384.571	-36.01
384.781	-9.39
384.991	144.21
385.201	174.93
385.411	70.48
385.621	95.06
385.831	113.49
386.041	64.34
386.251	129.88
386.461	148.31
386.671	60.24
386.881	127.83
387.091	0.85
387.301	187.22
387.511	56.15
387.72	90.96
387.93	50
388.14	-19.63
388.35	105.3
388.56	111.44
388.769	148.31
388.979	99.16
389.189	50
389.399	90.96
389.609	107.35
389.818	70.48
390.028	78.68
390.238	103.25
390.447	-126.12
390.657	82.77
390.867	64.34
391.076	-33.96
391.286	66.39
391.496	43.86
391.705	-1.19
391.915	113.49
392.125	72.53
392.334	-17.58
392.544	60.24
392.753	52.05
392.963	35.67
393.172	107.35
393.382	-5.29
393.591	148.31
393.801	25.43
394.01	183.12
394.22	109.4
394.429	47.96
394.639	0.85
394.848	127.83
395.058	133.97
395.267	-27.82
395.477	52.05
395.686	90.96
395.895	160.59
396.105	256.85
396.314	97.11
396.524	72.53
396.733	31.57
396.942	109.4
397.152	107.35
397.361	70.48
397.57	41.81
397.78	60.24
397.989	123.73
398.198	193.36
398.407	-15.53
398.617	35.67
398.826	39.76
399.035	-11.43
399.244	222.03
399.453	82.77
399.663	21.33
399.872	70.48
400.081	-17.58
400.29	158.55
400.499	86.87
400.708	99.16
400.917	45.91
401.127	74.58
401.336	68.44
401.545	234.32
401.754	138.07
401.963	158.55
402.172	72.53
402.381	-15.53
402.59	41.81
402.799	68.44
403.008	58.2
403.217	129.88
403.426	76.63
403.635	-9.39
403.844	82.77
404.053	27.48
404.262	-29.87
404.471	183.12
404.68	90.96
404.888	29.52
405.097	2.9
405.306	47.96
405.515	150.36
405.724	23.38
405.933	115.54
406.142	113.49
406.35	76.63
406.559	11.09
406.768	58.2
406.977	142.16
407.185	107.35
407.394	70.48
407.603	13.14
407.812	60.24
408.02	158.55
408.229	115.54
408.438	35.67
408.646	-9.39
408.855	2.9
409.064	193.36
409.272	-27.82
409.481	107.35
409.69	41.81
409.898	-74.92
410.107	88.92
410.315	72.53
410.524	-13.48
410.733	45.91
410.941	21.33
411.15	117.59
411.358	133.97
411.567	113.49
411.775	82.77
411.984	109.4
412.192	148.31
412.401	19.29
412.609	193.36
412.818	168.79
413.026	60.24
413.234	68.44
413.443	60.24
413.651	15.19
413.86	25.43
414.068	125.78
414.276	185.17
414.485	123.73
414.693	232.27
414.901	140.12
415.11	-27.82
415.318	21.33
415.526	78.68
415.734	66.39
415.943	97.11
416.151	129.88
416.359	-44.2
416.567	47.96
416.776	62.29
416.984	97.11
417.192	203.6
417.4	74.58
417.608	-23.72
417.817	27.48
418.025	66.39
418.233	213.84
418.441	-46.25
418.649	-3.24
418.857	97.11
419.065	164.69
419.273	64.34
419.481	117.59
419.689	31.57
419.897	37.72
420.105	-3.24
420.313	144.21
420.521	160.59
420.729	144.21
420.937	21.33
421.145	-3.24
421.353	86.87
421.561	164.69
421.769	113.49
421.977	11.09
422.185	117.59
422.393	39.76
422.601	150.36
422.809	56.15
423.017	113.49
423.224	97.11
423.432	80.72
423.64	133.97
423.848	181.07
424.056	31.57
424.263	117.59
424.471	29.52
424.679	230.23
424.887	70.48
425.094	150.36
425.302	142.16
425.51	45.91
425.718	133.97
425.925	31.57
426.133	74.58
426.341	187.22
426.548	21.33
426.756	54.1
426.964	183.12
427.171	64.34
427.379	86.87
427.586	86.87
427.794	62.29
428.001	166.74
428.209	95.06
428.417	187.22
428.624	179.03
428.832	99.16
429.039	103.25
429.247	27.48
429.454	123.73
429.662	187.22
429.869	105.3
430.076	136.02
430.284	205.65
430.491	230.23
430.699	244.56
430.906	226.13
431.114	156.5
431.321	187.22
431.528	47.96
431.736	195.41
431.943	199.51
432.15	203.6
432.358	201.55
432.565	295.76
432.772	60.24
432.979	289.62
433.187	45.91
433.394	246.61
433.601	99.16
433.808	248.66
434.016	236.37
434.223	185.17
434.43	205.65
434.637	269.14
434.844	379.73
435.052	246.61
435.259	295.76
435.466	262.99
435.673	213.84
435.88	277.33
436.087	346.96
436.294	310.1
436.501	322.38
436.708	277.33
436.915	283.47
437.122	439.12
437.329	240.47
437.537	336.72
437.743	371.54
437.95	514.89
438.157	432.97
438.364	441.17
438.571	410.45
438.778	418.64
438.985	418.64
439.192	475.98
439.399	422.73
439.606	529.23
439.813	576.33
440.02	695.11
440.227	617.29
440.433	611.15
440.64	488.27
440.847	492.37
441.054	652.11
441.261	770.89
441.467	664.4
441.674	658.25
441.881	715.59
442.088	664.4
442.294	785.23
442.501	848.71
442.708	846.66
442.914	883.53
443.121	895.82
443.328	869.19
443.534	942.92
443.741	934.73
443.948	879.43
444.154	1168.2
444.361	1168.2
444.568	1133.38
444.774	1114.95
444.981	1114.95
445.187	1338.18
445.394	1309.51
445.6	1233.73
445.807	1397.57
446.013	1350.46
446.22	1229.63
446.426	1555.26
446.633	1577.79
446.839	1704.76
447.046	1336.13
447.252	1823.55
447.459	1786.68
447.665	1776.44
447.871	1923.9
448.078	2024.25
448.284	2026.29
448.491	2198.32
448.697	2059.06
448.903	2294.58
449.11	2409.26
449.316	2251.57
449.522	2485.04
449.728	2677.55
449.935	2702.12
450.141	2618.16
450.347	2876.2
450.553	2870.06
450.76	3023.66
450.966	3093.29
451.172	3293.99
451.378	3296.04
451.584	3449.63
451.791	3646.24
451.997	3580.7
452.203	3732.25
452.409	4070.17
452.615	4250.39
452.821	3990.3
453.027	4045.59
453.233	4668.17
453.44	4475.67
453.646	4750.09
453.852	4856.59
454.058	5032.71
454.264	5331.72
454.47	5614.34
454.676	5563.14
454.882	6214.39
455.088	5749.5
455.294	6200.05
455.5	6484.72
455.705	6994.67
455.911	6857.45
456.117	7140.07
456.323	7582.43
456.529	7400.16
456.735	8129.24
456.941	8264.41
457.147	8630.99
457.352	8860.37
457.558	9198.28
457.764	9499.33
457.97	9765.57
458.176	10164.92
458.381	10672.82
458.587	10922.67
458.793	11485.86
458.999	11438.76
459.204	12923.54
459.41	13408.9
459.616	13013.65
459.821	13679.24
460.027	14453.37
460.233	15084.14
460.438	15209.07
460.644	16192.09
460.85	16382.56
461.055	17162.83
461.261	17605.19
461.466	17101.39
461.672	17504.84
461.878	19843.62
462.083	19526.19
462.289	20011.56
462.494	20668.95
462.7	20652.57
462.905	21318.16
463.111	22956.54
463.316	23998.95
463.522	24496.61
463.727	25172.44
463.932	26292.68
464.138	27179.45
464.343	28117.42
464.549	28549.54
464.754	30501.25
464.959	31185.27
465.165	31908.21
465.37	31492.47
465.575	31338.87
465.781	33556.82
465.986	34894.14
466.191	34081.1
466.397	34523.46
466.602	33143.13
466.807	35232.06
467.012	35807.54
467.218	36512.04
467.423	36383.02
467.628	37421.34
467.833	39700.73
468.038	38666.5
468.244	38359.31
468.449	40007.92
468.654	39276.8
468.859	38932.74
469.064	39334.14
469.269	38394.12
469.474	38586.63
469.679	39745.78
469.885	38170.89
470.09	39137.54
470.295	39039.23
470.5	38387.98
470.705	38533.39
470.91	37685.53
471.115	37333.28
471.32	37742.87
471.525	37419.29
471.73	36460.84
471.935	35895.6
472.139	34890.05
472.344	35154.24
472.549	34847.04
472.754	33677.65
472.959	33276.25
473.164	32526.69
473.369	31775.09
473.574	32735.59
473.778	32385.38
473.983	31412.6
474.188	30607.75
474.393	29065.63
474.598	29309.33
474.802	28453.28
475.007	28510.63
475.212	27789.74
475.417	26839.48
475.621	26868.16
475.826	26266.05
476.031	25745.87
476.235	24994.26
476.44	25053.66
476.645	24332.77
476.849	24203.75
477.054	23822.83
477.259	23507.44
477.463	23011.83
477.668	22702.59
477.872	22381.06
478.077	21950.98
478.282	21332.5
478.486	21219.86
478.691	21066.26
478.895	20673.05
479.1	20283.94
479.304	20261.41
479.509	19810.86
479.713	20191.78
479.918	19696.17
480.122	18997.81
480.326	19360.3
480.531	19196.46
480.735	19092.02
480.94	18723.38
481.144	19218.99
481.348	18283.07
481.553	18432.57
481.757	17893.96
481.961	18205.25
482.166	18176.58
482.37	17863.24
482.574	17463.88
482.778	17519.18
482.983	17541.71
483.187	17386.06
483.391	17316.43
483.595	16837.2
483.8	16624.22
484.004	16716.37
484.208	16773.72
484.412	16382.56
484.616	16382.56
484.821	16091.74
485.025	15510.12
485.229	15714.92
485.433	15678.05
485.637	15413.87
485.841	15045.23
486.045	15071.86
486.249	14774.9
486.453	14346.87
486.657	14398.07
486.861	14234.24
487.065	13824.64
487.269	13812.35
487.473	13337.23
487.677	13597.32
487.881	13513.35
488.085	12790.42
488.289	12679.83
488.493	12372.63
488.697	12489.37
488.901	12337.82
489.105	11860.64
489.309	11760.29
489.512	11623.08
489.716	11186.86
489.92	11035.31
490.124	11004.59
490.328	10799.79
490.531	10558.13
490.735	10500.79
490.939	10250.94
491.143	10140.35
491.346	9829.06
491.55	9841.34
491.754	9556.68
491.958	9302.73
492.161	9151.18
492.365	9269.96
492.569	9059.02
492.772	8712.91
492.976	8856.27
493.18	8698.58
493.383	8491.73
493.587	8307.41
493.79	8426.2
493.994	8043.23
494.197	8106.71
494.401	8067.8
494.605	7914.2
494.808	7930.59
495.012	7930.59
495.215	8012.51
495.419	7643.87
495.622	7463.65
495.825	7547.62
496.029	7650.02
496.232	7656.16
496.436	7578.34
496.639	7676.64
496.843	7318.25
497.046	7459.56
497.249	7832.29
497.453	7545.57
497.656	7453.41
497.859	7633.63
498.063	7676.64
498.266	7619.3
498.469	7613.15
498.673	7553.76
498.876	7658.21
499.079	7719.65
499.282	7617.25
499.485	8145.63
499.689	7979.74
499.892	8030.94
500.095	7895.77
500.298	7949.02
500.501	7895.77
500.705	8178.39
500.908	8323.8
501.111	8205.02
501.314	8438.48
501.517	8377.05
501.72	8512.21
501.923	8518.36
502.126	8690.38
502.329	8792.78
502.532	8932.05
502.735	8985.29
502.938	9034.44
503.141	9102.03
503.344	9364.17
503.547	9425.61
503.75	9390.79
503.953	9554.63
504.156	10011.32
504.359	9794.24
504.562	9841.34
504.765	10199.74
504.968	10525.36
505.17	10709.68
505.373	10681.01
505.576	10801.84
505.779	10877.62
505.982	10910.38
506.185	11453.09
506.387	11483.81
506.59	11852.45
506.793	12073.63
506.996	12325.53
507.198	12573.33
507.401	12565.14
507.604	13064.85
507.807	13107.85
508.009	13482.63
508.212	13777.54
508.415	13884.03
508.617	14228.09
508.82	14582.39
509.022	14488.18
509.225	15256.17
509.428	15346.28
509.63	16093.79
509.833	16046.69
510.035	16659.03
510.238	16814.68
510.44	16990.8
510.643	17433.16
510.845	18035.27
511.048	18063.94
511.25	18623.03
511.453	18942.52
511.655	20208.16
511.858	19630.63
512.06	20660.76
512.262	20935.19
512.465	20937.24
512.667	21885.45
512.87	22129.16
513.072	22686.2
513.274	23257.59
513.477	23697.9
513.679	24150.5
513.881	24584.67
514.084	25156.05
514.286	25743.82
514.488	26255.81
514.69	27218.36
514.893	27625.9
515.095	28293.54
515.297	28441
515.499	29006.23
515.701	29782.41
515.904	30605.7
516.106	31232.38
516.308	32082.28
516.51	32461.16
516.712	33071.45
516.914	33567.06
517.116	34457.93
517.318	34842.95
517.52	35172.67
517.722	35916.08
517.925	36649.25
518.127	37706.01
518.329	38117.65
518.531	38615.3
518.733	39583.99
518.935	40306.93
519.136	40564.97
519.338	41416.93
519.54	41507.04
519.742	42600.65
519.944	42944.71
520.146	43778.23
520.348	44409.01
520.55	44611.76
520.752	45031.59
520.954	46104.73
521.155	46246.04
521.357	46905.48
521.559	47411.33
521.761	48357.49
521.963	48547.95
522.164	48535.66
522.366	49563.75
522.568	49420.39
522.77	49891.42
522.971	51030.09
523.173	49838.17
523.375	51290.18
523.576	50792.53
523.778	51138.63
523.98	52072.51
524.181	52107.32
524.383	51834.94
524.584	52518.96
524.786	52154.43
524.988	51812.41
525.189	52637.75
525.391	52664.37
525.592	53037.1
525.794	52889.65
525.995	52643.89
526.197	52611.12
526.398	52662.32
526.6	52633.65
526.801	52602.93
527.003	52506.68
527.204	52512.82
527.406	52346.93
527.607	52017.21
527.808	51806.27
528.01	50571.35
528.211	51263.56
528.412	51460.16
528.614	50919.5
528.815	50360.4
529.016	50329.69
529.218	49557.6
529.419	49207.4
529.62	48724.08
529.822	48052.34
530.023	47706.24
530.224	47648.89
530.425	46940.3
530.626	46182.55
530.828	45697.18
531.029	46080.15
531.23	45033.64
531.431	44558.51
531.632	44591.28
531.833	44087.48
532.035	43274.43
532.236	42985.67
532.437	42272.98
532.638	41507.04
532.839	41662.68
533.04	40888.55
533.241	40124.66
533.442	40450.28
533.643	39334.14
533.844	38457.61
534.045	38287.63
534.246	37687.57
534.447	37415.19
534.648	36704.55
534.849	36198.7
535.05	35748.15
535.251	35080.51
535.451	34670.92
535.652	34591.05
535.853	33689.94
536.054	33556.82
536.255	33106.27
536.456	32321.9
536.657	32401.77
536.857	31308.15
537.058	31025.53
537.259	31105.4
537.46	30570.88
537.66	29854.09
537.861	29424.02
538.062	29274.52
538.263	28707.23
538.463	28352.93
538.664	27890.09
538.865	27806.13
539.065	27541.94
539.266	27113.91
539.466	26689.98
539.667	26286.53
539.868	26331.59
540.068	25809.36
540.269	25303.51
540.469	25410
540.67	24844.76
540.87	24713.69
541.071	23845.35
541.271	24019.43
541.472	23775.72
541.672	23239.15
541.873	23110.13
542.073	22415.87
542.274	22604.28
542.474	22522.37
542.675	22073.86
542.875	21928.45
543.075	21553.68
543.276	21180.95
543.476	21195.28
543.676	20689.43
543.877	20761.11
544.077	20382.24
544.277	20464.16
544.478	19862.05
544.678	19806.76
544.878	19454.51
545.078	19278.38
545.279	18999.86
545.479	18926.13
545.679	18795.06
545.879	18465.34
546.079	18225.73
546.28	18086.47
546.48	17904.2
546.68	17916.48
546.88	17490.51
547.08	17179.22
547.28	17082.96
547.48	16665.18
547.68	17068.62
547.88	16173.66
548.081	16366.17
548.281	15825.51
548.481	15864.42
548.681	15817.32
548.881	15442.54
549.081	15387.24
549.28	14860.91
549.48	14910.07
549.68	14815.86
549.88	14561.91
550.08	14092.93
550.28	13935.23
550.48	14168.7
550.68	13550.21
550.88	13505.16
551.08	13251.21
551.279	13095.57
551.479	12757.65
551.679	12956.3
551.879	12567.19
552.079	12481.17
552.278	12161.69
552.478	12438.17
552.678	11860.64
552.878	11621.03
553.077	11436.71
553.277	11135.66
553.477	11207.34
553.676	11020.97
553.876	10906.29
554.076	10506.93
554.275	10478.26
554.475	10326.71
554.674	10058.43
554.874	9822.91
555.074	9550.53
555.273	9648.83
555.473	9636.55
555.672	9280.2
555.872	9278.15
556.071	9001.68
556.271	9075.4
556.47	8866.51
556.67	8569.55
556.869	8731.34
557.068	8069.85
557.268	8227.54
557.467	8108.76
557.667	8225.5
557.866	7910.11
558.065	7690.98
558.265	7676.64
558.464	7367.4
558.663	7473.89
558.863	7342.82
559.062	7090.92
559.261	6832.88
559.461	7084.78
559.66	6742.77
559.859	6652.66
560.058	6566.64
560.258	6521.59
560.457	6357.75
560.656	6449.91
560.855	6028.03
561.054	6087.42
561.253	6009.59
561.453	5958.39
561.652	5792.51
561.851	5886.72
562.05	5726.97
562.249	5352.2
562.448	5448.45
562.647	5301
562.846	5184.26
563.045	5235.46
563.244	5010.18
563.443	5118.73
563.642	4854.54
563.841	5022.47
564.04	4827.92
564.239	4776.72
564.438	4600.59
564.637	4520.72
564.836	4500.24
565.035	4576.02
565.234	4313.88
565.432	4315.92
565.631	4301.59
565.83	4252.44
566.029	4172.57
566.228	3937.05
566.427	4057.88
566.625	3859.23
566.824	4008.73
567.023	3769.12
567.222	3765.02
567.42	3742.49
567.619	3664.67
567.818	3640.09
568.016	3769.12
568.215	3588.89
568.414	3666.72
568.612	3429.15
568.811	3463.97
569.01	3287.84
569.208	3408.67
569.407	3236.64
569.605	3187.49
569.804	3189.54
570.002	3207.97
570.201	3160.87
570.4	2968.36
570.598	2982.7
570.797	2900.78
570.995	2888.49
571.193	2827.05
571.392	2861.87
571.59	2728.75
571.789	2753.32
571.987	2784.04
572.186	2741.04
572.384	2624.3
572.582	2616.11
572.781	2501.42
572.979	2421.55
573.177	2532.14
573.376	2470.7
573.574	2437.94
573.772	2458.42
573.971	2145.08
574.169	2147.12
574.367	2267.95
574.565	2145.08
574.763	2136.88
574.962	2163.51
575.16	2149.17
575.358	2036.53
575.556	2059.06
575.754	1942.33
575.952	1893.18
576.151	2075.45
576.349	1917.75
576.547	1755.96
576.745	1844.03
576.943	1925.94
577.141	1794.87
577.339	1794.87
577.537	1764.15
577.735	1743.67
577.933	1651.52
578.131	1614.65
578.329	1835.83
578.527	1594.17
578.725	1674.04
578.923	1526.59
579.121	1669.95
579.319	1389.38
579.516	1532.73
579.714	1622.84
579.912	1463.1
580.11	1291.07
580.308	1260.35
580.506	1272.64
580.704	1192.77
580.901	1305.41
581.099	1450.82
581.297	1100.61
581.495	1258.31
581.692	1205.06
581.89	1385.28
582.088	1243.97
582.285	1307.46
582.483	1188.68
582.681	1078.08
582.878	1147.72
583.076	1190.72
583.274	1092.42
583.471	1172.29
583.669	1057.61
583.866	971.59
584.064	1030.98
584.262	1037.13
584.459	922.44
584.657	987.97
584.854	1121.09
585.052	947.01
585.249	1055.56
585.447	967.49
585.644	824.14
585.841	1022.79
586.039	994.12
586.236	981.83
586.434	861
586.631	873.29
586.828	863.05
587.026	871.24
587.223	820.04
587.42	785.23
587.618	805.71
587.815	877.38
588.012	932.68
588.21	777.03
588.407	885.58
588.604	820.04
588.801	713.55
588.999	711.5
589.196	770.89
589.393	691.02
589.59	801.61
589.787	832.33
589.984	711.5
590.182	740.17
590.379	750.41
590.576	693.07
590.773	658.25
590.97	707.4
591.167	734.03
591.364	703.31
591.561	762.7
591.758	824.14
591.955	744.27
592.152	709.45
592.349	682.83
592.546	639.82
592.743	740.17
592.94	693.07
593.137	762.7
593.334	760.65
593.531	797.51
593.727	721.74
593.924	777.03
594.121	666.44
594.318	592.72
594.515	721.74
594.712	748.36
594.908	768.84
595.105	627.53
595.302	764.75
595.499	664.4
595.696	797.51
595.892	705.35
596.089	822.09
596.286	748.36
596.482	916.3
596.679	764.75
596.876	846.66
597.072	920.39
597.269	822.09
597.466	1004.36
597.662	955.21
597.859	912.2
598.055	957.25
598.252	899.91
598.448	1186.63
598.645	1108.8
598.841	1200.96
599.038	1168.2
599.234	1311.55
599.431	1231.68
599.627	1297.22
599.824	1348.42
600.02	1315.65
600.217	1346.37
600.413	1383.23
600.609	1454.91
600.806	1710.91
601.002	1555.26
601.198	1657.66
601.395	1725.24
601.591	1811.26
601.787	1866.55
601.984	2083.64
602.18	2018.1
602.376	1991.48
602.572	2198.32
602.769	2300.72
602.965	2259.76
603.161	2513.71
603.357	2589.49
603.553	2554.67
603.75	2536.24
603.946	2673.45
604.142	2790.19
604.338	2962.22
604.534	2904.87
604.73	2986.79
604.926	3091.24
605.122	3287.84
605.318	3423.01
605.514	3416.87
605.71	3455.78
605.906	3713.82
606.102	3904.28
606.298	3914.52
606.494	4049.69
606.69	4145.94
606.886	4252.44
607.082	4410.13
607.278	4414.23
607.474	4592.4
607.67	4850.44
607.866	4801.29
608.062	5192.45
608.257	5241.61
608.453	5219.08
608.649	5518.08
608.845	5360.39
609.041	5571.33
609.236	5817.08
609.432	6124.28
609.628	6109.94
609.824	6402.8
610.019	6404.85
610.215	6613.74
610.411	6855.4
610.606	7037.67
610.802	7033.58
610.998	7463.65
611.193	7545.57
611.389	7574.24
611.584	7860.96
611.78	8137.43
611.976	8485.59
612.171	8735.44
612.367	8839.89
612.562	9042.64
612.758	9233.1
612.953	9265.86
613.149	9624.26
613.344	9857.73
613.539	10367.67
613.735	10517.17
613.93	10683.06
614.126	10744.5
614.321	11510.44
614.517	11672.23
614.712	11715.23
614.907	11965.09
615.103	12530.33
615.298	12581.53
615.493	13044.37
615.688	13355.66
615.884	13865.6
616.079	14058.11
616.274	14539.38
616.47	14674.55
616.665	15024.75
616.86	15428.2
617.055	15932
617.25	16104.03
617.445	16898.64
617.641	16960.08
617.836	17445.45
618.031	17740.36
618.226	18330.17
618.421	18782.77
618.616	19415.6
618.811	19730.98
619.006	20150.82
619.201	20294.18
619.396	20953.62
619.591	21160.47
619.786	21930.5
619.981	22161.92
620.176	22874.62
620.371	22804.99
620.566	23648.75
620.761	23880.17
620.956	24762.84
621.151	24713.69
621.346	25756.11
621.541	25663.95
621.735	26692.03
621.93	26546.62
622.125	27523.51
622.32	27337.14
622.515	28230.05
622.709	28944.8
622.904	29688.21
623.099	29737.36
623.294	30441.86
623.488	30648.71
623.683	31369.59
623.878	31461.75
624.072	32090.48
624.267	32729.44
624.462	33210.71
624.656	33761.62
624.851	34398.54
625.046	34861.38
625.24	35344.7
625.435	35426.62
625.629	36161.84
625.824	36501.8
626.018	37093.66
626.213	36796.71
626.407	37445.91
626.602	37925.14
626.796	38115.6
626.991	38967.55
627.185	38988.03
627.38	39700.73
627.574	39158.02
627.768	39325.95
627.963	39889.14
628.157	39885.04
628.352	40225.01
628.546	39573.75
628.74	40460.52
628.935	39643.38
629.129	40147.18
629.323	39438.59
629.517	39528.7
629.712	39317.76
629.906	38818.05
630.1	38500.62
630.294	38041.87
630.489	37450.01
630.683	37306.65
630.877	36084.01
631.071	35973.42
631.265	35299.64
631.459	34337.1
631.653	33853.78
631.848	33306.97
632.042	32170.35
632.236	31713.65
632.43	30859.65
632.624	30204.3
632.818	29139.35
633.012	28006.83
633.206	26784.19
633.4	26452.42
633.594	25184.73
633.788	24760.8
633.982	23853.55
634.176	23112.18
634.369	22186.5
634.563	21088.79
634.757	20251.17
634.951	19714.6
635.145	18919.99
635.339	18184.77
635.533	17361.48
635.726	16962.13
635.92	15852.13
636.114	15299.18
636.308	14809.72
636.501	13990.53
636.695	13525.64
636.889	12989.07
637.083	12647.06
637.276	11754.15
637.47	11623.08
637.664	10896.05
637.857	10564.28
638.051	10183.35
638.244	9550.53
638.438	9358.02
638.632	8880.85
638.825	8413.91
639.019	8536.79
639.212	7850.72
639.406	7719.65
639.599	7133.93
639.793	7047.91
639.986	6716.14
640.18	6597.36
640.373	6292.21
640.567	6003.45
640.76	5763.84
640.954	5559.04
641.147	5339.91
641.34	5061.38
641.534	4999.95
641.727	4715.28
641.92	4502.29
642.114	4512.53
642.307	4340.5
642.5	4332.31
642.694	4000.54
642.887	3824.41
643.08	3889.95
643.273	3525.41
643.467	3355.43
643.66	3253.03
643.853	3025.7
644.046	3023.66
644.239	2894.63
644.432	2667.31
644.626	2589.49
644.819	2681.64
645.012	2423.6
645.205	2474.8
645.398	2446.13
645.591	2257.71
645.784	2087.73
645.977	1938.23
646.17	1825.59
646.363	1880.89
646.556	1725.24
646.749	1704.76
646.942	1606.46
647.135	1665.85
647.328	1493.82
647.521	1553.21
647.714	1469.25
647.907	1377.09
648.099	1278.79
648.292	1315.65
648.485	1317.7
648.678	1256.26
648.871	1127.24
649.064	1065.8
649.256	965.45
649.449	994.12
649.642	920.39
649.835	926.54
650.027	832.33
650.22	983.88
650.413	766.79
650.605	881.48
650.798	787.27
650.991	783.18
651.183	748.36
651.376	871.24
651.568	715.59
651.761	662.35
651.954	740.17
652.146	697.16
652.339	697.16
652.531	660.3
652.724	557.9
652.916	557.9
653.109	490.32
653.301	629.58
653.494	541.52
653.686	506.7
653.879	578.38
654.071	631.63
654.263	537.42
654.456	353.1
654.648	541.52
654.84	498.51
655.033	439.12
655.225	518.99
655.417	318.29
655.61	486.22
655.802	508.75
655.994	498.51
656.186	328.53
656.379	461.65
656.571	373.58
656.763	367.44
656.955	303.95
657.148	318.29
657.34	457.55
657.532	275.28
657.724	199.51
657.916	314.19
658.108	359.25
658.3	351.06
658.492	342.86
658.684	254.8
658.876	303.95
659.068	291.66
659.26	193.36
659.452	211.79
659.644	273.23
659.836	432.97
660.028	299.86
660.22	172.88
660.412	242.51
660.604	170.83
660.796	289.62
660.988	289.62
661.18	187.22
661.372	306
661.563	258.9
661.755	189.27
661.947	156.5
662.139	148.31
662.331	215.89
662.522	138.07
662.714	121.68
662.906	103.25
663.097	211.79
663.289	133.97
663.481	66.39
663.673	160.59
663.864	217.94
664.056	250.71
664.247	152.4
664.439	226.13
664.631	146.26
664.822	209.75
665.014	201.55
665.205	58.2
665.397	170.83
665.588	181.07
665.78	150.36
665.971	205.65
666.163	93.01
666.354	217.94
666.546	125.78
666.737	207.7
666.929	105.3
667.12	148.31
667.311	113.49
667.503	121.68
667.694	199.51
667.885	136.02
668.077	205.65
668.268	95.06
668.459	156.5
668.651	176.98
668.842	183.12
669.033	58.2
669.224	111.44
669.416	338.77
669.607	66.39
669.798	86.87
669.989	252.75
670.18	107.35
670.371	166.74
670.563	-19.63
670.754	211.79
670.945	250.71
671.136	181.07
671.327	82.77
671.518	248.66
671.709	297.81
671.9	185.17
672.091	201.55
672.282	166.74
672.473	191.31
672.664	86.87
672.855	101.2
673.046	156.5
673.237	201.55
673.428	213.84
673.619	281.43
673.809	66.39
674	226.13
674.191	156.5
674.382	123.73
674.573	117.59
674.764	117.59
674.954	254.8
675.145	76.63
675.336	97.11
675.527	60.24
675.717	103.25
675.908	133.97
676.099	160.59
676.289	107.35
676.48	97.11
676.671	150.36
676.861	105.3
677.052	144.21
677.243	113.49
677.433	74.58
677.624	131.92
677.814	230.23
678.005	47.96
678.195	209.75
678.386	58.2
678.576	58.2
678.767	68.44
678.957	213.84
679.148	168.79
679.338	240.47
679.529	199.51
679.719	156.5
679.909	170.83
680.1	234.32
680.29	179.03
680.481	97.11
680.671	152.4
680.861	168.79
681.052	172.88
681.242	193.36
681.432	271.19
681.622	199.51
681.813	80.72
682.003	146.26
682.193	176.98
682.383	156.5
682.573	283.47
682.764	80.72
682.954	168.79
683.144	248.66
683.334	107.35
683.524	111.44
683.714	209.75
683.904	129.88
684.094	99.16
684.284	201.55
684.474	275.28
684.664	232.27
684.854	211.79
685.044	205.65
685.234	254.8
685.424	166.74
685.614	176.98
685.804	303.95
685.994	197.46
686.184	144.21
686.374	160.59
686.564	230.23
686.753	181.07
686.943	103.25
687.133	185.17
687.323	99.16
687.513	273.23
687.702	215.89
687.892	183.12
688.082	230.23
688.272	199.51
688.461	156.5
688.651	316.24
688.841	244.56
689.03	174.93
689.22	228.18
689.41	162.64
689.599	181.07
689.789	152.4
689.979	314.19
690.168	248.66
690.358	326.48
690.547	160.59
690.737	248.66
690.926	224.08
691.116	281.43
691.305	252.75
691.495	219.99
691.684	195.41
691.874	156.5
692.063	176.98
692.252	250.71
692.442	295.76
692.631	197.46
692.82	121.68
693.01	244.56
693.199	232.27
693.388	226.13
693.578	172.88
693.767	160.59
693.956	199.51
694.146	205.65
694.335	285.52
694.524	174.93
694.713	273.23
694.902	113.49
695.092	142.16
695.281	203.6
695.47	72.53
695.659	107.35
695.848	162.64
696.037	113.49
696.226	316.24
696.415	236.37
696.604	306
696.793	265.04
696.982	189.27
697.171	367.44
697.36	150.36
697.549	103.25
697.738	115.54
697.927	97.11
698.116	90.96
698.305	246.61
698.494	238.42
698.683	168.79
698.872	365.39
699.061	199.51
699.25	217.94
699.438	123.73
699.627	195.41
699.816	256.85
700.005	80.72
700.193	189.27
700.382	262.99
700.571	234.32
700.76	228.18
700.948	201.55
701.137	203.6
701.326	236.37
701.514	111.44
701.703	236.37
701.892	246.61
702.08	443.21
702.269	207.7
702.457	209.75
702.646	219.99
702.834	127.83
703.023	265.04
703.212	148.31
703.4	234.32
703.589	133.97
703.777	154.45
703.965	88.92
704.154	144.21
704.342	154.45
704.531	176.98
704.719	150.36
704.907	211.79
705.096	150.36
705.284	185.17
705.472	197.46
705.661	244.56
705.849	224.08
706.037	267.09
706.226	252.75
706.414	160.59
706.602	95.06
706.79	236.37
706.979	211.79
707.167	287.57
707.355	19.29
707.543	250.71
707.731	144.21
707.919	183.12
708.107	203.6
708.296	148.31
708.484	86.87
708.672	95.06
708.86	262.99
709.048	193.36
709.236	103.25
709.424	217.94
709.612	156.5
709.8	88.92
709.988	215.89
710.176	267.09
710.364	211.79
710.551	129.88
710.739	213.84
710.927	240.47
711.115	226.13
711.303	281.43
711.491	281.43
711.679	158.55
711.866	260.95
712.054	215.89
712.242	236.37
712.43	215.89
712.617	160.59
712.805	267.09
712.993	86.87
713.181	97.11
713.368	222.03
713.556	207.7
713.744	193.36
713.931	455.5
714.119	224.08
714.306	211.79
714.494	123.73
714.682	197.46
714.869	84.82
715.057	185.17
715.244	33.62
715.432	115.54
715.619	236.37
715.807	174.93
715.994	162.64
716.182	260.95
716.369	269.14
716.556	242.51
716.744	152.4
716.931	109.4
717.119	140.12
717.306	217.94
717.493	185.17
717.681	181.07
717.868	125.78
718.055	222.03
718.242	228.18
718.43	254.8
718.617	349.01
718.804	215.89
718.991	258.9
719.179	207.7
719.366	217.94
719.553	213.84
719.74	207.7
719.927	152.4
720.114	201.55
720.301	146.26
720.488	131.92
720.676	179.03
720.863	258.9
721.05	301.9
721.237	197.46
721.424	199.51
721.611	168.79
721.798	115.54
721.985	172.88
722.172	230.23
722.358	240.47
722.545	236.37
722.732	131.92
722.919	275.28
723.106	179.03
723.293	146.26
723.48	191.31
723.667	129.88
723.853	260.95
724.04	279.38
724.227	271.19
724.414	152.4
724.6	207.7
724.787	408.4
724.974	430.93
725.161	289.62
725.347	197.46
725.534	219.99
725.72	262.99
725.907	262.99
726.094	283.47
726.28	174.93
726.467	265.04
726.653	109.4
726.84	332.62
727.027	334.67
727.213	252.75
727.4	287.57
727.586	289.62
727.773	111.44
727.959	213.84
728.145	285.52
728.332	211.79
728.518	246.61
728.705	349.01
728.891	211.79
729.077	254.8
729.264	174.93
729.45	244.56
729.636	310.1
729.823	242.51
730.009	277.33
730.195	262.99
730.382	324.43
730.568	213.84
730.754	234.32
730.94	275.28
731.126	238.42
731.313	265.04
731.499	228.18
731.685	324.43
731.871	217.94
732.057	306
732.243	246.61
732.429	279.38
732.615	310.1
732.801	295.76
732.987	207.7
733.173	238.42
733.359	242.51
733.545	234.32
733.731	179.03
733.917	359.25
734.103	258.9
734.289	265.04
734.475	248.66
734.661	414.54
734.847	176.98
735.033	246.61
735.219	289.62
735.404	205.65
735.59	183.12
735.776	215.89
735.962	242.51
736.148	207.7
736.333	351.06
736.519	195.41
736.705	316.24
736.89	252.75
737.076	314.19
737.262	154.45
737.447	256.85
737.633	240.47
737.819	332.62
738.004	265.04
738.19	193.36
738.375	267.09
738.561	281.43
738.747	295.76
738.932	93.01
739.118	449.36
739.303	301.9
739.489	332.62
739.674	156.5
739.859	176.98
740.045	185.17
740.23	252.75
740.416	107.35
740.601	197.46
740.786	273.23
740.972	281.43
741.157	226.13
741.342	168.79
741.528	160.59
741.713	338.77
741.898	230.23
742.084	279.38
742.269	230.23
742.454	297.81
742.639	349.01
742.824	267.09
743.01	224.08
743.195	295.76
743.38	238.42
743.565	191.31
743.75	326.48
743.935	267.09
744.12	295.76
744.305	181.07
744.49	275.28
744.675	158.55
744.86	205.65
745.045	295.76
745.23	262.99
745.415	199.51
745.6	338.77
745.785	244.56
745.97	291.66
746.155	332.62
746.34	318.29
746.525	195.41
746.71	308.05
746.895	148.31
747.079	205.65
747.264	164.69
747.449	295.76
747.634	246.61
747.819	230.23
748.003	189.27
748.188	107.35
748.373	283.47
748.557	269.14
748.742	267.09
748.927	250.71
749.111	168.79
749.296	303.95
749.481	189.27
749.665	254.8
749.85	262.99
750.034	238.42
750.219	185.17
750.404	189.27
750.588	203.6
750.773	156.5
750.957	271.19
751.141	183.12
751.326	283.47
751.51	88.92
751.695	185.17
751.879	205.65
752.064	334.67
752.248	258.9
752.432	265.04
752.617	287.57
752.801	254.8
752.985	195.41
753.17	285.52
753.354	258.9
753.538	170.83
753.722	164.69
753.907	160.59
754.091	136.02
754.275	219.99
754.459	129.88
754.643	140.12
754.828	185.17
755.012	205.65
755.196	97.11
755.38	187.22
755.564	119.64
755.748	160.59
755.932	179.03
756.116	154.45
756.3	222.03
756.484	179.03
756.668	242.51
756.852	41.81
757.036	148.31
757.22	125.78
757.404	113.49
757.588	111.44
757.772	222.03
757.956	156.5
758.14	310.1
758.323	60.24
758.507	168.79
758.691	101.2
758.875	185.17
759.059	248.66
759.242	158.55
759.426	164.69
759.61	179.03
759.794	88.92
759.977	168.79
760.161	316.24
760.345	254.8
760.528	211.79
760.712	136.02
760.895	213.84
761.079	101.2
761.263	43.86
761.446	129.88
761.63	86.87
761.813	174.93
761.997	66.39
762.18	164.69
762.364	191.31
762.547	29.52
762.731	64.34
762.914	142.16
763.098	70.48
763.281	107.35
763.464	125.78
763.648	121.68
763.831	45.91
764.015	13.14
764.198	148.31
764.381	64.34
764.564	99.16
764.748	50
764.931	131.92
765.114	27.48
765.297	215.89
765.481	54.1
765.664	107.35
765.847	131.92
766.03	230.23
766.213	111.44
766.397	41.81
766.58	64.34
766.763	129.88
766.946	39.76
767.129	74.58
767.312	64.34
767.495	68.44
767.678	31.57
767.861	101.2
768.044	136.02
768.227	58.2
768.41	86.87
768.593	43.86
768.776	103.25
768.959	47.96
769.142	64.34
769.324	103.25
769.507	138.07
769.69	60.24
769.873	72.53
770.056	322.38
770.239	74.58
770.421	211.79
770.604	80.72
770.787	25.43
770.97	54.1
771.152	21.33
771.335	111.44
771.518	99.16
771.7	205.65
771.883	234.32
772.066	58.2
772.248	160.59
772.431	156.5
772.613	209.75
772.796	35.67
772.978	107.35
773.161	197.46
773.343	64.34
773.526	56.15
773.708	-60.59
773.891	25.43
774.073	50
774.256	-7.34
774.438	164.69
774.621	52.05
774.803	103.25
774.985	50
775.168	144.21
775.35	138.07
775.532	113.49
775.715	4.95
775.897	111.44
776.079	101.2
776.261	72.53
776.444	62.29
776.626	80.72
776.808	119.64
776.99	-11.43
777.173	80.72
777.355	39.76
777.537	146.26
777.719	154.45
777.901	35.67
778.083	4.95
778.265	35.67
778.447	170.83
778.629	54.1
778.811	74.58
778.993	136.02
779.175	156.5
779.357	90.96
779.539	-70.83
779.721	-3.24
779.903	74.58
780.085	-17.58
780.267	62.29
780.449	19.29
780.631	80.72
780.812	111.44
780.994	4.95
781.176	68.44
781.358	-29.87
781.54	90.96
781.721	66.39
781.903	138.07
782.085	50
782.267	136.02
782.448	47.96
782.63	4.95
782.812	74.58
782.993	101.2
783.175	70.48
783.357	27.48
783.538	64.34
783.72	-23.72
783.901	64.34
784.083	103.25
784.264	115.54
784.446	50
784.627	17.24
784.809	109.4
784.99	99.16
785.172	64.34
785.353	9.05
785.535	52.05
785.716	-54.44
785.897	-27.82
786.079	-5.29
786.26	103.25
786.441	64.34
786.623	-64.68
786.804	41.81
786.985	2.9
787.167	97.11
787.348	76.63
787.529	41.81
787.71	191.31
787.891	121.68
788.073	4.95
788.254	-52.39
788.435	115.54
788.616	90.96
788.797	4.95
788.978	33.62
789.159	19.29
789.34	43.86
789.522	41.81
789.703	-40.11
789.884	47.96
790.065	109.4
790.246	191.31
790.427	-13.48
790.607	90.96
790.788	54.1
790.969	-36.01
791.15	54.1
791.331	39.76
791.512	-40.11
791.693	97.11
791.874	11.09
792.054	201.55
792.235	144.21
792.416	-23.72
792.597	-17.58
792.778	21.33
792.958	68.44
793.139	82.77
793.32	-5.29
793.5	23.38
793.681	146.26
793.862	93.01
794.042	52.05
794.223	9.05
794.404	-85.16
794.584	-79.02
794.765	80.72
794.945	33.62
795.126	25.43
795.306	172.88
795.487	37.72
795.667	86.87
795.848	45.91
796.028	58.2
796.209	37.72
796.389	39.76
796.57	37.72
796.75	-17.58
796.93	50
797.111	-85.16
797.291	-25.77
797.471	84.82
797.652	107.35
797.832	19.29
798.012	99.16
798.192	-27.82
798.373	-11.43
798.553	43.86
798.733	99.16
798.913	9.05
799.093	-7.34
799.274	93.01
799.454	62.29
799.634	-17.58
799.814	103.25
799.994	27.48
800.174	76.63
800.354	82.77
800.534	-52.39
800.714	84.82
800.894	2.9
801.074	-95.4
801.254	17.24
801.434	93.01
801.614	-5.29
801.794	-101.55
801.974	1786.68
802.154	15.19
802.334	21.33
802.514	-1.19
802.693	-5.29
802.873	-1.19
803.053	78.68
803.233	29.52
803.413	37.72
803.592	-11.43
803.772	-7.34
803.952	17.24
804.131	-27.82
804.311	90.96
804.491	144.21
804.67	-27.82
804.85	-21.67
805.03	72.53
805.209	131.92
805.389	-27.82
805.568	9.05
805.748	-29.87
805.928	-5.29
806.107	88.92
806.287	2.9
806.466	74.58
806.646	2.9
806.825	-48.3
807.004	-56.49
807.184	72.53
807.363	109.4
807.543	9.05
807.722	-81.07
807.901	99.16
808.081	-1.19
808.26	-76.97
808.439	66.39
808.619	80.72
808.798	45.91
808.977	80.72
809.156	78.68
809.336	15.19
809.515	50
809.694	-58.54
809.873	-48.3
810.052	103.25
810.231	15.19
810.411	74.58
810.59	68.44
810.769	33.62
810.948	80.72
811.127	-72.87
811.306	-23.72
811.485	-31.91
811.664	123.73
811.843	23.38
812.022	17.24
812.201	21.33
812.38	-15.53
812.559	-68.78
812.737	4.95
812.916	-31.91
813.095	-42.15
813.274	31.57
813.453	86.87
813.632	41.81
813.811	88.92
813.989	-76.97
814.168	-50.35
814.347	-33.96
814.526	11.09
814.704	142.16
814.883	136.02
815.062	-9.39
815.24	68.44
815.419	-31.91
815.598	45.91
815.776	-173.22
815.955	33.62
816.133	-146.6
816.312	52.05
816.49	-62.63
816.669	-25.77
816.847	31.57
817.026	15.19
817.204	-1.19
817.383	-44.2
817.561	-9.39
817.74	37.72
817.918	21.33
818.097	-52.39
818.275	-58.54
818.453	13.14
818.632	68.44
818.81	50
818.988	76.63
819.167	-19.63
819.345	-13.48
819.523	-48.3
819.701	-99.5
819.879	27.48
820.058	15.19
820.236	41.81
820.414	31.57
820.592	25.43
820.77	-5.29
820.948	-79.02
821.127	54.1
821.305	-13.48
821.483	-46.25
821.661	103.25
821.839	52.05
822.017	47.96
822.195	-48.3
822.373	70.48
822.551	80.72
822.729	56.15
822.907	56.15
823.085	-9.39
823.262	99.16
823.44	-17.58
823.618	-44.2
823.796	2.9
823.974	-119.98
824.152	-13.48
824.329	70.48
824.507	13.14
824.685	-7.34
824.863	37.72
825.04	-29.87
825.218	43.86
825.396	31.57
825.574	90.96
825.751	9.05
825.929	27.48
826.107	-87.21
826.284	-46.25
826.462	17.24
826.639	-19.63
826.817	-62.63
826.994	43.86
827.172	-68.78
827.349	158.55
827.527	13.14
827.704	17.24
827.882	64.34
828.059	41.81
828.237	-48.3
828.414	56.15
828.591	-9.39
828.769	-15.53
828.946	-27.82
829.124	82.77
829.301	113.49
829.478	-3.24
829.655	-11.43
829.833	4.95
830.01	-70.83
830.187	107.35
830.364	-3.24
830.542	58.2
830.719	39.76
830.896	47.96
831.073	101.2
831.25	80.72
831.427	111.44
831.604	-13.48
831.782	-23.72
831.959	15.19
832.136	-15.53
832.313	13.14
832.49	-15.53
832.667	-33.96
832.844	-87.21
833.021	80.72
833.198	7
833.374	-27.82
833.551	11.09
833.728	-64.68
833.905	27.48
834.082	-128.17
834.259	-25.77
834.436	60.24
834.612	-27.82
834.789	150.36
834.966	21.33
835.143	21.33
835.319	-15.53
835.496	33.62
835.673	31.57
835.85	95.06
836.026	37.72
836.203	82.77
836.38	23.38
836.556	-23.72
836.733	-115.88
836.909	142.16
837.086	-25.77
837.262	-101.55
837.439	17.24
837.616	-46.25
837.792	35.67
837.968	52.05
838.145	-103.59
838.321	50
838.498	-60.59
838.674	66.39
838.851	37.72
839.027	-33.96
839.203	-5.29
839.38	66.39
839.556	-31.91
839.732	43.86
839.909	64.34
840.085	11.09
840.261	-83.11
840.437	33.62
840.614	-38.06
840.79	58.2
840.966	113.49
841.142	39.76
841.318	99.16
841.494	35.67
841.671	125.78
841.847	-19.63
842.023	-74.92
842.199	78.68
842.375	82.77
842.551	-79.02
842.727	-97.45
842.903	62.29
843.079	-23.72
843.255	72.53
843.431	15.19
843.607	27.48
843.783	-93.35
843.959	45.91
844.134	21.33
844.31	80.72
844.486	-17.58
844.662	15.19
844.838	64.34
845.013	62.29
845.189	97.11
845.365	33.62
845.541	-3.24
845.716	37.72
845.892	117.59
846.068	19.29
846.244	-60.59
846.419	21.33
846.595	-48.3
846.77	-9.39
846.946	19.29
847.122	29.52
847.297	-93.35
847.473	66.39
847.648	-56.49
847.824	-7.34
847.999	-89.26
848.175	-23.72
848.35	13.14
848.526	144.21
848.701	115.54
848.876	41.81
849.052	129.88
849.227	33.62
849.403	-85.16
849.578	56.15
849.753	31.57
849.929	39.76
850.104	-38.06
850.279	68.44
850.454	-13.48
850.63	52.05
850.805	17.24
850.98	47.96
851.155	-3.24
851.33	62.29
851.505	-85.16
851.681	127.83
851.856	52.05
852.031	39.76
852.206	33.62
852.381	-72.87
852.556	-5.29
852.731	35.67
852.906	99.16
853.081	68.44
853.256	121.68
853.431	31.57
853.606	-89.26
853.781	25.43
853.956	-101.55
854.131	52.05
854.305	31.57
854.48	29.52
854.655	-40.11
854.83	-56.49
855.005	-91.31
855.18	25.43
855.354	-31.91
855.529	45.91
855.704	-50.35
855.879	31.57
856.053	-148.65
856.228	-23.72
856.403	-54.44
856.577	-50.35
856.752	-124.07
856.926	-17.58
857.101	56.15
857.276	-76.97
857.45	-31.91
857.625	66.39
857.799	-3.24
857.974	-105.64
858.148	-95.4
858.323	76.63
858.497	-31.91
858.672	-60.59
858.846	-95.4
859.02	115.54
859.195	-64.68
859.369	-38.06
859.543	60.24
859.718	-15.53
859.892	4.95
860.066	41.81
860.241	80.72
860.415	-60.59
860.589	31.57
860.763	21.33
860.938	-72.87
861.112	-33.96
861.286	-27.82
861.46	4.95
861.634	11.09
861.808	50
861.982	-31.91
862.157	-58.54
862.331	2.9
862.505	-52.39
862.679	-95.4
862.853	0.85
863.027	-42.15
863.201	60.24
863.375	-81.07
863.549	54.1
863.722	-7.34
863.896	154.45
864.07	-66.73
864.244	29.52
864.418	72.53
864.592	-79.02
864.766	7
864.939	45.91
865.113	31.57
865.287	101.2
865.461	45.91
865.634	17.24
865.808	33.62
865.982	-38.06
866.156	-56.49
866.329	-138.41
866.503	7
866.676	-31.91
866.85	58.2
867.024	31.57
867.197	78.68
867.371	9.05
867.544	39.76
867.718	-91.31
867.891	0.85
868.065	-124.07
868.238	17.24
868.412	86.87
868.585	45.91
868.759	-62.63
868.932	-5.29
869.105	-44.2
869.279	-19.63
869.452	-97.45
869.625	140.12
869.799	-15.53
869.972	13.14
870.145	-66.73
870.319	58.2
870.492	9.05
870.665	-113.83
870.838	-101.55
871.011	-91.31
871.185	31.57
871.358	4.95
871.531	60.24
871.704	-66.73
871.877	68.44
872.05	21.33
872.223	-21.67
872.396	95.06
872.569	37.72
872.742	-29.87
872.915	74.58
873.088	-68.78
873.261	-54.44
873.434	23.38
873.607	-46.25
873.78	-7.34
873.953	-85.16
874.126	-38.06
874.299	37.72
874.471	31.57
874.644	27.48
874.817	160.59
874.99	160.59
875.163	-46.25
875.335	19.29
875.508	-36.01
875.681	97.11
875.853	-54.44
876.026	-19.63
876.199	13.14
876.371	47.96
876.544	0.85
876.717	39.76
876.889	2.9
877.062	17.24
877.234	7
877.407	-36.01
877.579	-1.19
877.752	-79.02
877.924	70.48
878.097	54.1
878.269	-7.34
878.442	11.09
878.614	60.24
878.786	25.43
878.959	-60.59
879.131	-19.63
879.303	-74.92
879.476	7
879.648	66.39
879.82	4.95
879.993	-7.34
880.165	15.19
880.337	-101.55
880.509	-33.96
880.681	-60.59
880.854	74.58
881.026	68.44
881.198	183.12
881.37	35.67
881.542	2.9
881.714	35.67
881.886	-68.78
882.058	62.29
882.23	-17.58
882.402	-1.19
882.574	56.15
882.746	123.73
882.918	121.68
883.09	50
883.262	-11.43
883.434	15.19
883.606	-134.31
883.778	2.9
883.95	109.4
884.122	27.48
884.293	131.92
884.465	9.05
884.637	78.68
884.809	-27.82
884.98	-11.43
885.152	43.86
885.324	-27.82
885.496	-107.69
885.667	-29.87
885.839	-52.39
886.011	133.97
886.182	70.48
886.354	-3.24
886.525	76.63
886.697	19.29
886.869	-111.78
887.04	47.96
887.212	119.64
887.383	125.78
887.555	13.14
887.726	-70.83
887.897	-40.11
888.069	-19.63
888.24	27.48
888.412	-48.3
888.583	33.62
888.754	-31.91
888.926	-115.88
889.097	-126.12
889.268	-87.21
889.44	-62.63
889.611	-33.96
889.782	-36.01
889.953	-111.78
890.125	82.77
890.296	-132.26
890.467	-89.26
890.638	-52.39
890.809	29.52
890.98	-89.26
891.151	-21.67
891.323	146.26
891.494	62.29
891.665	25.43
891.836	-3.24
892.007	54.1
892.178	-21.67
892.349	21.33
892.52	-13.48
892.691	17.24
892.862	-72.87
893.032	-93.35
893.203	7
893.374	76.63
893.545	64.34
893.716	33.62
893.887	78.68
894.057	-42.15
894.228	-17.58
894.399	9.05
894.57	47.96
894.74	-40.11
894.911	-13.48
895.082	-13.48
895.253	7
895.423	21.33
895.594	37.72
895.764	-5.29
895.935	-111.78
896.106	54.1
896.276	-27.82
896.447	-11.43
896.617	-52.39
896.788	-93.35
896.958	-23.72
897.129	37.72
897.299	-74.92
897.47	90.96
897.64	54.1
897.81	-36.01
897.981	15.19
898.151	-15.53
898.322	-1.19
898.492	50
898.662	-54.44
898.832	-40.11
899.003	-66.73
899.173	-27.82
899.343	-70.83
899.513	-117.93
