Data from USB4F104151__159__11-04-40-436.txt Node

Date: Wed Feb 26 11:04:40 EST 2025
User: louis
Spectrometer: USB4F10415
Trigger mode: 4
Integration Time (sec): 1.000000E-1
Scans to average: 1
Electric dark correction enabled: true
Nonlinearity correction enabled: false
Boxcar width: 0
XAxis mode: Wavelengths
Number of Pixels in Spectrum: 3648
>>>>>Begin Spectral Data<<<<<
178.204	-326.14
178.424	-326.14
178.644	-326.14
178.864	-424.44
179.084	-363
179.304	1.54
179.524	-20.99
179.744	-33.28
179.964	44.54
180.184	13.82
180.404	-39.42
180.624	-18.94
180.844	3.58
181.064	38.4
181.283	44.54
181.503	-51.71
181.723	17.92
181.943	-123.39
182.163	230.91
182.383	-41.47
182.602	65.02
182.822	91.65
183.042	24.06
183.262	46.59
183.482	28.16
183.701	3.58
183.921	34.3
184.141	-86.53
184.361	87.55
184.58	52.74
184.8	67.07
185.02	56.83
185.239	30.21
185.459	40.45
185.679	110.08
185.898	-39.42
186.118	13.82
186.338	34.3
186.557	120.32
186.777	-35.33
186.997	-14.85
187.216	40.45
187.436	241.15
187.655	116.22
187.875	93.69
188.095	46.59
188.314	126.46
188.534	140.8
188.753	11.78
188.973	235
189.192	232.96
189.412	11.78
189.631	-53.76
189.851	140.8
190.07	189.95
190.29	-18.94
190.509	52.74
190.729	60.93
190.948	163.33
191.168	241.15
191.387	73.21
191.607	38.4
191.826	48.64
192.045	75.26
192.265	38.4
192.484	101.89
192.704	-8.7
192.923	-66.05
193.142	183.81
193.362	134.65
193.581	134.65
193.8	140.8
194.02	93.69
194.239	3.58
194.458	169.47
194.678	93.69
194.897	-23.04
195.116	-18.94
195.335	71.17
195.555	48.64
195.774	24.06
195.993	157.18
196.212	50.69
196.432	-31.23
196.651	-12.8
196.87	36.35
197.089	327.16
197.308	30.21
197.528	62.98
197.747	-86.53
197.966	30.21
198.185	105.98
198.404	-47.62
198.623	81.41
198.842	134.65
199.062	148.99
199.281	138.75
199.5	46.59
199.719	81.41
199.938	87.55
200.157	75.26
200.376	91.65
200.595	48.64
200.814	71.17
201.033	-39.42
201.252	120.32
201.471	58.88
201.69	112.13
201.909	83.45
202.128	165.37
202.347	114.17
202.566	-12.8
202.785	-49.66
203.004	-18.94
203.223	288.25
203.442	110.08
203.661	-64
203.879	69.12
204.098	89.6
204.317	1.54
204.536	95.74
204.755	105.98
204.974	161.28
205.193	17.92
205.411	132.61
205.63	83.45
205.849	87.55
206.068	50.69
206.287	26.11
206.505	83.45
206.724	-14.85
206.943	91.65
207.162	11.78
207.381	171.52
207.599	46.59
207.818	56.83
208.037	-25.09
208.255	62.98
208.474	38.4
208.693	114.17
208.911	50.69
209.13	144.89
209.349	126.46
209.567	79.36
209.786	85.5
210.005	118.27
210.223	122.37
210.442	-76.29
210.661	-6.66
210.879	75.26
211.098	62.98
211.316	34.3
211.535	24.06
211.753	120.32
211.972	1.54
212.191	38.4
212.409	60.93
212.628	146.94
212.846	3.58
213.065	26.11
213.283	185.85
213.502	24.06
213.72	42.5
213.938	-6.66
214.157	32.26
214.375	97.79
214.594	9.73
214.812	85.5
215.031	67.07
215.249	40.45
215.467	58.88
215.686	48.64
215.904	73.21
216.122	7.68
216.341	95.74
216.559	122.37
216.778	56.83
216.996	97.79
217.214	62.98
217.432	-23.04
217.651	-80.38
217.869	13.82
218.087	83.45
218.306	58.88
218.524	5.63
218.742	22.02
218.96	122.37
219.179	38.4
219.397	73.21
219.615	206.33
219.833	165.37
220.051	19.97
220.27	128.51
220.488	167.42
220.706	50.69
220.924	26.11
221.142	-47.62
221.36	52.74
221.578	81.41
221.796	91.65
222.015	5.63
222.233	38.4
222.451	136.7
222.669	-31.23
222.887	13.82
223.105	-25.09
223.323	30.21
223.541	-61.95
223.759	79.36
223.977	36.35
224.195	142.85
224.413	114.17
224.631	132.61
224.849	75.26
225.067	288.25
225.285	32.26
225.503	-6.66
225.721	-82.43
225.939	32.26
226.157	54.78
226.375	120.32
226.592	19.97
226.81	40.45
227.028	112.13
227.246	114.17
227.464	91.65
227.682	146.94
227.9	34.3
228.117	60.93
228.335	93.69
228.553	75.26
228.771	-25.09
228.989	19.97
229.206	140.8
229.424	81.41
229.642	-47.62
229.86	-12.8
230.077	169.47
230.295	122.37
230.513	144.89
230.731	140.8
230.948	187.9
231.166	202.24
231.384	69.12
231.601	99.84
231.819	245.24
232.037	50.69
232.254	-57.86
232.472	36.35
232.689	-2.56
232.907	30.21
233.125	32.26
233.342	-33.28
233.56	52.74
233.777	26.11
233.995	34.3
234.213	134.65
234.43	56.83
234.648	28.16
234.865	32.26
235.083	52.74
235.3	48.64
235.518	60.93
235.735	181.76
235.953	60.93
236.17	52.74
236.388	40.45
236.605	91.65
236.822	38.4
237.04	71.17
237.257	50.69
237.475	-43.52
237.692	110.08
237.909	136.7
238.127	65.02
238.344	13.82
238.562	75.26
238.779	-33.28
238.996	-0.51
239.214	24.06
239.431	114.17
239.648	7.68
239.865	73.21
240.083	73.21
240.3	17.92
240.517	71.17
240.735	5.63
240.952	79.36
241.169	40.45
241.386	103.93
241.603	30.21
241.821	-47.62
242.038	101.89
242.255	116.22
242.472	-104.96
242.689	24.06
242.907	48.64
243.124	28.16
243.341	7.68
243.558	15.87
243.775	-37.38
243.992	-57.86
244.209	132.61
244.426	165.37
244.643	22.02
244.86	30.21
245.078	101.89
245.295	26.11
245.512	-0.51
245.729	-33.28
245.946	110.08
246.163	50.69
246.38	83.45
246.597	97.79
246.814	48.64
247.031	22.02
247.248	95.74
247.464	54.78
247.681	32.26
247.898	30.21
248.115	62.98
248.332	9.73
248.549	120.32
248.766	108.03
248.983	103.93
249.2	44.54
249.417	144.89
249.633	15.87
249.85	17.92
250.067	42.5
250.284	32.26
250.501	114.17
250.717	62.98
250.934	-98.81
251.151	67.07
251.368	19.97
251.585	83.45
251.801	91.65
252.018	-16.9
252.235	148.99
252.451	3.58
252.668	-12.8
252.885	171.52
253.102	71.17
253.318	22.02
253.535	-39.42
253.752	38.4
253.968	-10.75
254.185	-29.18
254.401	60.93
254.618	56.83
254.835	-20.99
255.051	183.81
255.268	132.61
255.484	140.8
255.701	30.21
255.917	50.69
256.134	-31.23
256.351	46.59
256.567	-29.18
256.784	69.12
257	-45.57
257.217	132.61
257.433	79.36
257.65	-4.61
257.866	32.26
258.082	-123.39
258.299	15.87
258.515	110.08
258.732	-0.51
258.948	1.54
259.165	67.07
259.381	-12.8
259.597	93.69
259.814	-20.99
260.03	38.4
260.246	24.06
260.463	187.9
260.679	138.75
260.895	79.36
261.112	95.74
261.328	71.17
261.544	-92.67
261.761	210.43
261.977	-14.85
262.193	30.21
262.409	79.36
262.626	19.97
262.842	60.93
263.058	67.07
263.274	130.56
263.49	65.02
263.707	22.02
263.923	71.17
264.139	-76.29
264.355	30.21
264.571	136.7
264.787	32.26
265.004	198.14
265.22	-10.75
265.436	-18.94
265.652	83.45
265.868	-8.7
266.084	-12.8
266.3	32.26
266.516	-12.8
266.732	36.35
266.948	-4.61
267.164	69.12
267.38	81.41
267.596	71.17
267.812	187.9
268.028	-10.75
268.244	-14.85
268.46	32.26
268.676	97.79
268.892	69.12
269.108	-12.8
269.324	-107.01
269.54	-92.67
269.756	126.46
269.972	-4.61
270.188	36.35
270.403	-35.33
270.619	65.02
270.835	97.79
271.051	56.83
271.267	-33.28
271.483	-29.18
271.698	163.33
271.914	93.69
272.13	38.4
272.346	-41.47
272.562	36.35
272.777	161.28
272.993	38.4
273.209	-4.61
273.425	105.98
273.64	-4.61
273.856	85.5
274.072	-76.29
274.287	34.3
274.503	85.5
274.719	124.41
274.934	42.5
275.15	-64
275.366	99.84
275.581	-35.33
275.797	118.27
276.012	17.92
276.228	-31.23
276.444	-16.9
276.659	85.5
276.875	42.5
277.09	58.88
277.306	24.06
277.521	81.41
277.737	122.37
277.952	77.31
278.168	17.92
278.383	89.6
278.599	136.7
278.814	103.93
279.03	89.6
279.245	89.6
279.461	87.55
279.676	146.94
279.892	-31.23
280.107	-10.75
280.322	28.16
280.538	134.65
280.753	1.54
280.969	62.98
281.184	83.45
281.399	114.17
281.615	52.74
281.83	38.4
282.045	-70.14
282.26	50.69
282.476	-35.33
282.691	101.89
282.906	105.98
283.122	62.98
283.337	-29.18
283.552	3.58
283.767	9.73
283.983	11.78
284.198	32.26
284.413	101.89
284.628	-37.38
284.843	38.4
285.058	151.04
285.274	38.4
285.489	34.3
285.704	36.35
285.919	-74.24
286.134	34.3
286.349	54.78
286.564	-29.18
286.779	130.56
286.995	9.73
287.21	-33.28
287.425	95.74
287.64	28.16
287.855	46.59
288.07	-131.58
288.285	144.89
288.5	224.76
288.715	118.27
288.93	24.06
289.145	46.59
289.36	81.41
289.575	75.26
289.79	161.28
290.004	7.68
290.219	132.61
290.434	-2.56
290.649	-29.18
290.864	-0.51
291.079	-27.14
291.294	13.82
291.509	110.08
291.724	5.63
291.938	-4.61
292.153	79.36
292.368	69.12
292.583	60.93
292.798	159.23
293.012	44.54
293.227	48.64
293.442	24.06
293.657	157.18
293.871	169.47
294.086	5.63
294.301	181.76
294.516	71.17
294.73	5.63
294.945	-16.9
295.16	-10.75
295.374	263.68
295.589	101.89
295.804	38.4
296.018	28.16
296.233	122.37
296.447	44.54
296.662	36.35
296.877	105.98
297.091	93.69
297.306	108.03
297.52	54.78
297.735	155.13
297.949	58.88
298.164	44.54
298.378	56.83
298.593	-55.81
298.807	-20.99
299.022	52.74
299.236	103.93
299.451	34.3
299.665	-29.18
299.88	5.63
300.094	19.97
300.309	67.07
300.523	34.3
300.737	7.68
300.952	65.02
301.166	73.21
301.381	-88.57
301.595	3.58
301.809	120.32
302.024	85.5
302.238	-78.33
302.452	110.08
302.667	87.55
302.881	194.05
303.095	134.65
303.309	54.78
303.524	-10.75
303.738	9.73
303.952	24.06
304.166	62.98
304.381	-86.53
304.595	157.18
304.809	-23.04
305.023	-55.81
305.237	5.63
305.452	50.69
305.666	130.56
305.88	83.45
306.094	83.45
306.308	65.02
306.522	108.03
306.736	110.08
306.95	34.3
307.164	-14.85
307.379	17.92
307.593	171.52
307.807	108.03
308.021	77.31
308.235	52.74
308.449	-61.95
308.663	54.78
308.877	235
309.091	-16.9
309.305	85.5
309.519	-100.86
309.733	153.09
309.947	-16.9
310.161	120.32
310.374	60.93
310.588	138.75
310.802	22.02
311.016	-27.14
311.23	73.21
311.444	-45.57
311.658	56.83
311.872	108.03
312.085	110.08
312.299	155.13
312.513	146.94
312.727	79.36
312.941	-51.71
313.154	122.37
313.368	110.08
313.582	67.07
313.796	99.84
314.009	-20.99
314.223	155.13
314.437	97.79
314.651	124.41
314.864	-4.61
315.078	-31.23
315.292	-59.9
315.505	-20.99
315.719	99.84
315.933	87.55
316.146	-4.61
316.36	-25.09
316.573	142.85
316.787	67.07
317.001	71.17
317.214	-12.8
317.428	65.02
317.641	-45.57
317.855	105.98
318.068	91.65
318.282	65.02
318.495	208.38
318.709	118.27
318.922	-68.09
319.136	200.19
319.349	71.17
319.563	11.78
319.776	65.02
319.99	-43.52
320.203	77.31
320.417	71.17
320.63	134.65
320.843	218.62
321.057	69.12
321.27	69.12
321.483	11.78
321.697	65.02
321.91	22.02
322.124	67.07
322.337	-25.09
322.55	50.69
322.763	58.88
322.977	95.74
323.19	-6.66
323.403	77.31
323.617	34.3
323.83	65.02
324.043	46.59
324.256	38.4
324.469	-39.42
324.683	144.89
324.896	65.02
325.109	19.97
325.322	-33.28
325.535	132.61
325.748	114.17
325.962	52.74
326.175	73.21
326.388	112.13
326.601	140.8
326.814	79.36
327.027	46.59
327.24	161.28
327.453	-37.38
327.666	114.17
327.879	120.32
328.092	79.36
328.305	126.46
328.518	9.73
328.731	89.6
328.944	69.12
329.157	62.98
329.37	-20.99
329.583	151.04
329.796	247.29
330.009	-43.52
330.222	128.51
330.435	67.07
330.648	36.35
330.861	83.45
331.073	-10.75
331.286	95.74
331.499	71.17
331.712	-12.8
331.925	71.17
332.138	85.5
332.35	71.17
332.563	-37.38
332.776	202.24
332.989	9.73
333.202	24.06
333.414	36.35
333.627	-16.9
333.84	5.63
334.053	73.21
334.265	-8.7
334.478	34.3
334.691	-6.66
334.903	22.02
335.116	-41.47
335.329	30.21
335.541	91.65
335.754	169.47
335.966	3.58
336.179	5.63
336.392	-29.18
336.604	-8.7
336.817	87.55
337.029	81.41
337.242	15.87
337.454	157.18
337.667	54.78
337.88	171.52
338.092	122.37
338.305	73.21
338.517	17.92
338.729	38.4
338.942	138.75
339.154	17.92
339.367	-51.71
339.579	132.61
339.792	-0.51
340.004	99.84
340.217	62.98
340.429	67.07
340.641	-4.61
340.854	-43.52
341.066	38.4
341.278	148.99
341.491	224.76
341.703	77.31
341.915	32.26
342.128	159.23
342.34	85.5
342.552	-49.66
342.764	140.8
342.977	73.21
343.189	60.93
343.401	13.82
343.613	-23.04
343.826	120.32
344.038	-2.56
344.25	97.79
344.462	-43.52
344.674	46.59
344.886	28.16
345.099	40.45
345.311	17.92
345.523	11.78
345.735	-68.09
345.947	48.64
346.159	42.5
346.371	138.75
346.583	130.56
346.795	171.52
347.007	-0.51
347.219	99.84
347.431	-6.66
347.643	73.21
347.855	-2.56
348.067	198.14
348.279	-51.71
348.491	58.88
348.703	167.42
348.915	93.69
349.127	-64
349.339	13.82
349.551	-2.56
349.763	42.5
349.975	62.98
350.187	118.27
350.399	140.8
350.61	120.32
350.822	5.63
351.034	101.89
351.246	132.61
351.458	118.27
351.669	105.98
351.881	67.07
352.093	159.23
352.305	95.74
352.517	42.5
352.728	136.7
352.94	69.12
353.152	60.93
353.363	-10.75
353.575	56.83
353.787	239.1
353.999	124.41
354.21	273.92
354.422	-37.38
354.633	56.83
354.845	97.79
355.057	-2.56
355.268	-12.8
355.48	89.6
355.692	-53.76
355.903	93.69
356.115	-20.99
356.326	-123.39
356.538	192
356.749	3.58
356.961	157.18
357.172	46.59
357.384	-49.66
357.595	282.11
357.807	91.65
358.018	7.68
358.23	-10.75
358.441	200.19
358.653	28.16
358.864	67.07
359.075	-61.95
359.287	54.78
359.498	99.84
359.709	146.94
359.921	60.93
360.132	56.83
360.344	71.17
360.555	-10.75
360.766	79.36
360.977	28.16
361.189	116.22
361.4	56.83
361.611	77.31
361.823	110.08
362.034	54.78
362.245	-82.43
362.456	30.21
362.667	153.09
362.879	-6.66
363.09	83.45
363.301	46.59
363.512	-12.8
363.723	-4.61
363.935	30.21
364.146	163.33
364.357	22.02
364.568	60.93
364.779	-8.7
364.99	140.8
365.201	3.58
365.412	105.98
365.623	13.82
365.834	132.61
366.045	62.98
366.256	112.13
366.467	85.5
366.678	50.69
366.889	89.6
367.1	60.93
367.311	99.84
367.522	1.54
367.733	126.46
367.944	175.61
368.155	65.02
368.366	46.59
368.577	9.73
368.788	71.17
368.999	-20.99
369.209	85.5
369.42	241.15
369.631	200.19
369.842	128.51
370.053	-33.28
370.264	134.65
370.474	-18.94
370.685	110.08
370.896	85.5
371.107	112.13
371.317	38.4
371.528	38.4
371.739	91.65
371.95	58.88
372.16	81.41
372.371	-37.38
372.582	62.98
372.792	122.37
373.003	67.07
373.214	-20.99
373.424	136.7
373.635	34.3
373.846	148.99
374.056	67.07
374.267	46.59
374.477	54.78
374.688	-8.7
374.898	101.89
375.109	62.98
375.319	46.59
375.53	146.94
375.74	112.13
375.951	38.4
376.161	36.35
376.372	42.5
376.582	1.54
376.793	15.87
377.003	93.69
377.214	69.12
377.424	79.36
377.635	-4.61
377.845	40.45
378.055	77.31
378.266	-20.99
378.476	28.16
378.686	91.65
378.897	91.65
379.107	132.61
379.317	69.12
379.528	-23.04
379.738	116.22
379.948	-43.52
380.158	62.98
380.369	38.4
380.579	22.02
380.789	26.11
380.999	103.93
381.21	183.81
381.42	208.38
381.63	97.79
381.84	112.13
382.05	69.12
382.261	60.93
382.471	71.17
382.681	15.87
382.891	177.66
383.101	42.5
383.311	-31.23
383.521	-39.42
383.731	79.36
383.941	93.69
384.151	95.74
384.361	77.31
384.571	81.41
384.781	30.21
384.991	210.43
385.201	200.19
385.411	81.41
385.621	56.83
385.831	36.35
386.041	85.5
386.251	62.98
386.461	159.23
386.671	11.78
386.881	42.5
387.091	5.63
387.301	181.76
387.511	142.85
387.72	46.59
387.93	110.08
388.14	17.92
388.35	91.65
388.56	42.5
388.769	128.51
388.979	9.73
389.189	46.59
389.399	30.21
389.609	138.75
389.818	89.6
390.028	105.98
390.238	87.55
390.447	-35.33
390.657	26.11
390.867	34.3
391.076	5.63
391.286	60.93
391.496	69.12
391.705	73.21
391.915	220.67
392.125	151.04
392.334	73.21
392.544	134.65
392.753	11.78
392.963	9.73
393.172	1.54
393.382	69.12
393.591	103.93
393.801	140.8
394.01	189.95
394.22	52.74
394.429	87.55
394.639	42.5
394.848	42.5
395.058	-27.14
395.267	-8.7
395.477	124.41
395.686	136.7
395.895	194.05
396.105	140.8
396.314	95.74
396.524	9.73
396.733	52.74
396.942	122.37
397.152	85.5
397.361	183.81
397.57	60.93
397.78	22.02
397.989	40.45
398.198	175.61
398.407	52.74
398.617	77.31
398.826	22.02
399.035	11.78
399.244	103.93
399.453	81.41
399.663	11.78
399.872	87.55
400.081	7.68
400.29	200.19
400.499	32.26
400.708	134.65
400.917	81.41
401.127	124.41
401.336	-18.94
401.545	124.41
401.754	87.55
401.963	120.32
402.172	15.87
402.381	-20.99
402.59	-0.51
402.799	15.87
403.008	91.65
403.217	42.5
403.426	155.13
403.635	-29.18
403.844	69.12
404.053	81.41
404.262	-31.23
404.471	167.42
404.68	136.7
404.888	7.68
405.097	38.4
405.306	167.42
405.515	62.98
405.724	52.74
405.933	155.13
406.142	17.92
406.35	194.05
406.559	17.92
406.768	116.22
406.977	114.17
407.185	105.98
407.394	77.31
407.603	-8.7
407.812	42.5
408.02	140.8
408.229	5.63
408.438	58.88
408.646	-6.66
408.855	87.55
409.064	40.45
409.272	87.55
409.481	87.55
409.69	-39.42
409.898	-66.05
410.107	140.8
410.315	69.12
410.524	58.88
410.733	62.98
410.941	95.74
411.15	77.31
411.358	97.79
411.567	116.22
411.775	85.5
411.984	120.32
412.192	167.42
412.401	71.17
412.609	144.89
412.818	169.47
413.026	91.65
413.234	85.5
413.443	-4.61
413.651	-2.56
413.86	30.21
414.068	77.31
414.276	159.23
414.485	-43.52
414.693	181.76
414.901	175.61
415.11	87.55
415.318	13.82
415.526	22.02
415.734	75.26
415.943	116.22
416.151	110.08
416.359	28.16
416.567	28.16
416.776	65.02
416.984	62.98
417.192	230.91
417.4	71.17
417.608	50.69
417.817	3.58
418.025	138.75
418.233	159.23
418.441	-59.9
418.649	30.21
418.857	130.56
419.065	130.56
419.273	44.54
419.481	60.93
419.689	38.4
419.897	52.74
420.105	17.92
420.313	38.4
420.521	118.27
420.729	157.18
420.937	28.16
421.145	11.78
421.353	138.75
421.561	120.32
421.769	62.98
421.977	44.54
422.185	71.17
422.393	69.12
422.601	175.61
422.809	22.02
423.017	60.93
423.224	22.02
423.432	167.42
423.64	9.73
423.848	126.46
424.056	19.97
424.263	148.99
424.471	-20.99
424.679	124.41
424.887	-10.75
425.094	169.47
425.302	85.5
425.51	112.13
425.718	69.12
425.925	62.98
426.133	44.54
426.341	194.05
426.548	44.54
426.756	54.78
426.964	192
427.171	77.31
427.379	91.65
427.586	50.69
427.794	97.79
428.001	200.19
428.209	101.89
428.417	179.71
428.624	81.41
428.832	194.05
429.039	17.92
429.247	116.22
429.454	67.07
429.662	167.42
429.869	144.89
430.076	62.98
430.284	144.89
430.491	171.52
430.699	103.93
430.906	241.15
431.114	185.85
431.321	126.46
431.528	134.65
431.736	87.55
431.943	136.7
432.15	192
432.358	255.48
432.565	255.48
432.772	7.68
432.979	161.28
433.187	200.19
433.394	224.76
433.601	138.75
433.808	196.09
434.016	304.64
434.223	153.09
434.43	218.62
434.637	210.43
434.844	300.54
435.052	187.9
435.259	269.82
435.466	286.2
435.673	282.11
435.88	263.68
436.087	288.25
436.294	396.79
436.501	321.02
436.708	275.96
436.915	282.11
437.122	374.27
437.329	327.16
437.537	349.69
437.743	357.88
437.95	460.28
438.157	325.12
438.364	419.32
438.571	409.08
438.778	355.83
438.985	361.98
439.192	466.42
439.399	445.95
439.606	458.23
439.813	486.9
440.02	626.17
440.227	693.75
440.433	574.97
440.64	507.38
440.847	445.95
441.054	601.59
441.261	722.42
441.467	513.53
441.674	503.29
441.881	663.03
442.088	671.22
442.294	706.04
442.501	724.47
442.708	806.39
442.914	714.23
443.121	810.48
443.328	771.57
443.534	959.99
443.741	853.49
443.948	808.44
444.154	1013.23
444.361	1113.58
444.568	1046
444.774	988.66
444.981	939.51
445.187	1134.06
445.394	1250.8
445.6	1132.01
445.807	1392.11
446.013	1185.26
446.22	1154.54
446.426	1414.63
446.633	1424.87
446.839	1562.09
447.046	1332.72
447.252	1646.05
447.459	1562.09
447.665	1605.1
447.871	1652.2
448.078	1936.87
448.284	1908.19
448.491	1981.92
448.697	2065.89
448.903	2076.13
449.11	2158.05
449.316	2080.22
449.522	2375.13
449.728	2469.34
449.935	2426.33
450.141	2289.12
450.347	2649.56
450.553	2612.7
450.76	2655.7
450.966	2979.28
451.172	2887.12
451.378	3053.01
451.584	3065.3
451.791	3409.36
451.997	3411.4
452.203	3476.94
452.409	3599.82
452.615	3855.81
452.821	3716.55
453.027	3855.81
453.233	4343.23
453.44	4136.38
453.646	4326.85
453.852	4439.48
454.058	4591.03
454.264	4908.47
454.47	5232.05
454.676	5039.54
454.882	5653.93
455.088	5318.06
455.294	5729.7
455.5	6024.61
455.705	6395.29
455.911	6466.97
456.117	6620.57
456.323	6768.02
456.529	6892.95
456.735	7482.77
456.941	7644.56
457.147	7998.85
457.352	8043.91
457.558	8430.98
457.764	8945.02
457.97	9045.37
458.176	9467.25
458.381	10059.11
458.587	10206.56
458.793	10691.93
458.999	10669.41
459.204	12170.57
459.41	12471.62
459.616	12344.64
459.821	13051.19
460.027	13628.72
460.233	14050.6
460.438	14167.34
460.644	14986.52
460.85	15271.19
461.055	15873.29
461.261	16428.29
461.466	16065.8
461.672	16729.34
461.878	18453.73
462.083	18218.22
462.289	18523.37
462.494	19383.51
462.7	19680.47
462.905	19862.74
463.111	21664.95
463.316	22449.32
463.522	22828.2
463.727	23643.29
463.932	24630.41
464.138	25504.89
464.343	26543.21
464.549	26559.59
464.754	28183.63
464.959	29238.34
465.165	29525.05
465.37	29443.13
465.575	29369.41
465.781	31536.16
465.986	32265.24
466.191	31788.06
466.397	32304.15
466.602	31726.62
466.807	33309.7
467.012	33852.41
467.218	34253.81
467.423	34513.91
467.628	34872.3
467.833	37112.78
468.038	36467.67
468.244	35978.2
468.449	37702.59
468.654	36824.01
468.859	36572.11
469.064	36408.28
469.269	35832.8
469.474	36344.79
469.679	37454.79
469.885	36170.71
470.09	36905.93
470.295	36856.78
470.5	36107.23
470.705	36123.61
470.91	35294.18
471.115	34737.13
471.32	35591.14
471.525	35097.58
471.73	34268.15
471.935	34139.13
472.139	32910.35
472.344	32908.3
472.549	33029.13
472.754	31892.51
472.959	31333.41
473.164	30483.5
473.369	29721.66
473.574	30577.71
473.778	30211.12
473.983	29473.85
474.188	29203.52
474.393	27513.95
474.598	27307.1
474.802	26825.83
475.007	26358.89
475.212	26395.76
475.417	24824.97
475.621	25148.54
475.826	24765.57
476.031	24188.05
476.235	23678.1
476.44	23571.61
476.645	22922.4
476.849	22469.8
477.054	22437.03
477.259	21777.59
477.463	21736.63
477.668	20960.45
477.872	21105.85
478.077	20731.08
478.282	20178.12
478.486	19983.57
478.691	19680.47
478.895	19340.5
479.1	19389.66
479.304	19408.09
479.509	18666.72
479.713	18978.01
479.918	18523.37
480.122	17990.89
480.326	18253.03
480.531	18183.4
480.735	18007.28
480.94	17642.74
481.144	17984.75
481.348	17052.92
481.553	17485.05
481.757	16915.71
481.961	17065.21
482.166	17067.26
482.37	16952.57
482.574	16342.28
482.778	16422.15
482.983	16768.26
483.187	16424.2
483.391	16342.28
483.595	16057.61
483.8	15734.03
484.004	16123.15
484.208	15983.88
484.412	15514.9
484.616	15330.58
484.821	15310.1
485.025	14761.25
485.229	14869.79
485.433	14560.55
485.637	14644.51
485.841	14296.36
486.045	14134.57
486.249	14165.29
486.453	13757.74
486.657	13462.83
486.861	13552.95
487.065	12881.21
487.269	13090.1
487.473	12479.81
487.677	12559.68
487.881	12639.55
488.085	12180.81
488.289	11986.25
488.493	11736.4
488.697	11685.2
488.901	11507.02
489.105	11111.77
489.309	10843.48
489.512	10886.49
489.716	10562.91
489.92	10386.79
490.124	10333.54
490.328	10225
490.531	9794.92
490.735	9973.1
490.939	9629.04
491.143	9518.45
491.346	9121.14
491.55	9196.92
491.754	8908.15
491.958	9039.22
492.161	8650.11
492.365	8648.06
492.569	8367.49
492.772	8246.66
492.976	8152.45
493.18	8185.22
493.383	8000.9
493.587	7749
493.79	7976.33
493.994	7515.53
494.197	7511.44
494.401	7572.88
494.605	7312.78
494.808	7325.07
495.012	7374.22
495.215	7445.9
495.419	7179.67
495.622	7058.84
495.825	7191.95
496.029	6870.42
496.232	7103.89
496.436	6780.31
496.639	7224.72
496.843	6915.48
497.046	6966.68
497.249	6882.71
497.453	6923.67
497.656	7042.45
497.859	6985.11
498.063	6972.82
498.266	7079.32
498.469	6913.43
498.673	7087.51
498.876	7089.56
499.079	7255.44
499.282	7290.26
499.485	7443.85
499.689	7191.95
499.892	7286.16
500.095	7306.64
500.298	7378.32
500.501	7220.63
500.705	7427.47
500.908	7392.66
501.111	7564.68
501.314	7693.71
501.517	7853.45
501.72	7787.91
501.923	7804.3
502.126	7939.46
502.329	8156.55
502.532	7953.8
502.735	8215.94
502.938	8609.15
503.141	8256.9
503.344	8330.62
503.547	8545.66
503.75	8572.29
503.953	8832.38
504.156	8815.99
504.359	9059.7
504.562	9106.81
504.765	9383.28
504.968	9403.76
505.17	9448.82
505.373	9692.52
505.576	9856.36
505.779	9930.09
505.982	10222.95
506.185	10317.15
506.387	10329.44
506.59	10769.76
506.793	11046.23
506.996	10892.63
507.198	11414.87
507.401	11394.39
507.604	11625.81
507.807	12174.66
508.009	12143.94
508.212	12309.83
508.415	12764.48
508.617	12825.92
508.82	13131.06
509.022	13323.57
509.225	13823.28
509.428	13890.86
509.63	13968.68
509.833	14368.04
510.035	15129.88
510.238	15093.02
510.44	15328.53
510.643	15928.59
510.845	16413.96
511.048	16076.04
511.25	16622.85
511.453	16934.14
511.655	17814.77
511.858	18076.91
512.06	18560.23
512.262	18590.95
512.465	18781.41
512.667	19842.26
512.87	20180.17
513.072	20264.14
513.274	20911.3
513.477	21513.4
513.679	21800.12
513.881	22566.06
514.084	22793.38
514.286	23399.58
514.488	23940.24
514.69	24675.46
514.893	24673.42
515.095	25705.59
515.297	26094.71
515.499	26256.5
515.701	27022.44
515.904	27696.22
516.106	28398.67
516.308	28675.15
516.51	29635.64
516.712	29746.23
516.914	30448.69
517.116	31284.26
517.318	31585.31
517.52	32236.56
517.722	32777.23
517.925	33164.29
518.127	34249.72
518.329	34698.22
518.531	34679.79
518.733	35249.13
518.935	36398.04
519.136	36907.98
519.338	37370.82
519.54	37694.4
519.742	38726.58
519.944	39144.36
520.146	40068
520.348	40119.2
520.55	40831.89
520.752	40862.61
520.954	41937.79
521.155	42021.76
521.357	42767.22
521.559	43484.01
521.761	43713.38
521.963	44079.97
522.164	44786.52
522.366	44796.76
522.568	45251.41
522.77	45730.63
522.971	46363.45
523.173	45783.88
523.375	46584.63
523.576	46535.48
523.778	46908.21
523.98	47041.33
524.181	47463.21
524.383	47657.77
524.584	48165.67
524.786	48014.12
524.988	47872.81
525.189	48048.93
525.391	48218.91
525.592	48294.69
525.794	48339.74
525.995	48028.45
526.197	48296.74
526.398	47686.44
526.6	48046.88
526.801	48155.43
527.003	48186.14
527.204	48010.02
527.406	48294.69
527.607	47676.2
527.808	47272.75
528.01	46566.2
528.211	46723.9
528.412	47348.53
528.614	46201.66
528.815	46041.92
529.016	46216
529.218	45106
529.419	44827.48
529.62	44540.76
529.822	44219.23
530.023	43555.69
530.224	43989.86
530.425	43283.31
530.626	42396.54
530.828	41886.59
531.029	42507.13
531.23	41036.69
531.431	40840.08
531.632	40545.17
531.833	40047.52
532.035	39426.98
532.236	38831.02
532.437	39066.54
532.638	38017.98
532.839	37985.21
533.04	37385.16
533.241	36432.85
533.442	36776.91
533.643	36135.9
533.844	35326.95
534.045	35316.71
534.246	34673.65
534.447	34057.21
534.648	33459.2
534.849	33197.06
535.05	32693.26
535.251	32142.36
535.451	31802.39
535.652	31284.26
535.853	30596.14
536.054	30471.22
536.255	30170.16
536.456	29510.72
536.657	29672.51
536.857	28841.03
537.058	28281.94
537.259	28265.55
537.46	27671.64
537.66	27921.49
537.861	27257.95
538.062	26907.75
538.263	26434.67
538.463	25980.02
538.664	25885.81
538.865	25568.38
539.065	25298.05
539.266	24618.12
539.466	24636.55
539.667	24040.59
539.868	24212.62
540.068	23657.62
540.269	23485.59
540.469	23221.41
540.67	23272.6
540.87	22480.04
541.071	22168.75
541.271	21959.86
541.472	21959.86
541.672	21406.91
541.873	21343.42
542.073	21005.5
542.274	20995.26
542.474	20485.32
542.675	20171.98
542.875	20073.68
543.075	19752.15
543.276	19596.5
543.476	19492.05
543.676	19166.43
543.877	18935.01
544.077	18996.45
544.277	18724.07
544.478	18488.55
544.678	18476.26
544.878	17960.17
545.078	17835.25
545.279	17704.18
545.479	17360.12
545.679	17198.33
545.879	16948.48
546.079	16784.64
546.28	16579.84
546.48	16487.68
546.68	16446.73
546.88	16246.02
547.08	16049.42
547.28	15772.94
547.48	15217.94
547.68	15318.29
547.88	15045.91
548.081	15084.83
548.281	14757.15
548.481	14505.25
548.681	14484.77
548.881	14177.58
549.081	14177.58
549.28	13913.39
549.48	13686.06
549.68	13608.24
549.88	13382.96
550.08	13043
550.28	13069.62
550.48	12948.79
550.68	12594.5
550.88	12416.32
551.08	12207.43
551.279	12209.48
551.479	11849.04
551.679	11625.81
551.879	11529.55
552.079	11472.21
552.278	11244.88
552.478	11275.6
552.678	11009.37
552.878	10790.24
553.077	10595.68
553.277	10255.72
553.477	10368.35
553.676	10149.22
553.876	9887.08
554.076	9911.66
554.275	9674.09
554.475	9399.66
554.674	9282.93
554.874	9035.13
555.074	8781.18
555.273	8809.85
555.473	8996.21
555.672	8580.48
555.872	8377.73
556.071	8265.09
556.271	8459.65
556.47	7986.57
556.67	8033.67
556.869	7900.55
557.068	7624.08
557.268	7564.68
557.467	7503.25
557.667	7507.34
557.866	7241.11
558.065	7140.76
558.265	6981.01
558.464	6677.91
558.663	6786.46
558.863	6735.26
559.062	6604.19
559.261	6481.31
559.461	6507.93
559.66	6167.97
559.859	6157.73
560.058	6004.13
560.258	5791.14
560.457	5807.53
560.656	6008.23
560.855	5662.12
561.054	5641.64
561.253	5459.37
561.453	5502.38
561.652	5432.75
561.851	5240.24
562.05	5127.6
562.249	4900.28
562.448	5066.16
562.647	4865.46
562.846	4836.79
563.045	4863.41
563.244	4738.49
563.443	4847.03
563.642	4576.7
563.841	4447.68
564.04	4531.64
564.239	4423.1
564.438	4326.85
564.637	4234.69
564.836	4216.26
565.035	4117.95
565.234	4128.19
565.432	3980.74
565.631	3990.98
565.83	3950.02
566.029	3761.61
566.228	3790.28
566.427	3876.29
566.625	3567.05
566.824	3591.63
567.023	3567.05
567.222	3440.08
567.42	3356.11
567.619	3378.64
567.818	3390.92
568.016	3454.41
568.215	3311.05
568.414	3354.06
568.612	3243.47
568.811	3028.43
569.01	3231.18
569.208	3102.16
569.407	3075.54
569.605	3007.95
569.804	2866.64
570.002	2880.98
570.201	2784.73
570.4	2868.69
570.598	2674.14
570.797	2698.71
570.995	2573.78
571.193	2751.96
571.392	2567.64
571.59	2543.07
571.789	2655.7
571.987	2526.68
572.186	2543.07
572.384	2516.44
572.582	2332.12
572.781	2452.95
572.979	2188.77
573.177	2194.91
573.376	2297.31
573.574	2299.36
573.772	2174.43
573.971	2063.84
574.169	2020.83
574.367	2145.76
574.565	2053.6
574.763	1906.15
574.962	2035.17
575.16	1990.11
575.358	1924.58
575.556	1947.11
575.754	1979.87
575.952	1895.91
576.151	1820.13
576.349	1891.81
576.547	1705.45
576.745	1738.21
576.943	1791.46
577.141	1709.54
577.339	1633.77
577.537	1615.34
577.735	1629.67
577.933	1742.31
578.131	1535.46
578.329	1639.91
578.527	1461.74
578.725	1453.55
578.923	1355.24
579.121	1455.59
579.319	1375.72
579.516	1316.33
579.714	1478.12
579.912	1306.09
580.11	1267.18
580.308	1285.61
580.506	1312.24
580.704	1107.44
580.901	1289.71
581.099	1447.4
581.297	1111.54
581.495	1261.04
581.692	1097.2
581.89	1353.2
582.088	1033.71
582.285	1113.58
582.483	1070.58
582.681	1064.43
582.878	968.18
583.076	1062.38
583.274	1058.29
583.471	1109.49
583.669	972.27
583.866	1048.05
584.064	982.51
584.262	882.16
584.459	851.44
584.657	1031.66
584.854	1023.47
585.052	957.94
585.249	998.9
585.447	996.85
585.644	806.39
585.841	980.47
586.039	826.87
586.236	935.41
586.434	736.76
586.631	806.39
586.828	894.45
587.026	853.49
587.223	648.69
587.42	638.45
587.618	785.91
587.815	873.97
588.012	878.07
588.21	814.58
588.407	839.16
588.604	712.18
588.801	626.17
588.999	824.82
589.196	779.76
589.393	779.76
589.59	763.38
589.787	695.8
589.984	763.38
590.182	697.85
590.379	706.04
590.576	683.51
590.773	681.46
590.97	652.79
591.167	675.32
591.364	710.13
591.561	640.5
591.758	699.89
591.955	663.03
592.152	658.93
592.349	564.73
592.546	669.17
592.743	593.4
592.94	615.93
593.137	712.18
593.334	632.31
593.531	622.07
593.727	728.56
593.924	593.4
594.121	650.74
594.318	622.07
594.515	658.93
594.712	771.57
594.908	777.72
595.105	589.3
595.302	710.13
595.499	738.8
595.696	812.53
595.892	671.22
596.089	824.82
596.286	671.22
596.482	841.2
596.679	933.36
596.876	708.09
597.072	869.87
597.269	841.2
597.466	841.2
597.662	843.25
597.859	792.05
598.055	1002.99
598.252	882.16
598.448	1082.86
598.645	1101.3
598.841	1123.82
599.038	1224.17
599.234	1283.56
599.431	1236.46
599.627	1244.65
599.824	1291.76
600.02	1220.08
600.217	1279.47
600.413	1451.5
600.609	1455.59
600.806	1830.37
601.002	1644.01
601.198	1691.11
601.395	1770.98
601.591	1803.75
601.787	1875.43
601.984	1990.11
602.18	1945.06
602.376	2039.26
602.572	2166.24
602.769	2293.21
602.965	2250.21
603.161	2389.47
603.357	2469.34
603.553	2590.17
603.75	2567.64
603.946	2717.14
604.142	2940.37
604.338	3053.01
604.534	2997.71
604.73	3089.87
604.926	3050.96
605.122	3503.56
605.318	3423.69
605.514	3626.44
605.71	3624.39
605.906	3657.16
606.102	3743.17
606.298	3978.69
606.494	4048.32
606.69	4261.31
606.886	4339.13
607.082	4251.07
607.278	4455.87
607.474	4709.82
607.67	4830.65
607.866	4629.95
608.062	5025.2
608.257	5062.07
608.453	5184.94
608.649	5504.43
608.845	5547.44
609.041	5545.39
609.236	6006.18
609.432	6049.19
609.628	6243.74
609.824	6290.85
610.019	6405.53
610.215	6716.83
610.411	6882.71
610.606	7019.92
610.802	7161.23
610.998	7421.33
611.193	7671.18
611.389	7712.14
611.584	7933.32
611.78	8097.16
611.976	8351.1
612.171	8676.73
612.367	8650.11
612.562	9067.89
612.758	9151.86
612.953	9192.82
613.149	9665.9
613.344	9805.16
613.539	10151.27
613.735	10587.49
613.93	10929.5
614.126	10902.87
614.321	11330.9
614.517	11806.03
614.712	11984.2
614.907	12205.38
615.103	12387.65
615.298	12791.1
615.493	13305.14
615.688	13440.31
615.884	13974.83
616.079	13968.68
616.274	14624.03
616.47	14994.72
616.665	15320.34
616.86	15471.89
617.055	15955.21
617.25	16391.43
617.445	17038.59
617.641	17167.61
617.836	17900.78
618.031	17798.38
618.226	18588.9
618.421	18724.07
618.616	19483.86
618.811	19490.01
619.006	20499.66
619.201	20597.96
619.396	21075.13
619.591	21347.51
619.786	21978.29
619.981	21949.62
620.176	22998.18
620.371	23235.74
620.566	23856.28
620.761	24321.16
620.956	24824.97
621.151	25013.38
621.346	26131.57
621.541	25902.2
621.735	27057.25
621.93	27010.15
622.125	28083.28
622.32	27714.65
622.515	28787.78
622.709	29258.82
622.904	29570.11
623.099	29991.99
623.294	30391.34
623.488	31081.51
623.683	32017.43
623.878	31685.66
624.072	32795.66
624.267	33242.12
624.462	33520.64
624.656	33731.58
624.851	34755.57
625.046	35077.1
625.24	35572.71
625.435	35853.28
625.629	36776.91
625.824	36735.95
626.018	37544.9
626.213	36897.74
626.407	37948.35
626.602	38247.35
626.796	38781.87
626.991	39302.06
627.185	39607.2
627.38	39521.19
627.574	39920.54
627.768	39705.51
627.963	40264.6
628.157	39631.78
628.352	40307.61
628.546	39852.96
628.74	40514.45
628.935	40070.04
629.129	40321.94
629.323	39566.24
629.517	39398.31
629.712	39183.27
629.906	38808.5
630.1	38226.87
630.294	38251.45
630.489	37802.94
630.683	37381.06
630.877	36285.4
631.071	35871.71
631.265	35369.96
631.459	34151.41
631.653	33416.19
631.848	33000.46
632.042	32087.06
632.236	31538.21
632.43	30356.53
632.624	29750.33
632.818	28513.36
633.012	27634.78
633.206	26971.24
633.4	25975.92
633.594	25062.53
633.788	24241.29
633.982	23760.02
634.176	22658.21
634.369	21662.9
634.563	20690.12
634.757	20010.19
634.951	19143.9
635.145	18478.31
635.339	17816.82
635.533	17290.49
635.726	16796.93
635.92	15668.5
636.114	15146.26
636.308	14456.1
636.501	13823.28
636.695	13352.24
636.889	12815.68
637.083	12408.13
637.276	11695.44
637.47	11269.46
637.664	10827.1
637.857	10450.27
638.051	10128.74
638.244	9614.7
638.438	9190.77
638.632	8803.71
638.825	8340.86
639.019	8277.38
639.212	7783.82
639.406	7634.32
639.599	7282.06
639.793	6991.25
639.986	6798.74
640.18	6378.91
640.373	6129.06
640.567	5868.97
640.76	5793.19
640.954	5465.52
641.147	5244.34
641.34	5006.77
641.534	4965.81
641.727	4810.17
641.92	4603.32
642.114	4332.99
642.307	4269.5
642.5	4169.15
642.694	3780.04
642.887	3659.21
643.08	3679.69
643.273	3597.77
643.467	3364.3
643.66	3171.79
643.853	2995.67
644.046	2866.64
644.239	2794.97
644.432	2680.28
644.626	2518.49
644.819	2471.39
645.012	2379.23
645.205	2457.05
645.398	2293.21
645.591	2186.72
645.784	2108.9
645.977	2033.12
646.17	1932.77
646.363	1918.43
646.556	1723.88
646.749	1584.62
646.942	1711.59
647.135	1680.87
647.328	1590.76
647.521	1539.56
647.714	1271.28
647.907	1332.72
648.099	1230.32
648.292	1304.04
648.485	1105.39
648.678	1164.78
648.871	1140.21
649.064	1027.57
649.256	943.6
649.449	1017.33
649.642	966.13
649.835	941.55
650.027	861.68
650.22	957.94
650.413	812.53
650.605	921.07
650.798	769.52
650.991	742.9
651.183	710.13
651.376	810.48
651.568	681.46
651.761	646.65
651.954	779.76
652.146	650.74
652.339	589.3
652.531	699.89
652.724	591.35
652.916	536.06
653.109	404.99
653.301	605.69
653.494	491
653.686	597.49
653.879	644.6
654.071	517.62
654.263	415.23
654.456	388.6
654.648	525.82
654.84	474.62
655.033	390.65
655.225	464.38
655.417	265.72
655.61	491
655.802	433.66
655.994	511.48
656.186	282.11
656.379	413.18
656.571	275.96
656.763	335.35
656.955	273.92
657.148	325.12
657.34	439.8
657.532	335.35
657.724	259.58
657.916	349.69
658.108	351.74
658.3	402.94
658.492	335.35
658.684	181.76
658.876	323.07
659.068	259.58
659.26	128.51
659.452	235
659.644	271.87
659.836	329.21
660.028	251.39
660.22	179.71
660.412	239.1
660.604	273.92
660.796	181.76
660.988	314.88
661.18	185.85
661.372	298.49
661.563	247.29
661.755	204.28
661.947	198.14
662.139	140.8
662.331	173.57
662.522	204.28
662.714	144.89
662.906	181.76
663.097	148.99
663.289	65.02
663.481	58.88
663.673	167.42
663.864	183.81
664.056	153.09
664.247	114.17
664.439	177.66
664.631	142.85
664.822	192
665.014	169.47
665.205	69.12
665.397	120.32
665.588	204.28
665.78	144.89
665.971	161.28
666.163	58.88
666.354	175.61
666.546	87.55
666.737	71.17
666.929	79.36
667.12	185.85
667.311	163.33
667.503	103.93
667.694	122.37
667.885	144.89
668.077	204.28
668.268	50.69
668.459	187.9
668.651	151.04
668.842	58.88
669.033	75.26
669.224	7.68
669.416	357.88
669.607	-18.94
669.798	108.03
669.989	251.39
670.18	101.89
670.371	181.76
670.563	73.21
670.754	171.52
670.945	198.14
671.136	177.66
671.327	83.45
671.518	165.37
671.709	284.16
671.9	169.47
672.091	179.71
672.282	157.18
672.473	130.56
672.664	65.02
672.855	69.12
673.046	118.27
673.237	243.2
673.428	194.05
673.619	189.95
673.809	58.88
674	169.47
674.191	198.14
674.382	87.55
674.573	130.56
674.764	112.13
674.954	192
675.145	101.89
675.336	42.5
675.527	-10.75
675.717	103.93
675.908	122.37
676.099	67.07
676.289	151.04
676.48	58.88
676.671	132.61
676.861	65.02
677.052	187.9
677.243	118.27
677.433	136.7
677.624	142.85
677.814	173.57
678.005	97.79
678.195	253.44
678.386	3.58
678.576	144.89
678.767	42.5
678.957	138.75
679.148	146.94
679.338	284.16
679.529	140.8
679.719	151.04
679.909	171.52
680.1	110.08
680.29	148.99
680.481	95.74
680.671	175.61
680.861	103.93
681.052	194.05
681.242	101.89
681.432	112.13
681.622	157.18
681.813	97.79
682.003	95.74
682.193	71.17
682.383	124.41
682.573	163.33
682.764	114.17
682.954	173.57
683.144	208.38
683.334	91.65
683.524	161.28
683.714	159.23
683.904	175.61
684.094	167.42
684.284	73.21
684.474	198.14
684.664	235
684.854	122.37
685.044	157.18
685.234	32.26
685.424	251.39
685.614	91.65
685.804	302.59
685.994	267.77
686.184	134.65
686.374	185.85
686.564	97.79
686.753	173.57
686.943	110.08
687.133	134.65
687.323	163.33
687.513	179.71
687.702	105.98
687.892	177.66
688.082	220.67
688.272	161.28
688.461	161.28
688.651	296.44
688.841	185.85
689.03	114.17
689.22	142.85
689.41	175.61
689.599	237.05
689.789	99.84
689.979	300.54
690.168	91.65
690.358	179.71
690.547	126.46
690.737	226.81
690.926	112.13
691.116	185.85
691.305	259.58
691.495	265.72
691.684	15.87
691.874	130.56
692.063	112.13
692.252	298.49
692.442	237.05
692.631	46.59
692.82	71.17
693.01	226.81
693.199	116.22
693.388	171.52
693.578	163.33
693.767	273.92
693.956	142.85
694.146	105.98
694.335	146.94
694.524	136.7
694.713	228.86
694.902	140.8
695.092	103.93
695.281	128.51
695.47	101.89
695.659	118.27
695.848	155.13
696.037	169.47
696.226	210.43
696.415	230.91
696.604	163.33
696.793	337.4
696.982	153.09
697.171	261.63
697.36	79.36
697.549	214.52
697.738	40.45
697.927	108.03
698.116	36.35
698.305	165.37
698.494	175.61
698.683	157.18
698.872	278.01
699.061	146.94
699.25	144.89
699.438	167.42
699.627	136.7
699.816	310.78
700.005	52.74
700.193	171.52
700.382	249.34
700.571	151.04
700.76	251.39
700.948	198.14
701.137	167.42
701.326	130.56
701.514	52.74
701.703	202.24
701.892	214.52
702.08	331.26
702.269	202.24
702.457	165.37
702.646	249.34
702.834	122.37
703.023	312.83
703.212	146.94
703.4	116.22
703.589	136.7
703.777	200.19
703.965	163.33
704.154	120.32
704.342	138.75
704.531	157.18
704.719	97.79
704.907	275.96
705.096	120.32
705.284	62.98
705.472	202.24
705.661	136.7
705.849	114.17
706.037	261.63
706.226	204.28
706.414	226.81
706.602	114.17
706.79	179.71
706.979	110.08
707.167	148.99
707.355	48.64
707.543	206.33
707.731	122.37
707.919	171.52
708.107	97.79
708.296	112.13
708.484	124.41
708.672	171.52
708.86	187.9
709.048	73.21
709.236	56.83
709.424	292.35
709.612	218.62
709.8	87.55
709.988	218.62
710.176	155.13
710.364	259.58
710.551	157.18
710.739	122.37
710.927	151.04
711.115	181.76
711.303	249.34
711.491	200.19
711.679	155.13
711.866	226.81
712.054	122.37
712.242	142.85
712.43	216.57
712.617	114.17
712.805	173.57
712.993	103.93
713.181	138.75
713.368	194.05
713.556	132.61
713.744	142.85
713.931	359.93
714.119	161.28
714.306	175.61
714.494	-4.61
714.682	179.71
714.869	87.55
715.057	204.28
715.244	79.36
715.432	179.71
715.619	142.85
715.807	122.37
715.994	95.74
716.182	130.56
716.369	204.28
716.556	210.43
716.744	136.7
716.931	75.26
717.119	159.23
717.306	189.95
717.493	288.25
717.681	153.09
717.868	163.33
718.055	144.89
718.242	169.47
718.43	208.38
718.617	280.06
718.804	155.13
718.991	278.01
719.179	214.52
719.366	200.19
719.553	208.38
719.74	204.28
719.927	132.61
720.114	249.34
720.301	185.85
720.488	116.22
720.676	114.17
720.863	321.02
721.05	269.82
721.237	177.66
721.424	198.14
721.611	159.23
721.798	28.16
721.985	122.37
722.172	126.46
722.358	171.52
722.545	316.92
722.732	103.93
722.919	235
723.106	226.81
723.293	118.27
723.48	163.33
723.667	136.7
723.853	259.58
724.04	224.76
724.227	296.44
724.414	204.28
724.6	155.13
724.787	280.06
724.974	337.4
725.161	280.06
725.347	-6.66
725.534	226.81
725.72	255.48
725.907	196.09
726.094	222.72
726.28	83.45
726.467	185.85
726.653	163.33
726.84	255.48
727.027	222.72
727.213	99.84
727.4	284.16
727.586	159.23
727.773	138.75
727.959	210.43
728.145	198.14
728.332	93.69
728.518	163.33
728.705	275.96
728.891	185.85
729.077	288.25
729.264	87.55
729.45	130.56
729.636	173.57
729.823	232.96
730.009	261.63
730.195	130.56
730.382	228.86
730.568	153.09
730.754	185.85
730.94	146.94
731.126	204.28
731.313	237.05
731.499	237.05
731.685	232.96
731.871	316.92
732.057	171.52
732.243	214.52
732.429	269.82
732.615	329.21
732.801	179.71
732.987	224.76
733.173	282.11
733.359	173.57
733.545	253.44
733.731	206.33
733.917	312.83
734.103	212.48
734.289	273.92
734.475	140.8
734.661	376.31
734.847	251.39
735.033	183.81
735.219	267.77
735.404	161.28
735.59	241.15
735.776	148.99
735.962	200.19
736.148	228.86
736.333	284.16
736.519	177.66
736.705	200.19
736.89	212.48
737.076	232.96
737.262	165.37
737.447	284.16
737.633	235
737.819	230.91
738.004	278.01
738.19	210.43
738.375	177.66
738.561	259.58
738.747	204.28
738.932	151.04
739.118	331.26
739.303	310.78
739.489	157.18
739.674	155.13
739.859	151.04
740.045	312.83
740.23	224.76
740.416	44.54
740.601	202.24
740.786	163.33
740.972	167.42
741.157	243.2
741.342	167.42
741.528	167.42
741.713	232.96
741.898	153.09
742.084	159.23
742.269	155.13
742.454	302.59
742.639	280.06
742.824	212.48
743.01	337.4
743.195	345.59
743.38	249.34
743.565	245.24
743.75	185.85
743.935	204.28
744.12	251.39
744.305	97.79
744.49	122.37
744.675	243.2
744.86	165.37
745.045	267.77
745.23	146.94
745.415	245.24
745.6	310.78
745.785	124.41
745.97	288.25
746.155	181.76
746.34	237.05
746.525	275.96
746.71	306.68
746.895	83.45
747.079	89.6
747.264	185.85
747.449	220.67
747.634	273.92
747.819	128.51
748.003	128.51
748.188	114.17
748.373	159.23
748.557	210.43
748.742	222.72
748.927	163.33
749.111	128.51
749.296	146.94
749.481	228.86
749.665	235
749.85	140.8
750.034	214.52
750.219	153.09
750.404	71.17
750.588	169.47
750.773	185.85
750.957	187.9
751.141	163.33
751.326	146.94
751.51	60.93
751.695	159.23
751.879	24.06
752.064	273.92
752.248	112.13
752.432	273.92
752.617	189.95
752.801	224.76
752.985	87.55
753.17	153.09
753.354	132.61
753.538	198.14
753.722	146.94
753.907	83.45
754.091	138.75
754.275	159.23
754.459	99.84
754.643	91.65
754.828	187.9
755.012	134.65
755.196	85.5
755.38	138.75
755.564	155.13
755.748	120.32
755.932	155.13
756.116	239.1
756.3	140.8
756.484	128.51
756.668	230.91
756.852	-33.28
757.036	120.32
757.22	175.61
757.404	118.27
757.588	114.17
757.772	65.02
757.956	32.26
758.14	181.76
758.323	99.84
758.507	247.29
758.691	62.98
758.875	251.39
759.059	146.94
759.242	85.5
759.426	52.74
759.61	134.65
759.794	85.5
759.977	157.18
760.161	310.78
760.345	222.72
760.528	181.76
760.712	110.08
760.895	114.17
761.079	36.35
761.263	83.45
761.446	81.41
761.63	69.12
761.813	255.48
761.997	30.21
762.18	83.45
762.364	105.98
762.547	52.74
762.731	85.5
762.914	32.26
763.098	97.79
763.281	7.68
763.464	120.32
763.648	169.47
763.831	93.69
764.015	7.68
764.198	259.58
764.381	62.98
764.564	95.74
764.748	148.99
764.931	120.32
765.114	34.3
765.297	81.41
765.481	56.83
765.664	48.64
765.847	153.09
766.03	269.82
766.213	44.54
766.397	128.51
766.58	-51.71
766.763	75.26
766.946	132.61
767.129	50.69
767.312	-39.42
767.495	77.31
767.678	81.41
767.861	138.75
768.044	128.51
768.227	13.82
768.41	36.35
768.593	87.55
768.776	120.32
768.959	60.93
769.142	155.13
769.324	108.03
769.507	75.26
769.69	69.12
769.873	112.13
770.056	251.39
770.239	60.93
770.421	148.99
770.604	116.22
770.787	95.74
770.97	56.83
771.152	71.17
771.335	122.37
771.518	-35.33
771.7	116.22
771.883	216.57
772.066	71.17
772.248	103.93
772.431	177.66
772.613	95.74
772.796	15.87
772.978	159.23
773.161	173.57
773.343	26.11
773.526	-0.51
773.708	-2.56
773.891	-119.29
774.073	28.16
774.256	34.3
774.438	214.52
774.621	95.74
774.803	153.09
774.985	71.17
775.168	81.41
775.35	5.63
775.532	124.41
775.715	58.88
775.897	144.89
776.079	69.12
776.261	50.69
776.444	91.65
776.626	65.02
776.808	69.12
776.99	1.54
777.173	54.78
777.355	48.64
777.537	24.06
777.719	91.65
777.901	79.36
778.083	54.78
778.265	-61.95
778.447	171.52
778.629	124.41
778.811	36.35
778.993	93.69
779.175	171.52
779.357	50.69
779.539	-61.95
779.721	11.78
779.903	108.03
780.085	-29.18
780.267	85.5
780.449	24.06
780.631	120.32
780.812	103.93
780.994	-0.51
781.176	118.27
781.358	15.87
781.54	36.35
781.721	26.11
781.903	99.84
782.085	-23.04
782.267	169.47
782.448	-51.71
782.63	7.68
782.812	91.65
782.993	46.59
783.175	101.89
783.357	44.54
783.538	58.88
783.72	-6.66
783.901	48.64
784.083	54.78
784.264	136.7
784.446	-0.51
784.627	-98.81
784.809	118.27
784.99	75.26
785.172	185.85
785.353	52.74
785.535	71.17
785.716	34.3
785.897	22.02
786.079	-35.33
786.26	75.26
786.441	54.78
786.623	-61.95
786.804	-49.66
786.985	17.92
787.167	32.26
787.348	-29.18
787.529	95.74
787.71	183.81
787.891	-14.85
788.073	7.68
788.254	-31.23
788.435	148.99
788.616	83.45
788.797	-55.81
788.978	-27.14
789.159	9.73
789.34	103.93
789.522	3.58
789.703	65.02
789.884	67.07
790.065	-12.8
790.246	122.37
790.427	-0.51
790.607	91.65
790.788	185.85
790.969	-96.77
791.15	54.78
791.331	-51.71
791.512	73.21
791.693	40.45
791.874	-14.85
792.054	165.37
792.235	105.98
792.416	-2.56
792.597	17.92
792.778	116.22
792.958	24.06
793.139	65.02
793.32	22.02
793.5	-29.18
793.681	77.31
793.862	28.16
794.042	-43.52
794.223	-61.95
794.404	-14.85
794.584	-59.9
794.765	-14.85
794.945	19.97
795.126	15.87
795.306	87.55
795.487	-4.61
795.667	26.11
795.848	36.35
796.028	-23.04
796.209	32.26
796.389	69.12
796.57	69.12
796.75	-70.14
796.93	-45.57
797.111	-25.09
797.291	32.26
797.471	36.35
797.652	32.26
797.832	-72.19
798.012	85.5
798.192	1.54
798.373	-88.57
798.553	28.16
798.733	73.21
798.913	56.83
799.093	3.58
799.274	42.5
799.454	17.92
799.634	97.79
799.814	67.07
799.994	3.58
800.174	161.28
800.354	-29.18
800.534	-68.09
800.714	60.93
800.894	-29.18
801.074	-45.57
801.254	-49.66
801.434	73.21
801.614	24.06
801.794	-27.14
801.974	1889.76
802.154	44.54
802.334	91.65
802.514	-119.29
802.693	-20.99
802.873	-35.33
803.053	34.3
803.233	105.98
803.413	-107.01
803.592	-57.86
803.772	3.58
803.952	58.88
804.131	-86.53
804.311	124.41
804.491	112.13
804.67	-35.33
804.85	32.26
805.03	13.82
805.209	62.98
805.389	36.35
805.568	-45.57
805.748	-25.09
805.928	38.4
806.107	50.69
806.287	62.98
806.466	101.89
806.646	15.87
806.825	19.97
807.004	-49.66
807.184	73.21
807.363	69.12
807.543	54.78
807.722	-82.43
807.901	81.41
808.081	44.54
808.26	-109.05
808.439	32.26
808.619	9.73
808.798	-59.9
808.977	69.12
809.156	60.93
809.336	19.97
809.515	101.89
809.694	-76.29
809.873	-33.28
810.052	1.54
810.231	136.7
810.411	30.21
810.59	99.84
810.769	11.78
810.948	105.98
811.127	-76.29
811.306	-18.94
811.485	3.58
811.664	159.23
811.843	85.5
812.022	34.3
812.201	-92.67
812.38	-78.33
812.559	-70.14
812.737	50.69
812.916	-98.81
813.095	-31.23
813.274	69.12
813.453	-16.9
813.632	71.17
813.811	77.31
813.989	-76.29
814.168	1.54
814.347	11.78
814.526	58.88
814.704	67.07
814.883	71.17
815.062	3.58
815.24	71.17
815.419	19.97
815.598	48.64
815.776	-203.26
815.955	73.21
816.133	-72.19
816.312	19.97
816.49	-64
816.669	-29.18
816.847	56.83
817.026	44.54
817.204	71.17
817.383	-53.76
817.561	-84.48
817.74	56.83
817.918	91.65
818.097	-61.95
818.275	-59.9
818.453	-4.61
818.632	13.82
818.81	17.92
818.988	-12.8
819.167	34.3
819.345	5.63
819.523	17.92
819.701	-51.71
819.879	36.35
820.058	38.4
820.236	28.16
820.414	-12.8
820.592	-47.62
820.77	128.51
820.948	26.11
821.127	-33.28
821.305	19.97
821.483	-20.99
821.661	130.56
821.839	-49.66
822.017	-35.33
822.195	-72.19
822.373	110.08
822.551	-35.33
822.729	-23.04
822.907	-12.8
823.085	48.64
823.262	7.68
823.44	-47.62
823.618	-47.62
823.796	-27.14
823.974	11.78
824.152	-74.24
824.329	-82.43
824.507	32.26
824.685	65.02
824.863	38.4
825.04	-14.85
825.218	9.73
825.396	26.11
825.574	5.63
825.751	46.59
825.929	79.36
826.107	-131.58
826.284	58.88
826.462	1.54
826.639	3.58
826.817	-64
826.994	15.87
827.172	-35.33
827.349	122.37
827.527	-14.85
827.704	-8.7
827.882	62.98
828.059	17.92
828.237	-72.19
828.414	114.17
828.591	-133.63
828.769	-43.52
828.946	-43.52
829.124	28.16
829.301	134.65
829.478	32.26
829.655	87.55
829.833	36.35
830.01	-84.48
830.187	44.54
830.364	19.97
830.542	67.07
830.719	105.98
830.896	28.16
831.073	13.82
831.25	-6.66
831.427	71.17
831.604	-20.99
831.782	-68.09
831.959	48.64
832.136	-6.66
832.313	56.83
832.49	-43.52
832.667	9.73
832.844	15.87
833.021	62.98
833.198	85.5
833.374	83.45
833.551	103.93
833.728	54.78
833.905	81.41
834.082	-170.49
834.259	93.69
834.436	122.37
834.612	-12.8
834.789	-8.7
834.966	11.78
835.143	71.17
835.319	-74.24
835.496	-4.61
835.673	36.35
835.85	93.69
836.026	32.26
836.203	40.45
836.38	-72.19
836.556	-20.99
836.733	-18.94
836.909	175.61
837.086	44.54
837.262	-80.38
837.439	11.78
837.616	-41.47
837.792	-18.94
837.968	62.98
838.145	-123.39
838.321	-8.7
838.498	5.63
838.674	103.93
838.851	15.87
839.027	22.02
839.203	71.17
839.38	-41.47
839.556	9.73
839.732	13.82
839.909	-33.28
840.085	11.78
840.261	-53.76
840.437	9.73
840.614	46.59
840.79	65.02
840.966	97.79
841.142	-4.61
841.318	-59.9
841.494	24.06
841.671	24.06
841.847	-16.9
842.023	-84.48
842.199	50.69
842.375	128.51
842.551	-41.47
842.727	26.11
842.903	128.51
843.079	-109.05
843.255	71.17
843.431	11.78
843.607	26.11
843.783	-121.34
843.959	38.4
844.134	-53.76
844.31	87.55
844.486	-41.47
844.662	-14.85
844.838	11.78
845.013	34.3
845.189	116.22
845.365	50.69
845.541	-14.85
845.716	77.31
845.892	46.59
846.068	-27.14
846.244	-94.72
846.419	116.22
846.595	-92.67
846.77	-74.24
846.946	62.98
847.122	19.97
847.297	-18.94
847.473	144.89
847.648	-29.18
847.824	17.92
847.999	11.78
848.175	-18.94
848.35	28.16
848.526	99.84
848.701	87.55
848.876	69.12
849.052	105.98
849.227	44.54
849.403	-6.66
849.578	-8.7
849.753	54.78
849.929	52.74
850.104	-39.42
850.279	75.26
850.454	54.78
850.63	97.79
850.805	73.21
850.98	11.78
851.155	11.78
851.33	3.58
851.505	-104.96
851.681	140.8
851.856	-78.33
852.031	73.21
852.206	44.54
852.381	-61.95
852.556	-25.09
852.731	54.78
852.906	75.26
853.081	13.82
853.256	83.45
853.431	13.82
853.606	62.98
853.781	-4.61
853.956	-59.9
854.131	42.5
854.305	-104.96
854.48	26.11
854.655	-51.71
854.83	-96.77
855.005	15.87
855.18	79.36
855.354	-68.09
855.529	3.58
855.704	-12.8
855.879	22.02
856.053	-88.57
856.228	17.92
856.403	-45.57
856.577	-29.18
856.752	-111.1
856.926	24.06
857.101	9.73
857.276	-47.62
857.45	-25.09
857.625	89.6
857.799	62.98
857.974	42.5
858.148	-150.01
858.323	22.02
858.497	-4.61
858.672	-53.76
858.846	-115.2
859.02	77.31
859.195	-68.09
859.369	-10.75
859.543	28.16
859.718	-47.62
859.892	124.41
860.066	48.64
860.241	-96.77
860.415	26.11
860.589	-6.66
860.763	24.06
860.938	-31.23
861.112	5.63
861.286	-43.52
861.46	24.06
861.634	77.31
861.808	108.03
861.982	3.58
862.157	-129.53
862.331	38.4
862.505	-141.82
862.679	-125.44
862.853	-119.29
863.027	-96.77
863.201	159.23
863.375	-23.04
863.549	81.41
863.722	7.68
863.896	116.22
864.07	-80.38
864.244	-27.14
864.418	85.5
864.592	-12.8
864.766	-43.52
864.939	11.78
865.113	-18.94
865.287	165.37
865.461	-76.29
865.634	-41.47
865.808	-61.95
865.982	-59.9
866.156	26.11
866.329	-86.53
866.503	71.17
866.676	110.08
866.85	83.45
867.024	-45.57
867.197	48.64
867.371	38.4
867.544	-12.8
867.718	-107.01
867.891	50.69
868.065	-113.15
868.238	32.26
868.412	132.61
868.585	24.06
868.759	-6.66
868.932	-23.04
869.105	-18.94
869.279	9.73
869.452	-53.76
869.625	30.21
869.799	-61.95
869.972	-90.62
870.145	-57.86
870.319	103.93
870.492	-59.9
870.665	-25.09
870.838	-2.56
871.011	-104.96
871.185	-8.7
871.358	-43.52
871.531	-8.7
871.704	28.16
871.877	-35.33
872.05	-10.75
872.223	-86.53
872.396	46.59
872.569	71.17
872.742	-104.96
872.915	36.35
873.088	67.07
873.261	-20.99
873.434	42.5
873.607	9.73
873.78	19.97
873.953	-143.87
874.126	52.74
874.299	44.54
874.471	-107.01
874.644	36.35
874.817	46.59
874.99	132.61
875.163	-29.18
875.335	3.58
875.508	-55.81
875.681	99.84
875.853	42.5
876.026	69.12
876.199	103.93
876.371	50.69
876.544	-70.14
876.717	11.78
876.889	-88.57
877.062	103.93
877.234	-80.38
877.407	-80.38
877.579	17.92
877.752	28.16
877.924	-12.8
878.097	50.69
878.269	42.5
878.442	11.78
878.614	24.06
878.786	17.92
878.959	28.16
879.131	28.16
879.303	-117.25
879.476	-33.28
879.648	-47.62
879.82	48.64
879.993	-49.66
880.165	38.4
880.337	-14.85
880.509	-4.61
880.681	-154.11
880.854	56.83
881.026	30.21
881.198	118.27
881.37	-20.99
881.542	-4.61
881.714	-29.18
881.886	-20.99
882.058	9.73
882.23	56.83
882.402	-74.24
882.574	40.45
882.746	36.35
882.918	46.59
883.09	-10.75
883.262	-39.42
883.434	24.06
883.606	-98.81
883.778	-18.94
883.95	73.21
884.122	-25.09
884.293	105.98
884.465	3.58
884.637	-27.14
884.809	-68.09
884.98	-6.66
885.152	48.64
885.324	67.07
885.496	-57.86
885.667	-8.7
885.839	-123.39
886.011	85.5
886.182	46.59
886.354	65.02
886.525	-0.51
886.697	110.08
886.869	-61.95
887.04	15.87
887.212	108.03
887.383	120.32
887.555	79.36
887.726	-80.38
887.897	-39.42
888.069	-64
888.24	56.83
888.412	5.63
888.583	-12.8
888.754	3.58
888.926	-121.34
889.097	15.87
889.268	-137.73
889.44	15.87
889.611	-94.72
889.782	-27.14
889.953	26.11
890.125	26.11
890.296	-70.14
890.467	-66.05
890.638	-43.52
890.809	11.78
890.98	-23.04
891.151	5.63
891.323	40.45
891.494	-76.29
891.665	-41.47
891.836	-8.7
892.007	26.11
892.178	1.54
892.349	-2.56
892.52	-96.77
892.691	-12.8
892.862	19.97
893.032	-100.86
893.203	-27.14
893.374	22.02
893.545	9.73
893.716	-27.14
893.887	54.78
894.057	-27.14
894.228	5.63
894.399	-53.76
894.57	95.74
894.74	32.26
894.911	75.26
895.082	13.82
895.253	-53.76
895.423	1.54
895.594	26.11
895.764	56.83
895.935	-35.33
896.106	60.93
896.276	-61.95
896.447	-10.75
896.617	-86.53
896.788	-76.29
896.958	15.87
897.129	11.78
897.299	-53.76
897.47	142.85
897.64	134.65
897.81	3.58
897.981	26.11
898.151	-27.14
898.322	54.78
898.492	-18.94
898.662	-59.9
898.832	-125.44
899.003	-92.67
899.173	58.88
899.343	-70.14
899.513	-33.28
