Data from USB4F104151__69__10-44-01-872.txt Node

Date: Wed Feb 26 10:44:01 EST 2025
User: louis
Spectrometer: USB4F10415
Trigger mode: 4
Integration Time (sec): 1.000000E-1
Scans to average: 1
Electric dark correction enabled: true
Nonlinearity correction enabled: false
Boxcar width: 0
XAxis mode: Wavelengths
Number of Pixels in Spectrum: 3648
>>>>>Begin Spectral Data<<<<<
178.204	-436.39
178.424	-436.39
178.644	-436.39
178.864	-417.96
179.084	-436.39
179.304	-4.27
179.524	-4.27
179.744	16.21
179.964	46.93
180.184	-2.22
180.404	42.84
180.624	-26.79
180.844	55.12
181.064	-51.37
181.283	1.88
181.503	-90.28
181.723	16.21
181.943	-135.34
182.163	175.95
182.383	-43.18
182.602	75.6
182.822	114.52
183.042	-0.17
183.262	-86.19
183.482	28.5
183.701	14.17
183.921	67.41
184.141	-39.08
184.361	116.56
184.58	91.99
184.8	63.32
185.02	12.12
185.239	91.99
185.459	28.5
185.679	182.1
185.898	-55.47
186.118	44.88
186.338	-26.79
186.557	126.8
186.777	-37.03
186.997	-8.36
187.216	-77.99
187.436	206.67
187.655	79.7
187.875	108.37
188.095	75.6
188.314	141.14
188.534	212.82
188.753	-61.61
188.973	208.72
189.192	79.7
189.412	69.46
189.631	20.31
189.851	65.36
190.07	155.47
190.29	-67.75
190.509	5.97
190.729	59.22
190.948	71.51
191.168	223.06
191.387	126.8
191.607	46.93
191.826	91.99
192.045	57.17
192.265	3.93
192.484	120.66
192.704	28.5
192.923	12.12
193.142	130.9
193.362	63.32
193.581	218.96
193.8	143.19
194.02	46.93
194.239	3.93
194.458	26.45
194.678	-28.84
194.897	-24.75
195.116	100.18
195.335	32.6
195.555	73.56
195.774	100.18
195.993	104.28
196.212	67.41
196.432	79.7
196.651	-32.94
196.87	63.32
197.089	229.2
197.308	112.47
197.528	98.13
197.747	-55.47
197.966	28.5
198.185	114.52
198.404	-37.03
198.623	91.99
198.842	130.9
199.062	120.66
199.281	14.17
199.5	108.37
199.719	114.52
199.938	87.89
200.157	71.51
200.376	110.42
200.595	106.32
200.814	48.98
201.033	-30.89
201.252	108.37
201.471	59.22
201.69	77.65
201.909	61.27
202.128	139.09
202.347	118.61
202.566	-0.17
202.785	-92.33
203.004	1.88
203.223	182.1
203.442	57.17
203.661	81.75
203.879	128.85
204.098	100.18
204.317	-28.84
204.536	102.23
204.755	89.94
204.974	30.55
205.193	63.32
205.411	100.18
205.63	24.4
205.849	67.41
206.068	69.46
206.287	-22.7
206.505	122.71
206.724	112.47
206.943	-30.89
207.162	22.36
207.381	118.61
207.599	44.88
207.818	55.12
208.037	-53.42
208.255	51.03
208.474	32.6
208.693	77.65
208.911	-28.84
209.13	71.51
209.349	48.98
209.567	112.47
209.786	63.32
210.005	96.08
210.223	1.88
210.442	-125.1
210.661	53.08
210.879	42.84
211.098	30.55
211.316	20.31
211.535	124.76
211.753	77.65
211.972	147.28
212.191	5.97
212.409	85.84
212.628	149.33
212.846	53.08
213.065	16.21
213.283	118.61
213.502	38.74
213.72	67.41
213.938	67.41
214.157	51.03
214.375	204.63
214.594	26.45
214.812	104.28
215.031	-12.46
215.249	3.93
215.467	91.99
215.686	-2.22
215.904	77.65
216.122	69.46
216.341	141.14
216.559	69.46
216.778	128.85
216.996	223.06
217.214	14.17
217.432	69.46
217.651	-45.23
217.869	40.79
218.087	59.22
218.306	8.02
218.524	26.45
218.742	10.07
218.96	85.84
219.179	63.32
219.397	14.17
219.615	239.44
219.833	114.52
220.051	-53.42
220.27	167.76
220.488	42.84
220.706	96.08
220.924	5.97
221.142	-2.22
221.36	61.27
221.578	42.84
221.796	22.36
222.015	67.41
222.233	48.98
222.451	104.28
222.669	-16.55
222.887	161.62
223.105	1.88
223.323	26.45
223.541	-45.23
223.759	145.24
223.977	57.17
224.195	128.85
224.413	79.7
224.631	26.45
224.849	55.12
225.067	171.86
225.285	5.97
225.503	12.12
225.721	-28.84
225.939	114.52
226.157	91.99
226.375	290.64
226.592	8.02
226.81	14.17
227.028	77.65
227.246	171.86
227.464	132.95
227.682	108.37
227.9	42.84
228.117	18.26
228.335	155.47
228.553	40.79
228.771	24.4
228.989	112.47
229.206	65.36
229.424	-18.6
229.642	3.93
229.86	42.84
230.077	255.83
230.295	36.69
230.513	91.99
230.731	91.99
230.948	120.66
231.166	214.87
231.384	51.03
231.601	51.03
231.819	190.29
232.037	69.46
232.254	-82.09
232.472	24.4
232.689	24.4
232.907	165.71
233.125	-67.75
233.342	-77.99
233.56	-12.46
233.777	36.69
233.995	36.69
234.213	87.89
234.43	87.89
234.648	-18.6
234.865	-26.79
235.083	69.46
235.3	96.08
235.518	130.9
235.735	151.38
235.953	77.65
236.17	100.18
236.388	-61.61
236.605	89.94
236.822	61.27
237.04	163.67
237.257	-0.17
237.475	-47.27
237.692	73.56
237.909	67.41
238.127	14.17
238.344	24.4
238.562	91.99
238.779	-26.79
238.996	18.26
239.214	67.41
239.431	46.93
239.648	1.88
239.865	79.7
240.083	100.18
240.3	-61.61
240.517	-34.99
240.735	42.84
240.952	100.18
241.169	12.12
241.386	91.99
241.603	28.5
241.821	-61.61
242.038	55.12
242.255	83.8
242.472	-71.85
242.689	42.84
242.907	104.28
243.124	-24.75
243.341	61.27
243.558	-22.7
243.775	-14.51
243.992	-34.99
244.209	104.28
244.426	204.63
244.643	3.93
244.86	-20.65
245.078	83.8
245.295	83.8
245.512	-39.08
245.729	28.5
245.946	36.69
246.163	110.42
246.38	26.45
246.597	106.32
246.814	57.17
247.031	1.88
247.248	42.84
247.464	102.23
247.681	18.26
247.898	44.88
248.115	110.42
248.332	12.12
248.549	53.08
248.766	194.39
248.983	151.38
249.2	112.47
249.417	44.88
249.633	-18.6
249.85	96.08
250.067	73.56
250.284	20.31
250.501	44.88
250.717	83.8
250.934	-49.32
251.151	24.4
251.368	-2.22
251.585	55.12
251.801	91.99
252.018	-98.47
252.235	102.23
252.451	-71.85
252.668	71.51
252.885	53.08
253.102	110.42
253.318	38.74
253.535	-6.31
253.752	20.31
253.968	-28.84
254.185	-53.42
254.401	28.5
254.618	46.93
254.835	12.12
255.051	59.22
255.268	69.46
255.484	81.75
255.701	36.69
255.917	98.13
256.134	32.6
256.351	3.93
256.567	-34.99
256.784	59.22
257	-112.81
257.217	132.95
257.433	141.14
257.65	48.98
257.866	163.67
258.082	-28.84
258.299	22.36
258.515	38.74
258.732	59.22
258.948	-0.17
259.165	147.28
259.381	1.88
259.597	87.89
259.814	-10.41
260.03	-34.99
260.246	3.93
260.463	100.18
260.679	112.47
260.895	36.69
261.112	18.26
261.328	26.45
261.544	8.02
261.761	135
261.977	-4.27
262.193	-18.6
262.409	81.75
262.626	120.66
262.842	10.07
263.058	-24.75
263.274	96.08
263.49	34.64
263.707	42.84
263.923	122.71
264.139	-26.79
264.355	94.04
264.571	71.51
264.787	79.7
265.004	108.37
265.22	8.02
265.436	40.79
265.652	12.12
265.868	12.12
266.084	-39.08
266.3	55.12
266.516	-10.41
266.732	26.45
266.948	79.7
267.164	30.55
267.38	73.56
267.596	132.95
267.812	212.82
268.028	53.08
268.244	3.93
268.46	135
268.676	-14.51
268.892	96.08
269.108	5.97
269.324	-10.41
269.54	-55.47
269.756	69.46
269.972	-12.46
270.188	28.5
270.403	8.02
270.619	65.36
270.835	34.64
271.051	91.99
271.267	-39.08
271.483	-32.94
271.698	100.18
271.914	89.94
272.13	61.27
272.346	30.55
272.562	91.99
272.777	141.14
272.993	5.97
273.209	55.12
273.425	147.28
273.64	-4.27
273.856	81.75
274.072	48.98
274.287	-73.9
274.503	96.08
274.719	120.66
274.934	20.31
275.15	22.36
275.366	87.89
275.581	-28.84
275.797	3.93
276.012	104.28
276.228	30.55
276.444	57.17
276.659	85.84
276.875	-47.27
277.09	96.08
277.306	10.07
277.521	91.99
277.737	-2.22
277.952	67.41
278.168	26.45
278.383	-51.37
278.599	153.43
278.814	145.24
279.03	48.98
279.245	163.67
279.461	36.69
279.676	104.28
279.892	-18.6
280.107	-8.36
280.322	30.55
280.538	34.64
280.753	67.41
280.969	14.17
281.184	-10.41
281.399	141.14
281.615	59.22
281.83	96.08
282.045	-0.17
282.26	-2.22
282.476	71.51
282.691	14.17
282.906	51.03
283.122	71.51
283.337	-16.55
283.552	57.17
283.767	20.31
283.983	57.17
284.198	69.46
284.413	12.12
284.628	-37.03
284.843	91.99
285.058	10.07
285.274	28.5
285.489	-26.79
285.704	139.09
285.919	38.74
286.134	34.64
286.349	71.51
286.564	16.21
286.779	190.29
286.995	-28.84
287.21	-32.94
287.425	118.61
287.64	22.36
287.855	112.47
288.07	10.07
288.285	194.39
288.5	77.65
288.715	61.27
288.93	-14.51
289.145	-30.89
289.36	77.65
289.575	-6.31
289.79	159.57
290.004	16.21
290.219	147.28
290.434	20.31
290.649	-30.89
290.864	-75.95
291.079	77.65
291.294	59.22
291.509	91.99
291.724	53.08
291.938	67.41
292.153	73.56
292.368	-4.27
292.583	36.69
292.798	16.21
293.012	67.41
293.227	145.24
293.442	38.74
293.657	91.99
293.871	106.32
294.086	34.64
294.301	243.54
294.516	153.43
294.73	-12.46
294.945	-16.55
295.16	-2.22
295.374	124.76
295.589	145.24
295.804	63.32
296.018	24.4
296.233	130.9
296.447	110.42
296.662	-67.75
296.877	104.28
297.091	135
297.306	18.26
297.52	24.4
297.735	22.36
297.949	67.41
298.164	1.88
298.378	116.56
298.593	-69.8
298.807	-4.27
299.022	73.56
299.236	141.14
299.451	-14.51
299.665	1.88
299.88	40.79
300.094	53.08
300.309	8.02
300.523	3.93
300.737	30.55
300.952	83.8
301.166	81.75
301.381	-75.95
301.595	-47.27
301.809	106.32
302.024	20.31
302.238	-100.52
302.452	40.79
302.667	96.08
302.881	81.75
303.095	151.38
303.309	16.21
303.524	16.21
303.738	38.74
303.952	55.12
304.166	85.84
304.381	-63.66
304.595	124.76
304.809	-0.17
305.023	-43.18
305.237	57.17
305.452	3.93
305.666	120.66
305.88	110.42
306.094	57.17
306.308	85.84
306.522	71.51
306.736	26.45
306.95	57.17
307.164	-22.7
307.379	5.97
307.593	24.4
307.807	184.15
308.021	91.99
308.235	110.42
308.449	-12.46
308.663	40.79
308.877	167.76
309.091	104.28
309.305	85.84
309.519	-137.38
309.733	151.38
309.947	-14.51
310.161	75.6
310.374	57.17
310.588	165.71
310.802	20.31
311.016	30.55
311.23	161.62
311.444	-30.89
311.658	34.64
311.872	61.27
312.085	184.15
312.299	130.9
312.513	169.81
312.727	65.36
312.941	-10.41
313.154	132.95
313.368	38.74
313.582	57.17
313.796	71.51
314.009	51.03
314.223	91.99
314.437	83.8
314.651	128.85
314.864	26.45
315.078	-12.46
315.292	-16.55
315.505	42.84
315.719	55.12
315.933	120.66
316.146	-6.31
316.36	18.26
316.573	98.13
316.787	53.08
317.001	118.61
317.214	-61.61
317.428	51.03
317.641	59.22
317.855	57.17
318.068	79.7
318.282	20.31
318.495	167.76
318.709	65.36
318.922	18.26
319.136	112.47
319.349	61.27
319.563	10.07
319.776	81.75
319.99	-14.51
320.203	91.99
320.417	44.88
320.63	116.56
320.843	178
321.057	81.75
321.27	30.55
321.483	44.88
321.697	184.15
321.91	28.5
322.124	14.17
322.337	100.18
322.55	-32.94
322.763	46.93
322.977	1.88
323.19	42.84
323.403	73.56
323.617	96.08
323.83	61.27
324.043	-8.36
324.256	18.26
324.469	-47.27
324.683	63.32
324.896	-6.31
325.109	48.98
325.322	-43.18
325.535	73.56
325.748	81.75
325.962	-2.22
326.175	-2.22
326.388	65.36
326.601	124.76
326.814	44.88
327.027	83.8
327.24	153.43
327.453	-77.99
327.666	139.09
327.879	212.82
328.092	132.95
328.305	57.17
328.518	5.97
328.731	16.21
328.944	-26.79
329.157	169.81
329.37	-12.46
329.583	149.33
329.796	128.85
330.009	-26.79
330.222	108.37
330.435	75.6
330.648	-18.6
330.861	75.6
331.073	3.93
331.286	91.99
331.499	53.08
331.712	-57.51
331.925	8.02
332.138	12.12
332.35	132.95
332.563	28.5
332.776	124.76
332.989	38.74
333.202	24.4
333.414	34.64
333.627	16.21
333.84	28.5
334.053	87.89
334.265	10.07
334.478	87.89
334.691	-0.17
334.903	53.08
335.116	73.56
335.329	16.21
335.541	83.8
335.754	202.58
335.966	63.32
336.179	-53.42
336.392	-37.03
336.604	32.6
336.817	139.09
337.029	55.12
337.242	14.17
337.454	5.97
337.667	-14.51
337.88	139.09
338.092	46.93
338.305	22.36
338.517	10.07
338.729	73.56
338.942	124.76
339.154	-2.22
339.367	-16.55
339.579	106.32
339.792	42.84
340.004	8.02
340.217	94.04
340.429	114.52
340.641	-24.75
340.854	-49.32
341.066	61.27
341.278	229.2
341.491	143.19
341.703	32.6
341.915	-4.27
342.128	91.99
342.34	79.7
342.552	-39.08
342.764	24.4
342.977	26.45
343.189	14.17
343.401	22.36
343.613	28.5
343.826	12.12
344.038	-22.7
344.25	8.02
344.462	14.17
344.674	-8.36
344.886	38.74
345.099	98.13
345.311	104.28
345.523	-0.17
345.735	-49.32
345.947	28.5
346.159	106.32
346.371	65.36
346.583	-24.75
346.795	175.95
347.007	5.97
347.219	81.75
347.431	71.51
347.643	147.28
347.855	-73.9
348.067	145.24
348.279	-16.55
348.491	-24.75
348.703	14.17
348.915	-43.18
349.127	36.69
349.339	71.51
349.551	1.88
349.763	24.4
349.975	55.12
350.187	120.66
350.399	67.41
350.61	61.27
350.822	96.08
351.034	14.17
351.246	83.8
351.458	110.42
351.669	79.7
351.881	137.04
352.093	139.09
352.305	81.75
352.517	42.84
352.728	112.47
352.94	108.37
353.152	122.71
353.363	-47.27
353.575	116.56
353.787	85.84
353.999	65.36
354.21	143.19
354.422	-0.17
354.633	42.84
354.845	139.09
355.057	65.36
355.268	34.64
355.48	71.51
355.692	20.31
355.903	106.32
356.115	-47.27
356.326	-53.42
356.538	100.18
356.749	61.27
356.961	145.24
357.172	118.61
357.384	-39.08
357.595	173.91
357.807	116.56
358.018	14.17
358.23	36.69
358.441	188.24
358.653	163.67
358.864	61.27
359.075	3.93
359.287	34.64
359.498	155.47
359.709	128.85
359.921	83.8
360.132	120.66
360.344	32.6
360.555	-49.32
360.766	57.17
360.977	34.64
361.189	100.18
361.4	38.74
361.611	255.83
361.823	157.52
362.034	124.76
362.245	-4.27
362.456	-22.7
362.667	124.76
362.879	-0.17
363.09	26.45
363.301	87.89
363.512	104.28
363.723	34.64
363.935	30.55
364.146	122.71
364.357	-18.6
364.568	173.91
364.779	-18.6
364.99	126.8
365.201	3.93
365.412	104.28
365.623	-86.19
365.834	135
366.045	94.04
366.256	137.04
366.467	87.89
366.678	16.21
366.889	71.51
367.1	24.4
367.311	34.64
367.522	-26.79
367.733	57.17
367.944	18.26
368.155	63.32
368.366	106.32
368.577	96.08
368.788	122.71
368.999	-43.18
369.209	22.36
369.42	169.81
369.631	208.72
369.842	120.66
370.053	26.45
370.264	46.93
370.474	-71.85
370.685	-18.6
370.896	38.74
371.107	112.47
371.317	57.17
371.528	-34.99
371.739	124.76
371.95	79.7
372.16	40.79
372.371	-63.66
372.582	-20.65
372.792	77.65
373.003	112.47
373.214	14.17
373.424	106.32
373.635	-61.61
373.846	190.29
374.056	96.08
374.267	137.04
374.477	-4.27
374.688	28.5
374.898	75.6
375.109	48.98
375.319	124.76
375.53	137.04
375.74	26.45
375.951	-28.84
376.161	124.76
376.372	182.1
376.582	83.8
376.793	14.17
377.003	-32.94
377.214	22.36
377.424	63.32
377.635	24.4
377.845	8.02
378.055	188.24
378.266	-26.79
378.476	67.41
378.686	89.94
378.897	143.19
379.107	161.62
379.317	112.47
379.528	-8.36
379.738	40.79
379.948	18.26
380.158	87.89
380.369	-30.89
380.579	104.28
380.789	22.36
380.999	116.56
381.21	130.9
381.42	132.95
381.63	57.17
381.84	102.23
382.05	73.56
382.261	116.56
382.471	61.27
382.681	-26.79
382.891	218.96
383.101	77.65
383.311	-39.08
383.521	26.45
383.731	94.04
383.941	122.71
384.151	-6.31
384.361	34.64
384.571	139.09
384.781	22.36
384.991	145.24
385.201	255.83
385.411	57.17
385.621	67.41
385.831	30.55
386.041	59.22
386.251	46.93
386.461	10.07
386.671	77.65
386.881	79.7
387.091	59.22
387.301	112.47
387.511	55.12
387.72	55.12
387.93	126.8
388.14	-20.65
388.35	14.17
388.56	112.47
388.769	102.23
388.979	-22.7
389.189	61.27
389.399	153.43
389.609	83.8
389.818	89.94
390.028	-41.13
390.238	12.12
390.447	-0.17
390.657	59.22
390.867	65.36
391.076	-133.29
391.286	65.36
391.496	75.6
391.705	112.47
391.915	106.32
392.125	124.76
392.334	34.64
392.544	163.67
392.753	-22.7
392.963	51.03
393.172	85.84
393.382	3.93
393.591	229.2
393.801	14.17
394.01	149.33
394.22	87.89
394.429	81.75
394.639	59.22
394.848	137.04
395.058	106.32
395.267	75.6
395.477	120.66
395.686	83.8
395.895	182.1
396.105	212.82
396.314	42.84
396.524	36.69
396.733	12.12
396.942	116.56
397.152	91.99
397.361	116.56
397.57	57.17
397.78	61.27
397.989	36.69
398.198	282.45
398.407	-12.46
398.617	32.6
398.826	24.4
399.035	-0.17
399.244	169.81
399.453	40.79
399.663	-22.7
399.872	139.09
400.081	10.07
400.29	128.85
400.499	-28.84
400.708	132.95
400.917	-22.7
401.127	-49.32
401.336	63.32
401.545	198.48
401.754	153.43
401.963	100.18
402.172	87.89
402.381	-12.46
402.59	30.55
402.799	-28.84
403.008	130.9
403.217	36.69
403.426	102.23
403.635	-53.42
403.844	59.22
404.053	-6.31
404.262	16.21
404.471	216.91
404.68	77.65
404.888	98.13
405.097	-14.51
405.306	98.13
405.515	153.43
405.724	-6.31
405.933	151.38
406.142	94.04
406.35	139.09
406.559	8.02
406.768	8.02
406.977	126.8
407.185	83.8
407.394	100.18
407.603	-26.79
407.812	87.89
408.02	141.14
408.229	65.36
408.438	120.66
408.646	3.93
408.855	59.22
409.064	91.99
409.272	46.93
409.481	96.08
409.69	5.97
409.898	-75.95
410.107	118.61
410.315	180.05
410.524	34.64
410.733	44.88
410.941	104.28
411.15	102.23
411.358	57.17
411.567	137.04
411.775	1.88
411.984	26.45
412.192	114.52
412.401	14.17
412.609	169.81
412.818	157.52
413.026	124.76
413.234	18.26
413.443	51.03
413.651	-20.65
413.86	81.75
414.068	114.52
414.276	118.61
414.485	-75.95
414.693	167.76
414.901	272.21
415.11	30.55
415.318	98.13
415.526	51.03
415.734	116.56
415.943	83.8
416.151	173.91
416.359	83.8
416.567	106.32
416.776	61.27
416.984	63.32
417.192	192.34
417.4	12.12
417.608	26.45
417.817	85.84
418.025	108.37
418.233	249.68
418.441	100.18
418.649	-8.36
418.857	98.13
419.065	122.71
419.273	34.64
419.481	20.31
419.689	26.45
419.897	-55.47
420.105	-63.66
420.313	79.7
420.521	120.66
420.729	143.19
420.937	57.17
421.145	44.88
421.353	110.42
421.561	89.94
421.769	85.84
421.977	32.6
422.185	128.85
422.393	61.27
422.601	149.33
422.809	8.02
423.017	26.45
423.224	91.99
423.432	120.66
423.64	53.08
423.848	212.82
424.056	5.97
424.263	94.04
424.471	34.64
424.679	196.43
424.887	26.45
425.094	87.89
425.302	32.6
425.51	81.75
425.718	137.04
425.925	73.56
426.133	38.74
426.341	175.95
426.548	-4.27
426.756	-37.03
426.964	188.24
427.171	94.04
427.379	120.66
427.586	81.75
427.794	159.57
428.001	130.9
428.209	102.23
428.417	169.81
428.624	141.14
428.832	135
429.039	59.22
429.247	108.37
429.454	167.76
429.662	251.73
429.869	145.24
430.076	44.88
430.284	110.42
430.491	124.76
430.699	182.1
430.906	175.95
431.114	102.23
431.321	118.61
431.528	147.28
431.736	210.77
431.943	116.56
432.15	216.91
432.358	268.11
432.565	251.73
432.772	-41.13
432.979	218.96
433.187	139.09
433.394	259.92
433.601	28.5
433.808	214.87
434.016	216.91
434.223	231.25
434.43	251.73
434.637	294.74
434.844	315.22
435.052	198.48
435.259	255.83
435.466	294.74
435.673	280.4
435.88	247.63
436.087	300.88
436.294	304.98
436.501	335.7
436.708	300.88
436.915	253.78
437.122	423.76
437.329	149.33
437.537	350.03
437.743	335.7
437.95	405.33
438.157	280.4
438.364	296.78
438.571	376.66
438.778	321.36
438.985	434
439.192	522.06
439.399	427.85
439.606	429.9
439.813	440.14
440.02	663.37
440.227	663.37
440.433	491.34
440.64	538.45
440.847	456.53
441.054	585.55
441.261	679.75
441.467	599.88
441.674	546.64
441.881	702.28
442.088	614.22
442.294	612.17
442.501	708.43
442.708	737.1
442.914	724.81
443.121	798.54
443.328	806.73
443.534	966.47
443.741	841.54
443.948	714.57
444.154	941.89
444.361	1032.01
444.568	917.32
444.774	1048.39
444.981	886.6
445.187	1136.45
445.394	1011.53
445.6	1013.57
445.807	1265.47
446.013	1277.76
446.22	1150.79
446.426	1343.3
446.633	1423.17
446.839	1574.72
447.046	1253.19
447.252	1552.19
447.459	1554.24
447.665	1611.58
447.871	1732.41
448.078	1750.84
448.284	1718.08
448.491	1873.72
448.697	1922.87
448.903	2027.32
449.11	1920.82
449.316	1974.07
449.522	2225.97
449.728	2234.16
449.935	2410.29
450.141	2377.52
450.347	2565.93
450.553	2453.3
450.76	2625.33
450.966	2664.24
451.172	2697
451.378	2909.99
451.584	2924.33
451.791	3163.94
451.997	3270.44
452.203	3319.59
452.409	3481.38
452.615	3620.64
452.821	3516.19
453.027	3649.31
453.233	4048.66
453.44	3821.34
453.646	4032.28
453.852	4230.93
454.058	4476.69
454.264	4581.14
454.47	4820.75
454.676	4777.74
454.882	5267.2
455.088	5041.93
455.294	5314.31
455.5	5865.21
455.705	6088.44
455.911	6065.91
456.117	6139.64
456.323	6420.21
456.529	6457.07
456.735	7096.04
456.941	7243.49
457.147	7362.28
457.352	7735.01
457.558	7792.35
457.764	8339.16
457.97	8552.15
458.176	8957.64
458.381	9363.14
458.587	9590.47
458.793	10135.23
458.999	10084.03
459.204	11157.16
459.41	11556.52
459.616	11439.78
459.821	12275.35
460.027	12637.84
460.233	13268.62
460.438	13305.48
460.644	14077.57
460.85	14173.82
461.055	14698.1
461.261	15392.36
461.466	15062.64
461.672	15449.71
461.878	17319.5
462.083	17276.49
462.289	17589.83
462.494	18251.33
462.7	18331.2
462.905	18744.89
463.111	20184.61
463.316	21141.01
463.522	21100.05
463.727	22160.9
463.932	22875.64
464.138	23617
464.343	24587.74
464.549	24800.73
464.754	26514.88
464.959	27041.21
465.165	27588.02
465.37	27555.25
465.575	27702.7
465.781	29314.45
465.986	30358.92
466.191	29754.77
466.397	30397.83
466.602	29336.98
466.807	31364.47
467.012	31583.6
467.218	32277.86
467.423	32286.06
467.628	33205.59
467.833	34741.57
468.038	34200.91
468.244	32955.74
468.449	35419.45
468.654	34782.53
468.859	34213.2
469.064	34454.86
469.269	33940.82
469.474	34323.79
469.679	35335.48
469.885	34159.95
470.09	34673.99
470.295	34800.96
470.5	33918.29
470.705	33987.92
470.91	33172.83
471.115	32765.28
471.32	33586.52
471.525	33459.54
471.73	32482.66
471.935	32023.92
472.139	31145.34
472.344	31018.36
472.549	30858.62
472.754	30352.77
472.959	29969.8
473.164	28583.33
473.369	28241.32
473.574	28857.76
473.778	28517.79
473.983	27739.57
474.188	27682.22
474.393	26478.02
474.598	26150.34
474.802	25380.31
475.007	25337.3
475.212	24942.04
475.417	23934.44
475.621	23485.93
475.826	23594.48
476.031	22625.79
476.235	22318.59
476.44	22601.21
476.645	21800.46
476.849	21849.61
477.054	21464.59
477.259	20852.25
477.463	21048.85
477.668	20280.86
477.872	20325.92
478.077	19867.17
478.282	19131.95
478.486	18982.45
478.691	18576.95
478.895	18769.46
479.1	18507.32
479.304	18466.36
479.509	17698.38
479.713	17942.08
479.918	17581.64
480.122	17407.56
480.326	17190.48
480.531	17311.31
480.735	17100.37
480.94	16617.05
481.144	17225.29
481.348	16465.5
481.553	16793.17
481.757	16107.1
481.961	16328.28
482.166	16473.69
482.37	16248.41
482.574	15640.17
482.778	15580.78
482.983	16117.34
483.187	15603.3
483.391	15683.17
483.595	15302.25
483.8	14786.16
484.004	15070.83
484.208	14906.99
484.412	14720.63
484.616	14601.85
484.821	14698.1
485.025	13872.77
485.229	14564.98
485.433	13753.99
485.637	13923.97
485.841	13659.78
486.045	13301.39
486.249	13274.76
486.453	13033.1
486.657	12867.22
486.861	12805.78
487.065	12613.27
487.269	12519.06
487.473	12005.02
487.677	12179.1
487.881	12254.87
488.085	11513.51
488.289	11577
488.493	11318.95
488.697	11347.62
488.901	10913.45
489.105	10583.73
489.309	10579.64
489.512	10518.2
489.716	10133.18
489.92	10135.23
490.124	9801.41
490.328	9778.88
490.531	9537.22
490.735	9598.66
490.939	9119.43
491.143	9047.76
491.346	8931.02
491.55	8840.91
491.754	8644.31
491.958	8664.79
492.161	8279.77
492.365	8234.71
492.569	8083.16
492.772	7964.38
492.976	7999.2
493.18	7851.74
493.383	7730.91
493.587	7659.23
493.79	7667.42
493.994	7366.37
494.197	7438.05
494.401	7376.61
494.605	7231.21
494.808	7329.51
495.012	7124.71
495.215	7104.23
495.419	7042.79
495.622	6907.63
495.825	6864.62
496.029	6809.33
496.232	7053.03
496.436	6749.93
496.639	7005.93
496.843	6848.24
497.046	6840.04
497.249	6858.48
497.453	6731.5
497.656	6952.68
497.859	6780.65
498.063	6903.53
498.266	6854.38
498.469	6891.24
498.673	6919.92
498.876	6848.24
499.079	6993.64
499.282	6915.82
499.485	7042.79
499.689	7108.33
499.892	6944.49
500.095	7065.32
500.298	7165.67
500.501	7083.75
500.705	7354.09
500.908	7388.9
501.111	7159.53
501.314	7565.03
501.517	7661.28
501.72	7423.72
501.923	7436
502.126	7696.1
502.329	7778.01
502.532	7855.84
502.735	7964.38
502.938	8074.97
503.141	8138.46
503.344	8181.46
503.547	8259.29
503.75	8320.73
503.953	8625.87
504.156	8554.19
504.359	8709.84
504.562	8861.39
504.765	9170.63
504.968	9088.71
505.17	9316.04
505.373	9258.7
505.576	9492.16
505.779	9631.43
505.982	9569.99
506.185	9940.67
506.387	10028.73
506.59	10303.16
506.793	10354.36
506.996	10686.13
507.198	11007.66
507.401	11167.4
507.604	11321
507.807	11710.11
508.009	11808.42
508.212	11986.59
508.415	12209.82
508.617	12383.9
508.82	12584.6
509.022	12779.15
509.225	13155.98
509.428	13368.97
509.63	13782.66
509.833	13698.69
510.035	14612.09
510.238	14468.73
510.44	14872.18
510.643	15232.62
510.845	15539.82
511.048	15685.22
511.25	15969.89
511.453	16445.02
511.655	17028.69
511.858	17469
512.06	17770.05
512.262	17890.88
512.465	18173.5
512.667	18718.26
512.87	19056.18
513.072	19443.24
513.274	20268.58
513.477	20383.26
513.679	21059.09
513.881	21458.45
514.084	22013.45
514.286	22210.05
514.488	22953.46
514.69	23455.22
514.893	23979.5
515.095	24341.99
515.297	24800.73
515.499	25296.34
515.701	25783.76
515.904	26385.86
516.106	27024.82
516.308	27354.55
516.51	28138.92
516.712	28173.74
516.914	29277.59
517.116	29793.68
517.318	30152.07
517.52	30563.71
517.722	30915.97
517.925	31833.46
518.127	32257.39
518.329	33049.95
518.531	33195.35
518.733	34291.02
518.935	34839.87
519.136	35085.63
519.338	35298.62
519.54	36443.43
519.742	36988.19
519.944	36945.19
520.146	38231.31
520.348	38653.19
520.55	38647.05
520.752	39372.03
520.954	40031.47
521.155	39617.78
521.357	40754.41
521.559	41569.5
521.761	41985.24
521.963	42063.06
522.164	42392.78
522.366	42583.24
522.568	43171.01
522.77	43089.09
522.971	43773.11
523.173	43629.76
523.375	44217.52
523.576	44549.29
523.778	44680.36
523.98	45104.29
524.181	44967.08
524.383	45337.76
524.584	45526.17
524.786	45622.43
524.988	45345.95
525.189	46025.88
525.391	46261.4
525.592	45999.26
525.794	46711.95
525.995	46447.76
526.197	45798.55
526.398	46183.57
526.6	45989.02
526.801	46111.89
527.003	45771.93
527.204	45446.3
527.406	45431.97
527.607	45186.21
527.808	45354.15
528.01	44016.82
528.211	44321.97
528.412	45116.58
528.614	44459.18
528.815	43918.52
529.016	44018.87
529.218	43220.16
529.419	42804.42
529.62	42738.89
529.822	42054.87
530.023	42114.26
530.224	41635.03
530.425	41444.57
530.626	40467.69
530.828	39830.77
531.029	40353.01
531.23	39488.76
531.431	39019.78
531.632	38868.23
531.833	38341.9
532.035	38337.8
532.236	37537.05
532.437	37141.79
532.638	36570.41
532.839	36007.22
533.04	36126
533.241	34952.51
533.442	35120.45
533.643	34377.03
533.844	33873.23
534.045	33574.23
534.246	32843.1
534.447	32968.03
534.648	32499.05
534.849	31778.16
535.05	31073.66
535.251	30920.06
535.451	30326.15
535.652	29742.48
535.853	29363.61
536.054	29197.72
536.255	28962.2
536.456	28356
536.657	28370.34
536.857	27833.77
537.058	27620.78
537.259	27198.9
537.46	26738.11
537.66	26305.99
537.861	26326.47
538.062	25673.17
538.263	25384.4
538.463	25187.8
538.664	24739.29
538.865	24323.55
539.065	24159.72
539.266	23604.72
539.466	23858.67
539.667	23096.82
539.868	22996.47
540.068	22691.32
540.269	22361.6
540.469	22308.35
540.67	21947.91
540.87	21736.97
541.071	21407.25
541.271	21110.29
541.472	20946.45
541.672	20471.32
541.873	20389.41
542.073	19977.76
542.274	20110.88
542.474	19861.03
542.675	19394.09
542.875	19248.69
543.075	19052.08
543.276	18650.68
543.476	18853.43
543.676	18583.1
543.877	18177.6
544.077	17962.56
544.277	17835.59
544.478	17729.09
544.678	17509.96
544.878	17260.11
545.078	17067.6
545.279	16676.44
545.479	16399.96
545.679	16651.86
545.879	16305.76
546.079	16076.38
546.28	15943.27
546.48	15392.36
546.68	15679.08
546.88	15517.29
547.08	15328.88
547.28	14993.01
547.48	14638.71
547.68	14655.09
547.88	14528.12
548.081	14286.46
548.281	13891.2
548.481	13803.14
548.681	13708.93
548.881	13653.64
549.081	13594.25
549.28	13293.19
549.48	13078.16
549.68	12942.99
549.88	12975.76
550.08	12537.49
550.28	12521.11
550.48	12492.44
550.68	11826.85
550.88	11916.96
551.08	11740.83
551.279	11583.14
551.479	11269.8
551.679	11216.55
551.879	10880.69
552.079	11003.57
552.278	10563.25
552.478	10604.21
552.678	10452.66
552.878	10243.77
553.077	10018.49
553.277	9842.37
553.477	9866.94
553.676	9762.5
553.876	9561.8
554.076	9434.82
554.275	9260.74
554.475	9135.82
554.674	9037.52
554.874	8918.73
555.074	8562.39
555.273	8584.91
555.473	8541.91
555.672	8152.79
555.872	8107.74
556.071	8171.22
556.271	8101.59
556.47	7556.83
556.67	7528.16
556.869	7509.73
557.068	7444.2
557.268	7175.91
557.467	7376.61
557.667	7223.02
557.866	6856.43
558.065	6878.96
558.265	6612.72
558.464	6495.99
558.663	6622.96
558.863	6260.47
559.062	6534.9
559.261	6141.69
559.461	6172.41
559.66	5883.64
559.859	5889.79
560.058	5699.33
560.258	5869.31
560.457	5572.35
560.656	5566.21
560.855	5312.26
561.054	5439.23
561.253	5265.16
561.453	5207.81
561.652	5205.77
561.851	5156.61
562.05	4919.05
562.249	4873.99
562.448	4898.57
562.647	4710.16
562.846	4787.98
563.045	4769.55
563.244	4591.38
563.443	4351.76
563.642	4491.02
563.841	4341.52
564.04	4198.17
564.239	4249.36
564.438	4237.08
564.637	3997.46
564.836	4089.62
565.035	3964.7
565.234	3970.84
565.432	3903.26
565.631	3854.11
565.83	3905.31
566.029	3692.32
566.228	3688.22
566.427	3757.85
566.625	3508
566.824	3567.39
567.023	3385.12
567.222	3362.59
567.42	3221.28
567.619	3409.7
567.818	3270.44
568.016	3436.32
568.215	3125.03
568.414	3159.85
568.612	3131.17
568.811	3061.54
569.01	2866.99
569.208	2961.19
569.407	2866.99
569.605	2883.37
569.804	2780.97
570.002	2754.35
570.201	2647.85
570.4	2758.44
570.598	2676.52
570.797	2537.26
570.995	2625.33
571.193	2539.31
571.392	2570.03
571.59	2432.82
571.789	2481.97
571.987	2506.54
572.186	2490.16
572.384	2350.9
572.582	2244.4
572.781	2309.94
572.979	2195.25
573.177	2101.05
573.376	2070.33
573.574	2142
573.772	1994.55
573.971	2043.7
574.169	1941.3
574.367	2006.84
574.565	1869.62
574.763	1926.97
574.962	1951.54
575.16	1943.35
575.358	1775.42
575.556	1859.38
575.754	1822.52
575.952	1892.15
576.151	1785.66
576.349	1795.9
576.547	1593.15
576.745	1752.89
576.943	1630.01
577.141	1478.46
577.339	1537.85
577.537	1523.52
577.735	1584.96
577.933	1541.95
578.131	1425.22
578.329	1517.37
578.527	1406.78
578.725	1425.22
578.923	1226.56
579.121	1402.69
579.319	1300.29
579.516	1427.26
579.714	1488.7
579.912	1386.3
580.11	1169.22
580.308	1271.62
580.506	1220.42
580.704	1099.59
580.901	1136.45
581.099	1333.06
581.297	1175.36
581.495	1163.08
581.692	1210.18
581.89	1216.32
582.088	1070.92
582.285	1118.02
582.483	1058.63
582.681	1077.06
582.878	1003.33
583.076	1056.58
583.274	972.61
583.471	1099.59
583.669	960.33
583.866	884.55
584.064	945.99
584.262	851.78
584.459	843.59
584.657	837.45
584.854	874.31
585.052	921.42
585.249	925.51
585.447	806.73
585.644	792.39
585.841	923.46
586.039	950.09
586.236	927.56
586.434	819.02
586.631	728.91
586.828	782.15
587.026	829.26
587.223	718.67
587.42	765.77
587.618	747.34
587.815	880.46
588.012	737.1
588.21	706.38
588.407	757.58
588.604	720.71
588.801	700.23
588.999	642.89
589.196	771.91
589.393	655.18
589.59	763.72
589.787	784.2
589.984	653.13
590.182	624.46
590.379	640.84
590.576	642.89
590.773	560.97
590.97	663.37
591.167	630.6
591.364	698.19
591.561	603.98
591.758	730.95
591.955	640.84
592.152	665.42
592.349	624.46
592.546	544.59
592.743	554.83
592.94	546.64
593.137	536.4
593.334	677.71
593.531	692.04
593.727	700.23
593.924	665.42
594.121	669.52
594.318	579.4
594.515	673.61
594.712	743.24
594.908	759.63
595.105	622.41
595.302	702.28
595.499	722.76
595.696	792.39
595.892	638.8
596.089	829.26
596.286	667.47
596.482	821.06
596.679	902.98
596.876	763.72
597.072	825.16
597.269	921.42
597.466	859.98
597.662	925.51
597.859	857.93
598.055	902.98
598.252	888.65
598.448	1034.05
598.645	1011.53
598.841	1050.44
599.038	1120.07
599.234	1288
599.431	1197.89
599.627	1201.99
599.824	1275.71
600.02	1341.25
600.217	1304.39
600.413	1457.98
600.609	1439.55
600.806	1761.08
601.002	1595.2
601.198	1533.76
601.395	1763.13
601.591	1652.54
601.787	1789.75
601.984	1896.25
602.18	2041.65
602.376	1931.06
602.572	2215.73
602.769	2099
602.965	2197.3
603.161	2330.42
603.357	2451.25
603.553	2617.13
603.75	2529.07
603.946	2674.48
604.142	2774.83
604.338	3014.44
604.534	2897.71
604.73	3041.06
604.926	3127.08
605.122	3297.06
605.318	3194.66
605.514	3323.68
605.71	3424.03
605.906	3620.64
606.102	3626.78
606.298	3989.27
606.494	4087.57
606.69	4220.69
606.886	4187.93
607.082	4226.84
607.278	4423.44
607.474	4531.98
607.67	4552.46
607.866	4599.57
608.062	4968.2
608.257	5007.11
608.453	5175.05
608.649	5283.59
608.845	5449.47
609.041	5699.33
609.236	5900.03
609.432	5867.26
609.628	6072.06
609.824	6301.43
610.019	6358.77
610.215	6481.65
610.411	7024.36
610.606	7018.22
610.802	6930.16
610.998	7272.17
611.193	7554.79
611.389	7562.98
611.584	7831.26
611.78	8070.87
611.976	8187.61
612.171	8783.57
612.367	8799.95
612.562	8945.36
612.758	9213.64
612.953	9189.07
613.149	9776.83
613.344	10090.17
613.539	10276.54
613.735	10417.85
613.93	10698.42
614.126	11112.11
614.321	11466.41
614.517	11951.77
614.712	11810.47
614.907	12234.39
615.103	12584.6
615.298	12820.11
615.493	13196.94
615.688	13258.38
615.884	14069.37
616.079	13915.78
616.274	14712.44
616.47	14769.78
616.665	15263.34
616.86	15535.72
617.055	16057.95
617.25	16234.08
617.445	17135.18
617.641	16911.96
617.836	17698.38
618.031	17892.93
618.226	18734.65
618.421	18775.61
618.616	19607.08
618.811	19777.06
619.006	20762.14
619.201	20854.3
619.396	21483.02
619.591	21358.1
619.786	22253.06
619.981	22519.29
620.176	23043.57
620.371	23307.76
620.566	23983.59
620.761	24350.18
620.956	25155.03
621.151	25660.88
621.346	26260.93
621.541	26133.96
621.735	27258.29
621.93	27264.44
622.125	27993.51
622.32	28179.88
622.515	28913.05
622.709	29502.87
622.904	29990.28
623.099	30350.73
623.294	31341.94
623.488	31460.73
623.683	32241
623.878	32378.22
624.072	32939.36
624.267	33754.45
624.462	34307.4
624.656	33973.58
624.851	35446.07
625.046	35523.9
625.24	36080.94
625.435	36226.35
625.629	36920.61
625.824	37717.27
626.018	38079.76
626.213	37915.92
626.407	39062.79
626.602	38937.86
626.796	39785.72
626.991	40312.05
627.185	40162.54
627.38	40623.34
627.574	41084.13
627.768	40582.38
627.963	41061.6
628.157	40901.86
628.352	41286.88
628.546	41057.51
628.74	41977.04
628.935	40830.18
629.129	41436.38
629.323	40643.82
629.517	40922.34
629.712	40862.95
629.906	40600.81
630.1	40131.82
630.294	40289.52
630.489	39267.58
630.683	38993.15
630.877	38305.04
631.071	37985.55
631.265	37250.33
631.459	35935.54
631.653	35335.48
631.848	34905.41
632.042	33946.96
632.236	33742.16
632.43	32327.02
632.624	31645.04
632.818	30696.83
633.012	29703.57
633.206	28911
633.4	28169.64
633.594	26719.68
633.788	26095.05
633.982	25488.85
634.176	24391.14
634.369	23709.16
634.563	22478.33
634.757	21761.55
634.951	21141.01
635.145	20227.62
635.339	19465.77
635.533	18654.78
635.726	18101.83
635.92	16883.28
636.114	16418.39
636.308	15996.51
636.501	15308.4
636.695	14792.31
636.889	13704.84
637.083	13555.33
637.276	12906.13
637.47	12156.57
637.664	11925.15
637.857	11376.3
638.051	10897.07
638.244	10569.4
638.438	10174.14
638.632	9694.91
638.825	9098.95
639.019	9053.9
639.212	8478.42
639.406	8230.62
639.599	7765.73
639.793	7474.92
639.986	7208.68
640.18	7091.95
640.373	6688.5
640.567	6424.31
640.76	6354.68
640.954	6043.39
641.147	5789.44
641.34	5527.3
641.534	5361.41
641.727	5154.57
641.92	5086.98
642.114	4734.73
642.307	4661.01
642.5	4411.15
642.694	4153.11
642.887	4087.57
643.08	4073.24
643.273	3905.31
643.467	3585.82
643.66	3491.62
643.853	3223.33
644.046	3338.02
644.239	3174.18
644.432	2991.91
644.626	2785.07
644.819	2881.32
645.012	2613.04
645.205	2588.46
645.398	2619.18
645.591	2352.95
645.784	2182.96
645.977	2146.1
646.17	2086.71
646.363	2045.75
646.556	1861.43
646.749	1892.15
646.942	1668.92
647.135	1912.63
647.328	1689.4
647.521	1593.15
647.714	1525.57
647.907	1523.52
648.099	1394.5
648.292	1427.26
648.485	1351.49
648.678	1324.87
648.871	1292.1
649.064	1283.91
649.256	1070.92
649.449	1017.67
649.642	982.85
649.835	1052.49
650.027	888.65
650.22	1013.57
650.413	902.98
650.605	882.5
650.798	814.92
650.991	825.16
651.183	794.44
651.376	761.67
651.568	753.48
651.761	710.47
651.954	773.96
652.146	722.76
652.339	726.86
652.531	735.05
652.724	616.27
652.916	653.13
653.109	470.86
653.301	558.92
653.494	528.21
653.686	548.68
653.879	626.51
654.071	573.26
654.263	474.96
654.456	405.33
654.648	601.93
654.84	481.1
655.033	386.9
655.225	495.44
655.417	335.7
655.61	479.05
655.802	423.76
655.994	483.15
656.186	364.37
656.379	509.77
656.571	276.31
656.763	302.93
656.955	264.02
657.148	321.36
657.34	372.56
657.532	327.5
657.724	239.44
657.916	315.22
658.108	333.65
658.3	304.98
658.492	339.79
658.684	251.73
658.876	339.79
659.068	235.35
659.26	157.52
659.452	227.15
659.644	194.39
659.836	413.52
660.028	264.02
660.22	155.47
660.412	296.78
660.604	202.58
660.796	247.63
660.988	280.4
661.18	302.93
661.372	261.97
661.563	307.02
661.755	264.02
661.947	147.28
662.139	221.01
662.331	149.33
662.522	175.95
662.714	85.84
662.906	180.05
663.097	198.48
663.289	139.09
663.481	26.45
663.673	302.93
663.864	204.63
664.056	214.87
664.247	53.08
664.439	276.31
664.631	241.49
664.822	315.22
665.014	216.91
665.205	67.41
665.397	102.23
665.588	178
665.78	270.16
665.971	247.63
666.163	132.95
666.354	249.68
666.546	63.32
666.737	192.34
666.929	137.04
667.12	51.03
667.311	169.81
667.503	186.19
667.694	212.82
667.885	157.52
668.077	157.52
668.268	12.12
668.459	116.56
668.651	124.76
668.842	137.04
669.033	143.19
669.224	48.98
669.416	241.49
669.607	153.43
669.798	65.36
669.989	149.33
670.18	81.75
670.371	231.25
670.563	51.03
670.754	253.78
670.945	186.19
671.136	167.76
671.327	83.8
671.518	178
671.709	276.31
671.9	186.19
672.091	223.06
672.282	126.8
672.473	143.19
672.664	46.93
672.855	149.33
673.046	98.13
673.237	227.15
673.428	108.37
673.619	184.15
673.809	145.24
674	227.15
674.191	169.81
674.382	163.67
674.573	178
674.764	137.04
674.954	184.15
675.145	59.22
675.336	53.08
675.527	79.7
675.717	100.18
675.908	130.9
676.099	94.04
676.289	202.58
676.48	32.6
676.671	55.12
676.861	126.8
677.052	175.95
677.243	206.67
677.433	71.51
677.624	151.38
677.814	141.14
678.005	104.28
678.195	286.54
678.386	106.32
678.576	143.19
678.767	48.98
678.957	102.23
679.148	210.77
679.338	257.87
679.529	130.9
679.719	141.14
679.909	274.26
680.1	218.96
680.29	153.43
680.481	-8.36
680.671	241.49
680.861	204.63
681.052	135
681.242	161.62
681.432	182.1
681.622	223.06
681.813	24.4
682.003	157.52
682.193	145.24
682.383	184.15
682.573	186.19
682.764	116.56
682.954	247.63
683.144	270.16
683.334	186.19
683.524	114.52
683.714	141.14
683.904	110.42
684.094	118.61
684.284	210.77
684.474	276.31
684.664	237.39
684.854	225.11
685.044	225.11
685.234	184.15
685.424	255.83
685.614	196.43
685.804	315.22
685.994	108.37
686.184	192.34
686.374	216.91
686.564	145.24
686.753	143.19
686.943	65.36
687.133	135
687.323	126.8
687.513	206.67
687.702	231.25
687.892	214.87
688.082	173.91
688.272	225.11
688.461	237.39
688.651	388.94
688.841	218.96
689.03	126.8
689.22	180.05
689.41	261.97
689.599	229.2
689.789	124.76
689.979	276.31
690.168	100.18
690.358	311.12
690.547	196.43
690.737	196.43
690.926	264.02
691.116	208.72
691.305	270.16
691.495	218.96
691.684	55.12
691.874	282.45
692.063	145.24
692.252	206.67
692.442	243.54
692.631	137.04
692.82	200.53
693.01	218.96
693.199	167.76
693.388	198.48
693.578	178
693.767	214.87
693.956	266.07
694.146	216.91
694.335	233.3
694.524	135
694.713	235.35
694.902	137.04
695.092	190.29
695.281	288.59
695.47	178
695.659	116.56
695.848	104.28
696.037	118.61
696.226	216.91
696.415	155.47
696.604	243.54
696.793	171.86
696.982	118.61
697.171	323.41
697.36	151.38
697.549	153.43
697.738	75.6
697.927	157.52
698.116	124.76
698.305	245.59
698.494	114.52
698.683	81.75
698.872	259.92
699.061	132.95
699.25	157.52
699.438	137.04
699.627	71.51
699.816	282.45
700.005	75.6
700.193	81.75
700.382	208.72
700.571	212.82
700.76	186.19
700.948	202.58
701.137	190.29
701.326	241.49
701.514	171.86
701.703	182.1
701.892	202.58
702.08	268.11
702.269	171.86
702.457	102.23
702.646	294.74
702.834	149.33
703.023	294.74
703.212	180.05
703.4	231.25
703.589	155.47
703.777	120.66
703.965	163.67
704.154	167.76
704.342	77.65
704.531	145.24
704.719	206.67
704.907	272.21
705.096	55.12
705.284	116.56
705.472	210.77
705.661	196.43
705.849	210.77
706.037	296.78
706.226	216.91
706.414	163.67
706.602	124.76
706.79	264.02
706.979	173.91
707.167	186.19
707.355	5.97
707.543	208.72
707.731	116.56
707.919	124.76
708.107	157.52
708.296	102.23
708.484	87.89
708.672	104.28
708.86	239.44
709.048	143.19
709.236	137.04
709.424	169.81
709.612	194.39
709.8	36.69
709.988	104.28
710.176	202.58
710.364	157.52
710.551	151.38
710.739	128.85
710.927	153.43
711.115	114.52
711.303	231.25
711.491	290.64
711.679	100.18
711.866	167.76
712.054	157.52
712.242	169.81
712.43	196.43
712.617	259.92
712.805	278.35
712.993	159.57
713.181	118.61
713.368	159.57
713.556	169.81
713.744	116.56
713.931	307.02
714.119	239.44
714.306	141.14
714.494	151.38
714.682	167.76
714.869	26.45
715.057	200.53
715.244	14.17
715.432	218.96
715.619	169.81
715.807	218.96
715.994	237.39
716.182	184.15
716.369	266.07
716.556	300.88
716.744	87.89
716.931	104.28
717.119	167.76
717.306	227.15
717.493	153.43
717.681	184.15
717.868	192.34
718.055	233.3
718.242	175.95
718.43	196.43
718.617	257.87
718.804	182.1
718.991	241.49
719.179	276.31
719.366	284.5
719.553	259.92
719.74	182.1
719.927	184.15
720.114	202.58
720.301	141.14
720.488	130.9
720.676	96.08
720.863	311.12
721.05	329.55
721.237	247.63
721.424	143.19
721.611	243.54
721.798	130.9
721.985	139.09
722.172	214.87
722.358	128.85
722.545	278.35
722.732	239.44
722.919	229.2
723.106	204.63
723.293	210.77
723.48	259.92
723.667	143.19
723.853	296.78
724.04	251.73
724.227	257.87
724.414	122.71
724.6	173.91
724.787	247.63
724.974	311.12
725.161	241.49
725.347	85.84
725.534	206.67
725.72	214.87
725.907	286.54
726.094	307.02
726.28	75.6
726.467	247.63
726.653	212.82
726.84	358.22
727.027	319.31
727.213	233.3
727.4	261.97
727.586	204.63
727.773	233.3
727.959	204.63
728.145	270.16
728.332	272.21
728.518	196.43
728.705	274.26
728.891	223.06
729.077	235.35
729.264	143.19
729.45	255.83
729.636	288.59
729.823	319.31
730.009	239.44
730.195	186.19
730.382	309.07
730.568	143.19
730.754	266.07
730.94	202.58
731.126	167.76
731.313	343.89
731.499	114.52
731.685	247.63
731.871	237.39
732.057	214.87
732.243	253.78
732.429	300.88
732.615	270.16
732.801	270.16
732.987	231.25
733.173	227.15
733.359	153.43
733.545	247.63
733.731	272.21
733.917	296.78
734.103	266.07
734.289	218.96
734.475	145.24
734.661	415.57
734.847	208.72
735.033	231.25
735.219	313.17
735.404	175.95
735.59	194.39
735.776	212.82
735.962	255.83
736.148	350.03
736.333	298.83
736.519	229.2
736.705	292.69
736.89	190.29
737.076	208.72
737.262	94.04
737.447	214.87
737.633	243.54
737.819	311.12
738.004	169.81
738.19	237.39
738.375	251.73
738.561	296.78
738.747	251.73
738.932	167.76
739.118	401.23
739.303	345.94
739.489	296.78
739.674	130.9
739.859	221.01
740.045	196.43
740.23	241.49
740.416	77.65
740.601	245.59
740.786	157.52
740.972	159.57
741.157	186.19
741.342	210.77
741.528	145.24
741.713	300.88
741.898	175.95
742.084	198.48
742.269	259.92
742.454	341.84
742.639	288.59
742.824	288.59
743.01	321.36
743.195	333.65
743.38	300.88
743.565	165.71
743.75	321.36
743.935	216.91
744.12	372.56
744.305	130.9
744.49	294.74
744.675	202.58
744.86	229.2
745.045	255.83
745.23	216.91
745.415	253.78
745.6	313.17
745.785	186.19
745.97	251.73
746.155	276.31
746.34	245.59
746.525	216.91
746.71	233.3
746.895	165.71
747.079	171.86
747.264	264.02
747.449	286.54
747.634	286.54
747.819	245.59
748.003	184.15
748.188	171.86
748.373	255.83
748.557	227.15
748.742	186.19
748.927	225.11
749.111	141.14
749.296	210.77
749.481	325.46
749.665	233.3
749.85	139.09
750.034	235.35
750.219	237.39
750.404	120.66
750.588	223.06
750.773	87.89
750.957	151.38
751.141	161.62
751.326	255.83
751.51	112.47
751.695	159.57
751.879	135
752.064	302.93
752.248	184.15
752.432	352.08
752.617	182.1
752.801	188.24
752.985	161.62
753.17	266.07
753.354	167.76
753.538	141.14
753.722	155.47
753.907	186.19
754.091	85.84
754.275	208.72
754.459	110.42
754.643	94.04
754.828	212.82
755.012	186.19
755.196	151.38
755.38	157.52
755.564	161.62
755.748	128.85
755.932	276.31
756.116	206.67
756.3	190.29
756.484	157.52
756.668	223.06
756.852	46.93
757.036	214.87
757.22	98.13
757.404	139.09
757.588	106.32
757.772	143.19
757.956	73.56
758.14	272.21
758.323	48.98
758.507	143.19
758.691	122.71
758.875	261.97
759.059	173.91
759.242	151.38
759.426	143.19
759.61	184.15
759.794	102.23
759.977	122.71
760.161	401.23
760.345	216.91
760.528	208.72
760.712	98.13
760.895	270.16
761.079	110.42
761.263	63.32
761.446	124.76
761.63	96.08
761.813	223.06
761.997	5.97
762.18	79.7
762.364	145.24
762.547	-57.51
762.731	141.14
762.914	112.47
763.098	100.18
763.281	120.66
763.464	130.9
763.648	145.24
763.831	112.47
764.015	159.57
764.198	243.54
764.381	114.52
764.564	171.86
764.748	114.52
764.931	63.32
765.114	91.99
765.297	81.75
765.481	-12.46
765.664	108.37
765.847	-2.22
766.03	161.62
766.213	34.64
766.397	55.12
766.58	30.55
766.763	104.28
766.946	112.47
767.129	98.13
767.312	104.28
767.495	161.62
767.678	28.5
767.861	73.56
768.044	59.22
768.227	46.93
768.41	67.41
768.593	48.98
768.776	149.33
768.959	124.76
769.142	208.72
769.324	40.79
769.507	81.75
769.69	1.88
769.873	130.9
770.056	307.02
770.239	100.18
770.421	182.1
770.604	89.94
770.787	24.4
770.97	114.52
771.152	26.45
771.335	38.74
771.518	38.74
771.7	184.15
771.883	266.07
772.066	-0.17
772.248	87.89
772.431	102.23
772.613	65.36
772.796	141.14
772.978	79.7
773.161	282.45
773.343	94.04
773.526	36.69
773.708	28.5
773.891	-116.9
774.073	42.84
774.256	8.02
774.438	69.46
774.621	-4.27
774.803	141.14
774.985	20.31
775.168	204.63
775.35	38.74
775.532	77.65
775.715	73.56
775.897	114.52
776.079	24.4
776.261	73.56
776.444	46.93
776.626	42.84
776.808	65.36
776.99	-20.65
777.173	55.12
777.355	30.55
777.537	67.41
777.719	79.7
777.901	5.97
778.083	-10.41
778.265	-90.28
778.447	124.76
778.629	-55.47
778.811	28.5
778.993	42.84
779.175	157.52
779.357	59.22
779.539	34.64
779.721	53.08
779.903	102.23
780.085	-18.6
780.267	102.23
780.449	77.65
780.631	87.89
780.812	153.43
780.994	51.03
781.176	94.04
781.358	38.74
781.54	-4.27
781.721	57.17
781.903	149.33
782.085	102.23
782.267	122.71
782.448	-37.03
782.63	40.79
782.812	3.93
782.993	10.07
783.175	114.52
783.357	-22.7
783.538	34.64
783.72	-26.79
783.901	10.07
784.083	157.52
784.264	77.65
784.446	-18.6
784.627	-94.38
784.809	81.75
784.99	-24.75
785.172	8.02
785.353	53.08
785.535	75.6
785.716	-39.08
785.897	-92.33
786.079	-45.23
786.26	63.32
786.441	75.6
786.623	-92.33
786.804	-16.55
786.985	51.03
787.167	106.32
787.348	59.22
787.529	44.88
787.71	155.47
787.891	3.93
788.073	-59.56
788.254	-37.03
788.435	227.15
788.616	75.6
788.797	-47.27
788.978	18.26
789.159	36.69
789.34	40.79
789.522	46.93
789.703	75.6
789.884	42.84
790.065	108.37
790.246	204.63
790.427	-14.51
790.607	116.56
790.788	132.95
790.969	-37.03
791.15	108.37
791.331	71.51
791.512	-84.14
791.693	-10.41
791.874	22.36
792.054	180.05
792.235	112.47
792.416	-32.94
792.597	36.69
792.778	42.84
792.958	26.45
793.139	91.99
793.32	79.7
793.5	38.74
793.681	112.47
793.862	118.61
794.042	5.97
794.223	3.93
794.404	-12.46
794.584	-30.89
794.765	-4.27
794.945	-24.75
795.126	22.36
795.306	145.24
795.487	53.08
795.667	38.74
795.848	42.84
796.028	10.07
796.209	16.21
796.389	81.75
796.57	55.12
796.75	-0.17
796.93	-16.55
797.111	-41.13
797.291	5.97
797.471	98.13
797.652	-43.18
797.832	-77.99
798.012	46.93
798.192	-69.8
798.373	-88.23
798.553	3.93
798.733	89.94
798.913	-32.94
799.093	-8.36
799.274	30.55
799.454	48.98
799.634	73.56
799.814	24.4
799.994	46.93
800.174	18.26
800.354	-41.13
800.534	-12.46
800.714	30.55
800.894	-53.42
801.074	-100.52
801.254	8.02
801.434	155.47
801.614	5.97
801.794	-114.86
801.974	1644.35
802.154	10.07
802.334	46.93
802.514	-102.57
802.693	-34.99
802.873	-0.17
803.053	44.88
803.233	-0.17
803.413	12.12
803.592	-37.03
803.772	-41.13
803.952	-24.75
804.131	20.31
804.311	100.18
804.491	81.75
804.67	-22.7
804.85	1.88
805.03	26.45
805.209	53.08
805.389	-4.27
805.568	-22.7
805.748	-14.51
805.928	-49.32
806.107	10.07
806.287	91.99
806.466	1.88
806.646	28.5
806.825	61.27
807.004	81.75
807.184	-8.36
807.363	91.99
807.543	-30.89
807.722	-63.66
807.901	91.99
808.081	20.31
808.26	-168.1
808.439	48.98
808.619	-45.23
808.798	-2.22
808.977	85.84
809.156	67.41
809.336	34.64
809.515	69.46
809.694	-112.81
809.873	-65.71
810.052	53.08
810.231	55.12
810.411	-12.46
810.59	40.79
810.769	22.36
810.948	67.41
811.127	-104.62
811.306	-26.79
811.485	-18.6
811.664	143.19
811.843	12.12
812.022	-30.89
812.201	42.84
812.38	-10.41
812.559	-4.27
812.737	65.36
812.916	-43.18
813.095	-98.47
813.274	32.6
813.453	-43.18
813.632	14.17
813.811	77.65
813.989	-104.62
814.168	57.17
814.347	-94.38
814.526	10.07
814.704	83.8
814.883	112.47
815.062	-67.75
815.24	71.51
815.419	-49.32
815.598	-10.41
815.776	-112.81
815.955	14.17
816.133	-129.19
816.312	-8.36
816.49	-59.56
816.669	59.22
816.847	-141.48
817.026	-26.79
817.204	51.03
817.383	-8.36
817.561	26.45
817.74	83.8
817.918	83.8
818.097	-67.75
818.275	1.88
818.453	55.12
818.632	98.13
818.81	-94.38
818.988	12.12
819.167	34.64
819.345	77.65
819.523	-32.94
819.701	38.74
819.879	14.17
820.058	8.02
820.236	67.41
820.414	36.69
820.592	-10.41
820.77	-30.89
820.948	30.55
821.127	5.97
821.305	48.98
821.483	-71.85
821.661	188.24
821.839	10.07
822.017	-61.61
822.195	-55.47
822.373	67.41
822.551	-2.22
822.729	-24.75
822.907	-0.17
823.085	59.22
823.262	75.6
823.44	-10.41
823.618	-59.56
823.796	-16.55
823.974	-116.9
824.152	-47.27
824.329	5.97
824.507	55.12
824.685	28.5
824.863	20.31
825.04	-22.7
825.218	102.23
825.396	-10.41
825.574	-45.23
825.751	16.21
825.929	38.74
826.107	-41.13
826.284	63.32
826.462	26.45
826.639	-24.75
826.817	-121
826.994	59.22
827.172	-114.86
827.349	96.08
827.527	85.84
827.704	112.47
827.882	71.51
828.059	-39.08
828.237	-2.22
828.414	102.23
828.591	-153.77
828.769	-12.46
828.946	-45.23
829.124	44.88
829.301	149.33
829.478	14.17
829.655	20.31
829.833	51.03
830.01	-149.67
830.187	51.03
830.364	-6.31
830.542	22.36
830.719	87.89
830.896	-10.41
831.073	-12.46
831.25	-30.89
831.427	79.7
831.604	-80.04
831.782	-12.46
831.959	106.32
832.136	-51.37
832.313	5.97
832.49	-71.85
832.667	51.03
832.844	-10.41
833.021	116.56
833.198	-18.6
833.374	-22.7
833.551	22.36
833.728	-30.89
833.905	79.7
834.082	-96.43
834.259	-8.36
834.436	108.37
834.612	-96.43
834.789	1.88
834.966	8.02
835.143	59.22
835.319	-116.9
835.496	38.74
835.673	46.93
835.85	114.52
836.026	69.46
836.203	114.52
836.38	26.45
836.556	-12.46
836.733	16.21
836.909	184.15
837.086	-24.75
837.262	-77.99
837.439	1.88
837.616	-61.61
837.792	65.36
837.968	-0.17
838.145	-80.04
838.321	8.02
838.498	67.41
838.674	-4.27
838.851	14.17
839.027	18.26
839.203	5.97
839.38	26.45
839.556	-6.31
839.732	34.64
839.909	-26.79
840.085	63.32
840.261	-51.37
840.437	-28.84
840.614	8.02
840.79	55.12
840.966	63.32
841.142	57.17
841.318	8.02
841.494	-6.31
841.671	53.08
841.847	24.4
842.023	-84.14
842.199	1.88
842.375	96.08
842.551	-139.43
842.727	-28.84
842.903	130.9
843.079	-6.31
843.255	182.1
843.431	-8.36
843.607	-0.17
843.783	-118.95
843.959	22.36
844.134	14.17
844.31	141.14
844.486	-63.66
844.662	-39.08
844.838	-53.42
845.013	8.02
845.189	30.55
845.365	-16.55
845.541	67.41
845.716	-12.46
845.892	59.22
846.068	12.12
846.244	-75.95
846.419	104.28
846.595	-55.47
846.77	-90.28
846.946	87.89
847.122	-61.61
847.297	-43.18
847.473	98.13
847.648	-28.84
847.824	87.89
847.999	-18.6
848.175	3.93
848.35	57.17
848.526	132.95
848.701	26.45
848.876	38.74
849.052	100.18
849.227	-102.57
849.403	18.26
849.578	28.5
849.753	-14.51
849.929	24.4
850.104	-45.23
850.279	40.79
850.454	24.4
850.63	85.84
850.805	42.84
850.98	-8.36
851.155	-2.22
851.33	38.74
851.505	-39.08
851.681	42.84
851.856	-26.79
852.031	16.21
852.206	14.17
852.381	-22.7
852.556	-53.42
852.731	85.84
852.906	100.18
853.081	-45.23
853.256	34.64
853.431	-14.51
853.606	32.6
853.781	-47.27
853.956	-86.19
854.131	-102.57
854.305	-65.71
854.48	-26.79
854.655	-43.18
854.83	-47.27
855.005	22.36
855.18	-28.84
855.354	-39.08
855.529	81.75
855.704	-80.04
855.879	-73.9
856.053	-96.43
856.228	65.36
856.403	-94.38
856.577	42.84
856.752	-94.38
856.926	48.98
857.101	-30.89
857.276	8.02
857.45	-2.22
857.625	-43.18
857.799	-49.32
857.974	-69.8
858.148	-106.67
858.323	1.88
858.497	-75.95
858.672	-135.34
858.846	-82.09
859.02	51.03
859.195	-37.03
859.369	14.17
859.543	-41.13
859.718	10.07
859.892	38.74
860.066	55.12
860.241	44.88
860.415	-41.13
860.589	-16.55
860.763	-43.18
860.938	-22.7
861.112	51.03
861.286	-16.55
861.46	26.45
861.634	-10.41
861.808	48.98
861.982	-28.84
862.157	-41.13
862.331	-22.7
862.505	-80.04
862.679	-34.99
862.853	-108.71
863.027	-39.08
863.201	96.08
863.375	-53.42
863.549	34.64
863.722	-2.22
863.896	81.75
864.07	38.74
864.244	-6.31
864.418	59.22
864.592	10.07
864.766	24.4
864.939	-41.13
865.113	-43.18
865.287	116.56
865.461	-127.14
865.634	-14.51
865.808	-22.7
865.982	-61.61
866.156	-55.47
866.329	-65.71
866.503	-34.99
866.676	20.31
866.85	67.41
867.024	-155.82
867.197	48.98
867.371	40.79
867.544	12.12
867.718	-108.71
867.891	91.99
868.065	-55.47
868.238	20.31
868.412	94.04
868.585	-20.65
868.759	-45.23
868.932	-37.03
869.105	-131.24
869.279	132.95
869.452	-71.85
869.625	32.6
869.799	-63.66
869.972	-71.85
870.145	-88.23
870.319	77.65
870.492	-55.47
870.665	36.69
870.838	-8.36
871.011	-67.75
871.185	-41.13
871.358	-59.56
871.531	1.88
871.704	-137.38
871.877	32.6
872.05	-43.18
872.223	-37.03
872.396	30.55
872.569	28.5
872.742	-108.71
872.915	51.03
873.088	-24.75
873.261	-104.62
873.434	-16.55
873.607	-39.08
873.78	141.14
873.953	-80.04
874.126	63.32
874.299	-14.51
874.471	-6.31
874.644	-30.89
874.817	55.12
874.99	155.47
875.163	-84.14
875.335	102.23
875.508	-55.47
875.681	87.89
875.853	-37.03
876.026	-16.55
876.199	75.6
876.371	16.21
876.544	-2.22
876.717	-24.75
876.889	-80.04
877.062	71.51
877.234	-73.9
877.407	34.64
877.579	20.31
877.752	26.45
877.924	63.32
878.097	26.45
878.269	28.5
878.442	24.4
878.614	77.65
878.786	30.55
878.959	-34.99
879.131	44.88
879.303	-61.61
879.476	-2.22
879.648	81.75
879.82	14.17
879.993	-69.8
880.165	-26.79
880.337	-47.27
880.509	48.98
880.681	-98.47
880.854	-88.23
881.026	65.36
881.198	196.43
881.37	-0.17
881.542	18.26
881.714	-16.55
881.886	8.02
882.058	-12.46
882.23	-37.03
882.402	36.69
882.574	-12.46
882.746	67.41
882.918	89.94
883.09	67.41
883.262	-8.36
883.434	12.12
883.606	-121
883.778	-20.65
883.95	40.79
884.122	-18.6
884.293	26.45
884.465	-10.41
884.637	55.12
884.809	-24.75
884.98	-4.27
885.152	161.62
885.324	77.65
885.496	-32.94
885.667	-125.1
885.839	-10.41
886.011	120.66
886.182	63.32
886.354	46.93
886.525	-0.17
886.697	42.84
886.869	-55.47
887.04	-77.99
887.212	34.64
887.383	65.36
887.555	-67.75
887.726	-39.08
887.897	-4.27
888.069	42.84
888.24	61.27
888.412	18.26
888.583	18.26
888.754	-92.33
888.926	-129.19
889.097	-43.18
889.268	-8.36
889.44	-34.99
889.611	-63.66
889.782	-12.46
889.953	-147.62
890.125	87.89
890.296	-37.03
890.467	-24.75
890.638	-30.89
890.809	-26.79
890.98	-0.17
891.151	81.75
891.323	36.69
891.494	-24.75
891.665	16.21
891.836	1.88
892.007	44.88
892.178	-2.22
892.349	40.79
892.52	-61.61
892.691	-61.61
892.862	-49.32
893.032	-100.52
893.203	-14.51
893.374	1.88
893.545	10.07
893.716	-2.22
893.887	85.84
894.057	24.4
894.228	-55.47
894.399	-80.04
894.57	130.9
894.74	32.6
894.911	48.98
895.082	-39.08
895.253	-88.23
895.423	-8.36
895.594	91.99
895.764	28.5
895.935	-10.41
896.106	10.07
896.276	-69.8
896.447	-32.94
896.617	-34.99
896.788	-55.47
896.958	-14.51
897.129	-59.56
897.299	-59.56
897.47	32.6
897.64	1.88
897.81	34.64
897.981	83.8
898.151	-61.61
898.322	48.98
898.492	55.12
898.662	-34.99
898.832	-43.18
899.003	-82.09
899.173	104.28
899.343	-49.32
899.513	-63.66
