Data from USB4F104151__255__11-20-10-036.txt Node

Date: Wed Feb 26 11:20:10 EST 2025
User: louis
Spectrometer: USB4F10415
Trigger mode: 4
Integration Time (sec): 1.000000E-1
Scans to average: 1
Electric dark correction enabled: true
Nonlinearity correction enabled: false
Boxcar width: 0
XAxis mode: Wavelengths
Number of Pixels in Spectrum: 3648
>>>>>Begin Spectral Data<<<<<
178.204	-369.15
178.424	-369.15
178.644	-369.15
178.864	-383.48
179.084	-399.87
179.304	50.69
179.524	26.11
179.744	-49.66
179.964	-29.18
180.184	-20.99
180.404	15.87
180.624	15.87
180.844	-57.86
181.064	-23.04
181.283	15.87
181.503	26.11
181.723	30.21
181.943	-72.19
182.163	112.13
182.383	-18.94
182.602	46.59
182.822	167.42
183.042	93.69
183.262	1.54
183.482	32.26
183.701	17.92
183.921	54.78
184.141	-41.47
184.361	85.5
184.58	58.88
184.8	38.4
185.02	17.92
185.239	60.93
185.459	67.07
185.679	165.37
185.898	-70.14
186.118	-12.8
186.338	105.98
186.557	67.07
186.777	-57.86
186.997	-39.42
187.216	-23.04
187.436	220.67
187.655	19.97
187.875	153.09
188.095	30.21
188.314	114.17
188.534	114.17
188.753	-14.85
188.973	126.46
189.192	163.33
189.412	5.63
189.631	5.63
189.851	54.78
190.07	161.28
190.29	-100.86
190.509	-45.57
190.729	11.78
190.948	161.28
191.168	243.2
191.387	65.02
191.607	-20.99
191.826	15.87
192.045	-27.14
192.265	28.16
192.484	36.35
192.704	-29.18
192.923	-64
193.142	148.99
193.362	71.17
193.581	110.08
193.8	54.78
194.02	114.17
194.239	44.54
194.458	24.06
194.678	-47.62
194.897	1.54
195.116	65.02
195.335	13.82
195.555	73.21
195.774	-76.29
195.993	155.13
196.212	-23.04
196.432	-20.99
196.651	-29.18
196.87	9.73
197.089	226.81
197.308	62.98
197.528	-66.05
197.747	-41.47
197.966	46.59
198.185	101.89
198.404	-33.28
198.623	97.79
198.842	138.75
199.062	89.6
199.281	153.09
199.5	30.21
199.719	118.27
199.938	73.21
200.157	38.4
200.376	48.64
200.595	165.37
200.814	60.93
201.033	-47.62
201.252	136.7
201.471	56.83
201.69	56.83
201.909	19.97
202.128	126.46
202.347	93.69
202.566	48.64
202.785	5.63
203.004	-4.61
203.223	255.48
203.442	81.41
203.661	-6.66
203.879	67.07
204.098	56.83
204.317	-27.14
204.536	99.84
204.755	83.45
204.974	71.17
205.193	-6.66
205.411	146.94
205.63	144.89
205.849	118.27
206.068	32.26
206.287	-14.85
206.505	89.6
206.724	34.3
206.943	-14.85
207.162	60.93
207.381	62.98
207.599	52.74
207.818	17.92
208.037	-37.38
208.255	24.06
208.474	42.5
208.693	120.32
208.911	3.58
209.13	112.13
209.349	87.55
209.567	116.22
209.786	69.12
210.005	124.41
210.223	77.31
210.442	-88.57
210.661	11.78
210.879	34.3
211.098	24.06
211.316	7.68
211.535	95.74
211.753	-10.75
211.972	48.64
212.191	-39.42
212.409	13.82
212.628	126.46
212.846	-4.61
213.065	30.21
213.283	56.83
213.502	-53.76
213.72	126.46
213.938	58.88
214.157	22.02
214.375	81.41
214.594	-29.18
214.812	54.78
215.031	22.02
215.249	56.83
215.467	73.21
215.686	34.3
215.904	26.11
216.122	42.5
216.341	218.62
216.559	120.32
216.778	177.66
216.996	206.33
217.214	15.87
217.432	34.3
217.651	-53.76
217.869	38.4
218.087	26.11
218.306	1.54
218.524	11.78
218.742	44.54
218.96	60.93
219.179	134.65
219.397	-33.28
219.615	181.76
219.833	144.89
220.051	5.63
220.27	120.32
220.488	177.66
220.706	130.56
220.924	-18.94
221.142	-8.7
221.36	30.21
221.578	77.31
221.796	-14.85
222.015	-37.38
222.233	40.45
222.451	192
222.669	-6.66
222.887	46.59
223.105	30.21
223.323	54.78
223.541	26.11
223.759	75.26
223.977	-2.56
224.195	99.84
224.413	89.6
224.631	56.83
224.849	34.3
225.067	257.53
225.285	-2.56
225.503	24.06
225.721	-156.16
225.939	122.37
226.157	81.41
226.375	153.09
226.592	-70.14
226.81	60.93
227.028	22.02
227.246	99.84
227.464	19.97
227.682	46.59
227.9	-53.76
228.117	13.82
228.335	32.26
228.553	46.59
228.771	40.45
228.989	77.31
229.206	83.45
229.424	-8.7
229.642	17.92
229.86	-94.72
230.077	126.46
230.295	73.21
230.513	132.61
230.731	7.68
230.948	157.18
231.166	138.75
231.384	22.02
231.601	-12.8
231.819	200.19
232.037	-4.61
232.254	-49.66
232.472	-33.28
232.689	-14.85
232.907	114.17
233.125	-35.33
233.342	28.16
233.56	58.88
233.777	67.07
233.995	-12.8
234.213	60.93
234.43	56.83
234.648	15.87
234.865	-31.23
235.083	24.06
235.3	-29.18
235.518	52.74
235.735	128.51
235.953	169.47
236.17	124.41
236.388	19.97
236.605	67.07
236.822	83.45
237.04	110.08
237.257	22.02
237.475	50.69
237.692	79.36
237.909	-2.56
238.127	5.63
238.344	65.02
238.562	62.98
238.779	-6.66
238.996	-23.04
239.214	95.74
239.431	128.51
239.648	24.06
239.865	62.98
240.083	44.54
240.3	-51.71
240.517	17.92
240.735	67.07
240.952	126.46
241.169	40.45
241.386	85.5
241.603	32.26
241.821	-41.47
242.038	112.13
242.255	44.54
242.472	-12.8
242.689	97.79
242.907	151.04
243.124	91.65
243.341	-0.51
243.558	11.78
243.775	-78.33
243.992	-41.47
244.209	79.36
244.426	110.08
244.643	134.65
244.86	38.4
245.078	87.55
245.295	95.74
245.512	-51.71
245.729	5.63
245.946	65.02
246.163	42.5
246.38	58.88
246.597	60.93
246.814	48.64
247.031	22.02
247.248	-0.51
247.464	62.98
247.681	11.78
247.898	24.06
248.115	-12.8
248.332	-8.7
248.549	144.89
248.766	132.61
248.983	97.79
249.2	44.54
249.417	183.81
249.633	11.78
249.85	62.98
250.067	81.41
250.284	54.78
250.501	44.54
250.717	108.03
250.934	-66.05
251.151	13.82
251.368	-16.9
251.585	69.12
251.801	101.89
252.018	-2.56
252.235	165.37
252.451	-33.28
252.668	-33.28
252.885	67.07
253.102	22.02
253.318	5.63
253.535	26.11
253.752	-31.23
253.968	44.54
254.185	-96.77
254.401	5.63
254.618	71.17
254.835	-57.86
255.051	134.65
255.268	108.03
255.484	-10.75
255.701	58.88
255.917	-14.85
256.134	-14.85
256.351	28.16
256.567	-70.14
256.784	73.21
257	-68.09
257.217	116.22
257.433	79.36
257.65	58.88
257.866	222.72
258.082	-111.1
258.299	-64
258.515	69.12
258.732	17.92
258.948	13.82
259.165	40.45
259.381	-20.99
259.597	83.45
259.814	-6.66
260.03	24.06
260.246	-72.19
260.463	87.55
260.679	103.93
260.895	13.82
261.112	-39.42
261.328	13.82
261.544	22.02
261.761	183.81
261.977	-4.61
262.193	-2.56
262.409	58.88
262.626	15.87
262.842	-27.14
263.058	-8.7
263.274	81.41
263.49	67.07
263.707	9.73
263.923	71.17
264.139	-41.47
264.355	17.92
264.571	136.7
264.787	67.07
265.004	173.57
265.22	-31.23
265.436	-10.75
265.652	-12.8
265.868	32.26
266.084	-61.95
266.3	87.55
266.516	65.02
266.732	105.98
266.948	60.93
267.164	71.17
267.38	67.07
267.596	91.65
267.812	202.24
268.028	11.78
268.244	-18.94
268.46	34.3
268.676	-6.66
268.892	124.41
269.108	-8.7
269.324	-90.62
269.54	-76.29
269.756	60.93
269.972	11.78
270.188	30.21
270.403	-86.53
270.619	19.97
270.835	62.98
271.051	85.5
271.267	40.45
271.483	-25.09
271.698	142.85
271.914	38.4
272.13	62.98
272.346	-90.62
272.562	34.3
272.777	73.21
272.993	-27.14
273.209	1.54
273.425	85.5
273.64	-98.81
273.856	44.54
274.072	-98.81
274.287	65.02
274.503	73.21
274.719	105.98
274.934	83.45
275.15	-121.34
275.366	116.22
275.581	-70.14
275.797	-20.99
276.012	9.73
276.228	-31.23
276.444	5.63
276.659	126.46
276.875	-39.42
277.09	-45.57
277.306	1.54
277.521	42.5
277.737	28.16
277.952	75.26
278.168	-18.94
278.383	-8.7
278.599	36.35
278.814	108.03
279.03	28.16
279.245	105.98
279.461	-45.57
279.676	44.54
279.892	-70.14
280.107	50.69
280.322	-14.85
280.538	87.55
280.753	-51.71
280.969	-23.04
281.184	-27.14
281.399	122.37
281.615	40.45
281.83	128.51
282.045	-107.01
282.26	26.11
282.476	30.21
282.691	38.4
282.906	56.83
283.122	48.64
283.337	-74.24
283.552	65.02
283.767	-33.28
283.983	32.26
284.198	7.68
284.413	30.21
284.628	-78.33
284.843	24.06
285.058	24.06
285.274	-37.38
285.489	-59.9
285.704	105.98
285.919	-33.28
286.134	22.02
286.349	9.73
286.564	-41.47
286.779	169.47
286.995	-10.75
287.21	-12.8
287.425	60.93
287.64	-29.18
287.855	85.5
288.07	-74.24
288.285	73.21
288.5	24.06
288.715	65.02
288.93	17.92
289.145	5.63
289.36	122.37
289.575	77.31
289.79	167.42
290.004	-35.33
290.219	120.32
290.434	52.74
290.649	77.31
290.864	19.97
291.079	71.17
291.294	93.69
291.509	26.11
291.724	36.35
291.938	36.35
292.153	108.03
292.368	-0.51
292.583	112.13
292.798	97.79
293.012	163.33
293.227	79.36
293.442	-25.09
293.657	65.02
293.871	128.51
294.086	3.58
294.301	161.28
294.516	83.45
294.73	17.92
294.945	-145.92
295.16	9.73
295.374	77.31
295.589	65.02
295.804	-25.09
296.018	85.5
296.233	24.06
296.447	26.11
296.662	-45.57
296.877	87.55
297.091	99.84
297.306	46.59
297.52	7.68
297.735	34.3
297.949	3.58
298.164	-14.85
298.378	81.41
298.593	-12.8
298.807	3.58
299.022	44.54
299.236	144.89
299.451	11.78
299.665	5.63
299.88	46.59
300.094	101.89
300.309	-10.75
300.523	71.17
300.737	-10.75
300.952	54.78
301.166	85.5
301.381	-31.23
301.595	-8.7
301.809	3.58
302.024	42.5
302.238	-72.19
302.452	153.09
302.667	-25.09
302.881	124.41
303.095	46.59
303.309	5.63
303.524	3.58
303.738	-64
303.952	-55.81
304.166	65.02
304.381	-127.49
304.595	103.93
304.809	-33.28
305.023	103.93
305.237	22.02
305.452	-16.9
305.666	65.02
305.88	85.5
306.094	79.36
306.308	62.98
306.522	44.54
306.736	30.21
306.95	116.22
307.164	26.11
307.379	71.17
307.593	161.28
307.807	105.98
308.021	67.07
308.235	114.17
308.449	-107.01
308.663	91.65
308.877	249.34
309.091	52.74
309.305	54.78
309.519	-18.94
309.733	118.27
309.947	-6.66
310.161	26.11
310.374	130.56
310.588	136.7
310.802	-51.71
311.016	3.58
311.23	120.32
311.444	-68.09
311.658	54.78
311.872	167.42
312.085	116.22
312.299	83.45
312.513	87.55
312.727	93.69
312.941	48.64
313.154	-76.29
313.368	54.78
313.582	5.63
313.796	56.83
314.009	56.83
314.223	108.03
314.437	95.74
314.651	44.54
314.864	62.98
315.078	-59.9
315.292	-14.85
315.505	11.78
315.719	19.97
315.933	114.17
316.146	32.26
316.36	-4.61
316.573	130.56
316.787	-18.94
317.001	13.82
317.214	36.35
317.428	65.02
317.641	-76.29
317.855	15.87
318.068	58.88
318.282	79.36
318.495	99.84
318.709	71.17
318.922	15.87
319.136	-8.7
319.349	99.84
319.563	1.54
319.776	81.41
319.99	11.78
320.203	38.4
320.417	36.35
320.63	128.51
320.843	99.84
321.057	32.26
321.27	62.98
321.483	48.64
321.697	87.55
321.91	28.16
322.124	30.21
322.337	62.98
322.55	-64
322.763	58.88
322.977	-16.9
323.19	-20.99
323.403	85.5
323.617	91.65
323.83	50.69
324.043	30.21
324.256	9.73
324.469	-55.81
324.683	77.31
324.896	99.84
325.109	-16.9
325.322	-31.23
325.535	103.93
325.748	15.87
325.962	38.4
326.175	81.41
326.388	22.02
326.601	175.61
326.814	-12.8
327.027	46.59
327.24	103.93
327.453	-84.48
327.666	42.5
327.879	65.02
328.092	73.21
328.305	54.78
328.518	71.17
328.731	-23.04
328.944	9.73
329.157	83.45
329.37	-10.75
329.583	275.96
329.796	132.61
330.009	-49.66
330.222	163.33
330.435	114.17
330.648	5.63
330.861	17.92
331.073	50.69
331.286	151.04
331.499	-0.51
331.712	11.78
331.925	60.93
332.138	-4.61
332.35	65.02
332.563	-45.57
332.776	159.23
332.989	-66.05
333.202	-20.99
333.414	46.59
333.627	7.68
333.84	-0.51
334.053	3.58
334.265	42.5
334.478	-49.66
334.691	-14.85
334.903	46.59
335.116	17.92
335.329	79.36
335.541	124.41
335.754	116.22
335.966	5.63
336.179	15.87
336.392	-14.85
336.604	22.02
336.817	126.46
337.029	17.92
337.242	71.17
337.454	83.45
337.667	48.64
337.88	148.99
338.092	108.03
338.305	28.16
338.517	17.92
338.729	79.36
338.942	108.03
339.154	-35.33
339.367	-82.43
339.579	-4.61
339.792	24.06
340.004	77.31
340.217	-0.51
340.429	67.07
340.641	-90.62
340.854	-33.28
341.066	1.54
341.278	67.07
341.491	124.41
341.703	67.07
341.915	-10.75
342.128	79.36
342.34	69.12
342.552	-10.75
342.764	-37.38
342.977	-51.71
343.189	-14.85
343.401	13.82
343.613	-53.76
343.826	11.78
344.038	-59.9
344.25	50.69
344.462	-64
344.674	26.11
344.886	1.54
345.099	44.54
345.311	85.5
345.523	52.74
345.735	-119.29
345.947	62.98
346.159	40.45
346.371	120.32
346.583	67.07
346.795	218.62
347.007	93.69
347.219	-16.9
347.431	-8.7
347.643	85.5
347.855	-16.9
348.067	179.71
348.279	-55.81
348.491	22.02
348.703	42.5
348.915	30.21
349.127	-100.86
349.339	5.63
349.551	65.02
349.763	42.5
349.975	110.08
350.187	75.26
350.399	142.85
350.61	46.59
350.822	-2.56
351.034	24.06
351.246	73.21
351.458	28.16
351.669	99.84
351.881	-12.8
352.093	75.26
352.305	157.18
352.517	44.54
352.728	128.51
352.94	-6.66
353.152	79.36
353.363	-70.14
353.575	56.83
353.787	138.75
353.999	67.07
354.21	112.13
354.422	-43.52
354.633	19.97
354.845	30.21
355.057	28.16
355.268	7.68
355.48	69.12
355.692	-31.23
355.903	118.27
356.115	48.64
356.326	-14.85
356.538	194.05
356.749	3.58
356.961	189.95
357.172	26.11
357.384	-14.85
357.595	134.65
357.807	26.11
358.018	-2.56
358.23	42.5
358.441	165.37
358.653	48.64
358.864	28.16
359.075	-41.47
359.287	-31.23
359.498	95.74
359.709	50.69
359.921	3.58
360.132	-27.14
360.344	-27.14
360.555	-35.33
360.766	93.69
360.977	13.82
361.189	71.17
361.4	24.06
361.611	118.27
361.823	105.98
362.034	13.82
362.245	-14.85
362.456	9.73
362.667	52.74
362.879	-10.75
363.09	17.92
363.301	62.98
363.512	22.02
363.723	-35.33
363.935	38.4
364.146	171.52
364.357	52.74
364.568	15.87
364.779	-82.43
364.99	161.28
365.201	9.73
365.412	153.09
365.623	-6.66
365.834	-39.42
366.045	77.31
366.256	28.16
366.467	62.98
366.678	24.06
366.889	-47.62
367.1	-12.8
367.311	60.93
367.522	-37.38
367.733	38.4
367.944	95.74
368.155	-43.52
368.366	79.36
368.577	89.6
368.788	97.79
368.999	-27.14
369.209	56.83
369.42	198.14
369.631	198.14
369.842	58.88
370.053	-51.71
370.264	36.35
370.474	-47.62
370.685	19.97
370.896	71.17
371.107	73.21
371.317	9.73
371.528	15.87
371.739	153.09
371.95	116.22
372.16	52.74
372.371	-27.14
372.582	28.16
372.792	46.59
373.003	67.07
373.214	67.07
373.424	97.79
373.635	-27.14
373.846	124.41
374.056	93.69
374.267	-2.56
374.477	77.31
374.688	-43.52
374.898	73.21
375.109	9.73
375.319	62.98
375.53	114.17
375.74	73.21
375.951	77.31
376.161	60.93
376.372	136.7
376.582	-4.61
376.793	105.98
377.003	-16.9
377.214	-47.62
377.424	114.17
377.635	-14.85
377.845	34.3
378.055	120.32
378.266	9.73
378.476	34.3
378.686	34.3
378.897	11.78
379.107	67.07
379.317	38.4
379.528	34.3
379.738	171.52
379.948	-2.56
380.158	128.51
380.369	110.08
380.579	67.07
380.789	17.92
380.999	93.69
381.21	151.04
381.42	157.18
381.63	-12.8
381.84	34.3
382.05	40.45
382.261	95.74
382.471	65.02
382.681	13.82
382.891	118.27
383.101	24.06
383.311	-12.8
383.521	-41.47
383.731	54.78
383.941	144.89
384.151	58.88
384.361	48.64
384.571	120.32
384.781	77.31
384.991	122.37
385.201	212.48
385.411	110.08
385.621	151.04
385.831	46.59
386.041	34.3
386.251	-10.75
386.461	122.37
386.671	22.02
386.881	91.65
387.091	-23.04
387.301	97.79
387.511	13.82
387.72	36.35
387.93	138.75
388.14	-41.47
388.35	22.02
388.56	136.7
388.769	54.78
388.979	-29.18
389.189	-20.99
389.399	-2.56
389.609	93.69
389.818	17.92
390.028	-14.85
390.238	120.32
390.447	-25.09
390.657	-14.85
390.867	30.21
391.076	-96.77
391.286	116.22
391.496	-33.28
391.705	67.07
391.915	116.22
392.125	144.89
392.334	-14.85
392.544	198.14
392.753	-70.14
392.963	-23.04
393.172	36.35
393.382	-35.33
393.591	189.95
393.801	-39.42
394.01	128.51
394.22	130.56
394.429	56.83
394.639	-2.56
394.848	38.4
395.058	26.11
395.267	7.68
395.477	132.61
395.686	75.26
395.895	169.47
396.105	159.23
396.314	50.69
396.524	-35.33
396.733	15.87
396.942	73.21
397.152	79.36
397.361	112.13
397.57	85.5
397.78	120.32
397.989	46.59
398.198	173.57
398.407	44.54
398.617	-16.9
398.826	-4.61
399.035	17.92
399.244	32.26
399.453	48.64
399.663	22.02
399.872	22.02
400.081	-31.23
400.29	114.17
400.499	7.68
400.708	79.36
400.917	69.12
401.127	60.93
401.336	110.08
401.545	183.81
401.754	165.37
401.963	32.26
402.172	-20.99
402.381	-66.05
402.59	11.78
402.799	32.26
403.008	62.98
403.217	46.59
403.426	60.93
403.635	-76.29
403.844	40.45
404.053	-20.99
404.262	-10.75
404.471	171.52
404.68	67.07
404.888	28.16
405.097	-47.62
405.306	36.35
405.515	140.8
405.724	-20.99
405.933	81.41
406.142	28.16
406.35	157.18
406.559	-27.14
406.768	-92.67
406.977	173.57
407.185	44.54
407.394	62.98
407.603	-18.94
407.812	54.78
408.02	97.79
408.229	-39.42
408.438	103.93
408.646	-119.29
408.855	38.4
409.064	101.89
409.272	22.02
409.481	46.59
409.69	52.74
409.898	-64
410.107	97.79
410.315	83.45
410.524	-18.94
410.733	42.5
410.941	30.21
411.15	30.21
411.358	146.94
411.567	87.55
411.775	17.92
411.984	38.4
412.192	136.7
412.401	36.35
412.609	75.26
412.818	69.12
413.026	148.99
413.234	52.74
413.443	62.98
413.651	-53.76
413.86	46.59
414.068	212.48
414.276	177.66
414.485	-16.9
414.693	157.18
414.901	194.05
415.11	58.88
415.318	22.02
415.526	-20.99
415.734	118.27
415.943	-2.56
416.151	144.89
416.359	108.03
416.567	67.07
416.776	108.03
416.984	56.83
417.192	192
417.4	-12.8
417.608	44.54
417.817	-2.56
418.025	62.98
418.233	91.65
418.441	73.21
418.649	-20.99
418.857	28.16
419.065	175.61
419.273	15.87
419.481	1.54
419.689	30.21
419.897	50.69
420.105	-18.94
420.313	79.36
420.521	155.13
420.729	130.56
420.937	-61.95
421.145	38.4
421.353	89.6
421.561	169.47
421.769	17.92
421.977	7.68
422.185	118.27
422.393	-0.51
422.601	99.84
422.809	99.84
423.017	136.7
423.224	75.26
423.432	42.5
423.64	97.79
423.848	159.23
424.056	-68.09
424.263	124.41
424.471	38.4
424.679	73.21
424.887	13.82
425.094	157.18
425.302	105.98
425.51	40.45
425.718	116.22
425.925	46.59
426.133	30.21
426.341	226.81
426.548	77.31
426.756	3.58
426.964	165.37
427.171	30.21
427.379	118.27
427.586	56.83
427.794	153.09
428.001	179.71
428.209	48.64
428.417	202.24
428.624	138.75
428.832	50.69
429.039	22.02
429.247	140.8
429.454	50.69
429.662	228.86
429.869	148.99
430.076	169.47
430.284	42.5
430.491	204.28
430.699	116.22
430.906	175.61
431.114	110.08
431.321	161.28
431.528	-2.56
431.736	161.28
431.943	130.56
432.15	146.94
432.358	148.99
432.565	288.25
432.772	26.11
432.979	239.1
433.187	159.23
433.394	243.2
433.601	114.17
433.808	239.1
434.016	192
434.223	108.03
434.43	171.52
434.637	210.43
434.844	232.96
435.052	216.57
435.259	325.12
435.466	175.61
435.673	284.16
435.88	241.15
436.087	286.2
436.294	351.74
436.501	304.64
436.708	255.48
436.915	300.54
437.122	290.3
437.329	329.21
437.537	259.58
437.743	327.16
437.95	349.69
438.157	343.55
438.364	415.23
438.571	364.03
438.778	366.07
438.985	439.8
439.192	536.06
439.399	413.18
439.606	447.99
439.813	529.91
440.02	531.96
440.227	632.31
440.433	638.45
440.64	503.29
440.847	470.52
441.054	620.02
441.261	730.61
441.467	620.02
441.674	538.1
441.881	706.04
442.088	667.13
442.294	777.72
442.501	740.85
442.708	765.43
442.914	697.85
443.121	830.96
443.328	816.63
443.534	861.68
443.741	855.54
443.948	767.48
444.154	949.75
444.361	1140.21
444.568	912.88
444.774	1080.82
444.981	966.13
445.187	1113.58
445.394	1115.63
445.6	1101.3
445.807	1349.1
446.013	1160.69
446.22	1111.54
446.426	1345
446.633	1480.17
446.839	1576.42
447.046	1406.44
447.252	1508.84
447.459	1514.98
447.665	1545.7
447.871	1893.86
448.078	1881.57
448.284	1754.6
448.491	1938.91
448.697	1998.31
448.903	2065.89
449.11	2035.17
449.316	1940.96
449.522	2276.83
449.728	2420.19
449.935	2442.71
450.141	2467.29
450.347	2688.47
450.553	2534.87
450.76	2584.02
450.966	2880.98
451.172	2768.34
451.378	2946.52
451.584	3157.46
451.791	3401.16
451.997	3261.9
452.203	3456.46
452.409	3653.06
452.615	3698.12
452.821	3575.24
453.027	3763.65
453.233	4238.78
453.44	4044.23
453.646	4337.09
453.852	4453.82
454.058	4416.96
454.264	4810.17
454.47	4945.33
454.676	5133.75
454.882	5377.45
455.088	5219.76
455.294	5567.92
455.5	5871.01
455.705	6354.34
455.911	6296.99
456.117	6432.16
456.323	6516.12
456.529	6720.92
456.735	7097.75
456.941	7611.79
457.147	7767.43
457.352	7929.22
457.558	8140.16
457.764	8924.54
457.97	8932.73
458.176	9241.97
458.381	9655.66
458.587	10077.54
458.793	10478.94
458.999	10360.16
459.204	11685.2
459.41	11976.01
459.616	11933
459.821	12776.77
460.027	13092.15
460.233	13892.91
460.438	13667.63
460.644	14699.81
460.85	14767.39
461.055	15537.43
461.261	16209.16
461.466	15738.13
461.672	16149.77
461.878	17980.65
462.083	17837.3
462.289	18181.35
462.494	18922.72
462.7	18808.03
462.905	19205.34
463.111	20833.47
463.316	21781.68
463.522	22228.14
463.727	22858.92
463.932	24009.87
464.138	24833.16
464.343	25375.87
464.549	25754.74
464.754	27325.54
464.959	28318.8
465.165	29125.7
465.37	28466.25
465.575	28511.31
465.781	30561.33
465.986	31255.59
466.191	31013.93
466.397	30923.82
466.602	30737.45
466.807	32332.82
467.012	32812.04
467.218	33367.04
467.423	33301.51
467.628	34331.64
467.833	36250.58
468.038	35288.04
468.244	34829.29
468.449	36795.34
468.654	35568.61
468.859	35976.16
469.064	36316.12
469.269	35431.4
469.474	35392.48
469.679	36631.51
469.885	35339.24
470.09	35820.51
470.295	35875.8
470.5	35159.02
470.705	35349.48
470.91	34409.46
471.115	34282.48
471.32	34597.87
471.525	34630.64
471.73	33688.57
471.935	33334.28
472.139	32207.89
472.344	32160.79
472.549	31912.99
472.754	31355.94
472.959	30581.81
473.164	29633.6
473.369	28953.67
473.574	30323.76
473.778	29371.46
473.983	29109.32
474.188	28304.46
474.393	27190.37
474.598	27296.86
474.802	26582.12
475.007	25980.02
475.212	25988.21
475.417	24734.85
475.621	24691.85
475.826	24489.1
476.031	23608.47
476.235	23168.16
476.44	23176.35
476.645	22613.16
476.849	22224.04
477.054	22176.94
477.259	21343.42
477.463	21417.15
477.668	20812.99
477.872	21097.66
478.077	20321.48
478.282	19868.88
478.486	19776.72
478.691	19444.95
478.895	19252.44
479.1	19145.95
479.304	19061.98
479.509	18238.7
479.713	18689.25
479.918	18064.62
480.122	17804.53
480.326	17911.02
480.531	18054.38
480.735	17601.78
480.94	17480.95
481.144	17941.74
481.348	16948.48
481.553	16979.2
481.757	16790.78
481.961	16831.74
482.166	17048.83
482.37	16678.15
482.574	16250.12
482.778	16278.79
482.983	16354.57
483.187	16114.95
483.391	16227.59
483.595	15723.79
483.8	15482.13
484.004	15420.69
484.208	15889.68
484.412	15181.08
484.616	15359.25
484.821	15279.38
485.025	14527.78
485.229	14744.86
485.433	14339.37
485.637	14425.38
485.841	14026.03
486.045	13843.76
486.249	13841.71
486.453	13362.48
486.657	13360.44
486.861	13362.48
487.065	12840.25
487.269	12930.36
487.473	12209.48
487.677	12481.86
487.881	12459.33
488.085	11973.96
488.289	11953.48
488.493	11767.12
488.697	11701.58
488.901	11345.23
489.105	10827.1
489.309	10853.72
489.512	10734.94
489.716	10661.21
489.92	10485.09
490.124	10153.32
490.328	10116.45
490.531	9678.19
490.735	9696.62
490.939	9532.78
491.143	9321.84
491.346	9237.88
491.55	9147.76
491.754	8768.89
491.958	8709.5
492.161	8560
492.365	8367.49
492.569	8129.92
492.772	8404.35
492.976	8220.03
493.18	8056.2
493.383	8033.67
493.587	7800.2
493.79	7886.22
493.994	7517.58
494.197	7505.29
494.401	7505.29
494.605	7462.29
494.808	7486.86
495.012	7316.88
495.215	7411.09
495.419	7318.93
495.622	7032.21
495.825	7171.47
496.029	7054.74
496.232	7181.71
496.436	6985.11
496.639	7159.19
496.843	6981.01
497.046	6950.29
497.249	7153.04
497.453	7021.97
497.656	6790.55
497.859	6917.53
498.063	7060.88
498.266	7130.52
498.469	6856.09
498.673	6892.95
498.876	7146.9
499.079	6995.35
499.282	6786.46
499.485	7251.35
499.689	7292.3
499.892	7374.22
500.095	7286.16
500.298	7349.65
500.501	7216.53
500.705	7468.43
500.908	7554.44
501.111	7452.05
501.314	7464.33
501.517	7775.63
501.72	7886.22
501.923	7736.71
502.126	7986.57
502.329	8007.05
502.532	8301.95
502.735	8201.6
502.938	8406.4
503.141	8357.25
503.344	8332.67
503.547	8523.13
503.75	8729.98
503.953	8834.43
504.156	8985.97
504.359	8942.97
504.562	9063.8
504.765	9198.96
504.968	9450.86
505.17	9356.66
505.373	9663.85
505.576	9803.11
505.779	10220.9
505.982	10126.69
506.185	10376.55
506.387	10450.27
506.59	10716.51
506.793	11081.05
506.996	10999.13
507.198	11513.17
507.401	11468.11
507.604	11803.98
507.807	12035.4
508.009	12246.34
508.212	12381.51
508.415	12598.59
508.617	12844.35
508.82	12987.71
509.022	13278.52
509.225	13747.5
509.428	13962.54
509.63	14122.28
509.833	14476.58
510.035	15031.58
510.238	15330.58
510.44	15443.22
510.643	15959.31
510.845	16282.89
511.048	16403.72
511.25	16946.43
511.453	17175.8
511.655	18013.42
511.858	18042.09
512.06	18537.7
512.262	19018.97
512.465	18945.25
512.667	19500.25
512.87	20233.42
513.072	20393.16
513.274	21152.96
513.477	21265.6
513.679	22219.95
513.881	22428.84
514.084	23139.49
514.286	23688.34
514.488	23837.84
514.69	25062.53
514.893	24976.51
515.095	25564.28
515.297	26068.08
515.499	26596.46
515.701	27370.59
515.904	27866.2
516.106	28249.17
516.308	28742.73
516.51	29594.68
516.712	29584.44
516.914	30684.2
517.116	31403.04
517.318	31687.71
517.52	32255
517.722	32455.7
517.925	33778.68
518.127	34401.27
518.329	34782.19
518.531	35417.06
518.733	36142.04
518.935	36647.89
519.136	36922.32
519.338	37661.63
519.54	38046.65
519.742	38831.02
519.944	38970.29
520.146	40004.51
520.348	40475.54
520.55	40831.89
520.752	41163.66
520.954	42118.01
521.155	42095.49
521.357	42613.62
521.559	43330.41
521.761	44376.92
521.963	44055.39
522.164	44809.04
522.366	44864.34
522.568	45714.25
522.77	45536.07
522.971	46791.48
523.173	46332.73
523.375	46771
523.576	46846.77
523.778	46834.49
523.98	47942.44
524.181	47837.99
524.383	47813.41
524.584	48479
524.786	48448.28
524.988	47901.48
525.189	48618.27
525.391	48859.93
525.592	48745.24
525.794	48915.22
525.995	48720.66
526.197	48638.75
526.398	48495.39
526.6	48309.02
526.801	48646.94
527.003	48081.7
527.204	48134.95
527.406	48163.62
527.607	47889.19
527.808	47932.2
528.01	47008.56
528.211	47383.34
528.412	47518.51
528.614	47082.29
528.815	46377.79
529.016	46641.98
529.218	45595.46
529.419	45421.39
529.62	45120.34
529.822	44477.27
530.023	44206.94
530.224	43936.61
530.425	43707.24
530.626	42754.93
530.828	42075.01
531.029	42711.92
531.23	42132.35
531.431	41304.97
531.632	41173.9
531.833	40510.36
532.035	40405.91
532.236	39672.74
532.437	39330.73
532.638	38607.79
532.839	38339.51
533.04	37811.14
533.241	37010.38
533.442	37428.16
533.643	36783.05
533.844	35613.66
534.045	35619.81
534.246	34929.64
534.447	34540.53
534.648	33803.26
534.849	33973.24
535.05	33182.73
535.251	32474.13
535.451	32263.19
535.652	32017.43
535.853	31198.24
536.054	31140.9
536.255	30561.33
536.456	29781.05
536.657	30286.9
536.857	29393.98
537.058	28871.75
537.259	28593.23
537.46	28251.22
537.66	27757.66
537.861	27620.44
538.062	27227.23
538.263	26805.35
538.463	26205.3
538.664	25941.11
538.865	25836.66
539.065	25853.05
539.266	24863.88
539.466	24779.91
539.667	24448.14
539.868	24257.68
540.068	24003.73
540.269	23934.1
540.469	23686.29
540.67	22959.27
540.87	22838.44
541.071	22674.6
541.271	22490.28
541.472	22140.08
541.672	21667
541.873	21734.58
542.073	21105.85
542.274	21095.61
542.474	21028.03
542.675	20548.81
542.875	20196.56
543.075	20002
543.276	19539.16
543.476	19838.16
543.676	19211.48
543.877	19248.35
544.077	19141.85
544.277	18756.83
544.478	18568.42
544.678	18224.36
544.878	18093.29
545.078	18103.53
545.279	17730.8
545.479	17736.95
545.679	17573.11
545.879	17073.4
546.079	17048.83
546.28	16628.99
546.48	16434.44
546.68	16657.67
546.88	16016.65
547.08	16030.99
547.28	15922.45
547.48	15371.54
547.68	15340.82
547.88	15103.26
548.081	15179.03
548.281	14906.65
548.481	14476.58
548.681	14513.44
548.881	14286.12
549.081	14228.77
549.28	13919.53
549.48	13714.73
549.68	13757.74
549.88	13581.62
550.08	13061.43
550.28	13032.76
550.48	12985.66
550.68	12750.14
550.88	12526.91
551.08	12191.05
551.279	12174.66
551.479	11826.51
551.679	11877.71
551.879	11722.06
552.079	11724.11
552.278	11197.78
552.478	11101.53
552.678	10917.21
552.878	10904.92
553.077	10587.49
553.277	10440.03
553.477	10378.59
553.676	10315.11
553.876	10040.68
554.076	9641.32
554.275	9860.46
554.475	9469.3
554.674	9352.56
554.874	9393.52
555.074	8992.12
555.273	8953.21
555.473	8746.36
555.672	8539.52
555.872	8613.24
556.071	8435.07
556.271	8471.93
556.47	8174.98
556.67	7820.68
556.869	7873.93
557.068	7693.71
557.268	7550.35
557.467	7394.7
557.667	7640.46
557.866	7402.9
558.065	7226.77
558.265	6952.34
558.464	6714.78
558.663	7062.93
558.863	6843.8
559.062	6700.44
559.261	6385.05
559.461	6606.24
559.66	6227.36
559.859	6122.91
560.058	6057.38
560.258	5903.78
560.457	5797.29
560.656	5932.45
560.855	5578.15
561.054	5741.99
561.253	5492.14
561.453	5461.42
561.652	5385.65
561.851	5338.54
562.05	5139.89
562.249	4945.33
562.448	5250.48
562.647	4863.41
562.846	4775.35
563.045	4820.41
563.244	4711.86
563.443	4740.54
563.642	4625.85
563.841	4515.26
564.04	4419
564.239	4437.44
564.438	4294.08
564.637	4234.69
564.836	4019.65
565.035	4025.79
565.234	4224.45
565.432	4076.99
565.631	4007.36
565.83	4017.6
566.029	3931.59
566.228	3782.09
566.427	3763.65
566.625	3610.06
566.824	3657.16
567.023	3628.49
567.222	3653.06
567.42	3534.28
567.619	3558.86
567.818	3460.56
568.016	3591.63
568.215	3317.2
568.414	3323.34
568.612	3151.31
568.811	3149.26
569.01	3192.27
569.208	3085.78
569.407	3075.54
569.605	2993.62
569.804	2936.28
570.002	2966.99
570.201	2815.45
570.4	2921.94
570.598	2719.19
570.797	2813.4
570.995	2610.65
571.193	2637.27
571.392	2725.33
571.59	2479.58
571.789	2538.97
571.987	2528.73
572.186	2659.8
572.384	2291.17
572.582	2510.3
572.781	2375.13
572.979	2127.33
573.177	2209.25
573.376	2227.68
573.574	2364.89
573.772	2180.57
573.971	2078.18
574.169	1998.31
574.367	2092.51
574.565	1945.06
574.763	2006.5
574.962	2086.37
575.16	1945.06
575.358	1869.28
575.556	1889.76
575.754	1949.15
575.952	1867.24
576.151	1770.98
576.349	1836.52
576.547	1684.97
576.745	1793.51
576.943	1734.12
577.141	1596.9
577.339	1512.94
577.537	1629.67
577.735	1584.62
577.933	1662.44
578.131	1426.92
578.329	1584.62
578.527	1375.72
578.725	1496.55
578.923	1328.62
579.121	1422.83
579.319	1215.98
579.516	1480.17
579.714	1557.99
579.912	1299.95
580.11	1293.8
580.308	1318.38
580.506	1211.89
580.704	1197.55
580.901	1148.4
581.099	1349.1
581.297	1136.11
581.495	1258.99
581.692	1209.84
581.89	1287.66
582.088	1164.78
582.285	1129.97
582.483	1050.1
582.681	1062.38
582.878	1074.67
583.076	996.85
583.274	1052.14
583.471	1181.17
583.669	1023.47
583.866	929.27
584.064	937.46
584.262	869.87
584.459	955.89
584.657	982.51
584.854	974.32
585.052	904.69
585.249	943.6
585.447	888.31
585.644	669.17
585.841	1002.99
586.039	923.12
586.236	937.46
586.434	773.62
586.631	757.24
586.828	818.68
587.026	959.99
587.223	734.71
587.42	771.57
587.618	755.19
587.815	861.68
588.012	720.37
588.21	740.85
588.407	847.35
588.604	806.39
588.801	644.6
588.999	701.94
589.196	773.62
589.393	673.27
589.59	722.42
589.787	685.56
589.984	785.91
590.182	673.27
590.379	613.88
590.576	699.89
590.773	613.88
590.97	601.59
591.167	701.94
591.364	747
591.561	542.2
591.758	722.42
591.955	744.95
592.152	550.39
592.349	644.6
592.546	669.17
592.743	636.41
592.94	613.88
593.137	736.76
593.334	734.71
593.531	695.8
593.727	654.84
593.924	624.12
594.121	663.03
594.318	550.39
594.515	630.26
594.712	763.38
594.908	742.9
595.105	550.39
595.302	665.08
595.499	691.7
595.696	751.09
595.892	630.26
596.089	747
596.286	644.6
596.482	902.64
596.679	796.15
596.876	808.44
597.072	792.05
597.269	781.81
597.466	845.3
597.662	939.51
597.859	849.4
598.055	847.35
598.252	902.64
598.448	984.56
598.645	943.6
598.841	1070.58
599.038	1070.58
599.234	1168.88
599.431	1168.88
599.627	1222.13
599.824	1412.59
600.02	1261.04
600.217	1277.42
600.413	1363.44
600.609	1408.49
600.806	1697.25
601.002	1482.22
601.198	1633.77
601.395	1684.97
601.591	1801.7
601.787	1658.34
601.984	1940.96
602.18	1930.72
602.376	1910.24
602.572	2080.22
602.769	2192.86
602.965	2174.43
603.161	2362.84
603.357	2360.8
603.553	2559.45
603.75	2448.86
603.946	2653.66
604.142	2594.26
604.338	2807.25
604.534	2825.68
604.73	2962.9
604.926	2971.09
605.122	3218.89
605.318	3229.13
605.514	3409.36
605.71	3376.59
605.906	3638.73
606.102	3675.59
606.298	3884.48
606.494	3808.71
606.69	4095.43
606.886	4046.27
607.082	4173.25
607.278	4304.32
607.474	4351.42
607.67	4666.81
607.866	4672.95
608.062	4980.15
608.257	4994.48
608.453	4990.39
608.649	5397.93
608.845	5371.31
609.041	5322.16
609.236	5678.51
609.432	5967.27
609.628	6063.52
609.824	6165.92
610.019	6184.35
610.215	6434.21
610.411	6784.41
610.606	6884.76
610.802	6958.49
610.998	7165.33
611.193	7454.09
611.389	7488.91
611.584	7832.97
611.78	7785.87
611.976	8113.54
612.171	8441.22
612.367	8498.56
612.562	8783.23
612.758	9026.93
612.953	9100.66
613.149	9491.82
613.344	9801.07
613.539	9938.28
613.735	9956.71
613.93	10655.07
614.126	10818.91
614.321	11214.16
614.517	11234.64
614.712	11605.33
614.907	11896.14
615.103	12389.7
615.298	12252.49
615.493	12909.88
615.688	12997.95
615.884	13583.66
616.079	13540.66
616.274	14046.51
616.47	14365.99
616.665	15004.96
616.86	15090.97
617.055	15398.17
617.25	16125.19
617.445	16428.29
617.641	16608.51
617.836	17321.21
618.031	17437.94
618.226	18210.03
618.421	18312.42
618.616	18885.86
618.811	19162.33
619.006	19815.63
619.201	19860.69
619.396	20751.56
619.591	20632.77
619.786	21429.43
619.981	21568.69
620.176	22320.3
620.371	22512.81
620.566	23401.63
620.761	23616.66
620.956	24308.88
621.151	24587.4
621.346	24835.21
621.541	25207.94
621.735	26291.31
621.93	26229.87
622.125	27094.11
622.32	27206.75
622.515	28218.45
622.709	28474.45
622.904	28947.53
623.099	29269.06
623.294	30049.33
623.488	30334
623.683	31218.72
623.878	30796.84
624.072	31908.89
624.267	32635.92
624.462	32549.9
624.656	33192.97
624.851	33965.05
625.046	34247.67
625.24	34749.42
625.435	34986.99
625.629	35857.37
625.824	36299.73
626.018	36791.25
626.213	36445.14
626.407	37653.44
626.602	37526.47
626.796	38427.57
626.991	38564.79
627.185	38898.61
627.38	38923.18
627.574	39336.87
627.768	39461.8
627.963	39642.02
628.157	39703.46
628.352	39959.45
628.546	39709.6
628.74	40123.29
628.935	39637.92
629.129	40020.89
629.323	39547.81
629.517	39656.35
629.712	39293.86
629.906	38917.04
630.1	38398.9
630.294	38646.71
630.489	37493.7
630.683	37624.77
630.877	37055.43
631.071	36174.81
631.265	36031.45
631.459	34776.05
631.653	34196.47
631.848	33977.34
632.042	32713.74
632.236	32189.46
632.43	31233.06
632.624	30444.59
632.818	29502.53
633.012	28716.11
633.206	27626.59
633.4	26907.75
633.594	25937.01
633.788	24900.74
633.982	24470.67
634.176	23741.59
634.369	22420.65
634.563	21922.99
634.757	20931.78
634.951	20147.4
635.145	19533.01
635.339	18636
635.533	17988.85
635.726	17249.53
635.92	16237.83
636.114	15684.88
636.308	15093.02
636.501	14478.63
636.695	14028.07
636.889	13247.8
637.083	12850.49
637.276	12170.57
637.47	11726.16
637.664	11248.98
637.857	10935.64
638.051	10521.95
638.244	9919.85
638.438	9493.87
638.632	9454.96
638.825	8859
639.019	8555.9
639.212	8183.17
639.406	7925.13
639.599	7466.38
639.793	7251.35
639.986	6981.01
640.18	6962.58
640.373	6286.75
640.567	6114.72
640.76	5926.31
640.954	5832.1
641.147	5422.51
641.34	5072.31
641.534	5234.1
641.727	4974
641.92	4855.22
642.114	4478.4
642.307	4429.24
642.5	4154.82
642.694	4003.27
642.887	3980.74
643.08	3790.28
643.273	3605.96
643.467	3448.27
643.66	3395.02
643.853	3014.1
644.046	3077.59
644.239	2954.71
644.432	2799.06
644.626	2653.66
644.819	2592.22
645.012	2467.29
645.205	2426.33
645.398	2399.71
645.591	2330.08
645.784	2080.22
645.977	1936.87
646.17	1953.25
646.363	1816.04
646.556	1852.9
646.749	1746.41
646.942	1758.69
647.135	1658.34
647.328	1523.18
647.521	1650.15
647.714	1447.4
647.907	1424.87
648.099	1281.52
648.292	1414.63
648.485	1381.87
648.678	1177.07
648.871	1107.44
649.064	1215.98
649.256	988.66
649.449	1002.99
649.642	927.22
649.835	953.84
650.027	873.97
650.22	882.16
650.413	796.15
650.605	873.97
650.798	841.2
650.991	689.65
651.183	812.53
651.376	808.44
651.568	759.28
651.761	665.08
651.954	710.13
652.146	595.45
652.339	699.89
652.531	536.06
652.724	550.39
652.916	462.33
653.109	474.62
653.301	638.45
653.494	521.72
653.686	466.42
653.879	544.25
654.071	488.95
654.263	368.12
654.456	376.31
654.648	468.47
654.84	394.75
655.033	402.94
655.225	433.66
655.417	245.24
655.61	593.4
655.802	425.47
655.994	372.22
656.186	230.91
656.379	509.43
656.571	353.79
656.763	333.31
656.955	247.29
657.148	273.92
657.34	312.83
657.532	275.96
657.724	271.87
657.916	339.45
658.108	347.64
658.3	333.31
658.492	257.53
658.684	249.34
658.876	304.64
659.068	194.05
659.26	202.24
659.452	144.89
659.644	232.96
659.836	384.51
660.028	251.39
660.22	134.65
660.412	232.96
660.604	259.58
660.796	192
660.988	388.6
661.18	286.2
661.372	339.45
661.563	105.98
661.755	224.76
661.947	218.62
662.139	112.13
662.331	151.04
662.522	239.1
662.714	140.8
662.906	28.16
663.097	142.85
663.289	101.89
663.481	24.06
663.673	292.35
663.864	169.47
664.056	265.72
664.247	91.65
664.439	253.44
664.631	118.27
664.822	148.99
665.014	112.13
665.205	138.75
665.397	105.98
665.588	122.37
665.78	91.65
665.971	228.86
666.163	83.45
666.354	185.85
666.546	32.26
666.737	118.27
666.929	95.74
667.12	65.02
667.311	187.9
667.503	124.41
667.694	128.51
667.885	132.61
668.077	202.24
668.268	34.3
668.459	124.41
668.651	89.6
668.842	142.85
669.033	126.46
669.224	-8.7
669.416	331.26
669.607	97.79
669.798	77.31
669.989	194.05
670.18	83.45
670.371	218.62
670.563	19.97
670.754	161.28
670.945	120.32
671.136	161.28
671.327	73.21
671.518	163.33
671.709	218.62
671.9	132.61
672.091	181.76
672.282	179.71
672.473	136.7
672.664	85.5
672.855	153.09
673.046	204.28
673.237	198.14
673.428	93.69
673.619	187.9
673.809	114.17
674	230.91
674.191	118.27
674.382	146.94
674.573	54.78
674.764	200.19
674.954	165.37
675.145	44.54
675.336	124.41
675.527	108.03
675.717	-25.09
675.908	93.69
676.099	38.4
676.289	116.22
676.48	30.21
676.671	52.74
676.861	89.6
677.052	165.37
677.243	110.08
677.433	128.51
677.624	169.47
677.814	118.27
678.005	114.17
678.195	292.35
678.386	48.64
678.576	114.17
678.767	62.98
678.957	71.17
679.148	165.37
679.338	241.15
679.529	128.51
679.719	58.88
679.909	206.33
680.1	196.09
680.29	138.75
680.481	13.82
680.671	202.24
680.861	179.71
681.052	171.52
681.242	56.83
681.432	167.42
681.622	120.32
681.813	95.74
682.003	56.83
682.193	79.36
682.383	140.8
682.573	163.33
682.764	93.69
682.954	155.13
683.144	185.85
683.334	114.17
683.524	124.41
683.714	146.94
683.904	153.09
684.094	134.65
684.284	114.17
684.474	288.25
684.664	179.71
684.854	130.56
685.044	105.98
685.234	155.13
685.424	134.65
685.614	48.64
685.804	271.87
685.994	198.14
686.184	185.85
686.374	192
686.564	212.48
686.753	167.42
686.943	60.93
687.133	120.32
687.323	65.02
687.513	218.62
687.702	157.18
687.892	124.41
688.082	163.33
688.272	146.94
688.461	200.19
688.651	323.07
688.841	218.62
689.03	140.8
689.22	120.32
689.41	122.37
689.599	202.24
689.789	52.74
689.979	286.2
690.168	153.09
690.358	228.86
690.547	140.8
690.737	181.76
690.926	173.57
691.116	169.47
691.305	146.94
691.495	157.18
691.684	69.12
691.874	124.41
692.063	105.98
692.252	187.9
692.442	161.28
692.631	153.09
692.82	146.94
693.01	153.09
693.199	169.47
693.388	232.96
693.578	128.51
693.767	200.19
693.956	185.85
694.146	173.57
694.335	142.85
694.524	124.41
694.713	206.33
694.902	103.93
695.092	103.93
695.281	169.47
695.47	165.37
695.659	128.51
695.848	58.88
696.037	85.5
696.226	220.67
696.415	224.76
696.604	206.33
696.793	148.99
696.982	87.55
697.171	181.76
697.36	108.03
697.549	93.69
697.738	28.16
697.927	112.13
698.116	83.45
698.305	226.81
698.494	206.33
698.683	101.89
698.872	329.21
699.061	171.52
699.25	124.41
699.438	69.12
699.627	167.42
699.816	294.4
700.005	28.16
700.193	161.28
700.382	192
700.571	187.9
700.76	175.61
700.948	292.35
701.137	136.7
701.326	284.16
701.514	-2.56
701.703	54.78
701.892	124.41
702.08	230.91
702.269	97.79
702.457	62.98
702.646	161.28
702.834	46.59
703.023	204.28
703.212	243.2
703.4	161.28
703.589	87.55
703.777	97.79
703.965	116.22
704.154	62.98
704.342	75.26
704.531	140.8
704.719	130.56
704.907	177.66
705.096	122.37
705.284	71.17
705.472	198.14
705.661	155.13
705.849	187.9
706.037	226.81
706.226	200.19
706.414	187.9
706.602	54.78
706.79	177.66
706.979	42.5
707.167	171.52
707.355	24.06
707.543	235
707.731	151.04
707.919	103.93
708.107	202.24
708.296	85.5
708.484	151.04
708.672	151.04
708.86	171.52
709.048	247.29
709.236	75.26
709.424	171.52
709.612	103.93
709.8	-2.56
709.988	181.76
710.176	192
710.364	280.06
710.551	89.6
710.739	189.95
710.927	130.56
711.115	124.41
711.303	235
711.491	232.96
711.679	112.13
711.866	169.47
712.054	105.98
712.242	161.28
712.43	247.29
712.617	46.59
712.805	165.37
712.993	130.56
713.181	81.41
713.368	222.72
713.556	120.32
713.744	181.76
713.931	329.21
714.119	173.57
714.306	81.41
714.494	97.79
714.682	148.99
714.869	54.78
715.057	81.41
715.244	9.73
715.432	179.71
715.619	116.22
715.807	128.51
715.994	67.07
716.182	167.42
716.369	173.57
716.556	208.38
716.744	-43.52
716.931	48.64
717.119	185.85
717.306	101.89
717.493	126.46
717.681	130.56
717.868	85.5
718.055	179.71
718.242	153.09
718.43	112.13
718.617	230.91
718.804	169.47
718.991	296.44
719.179	163.33
719.366	249.34
719.553	214.52
719.74	130.56
719.927	237.05
720.114	83.45
720.301	83.45
720.488	144.89
720.676	116.22
720.863	290.3
721.05	318.97
721.237	187.9
721.424	151.04
721.611	99.84
721.798	75.26
721.985	112.13
722.172	81.41
722.358	165.37
722.545	235
722.732	167.42
722.919	296.44
723.106	194.05
723.293	124.41
723.48	151.04
723.667	142.85
723.853	214.52
724.04	235
724.227	245.24
724.414	114.17
724.6	345.59
724.787	316.92
724.974	286.2
725.161	153.09
725.347	159.23
725.534	85.5
725.72	169.47
725.907	232.96
726.094	232.96
726.28	89.6
726.467	116.22
726.653	126.46
726.84	282.11
727.027	302.59
727.213	159.23
727.4	189.95
727.586	206.33
727.773	177.66
727.959	171.52
728.145	165.37
728.332	140.8
728.518	136.7
728.705	228.86
728.891	194.05
729.077	132.61
729.264	214.52
729.45	173.57
729.636	237.05
729.823	189.95
730.009	230.91
730.195	187.9
730.382	253.44
730.568	89.6
730.754	110.08
730.94	132.61
731.126	173.57
731.313	202.24
731.499	155.13
731.685	235
731.871	124.41
732.057	218.62
732.243	280.06
732.429	265.72
732.615	273.92
732.801	226.81
732.987	220.67
733.173	187.9
733.359	165.37
733.545	255.48
733.731	167.42
733.917	284.16
734.103	210.43
734.289	163.33
734.475	161.28
734.661	296.44
734.847	286.2
735.033	212.48
735.219	259.58
735.404	97.79
735.59	155.13
735.776	81.41
735.962	226.81
736.148	292.35
736.333	259.58
736.519	235
736.705	146.94
736.89	159.23
737.076	169.47
737.262	169.47
737.447	159.23
737.633	112.13
737.819	259.58
738.004	157.18
738.19	112.13
738.375	247.29
738.561	192
738.747	212.48
738.932	124.41
739.118	239.1
739.303	273.92
739.489	134.65
739.674	187.9
739.859	151.04
740.045	247.29
740.23	243.2
740.416	19.97
740.601	202.24
740.786	241.15
740.972	222.72
741.157	185.85
741.342	120.32
741.528	48.64
741.713	298.49
741.898	144.89
742.084	173.57
742.269	177.66
742.454	196.09
742.639	314.88
742.824	286.2
743.01	230.91
743.195	294.4
743.38	183.81
743.565	142.85
743.75	208.38
743.935	278.01
744.12	218.62
744.305	116.22
744.49	206.33
744.675	165.37
744.86	146.94
745.045	204.28
745.23	206.33
745.415	204.28
745.6	247.29
745.785	116.22
745.97	239.1
746.155	185.85
746.34	239.1
746.525	132.61
746.71	308.73
746.895	271.87
747.079	91.65
747.264	206.33
747.449	185.85
747.634	304.64
747.819	165.37
748.003	140.8
748.188	77.31
748.373	269.82
748.557	208.38
748.742	245.24
748.927	148.99
749.111	179.71
749.296	179.71
749.481	214.52
749.665	202.24
749.85	93.69
750.034	185.85
750.219	255.48
750.404	54.78
750.588	224.76
750.773	108.03
750.957	73.21
751.141	99.84
751.326	196.09
751.51	52.74
751.695	56.83
751.879	124.41
752.064	267.77
752.248	99.84
752.432	300.54
752.617	204.28
752.801	202.24
752.985	163.33
753.17	243.2
753.354	228.86
753.538	157.18
753.722	67.07
753.907	105.98
754.091	65.02
754.275	155.13
754.459	-6.66
754.643	-2.56
754.828	181.76
755.012	134.65
755.196	91.65
755.38	120.32
755.564	54.78
755.748	126.46
755.932	148.99
756.116	177.66
756.3	173.57
756.484	103.93
756.668	58.88
756.852	28.16
757.036	114.17
757.22	130.56
757.404	91.65
757.588	67.07
757.772	204.28
757.956	26.11
758.14	187.9
758.323	15.87
758.507	95.74
758.691	75.26
758.875	192
759.059	247.29
759.242	30.21
759.426	124.41
759.61	130.56
759.794	-25.09
759.977	124.41
760.161	308.73
760.345	200.19
760.528	247.29
760.712	85.5
760.895	99.84
761.079	93.69
761.263	26.11
761.446	52.74
761.63	165.37
761.813	239.1
761.997	7.68
762.18	87.55
762.364	138.75
762.547	28.16
762.731	-10.75
762.914	44.54
763.098	81.41
763.281	42.5
763.464	69.12
763.648	165.37
763.831	105.98
764.015	-16.9
764.198	99.84
764.381	24.06
764.564	13.82
764.748	136.7
764.931	81.41
765.114	44.54
765.297	142.85
765.481	50.69
765.664	60.93
765.847	77.31
766.03	146.94
766.213	-33.28
766.397	79.36
766.58	9.73
766.763	181.76
766.946	56.83
767.129	40.45
767.312	-31.23
767.495	99.84
767.678	-20.99
767.861	15.87
768.044	101.89
768.227	58.88
768.41	77.31
768.593	126.46
768.776	13.82
768.959	32.26
769.142	142.85
769.324	1.54
769.507	73.21
769.69	17.92
769.873	19.97
770.056	243.2
770.239	116.22
770.421	222.72
770.604	99.84
770.787	-10.75
770.97	97.79
771.152	-49.66
771.335	95.74
771.518	-33.28
771.7	103.93
771.883	163.33
772.066	118.27
772.248	103.93
772.431	128.51
772.613	-8.7
772.796	52.74
772.978	42.5
773.161	212.48
773.343	56.83
773.526	54.78
773.708	-59.9
773.891	-49.66
774.073	19.97
774.256	58.88
774.438	177.66
774.621	110.08
774.803	32.26
774.985	-33.28
775.168	108.03
775.35	-35.33
775.532	155.13
775.715	-111.1
775.897	116.22
776.079	11.78
776.261	42.5
776.444	30.21
776.626	5.63
776.808	44.54
776.99	-20.99
777.173	3.58
777.355	48.64
777.537	-0.51
777.719	67.07
777.901	62.98
778.083	28.16
778.265	46.59
778.447	118.27
778.629	7.68
778.811	54.78
778.993	-2.56
779.175	155.13
779.357	140.8
779.539	-29.18
779.721	3.58
779.903	140.8
780.085	87.55
780.267	42.5
780.449	38.4
780.631	151.04
780.812	173.57
780.994	60.93
781.176	26.11
781.358	-8.7
781.54	-37.38
781.721	56.83
781.903	97.79
782.085	-23.04
782.267	114.17
782.448	-12.8
782.63	11.78
782.812	40.45
782.993	42.5
783.175	26.11
783.357	-10.75
783.538	75.26
783.72	-27.14
783.901	120.32
784.083	-4.61
784.264	30.21
784.446	-45.57
784.627	-14.85
784.809	114.17
784.99	7.68
785.172	77.31
785.353	56.83
785.535	83.45
785.716	-64
785.897	-45.57
786.079	69.12
786.26	38.4
786.441	62.98
786.623	-66.05
786.804	-6.66
786.985	46.59
787.167	60.93
787.348	34.3
787.529	34.3
787.71	75.26
787.891	32.26
788.073	73.21
788.254	-45.57
788.435	157.18
788.616	62.98
788.797	-16.9
788.978	71.17
789.159	-27.14
789.34	38.4
789.522	7.68
789.703	-92.67
789.884	40.45
790.065	34.3
790.246	144.89
790.427	42.5
790.607	194.05
790.788	122.37
790.969	-4.61
791.15	-59.9
791.331	-20.99
791.512	-49.66
791.693	-18.94
791.874	-31.23
792.054	167.42
792.235	17.92
792.416	-20.99
792.597	13.82
792.778	1.54
792.958	83.45
793.139	7.68
793.32	-33.28
793.5	9.73
793.681	132.61
793.862	85.5
794.042	-12.8
794.223	-86.53
794.404	11.78
794.584	-100.86
794.765	-66.05
794.945	24.06
795.126	173.57
795.306	173.57
795.487	65.02
795.667	-66.05
795.848	19.97
796.028	-23.04
796.209	22.02
796.389	42.5
796.57	128.51
796.75	-57.86
796.93	54.78
797.111	-2.56
797.291	-76.29
797.471	28.16
797.652	-53.76
797.832	3.58
798.012	95.74
798.192	-35.33
798.373	7.68
798.553	19.97
798.733	93.69
798.913	-78.33
799.093	-33.28
799.274	-51.71
799.454	52.74
799.634	58.88
799.814	-51.71
799.994	60.93
800.174	38.4
800.354	97.79
800.534	-84.48
800.714	36.35
800.894	19.97
801.074	-4.61
801.254	-27.14
801.434	42.5
801.614	1.54
801.794	-70.14
801.974	1910.24
802.154	-6.66
802.334	58.88
802.514	-4.61
802.693	-2.56
802.873	-29.18
803.053	85.5
803.233	36.35
803.413	-37.38
803.592	-59.9
803.772	-76.29
803.952	34.3
804.131	-53.76
804.311	-4.61
804.491	-14.85
804.67	-47.62
804.85	-20.99
805.03	22.02
805.209	60.93
805.389	1.54
805.568	-12.8
805.748	34.3
805.928	-18.94
806.107	-8.7
806.287	62.98
806.466	-37.38
806.646	-43.52
806.825	-74.24
807.004	30.21
807.184	13.82
807.363	65.02
807.543	50.69
807.722	-0.51
807.901	28.16
808.081	69.12
808.26	-113.15
808.439	32.26
808.619	9.73
808.798	3.58
808.977	1.54
809.156	120.32
809.336	-12.8
809.515	62.98
809.694	-59.9
809.873	36.35
810.052	-57.86
810.231	157.18
810.411	17.92
810.59	22.02
810.769	-41.47
810.948	81.41
811.127	-152.06
811.306	-12.8
811.485	71.17
811.664	165.37
811.843	5.63
812.022	26.11
812.201	-57.86
812.38	-4.61
812.559	-80.38
812.737	77.31
812.916	-82.43
813.095	-92.67
813.274	67.07
813.453	-23.04
813.632	-4.61
813.811	108.03
813.989	-68.09
814.168	26.11
814.347	-39.42
814.526	-14.85
814.704	52.74
814.883	87.55
815.062	17.92
815.24	52.74
815.419	-61.95
815.598	-18.94
815.776	-88.57
815.955	77.31
816.133	-113.15
816.312	13.82
816.49	-88.57
816.669	-20.99
816.847	13.82
817.026	-39.42
817.204	-59.9
817.383	-76.29
817.561	-49.66
817.74	-2.56
817.918	73.21
818.097	-64
818.275	5.63
818.453	-27.14
818.632	112.13
818.81	-41.47
818.988	-31.23
819.167	-53.76
819.345	-10.75
819.523	40.45
819.701	3.58
819.879	-29.18
820.058	-27.14
820.236	-8.7
820.414	-18.94
820.592	-2.56
820.77	-27.14
820.948	-57.86
821.127	28.16
821.305	-6.66
821.483	-100.86
821.661	50.69
821.839	52.74
822.017	5.63
822.195	-31.23
822.373	60.93
822.551	-2.56
822.729	24.06
822.907	-117.25
823.085	42.5
823.262	22.02
823.44	9.73
823.618	7.68
823.796	-70.14
823.974	-2.56
824.152	-23.04
824.329	-0.51
824.507	36.35
824.685	58.88
824.863	-0.51
825.04	15.87
825.218	134.65
825.396	9.73
825.574	69.12
825.751	46.59
825.929	38.4
826.107	-145.92
826.284	15.87
826.462	22.02
826.639	-59.9
826.817	-53.76
826.994	11.78
827.172	-16.9
827.349	112.13
827.527	-8.7
827.704	-14.85
827.882	58.88
828.059	-78.33
828.237	-68.09
828.414	54.78
828.591	-172.54
828.769	28.16
828.946	-68.09
829.124	28.16
829.301	97.79
829.478	-14.85
829.655	46.59
829.833	17.92
830.01	-123.39
830.187	52.74
830.364	30.21
830.542	15.87
830.719	91.65
830.896	101.89
831.073	34.3
831.25	-0.51
831.427	13.82
831.604	-35.33
831.782	-82.43
831.959	7.68
832.136	-55.81
832.313	-0.51
832.49	-33.28
832.667	9.73
832.844	-92.67
833.021	3.58
833.198	13.82
833.374	-51.71
833.551	-57.86
833.728	-102.91
833.905	-4.61
834.082	-156.16
834.259	5.63
834.436	108.03
834.612	-94.72
834.789	101.89
834.966	-78.33
835.143	26.11
835.319	-186.88
835.496	46.59
835.673	48.64
835.85	124.41
836.026	73.21
836.203	11.78
836.38	-45.57
836.556	-37.38
836.733	-31.23
836.909	110.08
837.086	-57.86
837.262	-25.09
837.439	60.93
837.616	-78.33
837.792	-14.85
837.968	46.59
838.145	-88.57
838.321	32.26
838.498	17.92
838.674	50.69
838.851	71.17
839.027	-18.94
839.203	-39.42
839.38	32.26
839.556	-68.09
839.732	65.02
839.909	-14.85
840.085	48.64
840.261	-39.42
840.437	-70.14
840.614	-45.57
840.79	42.5
840.966	40.45
841.142	17.92
841.318	-27.14
841.494	28.16
841.671	52.74
841.847	-61.95
842.023	38.4
842.199	15.87
842.375	89.6
842.551	-39.42
842.727	-88.57
842.903	93.69
843.079	-74.24
843.255	103.93
843.431	52.74
843.607	44.54
843.783	-150.01
843.959	-6.66
844.134	-31.23
844.31	105.98
844.486	-14.85
844.662	-76.29
844.838	-31.23
845.013	11.78
845.189	30.21
845.365	-55.81
845.541	-53.76
845.716	-27.14
845.892	-6.66
846.068	-2.56
846.244	-41.47
846.419	69.12
846.595	-92.67
846.77	-41.47
846.946	93.69
847.122	-43.52
847.297	-92.67
847.473	69.12
847.648	-80.38
847.824	58.88
847.999	-172.54
848.175	-20.99
848.35	34.3
848.526	177.66
848.701	17.92
848.876	22.02
849.052	46.59
849.227	-68.09
849.403	-14.85
849.578	-4.61
849.753	32.26
849.929	65.02
850.104	-104.96
850.279	17.92
850.454	-8.7
850.63	67.07
850.805	30.21
850.98	99.84
851.155	-55.81
851.33	-29.18
851.505	-23.04
851.681	99.84
851.856	-59.9
852.031	40.45
852.206	-0.51
852.381	-35.33
852.556	-49.66
852.731	19.97
852.906	46.59
853.081	28.16
853.256	95.74
853.431	-68.09
853.606	-47.62
853.781	-39.42
853.956	-139.77
854.131	-4.61
854.305	-84.48
854.48	-31.23
854.655	-64
854.83	-125.44
855.005	-14.85
855.18	-18.94
855.354	-70.14
855.529	34.3
855.704	-59.9
855.879	67.07
856.053	-74.24
856.228	52.74
856.403	-90.62
856.577	44.54
856.752	-94.72
856.926	58.88
857.101	-8.7
857.276	-45.57
857.45	40.45
857.625	-14.85
857.799	1.54
857.974	-53.76
858.148	-66.05
858.323	7.68
858.497	-0.51
858.672	-88.57
858.846	-107.01
859.02	-27.14
859.195	-133.63
859.369	52.74
859.543	13.82
859.718	-20.99
859.892	38.4
860.066	-16.9
860.241	-39.42
860.415	-35.33
860.589	-8.7
860.763	5.63
860.938	24.06
861.112	44.54
861.286	15.87
861.46	-18.94
861.634	-41.47
861.808	26.11
861.982	-80.38
862.157	-104.96
862.331	-57.86
862.505	-115.2
862.679	-109.05
862.853	-18.94
863.027	-72.19
863.201	83.45
863.375	-47.62
863.549	-31.23
863.722	-76.29
863.896	81.41
864.07	-70.14
864.244	24.06
864.418	28.16
864.592	75.26
864.766	-10.75
864.939	-53.76
865.113	-80.38
865.287	75.26
865.461	-23.04
865.634	-55.81
865.808	-51.71
865.982	-0.51
866.156	-109.05
866.329	-55.81
866.503	15.87
866.676	56.83
866.85	-31.23
867.024	-20.99
867.197	93.69
867.371	7.68
867.544	26.11
867.718	-109.05
867.891	128.51
868.065	-107.01
868.238	24.06
868.412	81.41
868.585	24.06
868.759	-41.47
868.932	-35.33
869.105	-70.14
869.279	-33.28
869.452	-10.75
869.625	-47.62
869.799	-37.38
869.972	-39.42
870.145	-25.09
870.319	9.73
870.492	19.97
870.665	-31.23
870.838	-47.62
871.011	-125.44
871.185	-0.51
871.358	-94.72
871.531	-33.28
871.704	-12.8
871.877	26.11
872.05	-23.04
872.223	-59.9
872.396	46.59
872.569	69.12
872.742	-96.77
872.915	-12.8
873.088	-127.49
873.261	3.58
873.434	77.31
873.607	3.58
873.78	62.98
873.953	-84.48
874.126	-70.14
874.299	69.12
874.471	-33.28
874.644	-45.57
874.817	28.16
874.99	138.75
875.163	44.54
875.335	26.11
875.508	-2.56
875.681	-10.75
875.853	-8.7
876.026	-49.66
876.199	44.54
876.371	-20.99
876.544	-94.72
876.717	-6.66
876.889	-51.71
877.062	73.21
877.234	-100.86
877.407	-51.71
877.579	22.02
877.752	19.97
877.924	54.78
878.097	-29.18
878.269	40.45
878.442	13.82
878.614	-12.8
878.786	-20.99
878.959	-20.99
879.131	15.87
879.303	-133.63
879.476	-113.15
879.648	118.27
879.82	-33.28
879.993	-47.62
880.165	-78.33
880.337	-100.86
880.509	-25.09
880.681	-176.64
880.854	-131.58
881.026	69.12
881.198	140.8
881.37	-23.04
881.542	-80.38
881.714	-64
881.886	-31.23
882.058	-8.7
882.23	-39.42
882.402	-8.7
882.574	-39.42
882.746	36.35
882.918	71.17
883.09	-43.52
883.262	-57.86
883.434	-61.95
883.606	-123.39
883.778	-23.04
883.95	120.32
884.122	-90.62
884.293	44.54
884.465	-31.23
884.637	38.4
884.809	-96.77
884.98	-8.7
885.152	-12.8
885.324	26.11
885.496	-37.38
885.667	-66.05
885.839	-31.23
886.011	26.11
886.182	28.16
886.354	-23.04
886.525	38.4
886.697	79.36
886.869	-49.66
887.04	-107.01
887.212	132.61
887.383	130.56
887.555	-90.62
887.726	-53.76
887.897	-37.38
888.069	-61.95
888.24	75.26
888.412	-57.86
888.583	-4.61
888.754	-33.28
888.926	-170.49
889.097	-80.38
889.268	-102.91
889.44	58.88
889.611	-107.01
889.782	-64
889.953	-104.96
890.125	65.02
890.296	-53.76
890.467	28.16
890.638	-43.52
890.809	-35.33
890.98	-76.29
891.151	-117.25
891.323	87.55
891.494	-68.09
891.665	-6.66
891.836	-82.43
892.007	-31.23
892.178	-82.43
892.349	-35.33
892.52	-27.14
892.691	89.6
892.862	-18.94
893.032	-82.43
893.203	-23.04
893.374	11.78
893.545	34.3
893.716	-47.62
893.887	81.41
894.057	-0.51
894.228	-72.19
894.399	-76.29
894.57	71.17
894.74	-31.23
894.911	-43.52
895.082	-59.9
895.253	-59.9
895.423	69.12
895.594	48.64
895.764	-25.09
895.935	-143.87
896.106	-16.9
896.276	-82.43
896.447	-23.04
896.617	-59.9
896.788	-133.63
896.958	-70.14
897.129	-115.2
897.299	-23.04
897.47	60.93
897.64	30.21
897.81	-49.66
897.981	-31.23
898.151	-64
898.322	-53.76
898.492	62.98
898.662	-61.95
898.832	1.54
899.003	-39.42
899.173	42.5
899.343	-59.9
899.513	-70.14
