Data from USB4F104151__198__11-05-28-631.txt Node

Date: Wed Feb 26 11:05:28 EST 2025
User: louis
Spectrometer: USB4F10415
Trigger mode: 4
Integration Time (sec): 1.000000E-1
Scans to average: 1
Electric dark correction enabled: true
Nonlinearity correction enabled: false
Boxcar width: 0
XAxis mode: Wavelengths
Number of Pixels in Spectrum: 3648
>>>>>Begin Spectral Data<<<<<
178.204	-407.55
178.424	-407.55
178.644	-407.55
178.864	-380.92
179.084	-385.02
179.304	10.24
179.524	43.01
179.744	-65.54
179.964	63.49
180.184	6.14
180.404	26.62
180.624	26.62
180.844	-40.96
181.064	-86.01
181.283	26.62
181.503	-94.21
181.723	83.97
181.943	-47.1
182.163	231.42
182.383	-45.06
182.602	67.58
182.822	176.13
183.042	135.17
183.262	-10.24
183.482	34.82
183.701	2.05
183.921	51.2
184.141	-51.2
184.361	38.91
184.58	55.3
184.8	79.87
185.02	12.29
185.239	135.17
185.459	6.14
185.679	233.47
185.898	-12.29
186.118	63.49
186.338	43.01
186.557	122.88
186.777	-102.4
186.997	-65.54
187.216	94.21
187.436	237.56
187.655	122.88
187.875	106.49
188.095	116.73
188.314	124.93
188.534	151.55
188.753	12.29
188.973	96.25
189.192	180.22
189.412	-24.58
189.631	22.53
189.851	161.79
190.07	182.27
190.29	-36.86
190.509	30.72
190.729	59.39
190.948	90.11
191.168	268.28
191.387	61.44
191.607	28.67
191.826	110.59
192.045	32.77
192.265	45.06
192.484	51.2
192.704	6.14
192.923	-22.53
193.142	149.5
193.362	167.93
193.581	98.3
193.8	67.58
194.02	40.96
194.239	98.3
194.458	71.68
194.678	55.3
194.897	12.29
195.116	12.29
195.335	20.48
195.555	184.32
195.774	-55.3
195.993	120.83
196.212	83.97
196.432	-36.86
196.651	40.96
196.87	63.49
197.089	184.32
197.308	126.97
197.528	40.96
197.747	47.1
197.966	86.01
198.185	133.12
198.404	16.38
198.623	122.88
198.842	114.69
199.062	112.64
199.281	67.58
199.5	122.88
199.719	79.87
199.938	63.49
200.157	163.84
200.376	94.21
200.595	71.68
200.814	32.77
201.033	-40.96
201.252	141.31
201.471	16.38
201.69	88.06
201.909	71.68
202.128	59.39
202.347	124.93
202.566	77.82
202.785	-96.25
203.004	51.2
203.223	237.56
203.442	79.87
203.661	-32.77
203.879	114.69
204.098	137.21
204.317	-53.25
204.536	120.83
204.755	133.12
204.974	90.11
205.193	-2.05
205.411	90.11
205.63	120.83
205.849	59.39
206.068	-4.1
206.287	-22.53
206.505	274.43
206.724	36.86
206.943	51.2
207.162	20.48
207.381	20.48
207.599	-43.01
207.818	32.77
208.037	-4.1
208.255	24.58
208.474	65.54
208.693	88.06
208.911	-34.82
209.13	106.49
209.349	79.87
209.567	57.34
209.786	106.49
210.005	126.97
210.223	63.49
210.442	-102.4
210.661	-47.1
210.879	79.87
211.098	-4.1
211.316	-24.58
211.535	122.88
211.753	-6.14
211.972	135.17
212.191	-12.29
212.409	-12.29
212.628	163.84
212.846	-16.38
213.065	108.54
213.283	75.77
213.502	8.19
213.72	24.58
213.938	112.64
214.157	18.43
214.375	77.82
214.594	-59.39
214.812	67.58
215.031	59.39
215.249	10.24
215.467	71.68
215.686	28.67
215.904	129.02
216.122	32.77
216.341	120.83
216.559	65.54
216.778	77.82
216.996	102.4
217.214	20.48
217.432	-18.43
217.651	-69.63
217.869	18.43
218.087	88.06
218.306	-30.72
218.524	20.48
218.742	38.91
218.96	18.43
219.179	22.53
219.397	51.2
219.615	301.05
219.833	110.59
220.051	57.34
220.27	141.31
220.488	102.4
220.706	90.11
220.924	-2.05
221.142	-4.1
221.36	36.86
221.578	141.31
221.796	98.3
222.015	22.53
222.233	69.63
222.451	192.51
222.669	-6.14
222.887	45.06
223.105	4.1
223.323	32.77
223.541	-26.62
223.759	59.39
223.977	43.01
224.195	116.73
224.413	137.21
224.631	55.3
224.849	79.87
225.067	176.13
225.285	40.96
225.503	6.14
225.721	-65.54
225.939	30.72
226.157	28.67
226.375	274.43
226.592	8.19
226.81	96.25
227.028	139.26
227.246	167.93
227.464	90.11
227.682	133.12
227.9	124.93
228.117	190.46
228.335	92.16
228.553	100.35
228.771	59.39
228.989	14.34
229.206	139.26
229.424	30.72
229.642	-10.24
229.86	6.14
230.077	161.79
230.295	12.29
230.513	120.83
230.731	96.25
230.948	188.41
231.166	94.21
231.384	24.58
231.601	-36.86
231.819	159.74
232.037	59.39
232.254	-4.1
232.472	32.77
232.689	77.82
232.907	108.54
233.125	-14.34
233.342	-32.77
233.56	77.82
233.777	71.68
233.995	36.86
234.213	114.69
234.43	92.16
234.648	73.73
234.865	38.91
235.083	73.73
235.3	100.35
235.518	176.13
235.735	36.86
235.953	137.21
236.17	-14.34
236.388	55.3
236.605	65.54
236.822	122.88
237.04	178.17
237.257	69.63
237.475	-2.05
237.692	114.69
237.909	28.67
238.127	20.48
238.344	67.58
238.562	12.29
238.779	-22.53
238.996	26.62
239.214	57.34
239.431	120.83
239.648	67.58
239.865	96.25
240.083	30.72
240.3	26.62
240.517	32.77
240.735	67.58
240.952	122.88
241.169	88.06
241.386	135.17
241.603	81.92
241.821	-79.87
242.038	165.89
242.255	159.74
242.472	22.53
242.689	34.82
242.907	135.17
243.124	69.63
243.341	40.96
243.558	32.77
243.775	-65.54
243.992	-22.53
244.209	104.45
244.426	167.93
244.643	102.4
244.86	16.38
245.078	75.77
245.295	98.3
245.512	45.06
245.729	-47.1
245.946	88.06
246.163	102.4
246.38	-61.44
246.597	92.16
246.814	104.45
247.031	36.86
247.248	-8.19
247.464	106.49
247.681	88.06
247.898	73.73
248.115	69.63
248.332	30.72
248.549	79.87
248.766	116.73
248.983	34.82
249.2	92.16
249.417	126.97
249.633	47.1
249.85	110.59
250.067	77.82
250.284	20.48
250.501	51.2
250.717	43.01
250.934	-65.54
251.151	45.06
251.368	53.25
251.585	73.73
251.801	71.68
252.018	40.96
252.235	120.83
252.451	-65.54
252.668	8.19
252.885	69.63
253.102	47.1
253.318	-8.19
253.535	65.54
253.752	8.19
253.968	20.48
254.185	-32.77
254.401	-34.82
254.618	124.93
254.835	-75.77
255.051	198.65
255.268	73.73
255.484	69.63
255.701	92.16
255.917	57.34
256.134	-12.29
256.351	26.62
256.567	-49.15
256.784	-24.58
257	-92.16
257.217	149.5
257.433	100.35
257.65	83.97
257.866	143.36
258.082	-57.34
258.299	-24.58
258.515	106.49
258.732	20.48
258.948	-32.77
259.165	-8.19
259.381	0
259.597	114.69
259.814	63.49
260.03	63.49
260.246	30.72
260.463	139.26
260.679	161.79
260.895	75.77
261.112	163.84
261.328	36.86
261.544	-43.01
261.761	122.88
261.977	32.77
262.193	-34.82
262.409	141.31
262.626	49.15
262.842	-24.58
263.058	-57.34
263.274	47.1
263.49	12.29
263.707	65.54
263.923	43.01
264.139	-102.4
264.355	28.67
264.571	102.4
264.787	49.15
265.004	217.08
265.22	26.62
265.436	8.19
265.652	69.63
265.868	0
266.084	-98.3
266.3	14.34
266.516	10.24
266.732	81.92
266.948	90.11
267.164	28.67
267.38	167.93
267.596	67.58
267.812	147.45
268.028	61.44
268.244	53.25
268.46	2.05
268.676	12.29
268.892	135.17
269.108	-4.1
269.324	-2.05
269.54	-57.34
269.756	94.21
269.972	-69.63
270.188	69.63
270.403	38.91
270.619	38.91
270.835	61.44
271.051	45.06
271.267	36.86
271.483	36.86
271.698	92.16
271.914	40.96
272.13	75.77
272.346	18.43
272.562	83.97
272.777	114.69
272.993	-65.54
273.209	-2.05
273.425	98.3
273.64	-51.2
273.856	51.2
274.072	-12.29
274.287	49.15
274.503	20.48
274.719	59.39
274.934	36.86
275.15	-53.25
275.366	59.39
275.581	-40.96
275.797	114.69
276.012	18.43
276.228	10.24
276.444	49.15
276.659	61.44
276.875	-43.01
277.09	-8.19
277.306	6.14
277.521	47.1
277.737	57.34
277.952	88.06
278.168	49.15
278.383	55.3
278.599	0
278.814	43.01
279.03	-20.48
279.245	204.8
279.461	75.77
279.676	188.41
279.892	-16.38
280.107	-55.3
280.322	86.01
280.538	110.59
280.753	-53.25
280.969	112.64
281.184	108.54
281.399	102.4
281.615	22.53
281.83	112.64
282.045	-26.62
282.26	24.58
282.476	45.06
282.691	86.01
282.906	75.77
283.122	22.53
283.337	-12.29
283.552	55.3
283.767	47.1
283.983	141.31
284.198	106.49
284.413	65.54
284.628	-53.25
284.843	49.15
285.058	71.68
285.274	71.68
285.489	-10.24
285.704	49.15
285.919	-16.38
286.134	45.06
286.349	45.06
286.564	26.62
286.779	40.96
286.995	81.92
287.21	10.24
287.425	69.63
287.64	16.38
287.855	71.68
288.07	-47.1
288.285	143.36
288.5	67.58
288.715	110.59
288.93	59.39
289.145	12.29
289.36	133.12
289.575	36.86
289.79	43.01
290.004	28.67
290.219	141.31
290.434	45.06
290.649	8.19
290.864	-8.19
291.079	-24.58
291.294	59.39
291.509	22.53
291.724	36.86
291.938	-20.48
292.153	63.49
292.368	57.34
292.583	69.63
292.798	36.86
293.012	77.82
293.227	126.97
293.442	-30.72
293.657	147.45
293.871	131.07
294.086	129.02
294.301	161.79
294.516	108.54
294.73	45.06
294.945	45.06
295.16	-24.58
295.374	88.06
295.589	118.78
295.804	51.2
296.018	4.1
296.233	190.46
296.447	88.06
296.662	-18.43
296.877	196.61
297.091	12.29
297.306	55.3
297.52	2.05
297.735	71.68
297.949	53.25
298.164	90.11
298.378	32.77
298.593	8.19
298.807	-38.91
299.022	57.34
299.236	133.12
299.451	55.3
299.665	20.48
299.88	4.1
300.094	114.69
300.309	38.91
300.523	6.14
300.737	-6.14
300.952	108.54
301.166	86.01
301.381	38.91
301.595	36.86
301.809	81.92
302.024	-14.34
302.238	-6.14
302.452	182.27
302.667	100.35
302.881	100.35
303.095	63.49
303.309	71.68
303.524	14.34
303.738	63.49
303.952	10.24
304.166	94.21
304.381	-96.25
304.595	178.17
304.809	34.82
305.023	36.86
305.237	53.25
305.452	26.62
305.666	49.15
305.88	69.63
306.094	131.07
306.308	110.59
306.522	151.55
306.736	108.54
306.95	106.49
307.164	36.86
307.379	18.43
307.593	63.49
307.807	194.56
308.021	69.63
308.235	114.69
308.449	-43.01
308.663	-8.19
308.877	268.28
309.091	104.45
309.305	110.59
309.519	-137.21
309.733	114.69
309.947	16.38
310.161	53.25
310.374	104.45
310.588	159.74
310.802	-34.82
311.016	-16.38
311.23	110.59
311.444	-18.43
311.658	96.25
311.872	147.45
312.085	145.41
312.299	104.45
312.513	92.16
312.727	110.59
312.941	-6.14
313.154	98.3
313.368	79.87
313.582	67.58
313.796	4.1
314.009	43.01
314.223	88.06
314.437	67.58
314.651	81.92
314.864	43.01
315.078	40.96
315.292	-6.14
315.505	79.87
315.719	61.44
315.933	55.3
316.146	12.29
316.36	32.77
316.573	71.68
316.787	145.41
317.001	61.44
317.214	-2.05
317.428	71.68
317.641	0
317.855	32.77
318.068	34.82
318.282	12.29
318.495	143.36
318.709	98.3
318.922	16.38
319.136	129.02
319.349	167.93
319.563	-8.19
319.776	131.07
319.99	-57.34
320.203	110.59
320.417	45.06
320.63	96.25
320.843	215.04
321.057	114.69
321.27	98.3
321.483	77.82
321.697	118.78
321.91	83.97
322.124	30.72
322.337	110.59
322.55	-2.05
322.763	137.21
322.977	18.43
323.19	-2.05
323.403	34.82
323.617	18.43
323.83	186.37
324.043	90.11
324.256	120.83
324.469	36.86
324.683	79.87
324.896	75.77
325.109	-2.05
325.322	-45.06
325.535	83.97
325.748	114.69
325.962	8.19
326.175	24.58
326.388	53.25
326.601	184.32
326.814	30.72
327.027	124.93
327.24	186.37
327.453	-26.62
327.666	137.21
327.879	114.69
328.092	26.62
328.305	98.3
328.518	-18.43
328.731	22.53
328.944	61.44
329.157	47.1
329.37	4.1
329.583	180.22
329.796	86.01
330.009	40.96
330.222	108.54
330.435	102.4
330.648	139.26
330.861	-8.19
331.073	106.49
331.286	120.83
331.499	67.58
331.712	-26.62
331.925	53.25
332.138	30.72
332.35	135.17
332.563	6.14
332.776	110.59
332.989	0
333.202	-20.48
333.414	129.02
333.627	-53.25
333.84	6.14
334.053	30.72
334.265	-26.62
334.478	-40.96
334.691	-36.86
334.903	10.24
335.116	75.77
335.329	18.43
335.541	96.25
335.754	196.61
335.966	-2.05
336.179	20.48
336.392	47.1
336.604	67.58
336.817	190.46
337.029	67.58
337.242	51.2
337.454	129.02
337.667	63.49
337.88	139.26
338.092	100.35
338.305	90.11
338.517	-24.58
338.729	96.25
338.942	163.84
339.154	-18.43
339.367	-47.1
339.579	96.25
339.792	2.05
340.004	83.97
340.217	40.96
340.429	53.25
340.641	-38.91
340.854	-2.05
341.066	22.53
341.278	143.36
341.491	153.6
341.703	51.2
341.915	-32.77
342.128	165.89
342.34	94.21
342.552	55.3
342.764	88.06
342.977	71.68
343.189	96.25
343.401	65.54
343.613	-22.53
343.826	100.35
344.038	26.62
344.25	-2.05
344.462	-2.05
344.674	77.82
344.886	40.96
345.099	45.06
345.311	88.06
345.523	16.38
345.735	-61.44
345.947	77.82
346.159	86.01
346.371	51.2
346.583	16.38
346.795	167.93
347.007	32.77
347.219	28.67
347.431	34.82
347.643	174.08
347.855	73.73
348.067	110.59
348.279	2.05
348.491	90.11
348.703	131.07
348.915	38.91
349.127	-18.43
349.339	-12.29
349.551	67.58
349.763	106.49
349.975	-14.34
350.187	143.36
350.399	219.13
350.61	153.6
350.822	63.49
351.034	-24.58
351.246	47.1
351.458	94.21
351.669	75.77
351.881	122.88
352.093	178.17
352.305	139.26
352.517	53.25
352.728	149.5
352.94	71.68
353.152	149.5
353.363	6.14
353.575	28.67
353.787	200.7
353.999	79.87
354.21	133.12
354.422	28.67
354.633	75.77
354.845	40.96
355.057	28.67
355.268	96.25
355.48	120.83
355.692	-38.91
355.903	47.1
356.115	22.53
356.326	-49.15
356.538	141.31
356.749	51.2
356.961	194.56
357.172	-86.01
357.384	-26.62
357.595	235.52
357.807	4.1
358.018	8.19
358.23	81.92
358.441	131.07
358.653	79.87
358.864	-63.49
359.075	40.96
359.287	120.83
359.498	141.31
359.709	26.62
359.921	67.58
360.132	65.54
360.344	-6.14
360.555	-43.01
360.766	4.1
360.977	73.73
361.189	172.03
361.4	4.1
361.611	176.13
361.823	77.82
362.034	38.91
362.245	20.48
362.456	90.11
362.667	51.2
362.879	-14.34
363.09	94.21
363.301	108.54
363.512	63.49
363.723	-4.1
363.935	65.54
364.146	114.69
364.357	61.44
364.568	51.2
364.779	-32.77
364.99	116.73
365.201	-14.34
365.412	202.75
365.623	-92.16
365.834	75.77
366.045	110.59
366.256	77.82
366.467	94.21
366.678	24.58
366.889	-4.1
367.1	34.82
367.311	165.89
367.522	-49.15
367.733	79.87
367.944	81.92
368.155	0
368.366	8.19
368.577	141.31
368.788	112.64
368.999	30.72
369.209	-32.77
369.42	245.76
369.631	221.18
369.842	90.11
370.053	28.67
370.264	102.4
370.474	6.14
370.685	106.49
370.896	51.2
371.107	215.04
371.317	118.78
371.528	38.91
371.739	143.36
371.95	63.49
372.16	110.59
372.371	-59.39
372.582	-32.77
372.792	67.58
373.003	88.06
373.214	79.87
373.424	112.64
373.635	-10.24
373.846	147.45
374.056	61.44
374.267	28.67
374.477	24.58
374.688	18.43
374.898	106.49
375.109	34.82
375.319	57.34
375.53	149.5
375.74	129.02
375.951	-16.38
376.161	118.78
376.372	98.3
376.582	22.53
376.793	75.77
377.003	10.24
377.214	10.24
377.424	20.48
377.635	108.54
377.845	53.25
378.055	165.89
378.266	-4.1
378.476	49.15
378.686	71.68
378.897	71.68
379.107	122.88
379.317	36.86
379.528	22.53
379.738	67.58
379.948	-133.12
380.158	124.93
380.369	53.25
380.579	92.16
380.789	-6.14
380.999	65.54
381.21	73.73
381.42	200.7
381.63	47.1
381.84	86.01
382.05	73.73
382.261	139.26
382.471	83.97
382.681	-16.38
382.891	151.55
383.101	79.87
383.311	-24.58
383.521	18.43
383.731	83.97
383.941	129.02
384.151	18.43
384.361	30.72
384.571	100.35
384.781	57.34
384.991	253.95
385.201	165.89
385.411	122.88
385.621	63.49
385.831	2.05
386.041	32.77
386.251	-51.2
386.461	32.77
386.671	38.91
386.881	55.3
387.091	59.39
387.301	137.21
387.511	110.59
387.72	157.69
387.93	53.25
388.14	-53.25
388.35	92.16
388.56	161.79
388.769	124.93
388.979	55.3
389.189	-55.3
389.399	143.36
389.609	102.4
389.818	184.32
390.028	118.78
390.238	77.82
390.447	38.91
390.657	28.67
390.867	45.06
391.076	16.38
391.286	57.34
391.496	104.45
391.705	86.01
391.915	143.36
392.125	137.21
392.334	59.39
392.544	153.6
392.753	65.54
392.963	-2.05
393.172	49.15
393.382	75.77
393.591	231.42
393.801	59.39
394.01	167.93
394.22	88.06
394.429	6.14
394.639	114.69
394.848	67.58
395.058	4.1
395.267	73.73
395.477	118.78
395.686	22.53
395.895	131.07
396.105	247.8
396.314	86.01
396.524	14.34
396.733	57.34
396.942	118.78
397.152	163.84
397.361	120.83
397.57	131.07
397.78	43.01
397.989	79.87
398.198	167.93
398.407	106.49
398.617	47.1
398.826	116.73
399.035	34.82
399.244	135.17
399.453	81.92
399.663	126.97
399.872	38.91
400.081	-81.92
400.29	180.22
400.499	55.3
400.708	65.54
400.917	28.67
401.127	73.73
401.336	38.91
401.545	202.75
401.754	159.74
401.963	122.88
402.172	67.58
402.381	-32.77
402.59	18.43
402.799	28.67
403.008	106.49
403.217	53.25
403.426	61.44
403.635	-114.69
403.844	63.49
404.053	114.69
404.262	49.15
404.471	116.73
404.68	124.93
404.888	-14.34
405.097	79.87
405.306	34.82
405.515	90.11
405.724	135.17
405.933	100.35
406.142	61.44
406.35	71.68
406.559	57.34
406.768	12.29
406.977	174.08
407.185	26.62
407.394	129.02
407.603	-65.54
407.812	102.4
408.02	178.17
408.229	-26.62
408.438	83.97
408.646	-53.25
408.855	92.16
409.064	112.64
409.272	26.62
409.481	178.17
409.69	-6.14
409.898	34.82
410.107	88.06
410.315	106.49
410.524	-47.1
410.733	96.25
410.941	83.97
411.15	147.45
411.358	174.08
411.567	137.21
411.775	79.87
411.984	192.51
412.192	184.32
412.401	86.01
412.609	200.7
412.818	106.49
413.026	190.46
413.234	102.4
413.443	57.34
413.651	-43.01
413.86	71.68
414.068	159.74
414.276	172.03
414.485	-20.48
414.693	157.69
414.901	249.85
415.11	40.96
415.318	69.63
415.526	69.63
415.734	100.35
415.943	61.44
416.151	126.97
416.359	92.16
416.567	12.29
416.776	145.41
416.984	106.49
417.192	210.94
417.4	-26.62
417.608	81.92
417.817	24.58
418.025	131.07
418.233	237.56
418.441	98.3
418.649	12.29
418.857	88.06
419.065	163.84
419.273	2.05
419.481	163.84
419.689	-8.19
419.897	24.58
420.105	-32.77
420.313	86.01
420.521	169.98
420.729	131.07
420.937	49.15
421.145	16.38
421.353	131.07
421.561	192.51
421.769	141.31
421.977	63.49
422.185	133.12
422.393	32.77
422.601	94.21
422.809	47.1
423.017	43.01
423.224	104.45
423.432	137.21
423.64	92.16
423.848	212.99
424.056	40.96
424.263	153.6
424.471	108.54
424.679	167.93
424.887	63.49
425.094	147.45
425.302	94.21
425.51	36.86
425.718	122.88
425.925	133.12
426.133	-34.82
426.341	243.71
426.548	40.96
426.756	92.16
426.964	77.82
427.171	45.06
427.379	137.21
427.586	49.15
427.794	139.26
428.001	159.74
428.209	104.45
428.417	198.65
428.624	100.35
428.832	155.65
429.039	126.97
429.247	124.93
429.454	55.3
429.662	270.33
429.869	102.4
430.076	106.49
430.284	155.65
430.491	245.76
430.699	184.32
430.906	184.32
431.114	122.88
431.321	182.27
431.528	110.59
431.736	147.45
431.943	264.19
432.15	202.75
432.358	225.28
432.565	309.24
432.772	69.63
432.979	186.37
433.187	165.89
433.394	296.96
433.601	159.74
433.808	284.67
434.016	288.76
434.223	335.87
434.43	272.38
434.637	274.43
434.844	178.17
435.052	243.71
435.259	239.61
435.466	344.06
435.673	333.82
435.88	317.44
436.087	489.46
436.294	374.78
436.501	382.97
436.708	276.48
436.915	385.02
437.122	436.22
437.329	344.06
437.537	315.39
437.743	430.07
437.95	571.38
438.157	419.83
438.364	354.3
438.571	452.6
438.778	409.59
438.985	503.8
439.192	522.23
439.399	518.14
439.606	573.43
439.813	585.72
440.02	669.69
440.227	722.93
440.433	532.47
440.64	630.77
440.847	536.57
441.054	589.81
441.261	780.28
441.467	688.12
441.674	653.3
441.881	800.76
442.088	692.21
442.294	763.89
442.501	831.48
442.708	860.15
442.914	872.43
443.121	919.54
443.328	972.79
443.534	1060.85
443.741	1042.42
443.948	968.69
444.154	1099.76
444.361	1212.4
444.568	1120.24
444.774	1236.97
444.981	1191.92
445.187	1333.23
445.394	1427.43
445.6	1318.89
445.807	1529.83
446.013	1503.21
446.22	1386.47
446.426	1535.98
446.633	1646.57
446.839	1810.4
447.046	1640.42
447.252	1884.13
447.459	1751.01
447.665	1757.16
447.871	2017.25
448.078	2088.93
448.284	2129.89
448.491	2373.6
448.697	2291.68
448.903	2441.18
449.11	2557.91
449.316	2500.57
449.522	2705.37
449.728	2850.77
449.935	2844.63
450.141	2637.78
450.347	3112.91
450.553	2973.65
450.76	3145.68
450.966	3332.05
451.172	3383.24
451.378	3516.36
451.584	3686.34
451.791	3788.74
451.997	3985.35
452.203	4181.95
452.409	4317.12
452.615	4480.96
452.821	4085.7
453.027	4259.77
453.233	4868.02
453.44	4698.04
453.646	4968.37
453.852	5156.79
454.058	5304.24
454.264	5552.04
454.47	6016.93
454.676	6031.27
454.882	6483.87
455.088	6264.74
455.294	6647.71
455.5	7083.92
455.705	7542.67
455.911	7335.82
456.117	7509.9
456.323	7794.57
456.529	7868.3
456.735	8507.26
456.941	8818.55
457.147	8959.86
457.352	9351.03
457.558	9478
457.764	10063.72
457.97	10620.77
458.176	10702.68
458.381	11554.64
458.587	11814.73
458.793	12162.89
458.999	12246.85
459.204	13557.55
459.41	14325.54
459.616	14014.25
459.821	14939.93
460.027	15527.7
460.233	16060.17
460.438	16373.51
460.644	17096.44
460.85	17315.58
461.055	17923.82
461.261	19015.39
461.466	18648.8
461.672	18835.17
461.878	21046.97
462.083	20684.48
462.289	21413.56
462.494	22169.26
462.7	22097.58
462.905	22451.88
463.111	24465.03
463.316	25702.01
463.522	26265.2
463.727	26709.61
463.932	28022.36
464.138	29146.69
464.343	30211.63
464.549	30152.24
464.754	32278.04
464.959	33195.53
465.165	33902.07
465.37	33383.94
465.575	33555.97
465.781	35679.71
465.986	36806.09
466.191	36464.08
466.397	36382.16
466.602	36203.99
466.807	37850.56
467.012	38608.31
467.218	39130.54
467.423	39259.56
467.628	40078.75
467.833	42147.2
468.038	41166.22
468.244	40717.71
468.449	42661.24
468.654	42061.18
468.859	41692.55
469.064	41848.19
469.269	40811.92
469.474	41356.68
469.679	42384.76
469.885	41180.56
470.09	41721.22
470.295	41960.83
470.5	40562.07
470.705	40842.64
470.91	40166.81
471.115	39310.76
471.32	40510.87
471.525	39951.77
471.73	38743.47
471.935	38743.47
472.139	37225.93
472.344	37287.37
472.549	37211.59
472.754	36212.18
472.959	35562.98
473.164	34680.3
473.369	33879.55
473.574	35016.17
473.778	34254.33
473.983	33252.87
474.188	33099.27
474.393	31243.81
474.598	30871.08
474.802	30340.66
475.007	30234.16
475.212	29494.85
475.417	28892.74
475.621	28458.57
475.826	28132.95
476.031	27688.54
476.235	26934.88
476.44	27104.87
476.645	25986.68
476.849	25869.94
477.054	25663.1
477.259	24882.82
477.463	24850.05
477.668	24245.9
477.872	24198.8
478.077	23561.88
478.282	22742.69
478.486	22769.32
478.691	22603.43
478.895	21847.73
479.1	21923.51
479.304	21958.32
479.509	21208.76
479.713	21442.23
479.918	21022.4
480.122	20389.58
480.326	20731.59
480.531	20397.77
480.735	20197.07
480.94	19744.47
481.144	20836.03
481.348	19783.38
481.553	19666.64
481.757	18869.98
481.961	19498.71
482.166	19582.68
482.37	19214.04
482.574	18628.32
482.778	18765.54
482.983	18970.33
483.187	18431.72
483.391	18458.34
483.595	17919.73
483.8	17794.8
484.004	17921.77
484.208	17909.49
484.412	17616.63
484.616	17436.41
484.821	17510.13
485.025	16668.42
485.229	16865.02
485.433	16801.54
485.637	16553.73
485.841	16019.21
486.045	16029.45
486.249	15853.33
486.453	15197.98
486.657	15271.7
486.861	15036.19
487.065	14692.13
487.269	14599.97
487.473	14151.46
487.677	14280.49
487.881	14176.04
488.085	13834.03
488.289	13541.17
488.493	13063.99
488.697	13182.77
488.901	12820.28
489.105	12560.19
489.309	12455.75
489.512	12175.17
489.716	12175.17
489.92	11695.95
490.124	11595.6
490.328	11499.34
490.531	10970.97
490.735	11048.79
490.939	10774.36
491.143	10811.23
491.346	10360.67
491.55	10227.56
491.754	10006.38
491.958	9783.15
492.161	9781.1
492.365	9576.3
492.569	9430.9
492.772	9502.57
492.976	9238.39
493.18	8953.72
493.383	9025.4
493.587	8908.66
493.79	8902.52
493.994	8519.55
494.197	8576.89
494.401	8505.21
494.605	8273.79
494.808	8501.12
495.012	8398.72
495.215	8163.2
495.419	8298.37
495.622	8066.95
495.825	7937.93
496.029	8054.66
496.232	8189.83
496.436	7905.16
496.639	8087.43
496.843	8019.85
497.046	7944.07
497.249	8007.56
497.453	7843.72
497.656	7843.72
497.859	7964.55
498.063	7993.22
498.266	8071.04
498.469	7778.19
498.673	7980.93
498.876	8005.51
499.079	7997.32
499.282	7827.34
499.485	8243.07
499.689	8091.52
499.892	8284.03
500.095	8226.69
500.298	8378.24
500.501	8241.03
500.705	8376.19
500.908	8460.16
501.111	8568.7
501.314	8566.65
501.517	8773.5
501.72	8601.47
501.923	8875.9
502.126	8933.24
502.329	8843.13
502.532	9148.28
502.735	9183.09
502.938	9557.87
503.141	9213.81
503.344	9508.72
503.547	9803.63
503.75	9641.84
503.953	9842.54
504.156	10063.72
504.359	9936.74
504.562	10114.92
504.765	10407.78
504.968	10561.37
505.17	10794.84
505.373	10831.71
505.576	11194.2
505.779	11071.32
505.982	11325.27
506.185	11786.06
506.387	11730.76
506.59	11976.52
506.793	11972.43
506.996	12363.59
507.198	12773.18
507.401	12576.58
507.604	13174.58
507.807	13510.45
508.009	13559.6
508.212	14001.96
508.415	14352.16
508.617	14419.75
508.82	14429.99
509.022	14833.44
509.225	15392.53
509.428	15845.13
509.63	15802.13
509.833	15992.59
510.035	16973.56
510.238	16701.19
510.44	17299.19
510.643	17846
510.845	17913.58
511.048	18503.4
511.25	18859.74
511.453	19005.15
511.655	19984.08
511.858	20195.02
512.06	21001.92
512.262	21022.4
512.465	21462.71
512.667	21878.45
512.87	22374.06
513.072	22763.17
513.274	23510.68
513.477	24112.78
513.679	24549
513.881	24667.78
514.084	25591.42
514.286	26220.14
514.488	26353.26
514.69	27422.3
514.893	27950.68
515.095	27911.77
515.297	28790.34
515.499	29548.09
515.701	30053.94
515.904	30967.34
516.106	31282.72
516.308	32196.12
516.51	32802.32
516.712	32851.47
516.914	33940.99
517.116	34510.32
517.318	34803.18
517.52	35689.95
517.722	36543.95
517.925	37166.54
518.127	37901.76
518.329	38436.28
518.531	38714.8
518.733	39996.83
518.935	40662.42
519.136	40623.51
519.338	41551.24
519.54	42171.77
519.742	43095.41
519.944	43201.9
520.146	44264.8
520.348	44608.86
520.55	44875.09
520.752	45296.97
520.954	46648.63
521.155	46900.53
521.357	47373.61
521.559	47531.31
521.761	48870.68
521.963	48796.95
522.164	49306.9
522.366	49544.46
522.568	50361.6
522.77	50646.27
522.971	50642.17
523.173	50590.97
523.375	51813.61
523.576	51397.87
523.778	51629.29
523.98	52448.48
524.181	52471.01
524.383	52548.83
524.584	53402.83
524.786	52718.81
524.988	52939.99
525.189	53347.54
525.391	52872.41
525.592	53650.64
525.794	53273.81
525.995	53169.36
526.197	53099.73
526.398	53222.61
526.6	53179.6
526.801	52823.26
527.003	52649.18
527.204	52845.79
527.406	52663.52
527.607	52079.85
527.808	52346.08
528.01	51238.13
528.211	51490.03
528.412	51786.99
528.614	51332.34
528.815	50648.32
529.016	51025.14
529.218	49667.34
529.419	49847.56
529.62	49251.6
529.822	48205.09
530.023	48291.1
530.224	47922.47
530.425	47488.3
530.626	46882.1
530.828	45950.27
531.029	46796.09
531.23	45448.52
531.431	45090.13
531.632	44840.28
531.833	44123.49
532.035	43816.29
532.236	43083.12
532.437	43193.71
532.638	41956.74
532.839	41741.7
533.04	41573.77
533.241	40254.87
533.442	40791.44
533.643	39652.77
533.844	38880.69
534.045	38522.29
534.246	37619.14
534.447	37916.09
534.648	37354.95
534.849	36744.66
535.05	35692
535.251	35608.03
535.451	35063.27
535.652	34811.37
535.853	34246.13
536.054	33871.36
536.255	33328.64
536.456	32701.97
536.657	32902.67
536.857	31927.83
537.058	31499.81
537.259	30887.46
537.46	30584.37
537.66	30199.35
537.861	30019.13
538.062	29449.79
538.263	29408.83
538.463	28999.24
538.664	28532.3
538.865	28216.91
539.065	28188.24
539.266	27283.04
539.466	27117.15
539.667	26547.82
539.868	26441.32
540.068	26189.42
540.269	25593.47
540.469	25706.1
540.67	25337.47
540.87	25075.33
541.071	24610.44
541.271	24411.79
541.472	24209.04
541.672	23688.85
541.873	23463.58
542.073	22955.68
542.274	22970.02
542.474	22550.18
542.675	22228.65
542.875	22347.43
543.075	21493.43
543.276	21341.88
543.476	21671.61
543.676	21196.48
543.877	20993.73
544.077	20598.47
544.277	20444.87
544.478	20268.75
544.678	20149.96
544.878	20041.42
545.078	19732.18
545.279	19007.2
545.479	18960.09
545.679	18855.65
545.879	18521.83
546.079	18413.29
546.28	18085.61
546.48	17553.14
546.68	17839.86
546.88	17477.37
547.08	17489.65
547.28	17153.79
547.48	16881.41
547.68	16959.23
547.88	16383.75
548.081	16256.78
548.281	15814.41
548.481	15961.87
548.681	15894.29
548.881	15562.51
549.081	15175.45
549.28	15193.88
549.48	14927.64
549.68	14722.85
549.88	14552.87
550.08	14206.76
550.28	14167.85
550.48	13946.67
550.68	13698.86
550.88	13246.26
551.08	13475.63
551.279	13326.13
551.479	13000.51
551.679	12748.61
551.879	12506.95
552.079	12625.73
552.278	12166.98
552.478	12250.95
552.678	11849.55
552.878	11951.95
553.077	11284.31
553.277	11210.58
553.477	11214.68
553.676	10936.15
553.876	10852.19
554.076	10549.09
554.275	10585.95
554.475	10202.98
554.674	10282.85
554.874	10200.93
555.074	9660.27
555.273	9684.84
555.473	9670.51
555.672	9488.24
555.872	8957.82
556.071	9201.52
556.271	9086.84
556.47	8701.82
556.67	8550.27
556.869	8388.48
557.068	8382.34
557.268	8234.88
557.467	8054.66
557.667	8099.72
557.866	7913.35
558.065	7706.51
558.265	7657.36
558.464	7419.79
558.663	7348.11
558.863	7206.8
559.062	7276.43
559.261	6907.8
559.461	6963.09
559.66	6518.68
559.859	6703
560.058	6520.73
560.258	6354.85
560.457	6250.4
560.656	6315.94
560.855	6104.99
561.054	6047.65
561.253	6045.6
561.453	5857.19
561.652	5695.4
561.851	5724.07
562.05	5414.83
562.249	5388.21
562.448	5492.65
562.647	5269.42
562.846	5341.1
563.045	5482.41
563.244	5074.87
563.443	5095.35
563.642	4816.82
563.841	4962.23
564.04	4849.59
564.239	4794.29
564.438	4743.1
564.637	4636.6
564.836	4681.66
565.035	4425.66
565.234	4513.72
565.432	4200.38
565.631	4202.43
565.83	4179.9
566.029	4024.26
566.228	4110.27
566.427	4075.46
566.625	4009.92
566.824	3805.13
567.023	3747.78
567.222	3807.17
567.42	3764.17
567.619	3821.51
567.818	3741.64
568.016	3776.45
568.215	3604.42
568.414	3602.38
568.612	3573.71
568.811	3483.59
569.01	3305.42
569.208	3358.67
569.407	3346.38
569.605	3194.83
569.804	3141.58
570.002	3090.38
570.201	2967.51
570.4	3100.62
570.598	2998.23
570.797	2944.98
570.995	2848.72
571.193	2967.51
571.392	2738.13
571.59	2775
571.789	2766.81
571.987	2711.51
572.186	2729.94
572.384	2594.78
572.582	2541.53
572.781	2635.74
572.979	2367.45
573.177	2473.95
573.376	2555.86
573.574	2308.06
573.772	2303.96
573.971	2107.36
574.169	2228.19
574.367	2301.92
574.565	2197.47
574.763	2111.46
574.962	2082.78
575.16	2050.02
575.358	2195.42
575.556	2047.97
575.754	1990.63
575.952	1943.52
576.151	1966.05
576.349	2052.06
576.547	1800.16
576.745	1761.25
576.943	1939.43
577.141	1789.92
577.339	1736.68
577.537	1634.28
577.735	1691.62
577.933	1804.26
578.131	1542.12
578.329	1667.05
578.527	1542.12
578.725	1703.91
578.923	1437.67
579.121	1662.95
579.319	1374.19
579.516	1544.17
579.714	1648.61
579.912	1607.66
580.11	1345.52
580.308	1474.54
580.506	1366
580.704	1196.01
580.901	1298.41
581.099	1384.43
581.297	1398.76
581.495	1347.56
581.692	1165.29
581.89	1355.76
582.088	1279.98
582.285	1304.56
582.483	1136.62
582.681	1165.29
582.878	1077.23
583.076	1191.92
583.274	1169.39
583.471	1376.23
583.669	1097.71
583.866	1050.61
584.064	1021.94
584.262	944.11
584.459	1042.42
584.657	989.17
584.854	1071.09
585.052	1034.22
585.249	993.26
585.447	1034.22
585.644	890.87
585.841	966.64
586.039	937.97
586.236	966.64
586.434	894.96
586.631	761.84
586.828	884.72
587.026	948.21
587.223	849.91
587.42	724.98
587.618	864.24
587.815	829.43
588.012	821.24
588.21	903.15
588.407	851.96
588.604	870.39
588.801	690.17
588.999	700.41
589.196	815.09
589.393	757.75
589.59	790.52
589.787	761.84
589.984	743.41
590.182	792.56
590.379	688.12
590.576	770.04
590.773	792.56
590.97	655.35
591.167	716.79
591.364	798.71
591.561	677.88
591.758	780.28
591.955	765.94
592.152	755.7
592.349	618.49
592.546	679.93
592.743	557.05
592.94	745.46
593.137	718.84
593.334	798.71
593.531	722.93
593.727	761.84
593.924	700.41
594.121	669.69
594.318	684.02
594.515	745.46
594.712	843.76
594.908	851.96
595.105	653.3
595.302	870.39
595.499	735.22
595.696	890.87
595.892	737.27
596.089	933.87
596.286	751.6
596.482	940.02
596.679	874.48
596.876	784.37
597.072	974.83
597.269	899.06
597.466	894.96
597.662	913.39
597.859	829.43
598.055	991.22
598.252	1026.03
598.448	1124.33
598.645	1105.9
598.841	1193.97
599.038	1224.69
599.234	1409
599.431	1271.79
599.627	1355.76
599.824	1396.71
600.02	1570.79
600.217	1386.47
600.413	1533.93
600.609	1648.61
600.806	1832.93
601.002	1810.4
601.198	1720.29
601.395	1908.71
601.591	1855.46
601.787	1943.52
601.984	2039.78
602.18	2205.66
602.376	2076.64
602.572	2285.53
602.769	2475.99
602.965	2349.02
603.161	2459.61
603.357	2533.34
603.553	2719.7
603.75	2703.32
603.946	2822.1
604.142	2863.06
604.338	3022.8
604.534	3133.39
604.73	3221.45
604.926	3190.74
605.122	3502.03
605.318	3557.32
605.514	3700.68
605.71	3776.45
605.906	3870.66
606.102	4003.78
606.298	4325.31
606.494	4343.74
606.69	4378.56
606.886	4491.2
607.082	4577.21
607.278	4640.7
607.474	4814.77
607.67	4962.23
607.866	5056.43
608.062	5273.52
608.257	5502.89
608.453	5638.06
608.649	5838.76
608.845	5812.14
609.041	6031.27
609.236	6186.91
609.432	6330.27
609.628	6596.51
609.824	6737.82
610.019	6860.7
610.215	6961.05
610.411	7391.12
610.606	7493.52
610.802	7638.92
610.998	7913.35
611.193	8060.8
611.389	8150.92
611.584	8339.33
611.78	8615.8
611.976	8656.76
612.171	9295.73
612.367	9529.2
612.562	9654.12
612.758	9418.61
612.953	9824.11
613.149	10368.87
613.344	10430.3
613.539	10792.8
613.735	11317.08
613.93	11454.29
614.126	11726.67
614.321	12119.88
614.517	12396.35
614.712	12541.76
614.907	13025.08
615.103	13162.3
615.298	13532.98
615.493	14192.42
615.688	14274.34
615.884	15038.23
616.079	15105.82
616.274	15613.71
616.47	15654.67
616.665	16058.12
616.86	16666.37
617.055	17047.29
617.25	17596.15
617.445	17977.07
617.641	18089.71
617.836	18794.21
618.031	18783.97
618.226	19857.1
618.421	19842.77
618.616	20797.12
618.811	20930.24
619.006	21706.42
619.201	21984.94
619.396	22507.18
619.591	22595.24
619.786	23553.69
619.981	23809.68
620.176	24567.43
620.371	24561.29
620.566	25450.11
620.761	25976.44
620.956	26799.72
621.151	27072.1
621.346	27706.97
621.541	27623
621.735	28991.05
621.93	28624.46
622.125	29838.9
622.32	29703.74
622.515	30629.42
622.709	31010.34
622.904	31753.76
623.099	32183.83
623.294	33011.21
623.488	33287.68
623.683	34186.74
623.878	34108.92
624.072	35249.64
624.267	35171.82
624.462	35841.5
624.656	36351.45
624.851	36863.44
625.046	37305.8
625.24	37887.42
625.435	38354.36
625.629	38649.27
625.824	39521.7
626.018	39951.77
626.213	39857.57
626.407	40805.78
626.602	40578.45
626.796	41414.02
626.991	42298.75
627.185	41846.15
627.38	42118.53
627.574	42167.68
627.768	42849.65
627.963	43027.82
628.157	42923.38
628.352	43724.13
628.546	42937.71
628.74	43572.58
628.935	43119.98
629.129	43390.31
629.323	42470.78
629.517	42128.77
629.712	42200.44
629.906	42335.61
630.1	41321.87
630.294	41338.25
630.489	40428.95
630.683	40598.93
630.877	39515.56
631.071	38692.27
631.265	38116.79
631.459	37144.01
631.653	36703.7
631.848	36179.42
632.042	34514.42
632.236	34295.28
632.43	32962.06
632.624	32685.58
632.818	31116.84
633.012	30066.23
633.206	29431.36
633.4	28798.54
633.594	27508.32
633.788	26549.87
633.982	25994.87
634.176	25001.6
634.369	23570.07
634.563	23013.02
634.757	21868.21
634.951	21317.31
635.145	20432.58
635.339	19742.42
635.533	18829.02
635.726	18284.26
635.92	17413.88
636.114	16568.07
636.308	15968.01
636.501	15294.23
636.695	14567.2
636.889	14133.03
637.083	13455.15
637.276	12898.11
637.47	12482.37
637.664	11870.03
637.857	11575.12
638.051	10880.86
638.244	10518.37
638.438	10274.66
638.632	9844.59
638.825	9213.81
639.019	9099.13
639.212	8562.56
639.406	8157.06
639.599	7974.79
639.793	7671.69
639.986	7313.3
640.18	7176.08
640.373	6719.39
640.567	6358.94
640.76	6236.06
640.954	5990.31
641.147	5748.65
641.34	5511.08
641.534	5375.92
641.727	5304.24
641.92	5035.96
642.114	4779.96
642.307	4616.12
642.5	4460.48
642.694	4319.17
642.887	4042.69
643.08	3971.01
643.273	3862.47
643.467	3585.99
643.66	3389.39
643.853	3420.11
644.046	3225.55
644.239	3135.44
644.432	3000.27
644.626	2854.87
644.819	2697.17
645.012	2783.19
645.205	2654.17
645.398	2666.46
645.591	2355.16
645.784	2191.33
645.977	2082.78
646.17	2121.7
646.363	2023.39
646.556	1849.32
646.749	1755.11
646.942	1849.32
647.135	1775.59
647.328	1679.33
647.521	1613.8
647.714	1503.21
647.907	1486.83
648.099	1449.96
648.292	1472.49
648.485	1456.11
648.678	1312.75
648.871	1224.69
649.064	1163.25
649.256	1042.42
649.449	1095.66
649.642	954.35
649.835	917.49
650.027	937.97
650.22	1005.55
650.413	937.97
650.605	958.45
650.798	833.52
650.991	835.57
651.183	835.57
651.376	829.43
651.568	813.04
651.761	704.5
651.954	780.28
652.146	653.3
652.339	749.56
652.531	722.93
652.724	552.95
652.916	618.49
653.109	481.27
653.301	593.91
653.494	606.2
653.686	526.33
653.879	604.15
654.071	589.81
654.263	432.12
654.456	499.7
654.648	563.19
654.84	479.22
655.033	360.44
655.225	532.47
655.417	358.39
655.61	507.9
655.802	446.46
655.994	458.75
656.186	319.48
656.379	475.13
656.571	354.3
656.763	364.54
656.955	282.62
657.148	350.2
657.34	452.6
657.532	329.72
657.724	208.89
657.916	346.11
658.108	493.56
658.3	448.51
658.492	327.67
658.684	249.85
658.876	348.15
659.068	200.7
659.26	360.44
659.452	174.08
659.644	268.28
659.836	382.97
660.028	327.67
660.22	151.55
660.412	221.18
660.604	233.47
660.796	237.56
660.988	317.44
661.18	219.13
661.372	327.67
661.563	249.85
661.755	362.49
661.947	180.22
662.139	135.17
662.331	180.22
662.522	196.61
662.714	165.89
662.906	157.69
663.097	151.55
663.289	161.79
663.481	51.2
663.673	200.7
663.864	192.51
664.056	219.13
664.247	57.34
664.439	206.84
664.631	208.89
664.822	198.65
665.014	206.84
665.205	167.93
665.397	114.69
665.588	204.8
665.78	96.25
665.971	225.28
666.163	131.07
666.354	169.98
666.546	149.5
666.737	165.89
666.929	141.31
667.12	112.64
667.311	133.12
667.503	188.41
667.694	145.41
667.885	217.08
668.077	143.36
668.268	63.49
668.459	106.49
668.651	153.6
668.842	192.51
669.033	122.88
669.224	53.25
669.416	268.28
669.607	129.02
669.798	122.88
669.989	186.37
670.18	118.78
670.371	215.04
670.563	108.54
670.754	163.84
670.945	147.45
671.136	190.46
671.327	108.54
671.518	153.6
671.709	192.51
671.9	256
672.091	192.51
672.282	129.02
672.473	141.31
672.664	81.92
672.855	106.49
673.046	167.93
673.237	147.45
673.428	233.47
673.619	196.61
673.809	178.17
674	229.37
674.191	143.36
674.382	145.41
674.573	149.5
674.764	153.6
674.954	186.37
675.145	88.06
675.336	104.45
675.527	120.83
675.717	88.06
675.908	122.88
676.099	98.3
676.289	176.13
676.48	14.34
676.671	92.16
676.861	227.32
677.052	104.45
677.243	118.78
677.433	161.79
677.624	192.51
677.814	217.08
678.005	131.07
678.195	186.37
678.386	55.3
678.576	180.22
678.767	57.34
678.957	106.49
679.148	231.42
679.338	221.18
679.529	149.5
679.719	137.21
679.909	176.13
680.1	196.61
680.29	219.13
680.481	45.06
680.671	309.24
680.861	131.07
681.052	247.8
681.242	65.54
681.432	200.7
681.622	194.56
681.813	55.3
682.003	239.61
682.193	143.36
682.383	243.71
682.573	174.08
682.764	196.61
682.954	153.6
683.144	190.46
683.334	194.56
683.524	161.79
683.714	186.37
683.904	75.77
684.094	188.41
684.284	280.57
684.474	309.24
684.664	231.42
684.854	258.04
685.044	149.5
685.234	229.37
685.424	198.65
685.614	184.32
685.804	282.62
685.994	288.76
686.184	172.03
686.374	188.41
686.564	202.75
686.753	169.98
686.943	94.21
687.133	159.74
687.323	184.32
687.513	206.84
687.702	235.52
687.892	165.89
688.082	301.05
688.272	270.33
688.461	215.04
688.651	299
688.841	272.38
689.03	102.4
689.22	208.89
689.41	251.9
689.599	172.03
689.789	159.74
689.979	385.02
690.168	169.98
690.358	174.08
690.547	192.51
690.737	210.94
690.926	153.6
691.116	180.22
691.305	239.61
691.495	233.47
691.684	131.07
691.874	172.03
692.063	206.84
692.252	325.63
692.442	272.38
692.631	135.17
692.82	90.11
693.01	153.6
693.199	182.27
693.388	200.7
693.578	149.5
693.767	268.28
693.956	229.37
694.146	249.85
694.335	178.17
694.524	219.13
694.713	364.54
694.902	118.78
695.092	118.78
695.281	249.85
695.47	219.13
695.659	180.22
695.848	184.32
696.037	102.4
696.226	208.89
696.415	215.04
696.604	313.34
696.793	266.24
696.982	98.3
697.171	346.11
697.36	151.55
697.549	192.51
697.738	137.21
697.927	149.5
698.116	137.21
698.305	135.17
698.494	237.56
698.683	159.74
698.872	241.66
699.061	223.23
699.25	120.83
699.438	143.36
699.627	190.46
699.816	299
700.005	73.73
700.193	126.97
700.382	188.41
700.571	280.57
700.76	212.99
700.948	264.19
701.137	217.08
701.326	208.89
701.514	133.12
701.703	145.41
701.892	229.37
702.08	278.52
702.269	131.07
702.457	174.08
702.646	258.04
702.834	174.08
703.023	344.06
703.212	202.75
703.4	225.28
703.589	71.68
703.777	186.37
703.965	161.79
704.154	235.52
704.342	200.7
704.531	157.69
704.719	243.71
704.907	301.05
705.096	108.54
705.284	94.21
705.472	182.27
705.661	202.75
705.849	223.23
706.037	276.48
706.226	141.31
706.414	155.65
706.602	141.31
706.79	174.08
706.979	196.61
707.167	192.51
707.355	45.06
707.543	137.21
707.731	225.28
707.919	147.45
708.107	221.18
708.296	143.36
708.484	124.93
708.672	147.45
708.86	188.41
709.048	223.23
709.236	169.98
709.424	231.42
709.612	165.89
709.8	104.45
709.988	217.08
710.176	239.61
710.364	227.32
710.551	194.56
710.739	124.93
710.927	112.64
711.115	286.72
711.303	229.37
711.491	208.89
711.679	212.99
711.866	227.32
712.054	102.4
712.242	208.89
712.43	288.76
712.617	120.83
712.805	294.91
712.993	192.51
713.181	120.83
713.368	280.57
713.556	192.51
713.744	155.65
713.931	366.59
714.119	264.19
714.306	159.74
714.494	178.17
714.682	198.65
714.869	108.54
715.057	83.97
715.244	137.21
715.432	235.52
715.619	161.79
715.807	182.27
715.994	163.84
716.182	188.41
716.369	215.04
716.556	284.67
716.744	55.3
716.931	34.82
717.119	241.66
717.306	186.37
717.493	241.66
717.681	102.4
717.868	135.17
718.055	221.18
718.242	155.65
718.43	180.22
718.617	301.05
718.804	231.42
718.991	362.49
719.179	184.32
719.366	212.99
719.553	198.65
719.74	239.61
719.927	182.27
720.114	243.71
720.301	292.86
720.488	153.6
720.676	102.4
720.863	346.11
721.05	329.72
721.237	260.09
721.424	315.39
721.611	192.51
721.798	147.45
721.985	151.55
722.172	190.46
722.358	131.07
722.545	251.9
722.732	190.46
722.919	335.87
723.106	202.75
723.293	114.69
723.48	235.52
723.667	186.37
723.853	249.85
724.04	223.23
724.227	272.38
724.414	202.75
724.6	157.69
724.787	329.72
724.974	399.35
725.161	204.8
725.347	155.65
725.534	161.79
725.72	278.52
725.907	241.66
726.094	301.05
726.28	198.65
726.467	256
726.653	225.28
726.84	362.49
727.027	311.29
727.213	274.43
727.4	231.42
727.586	337.91
727.773	256
727.959	311.29
728.145	270.33
728.332	276.48
728.518	235.52
728.705	272.38
728.891	286.72
729.077	202.75
729.264	194.56
729.45	231.42
729.636	253.95
729.823	325.63
730.009	264.19
730.195	194.56
730.382	317.44
730.568	137.21
730.754	167.93
730.94	268.28
731.126	311.29
731.313	335.87
731.499	141.31
731.685	321.53
731.871	262.14
732.057	237.56
732.243	272.38
732.429	225.28
732.615	368.63
732.801	280.57
732.987	190.46
733.173	272.38
733.359	251.9
733.545	165.89
733.731	284.67
733.917	313.34
734.103	317.44
734.289	333.82
734.475	223.23
734.661	385.02
734.847	288.76
735.033	258.04
735.219	315.39
735.404	266.24
735.59	239.61
735.776	258.04
735.962	202.75
736.148	290.81
736.333	301.05
736.519	319.48
736.705	210.94
736.89	219.13
737.076	280.57
737.262	79.87
737.447	241.66
737.633	219.13
737.819	262.14
738.004	284.67
738.19	237.56
738.375	180.22
738.561	317.44
738.747	249.85
738.932	157.69
739.118	376.83
739.303	243.71
739.489	235.52
739.674	231.42
739.859	180.22
740.045	313.34
740.23	229.37
740.416	98.3
740.601	311.29
740.786	231.42
740.972	290.81
741.157	143.36
741.342	204.8
741.528	131.07
741.713	333.82
741.898	227.32
742.084	256
742.269	288.76
742.454	309.24
742.639	352.25
742.824	260.09
743.01	387.07
743.195	342.01
743.38	280.57
743.565	264.19
743.75	186.37
743.935	251.9
744.12	425.98
744.305	198.65
744.49	198.65
744.675	311.29
744.86	194.56
745.045	227.32
745.23	184.32
745.415	239.61
745.6	415.74
745.785	196.61
745.97	288.76
746.155	288.76
746.34	321.53
746.525	186.37
746.71	342.01
746.895	137.21
747.079	169.98
747.264	231.42
747.449	309.24
747.634	278.52
747.819	286.72
748.003	118.78
748.188	49.15
748.373	260.09
748.557	258.04
748.742	227.32
748.927	202.75
749.111	206.84
749.296	215.04
749.481	266.24
749.665	178.17
749.85	186.37
750.034	227.32
750.219	280.57
750.404	159.74
750.588	149.5
750.773	118.78
750.957	212.99
751.141	155.65
751.326	266.24
751.51	34.82
751.695	192.51
751.879	169.98
752.064	319.48
752.248	149.5
752.432	327.67
752.617	206.84
752.801	217.08
752.985	159.74
753.17	202.75
753.354	194.56
753.538	272.38
753.722	206.84
753.907	188.41
754.091	106.49
754.275	268.28
754.459	120.83
754.643	88.06
754.828	215.04
755.012	210.94
755.196	63.49
755.38	272.38
755.564	104.45
755.748	165.89
755.932	165.89
756.116	210.94
756.3	221.18
756.484	63.49
756.668	157.69
756.852	43.01
757.036	75.77
757.22	169.98
757.404	151.55
757.588	73.73
757.772	206.84
757.956	131.07
758.14	272.38
758.323	110.59
758.507	174.08
758.691	131.07
758.875	147.45
759.059	194.56
759.242	141.31
759.426	137.21
759.61	145.41
759.794	43.01
759.977	210.94
760.161	348.15
760.345	231.42
760.528	237.56
760.712	243.71
760.895	131.07
761.079	172.03
761.263	-6.14
761.446	126.97
761.63	106.49
761.813	284.67
761.997	10.24
762.18	163.84
762.364	126.97
762.547	0
762.731	79.87
762.914	83.97
763.098	180.22
763.281	210.94
763.464	77.82
763.648	100.35
763.831	102.4
764.015	65.54
764.198	114.69
764.381	86.01
764.564	239.61
764.748	129.02
764.931	98.3
765.114	137.21
765.297	149.5
765.481	178.17
765.664	88.06
765.847	16.38
766.03	251.9
766.213	81.92
766.397	59.39
766.58	59.39
766.763	163.84
766.946	102.4
767.129	110.59
767.312	73.73
767.495	122.88
767.678	47.1
767.861	131.07
768.044	100.35
768.227	79.87
768.41	32.77
768.593	90.11
768.776	102.4
768.959	38.91
769.142	176.13
769.324	73.73
769.507	96.25
769.69	94.21
769.873	36.86
770.056	288.76
770.239	43.01
770.421	167.93
770.604	110.59
770.787	69.63
770.97	116.73
771.152	16.38
771.335	139.26
771.518	73.73
771.7	194.56
771.883	221.18
772.066	30.72
772.248	79.87
772.431	143.36
772.613	118.78
772.796	88.06
772.978	100.35
773.161	143.36
773.343	176.13
773.526	16.38
773.708	16.38
773.891	-28.67
774.073	57.34
774.256	40.96
774.438	167.93
774.621	53.25
774.803	139.26
774.985	47.1
775.168	139.26
775.35	77.82
775.532	141.31
775.715	59.39
775.897	120.83
776.079	22.53
776.261	63.49
776.444	53.25
776.626	32.77
776.808	79.87
776.99	-69.63
777.173	30.72
777.355	51.2
777.537	49.15
777.719	137.21
777.901	36.86
778.083	71.68
778.265	51.2
778.447	34.82
778.629	88.06
778.811	45.06
778.993	129.02
779.175	167.93
779.357	59.39
779.539	-18.43
779.721	49.15
779.903	100.35
780.085	71.68
780.267	20.48
780.449	18.43
780.631	102.4
780.812	155.65
780.994	0
781.176	86.01
781.358	24.58
781.54	114.69
781.721	24.58
781.903	73.73
782.085	30.72
782.267	153.6
782.448	-75.77
782.63	-86.01
782.812	43.01
782.993	165.89
783.175	94.21
783.357	55.3
783.538	12.29
783.72	2.05
783.901	75.77
784.083	40.96
784.264	88.06
784.446	-4.1
784.627	-92.16
784.809	94.21
784.99	26.62
785.172	75.77
785.353	14.34
785.535	110.59
785.716	16.38
785.897	55.3
786.079	53.25
786.26	126.97
786.441	59.39
786.623	-38.91
786.804	4.1
786.985	90.11
787.167	112.64
787.348	22.53
787.529	22.53
787.71	212.99
787.891	18.43
788.073	51.2
788.254	-116.73
788.435	157.69
788.616	-2.05
788.797	16.38
788.978	45.06
789.159	40.96
789.34	-10.24
789.522	137.21
789.703	-94.21
789.884	28.67
790.065	81.92
790.246	167.93
790.427	34.82
790.607	122.88
790.788	6.14
790.969	8.19
791.15	77.82
791.331	40.96
791.512	38.91
791.693	0
791.874	-59.39
792.054	215.04
792.235	149.5
792.416	-30.72
792.597	6.14
792.778	129.02
792.958	43.01
793.139	14.34
793.32	88.06
793.5	-22.53
793.681	98.3
793.862	92.16
794.042	36.86
794.223	-94.21
794.404	10.24
794.584	-90.11
794.765	51.2
794.945	32.77
795.126	65.54
795.306	43.01
795.487	18.43
795.667	-8.19
795.848	73.73
796.028	30.72
796.209	20.48
796.389	34.82
796.57	20.48
796.75	-2.05
796.93	-36.86
797.111	-4.1
797.291	-40.96
797.471	71.68
797.652	-34.82
797.832	-6.14
798.012	112.64
798.192	2.05
798.373	-40.96
798.553	-18.43
798.733	63.49
798.913	-40.96
799.093	16.38
799.274	-20.48
799.454	118.78
799.634	24.58
799.814	83.97
799.994	53.25
800.174	120.83
800.354	26.62
800.534	-96.25
800.714	-38.91
800.894	-51.2
801.074	0
801.254	-112.64
801.434	129.02
801.614	-43.01
801.794	-18.43
801.974	2002.91
802.154	32.77
802.334	104.45
802.514	-112.64
802.693	43.01
802.873	-38.91
803.053	79.87
803.233	81.92
803.413	6.14
803.592	-88.06
803.772	-12.29
803.952	88.06
804.131	-59.39
804.311	126.97
804.491	98.3
804.67	-49.15
804.85	-30.72
805.03	86.01
805.209	51.2
805.389	18.43
805.568	79.87
805.748	-8.19
805.928	-10.24
806.107	47.1
806.287	100.35
806.466	65.54
806.646	61.44
806.825	71.68
807.004	30.72
807.184	26.62
807.363	79.87
807.543	104.45
807.722	12.29
807.901	73.73
808.081	63.49
808.26	-43.01
808.439	-8.19
808.619	18.43
808.798	4.1
808.977	100.35
809.156	24.58
809.336	12.29
809.515	71.68
809.694	-118.78
809.873	-26.62
810.052	24.58
810.231	100.35
810.411	88.06
810.59	118.78
810.769	116.73
810.948	102.4
811.127	-192.51
811.306	-24.58
811.485	77.82
811.664	98.3
811.843	18.43
812.022	28.67
812.201	-79.87
812.38	65.54
812.559	-4.1
812.737	126.97
812.916	22.53
813.095	-6.14
813.274	94.21
813.453	12.29
813.632	30.72
813.811	100.35
813.989	-106.49
814.168	24.58
814.347	51.2
814.526	53.25
814.704	178.17
814.883	149.5
815.062	-18.43
815.24	51.2
815.419	-69.63
815.598	-8.19
815.776	-79.87
815.955	38.91
816.133	-94.21
816.312	2.05
816.49	-88.06
816.669	28.67
816.847	16.38
817.026	-22.53
817.204	2.05
817.383	-28.67
817.561	-22.53
817.74	55.3
817.918	61.44
818.097	-22.53
818.275	30.72
818.453	32.77
818.632	24.58
818.81	-2.05
818.988	-59.39
819.167	-28.67
819.345	4.1
819.523	-10.24
819.701	-6.14
819.879	73.73
820.058	51.2
820.236	0
820.414	43.01
820.592	45.06
820.77	-2.05
820.948	6.14
821.127	-22.53
821.305	-34.82
821.483	-24.58
821.661	49.15
821.839	4.1
822.017	-63.49
822.195	4.1
822.373	12.29
822.551	10.24
822.729	120.83
822.907	2.05
823.085	73.73
823.262	47.1
823.44	12.29
823.618	-79.87
823.796	126.97
823.974	45.06
824.152	-61.44
824.329	-30.72
824.507	-59.39
824.685	67.58
824.863	14.34
825.04	-14.34
825.218	30.72
825.396	40.96
825.574	-4.1
825.751	-34.82
825.929	30.72
826.107	12.29
826.284	-36.86
826.462	55.3
826.639	-28.67
826.817	14.34
826.994	-20.48
827.172	-51.2
827.349	149.5
827.527	-8.19
827.704	6.14
827.882	71.68
828.059	20.48
828.237	-34.82
828.414	92.16
828.591	-73.73
828.769	-51.2
828.946	-32.77
829.124	55.3
829.301	86.01
829.478	24.58
829.655	32.77
829.833	2.05
830.01	-149.5
830.187	-18.43
830.364	12.29
830.542	86.01
830.719	83.97
830.896	14.34
831.073	77.82
831.25	61.44
831.427	10.24
831.604	2.05
831.782	-6.14
831.959	141.31
832.136	-22.53
832.313	-36.86
832.49	32.77
832.667	-24.58
832.844	-96.25
833.021	47.1
833.198	26.62
833.374	63.49
833.551	28.67
833.728	-94.21
833.905	32.77
834.082	-77.82
834.259	22.53
834.436	71.68
834.612	-28.67
834.789	59.39
834.966	53.25
835.143	83.97
835.319	-77.82
835.496	32.77
835.673	16.38
835.85	112.64
836.026	2.05
836.203	-2.05
836.38	-45.06
836.556	-22.53
836.733	-30.72
836.909	88.06
837.086	-8.19
837.262	-36.86
837.439	71.68
837.616	-32.77
837.792	16.38
837.968	-40.96
838.145	-63.49
838.321	36.86
838.498	26.62
838.674	75.77
838.851	26.62
839.027	30.72
839.203	43.01
839.38	88.06
839.556	-30.72
839.732	30.72
839.909	0
840.085	30.72
840.261	-38.91
840.437	57.34
840.614	-149.5
840.79	61.44
840.966	51.2
841.142	57.34
841.318	67.58
841.494	16.38
841.671	51.2
841.847	-47.1
842.023	-38.91
842.199	57.34
842.375	106.49
842.551	-71.68
842.727	-118.78
842.903	133.12
843.079	-4.1
843.255	83.97
843.431	20.48
843.607	61.44
843.783	-118.78
843.959	26.62
844.134	-81.92
844.31	116.73
844.486	-36.86
844.662	-86.01
844.838	69.63
845.013	6.14
845.189	0
845.365	4.1
845.541	28.67
845.716	-30.72
845.892	110.59
846.068	-88.06
846.244	18.43
846.419	49.15
846.595	-47.1
846.77	18.43
846.946	-4.1
847.122	-2.05
847.297	-53.25
847.473	77.82
847.648	-90.11
847.824	20.48
847.999	-47.1
848.175	-8.19
848.35	12.29
848.526	116.73
848.701	16.38
848.876	69.63
849.052	73.73
849.227	-53.25
849.403	-86.01
849.578	12.29
849.753	-2.05
849.929	22.53
850.104	-71.68
850.279	18.43
850.454	-43.01
850.63	59.39
850.805	36.86
850.98	-28.67
851.155	-32.77
851.33	-20.48
851.505	-98.3
851.681	159.74
851.856	-90.11
852.031	100.35
852.206	67.58
852.381	-77.82
852.556	38.91
852.731	61.44
852.906	100.35
853.081	69.63
853.256	116.73
853.431	-26.62
853.606	-10.24
853.781	-57.34
853.956	-126.97
854.131	30.72
854.305	-53.25
854.48	-2.05
854.655	-24.58
854.83	-90.11
855.005	0
855.18	47.1
855.354	-10.24
855.529	-14.34
855.704	6.14
855.879	73.73
856.053	-129.02
856.228	22.53
856.403	-57.34
856.577	28.67
856.752	-131.07
856.926	-40.96
857.101	16.38
857.276	-81.92
857.45	14.34
857.625	73.73
857.799	28.67
857.974	45.06
858.148	-86.01
858.323	16.38
858.497	-51.2
858.672	-112.64
858.846	-43.01
859.02	73.73
859.195	14.34
859.369	57.34
859.543	40.96
859.718	40.96
859.892	-4.1
860.066	-22.53
860.241	28.67
860.415	-69.63
860.589	22.53
860.763	22.53
860.938	-22.53
861.112	53.25
861.286	-75.77
861.46	-28.67
861.634	61.44
861.808	24.58
861.982	-47.1
862.157	-83.97
862.331	38.91
862.505	-118.78
862.679	-43.01
862.853	-65.54
863.027	55.3
863.201	135.17
863.375	-63.49
863.549	-2.05
863.722	4.1
863.896	65.54
864.07	49.15
864.244	-12.29
864.418	14.34
864.592	45.06
864.766	49.15
864.939	24.58
865.113	14.34
865.287	83.97
865.461	-67.58
865.634	22.53
865.808	-8.19
865.982	-55.3
866.156	14.34
866.329	-139.26
866.503	0
866.676	55.3
866.85	-8.19
867.024	-22.53
867.197	110.59
867.371	69.63
867.544	55.3
867.718	-63.49
867.891	73.73
868.065	-34.82
868.238	6.14
868.412	88.06
868.585	45.06
868.759	-67.58
868.932	-79.87
869.105	-63.49
869.279	0
869.452	-28.67
869.625	28.67
869.799	-8.19
869.972	-28.67
870.145	-86.01
870.319	122.88
870.492	4.1
870.665	18.43
870.838	28.67
871.011	-153.6
871.185	-59.39
871.358	2.05
871.531	69.63
871.704	-77.82
871.877	-32.77
872.05	-36.86
872.223	-61.44
872.396	69.63
872.569	83.97
872.742	-67.58
872.915	55.3
873.088	-43.01
873.261	4.1
873.434	61.44
873.607	-55.3
873.78	94.21
873.953	-90.11
874.126	112.64
874.299	-32.77
874.471	-14.34
874.644	22.53
874.817	40.96
874.99	94.21
875.163	-53.25
875.335	96.25
875.508	-65.54
875.681	90.11
875.853	-122.88
876.026	8.19
876.199	139.26
876.371	-30.72
876.544	-26.62
876.717	0
876.889	22.53
877.062	26.62
877.234	2.05
877.407	-47.1
877.579	-16.38
877.752	-4.1
877.924	55.3
878.097	28.67
878.269	75.77
878.442	59.39
878.614	106.49
878.786	-20.48
878.959	30.72
879.131	2.05
879.303	-92.16
879.476	71.68
879.648	108.54
879.82	28.67
879.993	10.24
880.165	-51.2
880.337	-131.07
880.509	43.01
880.681	-112.64
880.854	-24.58
881.026	69.63
881.198	147.45
881.37	-28.67
881.542	-10.24
881.714	8.19
881.886	-47.1
882.058	22.53
882.23	-2.05
882.402	-53.25
882.574	-49.15
882.746	69.63
882.918	100.35
883.09	124.93
883.262	47.1
883.434	14.34
883.606	-198.65
883.778	47.1
883.95	155.65
884.122	-32.77
884.293	61.44
884.465	18.43
884.637	124.93
884.809	32.77
884.98	79.87
885.152	43.01
885.324	43.01
885.496	-114.69
885.667	30.72
885.839	-20.48
886.011	83.97
886.182	36.86
886.354	92.16
886.525	20.48
886.697	22.53
886.869	-36.86
887.04	36.86
887.212	65.54
887.383	94.21
887.555	-40.96
887.726	30.72
887.897	-10.24
888.069	55.3
888.24	51.2
888.412	-20.48
888.583	43.01
888.754	18.43
888.926	-108.54
889.097	-55.3
889.268	-83.97
889.44	8.19
889.611	-96.25
889.782	-75.77
889.953	-67.58
890.125	88.06
890.296	-73.73
890.467	-16.38
890.638	-36.86
890.809	-57.34
890.98	-88.06
891.151	18.43
891.323	157.69
891.494	-34.82
891.665	40.96
891.836	-2.05
892.007	20.48
892.178	34.82
892.349	36.86
892.52	-90.11
892.691	32.77
892.862	-40.96
893.032	-43.01
893.203	-63.49
893.374	34.82
893.545	49.15
893.716	-61.44
893.887	88.06
894.057	-4.1
894.228	-102.4
894.399	-30.72
894.57	151.55
894.74	-28.67
894.911	86.01
895.082	-102.4
895.253	-83.97
895.423	36.86
895.594	47.1
895.764	2.05
895.935	-106.49
896.106	55.3
896.276	-67.58
896.447	55.3
896.617	-71.68
896.788	-102.4
896.958	30.72
897.129	-77.82
897.299	-45.06
897.47	77.82
897.64	61.44
897.81	12.29
897.981	30.72
898.151	-38.91
898.322	2.05
898.492	59.39
898.662	26.62
898.832	-43.01
899.003	-94.21
899.173	-18.43
899.343	-6.14
899.513	-59.39
