Data from USB4F104151__26__10-42-09-185.txt Node

Date: Wed Feb 26 10:42:09 EST 2025
User: louis
Spectrometer: USB4F10415
Trigger mode: 4
Integration Time (sec): 1.000000E-1
Scans to average: 1
Electric dark correction enabled: true
Nonlinearity correction enabled: false
Boxcar width: 0
XAxis mode: Wavelengths
Number of Pixels in Spectrum: 3648
>>>>>Begin Spectral Data<<<<<
178.204	-388.09
178.424	-388.09
178.644	-388.09
178.864	-457.72
179.084	-361.47
179.304	-27.65
179.524	13.31
179.744	138.24
179.964	9.22
180.184	-33.79
180.404	46.08
180.624	-1.02
180.844	-3.07
181.064	-103.42
181.283	25.6
181.503	-54.27
181.723	-9.22
181.943	-58.37
182.163	168.96
182.383	-128
182.602	56.32
182.822	111.61
183.042	44.03
183.262	15.36
183.482	-66.56
183.701	82.94
183.921	1.02
184.141	-58.37
184.361	31.74
184.58	82.94
184.8	39.94
185.02	1.02
185.239	93.18
185.459	74.75
185.679	105.47
185.898	5.12
186.118	72.7
186.338	-19.46
186.557	82.94
186.777	-52.22
186.997	5.12
187.216	78.85
187.436	199.68
187.655	97.28
187.875	101.37
188.095	105.47
188.314	140.29
188.534	80.89
188.753	-39.94
188.973	87.04
189.192	62.46
189.412	29.7
189.631	68.61
189.851	13.31
190.07	179.2
190.29	-54.27
190.509	-3.07
190.729	-91.13
190.948	50.18
191.168	259.07
191.387	54.27
191.607	-39.94
191.826	68.61
192.045	52.22
192.265	29.7
192.484	91.13
192.704	62.46
192.923	-95.23
193.142	154.62
193.362	99.33
193.581	138.24
193.8	52.22
194.02	3.07
194.239	54.27
194.458	11.26
194.678	-27.65
194.897	-50.18
195.116	41.98
195.335	29.7
195.555	64.51
195.774	-35.84
195.993	121.85
196.212	46.08
196.432	29.7
196.651	-39.94
196.87	33.79
197.089	158.72
197.308	52.22
197.528	27.65
197.747	-1.02
197.966	66.56
198.185	168.96
198.404	15.36
198.623	84.99
198.842	134.14
199.062	56.32
199.281	37.89
199.5	-35.84
199.719	58.37
199.938	76.8
200.157	56.32
200.376	74.75
200.595	68.61
200.814	48.13
201.033	-11.26
201.252	101.37
201.471	48.13
201.69	121.85
201.909	66.56
202.128	119.81
202.347	87.04
202.566	3.07
202.785	-97.28
203.004	-3.07
203.223	207.87
203.442	78.85
203.661	-39.94
203.879	19.46
204.098	168.96
204.317	-56.32
204.536	125.95
204.755	72.7
204.974	87.04
205.193	9.22
205.411	138.24
205.63	70.65
205.849	-31.74
206.068	-9.22
206.287	-62.46
206.505	62.46
206.724	107.52
206.943	-25.6
207.162	-52.22
207.381	78.85
207.599	7.17
207.818	31.74
208.037	-58.37
208.255	11.26
208.474	17.41
208.693	-21.5
208.911	27.65
209.13	-1.02
209.349	95.23
209.567	29.7
209.786	11.26
210.005	56.32
210.223	76.8
210.442	-56.32
210.661	-1.02
210.879	111.61
211.098	58.37
211.316	21.5
211.535	-3.07
211.753	-52.22
211.972	31.74
212.191	5.12
212.409	46.08
212.628	177.15
212.846	-19.46
213.065	105.47
213.283	70.65
213.502	68.61
213.72	128
213.938	62.46
214.157	-13.31
214.375	117.76
214.594	-15.36
214.812	-9.22
215.031	-21.5
215.249	60.42
215.467	64.51
215.686	-31.74
215.904	41.98
216.122	54.27
216.341	91.13
216.559	13.31
216.778	58.37
216.996	173.05
217.214	3.07
217.432	-39.94
217.651	-9.22
217.869	84.99
218.087	3.07
218.306	48.13
218.524	-23.55
218.742	-17.41
218.96	39.94
219.179	-58.37
219.397	9.22
219.615	300.03
219.833	44.03
220.051	-27.65
220.27	132.09
220.488	44.03
220.706	68.61
220.924	-7.17
221.142	1.02
221.36	48.13
221.578	66.56
221.796	97.28
222.015	37.89
222.233	46.08
222.451	183.29
222.669	-35.84
222.887	54.27
223.105	-58.37
223.323	27.65
223.541	-64.51
223.759	23.55
223.977	1.02
224.195	121.85
224.413	31.74
224.631	13.31
224.849	44.03
225.067	238.59
225.285	19.46
225.503	31.74
225.721	-52.22
225.939	84.99
226.157	5.12
226.375	230.4
226.592	-72.7
226.81	-9.22
227.028	158.72
227.246	72.7
227.464	44.03
227.682	138.24
227.9	7.17
228.117	132.09
228.335	82.94
228.553	64.51
228.771	68.61
228.989	82.94
229.206	5.12
229.424	39.94
229.642	-11.26
229.86	-21.5
230.077	121.85
230.295	44.03
230.513	17.41
230.731	7.17
230.948	216.06
231.166	154.62
231.384	9.22
231.601	-17.41
231.819	136.19
232.037	-23.55
232.254	1.02
232.472	44.03
232.689	-66.56
232.907	119.81
233.125	13.31
233.342	-29.7
233.56	-52.22
233.777	1.02
233.995	35.84
234.213	72.7
234.43	44.03
234.648	9.22
234.865	-23.55
235.083	54.27
235.3	44.03
235.518	99.33
235.735	99.33
235.953	82.94
236.17	52.22
236.388	-3.07
236.605	13.31
236.822	107.52
237.04	62.46
237.257	17.41
237.475	-70.65
237.692	66.56
237.909	93.18
238.127	-68.61
238.344	80.89
238.562	-11.26
238.779	-3.07
238.996	-76.8
239.214	99.33
239.431	58.37
239.648	-9.22
239.865	99.33
240.083	93.18
240.3	62.46
240.517	-27.65
240.735	66.56
240.952	162.81
241.169	29.7
241.386	101.37
241.603	-60.42
241.821	-7.17
242.038	78.85
242.255	158.72
242.472	-31.74
242.689	119.81
242.907	46.08
243.124	91.13
243.341	130.05
243.558	-25.6
243.775	-95.23
243.992	-33.79
244.209	78.85
244.426	109.57
244.643	7.17
244.86	-19.46
245.078	136.19
245.295	33.79
245.512	-23.55
245.729	7.17
245.946	87.04
246.163	35.84
246.38	-82.94
246.597	117.76
246.814	-7.17
247.031	99.33
247.248	7.17
247.464	113.66
247.681	60.42
247.898	27.65
248.115	82.94
248.332	5.12
248.549	54.27
248.766	140.29
248.983	91.13
249.2	54.27
249.417	74.75
249.633	56.32
249.85	138.24
250.067	-15.36
250.284	54.27
250.501	154.62
250.717	93.18
250.934	13.31
251.151	109.57
251.368	-44.03
251.585	31.74
251.801	33.79
252.018	-7.17
252.235	-7.17
252.451	-60.42
252.668	17.41
252.885	72.7
253.102	62.46
253.318	39.94
253.535	15.36
253.752	-37.89
253.968	-27.65
254.185	-95.23
254.401	39.94
254.618	11.26
254.835	29.7
255.051	138.24
255.268	56.32
255.484	41.98
255.701	-29.7
255.917	29.7
256.134	-11.26
256.351	-27.65
256.567	-27.65
256.784	25.6
257	-66.56
257.217	82.94
257.433	72.7
257.65	41.98
257.866	168.96
258.082	-89.09
258.299	-3.07
258.515	101.37
258.732	54.27
258.948	58.37
259.165	11.26
259.381	50.18
259.597	109.57
259.814	5.12
260.03	50.18
260.246	37.89
260.463	152.57
260.679	181.25
260.895	31.74
261.112	56.32
261.328	-93.18
261.544	44.03
261.761	144.38
261.977	-11.26
262.193	-23.55
262.409	156.67
262.626	-21.5
262.842	-19.46
263.058	9.22
263.274	80.89
263.49	87.04
263.707	115.71
263.923	54.27
264.139	-93.18
264.355	66.56
264.571	74.75
264.787	7.17
265.004	142.33
265.22	-52.22
265.436	-7.17
265.652	44.03
265.868	-74.75
266.084	-23.55
266.3	25.6
266.516	-29.7
266.732	11.26
266.948	50.18
267.164	58.37
267.38	56.32
267.596	68.61
267.812	80.89
268.028	54.27
268.244	39.94
268.46	15.36
268.676	-11.26
268.892	84.99
269.108	-21.5
269.324	-15.36
269.54	-68.61
269.756	99.33
269.972	-80.89
270.188	66.56
270.403	-29.7
270.619	44.03
270.835	89.09
271.051	60.42
271.267	1.02
271.483	11.26
271.698	99.33
271.914	-9.22
272.13	37.89
272.346	13.31
272.562	50.18
272.777	158.72
272.993	-13.31
273.209	17.41
273.425	70.65
273.64	-13.31
273.856	95.23
274.072	-11.26
274.287	-44.03
274.503	97.28
274.719	168.96
274.934	89.09
275.15	-46.08
275.366	99.33
275.581	95.23
275.797	-19.46
276.012	158.72
276.228	-13.31
276.444	35.84
276.659	97.28
276.875	-33.79
277.09	-17.41
277.306	60.42
277.521	50.18
277.737	41.98
277.952	125.95
278.168	58.37
278.383	33.79
278.599	125.95
278.814	160.77
279.03	-1.02
279.245	113.66
279.461	52.22
279.676	78.85
279.892	-62.46
280.107	-13.31
280.322	-33.79
280.538	54.27
280.753	7.17
280.969	60.42
281.184	23.55
281.399	44.03
281.615	123.9
281.83	35.84
282.045	-87.04
282.26	11.26
282.476	21.5
282.691	31.74
282.906	17.41
283.122	56.32
283.337	-113.66
283.552	107.52
283.767	23.55
283.983	-11.26
284.198	-44.03
284.413	84.99
284.628	-70.65
284.843	93.18
285.058	-1.02
285.274	78.85
285.489	29.7
285.704	109.57
285.919	-68.61
286.134	119.81
286.349	60.42
286.564	-62.46
286.779	152.57
286.995	7.17
287.21	-52.22
287.425	52.22
287.64	-31.74
287.855	74.75
288.07	-7.17
288.285	64.51
288.5	78.85
288.715	11.26
288.93	37.89
289.145	-7.17
289.36	74.75
289.575	-25.6
289.79	101.37
290.004	11.26
290.219	64.51
290.434	5.12
290.649	7.17
290.864	-7.17
291.079	60.42
291.294	58.37
291.509	87.04
291.724	13.31
291.938	-9.22
292.153	115.71
292.368	17.41
292.583	62.46
292.798	173.05
293.012	113.66
293.227	50.18
293.442	-31.74
293.657	70.65
293.871	54.27
294.086	97.28
294.301	183.29
294.516	91.13
294.73	13.31
294.945	-150.53
295.16	-11.26
295.374	89.09
295.589	111.61
295.804	44.03
296.018	70.65
296.233	72.7
296.447	-37.89
296.662	-64.51
296.877	107.52
297.091	97.28
297.306	35.84
297.52	27.65
297.735	97.28
297.949	113.66
298.164	58.37
298.378	56.32
298.593	-37.89
298.807	-82.94
299.022	39.94
299.236	197.63
299.451	-17.41
299.665	11.26
299.88	52.22
300.094	70.65
300.309	-3.07
300.523	7.17
300.737	31.74
300.952	25.6
301.166	179.2
301.381	-9.22
301.595	13.31
301.809	64.51
302.024	17.41
302.238	-56.32
302.452	109.57
302.667	1.02
302.881	87.04
303.095	80.89
303.309	82.94
303.524	-48.13
303.738	48.13
303.952	-1.02
304.166	84.99
304.381	-201.72
304.595	134.14
304.809	39.94
305.023	19.46
305.237	-9.22
305.452	27.65
305.666	107.52
305.88	76.8
306.094	134.14
306.308	54.27
306.522	64.51
306.736	74.75
306.95	29.7
307.164	52.22
307.379	21.5
307.593	140.29
307.807	191.49
308.021	82.94
308.235	128
308.449	-33.79
308.663	17.41
308.877	142.33
309.091	-23.55
309.305	125.95
309.519	-97.28
309.733	60.42
309.947	-76.8
310.161	27.65
310.374	9.22
310.588	150.53
310.802	17.41
311.016	-62.46
311.23	95.23
311.444	5.12
311.658	105.47
311.872	109.57
312.085	56.32
312.299	54.27
312.513	115.71
312.727	103.42
312.941	-29.7
313.154	19.46
313.368	13.31
313.582	-13.31
313.796	72.7
314.009	74.75
314.223	146.43
314.437	64.51
314.651	99.33
314.864	-113.66
315.078	25.6
315.292	-89.09
315.505	-46.08
315.719	27.65
315.933	68.61
316.146	-29.7
316.36	-91.13
316.573	150.53
316.787	125.95
317.001	82.94
317.214	-11.26
317.428	35.84
317.641	9.22
317.855	66.56
318.068	46.08
318.282	48.13
318.495	177.15
318.709	-15.36
318.922	-35.84
319.136	119.81
319.349	78.85
319.563	1.02
319.776	82.94
319.99	-33.79
320.203	1.02
320.417	5.12
320.63	101.37
320.843	179.2
321.057	29.7
321.27	41.98
321.483	132.09
321.697	125.95
321.91	11.26
322.124	74.75
322.337	52.22
322.55	-1.02
322.763	60.42
322.977	-27.65
323.19	-3.07
323.403	5.12
323.617	-15.36
323.83	50.18
324.043	-91.13
324.256	89.09
324.469	-66.56
324.683	140.29
324.896	1.02
325.109	62.46
325.322	-56.32
325.535	115.71
325.748	80.89
325.962	60.42
326.175	52.22
326.388	-21.5
326.601	33.79
326.814	46.08
327.027	50.18
327.24	201.72
327.453	-29.7
327.666	11.26
327.879	76.8
328.092	74.75
328.305	111.61
328.518	15.36
328.731	-68.61
328.944	-58.37
329.157	95.23
329.37	9.22
329.583	248.83
329.796	62.46
330.009	11.26
330.222	72.7
330.435	156.67
330.648	46.08
330.861	99.33
331.073	50.18
331.286	136.19
331.499	-58.37
331.712	68.61
331.925	27.65
332.138	64.51
332.35	97.28
332.563	-23.55
332.776	168.96
332.989	-35.84
333.202	-7.17
333.414	37.89
333.627	13.31
333.84	3.07
334.053	25.6
334.265	46.08
334.478	-3.07
334.691	-46.08
334.903	7.17
335.116	37.89
335.329	9.22
335.541	11.26
335.754	140.29
335.966	-91.13
336.179	60.42
336.392	25.6
336.604	64.51
336.817	136.19
337.029	52.22
337.242	74.75
337.454	54.27
337.667	13.31
337.88	109.57
338.092	68.61
338.305	64.51
338.517	35.84
338.729	15.36
338.942	109.57
339.154	-76.8
339.367	5.12
339.579	33.79
339.792	-117.76
340.004	62.46
340.217	44.03
340.429	74.75
340.641	-1.02
340.854	-25.6
341.066	25.6
341.278	134.14
341.491	154.62
341.703	91.13
341.915	41.98
342.128	140.29
342.34	99.33
342.552	21.5
342.764	29.7
342.977	17.41
343.189	103.42
343.401	48.13
343.613	-23.55
343.826	78.85
344.038	-35.84
344.25	62.46
344.462	-17.41
344.674	76.8
344.886	9.22
345.099	44.03
345.311	91.13
345.523	11.26
345.735	-41.98
345.947	97.28
346.159	50.18
346.371	15.36
346.583	-68.61
346.795	166.91
347.007	37.89
347.219	31.74
347.431	48.13
347.643	58.37
347.855	5.12
348.067	134.14
348.279	9.22
348.491	-35.84
348.703	107.52
348.915	-17.41
349.127	27.65
349.339	33.79
349.551	-54.27
349.763	119.81
349.975	33.79
350.187	48.13
350.399	164.86
350.61	177.15
350.822	1.02
351.034	91.13
351.246	29.7
351.458	74.75
351.669	95.23
351.881	84.99
352.093	60.42
352.305	144.38
352.517	23.55
352.728	95.23
352.94	35.84
353.152	68.61
353.363	-66.56
353.575	62.46
353.787	123.9
353.999	37.89
354.21	80.89
354.422	62.46
354.633	60.42
354.845	84.99
355.057	31.74
355.268	29.7
355.48	113.66
355.692	-64.51
355.903	17.41
356.115	-35.84
356.326	-136.19
356.538	160.77
356.749	89.09
356.961	140.29
357.172	-19.46
357.384	66.56
357.595	144.38
357.807	44.03
358.018	7.17
358.23	35.84
358.441	187.39
358.653	27.65
358.864	7.17
359.075	29.7
359.287	46.08
359.498	62.46
359.709	173.05
359.921	56.32
360.132	-5.12
360.344	-7.17
360.555	13.31
360.766	105.47
360.977	15.36
361.189	70.65
361.4	15.36
361.611	134.14
361.823	154.62
362.034	66.56
362.245	-89.09
362.456	-13.31
362.667	31.74
362.879	-13.31
363.09	50.18
363.301	87.04
363.512	-31.74
363.723	-25.6
363.935	-58.37
364.146	189.44
364.357	-7.17
364.568	84.99
364.779	-140.29
364.99	87.04
365.201	64.51
365.412	91.13
365.623	-128
365.834	7.17
366.045	52.22
366.256	21.5
366.467	113.66
366.678	76.8
366.889	31.74
367.1	-64.51
367.311	74.75
367.522	-29.7
367.733	84.99
367.944	21.5
368.155	-1.02
368.366	62.46
368.577	78.85
368.788	76.8
368.999	-29.7
369.209	35.84
369.42	207.87
369.631	224.25
369.842	23.55
370.053	17.41
370.264	89.09
370.474	19.46
370.685	7.17
370.896	-1.02
371.107	50.18
371.317	9.22
371.528	9.22
371.739	97.28
371.95	46.08
372.16	31.74
372.371	7.17
372.582	17.41
372.792	121.85
373.003	35.84
373.214	54.27
373.424	70.65
373.635	1.02
373.846	21.5
374.056	97.28
374.267	33.79
374.477	-3.07
374.688	21.5
374.898	52.22
375.109	58.37
375.319	39.94
375.53	142.33
375.74	117.76
375.951	35.84
376.161	41.98
376.372	107.52
376.582	58.37
376.793	80.89
377.003	13.31
377.214	66.56
377.424	97.28
377.635	3.07
377.845	-5.12
378.055	111.61
378.266	41.98
378.476	15.36
378.686	37.89
378.897	123.9
379.107	132.09
379.317	44.03
379.528	37.89
379.738	64.51
379.948	-1.02
380.158	109.57
380.369	21.5
380.579	29.7
380.789	80.89
380.999	29.7
381.21	152.57
381.42	191.49
381.63	46.08
381.84	121.85
382.05	91.13
382.261	60.42
382.471	160.77
382.681	37.89
382.891	189.44
383.101	70.65
383.311	-89.09
383.521	-5.12
383.731	125.95
383.941	150.53
384.151	-5.12
384.361	37.89
384.571	134.14
384.781	76.8
384.991	140.29
385.201	236.54
385.411	109.57
385.621	46.08
385.831	80.89
386.041	29.7
386.251	123.9
386.461	185.34
386.671	13.31
386.881	37.89
387.091	-7.17
387.301	76.8
387.511	25.6
387.72	60.42
387.93	70.65
388.14	-89.09
388.35	97.28
388.56	97.28
388.769	142.33
388.979	62.46
389.189	35.84
389.399	-37.89
389.609	121.85
389.818	111.61
390.028	76.8
390.238	107.52
390.447	54.27
390.657	91.13
390.867	19.46
391.076	-97.28
391.286	50.18
391.496	-17.41
391.705	41.98
391.915	117.76
392.125	107.52
392.334	-54.27
392.544	72.7
392.753	52.22
392.963	-25.6
393.172	115.71
393.382	-31.74
393.591	179.2
393.801	105.47
394.01	228.35
394.22	142.33
394.429	-15.36
394.639	72.7
394.848	142.33
395.058	62.46
395.267	78.85
395.477	109.57
395.686	87.04
395.895	228.35
396.105	158.72
396.314	50.18
396.524	105.47
396.733	52.22
396.942	119.81
397.152	78.85
397.361	226.3
397.57	68.61
397.78	58.37
397.989	46.08
398.198	199.68
398.407	13.31
398.617	21.5
398.826	48.13
399.035	64.51
399.244	91.13
399.453	-19.46
399.663	39.94
399.872	60.42
400.081	-76.8
400.29	17.41
400.499	-70.65
400.708	148.48
400.917	7.17
401.127	-52.22
401.336	1.02
401.545	158.72
401.754	109.57
401.963	121.85
402.172	-25.6
402.381	-17.41
402.59	41.98
402.799	11.26
403.008	130.05
403.217	125.95
403.426	97.28
403.635	-52.22
403.844	76.8
404.053	46.08
404.262	50.18
404.471	111.61
404.68	9.22
404.888	29.7
405.097	78.85
405.306	31.74
405.515	148.48
405.724	-3.07
405.933	109.57
406.142	76.8
406.35	123.9
406.559	-39.94
406.768	46.08
406.977	152.57
407.185	46.08
407.394	60.42
407.603	-29.7
407.812	58.37
408.02	142.33
408.229	125.95
408.438	46.08
408.646	-99.33
408.855	101.37
409.064	146.43
409.272	64.51
409.481	97.28
409.69	39.94
409.898	-17.41
410.107	105.47
410.315	78.85
410.524	23.55
410.733	72.7
410.941	60.42
411.15	175.1
411.358	15.36
411.567	128
411.775	39.94
411.984	-11.26
412.192	66.56
412.401	-35.84
412.609	187.39
412.818	132.09
413.026	121.85
413.234	5.12
413.443	95.23
413.651	1.02
413.86	58.37
414.068	158.72
414.276	220.16
414.485	-5.12
414.693	179.2
414.901	199.68
415.11	82.94
415.318	72.7
415.526	-23.55
415.734	97.28
415.943	60.42
416.151	119.81
416.359	125.95
416.567	5.12
416.776	54.27
416.984	66.56
417.192	175.1
417.4	9.22
417.608	-9.22
417.817	27.65
418.025	136.19
418.233	189.44
418.441	74.75
418.649	11.26
418.857	160.77
419.065	128
419.273	39.94
419.481	54.27
419.689	107.52
419.897	-11.26
420.105	-87.04
420.313	-13.31
420.521	160.77
420.729	142.33
420.937	105.47
421.145	3.07
421.353	179.2
421.561	181.25
421.769	82.94
421.977	27.65
422.185	121.85
422.393	66.56
422.601	93.18
422.809	109.57
423.017	89.09
423.224	136.19
423.432	197.63
423.64	87.04
423.848	101.37
424.056	-64.51
424.263	117.76
424.471	13.31
424.679	154.62
424.887	-21.5
425.094	130.05
425.302	84.99
425.51	58.37
425.718	107.52
425.925	111.61
426.133	54.27
426.341	142.33
426.548	37.89
426.756	3.07
426.964	103.42
427.171	-27.65
427.379	50.18
427.586	82.94
427.794	128
428.001	101.37
428.209	72.7
428.417	197.63
428.624	158.72
428.832	132.09
429.039	-19.46
429.247	130.05
429.454	80.89
429.662	199.68
429.869	168.96
430.076	111.61
430.284	211.96
430.491	228.35
430.699	123.9
430.906	242.68
431.114	156.67
431.321	173.05
431.528	146.43
431.736	273.4
431.943	201.72
432.15	130.05
432.358	232.44
432.565	263.16
432.772	15.36
432.979	187.39
433.187	134.14
433.394	232.44
433.601	68.61
433.808	222.2
434.016	312.32
434.223	254.97
434.43	285.69
434.637	263.16
434.844	297.98
435.052	269.31
435.259	232.44
435.466	306.17
435.673	257.02
435.88	377.85
436.087	373.75
436.294	359.42
436.501	359.42
436.708	295.93
436.915	381.95
437.122	392.19
437.329	285.69
437.537	406.52
437.743	408.57
437.95	441.34
438.157	494.58
438.364	474.1
438.571	439.29
438.778	465.91
438.985	558.07
439.192	560.12
439.399	568.31
439.606	549.88
439.813	660.47
440.02	680.95
440.227	779.25
440.433	699.38
440.64	625.65
440.847	566.26
441.054	654.33
441.261	762.87
441.467	750.58
441.674	695.29
441.881	900.08
442.088	842.74
442.294	906.23
442.501	932.85
442.708	1031.15
442.914	977.91
443.121	1078.26
443.328	1088.5
443.534	1119.21
443.741	1190.89
443.948	1012.72
444.154	1176.56
444.361	1407.98
444.568	1201.13
444.774	1289.2
444.981	1151.98
445.187	1541.1
445.394	1453.03
445.6	1311.72
445.807	1592.3
446.013	1430.51
446.22	1520.62
446.426	1752.04
446.633	1772.52
446.839	2024.42
447.046	1819.62
447.252	1991.65
447.459	2059.23
447.665	2075.62
447.871	2186.21
448.078	2282.46
448.284	2294.75
448.491	2526.17
448.697	2563.03
448.903	2714.58
449.11	2649.05
449.316	2644.95
449.522	2939.86
449.728	2933.72
449.935	3091.41
450.141	3185.62
450.347	3414.99
450.553	3554.25
450.76	3314.64
450.966	3609.54
451.172	3623.88
451.378	3736.52
451.584	3853.25
451.791	4090.82
451.997	4297.66
452.203	4471.74
452.409	4744.12
452.615	4860.85
452.821	4635.58
453.027	4731.83
453.233	5405.61
453.44	5131.19
453.646	5487.53
453.852	5884.84
454.058	6095.78
454.264	6048.68
454.47	6663.07
454.676	6656.92
454.882	6998.93
455.088	6820.76
455.294	7222.16
455.5	7719.82
455.705	8153.99
455.911	8061.83
456.117	8330.11
456.323	8637.31
456.529	8749.95
456.735	9544.56
456.941	9661.29
457.147	10255.2
457.352	10314.59
457.558	10781.53
457.764	11455.31
457.97	11641.68
458.176	12198.73
458.381	12837.69
458.587	13099.83
458.793	13579.06
458.999	13609.78
459.204	15160.09
459.41	15936.27
459.616	15674.13
459.821	16345.86
460.027	17021.69
460.233	18039.53
460.438	17922.8
460.644	19133.15
460.85	19346.14
461.055	20042.45
461.261	20925.12
461.466	20513.48
461.672	20900.55
461.878	23468.7
462.083	23313.05
462.289	23698.07
462.494	24736.39
462.7	25039.49
462.905	25258.62
463.111	27363.93
463.316	28846.66
463.522	28813.9
463.727	30020.15
463.932	31140.39
464.138	31869.47
464.343	33094.15
464.549	33458.69
464.754	36047.32
464.959	36706.77
465.165	37976.51
465.37	37063.11
465.575	37325.25
465.781	39266.73
465.986	41077.13
466.191	40325.53
466.397	40767.89
466.602	40053.15
466.807	41890.18
467.012	42807.67
467.218	43178.35
467.423	43407.72
467.628	44523.86
467.833	47122.74
468.038	46137.66
468.244	45353.29
468.449	47610.15
468.654	46545.21
468.859	46459.2
469.064	46692.66
469.269	45580.62
469.474	46217.53
469.679	47155.5
469.885	46004.55
470.09	46272.83
470.295	46610.74
470.5	45779.27
470.705	46246.21
470.91	44611.93
471.115	44339.55
471.32	44894.55
471.525	44982.61
471.73	43778.4
471.935	43942.24
472.139	41877.89
472.344	42154.36
472.549	41531.78
472.754	40710.55
472.959	39977.37
473.164	38334.9
473.369	38257.08
473.574	39123.37
473.778	38474.16
473.983	37863.87
474.188	36864.46
474.393	35303.91
474.598	35516.9
474.802	34314.74
475.007	33915.39
475.212	33556.99
475.417	32410.13
475.621	32188.95
475.826	31846.94
476.031	31072.81
476.235	30274.1
476.44	30720.56
476.645	29573.69
476.849	29538.88
477.054	28867.14
477.259	28209.75
477.463	28011.09
477.668	27419.23
477.872	27296.35
478.077	26636.91
478.282	25969.27
478.486	25823.86
478.691	25391.74
478.895	24918.66
479.1	24756.87
479.304	25148.03
479.509	24076.94
479.713	24304.27
479.918	23732.89
480.122	23188.13
480.326	23440.03
480.531	23313.05
480.735	23315.1
480.94	22346.41
481.144	23255.71
481.348	22080.18
481.553	22592.17
481.757	21818.04
481.961	21959.34
482.166	22170.29
482.37	21709.49
482.574	21488.31
482.778	21097.15
482.983	21467.83
483.187	21138.11
483.391	21134.01
483.595	20558.53
483.8	20312.78
484.004	20411.08
484.208	20644.55
484.412	20073.17
484.616	19919.57
484.821	19776.21
485.025	19190.49
485.229	19053.28
485.433	18881.25
485.637	18830.05
485.841	18301.67
486.045	18105.07
486.249	17879.79
486.453	17609.46
486.657	17382.13
486.861	17398.52
487.065	16392.97
487.269	16700.16
487.473	16028.43
487.677	16419.59
487.881	16089.87
488.085	15420.18
488.289	15491.86
488.493	15199
488.697	15061.79
488.901	14582.56
489.105	14232.36
489.309	14109.48
489.512	14218.02
489.716	13753.13
489.92	13271.86
490.124	13230.9
490.328	13105.98
490.531	12483.39
490.735	12913.47
490.939	12194.63
491.143	11860.81
491.346	11895.63
491.55	11930.44
491.754	11623.25
491.958	11209.56
492.161	11070.3
492.365	10990.42
492.569	10859.35
492.772	10572.64
492.976	10310.5
493.18	10285.92
493.383	10335.07
493.587	10050.41
493.79	10124.13
493.994	9597.81
494.197	9663.34
494.401	9565.04
494.605	9317.23
494.808	9388.91
495.012	9331.57
495.215	9331.57
495.419	9118.58
495.622	8881.02
495.825	8954.74
496.029	8905.59
496.232	8977.27
496.436	8788.86
496.639	8866.68
496.843	8668.03
497.046	8661.88
497.249	8819.58
497.453	8838.01
497.656	8641.4
497.859	8496
498.063	8700.8
498.266	8821.63
498.469	8821.63
498.673	8620.92
498.876	8674.17
499.079	8706.94
499.282	8799.1
499.485	9241.46
499.689	8715.13
499.892	9169.78
500.095	8854.39
500.298	9171.83
500.501	8954.74
500.705	8995.7
500.908	9329.52
501.111	9331.57
501.314	9235.32
501.517	9374.58
501.72	9526.13
501.923	9380.72
502.126	9552.75
502.329	9724.78
502.532	9765.74
502.735	9919.34
502.938	10005.35
503.141	10056.55
503.344	10052.45
503.547	10277.73
503.75	10328.93
503.953	10402.66
504.156	10711.9
504.359	10734.43
504.562	10859.35
504.765	11236.18
504.968	11385.68
505.17	11375.44
505.373	11498.32
505.576	11821.9
505.779	11916.11
505.982	11922.25
506.185	12319.56
506.387	12358.47
506.59	12718.91
506.793	12964.67
506.996	12925.75
507.198	13476.66
507.401	13456.18
507.604	13794.09
507.807	13992.75
508.009	14222.12
508.212	14543.65
508.415	14531.36
508.617	15164.18
508.82	15422.23
509.022	15545.11
509.225	15991.56
509.428	16257.8
509.63	16648.96
509.833	16751.36
510.035	17429.24
510.238	17619.7
510.44	17763.06
510.643	18475.75
510.845	18819.81
511.048	19043.04
511.25	19450.58
511.453	19718.87
511.655	20646.6
511.858	20808.39
512.06	21449.4
512.262	21709.49
512.465	21949.11
512.667	22819.49
512.87	23063.2
513.072	23681.69
513.274	24443.53
513.477	24883.84
513.679	25334.4
513.881	25956.98
514.084	26534.51
514.286	26940
514.488	27398.75
514.69	28404.3
514.893	28760.65
515.095	29020.74
515.297	30018.1
515.499	30241.33
515.701	31273.51
515.904	31713.82
516.106	32547.34
516.308	32983.56
516.51	33593.86
516.712	34183.67
516.914	35111.4
517.116	35619.3
517.318	36278.74
517.52	37171.66
517.722	37130.7
517.925	38212.02
518.127	39004.59
518.329	39653.79
518.531	39840.16
518.733	40487.32
518.935	41355.66
519.136	41757.06
519.338	42840.43
519.54	43643.24
519.742	44173.66
519.944	44470.62
520.146	45857.09
520.348	46319.93
520.55	46098.75
520.752	46944.56
520.954	48023.84
521.155	48154.91
521.357	48855.32
521.559	49781
521.761	50448.64
521.963	49981.7
522.164	50432.25
522.366	51128.56
522.568	51773.67
522.77	52191.46
522.971	52762.84
523.173	52711.64
523.375	53215.44
523.576	52859.1
523.778	52936.92
523.98	53872.84
524.181	53975.24
524.383	54069.45
524.584	54859.96
524.786	54556.86
524.988	54046.92
525.189	54980.79
525.391	54921.4
525.592	54806.72
525.794	55689.39
525.995	54999.22
526.197	54587.58
526.398	54769.85
526.6	54634.69
526.801	54943.93
527.003	54653.12
527.204	54503.62
527.406	54599.87
527.607	54151.37
527.808	54196.42
528.01	53061.85
528.211	53397.71
528.412	53760.2
528.614	53162.2
528.815	52549.85
529.016	52578.53
529.218	51687.66
529.419	51384.56
529.62	50972.92
529.822	50512.13
530.023	50094.34
530.224	49756.42
530.425	49461.52
530.626	48460.06
530.828	48388.38
531.029	48419.1
531.23	47440.17
531.431	47118.64
531.632	46704.95
531.833	46248.25
532.035	45375.82
532.236	45132.11
532.437	44790.1
532.638	44185.95
532.839	43446.63
533.04	43213.16
533.241	42148.22
533.442	42436.98
533.643	41744.77
533.844	40681.88
534.045	40262.04
534.246	39643.56
534.447	39590.31
534.648	38363.57
534.849	38324.66
535.05	37482.95
535.251	37165.51
535.451	36829.65
535.652	36458.96
535.853	35584.48
536.054	35441.12
536.255	35109.35
536.456	34038.26
536.657	34159.09
536.857	33468.93
537.058	32614.93
537.259	32950.79
537.46	32147.99
537.66	31511.07
537.861	31423.01
538.062	30679.6
538.263	30329.39
538.463	30194.23
538.664	29639.23
538.865	29674.04
539.065	29389.38
539.266	28404.3
539.466	28605
539.667	27759.19
539.868	27963.99
540.068	27492.96
540.269	27142.75
540.469	26856.04
540.67	26346.09
540.87	26102.39
541.071	25541.24
541.271	25660.02
541.472	25154.18
541.672	24507.02
541.873	24648.33
542.073	24117.9
542.274	24165.01
542.474	23636.63
542.675	23497.37
542.875	23480.99
543.075	22934.18
543.276	22461.1
543.476	22532.78
543.676	22272.68
543.877	22067.89
544.077	21783.22
544.277	21570.23
544.478	21185.21
544.678	21275.32
544.878	20980.42
545.078	20622.02
545.279	20095.69
545.479	20069.07
545.679	20013.77
545.879	19583.7
546.079	19442.39
546.28	19231.45
546.48	18717.41
546.68	19030.75
546.88	18789.09
547.08	18408.17
547.28	18238.19
547.48	17664.75
547.68	17783.54
547.88	17439.48
548.081	17244.92
548.281	16915.2
548.481	16681.73
548.681	16761.6
548.881	16626.43
549.081	16044.81
549.28	15762.19
549.48	15637.27
549.68	15422.23
549.88	15538.96
550.08	15014.68
550.28	15014.68
550.48	14852.89
550.68	14562.08
550.88	14201.64
551.08	14052.14
551.279	14021.42
551.479	13726.51
551.679	13429.56
551.879	13304.63
552.079	13097.78
552.278	13001.53
552.478	12725.05
552.678	12618.56
552.878	12579.65
553.077	12227.4
553.277	11748.17
553.477	11995.98
553.676	11481.94
553.876	11549.52
554.076	11037.53
554.275	11070.3
554.475	10881.88
554.674	10681.18
554.874	10330.98
555.074	10531.68
555.273	10083.17
555.473	10251.11
555.672	9991.02
555.872	9900.9
556.071	9655.15
556.271	9755.5
556.47	9450.35
556.67	9128.82
556.869	8991.61
557.068	8786.81
557.268	8790.91
557.467	8539.01
557.667	8721.27
557.866	8319.87
558.065	8106.88
558.265	8065.92
558.464	7861.13
558.663	8043.4
558.863	7768.97
559.062	7775.11
559.261	7340.94
559.461	7463.82
559.66	7144.34
559.859	6929.3
560.058	6820.76
560.258	6910.87
560.457	6646.68
560.656	6575
560.855	6357.92
561.054	6548.38
561.253	6187.94
561.453	6474.65
561.652	6306.72
561.851	6175.65
562.05	6015.91
562.249	5735.34
562.448	5761.96
562.647	5741.48
562.846	5567.4
563.045	5741.48
563.244	5485.48
563.443	5438.38
563.642	5225.39
563.841	5217.2
564.04	5090.23
564.239	5049.27
564.438	4948.92
564.637	4852.66
564.836	4758.46
565.035	4645.82
565.234	4623.29
565.432	4670.39
565.631	4578.23
565.83	4541.37
566.029	4303.81
566.228	4297.66
566.427	4352.96
566.625	4178.88
566.824	4205.5
567.023	3996.61
567.222	4139.97
567.42	3943.36
567.619	4025.28
567.818	3832.77
568.016	4019.14
568.215	3660.74
568.414	3744.71
568.612	3849.16
568.811	3650.5
569.01	3582.92
569.208	3574.73
569.407	3507.15
569.605	3380.17
569.804	3433.42
570.002	3382.22
570.201	3281.87
570.4	3212.24
570.598	3118.03
570.797	3120.08
570.995	3130.32
571.193	3009.49
571.392	2960.34
571.59	2956.24
571.789	2978.77
571.987	2874.32
572.186	2933.72
572.384	2849.75
572.582	2718.68
572.781	2784.21
572.979	2589.66
573.177	2651.1
573.376	2583.51
573.574	2624.47
573.772	2415.58
573.971	2436.06
574.169	2231.26
574.367	2335.71
574.565	2343.9
574.763	2266.08
574.962	2192.35
575.16	2257.89
575.358	2188.25
575.556	2126.82
575.754	2087.9
575.952	2147.3
576.151	2161.63
576.349	2241.5
576.547	1928.16
576.745	2065.38
576.943	2092
577.141	1993.7
577.339	1766.37
577.537	1903.59
577.735	1793
577.933	1930.21
578.131	1684.45
578.329	1860.58
578.527	1655.78
578.725	1700.84
578.923	1641.45
579.121	1706.98
579.319	1592.3
579.516	1641.45
579.714	1745.89
579.912	1477.61
580.11	1424.36
580.308	1543.14
580.506	1403.88
580.704	1299.44
580.901	1367.02
581.099	1485.8
581.297	1442.79
581.495	1389.55
581.692	1428.46
581.89	1430.51
582.088	1268.72
582.285	1330.16
582.483	1283.05
582.681	1174.51
582.878	1184.75
583.076	1254.38
583.274	1168.37
583.471	1297.39
583.669	1141.74
583.866	1094.64
584.064	1025.01
584.262	1018.86
584.459	1051.63
584.657	1092.59
584.854	1166.32
585.052	1088.5
585.249	1131.5
585.447	953.33
585.644	996.34
585.841	1104.88
586.039	1004.53
586.236	1059.82
586.434	914.42
586.631	982
586.828	918.51
587.026	961.52
587.223	799.73
587.42	879.6
587.618	846.84
587.815	898.03
588.012	895.99
588.21	857.07
588.407	957.43
588.604	799.73
588.801	787.44
588.999	801.78
589.196	824.31
589.393	785.4
589.59	812.02
589.787	869.36
589.984	828.4
590.182	760.82
590.379	715.77
590.576	846.84
590.773	707.57
590.97	789.49
591.167	799.73
591.364	809.97
591.561	693.24
591.758	797.68
591.955	754.68
592.152	781.3
592.349	689.14
592.546	734.2
592.743	685.05
592.94	783.35
593.137	785.4
593.334	838.64
593.531	740.34
593.727	760.82
593.924	781.3
594.121	687.09
594.318	699.38
594.515	742.39
594.712	926.71
594.908	887.79
595.105	695.29
595.302	803.83
595.499	820.21
595.696	848.88
595.892	752.63
596.089	883.7
596.286	773.11
596.482	990.19
596.679	893.94
596.876	797.68
597.072	1010.67
597.269	1022.96
597.466	926.71
597.662	1016.82
597.859	975.86
598.055	1127.41
598.252	1049.58
598.448	1207.28
598.645	1250.28
598.841	1270.76
599.038	1379.31
599.234	1356.78
599.431	1399.79
599.627	1450.99
599.824	1483.75
600.02	1537
600.217	1481.71
600.413	1618.92
600.609	1606.63
600.806	1962.98
601.002	1799.14
601.198	1897.44
601.395	1932.26
601.591	1993.7
601.787	2073.57
601.984	2184.16
602.18	2302.94
602.376	2384.86
602.572	2671.58
602.769	2599.9
602.965	2622.42
603.161	2647
603.357	2859.99
603.553	3019.73
603.75	2927.57
603.946	3124.18
604.142	3429.32
604.338	3498.95
604.534	3367.88
604.73	3449.8
604.926	3619.78
605.122	3834.82
605.318	3920.84
605.514	4121.54
605.71	4162.5
605.906	4459.45
606.102	4324.29
606.298	4600.76
606.494	4617.15
606.69	4957.11
606.886	5006.26
607.082	5041.08
607.278	5209.01
607.474	5462.96
607.67	5548.97
607.866	5569.45
608.062	5983.14
608.257	6118.31
608.453	5991.33
608.649	6292.38
608.845	6214.56
609.041	6738.84
609.236	6755.22
609.432	6972.31
609.628	7240.59
609.824	7390.1
610.019	7650.19
610.215	7795.59
610.411	8137.6
610.606	8301.44
610.802	8383.36
610.998	8596.35
611.193	8979.32
611.389	8942.46
611.584	9446.26
611.78	9464.69
611.976	9732.97
612.171	10199.91
612.367	10546.02
612.562	10584.93
612.758	10734.43
612.953	10976.09
613.149	11416.4
613.344	11701.07
613.539	12225.35
613.735	12409.67
613.93	13017.91
614.126	13134.65
614.321	13417.27
614.517	13851.44
614.712	14093.1
614.907	14457.64
615.103	14644
615.298	15127.32
615.493	15547.15
615.688	15684.37
615.884	16685.83
616.079	16435.97
616.274	17330.94
616.47	17453.81
616.665	18162.41
616.86	18547.43
617.055	19108.57
617.25	19376.86
617.445	20177.61
617.641	20259.53
617.836	20916.93
618.031	21193.4
618.226	21848.75
618.421	22368.94
618.616	23046.82
618.811	23024.29
619.006	24136.34
619.201	24386.19
619.396	25305.73
619.591	25070.21
619.786	26196.59
619.981	26395.25
620.176	27384.41
620.371	27634.27
620.566	28564.04
620.761	28703.31
620.956	29764.15
621.151	29999.67
621.346	31140.39
621.541	30827.05
621.735	32025.11
621.93	32352.79
622.125	33157.64
622.32	32870.92
622.515	33968.63
622.709	34531.83
622.904	35213.8
623.099	35928.54
623.294	36755.92
623.488	37034.44
623.683	38109.63
623.878	37665.22
624.072	38977.97
624.267	39172.52
624.462	39940.51
624.656	40413.59
624.851	41173.39
625.046	41499.01
625.24	42291.58
625.435	42619.25
625.629	43385.19
625.824	44233.05
626.018	44960.08
626.213	44480.86
626.407	45410.64
626.602	45289.8
626.796	46678.33
626.991	46395.71
627.185	47132.98
627.38	47589.67
627.574	47851.81
627.768	47763.75
627.963	48195.87
628.157	48412.96
628.352	49178.9
628.546	48490.78
628.74	49127.7
628.935	48597.27
629.129	48804.12
629.323	48165.15
629.517	48263.46
629.712	47970.6
629.906	47663.4
630.1	47100.21
630.294	46752.05
630.489	46108.99
630.683	45953.35
630.877	44671.32
631.071	44015.97
631.265	43997.54
631.459	42740.08
631.653	42068.35
631.848	41206.16
632.042	40010.14
632.236	39645.6
632.43	38343.09
632.624	37552.58
632.818	36565.46
633.012	34867.69
633.206	34511.35
633.4	33163.78
633.594	31783.45
633.788	30927.4
633.982	30030.39
634.176	29016.65
634.369	27953.75
634.563	26823.27
634.757	25488
634.951	25119.36
635.145	24122
635.339	22610.6
635.533	22096.56
635.726	21121.73
635.92	20210.38
636.114	19512.02
636.308	18619.11
636.501	18232.04
636.695	17517.3
636.889	16589.57
637.083	15923.98
637.276	15340.31
637.47	14584.61
637.664	13927.21
637.857	13394.74
638.051	12772.16
638.244	12266.31
638.438	11920.2
638.632	11420.5
638.825	11010.9
639.019	10589.02
639.212	9960.3
639.406	9804.65
639.599	9345.91
639.793	9087.86
639.986	8668.03
640.18	8358.78
640.373	7941
640.567	7512.97
640.76	7353.23
640.954	7287.7
641.147	6695.83
641.34	6439.84
641.534	6382.49
641.727	6146.98
641.92	5884.84
642.114	5712.81
642.307	5323.69
642.5	5118.9
642.694	5030.84
642.887	4723.64
643.08	4821.94
643.273	4602.81
643.467	4252.61
643.66	4199.36
643.853	3902.4
644.046	3810.25
644.239	3744.71
644.432	3584.97
644.626	3302.35
644.819	3232.72
645.012	3097.55
645.205	3068.88
645.398	3013.59
645.591	2667.48
645.784	2677.72
645.977	2530.27
646.17	2651.1
646.363	2438.11
646.556	2198.49
646.749	2182.11
646.942	2182.11
647.135	2188.25
647.328	1905.63
647.521	1958.88
647.714	1737.7
647.907	1817.57
648.099	1684.45
648.292	1711.08
648.485	1629.16
648.678	1502.19
648.871	1418.22
649.064	1508.33
649.256	1346.54
649.449	1213.42
649.642	1108.98
649.835	1188.85
650.027	1070.06
650.22	1192.94
650.413	1162.22
650.605	1022.96
650.798	1004.53
650.991	1065.97
651.183	969.71
651.376	1010.67
651.568	934.9
651.761	855.03
651.954	857.07
652.146	820.21
652.339	855.03
652.531	910.32
652.724	635.89
652.916	631.8
653.109	539.64
653.301	730.1
653.494	732.15
653.686	562.17
653.879	707.57
654.071	631.8
654.263	580.6
654.456	562.17
654.648	621.56
654.84	527.35
655.033	545.78
655.225	642.04
655.417	388.09
655.61	535.54
655.802	486.39
655.994	558.07
656.186	414.71
656.379	623.61
656.571	359.42
656.763	453.63
656.955	396.28
657.148	429.05
657.34	431.1
657.532	383.99
657.724	357.37
657.916	398.33
658.108	412.67
658.3	353.27
658.492	343.03
658.684	281.6
658.876	406.52
659.068	283.64
659.26	146.43
659.452	220.16
659.644	291.84
659.836	482.3
660.028	279.55
660.22	177.15
660.412	300.03
660.604	308.22
660.796	240.64
660.988	377.85
661.18	257.02
661.372	279.55
661.563	252.92
661.755	214.01
661.947	259.07
662.139	197.63
662.331	193.53
662.522	295.93
662.714	148.48
662.906	142.33
663.097	263.16
663.289	48.13
663.481	74.75
663.673	193.53
663.864	259.07
664.056	246.78
664.247	121.85
664.439	308.22
664.631	195.58
664.822	273.4
665.014	171.01
665.205	156.67
665.397	201.72
665.588	187.39
665.78	191.49
665.971	291.84
666.163	164.86
666.354	228.35
666.546	72.7
666.737	140.29
666.929	105.47
667.12	171.01
667.311	220.16
667.503	142.33
667.694	193.53
667.885	199.68
668.077	205.82
668.268	146.43
668.459	185.34
668.651	128
668.842	189.44
669.033	99.33
669.224	62.46
669.416	324.6
669.607	144.38
669.798	111.61
669.989	222.2
670.18	218.11
670.371	222.2
670.563	-3.07
670.754	216.06
670.945	226.3
671.136	183.29
671.327	121.85
671.518	277.5
671.709	300.03
671.9	175.1
672.091	207.87
672.282	130.05
672.473	82.94
672.664	138.24
672.855	191.49
673.046	199.68
673.237	101.37
673.428	166.91
673.619	162.81
673.809	97.28
674	230.4
674.191	238.59
674.382	185.34
674.573	162.81
674.764	234.49
674.954	312.32
675.145	103.42
675.336	123.9
675.527	160.77
675.717	138.24
675.908	54.27
676.099	105.47
676.289	240.64
676.48	41.98
676.671	168.96
676.861	158.72
677.052	203.77
677.243	183.29
677.433	103.42
677.624	244.73
677.814	183.29
678.005	191.49
678.195	316.41
678.386	113.66
678.576	254.97
678.767	140.29
678.957	175.1
679.148	275.45
679.338	289.79
679.529	185.34
679.719	173.05
679.909	285.69
680.1	343.03
680.29	257.02
680.481	132.09
680.671	275.45
680.861	261.12
681.052	214.01
681.242	136.19
681.432	316.41
681.622	273.4
681.813	191.49
682.003	199.68
682.193	275.45
682.383	267.26
682.573	205.82
682.764	214.01
682.954	222.2
683.144	406.52
683.334	211.96
683.524	304.12
683.714	291.84
683.904	349.18
684.094	152.57
684.284	312.32
684.474	316.41
684.664	316.41
684.854	310.27
685.044	205.82
685.234	361.47
685.424	289.79
685.614	214.01
685.804	418.81
685.994	316.41
686.184	285.69
686.374	269.31
686.564	265.21
686.753	306.17
686.943	195.58
687.133	263.16
687.323	238.59
687.513	328.7
687.702	234.49
687.892	236.54
688.082	336.89
688.272	318.46
688.461	238.59
688.651	396.28
688.841	349.18
689.03	222.2
689.22	218.11
689.41	326.65
689.599	302.08
689.789	257.02
689.979	451.58
690.168	191.49
690.358	381.95
690.547	195.58
690.737	293.88
690.926	297.98
691.116	281.6
691.305	265.21
691.495	297.98
691.684	181.25
691.874	142.33
692.063	238.59
692.252	291.84
692.442	295.93
692.631	242.68
692.82	226.3
693.01	209.92
693.199	259.07
693.388	187.39
693.578	220.16
693.767	195.58
693.956	318.46
694.146	211.96
694.335	297.98
694.524	218.11
694.713	281.6
694.902	189.44
695.092	265.21
695.281	269.31
695.47	197.63
695.659	234.49
695.848	201.72
696.037	154.62
696.226	332.79
696.415	218.11
696.604	312.32
696.793	279.55
696.982	197.63
697.171	312.32
697.36	173.05
697.549	295.93
697.738	156.67
697.927	136.19
698.116	214.01
698.305	283.64
698.494	304.12
698.683	207.87
698.872	365.56
699.061	205.82
699.25	185.34
699.438	254.97
699.627	123.9
699.816	410.62
700.005	99.33
700.193	148.48
700.382	308.22
700.571	158.72
700.76	347.13
700.948	318.46
701.137	136.19
701.326	220.16
701.514	152.57
701.703	302.08
701.892	261.12
702.08	394.23
702.269	191.49
702.457	140.29
702.646	293.88
702.834	322.56
703.023	277.5
703.212	246.78
703.4	207.87
703.589	154.62
703.777	134.14
703.965	189.44
704.154	134.14
704.342	140.29
704.531	119.81
704.719	287.74
704.907	265.21
705.096	136.19
705.284	138.24
705.472	283.64
705.661	273.4
705.849	236.54
706.037	267.26
706.226	271.36
706.414	148.48
706.602	64.51
706.79	295.93
706.979	248.83
707.167	283.64
707.355	84.99
707.543	201.72
707.731	273.4
707.919	259.07
708.107	171.01
708.296	189.44
708.484	134.14
708.672	226.3
708.86	248.83
709.048	232.44
709.236	136.19
709.424	273.4
709.612	263.16
709.8	144.38
709.988	259.07
710.176	209.92
710.364	343.03
710.551	197.63
710.739	207.87
710.927	250.88
711.115	185.34
711.303	254.97
711.491	279.55
711.679	183.29
711.866	246.78
712.054	185.34
712.242	226.3
712.43	295.93
712.617	291.84
712.805	295.93
712.993	181.25
713.181	152.57
713.368	238.59
713.556	203.77
713.744	179.2
713.931	383.99
714.119	226.3
714.306	203.77
714.494	156.67
714.682	297.98
714.869	125.95
715.057	187.39
715.244	134.14
715.432	261.12
715.619	195.58
715.807	130.05
715.994	148.48
716.182	236.54
716.369	236.54
716.556	232.44
716.744	146.43
716.931	58.37
717.119	283.64
717.306	191.49
717.493	265.21
717.681	179.2
717.868	183.29
718.055	254.97
718.242	113.66
718.43	277.5
718.617	420.86
718.804	209.92
718.991	226.3
719.179	236.54
719.366	257.02
719.553	203.77
719.74	250.88
719.927	228.35
720.114	316.41
720.301	181.25
720.488	275.45
720.676	130.05
720.863	357.37
721.05	367.61
721.237	293.88
721.424	304.12
721.611	277.5
721.798	136.19
721.985	201.72
722.172	197.63
722.358	220.16
722.545	263.16
722.732	263.16
722.919	316.41
723.106	248.83
723.293	101.37
723.48	232.44
723.667	226.3
723.853	326.65
724.04	236.54
724.227	302.08
724.414	242.68
724.6	273.4
724.787	369.66
724.974	396.28
725.161	328.7
725.347	156.67
725.534	248.83
725.72	283.64
725.907	230.4
726.094	308.22
726.28	144.38
726.467	273.4
726.653	222.2
726.84	316.41
727.027	433.15
727.213	293.88
727.4	248.83
727.586	242.68
727.773	267.26
727.959	232.44
728.145	203.77
728.332	289.79
728.518	240.64
728.705	353.27
728.891	314.36
729.077	285.69
729.264	248.83
729.45	242.68
729.636	355.32
729.823	306.17
730.009	228.35
730.195	328.7
730.382	214.01
730.568	191.49
730.754	306.17
730.94	201.72
731.126	267.26
731.313	302.08
731.499	279.55
731.685	302.08
731.871	390.14
732.057	347.13
732.243	242.68
732.429	248.83
732.615	365.56
732.801	189.44
732.987	254.97
733.173	330.75
733.359	234.49
733.545	230.4
733.731	242.68
733.917	373.75
734.103	304.12
734.289	336.89
734.475	220.16
734.661	482.3
734.847	302.08
735.033	371.71
735.219	261.12
735.404	320.51
735.59	185.34
735.776	297.98
735.962	283.64
736.148	336.89
736.333	345.08
736.519	273.4
736.705	316.41
736.89	306.17
737.076	304.12
737.262	244.73
737.447	304.12
737.633	248.83
737.819	359.42
738.004	195.58
738.19	316.41
738.375	300.03
738.561	365.56
738.747	257.02
738.932	199.68
739.118	441.34
739.303	310.27
739.489	404.47
739.674	232.44
739.859	173.05
740.045	353.27
740.23	254.97
740.416	244.73
740.601	306.17
740.786	377.85
740.972	252.92
741.157	322.56
741.342	154.62
741.528	300.03
741.713	302.08
741.898	291.84
742.084	240.64
742.269	252.92
742.454	377.85
742.639	336.89
742.824	324.6
743.01	394.23
743.195	488.44
743.38	324.6
743.565	318.46
743.75	271.36
743.935	365.56
744.12	310.27
744.305	220.16
744.49	230.4
744.675	283.64
744.86	224.25
745.045	289.79
745.23	234.49
745.415	277.5
745.6	363.51
745.785	209.92
745.97	416.76
746.155	330.75
746.34	330.75
746.525	150.53
746.71	353.27
746.895	218.11
747.079	273.4
747.264	218.11
747.449	314.36
747.634	367.61
747.819	279.55
748.003	189.44
748.188	211.96
748.373	281.6
748.557	310.27
748.742	252.92
748.927	267.26
749.111	257.02
749.296	226.3
749.481	238.59
749.665	357.37
749.85	322.56
750.034	261.12
750.219	240.64
750.404	218.11
750.588	293.88
750.773	195.58
750.957	179.2
751.141	181.25
751.326	381.95
751.51	154.62
751.695	230.4
751.879	173.05
752.064	324.6
752.248	205.82
752.432	269.31
752.617	220.16
752.801	234.49
752.985	257.02
753.17	265.21
753.354	191.49
753.538	209.92
753.722	177.15
753.907	250.88
754.091	218.11
754.275	267.26
754.459	95.23
754.643	128
754.828	226.3
755.012	168.96
755.196	107.52
755.38	218.11
755.564	216.06
755.748	74.75
755.932	236.54
756.116	164.86
756.3	224.25
756.484	162.81
756.668	218.11
756.852	21.5
757.036	111.61
757.22	209.92
757.404	160.77
757.588	107.52
757.772	177.15
757.956	117.76
758.14	244.73
758.323	125.95
758.507	109.57
758.691	144.38
758.875	209.92
759.059	177.15
759.242	173.05
759.426	125.95
759.61	156.67
759.794	171.01
759.977	197.63
760.161	345.08
760.345	195.58
760.528	156.67
760.712	115.71
760.895	166.91
761.079	78.85
761.263	84.99
761.446	46.08
761.63	109.57
761.813	238.59
761.997	17.41
762.18	128
762.364	207.87
762.547	-7.17
762.731	140.29
762.914	201.72
763.098	134.14
763.281	142.33
763.464	121.85
763.648	140.29
763.831	125.95
764.015	107.52
764.198	252.92
764.381	115.71
764.564	123.9
764.748	97.28
764.931	203.77
765.114	52.22
765.297	201.72
765.481	33.79
765.664	27.65
765.847	105.47
766.03	183.29
766.213	93.18
766.397	119.81
766.58	-117.76
766.763	142.33
766.946	37.89
767.129	84.99
767.312	97.28
767.495	128
767.678	21.5
767.861	109.57
768.044	158.72
768.227	103.42
768.41	89.09
768.593	138.24
768.776	117.76
768.959	-23.55
769.142	148.48
769.324	105.47
769.507	66.56
769.69	64.51
769.873	23.55
770.056	365.56
770.239	72.7
770.421	150.53
770.604	115.71
770.787	50.18
770.97	78.85
771.152	-17.41
771.335	144.38
771.518	158.72
771.7	195.58
771.883	173.05
772.066	121.85
772.248	99.33
772.431	187.39
772.613	187.39
772.796	140.29
772.978	121.85
773.161	218.11
773.343	78.85
773.526	46.08
773.708	13.31
773.891	52.22
774.073	84.99
774.256	48.13
774.438	220.16
774.621	33.79
774.803	109.57
774.985	3.07
775.168	82.94
775.35	11.26
775.532	107.52
775.715	66.56
775.897	101.37
776.079	46.08
776.261	177.15
776.444	76.8
776.626	54.27
776.808	80.89
776.99	-78.85
777.173	23.55
777.355	80.89
777.537	39.94
777.719	150.53
777.901	3.07
778.083	76.8
778.265	1.02
778.447	125.95
778.629	-21.5
778.811	54.27
778.993	121.85
779.175	33.79
779.357	76.8
779.539	-56.32
779.721	128
779.903	76.8
780.085	58.37
780.267	87.04
780.449	84.99
780.631	58.37
780.812	132.09
780.994	78.85
781.176	89.09
781.358	115.71
781.54	87.04
781.721	48.13
781.903	107.52
782.085	15.36
782.267	128
782.448	-25.6
782.63	60.42
782.812	64.51
782.993	70.65
783.175	95.23
783.357	-21.5
783.538	41.98
783.72	56.32
783.901	62.46
784.083	68.61
784.264	17.41
784.446	-89.09
784.627	-3.07
784.809	60.42
784.99	-31.74
785.172	72.7
785.353	-9.22
785.535	-9.22
785.716	-76.8
785.897	35.84
786.079	-3.07
786.26	27.65
786.441	101.37
786.623	-111.61
786.804	-23.55
786.985	31.74
787.167	138.24
787.348	44.03
787.529	-7.17
787.71	140.29
787.891	134.14
788.073	-15.36
788.254	-23.55
788.435	164.86
788.616	62.46
788.797	-48.13
788.978	62.46
789.159	64.51
789.34	37.89
789.522	64.51
789.703	-62.46
789.884	-27.65
790.065	3.07
790.246	183.29
790.427	44.03
790.607	115.71
790.788	84.99
790.969	-80.89
791.15	84.99
791.331	48.13
791.512	-82.94
791.693	-17.41
791.874	44.03
792.054	187.39
792.235	74.75
792.416	-33.79
792.597	-25.6
792.778	60.42
792.958	91.13
793.139	70.65
793.32	-13.31
793.5	-82.94
793.681	21.5
793.862	52.22
794.042	23.55
794.223	-39.94
794.404	-19.46
794.584	-95.23
794.765	-31.74
794.945	11.26
795.126	95.23
795.306	123.9
795.487	64.51
795.667	-29.7
795.848	17.41
796.028	-101.37
796.209	-9.22
796.389	48.13
796.57	-5.12
796.75	-37.89
796.93	62.46
797.111	-21.5
797.291	21.5
797.471	66.56
797.652	19.46
797.832	-97.28
798.012	91.13
798.192	-31.74
798.373	-91.13
798.553	25.6
798.733	72.7
798.913	-76.8
799.093	-74.75
799.274	29.7
799.454	93.18
799.634	52.22
799.814	37.89
799.994	115.71
800.174	-31.74
800.354	46.08
800.534	-1.02
800.714	60.42
800.894	-84.99
801.074	-140.29
801.254	11.26
801.434	99.33
801.614	-13.31
801.794	-105.47
801.974	1868.77
802.154	-25.6
802.334	35.84
802.514	-44.03
802.693	-7.17
802.873	-21.5
803.053	25.6
803.233	-41.98
803.413	64.51
803.592	-56.32
803.772	-48.13
803.952	-23.55
804.131	-56.32
804.311	56.32
804.491	134.14
804.67	-134.14
804.85	-48.13
805.03	-21.5
805.209	17.41
805.389	-39.94
805.568	-64.51
805.748	-41.98
805.928	25.6
806.107	80.89
806.287	89.09
806.466	41.98
806.646	-11.26
806.825	19.46
807.004	-95.23
807.184	15.36
807.363	70.65
807.543	33.79
807.722	-119.81
807.901	78.85
808.081	78.85
808.26	-101.37
808.439	31.74
808.619	11.26
808.798	-89.09
808.977	-15.36
809.156	91.13
809.336	-23.55
809.515	142.33
809.694	-117.76
809.873	-52.22
810.052	-25.6
810.231	76.8
810.411	21.5
810.59	93.18
810.769	-50.18
810.948	-9.22
811.127	-128
811.306	-44.03
811.485	-48.13
811.664	123.9
811.843	56.32
812.022	-1.02
812.201	-33.79
812.38	54.27
812.559	-82.94
812.737	87.04
812.916	-101.37
813.095	-62.46
813.274	62.46
813.453	13.31
813.632	23.55
813.811	27.65
813.989	-3.07
814.168	-3.07
814.347	-72.7
814.526	39.94
814.704	121.85
814.883	125.95
815.062	-19.46
815.24	64.51
815.419	-113.66
815.598	29.7
815.776	-142.33
815.955	1.02
816.133	-64.51
816.312	27.65
816.49	-13.31
816.669	-58.37
816.847	-48.13
817.026	13.31
817.204	-33.79
817.383	1.02
817.561	-91.13
817.74	46.08
817.918	58.37
818.097	33.79
818.275	-31.74
818.453	146.43
818.632	41.98
818.81	-76.8
818.988	-7.17
819.167	-48.13
819.345	29.7
819.523	-19.46
819.701	21.5
819.879	-29.7
820.058	-15.36
820.236	-5.12
820.414	41.98
820.592	19.46
820.77	-15.36
820.948	-52.22
821.127	-93.18
821.305	46.08
821.483	-87.04
821.661	95.23
821.839	-23.55
822.017	-19.46
822.195	58.37
822.373	132.09
822.551	-44.03
822.729	23.55
822.907	-54.27
823.085	54.27
823.262	95.23
823.44	-46.08
823.618	-74.75
823.796	99.33
823.974	-58.37
824.152	-48.13
824.329	-80.89
824.507	-5.12
824.685	39.94
824.863	-44.03
825.04	35.84
825.218	11.26
825.396	-44.03
825.574	56.32
825.751	101.37
825.929	-13.31
826.107	-158.72
826.284	29.7
826.462	5.12
826.639	-54.27
826.817	-121.85
826.994	1.02
827.172	-74.75
827.349	82.94
827.527	21.5
827.704	11.26
827.882	78.85
828.059	13.31
828.237	-11.26
828.414	121.85
828.591	-138.24
828.769	46.08
828.946	-19.46
829.124	1.02
829.301	113.66
829.478	-109.57
829.655	95.23
829.833	-21.5
830.01	-50.18
830.187	-13.31
830.364	-25.6
830.542	46.08
830.719	76.8
830.896	-68.61
831.073	-35.84
831.25	50.18
831.427	29.7
831.604	17.41
831.782	-62.46
831.959	62.46
832.136	-13.31
832.313	23.55
832.49	-27.65
832.667	66.56
832.844	-93.18
833.021	62.46
833.198	-52.22
833.374	21.5
833.551	13.31
833.728	-23.55
833.905	-29.7
834.082	-125.95
834.259	68.61
834.436	23.55
834.612	-138.24
834.789	66.56
834.966	27.65
835.143	41.98
835.319	-64.51
835.496	29.7
835.673	25.6
835.85	-3.07
836.026	-1.02
836.203	54.27
836.38	-56.32
836.556	-23.55
836.733	-52.22
836.909	60.42
837.086	-82.94
837.262	-84.99
837.439	-31.74
837.616	-7.17
837.792	1.02
837.968	21.5
838.145	-78.85
838.321	74.75
838.498	-3.07
838.674	-29.7
838.851	9.22
839.027	-25.6
839.203	-3.07
839.38	3.07
839.556	-25.6
839.732	74.75
839.909	-5.12
840.085	29.7
840.261	27.65
840.437	87.04
840.614	-13.31
840.79	123.9
840.966	-39.94
841.142	25.6
841.318	-70.65
841.494	103.42
841.671	84.99
841.847	-52.22
842.023	-76.8
842.199	7.17
842.375	99.33
842.551	-109.57
842.727	-33.79
842.903	117.76
843.079	-125.95
843.255	99.33
843.431	-44.03
843.607	23.55
843.783	-197.63
843.959	105.47
844.134	-46.08
844.31	25.6
844.486	-23.55
844.662	-44.03
844.838	11.26
845.013	17.41
845.189	115.71
845.365	21.5
845.541	-58.37
845.716	-3.07
845.892	41.98
846.068	-5.12
846.244	-70.65
846.419	9.22
846.595	-87.04
846.77	-119.81
846.946	89.09
847.122	-27.65
847.297	-23.55
847.473	125.95
847.648	-121.85
847.824	-17.41
847.999	-60.42
848.175	-23.55
848.35	84.99
848.526	103.42
848.701	109.57
848.876	70.65
849.052	95.23
849.227	-27.65
849.403	-1.02
849.578	-158.72
849.753	-50.18
849.929	39.94
850.104	-101.37
850.279	44.03
850.454	-46.08
850.63	17.41
850.805	9.22
850.98	-78.85
851.155	-27.65
851.33	41.98
851.505	-70.65
851.681	136.19
851.856	5.12
852.031	11.26
852.206	-52.22
852.381	-97.28
852.556	-64.51
852.731	46.08
852.906	68.61
853.081	-41.98
853.256	99.33
853.431	-72.7
853.606	-130.05
853.781	-11.26
853.956	-134.14
854.131	-13.31
854.305	-19.46
854.48	-35.84
854.655	-3.07
854.83	31.74
855.005	-29.7
855.18	-5.12
855.354	5.12
855.529	21.5
855.704	-97.28
855.879	11.26
856.053	-56.32
856.228	-1.02
856.403	-82.94
856.577	1.02
856.752	-117.76
856.926	-103.42
857.101	37.89
857.276	-144.38
857.45	52.22
857.625	62.46
857.799	11.26
857.974	-29.7
858.148	-138.24
858.323	89.09
858.497	17.41
858.672	-54.27
858.846	-82.94
859.02	123.9
859.195	-152.57
859.369	33.79
859.543	-35.84
859.718	11.26
859.892	-37.89
860.066	19.46
860.241	-41.98
860.415	-60.42
860.589	-52.22
860.763	44.03
860.938	-7.17
861.112	50.18
861.286	-62.46
861.46	33.79
861.634	9.22
861.808	56.32
861.982	-82.94
862.157	-74.75
862.331	-1.02
862.505	-140.29
862.679	-148.48
862.853	-9.22
863.027	-48.13
863.201	78.85
863.375	-64.51
863.549	-52.22
863.722	-76.8
863.896	109.57
864.07	-74.75
864.244	-66.56
864.418	58.37
864.592	-25.6
864.766	-33.79
864.939	-44.03
865.113	-19.46
865.287	-5.12
865.461	-87.04
865.634	-3.07
865.808	21.5
865.982	-9.22
866.156	-138.24
866.329	-78.85
866.503	41.98
866.676	72.7
866.85	5.12
867.024	-17.41
867.197	54.27
867.371	23.55
867.544	-7.17
867.718	-111.61
867.891	107.52
868.065	-35.84
868.238	-60.42
868.412	46.08
868.585	-82.94
868.759	66.56
868.932	-48.13
869.105	-132.09
869.279	-52.22
869.452	-136.19
869.625	50.18
869.799	-31.74
869.972	-138.24
870.145	25.6
870.319	58.37
870.492	-111.61
870.665	-33.79
870.838	-78.85
871.011	-136.19
871.185	-37.89
871.358	-109.57
871.531	1.02
871.704	1.02
871.877	15.36
872.05	-87.04
872.223	-46.08
872.396	7.17
872.569	-17.41
872.742	-125.95
872.915	64.51
873.088	1.02
873.261	-13.31
873.434	50.18
873.607	-46.08
873.78	64.51
873.953	-148.48
874.126	27.65
874.299	-39.94
874.471	-56.32
874.644	-52.22
874.817	19.46
874.99	123.9
875.163	-101.37
875.335	35.84
875.508	37.89
875.681	93.18
875.853	-11.26
876.026	-11.26
876.199	44.03
876.371	87.04
876.544	-11.26
876.717	-23.55
876.889	-11.26
877.062	25.6
877.234	-99.33
877.407	76.8
877.579	31.74
877.752	-13.31
877.924	-7.17
878.097	-3.07
878.269	-29.7
878.442	-56.32
878.614	66.56
878.786	-35.84
878.959	-7.17
879.131	-7.17
879.303	-103.42
879.476	-11.26
879.648	23.55
879.82	1.02
879.993	-25.6
880.165	-62.46
880.337	-70.65
880.509	25.6
880.681	-130.05
880.854	-76.8
881.026	-23.55
881.198	125.95
881.37	-5.12
881.542	-84.99
881.714	-70.65
881.886	-115.71
882.058	-39.94
882.23	54.27
882.402	-13.31
882.574	41.98
882.746	-31.74
882.918	97.28
883.09	29.7
883.262	19.46
883.434	-9.22
883.606	-62.46
883.778	50.18
883.95	46.08
884.122	-60.42
884.293	84.99
884.465	1.02
884.637	17.41
884.809	-62.46
884.98	46.08
885.152	27.65
885.324	44.03
885.496	-72.7
885.667	-91.13
885.839	-27.65
886.011	52.22
886.182	78.85
886.354	46.08
886.525	-17.41
886.697	-31.74
886.869	-87.04
887.04	-21.5
887.212	80.89
887.383	87.04
887.555	5.12
887.726	-66.56
887.897	-56.32
888.069	-27.65
888.24	44.03
888.412	-25.6
888.583	-64.51
888.754	-19.46
888.926	-173.05
889.097	-70.65
889.268	-107.52
889.44	-50.18
889.611	-166.91
889.782	3.07
889.953	-60.42
890.125	101.37
890.296	-66.56
890.467	-54.27
890.638	3.07
890.809	-56.32
890.98	-103.42
891.151	-7.17
891.323	60.42
891.494	29.7
891.665	-21.5
891.836	46.08
892.007	-13.31
892.178	-68.61
892.349	-50.18
892.52	-25.6
892.691	31.74
892.862	-46.08
893.032	5.12
893.203	7.17
893.374	-3.07
893.545	7.17
893.716	-95.23
893.887	-19.46
894.057	-50.18
894.228	3.07
894.399	-58.37
894.57	37.89
894.74	-13.31
894.911	-56.32
895.082	-48.13
895.253	-91.13
895.423	9.22
895.594	-37.89
895.764	-29.7
895.935	-70.65
896.106	35.84
896.276	-35.84
896.447	15.36
896.617	-95.23
896.788	-93.18
896.958	-31.74
897.129	-15.36
897.299	-27.65
897.47	84.99
897.64	58.37
897.81	-72.7
897.981	-11.26
898.151	-64.51
898.322	-11.26
898.492	9.22
898.662	-27.65
898.832	-93.18
899.003	1.02
899.173	44.03
899.343	-54.27
899.513	-78.85
