Data from USB4F104151__216__11-05-55-628.txt Node

Date: Wed Feb 26 11:05:55 EST 2025
User: louis
Spectrometer: USB4F10415
Trigger mode: 4
Integration Time (sec): 1.000000E-1
Scans to average: 1
Electric dark correction enabled: true
Nonlinearity correction enabled: false
Boxcar width: 0
XAxis mode: Wavelengths
Number of Pixels in Spectrum: 3648
>>>>>Begin Spectral Data<<<<<
178.204	-362.32
178.424	-362.32
178.644	-362.32
178.864	-384.85
179.084	-384.85
179.304	-22.36
179.524	-46.93
179.744	-1.88
179.964	41.13
180.184	6.31
180.404	61.61
180.624	8.36
180.844	-18.26
181.064	-85.84
181.283	51.37
181.503	-46.93
181.723	53.42
181.943	-145.24
182.163	164.01
182.383	-1.88
182.602	65.71
182.822	123.05
183.042	65.71
183.262	-77.65
183.482	41.13
183.701	43.18
183.921	28.84
184.141	12.46
184.361	129.19
184.58	37.03
184.8	80.04
185.02	-22.36
185.239	22.7
185.459	75.95
185.679	123.05
185.898	-85.84
186.118	57.51
186.338	55.47
186.557	104.62
186.777	10.41
186.997	82.09
187.216	-53.08
187.436	155.82
187.655	90.28
187.875	63.66
188.095	65.71
188.314	155.82
188.534	133.29
188.753	-5.97
188.973	176.3
189.192	178.34
189.412	100.52
189.631	41.13
189.851	84.14
190.07	125.1
190.29	-112.47
190.509	-5.97
190.729	26.79
190.948	118.95
191.168	190.63
191.387	6.31
191.607	51.37
191.826	41.13
192.045	63.66
192.265	71.85
192.484	139.43
192.704	14.51
192.923	-18.26
193.142	155.82
193.362	67.75
193.581	209.06
193.8	86.19
194.02	192.68
194.239	34.99
194.458	102.57
194.678	-8.02
194.897	-16.21
195.116	69.8
195.335	14.51
195.555	16.55
195.774	12.46
195.993	96.43
196.212	10.41
196.432	8.36
196.651	14.51
196.87	57.51
197.089	288.93
197.308	110.76
197.528	106.67
197.747	-24.4
197.966	157.86
198.185	127.14
198.404	22.7
198.623	32.94
198.842	118.95
199.062	73.9
199.281	139.43
199.5	67.75
199.719	55.47
199.938	47.27
200.157	65.71
200.376	57.51
200.595	133.29
200.814	75.95
201.033	-75.6
201.252	159.91
201.471	34.99
201.69	147.62
201.909	61.61
202.128	121
202.347	86.19
202.566	37.03
202.785	-14.17
203.004	-1.88
203.223	256.17
203.442	61.61
203.661	-1.88
203.879	20.65
204.098	258.21
204.317	-36.69
204.536	112.81
204.755	73.9
204.974	114.86
205.193	41.13
205.411	139.43
205.63	102.57
205.849	39.08
206.068	-42.84
206.287	22.7
206.505	164.01
206.724	57.51
206.943	-36.69
207.162	-20.31
207.381	110.76
207.599	159.91
207.818	82.09
208.037	10.41
208.255	55.47
208.474	71.85
208.693	98.47
208.911	6.31
209.13	123.05
209.349	24.75
209.567	98.47
209.786	43.18
210.005	131.24
210.223	73.9
210.442	-149.33
210.661	20.65
210.879	129.19
211.098	32.94
211.316	-20.31
211.535	49.32
211.753	102.57
211.972	39.08
212.191	90.28
212.409	-10.07
212.628	92.33
212.846	37.03
213.065	6.31
213.283	129.19
213.502	28.84
213.72	-24.4
213.938	88.23
214.157	45.23
214.375	133.29
214.594	59.56
214.812	108.71
215.031	28.84
215.249	53.42
215.467	143.53
215.686	147.62
215.904	67.75
216.122	55.47
216.341	86.19
216.559	55.47
216.778	96.43
216.996	190.63
217.214	188.58
217.432	71.85
217.651	-69.46
217.869	129.19
218.087	63.66
218.306	-30.55
218.524	131.24
218.742	131.24
218.96	114.86
219.179	57.51
219.397	41.13
219.615	227.5
219.833	67.75
220.051	28.84
220.27	96.43
220.488	53.42
220.706	155.82
220.924	8.36
221.142	30.89
221.36	151.72
221.578	55.47
221.796	77.99
222.015	55.47
222.233	12.46
222.451	196.78
222.669	-5.97
222.887	80.04
223.105	14.51
223.323	45.23
223.541	18.6
223.759	41.13
223.977	75.95
224.195	131.24
224.413	147.62
224.631	45.23
224.849	104.62
225.067	207.02
225.285	-51.03
225.503	75.95
225.721	-42.84
225.939	22.7
226.157	135.34
226.375	239.78
226.592	16.55
226.81	63.66
227.028	151.72
227.246	133.29
227.464	12.46
227.682	125.1
227.9	155.82
228.117	63.66
228.335	94.38
228.553	-5.97
228.771	-3.93
228.989	39.08
229.206	37.03
229.424	4.27
229.642	22.7
229.86	-24.4
230.077	137.38
230.295	118.95
230.513	43.18
230.731	51.37
230.948	215.21
231.166	198.82
231.384	-30.55
231.601	-18.26
231.819	102.57
232.037	0.17
232.254	-61.27
232.472	121
232.689	-61.27
232.907	116.9
233.125	69.8
233.342	30.89
233.56	14.51
233.777	24.75
233.995	39.08
234.213	172.2
234.43	129.19
234.648	32.94
234.865	-42.84
235.083	96.43
235.3	12.46
235.518	159.91
235.735	90.28
235.953	86.19
236.17	22.7
236.388	106.67
236.605	118.95
236.822	82.09
237.04	141.48
237.257	24.75
237.475	-63.32
237.692	96.43
237.909	32.94
238.127	24.75
238.344	51.37
238.562	77.99
238.779	-22.36
238.996	-16.21
239.214	108.71
239.431	166.06
239.648	-18.26
239.865	86.19
240.083	57.51
240.3	39.08
240.517	-8.02
240.735	-12.12
240.952	139.43
241.169	39.08
241.386	53.42
241.603	63.66
241.821	-20.31
242.038	80.04
242.255	131.24
242.472	-51.03
242.689	145.58
242.907	80.04
243.124	127.14
243.341	63.66
243.558	-42.84
243.775	10.41
243.992	-57.17
244.209	176.3
244.426	145.58
244.643	63.66
244.86	47.27
245.078	90.28
245.295	34.99
245.512	104.62
245.729	-26.45
245.946	82.09
246.163	37.03
246.38	10.41
246.597	98.47
246.814	4.27
247.031	30.89
247.248	39.08
247.464	182.44
247.681	71.85
247.898	10.41
248.115	43.18
248.332	-51.03
248.549	157.86
248.766	141.48
248.983	121
249.2	127.14
249.417	118.95
249.633	61.61
249.85	133.29
250.067	94.38
250.284	69.8
250.501	114.86
250.717	110.76
250.934	-51.03
251.151	57.51
251.368	20.65
251.585	32.94
251.801	65.71
252.018	-71.51
252.235	137.38
252.451	-12.12
252.668	18.6
252.885	164.01
253.102	80.04
253.318	51.37
253.535	55.47
253.752	10.41
253.968	10.41
254.185	-32.6
254.401	43.18
254.618	112.81
254.835	34.99
255.051	176.3
255.268	67.75
255.484	80.04
255.701	28.84
255.917	45.23
256.134	10.41
256.351	98.47
256.567	-14.17
256.784	80.04
257	-5.97
257.217	143.53
257.433	118.95
257.65	100.52
257.866	69.8
258.082	-77.65
258.299	22.7
258.515	49.32
258.732	92.33
258.948	22.7
259.165	73.9
259.381	-32.6
259.597	139.43
259.814	39.08
260.03	102.57
260.246	-16.21
260.463	157.86
260.679	184.49
260.895	86.19
261.112	51.37
261.328	75.95
261.544	8.36
261.761	211.11
261.977	-24.4
262.193	-38.74
262.409	96.43
262.626	75.95
262.842	22.7
263.058	8.36
263.274	94.38
263.49	39.08
263.707	110.76
263.923	98.47
264.139	-65.36
264.355	34.99
264.571	125.1
264.787	61.61
265.004	174.25
265.22	22.7
265.436	-10.07
265.652	84.14
265.868	47.27
266.084	14.51
266.3	51.37
266.516	4.27
266.732	47.27
266.948	10.41
267.164	-46.93
267.38	90.28
267.596	90.28
267.812	159.91
268.028	73.9
268.244	26.79
268.46	75.95
268.676	8.36
268.892	127.14
269.108	-24.4
269.324	-51.03
269.54	-44.88
269.756	116.9
269.972	-8.02
270.188	14.51
270.403	-8.02
270.619	147.62
270.835	170.15
271.051	47.27
271.267	6.31
271.483	-16.21
271.698	121
271.914	125.1
272.13	30.89
272.346	30.89
272.562	43.18
272.777	141.48
272.993	-65.36
273.209	-51.03
273.425	131.24
273.64	-18.26
273.856	104.62
274.072	-8.02
274.287	-42.84
274.503	118.95
274.719	121
274.934	65.71
275.15	-38.74
275.366	18.6
275.581	-55.12
275.797	6.31
276.012	69.8
276.228	30.89
276.444	106.67
276.659	131.24
276.875	-5.97
277.09	10.41
277.306	-26.45
277.521	125.1
277.737	-8.02
277.952	88.23
278.168	37.03
278.383	102.57
278.599	37.03
278.814	157.86
279.03	6.31
279.245	145.58
279.461	-14.17
279.676	88.23
279.892	2.22
280.107	-24.4
280.322	24.75
280.538	151.72
280.753	-34.64
280.969	57.51
281.184	41.13
281.399	84.14
281.615	80.04
281.83	-14.17
282.045	-61.27
282.26	18.6
282.476	24.75
282.691	133.29
282.906	47.27
283.122	6.31
283.337	-1.88
283.552	151.72
283.767	-14.17
283.983	145.58
284.198	67.75
284.413	51.37
284.628	-85.84
284.843	26.79
285.058	51.37
285.274	49.32
285.489	6.31
285.704	188.58
285.919	49.32
286.134	-5.97
286.349	-44.88
286.564	55.47
286.779	102.57
286.995	-8.02
287.21	-46.93
287.425	104.62
287.64	8.36
287.855	67.75
288.07	-87.89
288.285	96.43
288.5	75.95
288.715	88.23
288.93	-14.17
289.145	-34.64
289.36	71.85
289.575	49.32
289.79	180.39
290.004	-1.88
290.219	106.67
290.434	47.27
290.649	22.7
290.864	53.42
291.079	63.66
291.294	67.75
291.509	82.09
291.724	-22.36
291.938	28.84
292.153	49.32
292.368	-51.03
292.583	49.32
292.798	80.04
293.012	90.28
293.227	102.57
293.442	14.51
293.657	41.13
293.871	151.72
294.086	53.42
294.301	202.92
294.516	112.81
294.73	82.09
294.945	-3.93
295.16	14.51
295.374	82.09
295.589	170.15
295.804	16.55
296.018	-3.93
296.233	94.38
296.447	96.43
296.662	-10.07
296.877	182.44
297.091	90.28
297.306	77.99
297.52	90.28
297.735	49.32
297.949	102.57
298.164	94.38
298.378	133.29
298.593	47.27
298.807	-83.8
299.022	71.85
299.236	141.48
299.451	22.7
299.665	80.04
299.88	96.43
300.094	98.47
300.309	96.43
300.523	43.18
300.737	8.36
300.952	157.86
301.166	57.51
301.381	37.03
301.595	53.42
301.809	41.13
302.024	14.51
302.238	-40.79
302.452	98.47
302.667	-10.07
302.881	100.52
303.095	121
303.309	41.13
303.524	34.99
303.738	63.66
303.952	-18.26
304.166	67.75
304.381	-18.26
304.595	192.68
304.809	32.94
305.023	114.86
305.237	4.27
305.452	-46.93
305.666	37.03
305.88	88.23
306.094	116.9
306.308	84.14
306.522	67.75
306.736	94.38
306.95	88.23
307.164	4.27
307.379	86.19
307.593	88.23
307.807	137.38
308.021	45.23
308.235	114.86
308.449	-63.32
308.663	51.37
308.877	225.45
309.091	18.6
309.305	116.9
309.519	-65.36
309.733	63.66
309.947	-28.5
310.161	37.03
310.374	231.59
310.588	57.51
310.802	24.75
311.016	-32.6
311.23	34.99
311.444	14.51
311.658	41.13
311.872	112.81
312.085	96.43
312.299	88.23
312.513	63.66
312.727	-10.07
312.941	34.99
313.154	39.08
313.368	45.23
313.582	71.85
313.796	61.61
314.009	16.55
314.223	184.49
314.437	164.01
314.651	131.24
314.864	12.46
315.078	41.13
315.292	-34.64
315.505	86.19
315.719	155.82
315.933	-32.6
316.146	30.89
316.36	-24.4
316.573	102.57
316.787	96.43
317.001	112.81
317.214	-65.36
317.428	51.37
317.641	-1.88
317.855	34.99
318.068	49.32
318.282	104.62
318.495	262.31
318.709	-1.88
318.922	57.51
319.136	77.99
319.349	131.24
319.563	104.62
319.776	104.62
319.99	-94.04
320.203	145.58
320.417	14.51
320.63	131.24
320.843	250.02
321.057	65.71
321.27	57.51
321.483	131.24
321.697	135.34
321.91	51.37
322.124	104.62
322.337	22.7
322.55	0.17
322.763	96.43
322.977	10.41
323.19	53.42
323.403	67.75
323.617	82.09
323.83	80.04
324.043	-59.22
324.256	-44.88
324.469	-65.36
324.683	147.62
324.896	71.85
325.109	45.23
325.322	22.7
325.535	141.48
325.748	139.43
325.962	-22.36
326.175	114.86
326.388	59.56
326.601	172.2
326.814	57.51
327.027	184.49
327.24	110.76
327.453	-98.13
327.666	77.99
327.879	157.86
328.092	125.1
328.305	63.66
328.518	-12.12
328.731	18.6
328.944	45.23
329.157	73.9
329.37	65.71
329.583	123.05
329.796	139.43
330.009	-108.37
330.222	22.7
330.435	145.58
330.648	6.31
330.861	98.47
331.073	131.24
331.286	151.72
331.499	82.09
331.712	0.17
331.925	51.37
332.138	39.08
332.35	88.23
332.563	69.8
332.776	127.14
332.989	-30.55
333.202	82.09
333.414	16.55
333.627	61.61
333.84	67.75
334.053	14.51
334.265	-3.93
334.478	-44.88
334.691	100.52
334.903	71.85
335.116	-38.74
335.329	63.66
335.541	94.38
335.754	159.91
335.966	10.41
336.179	0.17
336.392	32.94
336.604	63.66
336.817	147.62
337.029	125.1
337.242	51.37
337.454	55.47
337.667	53.42
337.88	176.3
338.092	88.23
338.305	108.71
338.517	73.9
338.729	118.95
338.942	94.38
339.154	-3.93
339.367	-51.03
339.579	153.77
339.792	69.8
340.004	71.85
340.217	28.84
340.429	8.36
340.641	-20.31
340.854	-16.21
341.066	88.23
341.278	88.23
341.491	176.3
341.703	88.23
341.915	-30.55
342.128	112.81
342.34	47.27
342.552	34.99
342.764	69.8
342.977	16.55
343.189	30.89
343.401	53.42
343.613	-38.74
343.826	73.9
344.038	-59.22
344.25	75.95
344.462	32.94
344.674	59.56
344.886	-12.12
345.099	102.57
345.311	118.95
345.523	39.08
345.735	14.51
345.947	112.81
346.159	131.24
346.371	-10.07
346.583	77.99
346.795	153.77
347.007	51.37
347.219	125.1
347.431	67.75
347.643	133.29
347.855	75.95
348.067	88.23
348.279	-59.22
348.491	94.38
348.703	125.1
348.915	61.61
349.127	-81.75
349.339	125.1
349.551	4.27
349.763	106.67
349.975	6.31
350.187	75.95
350.399	174.25
350.61	116.9
350.822	0.17
351.034	82.09
351.246	98.47
351.458	65.71
351.669	133.29
351.881	121
352.093	143.53
352.305	131.24
352.517	92.33
352.728	196.78
352.94	104.62
353.152	53.42
353.363	-51.03
353.575	90.28
353.787	145.58
353.999	61.61
354.21	143.53
354.422	-61.27
354.633	20.65
354.845	106.67
355.057	102.57
355.268	57.51
355.48	80.04
355.692	-81.75
355.903	73.9
356.115	-16.21
356.326	-73.56
356.538	184.49
356.749	114.86
356.961	133.29
357.172	8.36
357.384	-34.64
357.595	223.4
357.807	22.7
358.018	-8.02
358.23	55.47
358.441	174.25
358.653	45.23
358.864	51.37
359.075	-57.17
359.287	57.51
359.498	164.01
359.709	4.27
359.921	67.75
360.132	184.49
360.344	75.95
360.555	49.32
360.766	55.47
360.977	90.28
361.189	100.52
361.4	51.37
361.611	80.04
361.823	135.34
362.034	110.76
362.245	-8.02
362.456	-10.07
362.667	131.24
362.879	-1.88
363.09	55.47
363.301	108.71
363.512	-28.5
363.723	55.47
363.935	-28.5
364.146	188.58
364.357	94.38
364.568	45.23
364.779	6.31
364.99	215.21
365.201	10.41
365.412	84.14
365.623	-46.93
365.834	30.89
366.045	4.27
366.256	104.62
366.467	102.57
366.678	86.19
366.889	-24.4
367.1	39.08
367.311	63.66
367.522	4.27
367.733	127.14
367.944	67.75
368.155	20.65
368.366	129.19
368.577	47.27
368.788	47.27
368.999	-1.88
369.209	43.18
369.42	284.84
369.631	196.78
369.842	127.14
370.053	100.52
370.264	102.57
370.474	8.36
370.685	32.94
370.896	-28.5
371.107	133.29
371.317	61.61
371.528	-26.45
371.739	172.2
371.95	51.37
372.16	84.14
372.371	-65.36
372.582	-10.07
372.792	88.23
373.003	28.84
373.214	61.61
373.424	59.56
373.635	-77.65
373.846	118.95
374.056	28.84
374.267	123.05
374.477	90.28
374.688	2.22
374.898	125.1
375.109	84.14
375.319	145.58
375.53	82.09
375.74	145.58
375.951	-10.07
376.161	86.19
376.372	155.82
376.582	22.7
376.793	90.28
377.003	-3.93
377.214	-8.02
377.424	84.14
377.635	16.55
377.845	24.75
378.055	161.96
378.266	-24.4
378.476	53.42
378.686	118.95
378.897	45.23
379.107	77.99
379.317	69.8
379.528	-75.6
379.738	55.47
379.948	-51.03
380.158	137.38
380.369	75.95
380.579	98.47
380.789	28.84
380.999	217.26
381.21	149.67
381.42	200.87
381.63	41.13
381.84	198.82
382.05	129.19
382.261	100.52
382.471	106.67
382.681	41.13
382.891	204.97
383.101	67.75
383.311	-26.45
383.521	32.94
383.731	57.51
383.941	57.51
384.151	92.33
384.361	-12.12
384.571	133.29
384.781	59.56
384.991	264.36
385.201	207.02
385.411	139.43
385.621	84.14
385.831	37.03
386.041	86.19
386.251	26.79
386.461	131.24
386.671	84.14
386.881	53.42
387.091	12.46
387.301	34.99
387.511	18.6
387.72	88.23
387.93	114.86
388.14	-85.84
388.35	-12.12
388.56	80.04
388.769	161.96
388.979	2.22
389.189	10.41
389.399	63.66
389.609	102.57
389.818	112.81
390.028	67.75
390.238	164.01
390.447	28.84
390.657	92.33
390.867	2.22
391.076	2.22
391.286	96.43
391.496	53.42
391.705	84.14
391.915	137.38
392.125	135.34
392.334	-53.08
392.544	96.43
392.753	172.2
392.963	-1.88
393.172	32.94
393.382	-53.08
393.591	174.25
393.801	73.9
394.01	141.48
394.22	182.44
394.429	-3.93
394.639	37.03
394.848	86.19
395.058	82.09
395.267	49.32
395.477	88.23
395.686	80.04
395.895	293.03
396.105	198.82
396.314	133.29
396.524	159.91
396.733	-10.07
396.942	86.19
397.152	159.91
397.361	151.72
397.57	55.47
397.78	98.47
397.989	106.67
398.198	190.63
398.407	37.03
398.617	61.61
398.826	159.91
399.035	45.23
399.244	92.33
399.453	88.23
399.663	63.66
399.872	61.61
400.081	67.75
400.29	155.82
400.499	45.23
400.708	168.1
400.917	51.37
401.127	10.41
401.336	-36.69
401.545	221.35
401.754	207.02
401.963	55.47
402.172	-55.12
402.381	22.7
402.59	47.27
402.799	-32.6
403.008	125.1
403.217	59.56
403.426	149.67
403.635	-65.36
403.844	16.55
404.053	39.08
404.262	59.56
404.471	184.49
404.68	86.19
404.888	8.36
405.097	53.42
405.306	73.9
405.515	135.34
405.724	88.23
405.933	41.13
406.142	43.18
406.35	161.96
406.559	98.47
406.768	80.04
406.977	217.26
407.185	90.28
407.394	118.95
407.603	-46.93
407.812	116.9
408.02	145.58
408.229	37.03
408.438	88.23
408.646	-53.08
408.855	75.95
409.064	39.08
409.272	22.7
409.481	71.85
409.69	-51.03
409.898	-42.84
410.107	34.99
410.315	43.18
410.524	47.27
410.733	100.52
410.941	-16.21
411.15	104.62
411.358	106.67
411.567	155.82
411.775	94.38
411.984	94.38
412.192	116.9
412.401	-22.36
412.609	166.06
412.818	194.73
413.026	63.66
413.234	100.52
413.443	39.08
413.651	18.6
413.86	47.27
414.068	239.78
414.276	221.35
414.485	-16.21
414.693	110.76
414.901	161.96
415.11	47.27
415.318	82.09
415.526	18.6
415.734	75.95
415.943	102.57
416.151	250.02
416.359	75.95
416.567	102.57
416.776	88.23
416.984	106.67
417.192	161.96
417.4	37.03
417.608	90.28
417.817	18.6
418.025	90.28
418.233	188.58
418.441	92.33
418.649	-12.12
418.857	149.67
419.065	59.56
419.273	59.56
419.481	82.09
419.689	51.37
419.897	12.46
420.105	73.9
420.313	69.8
420.521	188.58
420.729	116.9
420.937	65.71
421.145	53.42
421.353	135.34
421.561	180.39
421.769	141.48
421.977	26.79
422.185	159.91
422.393	73.9
422.601	53.42
422.809	114.86
423.017	125.1
423.224	98.47
423.432	57.51
423.64	0.17
423.848	145.58
424.056	51.37
424.263	204.97
424.471	129.19
424.679	200.87
424.887	69.8
425.094	235.69
425.302	121
425.51	121
425.718	180.39
425.925	71.85
426.133	0.17
426.341	215.21
426.548	133.29
426.756	30.89
426.964	135.34
427.171	-14.17
427.379	137.38
427.586	104.62
427.794	161.96
428.001	204.97
428.209	129.19
428.417	180.39
428.624	174.25
428.832	153.77
429.039	137.38
429.247	114.86
429.454	110.76
429.662	202.92
429.869	108.71
430.076	198.82
430.284	168.1
430.491	268.45
430.699	159.91
430.906	188.58
431.114	178.34
431.321	180.39
431.528	153.77
431.736	221.35
431.943	182.44
432.15	170.15
432.358	182.44
432.565	272.55
432.772	55.47
432.979	303.27
433.187	104.62
433.394	254.12
433.601	176.3
433.808	280.74
434.016	264.36
434.223	301.22
434.43	194.73
434.637	258.21
434.844	313.51
435.052	219.3
435.259	245.93
435.466	381.09
435.673	254.12
435.88	340.13
436.087	424.1
436.294	381.09
436.501	338.09
436.708	346.28
436.915	352.42
437.122	372.9
437.329	340.13
437.537	383.14
437.743	362.66
437.95	508.07
438.157	377
438.364	499.88
438.571	420
438.778	454.82
438.985	514.21
439.192	585.89
439.399	460.96
439.606	544.93
439.813	594.08
440.02	686.24
440.227	665.76
440.433	620.71
440.64	635.04
440.847	618.66
441.054	690.34
441.261	725.15
441.467	749.73
441.674	626.85
441.881	819.36
442.088	712.86
442.294	878.75
442.501	958.62
442.708	917.66
442.914	845.98
443.121	956.57
443.328	999.58
443.534	979.1
443.741	1118.36
443.948	1003.68
444.154	1183.9
444.361	1300.63
444.568	1233.05
444.774	1161.37
444.981	1253.53
445.187	1429.65
445.394	1441.94
445.6	1319.06
445.807	1515.67
446.013	1548.44
446.22	1394.84
446.426	1679.51
446.633	1781.9
446.839	1921.17
447.046	1712.27
447.252	1955.98
447.459	1937.55
447.665	1921.17
447.871	2087.05
448.078	2310.28
448.284	2068.62
448.491	2330.76
448.697	2369.67
448.903	2457.73
449.11	2592.9
449.316	2582.66
449.522	2742.4
449.728	2848.9
449.935	2959.49
450.141	2918.53
450.347	3176.57
450.553	3172.47
450.76	3197.05
450.966	3364.98
451.172	3471.48
451.378	3577.97
451.584	3766.39
451.791	4003.95
451.997	3979.37
452.203	4184.17
452.409	4380.78
452.615	4569.19
452.821	4333.67
453.027	4561
453.233	4946.02
453.44	4950.11
453.646	5148.76
453.852	5267.55
454.058	5470.3
454.264	5820.5
454.47	6064.21
454.676	6109.26
454.882	6525
455.088	6340.68
455.294	6637.64
455.5	7112.77
455.705	7721.01
455.911	7594.04
456.117	7759.92
456.323	7919.67
456.529	8204.33
456.735	8953.89
456.941	9041.95
457.147	9445.4
457.352	9723.93
457.558	9787.41
457.764	10600.46
457.97	10725.38
458.176	11278.33
458.381	11808.76
458.587	11986.93
458.793	12552.17
458.999	12605.42
459.204	13891.54
459.41	14579.66
459.616	14211.03
459.821	15347.65
460.027	15714.23
460.233	16641.96
460.438	16471.98
460.644	17594.27
460.85	17813.4
461.055	18499.47
461.261	19488.64
461.466	19259.27
461.672	19519.36
461.878	21555.04
462.083	21315.43
462.289	22054.75
462.494	22796.11
462.7	22861.65
462.905	23246.66
463.111	25145.13
463.316	26613.52
463.522	26584.85
463.727	27408.14
463.932	28962.54
464.138	29755.11
464.343	30693.08
464.549	30682.84
464.754	33189.55
464.959	34027.17
465.165	34526.88
465.37	34264.74
465.575	34234.02
465.781	36923
465.986	37607.02
466.191	36931.19
466.397	37635.69
466.602	36841.08
466.807	38856.28
467.012	39368.27
467.218	40158.79
467.423	40379.97
467.628	40799.8
467.833	43193.88
468.038	42567.2
468.244	41520.69
468.449	43554.32
468.654	42649.12
468.859	42800.67
469.064	43136.54
469.269	41569.84
469.474	42241.57
469.679	43752.98
469.885	42247.72
470.09	42784.29
470.295	42874.4
470.5	42079.78
470.705	42153.51
470.91	40736.32
471.115	40697.41
471.32	41346.61
471.525	40996.41
471.73	39792.2
471.935	39816.78
472.139	38377.06
472.344	38319.71
472.549	37750.38
472.754	37135.99
472.959	36349.57
473.164	35059.35
473.369	34473.63
473.574	35378.83
473.778	34866.84
473.983	34453.15
474.188	33648.3
474.393	32294.59
474.598	31993.54
474.802	31712.97
475.007	31155.92
475.212	30742.23
475.417	29544.17
475.621	29110
475.826	29097.71
476.031	27799.3
476.235	27375.37
476.44	27569.93
476.645	26898.19
476.849	26466.07
477.054	26179.36
477.259	25335.59
477.463	25540.39
477.668	25005.87
477.872	24657.71
478.077	24108.86
478.282	23336.77
478.486	22996.81
478.691	22775.63
478.895	22695.76
479.1	22560.59
479.304	22378.33
479.509	21311.33
479.713	21952.35
479.918	21200.74
480.122	20924.27
480.326	21147.5
480.531	20885.36
480.735	20864.88
480.94	20295.54
481.144	21043.05
481.348	20111.22
481.553	20168.57
481.757	19593.09
481.961	19965.82
482.166	20135.8
482.37	19625.86
482.574	19138.44
482.778	19193.73
482.983	19351.43
483.187	18876.3
483.391	18849.68
483.595	18562.96
483.8	18091.93
484.004	18091.93
484.208	18487.18
484.412	17915.8
484.616	17893.27
484.821	17485.73
485.025	17106.85
485.229	17250.21
485.433	16838.57
485.637	16648.11
485.841	16502.7
486.045	16258.99
486.249	16089.01
486.453	15732.67
486.657	15734.71
486.861	15505.34
487.065	15015.88
487.269	15026.12
487.473	14600.14
487.677	14696.39
487.881	14499.79
488.085	14139.35
488.289	14139.35
488.493	13715.42
488.697	13535.2
488.901	13361.12
489.105	12929
489.309	12716.01
489.512	12654.57
489.716	12431.34
489.92	12077.04
490.124	11794.42
490.328	11902.97
490.531	11405.31
490.735	11274.24
490.939	10907.65
491.143	10852.36
491.346	10727.43
491.55	10801.16
491.754	10498.06
491.958	10407.95
492.161	10084.37
492.365	9996.31
492.569	9758.74
492.772	9492.51
492.976	9674.78
493.18	9601.05
493.383	9297.95
493.587	9189.41
493.79	8998.95
493.994	8620.07
494.197	8673.32
494.401	8796.2
494.605	8482.86
494.808	8554.54
495.012	8626.22
495.215	8626.22
495.419	8527.91
495.622	8257.58
495.825	8351.79
496.029	8239.15
496.232	8359.98
496.436	7944.24
496.639	8388.65
496.843	8081.46
497.046	8040.5
497.249	8323.12
497.453	8228.91
497.656	8114.22
497.859	8208.43
498.063	8249.39
498.266	8368.17
498.469	8024.11
498.673	8214.57
498.876	8386.6
499.079	8429.61
499.282	8521.77
499.485	8431.66
499.689	8550.44
499.892	8536.1
500.095	8458.28
500.298	8798.24
500.501	8491.05
500.705	8730.66
500.908	8818.72
501.111	8808.48
501.314	8970.27
501.517	9226.27
501.72	9050.14
501.923	8937.51
502.126	9359.39
502.329	9398.3
502.532	9535.51
502.735	9721.88
502.938	9752.6
503.141	9793.56
503.344	9949.2
503.547	10106.9
503.75	10043.41
503.953	10205.2
504.156	10686.47
504.359	10385.42
504.562	10446.86
504.765	10909.7
504.968	11083.78
505.17	11261.95
505.373	11409.4
505.576	11728.89
505.779	11618.3
505.982	11878.39
506.185	12199.92
506.387	12257.26
506.59	12609.51
506.793	13019.11
506.996	12830.69
507.198	13772.76
507.401	13596.64
507.604	13723.61
507.807	14243.79
508.009	14381.01
508.212	14579.66
508.415	14944.2
508.617	15079.36
508.82	15468.48
509.022	15456.19
509.225	16103.35
509.428	16627.63
509.63	16742.32
509.833	16906.15
510.035	17602.46
510.238	17637.28
510.44	18237.33
510.643	18804.62
510.845	19033.99
511.048	19181.45
511.25	19672.96
511.453	19994.49
511.655	21192.55
511.858	21151.59
512.06	21761.89
512.262	22077.27
512.465	22323.03
512.667	23074.63
512.87	23666.5
513.072	24041.28
513.274	24774.45
513.477	25194.28
513.679	25790.24
513.881	26298.14
514.084	26961.68
514.286	27455.24
514.488	28204.8
514.69	29093.61
514.893	29132.53
515.095	29785.83
515.297	30340.83
515.499	31035.09
515.701	31622.86
515.904	32767.67
516.106	33240.75
516.308	33824.42
516.51	34342.56
516.712	34801.3
516.914	35946.12
517.116	36439.68
517.318	37039.73
517.52	37715.56
517.722	38235.75
517.925	39290.45
518.127	40326.72
518.329	40635.97
518.531	41084.47
518.733	41948.71
518.935	42292.77
519.136	43191.83
519.338	43619.86
519.54	44408.33
519.742	44992
519.944	45585.91
520.146	46716.39
520.348	46706.15
520.55	47568.34
520.752	47879.63
520.954	49153.47
521.155	48786.88
521.357	50036.14
521.559	50001.33
521.761	50982.3
521.963	51197.34
522.164	51686.81
522.366	52217.23
522.568	52540.81
522.77	52940.16
522.971	53523.83
523.173	53353.85
523.375	54230.38
523.576	54068.59
523.778	54179.18
523.98	55147.87
524.181	55217.5
524.383	54818.15
524.584	55276.9
524.786	55670.11
524.988	55180.64
525.189	55623
525.391	56227.15
525.592	55684.44
525.794	55987.54
525.995	55792.98
526.197	55649.63
526.398	55371.1
526.6	55895.38
526.801	55448.92
527.003	55534.94
527.204	54844.77
527.406	55629.15
527.607	54863.21
527.808	55154.02
528.01	53972.34
528.211	53706.1
528.412	53892.47
528.614	53609.85
528.815	52880.77
529.016	53314.94
529.218	51897.75
529.419	51869.08
529.62	51606.94
529.822	51027.36
530.023	50931.11
530.224	50415.02
530.425	49954.22
530.626	48956.86
530.828	48405.96
531.029	49284.54
531.23	47879.63
531.431	47146.46
531.632	46605.8
531.833	46448.1
532.035	45614.58
532.236	45069.82
532.437	44877.31
532.638	43947.53
532.839	43744.78
533.04	43398.68
533.241	42239.53
533.442	42296.87
533.643	41090.62
533.844	41133.62
534.045	40853.05
534.246	39589.45
534.447	39425.62
534.648	38680.16
534.849	38749.79
535.05	37682.8
535.251	37668.46
535.451	36966.01
535.652	35980.93
535.853	36140.68
536.054	35514
536.255	35100.31
536.456	34111.14
536.657	34332.32
536.857	33509.04
537.058	32712.38
537.259	32571.07
537.46	32077.51
537.66	31878.85
537.861	31524.55
538.062	31049.42
538.263	30435.03
538.463	30144.22
538.664	29591.27
538.865	29452.01
539.065	29140.72
539.266	28645.11
539.466	28370.68
539.667	27801.35
539.868	27832.07
540.068	27168.52
540.269	27010.83
540.469	26812.18
540.67	26468.12
540.87	25958.17
541.071	25435.94
541.271	25585.44
541.472	25247.53
541.672	24831.79
541.873	24334.14
542.073	23875.39
542.274	23920.45
542.474	23785.28
542.675	23443.27
542.875	23410.5
543.075	22990.67
543.276	22478.68
543.476	22531.92
543.676	22040.41
543.877	21821.28
544.077	21731.17
544.277	21280.61
544.478	21452.64
544.678	21139.3
544.878	20658.03
545.078	20602.74
545.279	20146.04
545.479	19988.35
545.679	19799.93
545.879	19527.55
546.079	19042.18
546.28	19081.1
546.48	18642.83
546.68	18937.74
546.88	18466.7
547.08	18237.33
547.28	18014.1
547.48	17661.85
547.68	17547.17
547.88	17252.26
548.081	17291.17
548.281	16975.78
548.481	16357.3
548.681	16633.77
548.881	16127.92
549.081	16215.99
549.28	15634.36
549.48	15927.22
549.68	15468.48
549.88	15321.02
550.08	14960.58
550.28	14983.11
550.48	14772.17
550.68	14426.06
550.88	14079.96
551.08	13912.02
551.279	14006.23
551.479	13586.4
551.679	13539.29
551.879	13072.36
552.079	13246.43
552.278	12816.36
552.478	12888.04
552.678	12589.03
552.878	12427.25
553.077	12040.18
553.277	11708.41
553.477	11767.8
553.676	11614.2
553.876	11354.11
554.076	11110.4
554.275	10991.62
554.475	10551.31
554.674	10768.39
554.874	10440.72
555.074	10137.62
555.273	10240.01
555.473	10024.98
555.672	9781.27
555.872	9605.14
556.071	9461.79
556.271	9570.33
556.47	9281.57
556.67	8921.12
556.869	8935.46
557.068	8761.38
557.268	8687.65
557.467	8626.22
557.667	8255.53
557.866	8192.05
558.065	8048.69
558.265	7794.74
558.464	7829.56
558.663	7635
558.863	7479.35
559.062	7422.01
559.261	7231.55
559.461	7264.32
559.66	7098.43
559.859	6963.26
560.058	6690.88
560.258	6719.56
560.457	6504.52
560.656	6854.72
560.855	6436.94
561.054	6408.26
561.253	6193.23
561.453	6008.91
561.652	6213.71
561.851	6133.84
562.05	5877.84
562.249	5685.33
562.448	5754.96
562.647	5630.04
562.846	5552.21
563.045	5425.24
563.244	5449.82
563.443	5265.5
563.642	5161.05
563.841	5234.78
564.04	5128.28
564.239	5161.05
564.438	4941.92
564.637	4761.7
564.836	4651.11
565.035	4620.39
565.234	4573.28
565.432	4575.33
565.631	4694.12
565.83	4542.57
566.029	4268.14
566.228	4255.85
566.427	4235.37
566.625	4108.4
566.824	4153.45
567.023	4147.31
567.222	3801.2
567.42	3934.32
567.619	3928.17
567.818	3786.86
568.016	4061.29
568.215	3811.44
568.414	3784.82
568.612	3684.47
568.811	3477.62
569.01	3555.44
569.208	3483.77
569.407	3586.16
569.605	3387.51
569.804	3219.58
570.002	3250.3
570.201	3113.08
570.4	3242.11
570.598	3225.72
570.797	3033.21
570.995	2924.67
571.193	2943.1
571.392	2975.87
571.59	2912.38
571.789	2867.33
571.987	2889.85
572.186	2785.41
572.384	2769.02
572.582	2789.5
572.781	2652.29
572.979	2588.8
573.177	2590.85
573.376	2543.75
573.574	2572.42
573.772	2506.88
573.971	2341
574.169	2334.86
574.367	2302.09
574.565	2295.94
574.763	2226.31
574.962	2220.17
575.16	2119.82
575.358	2140.3
575.556	2046.09
575.754	1990.8
575.952	2140.3
576.151	2066.57
576.349	2173.07
576.547	1906.83
576.745	1966.22
576.943	1953.93
577.141	1800.34
577.339	1794.19
577.537	1865.87
577.735	1876.11
577.933	1833.1
578.131	1757.33
578.329	1720.46
578.527	1667.22
578.725	1597.59
578.923	1560.72
579.121	1745.04
579.319	1347.73
579.516	1511.57
579.714	1757.33
579.912	1484.95
580.11	1413.27
580.308	1456.28
580.506	1460.37
580.704	1323.16
580.901	1441.94
581.099	1499.28
581.297	1388.69
581.495	1296.53
581.692	1323.16
581.89	1403.03
582.088	1341.59
582.285	1286.3
582.483	1331.35
582.681	1218.71
582.878	1220.76
583.076	1173.66
583.274	1144.99
583.471	1288.34
583.669	1142.94
583.866	1071.26
584.064	987.29
584.262	1040.54
584.459	981.15
584.657	1157.27
584.854	1132.7
585.052	981.15
585.249	1069.21
585.447	1007.77
585.644	895.13
585.841	1050.78
586.039	989.34
586.236	1101.98
586.434	897.18
586.631	915.61
586.828	1042.59
587.026	868.51
587.223	848.03
587.42	858.27
587.618	911.52
587.815	985.24
588.012	866.46
588.21	925.85
588.407	899.23
588.604	905.37
588.801	770.21
588.999	802.97
589.196	860.32
589.393	774.3
589.59	895.13
589.787	755.87
589.984	860.32
590.182	745.63
590.379	700.58
590.576	811.17
590.773	719.01
590.97	819.36
591.167	788.64
591.364	768.16
591.561	708.77
591.758	854.17
591.955	786.59
592.152	729.25
592.349	770.21
592.546	645.28
592.743	645.28
592.94	651.42
593.137	751.78
593.334	727.2
593.531	745.63
593.727	721.06
593.924	710.82
594.121	702.62
594.318	731.3
594.515	737.44
594.712	903.32
594.908	856.22
595.105	651.42
595.302	747.68
595.499	839.84
595.696	950.43
595.892	784.54
596.089	1028.25
596.286	794.78
596.482	995.48
596.679	899.23
596.876	778.4
597.072	977.05
597.269	903.32
597.466	940.19
597.662	954.52
597.859	964.76
598.055	1015.96
598.252	1124.51
598.448	1085.59
598.645	1237.14
598.841	1239.19
599.038	1253.53
599.234	1349.78
599.431	1329.3
599.627	1310.87
599.824	1411.22
600.02	1521.81
600.217	1536.15
600.413	1575.06
600.609	1624.21
600.806	1857.68
601.002	1857.68
601.198	1829.01
601.395	2019.47
601.591	1962.12
601.787	1982.6
601.984	2193.55
602.18	2185.35
602.376	2193.55
602.572	2269.32
602.769	2427.01
602.965	2437.25
603.161	2676.87
603.357	2746.5
603.553	2883.71
603.75	2850.94
603.946	2881.66
604.142	3006.59
604.338	3264.63
604.534	3162.23
604.73	3348.6
604.926	3397.75
605.122	3610.74
605.318	3657.84
605.514	3788.91
605.71	3854.45
605.906	4059.24
606.102	4022.38
606.298	4440.17
606.494	4399.21
606.69	4671.59
606.886	4677.73
607.082	4640.87
607.278	4941.92
607.474	4903.01
607.67	5085.28
607.866	4982.88
608.062	5578.84
608.257	5554.26
608.453	5597.27
608.649	5781.59
608.845	5812.31
609.041	6156.36
609.236	6447.18
609.432	6553.67
609.628	6697.03
609.824	6912.07
610.019	6893.63
610.215	7098.43
610.411	7591.99
610.606	7766.07
610.802	7774.26
610.998	7974.96
611.193	8368.17
611.389	8314.92
611.584	8681.51
611.78	8808.48
611.976	8998.95
612.171	9615.38
612.367	9717.78
612.562	9840.66
612.758	10033.17
612.953	10225.68
613.149	10815.49
613.344	10776.58
613.539	11294.72
613.735	11644.92
613.93	11653.11
614.126	11952.12
614.321	12410.86
614.517	12865.51
614.712	13084.64
614.907	13223.9
615.103	13791.19
615.298	13909.97
615.493	14667.72
615.688	14784.46
615.884	15425.47
616.079	15564.73
616.274	15947.7
616.47	16160.69
616.665	16770.99
616.86	17186.72
617.055	17330.08
617.25	17774.49
617.445	18356.11
617.641	18794.38
617.836	19429.25
618.031	19476.35
618.226	20359.03
618.421	20754.29
618.616	21251.94
618.811	21626.72
619.006	22374.23
619.201	22650.71
619.396	23306.06
619.591	23582.53
619.786	24278.84
619.981	24471.35
620.176	25319.21
620.371	25677.6
620.566	26541.85
620.761	26435.35
620.956	27395.85
621.151	27793.15
621.346	28598.01
621.541	28704.5
621.735	29591.27
621.93	29898.47
622.125	30371.55
622.32	30688.98
622.515	31319.76
622.709	32014.02
622.904	32587.45
623.099	33253.04
623.294	33947.3
623.488	34076.32
623.683	34733.72
623.878	34473.63
624.072	35960.45
624.267	36712.06
624.462	37109.36
624.656	37400.18
624.851	38237.8
625.046	38493.79
625.24	39149.14
625.435	39179.86
625.629	39876.17
625.824	40306.24
626.018	41147.96
626.213	41403.95
626.407	42546.72
626.602	42137.13
626.796	43181.59
626.991	43056.67
627.185	43591.19
627.38	43714.06
627.574	44379.65
627.768	44283.4
627.963	44232.2
628.157	44150.28
628.352	44822.01
628.546	44119.56
628.74	45032.96
628.935	44475.91
629.129	44443.14
629.323	43685.39
629.517	44221.96
629.712	43724.3
629.906	43439.64
630.1	42292.77
630.294	42833.44
630.489	41928.23
630.683	41918
630.877	40607.3
631.071	39736.91
631.265	39491.15
631.459	38618.72
631.653	37793.39
631.848	37066.36
632.042	35757.71
632.236	35239.57
632.43	33986.21
632.624	33451.69
632.818	32319.17
633.012	31577.8
633.206	30260.96
633.4	29544.17
633.594	28288.76
633.788	27408.14
633.982	26611.48
634.176	25837.34
634.369	24579.89
634.563	23322.44
634.757	22712.14
634.951	21763.93
635.145	21108.58
635.339	20516.72
635.533	19580.8
635.726	18843.53
635.92	17743.77
636.114	17078.18
636.308	16447.41
636.501	15886.26
636.695	15249.35
636.889	14309.33
637.083	13846.49
637.276	13217.76
637.47	12986.34
637.664	12283.89
637.857	11919.35
638.051	11466.75
638.244	10901.51
638.438	10360.84
638.632	10115.09
638.825	9527.32
639.019	9263.13
639.212	8833.06
639.406	8525.86
639.599	8206.38
639.793	7819.32
639.986	7493.69
640.18	7372.86
640.373	7141.44
640.567	6684.74
640.76	6299.72
640.954	6160.46
641.147	5935.18
641.34	5709.91
641.534	5644.37
641.727	5214.3
641.92	5191.77
642.114	5036.13
642.307	4692.07
642.5	4626.53
642.694	4399.21
642.887	4362.34
643.08	4274.28
643.273	4051.05
643.467	3803.25
643.66	3612.79
643.853	3555.44
644.046	3491.96
644.239	3217.53
644.432	3010.68
644.626	2840.7
644.819	2846.85
645.012	2838.66
645.205	2701.44
645.398	2558.08
645.591	2494.6
645.784	2330.76
645.977	2107.53
646.17	2203.79
646.363	2070.67
646.556	2005.13
646.749	1939.6
646.942	1863.82
647.135	1833.1
647.328	1761.42
647.521	1732.75
647.714	1656.98
647.907	1609.87
648.099	1443.99
648.292	1525.91
648.485	1323.16
648.678	1241.24
648.871	1204.38
649.064	1241.24
649.256	1052.83
649.449	1138.84
649.642	1067.16
649.835	1030.3
650.027	946.33
650.22	1058.97
650.413	981.15
650.605	964.76
650.798	825.5
650.991	874.65
651.183	893.09
651.376	901.28
651.568	843.93
651.761	845.98
651.954	682.14
652.146	671.9
652.339	839.84
652.531	811.17
652.724	600.23
652.916	596.13
653.109	530.59
653.301	739.49
653.494	637.09
653.686	614.56
653.879	655.52
654.071	487.59
654.263	450.72
654.456	499.88
654.648	569.51
654.84	426.15
655.033	471.2
655.225	549.03
655.417	403.62
655.61	571.55
655.802	512.16
655.994	540.83
656.186	288.93
656.379	467.11
656.571	434.34
656.763	305.32
656.955	399.52
657.148	329.89
657.34	463.01
657.532	315.56
657.724	299.17
657.916	297.13
658.108	426.15
658.3	301.22
658.492	383.14
658.684	245.93
658.876	403.62
659.068	186.54
659.26	123.05
659.452	297.13
659.644	327.85
659.836	383.14
660.028	250.02
660.22	186.54
660.412	290.98
660.604	270.5
660.796	231.59
660.988	307.37
661.18	213.16
661.372	336.04
661.563	233.64
661.755	219.3
661.947	127.14
662.139	137.38
662.331	215.21
662.522	182.44
662.714	225.45
662.906	108.71
663.097	147.62
663.289	123.05
663.481	63.66
663.673	192.68
663.864	139.43
664.056	241.83
664.247	125.1
664.439	202.92
664.631	157.86
664.822	209.06
665.014	209.06
665.205	164.01
665.397	100.52
665.588	149.67
665.78	176.3
665.971	221.35
666.163	116.9
666.354	123.05
666.546	94.38
666.737	172.2
666.929	178.34
667.12	133.29
667.311	202.92
667.503	172.2
667.694	75.95
667.885	161.96
668.077	239.78
668.268	86.19
668.459	164.01
668.651	225.45
668.842	172.2
669.033	82.09
669.224	133.29
669.416	311.46
669.607	147.62
669.798	112.81
669.989	250.02
670.18	172.2
670.371	235.69
670.563	67.75
670.754	252.07
670.945	200.87
671.136	207.02
671.327	106.67
671.518	256.17
671.709	342.18
671.9	272.55
672.091	229.54
672.282	75.95
672.473	166.06
672.664	141.48
672.855	143.53
673.046	250.02
673.237	202.92
673.428	114.86
673.619	252.07
673.809	121
674	217.26
674.191	180.39
674.382	211.11
674.573	164.01
674.764	88.23
674.954	256.17
675.145	118.95
675.336	55.47
675.527	129.19
675.717	102.57
675.908	114.86
676.099	77.99
676.289	98.47
676.48	90.28
676.671	145.58
676.861	147.62
677.052	121
677.243	153.77
677.433	161.96
677.624	260.26
677.814	108.71
678.005	172.2
678.195	188.58
678.386	186.54
678.576	207.02
678.767	137.38
678.957	137.38
679.148	233.64
679.338	225.45
679.529	184.49
679.719	110.76
679.909	270.5
680.1	229.54
680.29	211.11
680.481	45.23
680.671	272.55
680.861	266.41
681.052	213.16
681.242	28.84
681.432	200.87
681.622	184.49
681.813	73.9
682.003	215.21
682.193	92.33
682.383	194.73
682.573	192.68
682.764	159.91
682.954	211.11
683.144	288.93
683.334	235.69
683.524	174.25
683.714	301.22
683.904	239.78
684.094	161.96
684.284	180.39
684.474	290.98
684.664	280.74
684.854	161.96
685.044	213.16
685.234	225.45
685.424	211.11
685.614	245.93
685.804	374.95
685.994	344.23
686.184	192.68
686.374	241.83
686.564	213.16
686.753	258.21
686.943	114.86
687.133	239.78
687.323	200.87
687.513	172.2
687.702	280.74
687.892	118.95
688.082	295.08
688.272	256.17
688.461	211.11
688.651	387.24
688.841	194.73
689.03	141.48
689.22	174.25
689.41	323.75
689.599	245.93
689.789	211.11
689.979	342.18
690.168	184.49
690.358	225.45
690.547	161.96
690.737	305.32
690.926	241.83
691.116	172.2
691.305	299.17
691.495	231.59
691.684	229.54
691.874	192.68
692.063	168.1
692.252	282.79
692.442	260.26
692.631	235.69
692.82	196.78
693.01	252.07
693.199	139.43
693.388	243.88
693.578	274.6
693.767	229.54
693.956	256.17
694.146	215.21
694.335	200.87
694.524	184.49
694.713	262.31
694.902	196.78
695.092	231.59
695.281	311.46
695.47	182.44
695.659	71.85
695.848	207.02
696.037	161.96
696.226	260.26
696.415	200.87
696.604	348.33
696.793	247.97
696.982	241.83
697.171	327.85
697.36	147.62
697.549	215.21
697.738	176.3
697.927	170.15
698.116	172.2
698.305	290.98
698.494	211.11
698.683	149.67
698.872	327.85
699.061	204.97
699.25	192.68
699.438	272.55
699.627	209.06
699.816	317.61
700.005	123.05
700.193	209.06
700.382	274.6
700.571	215.21
700.76	338.09
700.948	250.02
701.137	278.69
701.326	282.79
701.514	110.76
701.703	247.97
701.892	215.21
702.08	374.95
702.269	184.49
702.457	250.02
702.646	161.96
702.834	194.73
703.023	215.21
703.212	323.75
703.4	233.64
703.589	184.49
703.777	143.53
703.965	121
704.154	114.86
704.342	131.24
704.531	123.05
704.719	151.72
704.907	250.02
705.096	135.34
705.284	96.43
705.472	227.5
705.661	250.02
705.849	309.41
706.037	303.27
706.226	192.68
706.414	233.64
706.602	147.62
706.79	190.63
706.979	184.49
707.167	196.78
707.355	80.04
707.543	243.88
707.731	231.59
707.919	172.2
708.107	202.92
708.296	247.97
708.484	82.09
708.672	184.49
708.86	151.72
709.048	231.59
709.236	129.19
709.424	196.78
709.612	250.02
709.8	155.82
709.988	237.74
710.176	276.65
710.364	262.31
710.551	180.39
710.739	237.74
710.927	202.92
711.115	274.6
711.303	229.54
711.491	315.56
711.679	131.24
711.866	233.64
712.054	155.82
712.242	284.84
712.43	245.93
712.617	241.83
712.805	225.45
712.993	180.39
713.181	135.34
713.368	293.03
713.556	155.82
713.744	131.24
713.931	358.57
714.119	233.64
714.306	200.87
714.494	170.15
714.682	329.89
714.869	155.82
715.057	213.16
715.244	112.81
715.432	213.16
715.619	221.35
715.807	168.1
715.994	127.14
716.182	121
716.369	157.86
716.556	266.41
716.744	123.05
716.931	94.38
717.119	186.54
717.306	217.26
717.493	200.87
717.681	235.69
717.868	96.43
718.055	209.06
718.242	202.92
718.43	204.97
718.617	368.81
718.804	262.31
718.991	231.59
719.179	252.07
719.366	258.21
719.553	174.25
719.74	252.07
719.927	172.2
720.114	192.68
720.301	159.91
720.488	184.49
720.676	172.2
720.863	250.02
721.05	323.75
721.237	168.1
721.424	336.04
721.611	299.17
721.798	143.53
721.985	159.91
722.172	164.01
722.358	184.49
722.545	313.51
722.732	268.45
722.919	458.92
723.106	268.45
723.293	227.5
723.48	215.21
723.667	252.07
723.853	344.23
724.04	252.07
724.227	297.13
724.414	204.97
724.6	319.65
724.787	364.71
724.974	370.85
725.161	299.17
725.347	188.58
725.534	227.5
725.72	284.84
725.907	350.37
726.094	295.08
726.28	145.58
726.467	284.84
726.653	174.25
726.84	331.94
727.027	407.72
727.213	192.68
727.4	307.37
727.586	360.61
727.773	286.89
727.959	254.12
728.145	215.21
728.332	225.45
728.518	297.13
728.705	288.93
728.891	274.6
729.077	182.44
729.264	196.78
729.45	227.5
729.636	266.41
729.823	245.93
730.009	290.98
730.195	270.5
730.382	305.32
730.568	207.02
730.754	200.87
730.94	198.82
731.126	293.03
731.313	336.04
731.499	190.63
731.685	299.17
731.871	204.97
732.057	286.89
732.243	299.17
732.429	301.22
732.615	286.89
732.801	346.28
732.987	211.11
733.173	260.26
733.359	295.08
733.545	280.74
733.731	231.59
733.917	338.09
734.103	237.74
734.289	219.3
734.475	260.26
734.661	350.37
734.847	213.16
735.033	266.41
735.219	352.42
735.404	215.21
735.59	172.2
735.776	274.6
735.962	252.07
736.148	362.66
736.333	368.81
736.519	184.49
736.705	217.26
736.89	327.85
737.076	284.84
737.262	207.02
737.447	209.06
737.633	186.54
737.819	313.51
738.004	266.41
738.19	278.69
738.375	200.87
738.561	403.62
738.747	254.12
738.932	235.69
739.118	383.14
739.303	309.41
739.489	336.04
739.674	260.26
739.859	219.3
740.045	297.13
740.23	299.17
740.416	159.91
740.601	241.83
740.786	258.21
740.972	182.44
741.157	268.45
741.342	182.44
741.528	227.5
741.713	311.46
741.898	260.26
742.084	297.13
742.269	250.02
742.454	215.21
742.639	254.12
742.824	258.21
743.01	270.5
743.195	323.75
743.38	235.69
743.565	225.45
743.75	233.64
743.935	325.8
744.12	301.22
744.305	174.25
744.49	207.02
744.675	235.69
744.86	264.36
745.045	323.75
745.23	147.62
745.415	262.31
745.6	321.7
745.785	176.3
745.97	374.95
746.155	280.74
746.34	256.17
746.525	264.36
746.71	360.61
746.895	194.73
747.079	164.01
747.264	188.58
747.449	301.22
747.634	350.37
747.819	192.68
748.003	288.93
748.188	186.54
748.373	260.26
748.557	268.45
748.742	262.31
748.927	141.48
749.111	217.26
749.296	231.59
749.481	260.26
749.665	219.3
749.85	260.26
750.034	233.64
750.219	237.74
750.404	207.02
750.588	221.35
750.773	180.39
750.957	229.54
751.141	155.82
751.326	319.65
751.51	149.67
751.695	127.14
751.879	194.73
752.064	303.27
752.248	209.06
752.432	297.13
752.617	272.55
752.801	256.17
752.985	235.69
753.17	329.89
753.354	159.91
753.538	260.26
753.722	168.1
753.907	190.63
754.091	125.1
754.275	368.81
754.459	106.67
754.643	129.19
754.828	182.44
755.012	229.54
755.196	102.57
755.38	180.39
755.564	90.28
755.748	155.82
755.932	155.82
756.116	237.74
756.3	202.92
756.484	141.48
756.668	143.53
756.852	125.1
757.036	135.34
757.22	151.72
757.404	131.24
757.588	143.53
757.772	190.63
757.956	153.77
758.14	221.35
758.323	141.48
758.507	178.34
758.691	98.47
758.875	192.68
759.059	188.58
759.242	149.67
759.426	114.86
759.61	155.82
759.794	139.43
759.977	188.58
760.161	354.47
760.345	233.64
760.528	274.6
760.712	131.24
760.895	151.72
761.079	123.05
761.263	104.62
761.446	141.48
761.63	104.62
761.813	180.39
761.997	55.47
762.18	106.67
762.364	168.1
762.547	104.62
762.731	55.47
762.914	49.32
763.098	137.38
763.281	24.75
763.464	104.62
763.648	116.9
763.831	90.28
764.015	75.95
764.198	186.54
764.381	77.99
764.564	172.2
764.748	65.71
764.931	161.96
765.114	106.67
765.297	139.43
765.481	47.27
765.664	110.76
765.847	75.95
766.03	180.39
766.213	59.56
766.397	118.95
766.58	77.99
766.763	100.52
766.946	2.22
767.129	86.19
767.312	10.41
767.495	100.52
767.678	41.13
767.861	135.34
768.044	190.63
768.227	55.47
768.41	82.09
768.593	49.32
768.776	67.75
768.959	112.81
769.142	159.91
769.324	164.01
769.507	102.57
769.69	-10.07
769.873	55.47
770.056	256.17
770.239	77.99
770.421	98.47
770.604	182.44
770.787	155.82
770.97	155.82
771.152	133.29
771.335	129.19
771.518	104.62
771.7	182.44
771.883	188.58
772.066	49.32
772.248	149.67
772.431	153.77
772.613	131.24
772.796	10.41
772.978	129.19
773.161	190.63
773.343	51.37
773.526	-3.93
773.708	-20.31
773.891	-12.12
774.073	-3.93
774.256	32.94
774.438	207.02
774.621	26.79
774.803	147.62
774.985	43.18
775.168	104.62
775.35	77.99
775.532	161.96
775.715	-10.07
775.897	123.05
776.079	59.56
776.261	127.14
776.444	125.1
776.626	59.56
776.808	100.52
776.99	8.36
777.173	57.51
777.355	53.42
777.537	127.14
777.719	-44.88
777.901	51.37
778.083	10.41
778.265	-8.02
778.447	129.19
778.629	-24.4
778.811	153.77
778.993	80.04
779.175	176.3
779.357	57.51
779.539	16.55
779.721	133.29
779.903	114.86
780.085	24.75
780.267	65.71
780.449	121
780.631	155.82
780.812	133.29
780.994	98.47
781.176	88.23
781.358	45.23
781.54	96.43
781.721	137.38
781.903	98.47
782.085	-30.55
782.267	145.58
782.448	8.36
782.63	41.13
782.812	30.89
782.993	147.62
783.175	131.24
783.357	63.66
783.538	30.89
783.72	49.32
783.901	51.37
784.083	77.99
784.264	45.23
784.446	0.17
784.627	-12.12
784.809	77.99
784.99	30.89
785.172	69.8
785.353	30.89
785.535	49.32
785.716	-10.07
785.897	-38.74
786.079	65.71
786.26	80.04
786.441	61.61
786.623	-89.94
786.804	2.22
786.985	4.27
787.167	26.79
787.348	-18.26
787.529	98.47
787.71	184.49
787.891	141.48
788.073	-71.51
788.254	-36.69
788.435	172.2
788.616	67.75
788.797	-51.03
788.978	63.66
789.159	39.08
789.34	71.85
789.522	-24.4
789.703	18.6
789.884	71.85
790.065	61.61
790.246	151.72
790.427	12.46
790.607	125.1
790.788	204.97
790.969	43.18
791.15	47.27
791.331	-42.84
791.512	-69.46
791.693	65.71
791.874	61.61
792.054	145.58
792.235	129.19
792.416	-61.27
792.597	22.7
792.778	59.56
792.958	73.9
793.139	125.1
793.32	67.75
793.5	-48.98
793.681	127.14
793.862	-1.88
794.042	22.7
794.223	-1.88
794.404	-30.55
794.584	-12.12
794.765	47.27
794.945	65.71
795.126	24.75
795.306	77.99
795.487	14.51
795.667	-20.31
795.848	84.14
796.028	86.19
796.209	59.56
796.389	143.53
796.57	49.32
796.75	-14.17
796.93	104.62
797.111	-16.21
797.291	32.94
797.471	143.53
797.652	20.65
797.832	-63.32
798.012	67.75
798.192	-42.84
798.373	-32.6
798.553	8.36
798.733	8.36
798.913	24.75
799.093	-16.21
799.274	73.9
799.454	104.62
799.634	108.71
799.814	71.85
799.994	4.27
800.174	57.51
800.354	-1.88
800.534	-108.37
800.714	63.66
800.894	-40.79
801.074	-110.42
801.254	30.89
801.434	209.06
801.614	-20.31
801.794	-118.61
801.974	1829.01
802.154	41.13
802.334	69.8
802.514	-126.8
802.693	-44.88
802.873	6.31
803.053	73.9
803.233	-3.93
803.413	24.75
803.592	20.65
803.772	30.89
803.952	18.6
804.131	12.46
804.311	63.66
804.491	168.1
804.67	-14.17
804.85	-40.79
805.03	51.37
805.209	112.81
805.389	16.55
805.568	16.55
805.748	-40.79
805.928	90.28
806.107	151.72
806.287	12.46
806.466	41.13
806.646	22.7
806.825	26.79
807.004	6.31
807.184	12.46
807.363	53.42
807.543	6.31
807.722	-8.02
807.901	86.19
808.081	71.85
808.26	-75.6
808.439	43.18
808.619	-3.93
808.798	30.89
808.977	47.27
809.156	39.08
809.336	108.71
809.515	121
809.694	41.13
809.873	-71.51
810.052	61.61
810.231	106.67
810.411	16.55
810.59	106.67
810.769	88.23
810.948	47.27
811.127	-98.13
811.306	26.79
811.485	20.65
811.664	176.3
811.843	37.03
812.022	26.79
812.201	-73.56
812.38	-24.4
812.559	-55.12
812.737	57.51
812.916	-38.74
813.095	-114.52
813.274	26.79
813.453	-8.02
813.632	14.51
813.811	47.27
813.989	-57.17
814.168	32.94
814.347	-38.74
814.526	37.03
814.704	86.19
814.883	86.19
815.062	-51.03
815.24	34.99
815.419	-73.56
815.598	96.43
815.776	-157.52
815.955	0.17
816.133	-69.46
816.312	32.94
816.49	8.36
816.669	-22.36
816.847	22.7
817.026	49.32
817.204	26.79
817.383	-30.55
817.561	-20.31
817.74	47.27
817.918	18.6
818.097	-61.27
818.275	-5.97
818.453	37.03
818.632	8.36
818.81	-67.41
818.988	-71.51
819.167	-106.32
819.345	4.27
819.523	-89.94
819.701	55.47
819.879	10.41
820.058	49.32
820.236	-8.02
820.414	10.41
820.592	-36.69
820.77	-3.93
820.948	-32.6
821.127	34.99
821.305	32.94
821.483	-28.5
821.661	104.62
821.839	41.13
822.017	-71.51
822.195	-38.74
822.373	112.81
822.551	24.75
822.729	90.28
822.907	-34.64
823.085	6.31
823.262	-1.88
823.44	-26.45
823.618	-26.45
823.796	10.41
823.974	-30.55
824.152	0.17
824.329	-28.5
824.507	8.36
824.685	18.6
824.863	-12.12
825.04	61.61
825.218	57.51
825.396	90.28
825.574	55.47
825.751	41.13
825.929	45.23
826.107	-1.88
826.284	59.56
826.462	24.75
826.639	-28.5
826.817	-120.66
826.994	37.03
827.172	-51.03
827.349	133.29
827.527	73.9
827.704	139.43
827.882	51.37
828.059	-14.17
828.237	-75.6
828.414	-8.02
828.591	-139.09
828.769	39.08
828.946	-65.36
829.124	157.86
829.301	75.95
829.478	26.79
829.655	39.08
829.833	2.22
830.01	-57.17
830.187	24.75
830.364	30.89
830.542	82.09
830.719	102.57
830.896	20.65
831.073	20.65
831.25	65.71
831.427	8.36
831.604	-3.93
831.782	43.18
831.959	43.18
832.136	6.31
832.313	71.85
832.49	-32.6
832.667	-42.84
832.844	-10.07
833.021	116.9
833.198	18.6
833.374	6.31
833.551	41.13
833.728	-12.12
833.905	71.85
834.082	-155.47
834.259	-18.26
834.436	202.92
834.612	-44.88
834.789	102.57
834.966	2.22
835.143	43.18
835.319	-67.41
835.496	57.51
835.673	-16.21
835.85	80.04
836.026	77.99
836.203	110.76
836.38	-63.32
836.556	16.55
836.733	-53.08
836.909	100.52
837.086	-8.02
837.262	-63.32
837.439	20.65
837.616	-40.79
837.792	41.13
837.968	57.51
838.145	-114.52
838.321	-65.36
838.498	49.32
838.674	75.95
838.851	-22.36
839.027	-12.12
839.203	34.99
839.38	65.71
839.556	2.22
839.732	88.23
839.909	-18.26
840.085	108.71
840.261	-14.17
840.437	-67.41
840.614	-100.18
840.79	139.43
840.966	82.09
841.142	-14.17
841.318	-59.22
841.494	61.61
841.671	18.6
841.847	-34.64
842.023	10.41
842.199	34.99
842.375	84.14
842.551	-91.99
842.727	-36.69
842.903	135.34
843.079	-122.71
843.255	180.39
843.431	10.41
843.607	37.03
843.783	-122.71
843.959	45.23
844.134	-67.41
844.31	96.43
844.486	-38.74
844.662	-18.26
844.838	8.36
845.013	86.19
845.189	108.71
845.365	63.66
845.541	8.36
845.716	18.6
845.892	82.09
846.068	-75.6
846.244	-55.12
846.419	-1.88
846.595	-46.93
846.77	-81.75
846.946	73.9
847.122	-14.17
847.297	-30.55
847.473	77.99
847.648	-57.17
847.824	-8.02
847.999	-110.42
848.175	34.99
848.35	94.38
848.526	84.14
848.701	90.28
848.876	47.27
849.052	63.66
849.227	-20.31
849.403	-16.21
849.578	-8.02
849.753	98.47
849.929	34.99
850.104	-48.98
850.279	55.47
850.454	73.9
850.63	102.57
850.805	12.46
850.98	4.27
851.155	-10.07
851.33	4.27
851.505	-40.79
851.681	131.24
851.856	-28.5
852.031	16.55
852.206	12.46
852.381	-71.51
852.556	53.42
852.731	49.32
852.906	26.79
853.081	39.08
853.256	37.03
853.431	22.7
853.606	-18.26
853.781	-94.04
853.956	-85.84
854.131	82.09
854.305	-65.36
854.48	-16.21
854.655	12.46
854.83	-30.55
855.005	-38.74
855.18	24.75
855.354	-42.84
855.529	4.27
855.704	0.17
855.879	77.99
856.053	-87.89
856.228	-24.4
856.403	-71.51
856.577	20.65
856.752	-175.95
856.926	4.27
857.101	8.36
857.276	-91.99
857.45	65.71
857.625	110.76
857.799	41.13
857.974	14.51
858.148	-120.66
858.323	102.57
858.497	-44.88
858.672	-8.02
858.846	4.27
859.02	59.56
859.195	-59.22
859.369	-79.7
859.543	-28.5
859.718	73.9
859.892	86.19
860.066	-3.93
860.241	84.14
860.415	-36.69
860.589	14.51
860.763	-38.74
860.938	-20.31
861.112	88.23
861.286	-24.4
861.46	-8.02
861.634	-38.74
861.808	30.89
861.982	-85.84
862.157	-96.08
862.331	34.99
862.505	-120.66
862.679	-67.41
862.853	-91.99
863.027	-44.88
863.201	145.58
863.375	-24.4
863.549	73.9
863.722	55.47
863.896	65.71
864.07	-51.03
864.244	65.71
864.418	16.55
864.592	65.71
864.766	45.23
864.939	41.13
865.113	-16.21
865.287	133.29
865.461	-71.51
865.634	-20.31
865.808	53.42
865.982	49.32
866.156	-59.22
866.329	-83.8
866.503	24.75
866.676	30.89
866.85	75.95
867.024	-5.97
867.197	77.99
867.371	22.7
867.544	37.03
867.718	-130.9
867.891	102.57
868.065	-147.28
868.238	41.13
868.412	71.85
868.585	-30.55
868.759	-53.08
868.932	49.32
869.105	-75.6
869.279	53.42
869.452	-30.55
869.625	-3.93
869.799	4.27
869.972	-96.08
870.145	10.41
870.319	86.19
870.492	-36.69
870.665	-36.69
870.838	-10.07
871.011	-65.36
871.185	-20.31
871.358	-3.93
871.531	69.8
871.704	-63.32
871.877	32.94
872.05	18.6
872.223	-69.46
872.396	110.76
872.569	133.29
872.742	-104.28
872.915	-51.03
873.088	-53.08
873.261	-100.18
873.434	77.99
873.607	-59.22
873.78	63.66
873.953	-38.74
874.126	-46.93
874.299	-30.55
874.471	-36.69
874.644	80.04
874.817	4.27
874.99	178.34
875.163	-26.45
875.335	-1.88
875.508	34.99
875.681	86.19
875.853	-63.32
876.026	24.75
876.199	-3.93
876.371	47.27
876.544	88.23
876.717	-40.79
876.889	8.36
877.062	125.1
877.234	-5.97
877.407	-59.22
877.579	45.23
877.752	43.18
877.924	20.65
878.097	32.94
878.269	10.41
878.442	2.22
878.614	41.13
878.786	8.36
878.959	4.27
879.131	8.36
879.303	-46.93
879.476	-14.17
879.648	28.84
879.82	61.61
879.993	-48.98
880.165	-48.98
880.337	-100.18
880.509	32.94
880.681	-188.24
880.854	-55.12
881.026	61.61
881.198	174.25
881.37	-3.93
881.542	71.85
881.714	-8.02
881.886	-1.88
882.058	43.18
882.23	-18.26
882.402	8.36
882.574	12.46
882.746	98.47
882.918	88.23
883.09	28.84
883.262	-38.74
883.434	24.75
883.606	-128.85
883.778	-20.31
883.95	92.33
884.122	-30.55
884.293	155.82
884.465	86.19
884.637	22.7
884.809	-22.36
884.98	67.75
885.152	2.22
885.324	133.29
885.496	-100.18
885.667	-30.55
885.839	12.46
886.011	94.38
886.182	-20.31
886.354	22.7
886.525	67.75
886.697	22.7
886.869	-36.69
887.04	37.03
887.212	96.43
887.383	176.3
887.555	-12.12
887.726	-10.07
887.897	-44.88
888.069	37.03
888.24	84.14
888.412	10.41
888.583	26.79
888.754	28.84
888.926	-171.86
889.097	-38.74
889.268	-94.04
889.44	32.94
889.611	-151.38
889.782	14.51
889.953	-85.84
890.125	106.67
890.296	-28.5
890.467	-40.79
890.638	-55.12
890.809	-114.52
890.98	-100.18
891.151	57.51
891.323	135.34
891.494	41.13
891.665	39.08
891.836	4.27
892.007	32.94
892.178	71.85
892.349	12.46
892.52	14.51
892.691	-44.88
892.862	30.89
893.032	-114.52
893.203	-12.12
893.374	24.75
893.545	61.61
893.716	-16.21
893.887	59.56
894.057	-69.46
894.228	4.27
894.399	-69.46
894.57	80.04
894.74	82.09
894.911	18.6
895.082	-3.93
895.253	0.17
895.423	12.46
895.594	51.37
895.764	37.03
895.935	-98.13
896.106	24.75
896.276	6.31
896.447	49.32
896.617	-36.69
896.788	-57.17
896.958	-24.4
897.129	-5.97
897.299	-46.93
897.47	104.62
897.64	14.51
897.81	30.89
897.981	-44.88
898.151	-98.13
898.322	28.84
898.492	73.9
898.662	-61.27
898.832	-55.12
899.003	-36.69
899.173	18.6
899.343	-46.93
899.513	-38.74
