Data from USB4F104151__186__11-05-12-833.txt Node

Date: Wed Feb 26 11:05:12 EST 2025
User: louis
Spectrometer: USB4F10415
Trigger mode: 4
Integration Time (sec): 1.000000E-1
Scans to average: 1
Electric dark correction enabled: true
Nonlinearity correction enabled: false
Boxcar width: 0
XAxis mode: Wavelengths
Number of Pixels in Spectrum: 3648
>>>>>Begin Spectral Data<<<<<
178.204	-384.16
178.424	-384.16
178.644	-384.16
178.864	-404.64
179.084	-365.73
179.304	-7.34
179.524	-48.3
179.744	21.33
179.964	60.24
180.184	35.67
180.404	35.67
180.624	-42.15
180.844	39.76
181.064	-83.11
181.283	-9.39
181.503	-31.91
181.723	29.52
181.943	-85.16
182.163	207.7
182.383	66.39
182.602	-46.25
182.822	113.49
183.042	136.02
183.262	11.09
183.482	-52.39
183.701	-9.39
183.921	105.3
184.141	15.19
184.361	115.54
184.58	80.72
184.8	109.4
185.02	-70.83
185.239	93.01
185.459	123.73
185.679	117.59
185.898	7
186.118	78.68
186.338	52.05
186.557	162.64
186.777	-25.77
186.997	29.52
187.216	68.44
187.436	199.51
187.655	109.4
187.875	52.05
188.095	23.38
188.314	170.83
188.534	183.12
188.753	-27.82
188.973	88.92
189.192	140.12
189.412	33.62
189.631	13.14
189.851	90.96
190.07	136.02
190.29	-11.43
190.509	15.19
190.729	-19.63
190.948	90.96
191.168	148.31
191.387	62.29
191.607	-3.24
191.826	88.92
192.045	72.53
192.265	-5.29
192.484	50
192.704	4.95
192.923	-68.78
193.142	203.6
193.362	56.15
193.581	142.16
193.8	33.62
194.02	172.88
194.239	-23.72
194.458	97.11
194.678	17.24
194.897	2.9
195.116	78.68
195.335	76.63
195.555	97.11
195.774	11.09
195.993	27.48
196.212	56.15
196.432	31.57
196.651	45.91
196.87	-31.91
197.089	203.6
197.308	17.24
197.528	99.16
197.747	31.57
197.966	11.09
198.185	115.54
198.404	-13.48
198.623	166.74
198.842	60.24
199.062	86.87
199.281	62.29
199.5	52.05
199.719	86.87
199.938	111.44
200.157	50
200.376	97.11
200.595	156.5
200.814	37.72
201.033	-64.68
201.252	109.4
201.471	103.25
201.69	58.2
201.909	-7.34
202.128	119.64
202.347	60.24
202.566	-23.72
202.785	-21.67
203.004	7
203.223	328.53
203.442	39.76
203.661	-42.15
203.879	74.58
204.098	117.59
204.317	-42.15
204.536	66.39
204.755	13.14
204.974	95.06
205.193	23.38
205.411	158.55
205.63	150.36
205.849	70.48
206.068	29.52
206.287	-38.06
206.505	197.46
206.724	47.96
206.943	-3.24
207.162	11.09
207.381	84.82
207.599	37.72
207.818	93.01
208.037	-27.82
208.255	115.54
208.474	60.24
208.693	35.67
208.911	-44.2
209.13	52.05
209.349	39.76
209.567	64.34
209.786	90.96
210.005	41.81
210.223	17.24
210.442	-109.74
210.661	9.05
210.879	84.82
211.098	58.2
211.316	11.09
211.535	101.2
211.753	101.2
211.972	74.58
212.191	29.52
212.409	50
212.628	-9.39
212.846	-5.29
213.065	105.3
213.283	109.4
213.502	-21.67
213.72	72.53
213.938	58.2
214.157	-21.67
214.375	103.25
214.594	21.33
214.812	11.09
215.031	27.48
215.249	-19.63
215.467	66.39
215.686	88.92
215.904	35.67
216.122	-5.29
216.341	195.41
216.559	66.39
216.778	82.77
216.996	136.02
217.214	82.77
217.432	17.24
217.651	-107.69
217.869	23.38
218.087	0.85
218.306	-7.34
218.524	54.1
218.742	41.81
218.96	123.73
219.179	4.95
219.397	72.53
219.615	213.84
219.833	121.68
220.051	37.72
220.27	103.25
220.488	185.17
220.706	21.33
220.924	9.05
221.142	-46.25
221.36	105.3
221.578	56.15
221.796	66.39
222.015	0.85
222.233	-11.43
222.451	207.7
222.669	-33.96
222.887	33.62
223.105	-62.63
223.323	2.9
223.541	11.09
223.759	29.52
223.977	56.15
224.195	203.6
224.413	82.77
224.631	103.25
224.849	56.15
225.067	97.11
225.285	-54.44
225.503	-21.67
225.721	-183.46
225.939	93.01
226.157	11.09
226.375	234.32
226.592	-9.39
226.81	-5.29
227.028	113.49
227.246	88.92
227.464	45.91
227.682	90.96
227.9	33.62
228.117	142.16
228.335	64.34
228.553	52.05
228.771	21.33
228.989	105.3
229.206	99.16
229.424	0.85
229.642	27.48
229.86	13.14
230.077	168.79
230.295	23.38
230.513	66.39
230.731	66.39
230.948	115.54
231.166	123.73
231.384	35.67
231.601	35.67
231.819	179.03
232.037	-46.25
232.254	39.76
232.472	-9.39
232.689	4.95
232.907	4.95
233.125	9.05
233.342	-25.77
233.56	88.92
233.777	-9.39
233.995	-50.35
234.213	66.39
234.43	64.34
234.648	58.2
234.865	15.19
235.083	97.11
235.3	70.48
235.518	64.34
235.735	142.16
235.953	50
236.17	58.2
236.388	-15.53
236.605	31.57
236.822	82.77
237.04	101.2
237.257	54.1
237.475	-54.44
237.692	95.06
237.909	88.92
238.127	15.19
238.344	21.33
238.562	35.67
238.779	4.95
238.996	-89.26
239.214	7
239.431	66.39
239.648	17.24
239.865	82.77
240.083	11.09
240.3	82.77
240.517	25.43
240.735	101.2
240.952	236.37
241.169	68.44
241.386	93.01
241.603	39.76
241.821	-21.67
242.038	45.91
242.255	168.79
242.472	-54.44
242.689	68.44
242.907	35.67
243.124	90.96
243.341	-11.43
243.558	-9.39
243.775	-7.34
243.992	-83.11
244.209	86.87
244.426	166.74
244.643	115.54
244.86	74.58
245.078	41.81
245.295	21.33
245.512	56.15
245.729	2.9
245.946	54.1
246.163	133.97
246.38	-48.3
246.597	-42.15
246.814	54.1
247.031	7
247.248	0.85
247.464	82.77
247.681	45.91
247.898	60.24
248.115	47.96
248.332	-21.67
248.549	148.31
248.766	199.51
248.983	47.96
249.2	-1.19
249.417	37.72
249.633	7
249.85	37.72
250.067	60.24
250.284	21.33
250.501	56.15
250.717	101.2
250.934	-48.3
251.151	33.62
251.368	60.24
251.585	82.77
251.801	54.1
252.018	-56.49
252.235	90.96
252.451	-19.63
252.668	74.58
252.885	84.82
253.102	70.48
253.318	13.14
253.535	-9.39
253.752	-23.72
253.968	15.19
254.185	-81.07
254.401	41.81
254.618	88.92
254.835	-17.58
255.051	138.07
255.268	64.34
255.484	2.9
255.701	50
255.917	-3.24
256.134	-15.53
256.351	13.14
256.567	0.85
256.784	13.14
257	-113.83
257.217	41.81
257.433	86.87
257.65	93.01
257.866	31.57
258.082	-11.43
258.299	7
258.515	82.77
258.732	19.29
258.948	-44.2
259.165	7
259.381	-25.77
259.597	84.82
259.814	62.29
260.03	54.1
260.246	-29.87
260.463	174.93
260.679	166.74
260.895	35.67
261.112	-15.53
261.328	37.72
261.544	70.48
261.761	60.24
261.977	-36.01
262.193	-91.31
262.409	54.1
262.626	15.19
262.842	109.4
263.058	-21.67
263.274	158.55
263.49	58.2
263.707	136.02
263.923	90.96
264.139	-91.31
264.355	68.44
264.571	117.59
264.787	95.06
265.004	76.63
265.22	64.34
265.436	-79.02
265.652	74.58
265.868	56.15
266.084	-83.11
266.3	-5.29
266.516	-44.2
266.732	76.63
266.948	119.64
267.164	-25.77
267.38	11.09
267.596	50
267.812	238.42
268.028	80.72
268.244	43.86
268.46	97.11
268.676	-50.35
268.892	43.86
269.108	-3.24
269.324	-1.19
269.54	-46.25
269.756	72.53
269.972	-21.67
270.188	60.24
270.403	-9.39
270.619	58.2
270.835	41.81
271.051	41.81
271.267	78.68
271.483	4.95
271.698	133.97
271.914	88.92
272.13	15.19
272.346	21.33
272.562	15.19
272.777	82.77
272.993	41.81
273.209	-72.87
273.425	-3.24
273.64	-48.3
273.856	111.44
274.072	-70.83
274.287	0.85
274.503	103.25
274.719	33.62
274.934	-7.34
275.15	-44.2
275.366	-38.06
275.581	-79.02
275.797	2.9
276.012	103.25
276.228	-17.58
276.444	66.39
276.659	162.64
276.875	19.29
277.09	13.14
277.306	15.19
277.521	41.81
277.737	58.2
277.952	82.77
278.168	78.68
278.383	4.95
278.599	70.48
278.814	86.87
279.03	-3.24
279.245	131.92
279.461	68.44
279.676	84.82
279.892	-87.21
280.107	-56.49
280.322	17.24
280.538	60.24
280.753	-23.72
280.969	41.81
281.184	19.29
281.399	172.88
281.615	-29.87
281.83	25.43
282.045	-68.78
282.26	-27.82
282.476	47.96
282.691	111.44
282.906	27.48
283.122	60.24
283.337	-11.43
283.552	58.2
283.767	-9.39
283.983	95.06
284.198	-3.24
284.413	82.77
284.628	-17.58
284.843	-5.29
285.058	43.86
285.274	25.43
285.489	-15.53
285.704	109.4
285.919	-9.39
286.134	68.44
286.349	27.48
286.564	2.9
286.779	119.64
286.995	60.24
287.21	-25.77
287.425	119.64
287.64	11.09
287.855	39.76
288.07	-62.63
288.285	109.4
288.5	109.4
288.715	101.2
288.93	43.86
289.145	11.09
289.36	90.96
289.575	-21.67
289.79	187.22
290.004	-1.19
290.219	215.89
290.434	-5.29
290.649	0.85
290.864	-27.82
291.079	88.92
291.294	33.62
291.509	23.38
291.724	33.62
291.938	72.53
292.153	27.48
292.368	-31.91
292.583	39.76
292.798	162.64
293.012	-21.67
293.227	23.38
293.442	74.58
293.657	52.05
293.871	228.18
294.086	43.86
294.301	136.02
294.516	50
294.73	105.3
294.945	-56.49
295.16	52.05
295.374	113.49
295.589	119.64
295.804	-36.01
296.018	52.05
296.233	78.68
296.447	101.2
296.662	-25.77
296.877	160.59
297.091	123.73
297.306	-27.82
297.52	-52.39
297.735	107.35
297.949	58.2
298.164	-19.63
298.378	31.57
298.593	-19.63
298.807	-48.3
299.022	21.33
299.236	195.41
299.451	-36.01
299.665	31.57
299.88	-1.19
300.094	58.2
300.309	-11.43
300.523	13.14
300.737	54.1
300.952	27.48
301.166	101.2
301.381	7
301.595	29.52
301.809	25.43
302.024	-36.01
302.238	-62.63
302.452	119.64
302.667	54.1
302.881	133.97
303.095	43.86
303.309	181.07
303.524	2.9
303.738	54.1
303.952	60.24
304.166	-1.19
304.381	-58.54
304.595	113.49
304.809	-42.15
305.023	58.2
305.237	2.9
305.452	68.44
305.666	-7.34
305.88	133.97
306.094	150.36
306.308	-1.19
306.522	64.34
306.736	27.48
306.95	123.73
307.164	-9.39
307.379	-9.39
307.593	183.12
307.807	105.3
308.021	60.24
308.235	52.05
308.449	-38.06
308.663	-23.72
308.877	213.84
309.091	56.15
309.305	41.81
309.519	-50.35
309.733	76.63
309.947	-3.24
310.161	144.21
310.374	76.63
310.588	111.44
310.802	-15.53
311.016	-25.77
311.23	15.19
311.444	-25.77
311.658	68.44
311.872	101.2
312.085	150.36
312.299	156.5
312.513	90.96
312.727	140.12
312.941	60.24
313.154	33.62
313.368	47.96
313.582	4.95
313.796	88.92
314.009	60.24
314.223	144.21
314.437	15.19
314.651	99.16
314.864	27.48
315.078	-36.01
315.292	-64.68
315.505	-7.34
315.719	72.53
315.933	138.07
316.146	4.95
316.36	11.09
316.573	166.74
316.787	23.38
317.001	84.82
317.214	23.38
317.428	23.38
317.641	17.24
317.855	15.19
318.068	95.06
318.282	56.15
318.495	170.83
318.709	45.91
318.922	66.39
319.136	172.88
319.349	146.26
319.563	107.35
319.776	179.03
319.99	-42.15
320.203	82.77
320.417	31.57
320.63	101.2
320.843	142.16
321.057	56.15
321.27	99.16
321.483	64.34
321.697	70.48
321.91	39.76
322.124	103.25
322.337	19.29
322.55	-27.82
322.763	123.73
322.977	-36.01
323.19	7
323.403	35.67
323.617	31.57
323.83	74.58
324.043	17.24
324.256	99.16
324.469	-107.69
324.683	95.06
324.896	-1.19
325.109	-36.01
325.322	-76.97
325.535	54.1
325.748	107.35
325.962	-3.24
326.175	82.77
326.388	113.49
326.601	45.91
326.814	9.05
327.027	-15.53
327.24	172.88
327.453	-44.2
327.666	52.05
327.879	129.88
328.092	181.07
328.305	140.12
328.518	-21.67
328.731	54.1
328.944	17.24
329.157	52.05
329.37	-89.26
329.583	209.75
329.796	224.08
330.009	-95.4
330.222	90.96
330.435	103.25
330.648	113.49
330.861	-3.24
331.073	99.16
331.286	35.67
331.499	103.25
331.712	27.48
331.925	27.48
332.138	76.63
332.35	29.52
332.563	-9.39
332.776	93.01
332.989	-5.29
333.202	13.14
333.414	78.68
333.627	19.29
333.84	35.67
334.053	-1.19
334.265	29.52
334.478	17.24
334.691	7
334.903	58.2
335.116	-56.49
335.329	15.19
335.541	74.58
335.754	152.4
335.966	-23.72
336.179	-3.24
336.392	-9.39
336.604	45.91
336.817	74.58
337.029	123.73
337.242	-3.24
337.454	82.77
337.667	52.05
337.88	140.12
338.092	-7.34
338.305	111.44
338.517	-11.43
338.729	99.16
338.942	95.06
339.154	-81.07
339.367	-29.87
339.579	58.2
339.792	47.96
340.004	19.29
340.217	19.29
340.429	39.76
340.641	-40.11
340.854	-36.01
341.066	11.09
341.278	140.12
341.491	150.36
341.703	70.48
341.915	-15.53
342.128	140.12
342.34	76.63
342.552	21.33
342.764	56.15
342.977	-1.19
343.189	133.97
343.401	84.82
343.613	-95.4
343.826	52.05
344.038	19.29
344.25	43.86
344.462	13.14
344.674	17.24
344.886	21.33
345.099	56.15
345.311	0.85
345.523	-21.67
345.735	27.48
345.947	47.96
346.159	45.91
346.371	45.91
346.583	-54.44
346.795	213.84
347.007	25.43
347.219	29.52
347.431	41.81
347.643	172.88
347.855	58.2
348.067	93.01
348.279	-23.72
348.491	45.91
348.703	60.24
348.915	39.76
349.127	-1.19
349.339	54.1
349.551	13.14
349.763	62.29
349.975	-13.48
350.187	99.16
350.399	93.01
350.61	70.48
350.822	39.76
351.034	-29.87
351.246	9.05
351.458	101.2
351.669	76.63
351.881	136.02
352.093	82.77
352.305	146.26
352.517	80.72
352.728	154.45
352.94	105.3
353.152	60.24
353.363	-50.35
353.575	35.67
353.787	133.97
353.999	52.05
354.21	162.64
354.422	-97.45
354.633	47.96
354.845	47.96
355.057	29.52
355.268	23.38
355.48	-11.43
355.692	-3.24
355.903	21.33
356.115	-25.77
356.326	-76.97
356.538	174.93
356.749	86.87
356.961	207.7
357.172	7
357.384	-31.91
357.595	164.69
357.807	21.33
358.018	72.53
358.23	88.92
358.441	291.66
358.653	45.91
358.864	17.24
359.075	-7.34
359.287	60.24
359.498	113.49
359.709	115.54
359.921	82.77
360.132	88.92
360.344	19.29
360.555	-9.39
360.766	88.92
360.977	-11.43
361.189	193.36
361.4	-27.82
361.611	150.36
361.823	101.2
362.034	103.25
362.245	-29.87
362.456	33.62
362.667	78.68
362.879	-25.77
363.09	43.86
363.301	9.05
363.512	78.68
363.723	2.9
363.935	-42.15
364.146	164.69
364.357	-27.82
364.568	107.35
364.779	-68.78
364.99	95.06
365.201	-42.15
365.412	111.44
365.623	-23.72
365.834	82.77
366.045	70.48
366.256	101.2
366.467	-9.39
366.678	23.38
366.889	133.97
367.1	45.91
367.311	168.79
367.522	43.86
367.733	117.59
367.944	43.86
368.155	66.39
368.366	113.49
368.577	148.31
368.788	70.48
368.999	-60.59
369.209	13.14
369.42	244.56
369.631	162.64
369.842	62.29
370.053	78.68
370.264	82.77
370.474	56.15
370.685	0.85
370.896	70.48
371.107	97.11
371.317	4.95
371.528	78.68
371.739	136.02
371.95	119.64
372.16	39.76
372.371	-85.16
372.582	33.62
372.792	88.92
373.003	125.78
373.214	64.34
373.424	25.43
373.635	13.14
373.846	97.11
374.056	25.43
374.267	146.26
374.477	140.12
374.688	-13.48
374.898	-1.19
375.109	115.54
375.319	-9.39
375.53	133.97
375.74	142.16
375.951	52.05
376.161	31.57
376.372	125.78
376.582	25.43
376.793	99.16
377.003	-19.63
377.214	15.19
377.424	107.35
377.635	-1.19
377.845	-70.83
378.055	162.64
378.266	-48.3
378.476	58.2
378.686	97.11
378.897	138.07
379.107	138.07
379.317	56.15
379.528	17.24
379.738	80.72
379.948	-13.48
380.158	162.64
380.369	33.62
380.579	66.39
380.789	19.29
380.999	103.25
381.21	86.87
381.42	179.03
381.63	31.57
381.84	105.3
382.05	43.86
382.261	121.68
382.471	158.55
382.681	84.82
382.891	123.73
383.101	82.77
383.311	-60.59
383.521	-33.96
383.731	50
383.941	101.2
384.151	33.62
384.361	-48.3
384.571	99.16
384.781	80.72
384.991	185.17
385.201	162.64
385.411	138.07
385.621	70.48
385.831	2.9
386.041	-13.48
386.251	-1.19
386.461	172.88
386.671	9.05
386.881	15.19
387.091	-36.01
387.301	138.07
387.511	19.29
387.72	41.81
387.93	78.68
388.14	-76.97
388.35	11.09
388.56	50
388.769	142.16
388.979	-17.58
389.189	23.38
389.399	101.2
389.609	47.96
389.818	60.24
390.028	101.2
390.238	115.54
390.447	-25.77
390.657	11.09
390.867	50
391.076	-60.59
391.286	41.81
391.496	37.72
391.705	-31.91
391.915	142.16
392.125	84.82
392.334	-13.48
392.544	150.36
392.753	90.96
392.963	-27.82
393.172	45.91
393.382	23.38
393.591	160.59
393.801	7
394.01	215.89
394.22	52.05
394.429	-3.24
394.639	-11.43
394.848	39.76
395.058	-19.63
395.267	35.67
395.477	82.77
395.686	56.15
395.895	273.23
396.105	162.64
396.314	35.67
396.524	-21.67
396.733	-38.06
396.942	64.34
397.152	88.92
397.361	129.88
397.57	90.96
397.78	62.29
397.989	78.68
398.198	246.61
398.407	-13.48
398.617	-3.24
398.826	21.33
399.035	4.95
399.244	162.64
399.453	50
399.663	-3.24
399.872	119.64
400.081	-105.64
400.29	156.5
400.499	23.38
400.708	125.78
400.917	41.81
401.127	2.9
401.336	70.48
401.545	33.62
401.754	99.16
401.963	107.35
402.172	0.85
402.381	-1.19
402.59	31.57
402.799	64.34
403.008	101.2
403.217	45.91
403.426	111.44
403.635	-15.53
403.844	62.29
404.053	19.29
404.262	0.85
404.471	162.64
404.68	138.07
404.888	50
405.097	-13.48
405.306	58.2
405.515	127.83
405.724	-7.34
405.933	136.02
406.142	58.2
406.35	140.12
406.559	21.33
406.768	41.81
406.977	156.5
407.185	97.11
407.394	115.54
407.603	-83.11
407.812	111.44
408.02	99.16
408.229	68.44
408.438	58.2
408.646	-31.91
408.855	105.3
409.064	103.25
409.272	41.81
409.481	74.58
409.69	58.2
409.898	0.85
410.107	80.72
410.315	88.92
410.524	-5.29
410.733	113.49
410.941	25.43
411.15	121.68
411.358	97.11
411.567	185.17
411.775	9.05
411.984	70.48
412.192	84.82
412.401	15.19
412.609	199.51
412.818	129.88
413.026	121.68
413.234	37.72
413.443	52.05
413.651	60.24
413.86	60.24
414.068	176.98
414.276	140.12
414.485	21.33
414.693	154.45
414.901	201.55
415.11	62.29
415.318	101.2
415.526	56.15
415.734	74.58
415.943	58.2
416.151	136.02
416.359	88.92
416.567	-7.34
416.776	76.63
416.984	125.78
417.192	197.46
417.4	15.19
417.608	-5.29
417.817	25.43
418.025	119.64
418.233	181.07
418.441	-5.29
418.649	-66.73
418.857	52.05
419.065	95.06
419.273	25.43
419.481	64.34
419.689	58.2
419.897	56.15
420.105	-60.59
420.313	103.25
420.521	172.88
420.729	181.07
420.937	9.05
421.145	82.77
421.353	142.16
421.561	164.69
421.769	-3.24
421.977	-11.43
422.185	181.07
422.393	41.81
422.601	76.63
422.809	80.72
423.017	99.16
423.224	80.72
423.432	131.92
423.64	82.77
423.848	142.16
424.056	-15.53
424.263	76.63
424.471	-3.24
424.679	142.16
424.887	-5.29
425.094	101.2
425.302	146.26
425.51	64.34
425.718	107.35
425.925	76.63
426.133	-21.67
426.341	201.55
426.548	93.01
426.756	117.59
426.964	117.59
427.171	45.91
427.379	-5.29
427.586	88.92
427.794	119.64
428.001	162.64
428.209	107.35
428.417	199.51
428.624	109.4
428.832	179.03
429.039	150.36
429.247	117.59
429.454	129.88
429.662	230.23
429.869	125.78
430.076	64.34
430.284	90.96
430.491	154.45
430.699	154.45
430.906	166.74
431.114	174.93
431.321	140.12
431.528	129.88
431.736	113.49
431.943	123.73
432.15	195.41
432.358	265.04
432.565	228.18
432.772	21.33
432.979	195.41
433.187	174.93
433.394	181.07
433.601	84.82
433.808	217.94
434.016	326.48
434.223	244.56
434.43	166.74
434.637	121.68
434.844	336.72
435.052	228.18
435.259	324.43
435.466	209.75
435.673	232.27
435.88	205.65
436.087	318.29
436.294	344.91
436.501	320.34
436.708	172.88
436.915	205.65
437.122	312.14
437.329	242.51
437.537	303.95
437.743	334.67
437.95	445.26
438.157	336.72
438.364	340.82
438.571	379.73
438.778	420.69
438.985	394.06
439.192	445.26
439.399	416.59
439.606	467.79
439.813	514.89
440.02	592.72
440.227	566.09
440.433	518.99
440.64	549.71
440.847	414.54
441.054	568.14
441.261	715.59
441.467	633.68
441.674	506.7
441.881	592.72
442.088	686.92
442.294	609.1
442.501	680.78
442.708	799.56
442.914	600.91
443.121	793.42
443.328	791.37
443.534	815.94
443.741	795.47
443.948	695.11
444.154	863.05
444.361	1235.78
444.568	936.78
444.774	961.35
444.981	885.58
445.187	1147.72
445.394	1076.04
445.6	1057.61
445.807	1231.68
446.013	1129.28
446.22	1125.19
446.426	1268.55
446.633	1325.89
446.839	1563.45
447.046	1303.36
447.252	1583.93
447.459	1612.6
447.665	1477.44
447.871	1704.76
448.078	1803.07
448.284	1870.65
448.491	1794.87
448.697	1813.31
448.903	2091.83
449.11	1977.14
449.316	2016.05
449.522	2298.67
449.728	2259.76
449.935	2284.34
450.141	2341.68
450.347	2546.48
450.553	2487.09
450.76	2485.04
450.966	2781.99
451.172	2808.62
451.378	3003.18
451.584	3107.62
451.791	3089.19
451.997	3291.94
452.203	3390.24
452.409	3541.79
452.615	3670.81
452.821	3605.28
453.027	3603.23
453.233	3953.43
453.44	3990.3
453.646	4205.33
453.852	4193.05
454.058	4555.54
454.264	4653.84
454.47	5016.33
454.676	4819.72
454.882	5483.27
455.088	5255.94
455.294	5444.35
455.5	5737.21
455.705	6202.1
455.911	6101.75
456.117	6335.22
456.323	6730.48
456.529	6619.89
456.735	7111.4
456.941	7244.52
457.147	7690.98
457.352	7846.62
457.558	8096.47
457.764	8575.7
457.97	8803.02
458.176	8997.58
458.381	9446.09
458.587	9491.14
458.793	10140.35
458.999	10158.78
459.204	11244.2
459.41	11989.66
459.616	11719.33
459.821	12417.69
460.027	13015.69
460.233	13443.72
460.438	13714.05
460.644	14477.94
460.85	14520.95
461.055	15096.43
461.261	15538.79
461.466	15389.29
461.672	15571.56
461.878	17588.81
462.083	17560.14
462.289	17777.22
462.494	18649.66
462.7	18475.58
462.905	18854.45
463.111	20679.19
463.316	21424.65
463.522	21658.12
463.727	22508.03
463.932	23144.95
464.138	24297.95
464.343	25192.92
464.549	25338.32
464.754	27136.44
464.959	27705.77
465.165	28283.3
465.37	27920.81
465.575	28125.61
465.781	29880.72
465.986	30912.89
466.191	30409.09
466.397	30654.85
466.602	30079.37
466.807	31709.55
467.012	32143.72
467.218	32964.96
467.423	33147.23
467.628	34181.45
467.833	35135.81
468.038	34853.19
468.244	33804.63
468.449	35954.99
468.654	35033.41
468.859	35096.89
469.064	35338.55
469.269	34095.44
469.474	34593.09
469.679	35727.67
469.885	34902.34
470.09	35160.38
470.295	35197.24
470.5	34636.1
470.705	34748.74
470.91	33931.6
471.115	33927.5
471.32	34154.83
471.525	33734.99
471.73	32799.07
471.935	32444.77
472.139	31330.68
472.344	31551.86
472.549	31246.71
472.754	30556.55
472.959	29835.66
473.164	28834.21
473.369	28498.34
473.574	29370.77
473.778	28686.75
473.983	28250.53
474.188	27660.72
474.393	26239.43
474.598	26458.56
474.802	25739.72
475.007	25133.53
475.212	25246.16
475.417	24150.5
475.621	23966.18
475.826	23615.98
476.031	23128.56
476.235	22661.63
476.44	22583.8
476.645	22018.57
476.849	21754.38
477.054	21617.16
477.259	21271.06
477.463	20984.34
477.668	20161.06
477.872	20574.75
478.077	19757.61
478.282	19132.98
478.486	19118.64
478.691	18973.24
478.895	18827.83
479.1	18786.87
479.304	18418.24
479.509	17859.14
479.713	18244.16
479.918	17603.14
480.122	17230.41
480.326	17457.74
480.531	17295.95
480.735	17287.76
480.94	16996.95
481.144	17451.6
481.348	16464.47
481.553	16634.46
481.757	16441.95
481.961	16210.53
482.166	16104.03
482.37	16081.5
482.574	15708.77
482.778	15950.43
482.983	15948.39
483.187	15975.01
483.391	15864.42
483.595	15467.11
483.8	14862.96
484.004	15061.62
484.208	15280.75
484.412	15020.66
484.616	14553.72
484.821	14625.4
485.025	14570.1
485.229	14453.37
485.433	13980.29
485.637	14080.64
485.841	13597.32
486.045	13449.86
486.249	13539.97
486.453	13286.03
486.657	13126.29
486.861	12972.69
487.065	12327.58
487.269	12485.27
487.473	11772.58
487.677	12249.75
487.881	12067.49
488.085	11559.59
488.289	11422.38
488.493	11356.84
488.697	11285.16
488.901	10914.48
489.105	10572.47
489.309	10396.34
489.512	10396.34
489.716	10169.02
489.92	9872.06
490.124	9890.49
490.328	9794.24
490.531	9409.22
490.735	9532.1
490.939	9138.89
491.143	9005.77
491.346	8639.19
491.55	8829.65
491.754	8790.74
491.958	8590.03
492.161	8428.24
492.365	8243.93
492.569	7920.35
492.772	7901.92
492.976	8010.46
493.18	7762.65
493.383	7422.69
493.587	7523.04
493.79	7578.34
493.994	7320.29
494.197	7381.73
494.401	7326.44
494.605	7215.85
494.808	7267.05
495.012	7058.15
495.215	7129.83
495.419	7076.59
495.622	6898.41
495.825	6947.56
496.029	6744.81
496.232	6820.59
496.436	6955.76
496.639	6998.76
496.843	6793.97
497.046	6695.66
497.249	6935.28
497.453	6871.79
497.656	6787.82
497.859	6769.39
498.063	6814.45
498.266	6793.97
498.469	6646.51
498.673	6783.73
498.876	6914.8
499.079	6970.09
499.282	6802.16
499.485	6947.56
499.689	7037.67
499.892	7066.35
500.095	7181.03
500.298	7193.32
500.501	7056.11
500.705	7078.63
500.908	7473.89
501.111	7377.64
501.314	7457.51
501.517	7682.78
501.72	7785.18
501.923	7555.81
502.126	7594.72
502.329	7885.53
502.532	8006.36
502.735	7850.72
502.938	8225.5
503.141	8139.48
503.344	8211.16
503.547	8291.03
503.75	8434.39
503.953	8344.28
504.156	8757.97
504.359	8444.63
504.562	8788.69
504.765	9171.66
504.968	9087.69
505.17	9470.66
505.373	9329.35
505.576	9648.83
505.779	9695.94
505.982	9835.2
506.185	10214.07
506.387	10367.67
506.59	10494.65
506.793	10822.32
506.996	10818.22
507.198	11074.22
507.401	11367.08
507.604	11397.8
507.807	11911.84
508.009	11860.64
508.212	11963.04
508.415	12239.51
508.617	12483.22
508.82	12798.61
509.022	12933.78
509.225	13472.39
509.428	13699.72
509.63	14045.82
509.833	14021.25
510.035	14934.64
510.238	14766.71
510.44	14948.98
510.643	15436.39
510.845	16128.61
511.048	16118.37
511.25	16663.13
511.453	16806.48
511.655	17586.76
511.858	17451.6
512.06	18405.95
512.262	18520.63
512.465	18551.35
512.667	19354.16
512.87	19817
513.072	20036.13
513.274	20978.2
513.477	21062.16
513.679	21469.71
513.881	22258.18
514.084	22606.33
514.286	23015.93
514.488	23384.56
514.69	24265.19
514.893	24574.43
515.095	24865.24
515.297	25500.11
515.499	26554.82
515.701	26866.11
515.904	27224.5
516.106	27869.61
516.308	28326.31
516.51	28664.22
516.712	29315.48
516.914	30091.66
517.116	30558.6
517.318	31060.35
517.52	31912.3
517.722	31973.74
517.925	32772.45
518.127	33415.51
518.329	34398.54
518.531	34316.62
518.733	35365.18
518.935	35918.13
519.136	36084.01
519.338	37032.22
519.54	37665.05
519.742	38451.47
519.944	38709.51
520.146	39661.82
520.348	39850.23
520.55	40251.63
520.752	40526.06
520.954	41873.62
521.155	41439.45
521.357	42070.23
521.559	42926.28
521.761	43823.29
521.963	43583.68
522.164	44214.45
522.366	44691.63
522.568	44818.6
522.77	45107.37
522.971	45756.57
523.173	45654.17
523.375	46016.66
523.576	46366.87
523.778	46221.46
523.98	47265.92
524.181	47122.57
524.383	47073.42
524.584	47558.78
524.786	47706.24
524.988	47259.78
525.189	47358.08
525.391	47935.61
525.592	48271.48
525.794	48038.01
525.995	47958.14
526.197	47472.77
526.398	47939.71
526.6	47857.79
526.801	47620.22
527.003	47859.84
527.204	47247.49
527.406	47726.72
527.607	47298.69
527.808	47435.91
528.01	45908.12
528.211	46411.92
528.412	46565.52
528.614	46121.11
528.815	45842.59
529.016	45838.49
529.218	45277.35
529.419	44681.39
529.62	44126.39
529.822	44040.37
530.023	43466.94
530.224	43296.96
530.425	42817.74
530.626	41969.88
530.828	41232.61
531.029	41879.77
531.23	40900.84
531.431	40663.27
531.632	40177.9
531.833	40102.13
532.035	39014.66
532.236	38801.67
532.437	39035.14
532.638	37857.56
532.839	37916.95
533.04	37368.09
533.241	36391.21
533.442	36608.29
533.643	35942.7
533.844	35103.04
534.045	34732.36
534.246	34054.48
534.447	34097.49
534.648	33462.61
534.849	33136.99
535.05	32385.38
535.251	32072.04
535.451	31541.62
535.652	31322.49
535.853	30679.43
536.054	30556.55
536.255	30077.32
536.456	29301.14
536.657	29557.14
536.857	28821.92
537.058	28426.66
537.259	28103.08
537.46	27804.08
537.66	27025.85
537.861	27345.33
538.062	26493.38
538.263	26479.04
538.463	26020.3
538.664	25911.75
538.865	25293.27
539.065	25258.45
539.266	24775.13
539.466	24599.01
539.667	23960.04
539.868	24125.93
540.068	23689.71
540.269	23132.66
540.469	23126.52
540.67	22860.28
540.87	22657.53
541.071	22145.54
541.271	22049.28
541.472	21893.64
541.672	21318.16
541.873	21137.94
542.073	20691.48
542.274	20791.83
542.474	20359.71
542.675	20275.74
542.875	20363.81
543.075	19628.59
543.276	19540.52
543.476	19776.04
543.676	19100.21
543.877	18790.97
544.077	18889.27
544.277	18502.2
544.478	18360.89
544.678	18410.04
544.878	17859.14
545.078	17775.17
545.279	17111.63
545.479	17128.02
545.679	17027.67
545.879	16945.75
546.079	16779.86
546.28	16681.56
546.48	16220.77
546.68	16249.44
546.88	16194.14
547.08	15993.44
547.28	15659.62
547.48	15290.99
547.68	15157.87
547.88	15008.37
548.081	14692.98
548.281	14656.12
548.481	14461.56
548.681	14547.58
548.881	14023.3
549.081	14115.45
549.28	13818.5
549.48	13830.79
549.68	13136.52
549.88	13574.79
550.08	13243.02
550.28	12989.07
550.48	12864.15
550.68	12716.69
550.88	12298.91
551.08	12303
551.279	12280.47
551.479	11815.59
551.679	11967.13
551.879	11455.14
552.079	11590.31
552.278	11111.08
552.478	11152.04
552.678	10853.04
552.878	10885.81
553.077	10371.77
553.277	10302.14
553.477	10271.42
553.676	10070.72
553.876	9976.51
554.076	9794.24
554.275	9503.43
554.475	9331.4
554.674	9169.61
554.874	9315.02
555.074	8714.96
555.273	8874.7
555.473	8895.18
555.672	8538.84
555.872	8426.2
556.071	8407.77
556.271	8481.49
556.47	8104.67
556.67	7842.53
556.869	7766.75
557.068	7559.91
557.268	7547.62
557.467	7480.04
557.667	7406.31
557.866	7199.46
558.065	6980.33
558.265	6892.27
558.464	6759.15
558.663	6773.49
558.863	6576.88
559.062	6650.61
559.261	6339.32
559.461	6546.16
559.66	6210.29
559.859	6218.49
560.058	5935.87
560.258	5823.23
560.457	5733.12
560.656	5923.58
560.855	5440.26
561.054	5663.49
561.253	5505.79
561.453	5341.96
561.652	5307.14
561.851	5448.45
562.05	5102.34
562.249	5110.54
562.448	5047.05
562.647	4866.83
562.846	4807.44
563.045	4817.68
563.244	4746
563.443	4811.53
563.642	4465.43
563.841	4463.38
564.04	4350.74
564.239	4428.56
564.438	4334.36
564.637	4229.91
564.836	4236.05
565.035	4139.8
565.234	4059.93
565.432	3986.2
565.631	4021.02
565.83	4070.17
566.029	3748.64
566.228	3822.36
566.427	3674.91
566.625	3570.46
566.824	3562.27
567.023	3482.4
567.222	3470.11
567.42	3406.63
567.619	3332.9
567.818	3412.77
568.016	3398.43
568.215	3302.18
568.414	3367.71
568.612	3236.64
568.811	3085.09
569.01	3013.42
569.208	3101.48
569.407	3001.13
569.605	2974.5
569.804	2906.92
570.002	3005.22
570.201	2812.71
570.4	2800.43
570.598	2765.61
570.797	2741.04
570.995	2554.67
571.193	2609.97
571.392	2687.79
571.59	2450.22
571.789	2616.11
571.987	2614.06
572.186	2419.5
572.384	2284.34
572.582	2304.82
572.781	2423.6
572.979	2241.33
573.177	2241.33
573.376	2237.24
573.574	2306.87
573.772	1968.95
573.971	2147.12
574.169	2009.91
574.367	2087.73
574.565	1971
574.763	1911.61
574.962	2003.77
575.16	1948.47
575.358	1862.46
575.556	1766.2
575.754	1815.35
575.952	1870.65
576.151	1837.88
576.349	1891.13
576.547	1663.8
576.745	1762.11
576.943	1676.09
577.141	1583.93
577.339	1520.45
577.537	1688.38
577.735	1633.08
577.933	1581.89
578.131	1491.77
578.329	1551.17
578.527	1542.97
578.725	1448.77
578.923	1297.22
579.121	1370.94
579.319	1372.99
579.516	1241.92
579.714	1413.95
579.912	1375.04
580.11	1268.55
580.308	1170.24
580.506	1268.55
580.704	1121.09
580.901	1164.1
581.099	1250.11
581.297	1164.1
581.495	1174.34
581.692	1143.62
581.89	1291.07
582.088	1133.38
582.285	1084.23
582.483	1100.61
582.681	1016.65
582.878	1000.26
583.076	1018.69
583.274	1022.79
583.471	1135.43
583.669	971.59
583.866	963.4
584.064	973.64
584.262	850.76
584.459	830.28
584.657	959.3
584.854	1033.03
585.052	912.2
585.249	963.4
585.447	891.72
585.644	756.55
585.841	965.45
586.039	906.06
586.236	873.29
586.434	834.38
586.631	760.65
586.828	772.94
587.026	752.46
587.223	670.54
587.42	809.8
587.618	811.85
587.815	748.36
588.012	766.79
588.21	674.64
588.407	688.97
588.604	768.84
588.801	703.31
588.999	678.73
589.196	783.18
589.393	658.25
589.59	613.2
589.787	695.11
589.984	611.15
590.182	633.68
590.379	627.53
590.576	648.01
590.773	625.48
590.97	602.96
591.167	570.19
591.364	674.64
591.561	574.28
591.758	764.75
591.955	670.54
592.152	594.76
592.349	666.44
592.546	545.61
592.743	619.34
592.94	605
593.137	605
593.334	686.92
593.531	635.72
593.727	617.29
593.924	713.55
594.121	623.44
594.318	592.72
594.515	594.76
594.712	863.05
594.908	729.93
595.105	594.76
595.302	758.6
595.499	678.73
595.696	842.57
595.892	598.86
596.089	817.99
596.286	666.44
596.482	856.9
596.679	770.89
596.876	715.59
597.072	930.63
597.269	813.9
597.466	887.62
597.662	846.66
597.859	793.42
598.055	906.06
598.252	967.49
598.448	996.17
598.645	1030.98
598.841	1065.8
599.038	1264.45
599.234	1346.37
599.431	1231.68
599.627	1170.24
599.824	1223.49
600.02	1284.93
600.217	1332.03
600.413	1327.94
600.609	1407.81
600.806	1690.43
601.002	1588.03
601.198	1553.21
601.395	1766.2
601.591	1725.24
601.787	1764.15
601.984	1841.98
602.18	1954.62
602.376	1927.99
602.572	2153.27
602.769	2210.61
602.965	2220.85
603.161	2351.92
603.357	2437.94
603.553	2507.57
603.75	2448.18
603.946	2482.99
604.142	2730.8
604.338	2941.74
604.534	2849.58
604.73	2990.89
604.926	2964.26
605.122	3240.74
605.318	3220.26
605.514	3388.19
605.71	3396.39
605.906	3470.11
606.102	3580.7
606.298	3842.84
606.494	3894.04
606.69	3990.3
606.886	4170.52
607.082	4055.83
607.278	4258.58
607.474	4553.49
607.67	4526.86
607.866	4659.98
608.062	4911.88
608.257	5071.62
608.453	5106.44
608.649	5272.32
608.845	5135.11
609.041	5403.39
609.236	5464.83
609.432	5761.79
609.628	5939.96
609.824	6179.58
610.019	6191.86
610.215	6257.4
610.411	6562.55
610.606	6857.45
610.802	6863.6
610.998	7058.15
611.193	7453.41
611.389	7291.62
611.584	7508.71
611.78	7733.98
611.976	7942.88
612.171	8383.19
612.367	8393.43
612.562	8704.72
612.758	8755.92
612.953	8911.57
613.149	9167.56
613.344	9515.72
613.539	9906.88
613.735	9923.26
613.93	10334.9
614.126	10420.92
614.321	10910.38
614.517	11342.5
614.712	11393.7
614.907	11874.98
615.103	12100.25
615.298	12219.03
615.493	12649.11
615.688	12767.89
615.884	13437.58
616.079	13394.57
616.274	14000.77
616.47	14123.65
616.665	14668.41
616.86	14885.49
617.055	15223.41
617.25	15694.44
617.445	15903.33
617.641	16063.07
617.836	16927.32
618.031	16874.07
618.226	17660.49
618.421	17752.65
618.616	18500.16
618.811	18446.91
619.006	19638.83
619.201	19700.26
619.396	20443.68
619.591	20302.37
619.786	21176.85
619.981	21387.79
620.176	21955.08
620.371	22174.21
620.566	22839.8
620.761	23325.17
620.956	23798.25
621.151	23867.88
621.346	24646.11
621.541	24609.25
621.735	25868.75
621.93	25713.1
622.125	26900.92
622.32	26339.78
622.515	27247.03
622.709	27851.18
622.904	28400.04
623.099	28692.9
623.294	29270.42
623.488	29264.28
623.683	30409.09
623.878	30222.73
624.072	31408.5
624.267	31877.49
624.462	32344.42
624.656	32426.34
624.851	33257.82
625.046	33689.94
625.24	34199.88
625.435	34416.97
625.629	35354.94
625.824	35490.1
626.018	35598.65
626.213	35483.96
626.407	36561.19
626.602	36475.18
626.796	37347.61
626.991	37576.98
627.185	37986.58
627.38	37742.87
627.574	38416.65
627.768	38109.46
627.963	38594.82
628.157	38086.93
628.352	38754.57
628.546	38365.45
628.74	39100.67
628.935	38473.99
629.129	38654.22
629.323	38031.63
629.517	38127.89
629.712	37640.47
629.906	37484.83
630.1	36722.98
630.294	36573.48
630.489	36163.89
630.683	35916.08
630.877	35213.63
631.071	34724.16
631.265	33874.26
631.459	33057.12
631.653	32379.24
631.848	31799.66
632.042	31302.01
632.236	30501.25
632.43	29594
632.624	29073.82
632.818	27558.32
633.012	26718.65
633.206	26059.21
633.4	25184.73
633.594	24328.67
633.788	23642.6
633.982	22852.09
634.176	22024.71
634.369	20976.15
634.563	20312.61
634.757	19442.22
634.951	18979.38
635.145	18119.23
635.339	17402.44
635.533	16845.4
635.726	15884.9
635.92	15180.4
636.114	14674.55
636.308	14305.92
636.501	13965.95
636.695	13185.68
636.889	12466.84
637.083	11811.49
637.276	11584.16
637.47	10947.25
637.664	10578.61
637.857	10011.32
638.051	9814.72
638.244	9319.11
638.438	8921.81
638.632	8616.66
638.825	8073.95
639.019	8186.58
639.212	7613.15
639.406	7412.45
639.599	6982.38
639.793	6873.84
639.986	6544.11
640.18	6247.16
640.373	5974.78
640.567	5720.83
640.76	5528.32
640.954	5440.26
641.147	5100.3
641.34	4889.35
641.534	4702.99
641.727	4735.76
641.92	4516.62
642.114	4379.41
642.307	4033.3
642.5	3930.91
642.694	3846.94
642.887	3605.28
643.08	3707.68
643.273	3347.23
643.467	3224.36
643.66	3025.7
643.853	3072.81
644.046	2882.35
644.239	2902.83
644.432	2515.76
644.626	2462.51
644.819	2349.87
645.012	2261.81
645.205	2239.28
645.398	2210.61
645.591	2140.98
645.784	1958.71
645.977	1739.58
646.17	1876.79
646.363	1805.11
646.556	1680.19
646.749	1616.7
646.942	1717.05
647.135	1657.66
647.328	1522.49
647.521	1366.85
647.714	1362.75
647.907	1297.22
648.099	1231.68
648.292	1254.21
648.485	1178.44
648.678	1104.71
648.871	1078.08
649.064	1051.46
649.256	936.78
649.449	932.68
649.642	842.57
649.835	836.42
650.027	811.85
650.22	906.06
650.413	828.23
650.605	869.19
650.798	664.4
650.991	715.59
651.183	707.4
651.376	688.97
651.568	699.21
651.761	645.96
651.954	621.39
652.146	580.43
652.339	721.74
652.531	672.59
652.724	547.66
652.916	611.15
653.109	308.05
653.301	559.95
653.494	570.19
653.686	512.85
653.879	580.43
654.071	502.61
654.263	437.07
654.456	328.53
654.648	432.97
654.84	482.13
655.033	351.06
655.225	521.04
655.417	258.9
655.61	455.5
655.802	416.59
655.994	482.13
656.186	351.06
656.379	416.59
656.571	236.37
656.763	336.72
656.955	326.48
657.148	248.66
657.34	469.84
657.532	219.99
657.724	242.51
657.916	254.8
658.108	316.24
658.3	367.44
658.492	306
658.684	215.89
658.876	301.9
659.068	148.31
659.26	183.12
659.452	185.17
659.644	203.6
659.836	334.67
660.028	203.6
660.22	199.51
660.412	230.23
660.604	279.38
660.796	262.99
660.988	330.58
661.18	166.74
661.372	295.76
661.563	97.11
661.755	193.36
661.947	146.26
662.139	234.32
662.331	195.41
662.522	162.64
662.714	158.55
662.906	88.92
663.097	193.36
663.289	230.23
663.481	54.1
663.673	170.83
663.864	168.79
664.056	185.17
664.247	109.4
664.439	211.79
664.631	179.03
664.822	174.93
665.014	136.02
665.205	111.44
665.397	99.16
665.588	179.03
665.78	121.68
665.971	203.6
666.163	146.26
666.354	158.55
666.546	70.48
666.737	111.44
666.929	144.21
667.12	54.1
667.311	127.83
667.503	113.49
667.694	113.49
667.885	154.45
668.077	179.03
668.268	31.57
668.459	74.58
668.651	162.64
668.842	236.37
669.033	15.19
669.224	90.96
669.416	242.51
669.607	107.35
669.798	58.2
669.989	217.94
670.18	97.11
670.371	148.31
670.563	56.15
670.754	103.25
670.945	144.21
671.136	213.84
671.327	86.87
671.518	195.41
671.709	336.72
671.9	191.31
672.091	330.58
672.282	179.03
672.473	115.54
672.664	119.64
672.855	125.78
673.046	228.18
673.237	191.31
673.428	144.21
673.619	152.4
673.809	76.63
674	234.32
674.191	127.83
674.382	133.97
674.573	111.44
674.764	97.11
674.954	215.89
675.145	9.05
675.336	41.81
675.527	74.58
675.717	109.4
675.908	113.49
676.099	125.78
676.289	95.06
676.48	7
676.671	181.07
676.861	127.83
677.052	219.99
677.243	115.54
677.433	113.49
677.624	224.08
677.814	189.27
678.005	105.3
678.195	232.27
678.386	138.07
678.576	74.58
678.767	60.24
678.957	113.49
679.148	199.51
679.338	283.47
679.529	154.45
679.719	150.36
679.909	277.33
680.1	144.21
680.29	258.9
680.481	121.68
680.671	219.99
680.861	154.45
681.052	209.75
681.242	181.07
681.432	244.56
681.622	248.66
681.813	113.49
682.003	224.08
682.193	101.2
682.383	250.71
682.573	166.74
682.764	244.56
682.954	191.31
683.144	289.62
683.334	207.7
683.524	291.66
683.714	189.27
683.904	265.04
684.094	113.49
684.284	279.38
684.474	322.38
684.664	262.99
684.854	244.56
685.044	217.94
685.234	162.64
685.424	246.61
685.614	174.93
685.804	297.81
685.994	248.66
686.184	222.03
686.374	236.37
686.564	152.4
686.753	234.32
686.943	68.44
687.133	222.03
687.323	224.08
687.513	297.81
687.702	234.32
687.892	203.6
688.082	318.29
688.272	252.75
688.461	238.42
688.651	301.9
688.841	271.19
689.03	228.18
689.22	176.98
689.41	219.99
689.599	219.99
689.789	176.98
689.979	334.67
690.168	142.16
690.358	320.34
690.547	170.83
690.737	150.36
690.926	301.9
691.116	172.88
691.305	226.13
691.495	217.94
691.684	156.5
691.874	191.31
692.063	203.6
692.252	310.1
692.442	312.14
692.631	238.42
692.82	189.27
693.01	197.46
693.199	103.25
693.388	265.04
693.578	179.03
693.767	246.61
693.956	291.66
694.146	222.03
694.335	172.88
694.524	131.92
694.713	236.37
694.902	113.49
695.092	146.26
695.281	269.14
695.47	181.07
695.659	123.73
695.848	123.73
696.037	146.26
696.226	244.56
696.415	224.08
696.604	267.09
696.793	228.18
696.982	199.51
697.171	314.19
697.36	131.92
697.549	191.31
697.738	47.96
697.927	97.11
698.116	181.07
698.305	224.08
698.494	205.65
698.683	78.68
698.872	330.58
699.061	308.05
699.25	195.41
699.438	72.53
699.627	125.78
699.816	314.19
700.005	84.82
700.193	150.36
700.382	256.85
700.571	224.08
700.76	207.7
700.948	271.19
701.137	211.79
701.326	209.75
701.514	166.74
701.703	215.89
701.892	150.36
702.08	377.68
702.269	205.65
702.457	195.41
702.646	185.17
702.834	187.22
703.023	273.23
703.212	260.95
703.4	248.66
703.589	123.73
703.777	185.17
703.965	90.96
704.154	78.68
704.342	52.05
704.531	154.45
704.719	162.64
704.907	211.79
705.096	138.07
705.284	84.82
705.472	160.59
705.661	219.99
705.849	238.42
706.037	289.62
706.226	262.99
706.414	179.03
706.602	179.03
706.79	209.75
706.979	150.36
707.167	197.46
707.355	58.2
707.543	179.03
707.731	115.54
707.919	129.88
708.107	203.6
708.296	142.16
708.484	80.72
708.672	201.55
708.86	199.51
709.048	236.37
709.236	195.41
709.424	174.93
709.612	179.03
709.8	146.26
709.988	219.99
710.176	369.49
710.364	193.36
710.551	199.51
710.739	187.22
710.927	93.01
711.115	207.7
711.303	181.07
711.491	226.13
711.679	154.45
711.866	197.46
712.054	156.5
712.242	238.42
712.43	275.28
712.617	176.98
712.805	328.53
712.993	226.13
713.181	45.91
713.368	275.28
713.556	111.44
713.744	158.55
713.931	432.97
714.119	248.66
714.306	127.83
714.494	213.84
714.682	152.4
714.869	80.72
715.057	195.41
715.244	138.07
715.432	256.85
715.619	189.27
715.807	95.06
715.994	164.69
716.182	232.27
716.369	252.75
716.556	222.03
716.744	33.62
716.931	123.73
717.119	172.88
717.306	131.92
717.493	150.36
717.681	164.69
717.868	181.07
718.055	144.21
718.242	164.69
718.43	219.99
718.617	283.47
718.804	170.83
718.991	138.07
719.179	254.8
719.366	258.9
719.553	262.99
719.74	185.17
719.927	197.46
720.114	197.46
720.301	133.97
720.488	136.02
720.676	154.45
720.863	279.38
721.05	389.97
721.237	232.27
721.424	254.8
721.611	215.89
721.798	191.31
721.985	183.12
722.172	219.99
722.358	174.93
722.545	215.89
722.732	232.27
722.919	252.75
723.106	217.94
723.293	160.59
723.48	181.07
723.667	150.36
723.853	287.57
724.04	215.89
724.227	244.56
724.414	195.41
724.6	258.9
724.787	379.73
724.974	369.49
725.161	187.22
725.347	162.64
725.534	230.23
725.72	174.93
725.907	277.33
726.094	222.03
726.28	162.64
726.467	244.56
726.653	142.16
726.84	338.77
727.027	392.02
727.213	240.47
727.4	279.38
727.586	265.04
727.773	195.41
727.959	207.7
728.145	222.03
728.332	289.62
728.518	185.17
728.705	248.66
728.891	238.42
729.077	281.43
729.264	142.16
729.45	213.84
729.636	322.38
729.823	240.47
730.009	252.75
730.195	244.56
730.382	279.38
730.568	164.69
730.754	254.8
730.94	207.7
731.126	236.37
731.313	222.03
731.499	262.99
731.685	242.51
731.871	308.05
732.057	297.81
732.243	242.51
732.429	289.62
732.615	310.1
732.801	258.9
732.987	258.9
733.173	242.51
733.359	97.11
733.545	242.51
733.731	185.17
733.917	283.47
734.103	330.58
734.289	330.58
734.475	254.8
734.661	426.83
734.847	185.17
735.033	297.81
735.219	340.82
735.404	181.07
735.59	213.84
735.776	193.36
735.962	285.52
736.148	285.52
736.333	359.25
736.519	244.56
736.705	230.23
736.89	271.19
737.076	217.94
737.262	189.27
737.447	84.82
737.633	174.93
737.819	342.86
738.004	301.9
738.19	275.28
738.375	324.43
738.561	318.29
738.747	222.03
738.932	226.13
739.118	330.58
739.303	281.43
739.489	297.81
739.674	203.6
739.859	209.75
740.045	369.49
740.23	269.14
740.416	121.68
740.601	303.95
740.786	281.43
740.972	242.51
741.157	181.07
741.342	250.71
741.528	181.07
741.713	336.72
741.898	181.07
742.084	248.66
742.269	267.09
742.454	295.76
742.639	267.09
742.824	275.28
743.01	344.91
743.195	361.3
743.38	250.71
743.565	213.84
743.75	215.89
743.935	283.47
744.12	308.05
744.305	162.64
744.49	199.51
744.675	228.18
744.86	181.07
745.045	320.34
745.23	256.85
745.415	191.31
745.6	256.85
745.785	189.27
745.97	324.43
746.155	248.66
746.34	338.77
746.525	275.28
746.71	205.65
746.895	43.86
747.079	172.88
747.264	234.32
747.449	318.29
747.634	342.86
747.819	226.13
748.003	183.12
748.188	123.73
748.373	230.23
748.557	181.07
748.742	228.18
748.927	156.5
749.111	158.55
749.296	185.17
749.481	271.19
749.665	244.56
749.85	140.12
750.034	176.98
750.219	197.46
750.404	193.36
750.588	80.72
750.773	113.49
750.957	181.07
751.141	240.47
751.326	179.03
751.51	76.63
751.695	113.49
751.879	179.03
752.064	242.51
752.248	195.41
752.432	301.9
752.617	254.8
752.801	240.47
752.985	232.27
753.17	273.23
753.354	240.47
753.538	226.13
753.722	66.39
753.907	133.97
754.091	27.48
754.275	160.59
754.459	140.12
754.643	109.4
754.828	217.94
755.012	248.66
755.196	82.77
755.38	183.12
755.564	86.87
755.748	164.69
755.932	170.83
756.116	224.08
756.3	197.46
756.484	64.34
756.668	285.52
756.852	35.67
757.036	217.94
757.22	154.45
757.404	140.12
757.588	99.16
757.772	203.6
757.956	217.94
758.14	289.62
758.323	109.4
758.507	148.31
758.691	80.72
758.875	195.41
759.059	181.07
759.242	201.55
759.426	174.93
759.61	99.16
759.794	29.52
759.977	187.22
760.161	314.19
760.345	197.46
760.528	232.27
760.712	101.2
760.895	234.32
761.079	43.86
761.263	-23.72
761.446	119.64
761.63	64.34
761.813	240.47
761.997	13.14
762.18	121.68
762.364	195.41
762.547	-95.4
762.731	80.72
762.914	131.92
763.098	117.59
763.281	9.05
763.464	35.67
763.648	152.4
763.831	76.63
764.015	50
764.198	179.03
764.381	174.93
764.564	88.92
764.748	125.78
764.931	197.46
765.114	146.26
765.297	138.07
765.481	54.1
765.664	21.33
765.847	111.44
766.03	238.42
766.213	68.44
766.397	76.63
766.58	13.14
766.763	152.4
766.946	99.16
767.129	39.76
767.312	72.53
767.495	27.48
767.678	50
767.861	123.73
768.044	90.96
768.227	138.07
768.41	95.06
768.593	84.82
768.776	148.31
768.959	60.24
769.142	136.02
769.324	9.05
769.507	21.33
769.69	19.29
769.873	50
770.056	260.95
770.239	70.48
770.421	160.59
770.604	156.5
770.787	109.4
770.97	133.97
771.152	-27.82
771.335	144.21
771.518	-11.43
771.7	176.98
771.883	201.55
772.066	35.67
772.248	58.2
772.431	158.55
772.613	90.96
772.796	105.3
772.978	181.07
773.161	191.31
773.343	60.24
773.526	-15.53
773.708	-91.31
773.891	-54.44
774.073	103.25
774.256	45.91
774.438	224.08
774.621	-36.01
774.803	123.73
774.985	-25.77
775.168	99.16
775.35	60.24
775.532	129.88
775.715	21.33
775.897	82.77
776.079	27.48
776.261	33.62
776.444	17.24
776.626	121.68
776.808	84.82
776.99	-64.68
777.173	74.58
777.355	37.72
777.537	43.86
777.719	113.49
777.901	37.72
778.083	17.24
778.265	13.14
778.447	127.83
778.629	9.05
778.811	174.93
778.993	117.59
779.175	29.52
779.357	56.15
779.539	27.48
779.721	119.64
779.903	52.05
780.085	-62.63
780.267	76.63
780.449	66.39
780.631	76.63
780.812	21.33
780.994	54.1
781.176	60.24
781.358	-46.25
781.54	27.48
781.721	103.25
781.903	105.3
782.085	-1.19
782.267	105.3
782.448	-68.78
782.63	50
782.812	117.59
782.993	-33.96
783.175	133.97
783.357	13.14
783.538	9.05
783.72	-3.24
783.901	15.19
784.083	125.78
784.264	138.07
784.446	-19.63
784.627	-44.2
784.809	160.59
784.99	-3.24
785.172	62.29
785.353	15.19
785.535	68.44
785.716	56.15
785.897	-81.07
786.079	31.57
786.26	29.52
786.441	90.96
786.623	-40.11
786.804	7
786.985	33.62
787.167	39.76
787.348	7
787.529	86.87
787.71	181.07
787.891	39.76
788.073	-52.39
788.254	19.29
788.435	125.78
788.616	70.48
788.797	-95.4
788.978	35.67
789.159	-50.35
789.34	82.77
789.522	-23.72
789.703	25.43
789.884	52.05
790.065	-5.29
790.246	162.64
790.427	-15.53
790.607	168.79
790.788	-1.19
790.969	25.43
791.15	41.81
791.331	31.57
791.512	-31.91
791.693	-64.68
791.874	-7.34
792.054	265.04
792.235	45.91
792.416	-38.06
792.597	-103.59
792.778	31.57
792.958	64.34
793.139	52.05
793.32	43.86
793.5	29.52
793.681	97.11
793.862	68.44
794.042	43.86
794.223	-93.35
794.404	-44.2
794.584	-93.35
794.765	31.57
794.945	47.96
795.126	72.53
795.306	152.4
795.487	-99.5
795.667	15.19
795.848	29.52
796.028	74.58
796.209	-38.06
796.389	29.52
796.57	-25.77
796.75	-3.24
796.93	19.29
797.111	-25.77
797.291	-15.53
797.471	66.39
797.652	-46.25
797.832	7
798.012	111.44
798.192	-58.54
798.373	-48.3
798.553	27.48
798.733	-13.48
798.913	-103.59
799.093	23.38
799.274	-7.34
799.454	45.91
799.634	11.09
799.814	-25.77
799.994	133.97
800.174	15.19
800.354	64.34
800.534	-144.55
800.714	43.86
800.894	-99.5
801.074	-115.88
801.254	-7.34
801.434	78.68
801.614	33.62
801.794	-1.19
801.974	1952.57
802.154	-5.29
802.334	72.53
802.514	-58.54
802.693	-25.77
802.873	-52.39
803.053	144.21
803.233	56.15
803.413	-54.44
803.592	-33.96
803.772	-79.02
803.952	11.09
804.131	-101.55
804.311	31.57
804.491	62.29
804.67	2.9
804.85	-23.72
805.03	2.9
805.209	64.34
805.389	-1.19
805.568	11.09
805.748	-19.63
805.928	9.05
806.107	66.39
806.287	123.73
806.466	31.57
806.646	50
806.825	-54.44
807.004	-48.3
807.184	56.15
807.363	52.05
807.543	-7.34
807.722	-33.96
807.901	72.53
808.081	125.78
808.26	-48.3
808.439	39.76
808.619	-27.82
808.798	4.95
808.977	64.34
809.156	78.68
809.336	33.62
809.515	-5.29
809.694	-87.21
809.873	-7.34
810.052	80.72
810.231	19.29
810.411	56.15
810.59	21.33
810.769	43.86
810.948	90.96
811.127	-105.64
811.306	-66.73
811.485	31.57
811.664	54.1
811.843	60.24
812.022	35.67
812.201	-42.15
812.38	-76.97
812.559	-48.3
812.737	68.44
812.916	-99.5
813.095	-15.53
813.274	39.76
813.453	27.48
813.632	47.96
813.811	23.38
813.989	-58.54
814.168	-5.29
814.347	-54.44
814.526	-25.77
814.704	70.48
814.883	95.06
815.062	13.14
815.24	-19.63
815.419	-27.82
815.598	37.72
815.776	-54.44
815.955	86.87
816.133	-81.07
816.312	88.92
816.49	-56.49
816.669	35.67
816.847	-38.06
817.026	11.09
817.204	0.85
817.383	-15.53
817.561	-7.34
817.74	68.44
817.918	25.43
818.097	-60.59
818.275	-46.25
818.453	117.59
818.632	27.48
818.81	-13.48
818.988	-146.6
819.167	-58.54
819.345	23.38
819.523	-50.35
819.701	-91.31
819.879	31.57
820.058	15.19
820.236	-29.87
820.414	62.29
820.592	-56.49
820.77	-5.29
820.948	-23.72
821.127	-52.39
821.305	21.33
821.483	-13.48
821.661	17.24
821.839	27.48
822.017	-115.88
822.195	2.9
822.373	60.24
822.551	82.77
822.729	2.9
822.907	11.09
823.085	93.01
823.262	41.81
823.44	-146.6
823.618	-36.01
823.796	-44.2
823.974	-7.34
824.152	-33.96
824.329	-64.68
824.507	35.67
824.685	-9.39
824.863	33.62
825.04	37.72
825.218	80.72
825.396	11.09
825.574	-44.2
825.751	7
825.929	21.33
826.107	-81.07
826.284	17.24
826.462	-17.58
826.639	-29.87
826.817	-99.5
826.994	-40.11
827.172	-91.31
827.349	52.05
827.527	11.09
827.704	-31.91
827.882	93.01
828.059	-33.96
828.237	-21.67
828.414	90.96
828.591	-113.83
828.769	31.57
828.946	2.9
829.124	117.59
829.301	47.96
829.478	-17.58
829.655	0.85
829.833	74.58
830.01	-117.93
830.187	52.05
830.364	-21.67
830.542	17.24
830.719	105.3
830.896	29.52
831.073	-23.72
831.25	60.24
831.427	2.9
831.604	-76.97
831.782	-70.83
831.959	15.19
832.136	27.48
832.313	21.33
832.49	-66.73
832.667	39.76
832.844	-33.96
833.021	-1.19
833.198	-40.11
833.374	-36.01
833.551	-25.77
833.728	-48.3
833.905	-36.01
834.082	-50.35
834.259	31.57
834.436	115.54
834.612	-36.01
834.789	43.86
834.966	27.48
835.143	154.45
835.319	-42.15
835.496	-5.29
835.673	70.48
835.85	125.78
836.026	82.77
836.203	15.19
836.38	-5.29
836.556	-42.15
836.733	-25.77
836.909	201.55
837.086	2.9
837.262	-87.21
837.439	82.77
837.616	-103.59
837.792	-19.63
837.968	-1.19
838.145	-101.55
838.321	43.86
838.498	45.91
838.674	17.24
838.851	11.09
839.027	-97.45
839.203	27.48
839.38	-29.87
839.556	31.57
839.732	117.59
839.909	23.38
840.085	-33.96
840.261	-5.29
840.437	27.48
840.614	-68.78
840.79	88.92
840.966	60.24
841.142	68.44
841.318	-1.19
841.494	58.2
841.671	152.4
841.847	-74.92
842.023	-124.07
842.199	86.87
842.375	58.2
842.551	-134.31
842.727	-124.07
842.903	74.58
843.079	-36.01
843.255	88.92
843.431	-23.72
843.607	43.86
843.783	-113.83
843.959	31.57
844.134	-101.55
844.31	37.72
844.486	-52.39
844.662	-79.02
844.838	-33.96
845.013	86.87
845.189	64.34
845.365	54.1
845.541	17.24
845.716	41.81
845.892	99.16
846.068	-48.3
846.244	58.2
846.419	25.43
846.595	-79.02
846.77	-79.02
846.946	27.48
847.122	-56.49
847.297	25.43
847.473	78.68
847.648	-91.31
847.824	23.38
847.999	-111.78
848.175	-29.87
848.35	39.76
848.526	47.96
848.701	72.53
848.876	-1.19
849.052	68.44
849.227	-27.82
849.403	-7.34
849.578	111.44
849.753	19.29
849.929	7
850.104	-117.93
850.279	113.49
850.454	37.72
850.63	93.01
850.805	29.52
850.98	0.85
851.155	39.76
851.33	60.24
851.505	-81.07
851.681	109.4
851.856	-62.63
852.031	-27.82
852.206	-19.63
852.381	31.57
852.556	7
852.731	13.14
852.906	41.81
853.081	-19.63
853.256	125.78
853.431	-103.59
853.606	-91.31
853.781	-38.06
853.956	-115.88
854.131	58.2
854.305	-52.39
854.48	43.86
854.655	-81.07
854.83	-13.48
855.005	-50.35
855.18	-5.29
855.354	0.85
855.529	72.53
855.704	-97.45
855.879	58.2
856.053	-42.15
856.228	62.29
856.403	-142.5
856.577	31.57
856.752	-85.16
856.926	-40.11
857.101	25.43
857.276	-44.2
857.45	31.57
857.625	37.72
857.799	-21.67
857.974	2.9
858.148	-83.11
858.323	-27.82
858.497	17.24
858.672	-36.01
858.846	-89.26
859.02	11.09
859.195	-95.4
859.369	-27.82
859.543	29.52
859.718	-25.77
859.892	15.19
860.066	2.9
860.241	-48.3
860.415	-29.87
860.589	11.09
860.763	-46.25
860.938	-62.63
861.112	-29.87
861.286	15.19
861.46	99.16
861.634	15.19
861.808	113.49
861.982	-76.97
862.157	-70.83
862.331	41.81
862.505	-152.74
862.679	-42.15
862.853	25.43
863.027	54.1
863.201	76.63
863.375	-87.21
863.549	88.92
863.722	11.09
863.896	2.9
864.07	-70.83
864.244	33.62
864.418	-38.06
864.592	-11.43
864.766	-13.48
864.939	0.85
865.113	-64.68
865.287	52.05
865.461	-38.06
865.634	9.05
865.808	-23.72
865.982	-9.39
866.156	-109.74
866.329	-111.78
866.503	-7.34
866.676	45.91
866.85	23.38
867.024	-70.83
867.197	-1.19
867.371	-38.06
867.544	11.09
867.718	-117.93
867.891	47.96
868.065	-93.35
868.238	-36.01
868.412	105.3
868.585	-11.43
868.759	-64.68
868.932	-62.63
869.105	-83.11
869.279	-38.06
869.452	-68.78
869.625	43.86
869.799	-111.78
869.972	-93.35
870.145	-64.68
870.319	52.05
870.492	-122.02
870.665	-5.29
870.838	-62.63
871.011	-130.22
871.185	-3.24
871.358	-68.78
871.531	68.44
871.704	-66.73
871.877	33.62
872.05	-13.48
872.223	-70.83
872.396	23.38
872.569	78.68
872.742	-74.92
872.915	39.76
873.088	-38.06
873.261	-38.06
873.434	62.29
873.607	27.48
873.78	13.14
873.953	-115.88
874.126	54.1
874.299	97.11
874.471	-66.73
874.644	-62.63
874.817	54.1
874.99	35.67
875.163	-11.43
875.335	0.85
875.508	4.95
875.681	11.09
875.853	-99.5
876.026	-54.44
876.199	-13.48
876.371	74.58
876.544	-23.72
876.717	-21.67
876.889	-62.63
877.062	25.43
877.234	-58.54
877.407	-64.68
877.579	-29.87
877.752	0.85
877.924	82.77
878.097	117.59
878.269	-15.53
878.442	15.19
878.614	9.05
878.786	25.43
878.959	-117.93
879.131	27.48
879.303	-132.26
879.476	-17.58
879.648	72.53
879.82	-46.25
879.993	-44.2
880.165	-60.59
880.337	-95.4
880.509	7
880.681	-132.26
880.854	-29.87
881.026	19.29
881.198	158.55
881.37	2.9
881.542	37.72
881.714	31.57
881.886	-72.87
882.058	-1.19
882.23	-13.48
882.402	15.19
882.574	23.38
882.746	39.76
882.918	95.06
883.09	-33.96
883.262	-38.06
883.434	-46.25
883.606	-40.11
883.778	-101.55
883.95	88.92
884.122	-91.31
884.293	58.2
884.465	-3.24
884.637	33.62
884.809	-40.11
884.98	-15.53
885.152	35.67
885.324	-23.72
885.496	-52.39
885.667	41.81
885.839	-13.48
886.011	56.15
886.182	58.2
886.354	41.81
886.525	13.14
886.697	-60.59
886.869	-36.01
887.04	-27.82
887.212	47.96
887.383	97.11
887.555	-52.39
887.726	-38.06
887.897	-46.25
888.069	-36.01
888.24	78.68
888.412	-11.43
888.583	-58.54
888.754	11.09
888.926	-76.97
889.097	-1.19
889.268	-60.59
889.44	88.92
889.611	-117.93
889.782	-27.82
889.953	-38.06
890.125	125.78
890.296	-74.92
890.467	-74.92
890.638	-7.34
890.809	45.91
890.98	-40.11
891.151	13.14
891.323	27.48
891.494	-74.92
891.665	-56.49
891.836	43.86
892.007	-44.2
892.178	-17.58
892.349	9.05
892.52	-48.3
892.691	-19.63
892.862	-70.83
893.032	-87.21
893.203	-25.77
893.374	17.24
893.545	170.83
893.716	-56.49
893.887	33.62
894.057	-70.83
894.228	9.05
894.399	-11.43
894.57	142.16
894.74	-44.2
894.911	58.2
895.082	-17.58
895.253	-29.87
895.423	50
895.594	52.05
895.764	25.43
895.935	-44.2
896.106	62.29
896.276	-85.16
896.447	52.05
896.617	-15.53
896.788	-66.73
896.958	-33.96
897.129	-52.39
897.299	-27.82
897.47	54.1
897.64	56.15
897.81	-99.5
897.981	-27.82
898.151	-31.91
898.322	76.63
898.492	56.15
898.662	-154.79
898.832	-54.44
899.003	-21.67
899.173	47.96
899.343	-38.06
899.513	-95.4
