Data from USB4F104151__243__11-19-45-037.txt Node

Date: Wed Feb 26 11:19:45 EST 2025
User: louis
Spectrometer: USB4F10415
Trigger mode: 4
Integration Time (sec): 1.000000E-1
Scans to average: 1
Electric dark correction enabled: true
Nonlinearity correction enabled: false
Boxcar width: 0
XAxis mode: Wavelengths
Number of Pixels in Spectrum: 3648
>>>>>Begin Spectral Data<<<<<
178.204	-438.95
178.424	-438.95
178.644	-438.95
178.864	-377.51
179.084	-350.89
179.304	68.95
179.524	-29.35
179.744	9.56
179.964	13.65
180.184	-4.78
180.404	99.67
180.624	-15.02
180.844	32.08
181.064	-37.55
181.283	11.61
181.503	-160.42
181.723	11.61
181.943	-23.21
182.163	148.82
182.383	-8.87
182.602	120.15
182.822	210.26
183.042	152.91
183.262	-31.4
183.482	-23.21
183.701	130.39
183.921	83.28
184.141	-43.69
184.361	38.23
184.58	64.85
184.8	89.43
185.02	1.37
185.239	128.34
185.459	99.67
185.679	132.44
185.898	-92.84
186.118	46.42
186.338	25.94
186.557	120.15
186.777	-21.16
186.997	7.51
187.216	48.47
187.436	204.11
187.655	68.95
187.875	116.05
188.095	52.56
188.314	60.76
188.534	111.96
188.753	-8.87
188.973	167.25
189.192	185.68
189.412	-29.35
189.631	-41.64
189.851	75.09
190.07	236.88
190.29	-4.78
190.509	-19.11
190.729	42.32
190.948	116.05
191.168	279.89
191.387	105.81
191.607	52.56
191.826	85.33
192.045	1.37
192.265	62.8
192.484	136.53
192.704	23.89
192.923	-19.11
193.142	200.02
193.362	97.62
193.581	181.59
193.8	81.24
194.02	109.91
194.239	126.29
194.458	109.91
194.678	54.61
194.897	3.41
195.116	38.23
195.335	93.52
195.555	109.91
195.774	9.56
195.993	150.87
196.212	34.13
196.432	89.43
196.651	-37.55
196.87	32.08
197.089	187.73
197.308	87.38
197.528	109.91
197.747	17.75
197.966	62.8
198.185	83.28
198.404	-4.78
198.623	58.71
198.842	146.77
199.062	118.1
199.281	99.67
199.5	21.84
199.719	105.81
199.938	58.71
200.157	99.67
200.376	38.23
200.595	157.01
200.814	126.29
201.033	58.71
201.252	208.21
201.471	142.68
201.69	77.14
201.909	68.95
202.128	75.09
202.347	68.95
202.566	19.8
202.785	-27.31
203.004	-45.74
203.223	290.13
203.442	68.95
203.661	-53.93
203.879	142.68
204.098	150.87
204.317	-23.21
204.536	126.29
204.755	107.86
204.974	126.29
205.193	68.95
205.411	195.92
205.63	210.26
205.849	36.18
206.068	-43.69
206.287	-68.27
206.505	120.15
206.724	38.23
206.943	3.41
207.162	-25.26
207.381	138.58
207.599	66.9
207.818	71
208.037	-58.03
208.255	-4.78
208.474	75.09
208.693	50.52
208.911	17.75
209.13	116.05
209.349	134.48
209.567	130.39
209.786	36.18
210.005	81.24
210.223	64.85
210.442	-6.83
210.661	58.71
210.879	48.47
211.098	5.46
211.316	111.96
211.535	23.89
211.753	122.2
211.972	54.61
212.191	-2.73
212.409	-12.97
212.628	77.14
212.846	1.37
213.065	134.48
213.283	232.79
213.502	56.66
213.72	85.33
213.938	25.94
214.157	-21.16
214.375	150.87
214.594	25.94
214.812	97.62
215.031	50.52
215.249	25.94
215.467	17.75
215.686	68.95
215.904	40.28
216.122	122.2
216.341	91.48
216.559	81.24
216.778	50.52
216.996	146.77
217.214	-35.5
217.432	1.37
217.651	71
217.869	56.66
218.087	126.29
218.306	60.76
218.524	27.99
218.742	19.8
218.96	23.89
219.179	27.99
219.397	-64.17
219.615	187.73
219.833	197.97
220.051	11.61
220.27	64.85
220.488	66.9
220.706	97.62
220.924	-12.97
221.142	27.99
221.36	101.72
221.578	142.68
221.796	-72.36
222.015	79.19
222.233	79.19
222.451	150.87
222.669	-47.79
222.887	42.32
223.105	-41.64
223.323	101.72
223.541	-0.68
223.759	48.47
223.977	105.81
224.195	154.96
224.413	206.16
224.631	32.08
224.849	-12.97
225.067	281.94
225.285	46.42
225.503	32.08
225.721	-27.31
225.939	-51.88
226.157	77.14
226.375	218.45
226.592	-33.45
226.81	11.61
227.028	159.06
227.246	140.63
227.464	111.96
227.682	195.92
227.9	5.46
228.117	36.18
228.335	109.91
228.553	79.19
228.771	64.85
228.989	87.38
229.206	105.81
229.424	48.47
229.642	83.28
229.86	-25.26
230.077	173.39
230.295	79.19
230.513	89.43
230.731	79.19
230.948	232.79
231.166	191.83
231.384	3.41
231.601	83.28
231.819	232.79
232.037	30.04
232.254	-41.64
232.472	15.7
232.689	5.46
232.907	101.72
233.125	-4.78
233.342	9.56
233.56	38.23
233.777	-33.45
233.995	1.37
234.213	132.44
234.43	62.8
234.648	75.09
234.865	42.32
235.083	56.66
235.3	154.96
235.518	5.46
235.735	136.53
235.953	73.04
236.17	60.76
236.388	85.33
236.605	109.91
236.822	77.14
237.04	66.9
237.257	105.81
237.475	-37.55
237.692	93.52
237.909	120.15
238.127	60.76
238.344	-8.87
238.562	122.2
238.779	-25.26
238.996	3.41
239.214	68.95
239.431	60.76
239.648	27.99
239.865	142.68
240.083	46.42
240.3	56.66
240.517	81.24
240.735	-6.83
240.952	290.13
241.169	73.04
241.386	140.63
241.603	9.56
241.821	-6.83
242.038	130.39
242.255	124.24
242.472	-8.87
242.689	144.72
242.907	73.04
243.124	79.19
243.341	5.46
243.558	36.18
243.775	32.08
243.992	-23.21
244.209	79.19
244.426	105.81
244.643	120.15
244.86	32.08
245.078	81.24
245.295	103.76
245.512	-12.97
245.729	54.61
245.946	136.53
246.163	83.28
246.38	-21.16
246.597	101.72
246.814	101.72
247.031	54.61
247.248	40.28
247.464	91.48
247.681	142.68
247.898	91.48
248.115	109.91
248.332	19.8
248.549	159.06
248.766	128.34
248.983	40.28
249.2	56.66
249.417	144.72
249.633	-47.79
249.85	-0.68
250.067	85.33
250.284	52.56
250.501	64.85
250.717	144.72
250.934	-43.69
251.151	73.04
251.368	-10.92
251.585	79.19
251.801	7.51
252.018	44.37
252.235	114
252.451	-68.27
252.668	58.71
252.885	109.91
253.102	34.13
253.318	44.37
253.535	23.89
253.752	-10.92
253.968	-4.78
254.185	-53.93
254.401	64.85
254.618	40.28
254.835	-33.45
255.051	185.68
255.268	73.04
255.484	81.24
255.701	105.81
255.917	109.91
256.134	66.9
256.351	68.95
256.567	-21.16
256.784	124.24
257	-82.6
257.217	140.63
257.433	134.48
257.65	50.52
257.866	93.52
258.082	42.32
258.299	3.41
258.515	99.67
258.732	9.56
258.948	-17.07
259.165	40.28
259.381	-64.17
259.597	124.24
259.814	19.8
260.03	99.67
260.246	23.89
260.463	132.44
260.679	140.63
260.895	21.84
261.112	71
261.328	89.43
261.544	1.37
261.761	195.92
261.977	52.56
262.193	11.61
262.409	163.15
262.626	68.95
262.842	11.61
263.058	11.61
263.274	107.86
263.49	-25.26
263.707	101.72
263.923	83.28
264.139	-49.83
264.355	40.28
264.571	140.63
264.787	114
265.004	195.92
265.22	85.33
265.436	-37.55
265.652	-0.68
265.868	17.75
266.084	11.61
266.3	77.14
266.516	-27.31
266.732	68.95
266.948	11.61
267.164	-23.21
267.38	105.81
267.596	146.77
267.812	195.92
268.028	71
268.244	23.89
268.46	1.37
268.676	44.37
268.892	130.39
269.108	-68.27
269.324	36.18
269.54	-49.83
269.756	118.1
269.972	-70.31
270.188	-23.21
270.403	-41.64
270.619	7.51
270.835	54.61
271.051	138.58
271.267	27.99
271.483	-39.59
271.698	89.43
271.914	-21.16
272.13	66.9
272.346	44.37
272.562	-12.97
272.777	140.63
272.993	50.52
273.209	46.42
273.425	62.8
273.64	-96.94
273.856	142.68
274.072	36.18
274.287	64.85
274.503	111.96
274.719	85.33
274.934	17.75
275.15	-139.94
275.366	34.13
275.581	-29.35
275.797	25.94
276.012	120.15
276.228	32.08
276.444	58.71
276.659	181.59
276.875	-76.46
277.09	79.19
277.306	50.52
277.521	62.8
277.737	7.51
277.952	107.86
278.168	77.14
278.383	62.8
278.599	58.71
278.814	87.38
279.03	40.28
279.245	71
279.461	81.24
279.676	148.82
279.892	-2.73
280.107	-4.78
280.322	32.08
280.538	38.23
280.753	-31.4
280.969	148.82
281.184	38.23
281.399	126.29
281.615	44.37
281.83	66.9
282.045	-12.97
282.26	-10.92
282.476	-23.21
282.691	60.76
282.906	150.87
283.122	11.61
283.337	-0.68
283.552	91.48
283.767	-23.21
283.983	132.44
284.198	25.94
284.413	146.77
284.628	-74.41
284.843	99.67
285.058	73.04
285.274	58.71
285.489	42.32
285.704	169.3
285.919	15.7
286.134	58.71
286.349	-2.73
286.564	-43.69
286.779	171.35
286.995	25.94
287.21	-4.78
287.425	130.39
287.64	1.37
287.855	64.85
288.07	15.7
288.285	64.85
288.5	247.12
288.715	146.77
288.93	75.09
289.145	79.19
289.36	142.68
289.575	-25.26
289.79	144.72
290.004	-2.73
290.219	132.44
290.434	-43.69
290.649	32.08
290.864	3.41
291.079	32.08
291.294	116.05
291.509	58.71
291.724	93.52
291.938	-51.88
292.153	77.14
292.368	56.66
292.583	38.23
292.798	-15.02
293.012	58.71
293.227	54.61
293.442	-0.68
293.657	87.38
293.871	197.97
294.086	64.85
294.301	193.87
294.516	183.63
294.73	54.61
294.945	-8.87
295.16	50.52
295.374	161.11
295.589	93.52
295.804	-6.83
296.018	64.85
296.233	120.15
296.447	134.48
296.662	34.13
296.877	114
297.091	150.87
297.306	5.46
297.52	126.29
297.735	44.37
297.949	83.28
298.164	120.15
298.378	75.09
298.593	-39.59
298.807	5.46
299.022	58.71
299.236	111.96
299.451	-33.45
299.665	93.52
299.88	89.43
300.094	48.47
300.309	40.28
300.523	64.85
300.737	-25.26
300.952	142.68
301.166	103.76
301.381	-80.55
301.595	25.94
301.809	56.66
302.024	11.61
302.238	-0.68
302.452	122.2
302.667	-2.73
302.881	122.2
303.095	138.58
303.309	79.19
303.524	9.56
303.738	30.04
303.952	-17.07
304.166	85.33
304.381	-45.74
304.595	148.82
304.809	42.32
305.023	58.71
305.237	15.7
305.452	48.47
305.666	128.34
305.88	75.09
306.094	148.82
306.308	144.72
306.522	62.8
306.736	132.44
306.95	79.19
307.164	103.76
307.379	-12.97
307.593	105.81
307.807	75.09
308.021	142.68
308.235	97.62
308.449	-31.4
308.663	-12.97
308.877	193.87
309.091	58.71
309.305	66.9
309.519	-53.93
309.733	191.83
309.947	-41.64
310.161	85.33
310.374	93.52
310.588	116.05
310.802	-15.02
311.016	13.65
311.23	64.85
311.444	81.24
311.658	27.99
311.872	181.59
312.085	132.44
312.299	122.2
312.513	148.82
312.727	17.75
312.941	-53.93
313.154	15.7
313.368	130.39
313.582	50.52
313.796	140.63
314.009	95.57
314.223	197.97
314.437	95.57
314.651	103.76
314.864	7.51
315.078	-23.21
315.292	-19.11
315.505	-25.26
315.719	148.82
315.933	101.72
316.146	93.52
316.36	-47.79
316.573	122.2
316.787	111.96
317.001	157.01
317.214	-35.5
317.428	77.14
317.641	-45.74
317.855	66.9
318.068	79.19
318.282	95.57
318.495	171.35
318.709	54.61
318.922	64.85
319.136	161.11
319.349	165.2
319.563	120.15
319.776	120.15
319.99	-51.88
320.203	89.43
320.417	58.71
320.63	52.56
320.843	128.34
321.057	134.48
321.27	-4.78
321.483	50.52
321.697	146.77
321.91	93.52
322.124	75.09
322.337	3.41
322.55	38.23
322.763	116.05
322.977	21.84
323.19	93.52
323.403	48.47
323.617	54.61
323.83	165.2
324.043	30.04
324.256	68.95
324.469	-21.16
324.683	118.1
324.896	71
325.109	73.04
325.322	-0.68
325.535	99.67
325.748	103.76
325.962	38.23
326.175	101.72
326.388	77.14
326.601	124.24
326.814	46.42
327.027	54.61
327.24	197.97
327.453	-119.46
327.666	-4.78
327.879	148.82
328.092	93.52
328.305	109.91
328.518	56.66
328.731	-23.21
328.944	-8.87
329.157	175.44
329.37	-45.74
329.583	130.39
329.796	83.28
330.009	-45.74
330.222	181.59
330.435	107.86
330.648	54.61
330.861	19.8
331.073	142.68
331.286	95.57
331.499	25.94
331.712	-31.4
331.925	73.04
332.138	-4.78
332.35	103.76
332.563	48.47
332.776	146.77
332.989	9.56
333.202	9.56
333.414	-21.16
333.627	42.32
333.84	25.94
334.053	7.51
334.265	21.84
334.478	36.18
334.691	58.71
334.903	60.76
335.116	66.9
335.329	52.56
335.541	159.06
335.754	202.07
335.966	54.61
336.179	105.81
336.392	62.8
336.604	30.04
336.817	40.28
337.029	130.39
337.242	-0.68
337.454	77.14
337.667	32.08
337.88	218.45
338.092	54.61
338.305	142.68
338.517	79.19
338.729	138.58
338.942	193.87
339.154	-80.55
339.367	25.94
339.579	105.81
339.792	-47.79
340.004	99.67
340.217	23.89
340.429	130.39
340.641	15.7
340.854	66.9
341.066	48.47
341.278	142.68
341.491	228.69
341.703	44.37
341.915	91.48
342.128	79.19
342.34	105.81
342.552	-0.68
342.764	83.28
342.977	105.81
343.189	62.8
343.401	107.86
343.613	-31.4
343.826	58.71
344.038	-6.83
344.25	197.97
344.462	34.13
344.674	114
344.886	11.61
345.099	167.25
345.311	95.57
345.523	95.57
345.735	-137.9
345.947	36.18
346.159	23.89
346.371	107.86
346.583	11.61
346.795	247.12
347.007	15.7
347.219	71
347.431	11.61
347.643	185.68
347.855	62.8
348.067	197.97
348.279	-10.92
348.491	60.76
348.703	95.57
348.915	-21.16
349.127	111.96
349.339	73.04
349.551	25.94
349.763	111.96
349.975	103.76
350.187	81.24
350.399	134.48
350.61	93.52
350.822	-12.97
351.034	77.14
351.246	165.2
351.458	87.38
351.669	66.9
351.881	60.76
352.093	132.44
352.305	81.24
352.517	58.71
352.728	154.96
352.94	46.42
353.152	132.44
353.363	-60.07
353.575	85.33
353.787	230.74
353.999	136.53
354.21	140.63
354.422	-55.98
354.633	-51.88
354.845	32.08
355.057	126.29
355.268	165.2
355.48	68.95
355.692	-25.26
355.903	68.95
356.115	95.57
356.326	-90.79
356.538	197.97
356.749	48.47
356.961	134.48
357.172	38.23
357.384	-25.26
357.595	195.92
357.807	-55.98
358.018	-27.31
358.23	73.04
358.441	79.19
358.653	85.33
358.864	77.14
359.075	-6.83
359.287	97.62
359.498	103.76
359.709	58.71
359.921	107.86
360.132	107.86
360.344	87.38
360.555	13.65
360.766	87.38
360.977	81.24
361.189	132.44
361.4	48.47
361.611	99.67
361.823	93.52
362.034	62.8
362.245	-117.42
362.456	11.61
362.667	114
362.879	11.61
363.09	105.81
363.301	144.72
363.512	116.05
363.723	-53.93
363.935	-10.92
364.146	154.96
364.357	-68.27
364.568	109.91
364.779	-8.87
364.99	150.87
365.201	-64.17
365.412	128.34
365.623	-49.83
365.834	97.62
366.045	36.18
366.256	109.91
366.467	146.77
366.678	68.95
366.889	68.95
367.1	-21.16
367.311	159.06
367.522	-15.02
367.733	54.61
367.944	111.96
368.155	50.52
368.366	150.87
368.577	210.26
368.788	99.67
368.999	-43.69
369.209	21.84
369.42	128.34
369.631	273.75
369.842	124.24
370.053	-4.78
370.264	103.76
370.474	-6.83
370.685	11.61
370.896	83.28
371.107	208.21
371.317	23.89
371.528	15.7
371.739	185.68
371.95	150.87
372.16	75.09
372.371	15.7
372.582	23.89
372.792	132.44
373.003	99.67
373.214	120.15
373.424	122.2
373.635	-21.16
373.846	150.87
374.056	71
374.267	50.52
374.477	124.24
374.688	19.8
374.898	42.32
375.109	64.85
375.319	52.56
375.53	200.02
375.74	146.77
375.951	-0.68
376.161	66.9
376.372	144.72
376.582	17.75
376.793	173.39
377.003	-0.68
377.214	-15.02
377.424	54.61
377.635	-4.78
377.845	-23.21
378.055	148.82
378.266	-76.46
378.476	87.38
378.686	122.2
378.897	93.52
379.107	105.81
379.317	73.04
379.528	-2.73
379.738	134.48
379.948	-53.93
380.158	109.91
380.369	44.37
380.579	126.29
380.789	62.8
380.999	105.81
381.21	144.72
381.42	208.21
381.63	83.28
381.84	93.52
382.05	87.38
382.261	103.76
382.471	175.44
382.681	25.94
382.891	257.36
383.101	81.24
383.311	50.52
383.521	52.56
383.731	89.43
383.941	114
384.151	130.39
384.361	79.19
384.571	120.15
384.781	44.37
384.991	191.83
385.201	169.3
385.411	95.57
385.621	77.14
385.831	142.68
386.041	105.81
386.251	42.32
386.461	120.15
386.671	85.33
386.881	68.95
387.091	58.71
387.301	85.33
387.511	23.89
387.72	122.2
387.93	124.24
388.14	-47.79
388.35	68.95
388.56	128.34
388.769	144.72
388.979	77.14
389.189	-76.46
389.399	75.09
389.609	105.81
389.818	93.52
390.028	73.04
390.238	140.63
390.447	-19.11
390.657	120.15
390.867	118.1
391.076	-17.07
391.286	132.44
391.496	40.28
391.705	64.85
391.915	159.06
392.125	144.72
392.334	30.04
392.544	181.59
392.753	105.81
392.963	40.28
393.172	46.42
393.382	-25.26
393.591	200.02
393.801	56.66
394.01	197.97
394.22	124.24
394.429	9.56
394.639	36.18
394.848	132.44
395.058	128.34
395.267	-4.78
395.477	163.15
395.686	36.18
395.895	191.83
396.105	304.46
396.314	85.33
396.524	68.95
396.733	25.94
396.942	66.9
397.152	144.72
397.361	159.06
397.57	114
397.78	83.28
397.989	87.38
398.198	230.74
398.407	1.37
398.617	124.24
398.826	58.71
399.035	-6.83
399.244	79.19
399.453	89.43
399.663	66.9
399.872	132.44
400.081	5.46
400.29	152.91
400.499	-45.74
400.708	114
400.917	97.62
401.127	36.18
401.336	-0.68
401.545	243.03
401.754	114
401.963	42.32
402.172	19.8
402.381	5.46
402.59	124.24
402.799	52.56
403.008	210.26
403.217	99.67
403.426	138.58
403.635	-88.75
403.844	71
404.053	46.42
404.262	38.23
404.471	210.26
404.68	42.32
404.888	23.89
405.097	107.86
405.306	146.77
405.515	120.15
405.724	44.37
405.933	62.8
406.142	101.72
406.35	136.53
406.559	27.99
406.768	97.62
406.977	189.78
407.185	83.28
407.394	105.81
407.603	-49.83
407.812	99.67
408.02	189.78
408.229	120.15
408.438	93.52
408.646	30.04
408.855	-4.78
409.064	163.15
409.272	-27.31
409.481	97.62
409.69	7.51
409.898	52.56
410.107	83.28
410.315	167.25
410.524	42.32
410.733	85.33
410.941	64.85
411.15	130.39
411.358	144.72
411.567	177.49
411.775	91.48
411.984	79.19
412.192	124.24
412.401	34.13
412.609	224.59
412.818	236.88
413.026	95.57
413.234	93.52
413.443	99.67
413.651	73.04
413.86	9.56
414.068	197.97
414.276	189.78
414.485	48.47
414.693	193.87
414.901	181.59
415.11	54.61
415.318	-49.83
415.526	66.9
415.734	118.1
415.943	93.52
416.151	195.92
416.359	89.43
416.567	87.38
416.776	81.24
416.984	83.28
417.192	261.46
417.4	17.75
417.608	25.94
417.817	32.08
418.025	118.1
418.233	103.76
418.441	13.65
418.649	23.89
418.857	62.8
419.065	202.07
419.273	38.23
419.481	42.32
419.689	79.19
419.897	77.14
420.105	1.37
420.313	81.24
420.521	154.96
420.729	146.77
420.937	62.8
421.145	87.38
421.353	87.38
421.561	175.44
421.769	79.19
421.977	36.18
422.185	85.33
422.393	13.65
422.601	132.44
422.809	91.48
423.017	120.15
423.224	99.67
423.432	101.72
423.64	130.39
423.848	136.53
424.056	32.08
424.263	146.77
424.471	46.42
424.679	140.63
424.887	44.37
425.094	146.77
425.302	159.06
425.51	81.24
425.718	114
425.925	97.62
426.133	54.61
426.341	259.41
426.548	142.68
426.756	36.18
426.964	142.68
427.171	42.32
427.379	169.3
427.586	79.19
427.794	122.2
428.001	216.4
428.209	89.43
428.417	181.59
428.624	132.44
428.832	154.96
429.039	122.2
429.247	148.82
429.454	91.48
429.662	220.5
429.869	197.97
430.076	144.72
430.284	214.35
430.491	249.17
430.699	200.02
430.906	220.5
431.114	157.01
431.321	165.2
431.528	165.2
431.736	228.69
431.943	202.07
432.15	222.55
432.358	202.07
432.565	261.46
432.772	56.66
432.979	247.12
433.187	173.39
433.394	247.12
433.601	204.11
433.808	290.13
434.016	304.46
434.223	281.94
434.43	269.65
434.637	269.65
434.844	273.75
435.052	333.14
435.259	308.56
435.466	363.86
435.673	349.52
435.88	310.61
436.087	349.52
436.294	406.86
436.501	329.04
436.708	318.8
436.915	281.94
437.122	388.43
437.329	337.23
437.537	359.76
437.743	449.87
437.95	548.17
438.157	404.82
438.364	425.29
438.571	367.95
438.778	460.11
438.985	511.31
439.192	474.45
439.399	456.01
439.606	580.94
439.813	646.48
440.02	656.72
440.227	744.78
440.433	632.14
440.64	621.9
440.847	605.52
441.054	697.67
441.261	820.55
441.467	718.15
441.674	752.97
441.881	806.22
442.088	775.5
442.294	879.94
442.501	851.27
442.708	896.33
442.914	937.29
443.121	920.9
443.328	1027.4
443.534	1062.21
443.741	1039.69
443.948	933.19
444.154	1080.64
444.361	1285.44
444.568	1162.56
444.774	1197.38
444.981	1051.97
445.187	1332.54
445.394	1285.44
445.6	1322.31
445.807	1523.01
446.013	1559.87
446.22	1496.38
446.426	1627.45
446.633	1660.22
446.839	1899.83
447.046	1740.09
447.252	1871.16
447.459	1985.85
447.665	1926.46
447.871	2073.91
448.078	2151.73
448.284	2121.01
448.491	2213.17
448.697	2311.47
448.903	2487.6
449.11	2583.85
449.316	2368.82
449.522	2737.45
449.728	2872.62
449.935	2975.02
450.141	2821.42
450.347	3091.75
450.553	3061.03
450.76	3202.34
450.966	3263.78
451.172	3527.97
451.378	3527.97
451.584	3603.74
451.791	3910.94
451.997	4150.55
452.203	4128.02
452.409	4248.85
452.615	4451.6
452.821	4390.16
453.027	4523.28
453.233	4963.59
453.44	4801.8
453.646	5051.66
453.852	5287.17
454.058	5537.02
454.264	5637.38
454.47	6032.63
454.676	5926.14
454.882	6450.42
455.088	6399.22
455.294	6814.96
455.5	7075.05
455.705	7535.84
455.911	7566.56
456.117	7630.05
456.323	8137.95
456.529	8158.42
456.735	8856.78
456.941	8987.85
457.147	9135.31
457.352	9417.93
457.558	9702.59
457.764	10286.26
457.97	10519.73
458.176	11029.68
458.381	11578.53
458.587	11879.58
458.793	12252.31
458.999	12375.19
459.204	13974.66
459.41	14584.95
459.616	14439.55
459.821	15242.35
460.027	15770.72
460.233	16327.77
460.438	16643.16
460.644	17300.56
460.85	17556.55
461.055	18404.41
461.261	19260.46
461.466	18887.73
461.672	19280.94
461.878	21640.2
462.083	21054.48
462.289	21715.98
462.494	22555.65
462.7	22963.19
462.905	22987.77
463.111	24714.2
463.316	25783.24
463.522	26282.95
463.727	27134.9
463.932	28257.19
464.138	29254.55
464.343	30618.5
464.549	30485.38
464.754	32641.89
464.959	33629.01
465.165	34206.54
465.37	33948.5
465.575	34042.7
465.781	36309.8
465.986	37495.58
466.191	36655.91
466.397	37241.63
466.602	36143.92
466.807	38288.14
467.012	39234.3
467.218	39465.72
467.423	39367.42
467.628	40970.98
467.833	42793.67
468.038	42474.19
468.244	41577.18
468.449	43307.71
468.654	42648.27
468.859	42728.14
469.064	42558.16
469.269	41693.91
469.474	41902.81
469.679	43039.43
469.885	42013.4
470.09	42777.29
470.295	43082.44
470.5	41550.56
470.705	42169.04
470.91	40913.64
471.115	40899.3
471.32	41329.37
471.525	40917.73
471.73	39383.8
471.935	39629.56
472.139	38126.35
472.344	38521.61
472.549	38105.87
472.754	37165.85
472.959	36614.95
473.164	34997.06
473.369	35117.89
473.574	35672.88
473.778	35109.69
473.983	34184.01
474.188	33874.77
474.393	32279.4
474.598	32097.13
474.802	31224.7
475.007	30978.94
475.212	30675.84
475.417	29678.48
475.621	29096.86
475.826	28912.54
476.031	28265.38
476.235	27808.68
476.44	27739.05
476.645	27149.24
476.849	27149.24
477.054	26049.48
477.259	25711.56
477.463	25818.06
477.668	24935.38
477.872	24757.21
478.077	24351.71
478.282	23364.59
478.486	22985.72
478.691	23036.92
478.895	22957.05
479.1	22707.19
479.304	22952.95
479.509	21945.35
479.713	22197.25
479.918	21726.22
480.122	21163.03
480.326	21509.13
480.531	21468.17
480.735	21167.12
480.94	20827.16
481.144	21152.79
481.348	20182.05
481.553	20315.17
481.757	19754.02
481.961	20139.04
482.166	20331.55
482.37	19803.18
482.574	19332.14
482.778	19366.96
482.983	19528.75
483.187	19387.44
483.391	19117.11
483.595	18795.57
483.8	18521.15
484.004	18717.75
484.208	18623.55
484.412	18265.15
484.616	18105.41
484.821	17890.37
485.025	17349.71
485.229	17421.39
485.433	17032.27
485.637	17294.41
485.841	16819.28
486.045	16307.29
486.249	16436.31
486.453	15774.82
486.657	15735.91
486.861	15772.77
487.065	15203.44
487.269	15342.7
487.473	14576.76
487.677	14959.73
487.881	14845.04
488.085	14236.8
488.289	14068.86
488.493	13786.24
488.697	13778.05
488.901	13425.8
489.105	13155.47
489.309	12936.34
489.512	12571.8
489.716	12424.34
489.92	12029.09
490.124	12127.39
490.328	12221.59
490.531	11668.64
490.735	11539.62
490.939	11207.85
491.143	10804.4
491.346	10724.53
491.55	10540.21
491.754	10579.12
491.958	10503.35
492.161	10175.67
492.365	9991.36
492.569	9759.94
492.772	9393.35
492.976	9581.76
493.18	9344.2
493.383	9510.08
493.587	9368.77
493.79	9270.47
493.994	9008.33
494.197	8846.54
494.401	8826.06
494.605	8584.4
494.808	8629.46
495.012	8518.87
495.215	8658.13
495.419	8627.41
495.622	8402.13
495.825	8410.32
496.029	8166.62
496.232	8422.61
496.436	8314.07
496.639	8432.85
496.843	8164.57
497.046	8096.99
497.249	8301.78
497.453	8195.29
497.656	8066.27
497.859	8002.78
498.063	7972.06
498.266	8273.11
498.469	7797.98
498.673	8168.66
498.876	8187.1
499.079	8201.43
499.282	8197.34
499.485	8572.11
499.689	8234.2
499.892	8492.24
500.095	8213.72
500.298	8590.55
500.501	8271.06
500.705	8658.13
500.908	8596.69
501.111	8723.66
501.314	8924.37
501.517	8965.32
501.72	9051.34
501.923	9014.48
502.126	9221.32
502.329	9342.15
502.532	9219.27
502.735	9338.05
502.938	9626.82
503.141	9395.4
503.344	9704.64
503.547	9694.4
503.75	9950.4
503.953	9835.71
504.156	10155.19
504.359	10257.59
504.562	10486.97
504.765	10505.4
504.968	10740.91
505.17	10921.13
505.373	10996.91
505.576	11226.28
505.779	11469.99
505.982	11402.41
506.185	11801.76
506.387	11922.59
506.59	12061.85
506.793	12561.56
506.996	12551.32
507.198	12684.44
507.401	13038.73
507.604	13161.61
507.807	13683.84
508.009	14003.33
508.212	14040.19
508.415	14326.91
508.617	14701.68
508.82	14812.28
509.022	15002.74
509.225	15563.88
509.428	16045.15
509.63	16303.2
509.833	16368.73
510.035	16874.58
510.238	17382.48
510.44	17636.42
510.643	18146.37
510.845	18310.21
511.048	18467.9
511.25	19072.05
511.453	19364.91
511.655	20278.3
511.858	20378.65
512.06	20706.33
512.262	21400.59
512.465	21527.56
512.667	22057.99
512.87	22604.8
513.072	23131.12
513.274	23692.27
513.477	24316.9
513.679	24734.68
513.881	25308.12
514.084	25842.63
514.286	26475.46
514.488	27259.83
514.69	27984.81
514.893	28097.45
515.095	28529.57
515.297	29227.93
515.499	29737.87
515.701	30755.71
515.904	31069.05
516.106	32115.56
516.308	32310.12
516.51	33446.74
516.712	33721.17
516.914	33987.41
517.116	35380.03
517.318	35908.4
517.52	36373.29
517.722	36487.98
517.925	37468.95
518.127	38699.78
518.329	39090.94
518.531	39140.1
518.733	40202.99
518.935	40862.44
519.136	41077.47
519.338	42224.34
519.54	42373.84
519.742	43371.2
519.944	43807.42
520.146	44851.88
520.348	45034.15
520.55	45783.71
520.752	46099.09
520.954	47297.16
521.155	47252.1
521.357	47860.35
521.559	48697.97
521.761	49803.87
521.963	49324.64
522.164	49842.78
522.366	50072.15
522.568	50922.06
522.77	51182.15
522.971	51720.77
523.173	51499.59
523.375	51948.09
523.576	52392.5
523.778	52146.75
523.98	53404.2
524.181	53576.23
524.383	53170.73
524.584	53942.81
524.786	53436.97
524.988	53266.98
525.189	54102.56
525.391	53977.63
525.592	54458.9
525.794	54239.77
525.995	54231.58
526.197	53889.57
526.398	54309.4
526.6	54028.83
526.801	53828.13
527.003	53938.72
527.204	53381.67
527.406	54014.49
527.607	53021.23
527.808	53502.5
528.01	52329.01
528.211	52324.92
528.412	53170.73
528.614	52140.6
528.815	52148.79
529.016	51800.64
529.218	50500.18
529.419	50786.89
529.62	50254.42
529.822	49484.39
530.023	49357.41
530.224	49377.89
530.425	48306.8
530.626	47481.47
530.828	47184.52
531.029	47721.09
531.23	46482.06
531.431	45709.98
531.632	45548.19
531.833	45296.29
532.035	44647.08
532.236	44511.92
532.437	43950.77
532.638	43199.17
532.839	42627.79
533.04	42271.44
533.241	41286.37
533.442	41630.43
533.643	40549.1
533.844	39787.25
534.045	39604.98
534.246	38400.78
534.447	38824.71
534.648	37753.62
534.849	37503.77
535.05	36854.56
535.251	36578.09
535.451	36023.09
535.652	35855.15
535.853	35242.81
536.054	34327.37
536.255	34077.52
536.456	33219.42
536.657	33456.98
536.857	32555.88
537.058	32303.98
537.259	32246.63
537.46	31566.71
537.66	30958.46
537.861	30825.34
538.062	30237.58
538.263	29940.62
538.463	29414.29
538.664	29098.91
538.865	28744.61
539.065	28861.34
539.266	27947.95
539.466	28238.76
539.667	27280.31
539.868	27403.19
540.068	26811.32
540.269	26534.85
540.469	26399.68
540.67	25875.4
540.87	25871.31
541.071	25009.11
541.271	24929.24
541.472	24595.42
541.672	24409.06
541.873	24239.08
542.073	23452.66
542.274	23714.8
542.474	23084.02
542.675	22703.1
542.875	23073.78
543.075	22508.54
543.276	22000.65
543.476	22379.52
543.676	21754.89
543.877	21193.75
544.077	21363.73
544.277	21244.95
544.478	20896.79
544.678	20698.14
544.878	20472.86
545.078	20038.69
545.279	19768.36
545.479	19733.54
545.679	19422.25
545.879	19377.2
546.079	19012.66
546.28	18848.82
546.48	18523.19
546.68	18705.46
546.88	18273.34
547.08	17869.89
547.28	17658.95
547.48	17275.98
547.68	17392.72
547.88	16933.97
548.081	16823.38
548.281	16573.53
548.481	16370.78
548.681	16546.9
548.881	15946.85
549.081	15963.23
549.28	15481.96
549.48	15598.7
549.68	15244.4
549.88	15285.36
550.08	14673.01
550.28	14587
550.48	14572.66
550.68	14507.13
550.88	13937.79
551.08	13739.14
551.279	13804.67
551.479	13384.84
551.679	13399.18
551.879	13094.03
552.079	12811.41
552.278	12676.24
552.478	12614.8
552.678	12311.71
552.878	12127.39
553.077	11949.22
553.277	11799.71
553.477	11713.7
553.676	11431.08
553.876	11181.23
554.076	11107.5
554.275	10865.84
554.475	10595.51
554.674	10562.74
554.874	10325.18
555.074	10151.1
555.273	10208.44
555.473	9979.07
555.672	9708.74
555.872	9555.14
556.071	9602.24
556.271	9245.9
556.47	9098.44
556.67	8967.37
556.869	8815.82
557.068	8850.64
557.268	8705.23
557.467	8459.48
557.667	8350.93
557.866	8228.06
558.065	7898.33
558.265	7849.18
558.464	7607.52
558.663	7601.38
558.863	7427.3
559.062	7451.88
559.261	7271.65
559.461	7283.94
559.66	7052.52
559.859	6786.29
560.058	6847.72
560.258	6663.41
560.457	6632.69
560.656	6677.74
560.855	6288.63
561.054	6497.52
561.253	6337.78
561.453	6280.44
561.652	6190.33
561.851	6106.36
562.05	5919.99
562.249	5655.81
562.448	5764.35
562.647	5569.79
562.846	5448.96
563.045	5381.38
563.244	5336.32
563.443	5348.61
563.642	5238.02
563.841	5045.51
564.04	5047.56
564.239	5047.56
564.438	4805.9
564.637	4863.24
564.836	4695.31
565.035	4676.88
565.234	4650.25
565.432	4603.15
565.631	4533.52
565.83	4373.78
566.029	4365.59
566.228	4175.13
566.427	4314.39
566.625	4140.31
566.824	4070.68
567.023	4031.77
567.222	3900.7
567.42	3933.47
567.619	4054.3
567.818	3882.27
568.016	3966.23
568.215	3632.41
568.414	3691.81
568.612	3484.96
568.811	3620.13
569.01	3585.31
569.208	3398.95
569.407	3493.15
569.605	3491.1
569.804	3427.62
570.002	3321.12
570.201	3147.05
570.4	3190.05
570.598	3067.17
570.797	3130.66
570.995	2985.26
571.193	3007.78
571.392	2903.34
571.59	2886.95
571.789	2893.1
571.987	2954.54
572.186	2862.38
572.384	2727.21
572.582	2647.34
572.781	2800.94
572.979	2567.47
573.177	2385.2
573.376	2583.85
573.574	2579.76
573.772	2448.69
573.971	2340.15
574.169	2329.91
574.367	2389.3
574.565	2229.56
574.763	2288.95
574.962	2315.57
575.16	2198.84
575.358	2135.35
575.556	2256.18
575.754	2026.81
575.952	2102.58
576.151	2094.39
576.349	2037.05
576.547	1840.44
576.745	1944.89
576.943	2010.42
577.141	1836.35
577.339	1875.26
577.537	1819.96
577.735	1723.71
577.933	1801.53
578.131	1692.99
578.329	1840.44
578.527	1625.4
578.725	1735.99
578.923	1467.71
579.121	1629.5
579.319	1422.66
579.516	1539.39
579.714	1787.19
579.912	1525.05
580.11	1381.7
580.308	1574.21
580.506	1363.26
580.704	1391.94
580.901	1387.84
581.099	1506.62
581.297	1367.36
581.495	1422.66
581.692	1183.04
581.89	1430.85
582.088	1346.88
582.285	1322.31
582.483	1221.95
582.681	1236.29
582.878	1135.94
583.076	1252.67
583.274	1187.14
583.471	1293.63
583.669	1211.71
583.866	992.58
584.064	1058.12
584.262	1123.65
584.459	1070.4
584.657	1086.79
584.854	1115.46
585.052	1158.47
585.249	1084.74
585.447	1105.22
585.644	974.15
585.841	1051.97
586.039	1070.4
586.236	1002.82
586.434	945.48
586.631	935.24
586.828	838.98
587.026	943.43
587.223	941.38
587.42	771.4
587.618	968.01
587.815	988.49
588.012	871.75
588.21	824.65
588.407	980.29
588.604	894.28
588.801	722.25
588.999	812.36
589.196	904.52
589.393	718.15
589.59	841.03
589.787	824.65
589.984	812.36
590.182	812.36
590.379	775.5
590.576	810.31
590.773	748.87
590.97	849.22
591.167	800.07
591.364	828.74
591.561	750.92
591.758	890.18
591.955	755.02
592.152	804.17
592.349	744.78
592.546	673.1
592.743	687.43
592.94	769.35
593.137	795.98
593.334	818.5
593.531	785.74
593.727	787.79
593.924	779.59
594.121	755.02
594.318	720.2
594.515	804.17
594.712	888.14
594.908	869.7
595.105	744.78
595.302	765.26
595.499	812.36
595.696	976.2
595.892	793.93
596.089	961.86
596.286	857.42
596.482	978.25
596.679	1033.54
596.876	906.57
597.072	1015.11
597.269	824.65
597.466	1150.28
597.662	939.33
597.859	933.19
598.055	1101.12
598.252	1140.04
598.448	1248.58
598.645	1232.19
598.841	1254.72
599.038	1396.03
599.234	1363.26
599.431	1330.5
599.627	1410.37
599.824	1531.2
600.02	1486.14
600.217	1588.54
600.413	1674.56
600.609	1652.03
600.806	2039.09
601.002	1905.98
601.198	1932.6
601.395	2102.58
601.591	2123.06
601.787	2137.4
601.984	2225.46
602.18	2434.35
602.376	2426.16
602.572	2540.85
602.769	2514.22
602.965	2667.82
603.161	2770.22
603.357	2848.04
603.553	2917.67
603.75	2981.16
603.946	3063.08
604.142	3173.67
604.338	3302.69
604.534	3566.88
604.73	3511.58
604.926	3654.94
605.122	3841.31
605.318	3798.3
605.514	4097.3
605.71	4093.21
605.906	4353.3
606.102	4461.84
606.298	4562.19
606.494	4629.77
606.69	4822.28
606.886	4893.96
607.082	4947.21
607.278	5162.25
607.474	5520.64
607.67	5606.66
607.866	5453.06
608.062	5891.32
608.257	6008.06
608.453	6161.66
608.649	6399.22
608.845	6409.46
609.041	6380.79
609.236	6692.08
609.432	6964.46
609.628	7212.26
609.824	7472.36
610.019	7435.49
610.215	7834.85
610.411	8029.4
610.606	8258.78
610.802	8346.84
610.998	8600.79
611.193	8973.52
611.389	9045.2
611.584	9520.32
611.78	9243.85
611.976	9989.31
612.171	10175.67
612.367	10343.61
612.562	10419.38
612.758	10611.89
612.953	10937.52
613.149	11406.5
613.344	11709.6
613.539	11873.44
613.735	12129.44
613.93	12563.61
614.126	12684.44
614.321	13337.74
614.517	13554.82
614.712	13935.74
614.907	14300.28
615.103	14824.56
615.298	14920.82
615.493	15354.99
615.688	15678.57
615.884	16442.46
616.079	16262.24
616.274	17308.75
616.47	17491.02
616.665	17783.88
616.86	17884.23
617.055	18705.46
617.25	19303.47
617.445	19749.93
617.641	19825.7
617.836	20710.43
618.031	20954.13
618.226	21697.55
618.421	21824.52
618.616	22834.17
618.811	22746.11
619.006	23729.13
619.201	23866.35
619.396	24865.75
619.591	24599.52
619.786	25959.37
619.981	26207.17
620.176	26817.47
620.371	27116.47
620.566	28101.54
620.761	28224.42
620.956	29285.27
621.151	29348.76
621.346	30215.05
621.541	30294.92
621.735	31429.49
621.93	31619.95
622.125	32643.94
622.32	32490.34
622.515	33686.36
622.709	34261.83
622.904	34730.82
623.099	35402.55
623.294	35971.89
623.488	36195.12
623.683	37231.39
623.878	37446.43
624.072	38349.58
624.267	39099.14
624.462	39193.34
624.656	40061.68
624.851	41118.43
625.046	41110.24
625.24	41618.14
625.435	42285.78
625.629	42937.03
625.824	43324.1
626.018	43944.63
626.213	43596.48
626.407	44876.46
626.602	44960.42
626.796	46150.29
626.991	46000.79
627.185	46686.86
627.38	46414.48
627.574	46817.93
627.768	47108.74
627.963	47673.98
628.157	47325.83
628.352	47594.11
628.546	47649.41
628.74	48325.24
628.935	47444.61
629.129	47934.07
629.323	47235.72
629.517	47276.68
629.712	46789.26
629.906	46783.12
630.1	46228.12
630.294	46318.23
630.489	45623.97
630.683	44851.88
630.877	43750.07
631.071	43258.56
631.265	43117.25
631.459	41730.78
631.653	40616.68
631.848	40362.73
632.042	39058.18
632.236	38333.2
632.43	36995.87
632.624	36399.91
632.818	35162.94
633.012	34214.73
633.206	33151.84
633.4	32484.2
633.594	30903.17
633.788	30358.41
633.982	29014.94
634.176	28226.47
634.369	26719.17
634.563	25877.45
634.757	25074.65
634.951	24241.12
635.145	22934.52
635.339	22213.63
635.533	21484.56
635.726	20812.82
635.92	19344.43
636.114	19037.23
636.308	17878.08
636.501	17644.62
636.695	16667.74
636.889	15905.89
637.083	15361.13
637.276	14822.52
637.47	14302.33
637.664	13382.79
637.857	13274.25
638.051	12666
638.244	12020.89
638.438	11566.24
638.632	10988.72
638.825	10568.88
639.019	10374.33
639.212	9907.39
639.406	9450.69
639.599	8942.8
639.793	8768.72
639.986	8228.06
640.18	8297.69
640.373	7720.16
640.567	7296.23
640.76	7339.24
640.954	6769.9
641.147	6528.24
641.34	6403.32
641.534	6155.51
641.727	5864.7
641.92	5717.25
642.114	5516.55
642.307	5068.04
642.5	5008.65
642.694	4979.98
642.887	4547.86
643.08	4463.89
643.273	4418.83
643.467	3988.76
643.66	3972.38
643.853	3783.96
644.046	3618.08
644.239	3556.64
644.432	3278.12
644.626	3083.56
644.819	3075.37
645.012	3089.7
645.205	2968.87
645.398	2929.96
645.591	2739.5
645.784	2479.41
645.977	2546.99
646.17	2344.24
646.363	2268.47
646.556	2204.98
646.749	2022.71
646.942	1998.13
647.135	2071.86
647.328	1901.88
647.521	1940.79
647.714	1723.71
647.907	1670.46
648.099	1582.4
648.292	1654.08
648.485	1537.34
648.678	1406.27
648.871	1426.75
649.064	1453.38
649.256	1262.91
649.449	1201.47
649.642	1084.74
649.835	1178.95
650.027	1152.32
650.22	1160.52
650.413	1039.69
650.605	1090.88
650.798	951.62
650.991	916.81
651.183	931.14
651.376	875.85
651.568	910.66
651.761	814.41
651.954	881.99
652.146	804.17
652.339	828.74
652.531	742.73
652.724	695.63
652.916	671.05
653.109	564.56
653.301	771.4
653.494	662.86
653.686	644.43
653.879	742.73
654.071	587.08
654.263	523.6
654.456	527.69
654.648	634.19
654.84	562.51
655.033	470.35
655.225	654.67
655.417	410.96
655.61	523.6
655.802	570.7
655.994	626
656.186	417.1
656.379	474.45
656.571	343.38
656.763	382.29
656.955	355.66
657.148	329.04
657.34	482.64
657.532	365.9
657.724	355.66
657.916	392.53
658.108	453.97
658.3	382.29
658.492	435.53
658.684	357.71
658.876	396.62
659.068	277.84
659.26	245.07
659.452	259.41
659.644	273.75
659.836	433.49
660.028	324.94
660.22	206.16
660.412	253.27
660.604	222.55
660.796	261.46
660.988	298.32
661.18	243.03
661.372	335.18
661.563	292.18
661.755	263.51
661.947	286.03
662.139	165.2
662.331	234.83
662.522	193.87
662.714	185.68
662.906	120.15
663.097	212.31
663.289	128.34
663.481	148.82
663.673	259.41
663.864	204.11
664.056	193.87
664.247	191.83
664.439	326.99
664.631	214.35
664.822	277.84
665.014	146.77
665.205	163.15
665.397	118.1
665.588	204.11
665.78	218.45
665.971	230.74
666.163	138.58
666.354	175.44
666.546	64.85
666.737	124.24
666.929	200.02
667.12	93.52
667.311	210.26
667.503	212.31
667.694	224.59
667.885	218.45
668.077	163.15
668.268	109.91
668.459	146.77
668.651	120.15
668.842	191.83
669.033	7.51
669.224	42.32
669.416	316.75
669.607	79.19
669.798	126.29
669.989	255.31
670.18	169.3
670.371	222.55
670.563	161.11
670.754	267.6
670.945	148.82
671.136	214.35
671.327	34.13
671.518	226.64
671.709	230.74
671.9	228.69
672.091	224.59
672.282	142.68
672.473	220.5
672.664	95.57
672.855	187.73
673.046	224.59
673.237	177.49
673.428	173.39
673.619	210.26
673.809	148.82
674	230.74
674.191	212.31
674.382	165.2
674.573	130.39
674.764	101.72
674.954	302.42
675.145	154.96
675.336	114
675.527	177.49
675.717	120.15
675.908	128.34
676.099	214.35
676.289	142.68
676.48	95.57
676.671	206.16
676.861	208.21
677.052	181.59
677.243	128.34
677.433	116.05
677.624	159.06
677.814	179.54
678.005	114
678.195	382.29
678.386	197.97
678.576	136.53
678.767	81.24
678.957	169.3
679.148	257.36
679.338	283.98
679.529	183.63
679.719	79.19
679.909	226.64
680.1	240.98
680.29	197.97
680.481	124.24
680.671	230.74
680.861	191.83
681.052	175.44
681.242	216.4
681.432	238.93
681.622	200.02
681.813	144.72
682.003	212.31
682.193	105.81
682.383	232.79
682.573	177.49
682.764	224.59
682.954	218.45
683.144	247.12
683.334	75.09
683.524	189.78
683.714	247.12
683.904	236.88
684.094	257.36
684.284	152.91
684.474	286.03
684.664	214.35
684.854	220.5
685.044	140.63
685.234	183.63
685.424	249.17
685.614	126.29
685.804	365.9
685.994	261.46
686.184	253.27
686.374	294.22
686.564	179.54
686.753	259.41
686.943	161.11
687.133	226.64
687.323	224.59
687.513	226.64
687.702	271.7
687.892	165.2
688.082	245.07
688.272	296.27
688.461	173.39
688.651	333.14
688.841	290.13
689.03	187.73
689.22	150.87
689.41	226.64
689.599	89.43
689.789	212.31
689.979	253.27
690.168	169.3
690.358	288.08
690.547	161.11
690.737	265.55
690.926	277.84
691.116	257.36
691.305	312.66
691.495	288.08
691.684	144.72
691.874	238.93
692.063	279.89
692.252	210.26
692.442	343.38
692.631	240.98
692.82	159.06
693.01	263.51
693.199	140.63
693.388	218.45
693.578	224.59
693.767	277.84
693.956	271.7
694.146	114
694.335	318.8
694.524	111.96
694.713	255.31
694.902	126.29
695.092	175.44
695.281	257.36
695.47	210.26
695.659	167.25
695.848	165.2
696.037	144.72
696.226	181.59
696.415	163.15
696.604	294.22
696.793	214.35
696.982	193.87
697.171	337.23
697.36	144.72
697.549	163.15
697.738	36.18
697.927	161.11
698.116	64.85
698.305	238.93
698.494	177.49
698.683	165.2
698.872	320.85
699.061	191.83
699.25	173.39
699.438	150.87
699.627	97.62
699.816	310.61
700.005	62.8
700.193	134.48
700.382	265.55
700.571	173.39
700.76	185.68
700.948	243.03
701.137	265.55
701.326	324.94
701.514	163.15
701.703	253.27
701.892	195.92
702.08	380.24
702.269	290.13
702.457	218.45
702.646	224.59
702.834	267.6
703.023	302.42
703.212	279.89
703.4	140.63
703.589	144.72
703.777	173.39
703.965	95.57
704.154	171.35
704.342	179.54
704.531	142.68
704.719	208.21
704.907	216.4
705.096	167.25
705.284	175.44
705.472	138.58
705.661	185.68
705.849	263.51
706.037	281.94
706.226	183.63
706.414	253.27
706.602	120.15
706.79	296.27
706.979	95.57
707.167	240.98
707.355	21.84
707.543	228.69
707.731	208.21
707.919	191.83
708.107	187.73
708.296	144.72
708.484	99.67
708.672	224.59
708.86	298.32
709.048	161.11
709.236	73.04
709.424	200.02
709.612	290.13
709.8	140.63
709.988	275.79
710.176	298.32
710.364	310.61
710.551	136.53
710.739	146.77
710.927	114
711.115	232.79
711.303	310.61
711.491	245.07
711.679	179.54
711.866	144.72
712.054	173.39
712.242	189.78
712.43	267.6
712.617	89.43
712.805	191.83
712.993	99.67
713.181	34.13
713.368	173.39
713.556	236.88
713.744	150.87
713.931	339.28
714.119	275.79
714.306	187.73
714.494	165.2
714.682	202.07
714.869	50.52
715.057	263.51
715.244	103.76
715.432	189.78
715.619	142.68
715.807	230.74
715.994	107.86
716.182	189.78
716.369	230.74
716.556	226.64
716.744	95.57
716.931	109.91
717.119	195.92
717.306	169.3
717.493	195.92
717.681	204.11
717.868	152.91
718.055	234.83
718.242	122.2
718.43	200.02
718.617	232.79
718.804	185.68
718.991	286.03
719.179	226.64
719.366	173.39
719.553	189.78
719.74	230.74
719.927	140.63
720.114	214.35
720.301	228.69
720.488	136.53
720.676	152.91
720.863	318.8
721.05	296.27
721.237	263.51
721.424	142.68
721.611	306.51
721.798	148.82
721.985	116.05
722.172	197.97
722.358	232.79
722.545	306.51
722.732	222.55
722.919	277.84
723.106	173.39
723.293	130.39
723.48	202.07
723.667	173.39
723.853	275.79
724.04	271.7
724.227	372.05
724.414	193.87
724.6	300.37
724.787	322.9
724.974	329.04
725.161	259.41
725.347	103.76
725.534	105.81
725.72	310.61
725.907	302.42
726.094	261.46
726.28	157.01
726.467	240.98
726.653	167.25
726.84	355.66
727.027	419.15
727.213	251.22
727.4	281.94
727.586	181.59
727.773	224.59
727.959	290.13
728.145	294.22
728.332	275.79
728.518	210.26
728.705	255.31
728.891	283.98
729.077	154.96
729.264	210.26
729.45	212.31
729.636	283.98
729.823	212.31
730.009	257.36
730.195	300.37
730.382	304.46
730.568	142.68
730.754	271.7
730.94	181.59
731.126	216.4
731.313	341.33
731.499	263.51
731.685	208.21
731.871	273.75
732.057	243.03
732.243	324.94
732.429	312.66
732.615	314.7
732.801	200.02
732.987	216.4
733.173	189.78
733.359	257.36
733.545	212.31
733.731	169.3
733.917	349.52
734.103	220.5
734.289	259.41
734.475	146.77
734.661	324.94
734.847	290.13
735.033	202.07
735.219	304.46
735.404	157.01
735.59	187.73
735.776	224.59
735.962	306.51
736.148	298.32
736.333	329.04
736.519	210.26
736.705	216.4
736.89	243.03
737.076	230.74
737.262	191.83
737.447	222.55
737.633	197.97
737.819	281.94
738.004	228.69
738.19	232.79
738.375	224.59
738.561	343.38
738.747	331.09
738.932	132.44
739.118	443.73
739.303	226.64
739.489	269.65
739.674	210.26
739.859	140.63
740.045	286.03
740.23	200.02
740.416	120.15
740.601	255.31
740.786	210.26
740.972	206.16
741.157	175.44
741.342	183.63
741.528	202.07
741.713	314.7
741.898	236.88
742.084	245.07
742.269	222.55
742.454	243.03
742.639	320.85
742.824	259.41
743.01	349.52
743.195	445.77
743.38	202.07
743.565	275.79
743.75	314.7
743.935	279.89
744.12	314.7
744.305	163.15
744.49	218.45
744.675	189.78
744.86	206.16
745.045	294.22
745.23	234.83
745.415	175.44
745.6	324.94
745.785	189.78
745.97	267.6
746.155	177.49
746.34	275.79
746.525	181.59
746.71	261.46
746.895	107.86
747.079	179.54
747.264	234.83
747.449	234.83
747.634	245.07
747.819	179.54
748.003	167.25
748.188	216.4
748.373	214.35
748.557	314.7
748.742	214.35
748.927	243.03
749.111	214.35
749.296	148.82
749.481	288.08
749.665	222.55
749.85	107.86
750.034	197.97
750.219	249.17
750.404	195.92
750.588	195.92
750.773	134.48
750.957	222.55
751.141	204.11
751.326	197.97
751.51	46.42
751.695	193.87
751.879	173.39
752.064	257.36
752.248	202.07
752.432	347.47
752.617	218.45
752.801	316.75
752.985	159.06
753.17	263.51
753.354	232.79
753.538	243.03
753.722	232.79
753.907	111.96
754.091	85.33
754.275	193.87
754.459	118.1
754.643	23.89
754.828	193.87
755.012	193.87
755.196	97.62
755.38	107.86
755.564	120.15
755.748	200.02
755.932	152.91
756.116	249.17
756.3	208.21
756.484	240.98
756.668	296.27
756.852	77.14
757.036	134.48
757.22	175.44
757.404	32.08
757.588	140.63
757.772	159.06
757.956	71
758.14	281.94
758.323	140.63
758.507	228.69
758.691	97.62
758.875	222.55
759.059	265.55
759.242	132.44
759.426	154.96
759.61	138.58
759.794	83.28
759.977	148.82
760.161	406.86
760.345	322.9
760.528	175.44
760.712	159.06
760.895	200.02
761.079	173.39
761.263	83.28
761.446	79.19
761.63	187.73
761.813	195.92
761.997	75.09
762.18	142.68
762.364	87.38
762.547	38.23
762.731	83.28
762.914	154.96
763.098	109.91
763.281	134.48
763.464	71
763.648	175.44
763.831	60.76
764.015	46.42
764.198	134.48
764.381	85.33
764.564	146.77
764.748	167.25
764.931	124.24
765.114	140.63
765.297	146.77
765.481	54.61
765.664	148.82
765.847	126.29
766.03	255.31
766.213	66.9
766.397	91.48
766.58	13.65
766.763	150.87
766.946	142.68
767.129	116.05
767.312	66.9
767.495	116.05
767.678	27.99
767.861	142.68
768.044	3.41
768.227	130.39
768.41	130.39
768.593	109.91
768.776	89.43
768.959	50.52
769.142	183.63
769.324	93.52
769.507	126.29
769.69	136.53
769.873	97.62
770.056	306.51
770.239	107.86
770.421	208.21
770.604	159.06
770.787	85.33
770.97	124.24
771.152	52.56
771.335	114
771.518	1.37
771.7	132.44
771.883	146.77
772.066	-2.73
772.248	165.2
772.431	136.53
772.613	144.72
772.796	44.37
772.978	105.81
773.161	222.55
773.343	99.67
773.526	46.42
773.708	-8.87
773.891	-25.26
774.073	21.84
774.256	44.37
774.438	281.94
774.621	15.7
774.803	181.59
774.985	89.43
775.168	136.53
775.35	54.61
775.532	103.76
775.715	71
775.897	9.56
776.079	46.42
776.261	150.87
776.444	83.28
776.626	109.91
776.808	34.13
776.99	-17.07
777.173	48.47
777.355	52.56
777.537	68.95
777.719	64.85
777.901	85.33
778.083	54.61
778.265	-8.87
778.447	171.35
778.629	38.23
778.811	130.39
778.993	126.29
779.175	91.48
779.357	148.82
779.539	-17.07
779.721	87.38
779.903	79.19
780.085	83.28
780.267	75.09
780.449	109.91
780.631	-4.78
780.812	99.67
780.994	105.81
781.176	122.2
781.358	9.56
781.54	36.18
781.721	109.91
781.903	50.52
782.085	79.19
782.267	208.21
782.448	21.84
782.63	21.84
782.812	40.28
782.993	23.89
783.175	114
783.357	77.14
783.538	-25.26
783.72	50.52
783.901	50.52
784.083	85.33
784.264	107.86
784.446	-60.07
784.627	-51.88
784.809	132.44
784.99	27.99
785.172	95.57
785.353	75.09
785.535	91.48
785.716	27.99
785.897	40.28
786.079	126.29
786.26	66.9
786.441	50.52
786.623	-98.99
786.804	-39.59
786.985	30.04
787.167	64.85
787.348	36.18
787.529	89.43
787.71	179.54
787.891	64.85
788.073	-4.78
788.254	-8.87
788.435	179.54
788.616	44.37
788.797	-29.35
788.978	17.75
789.159	83.28
789.34	105.81
789.522	64.85
789.703	13.65
789.884	73.04
790.065	89.43
790.246	208.21
790.427	25.94
790.607	187.73
790.788	40.28
790.969	-6.83
791.15	-17.07
791.331	93.52
791.512	42.32
791.693	36.18
791.874	105.81
792.054	157.01
792.235	118.1
792.416	-23.21
792.597	-8.87
792.778	13.65
792.958	27.99
793.139	138.58
793.32	60.76
793.5	-10.92
793.681	101.72
793.862	89.43
794.042	64.85
794.223	-8.87
794.404	-0.68
794.584	-25.26
794.765	19.8
794.945	40.28
795.126	91.48
795.306	114
795.487	56.66
795.667	23.89
795.848	83.28
796.028	21.84
796.209	11.61
796.389	56.66
796.57	21.84
796.75	-41.64
796.93	38.23
797.111	-51.88
797.291	3.41
797.471	163.15
797.652	-31.4
797.832	-4.78
798.012	111.96
798.192	23.89
798.373	19.8
798.553	-33.45
798.733	77.14
798.913	1.37
799.093	-21.16
799.274	75.09
799.454	87.38
799.634	105.81
799.814	97.62
799.994	34.13
800.174	97.62
800.354	17.75
800.534	-103.08
800.714	130.39
800.894	23.89
801.074	-96.94
801.254	-72.36
801.434	169.3
801.614	44.37
801.794	-19.11
801.974	1776.95
802.154	-17.07
802.334	68.95
802.514	-74.41
802.693	9.56
802.873	15.7
803.053	71
803.233	-58.03
803.413	21.84
803.592	-49.83
803.772	-64.17
803.952	36.18
804.131	-25.26
804.311	48.47
804.491	73.04
804.67	-33.45
804.85	-6.83
805.03	50.52
805.209	177.49
805.389	-15.02
805.568	5.46
805.748	-25.26
805.928	68.95
806.107	85.33
806.287	75.09
806.466	62.8
806.646	56.66
806.825	-35.5
807.004	15.7
807.184	40.28
807.363	85.33
807.543	-90.79
807.722	62.8
807.901	140.63
808.081	71
808.26	-105.13
808.439	71
808.619	-0.68
808.798	-35.5
808.977	46.42
809.156	73.04
809.336	68.95
809.515	103.76
809.694	-49.83
809.873	-8.87
810.052	95.57
810.231	68.95
810.411	50.52
810.59	42.32
810.769	38.23
810.948	-35.5
811.127	-49.83
811.306	13.65
811.485	-31.4
811.664	206.16
811.843	132.44
812.022	48.47
812.201	-8.87
812.38	23.89
812.559	-33.45
812.737	60.76
812.916	-33.45
813.095	-74.41
813.274	44.37
813.453	77.14
813.632	32.08
813.811	107.86
813.989	-0.68
814.168	54.61
814.347	-2.73
814.526	58.71
814.704	128.34
814.883	142.68
815.062	15.7
815.24	75.09
815.419	-58.03
815.598	17.75
815.776	-29.35
815.955	46.42
816.133	-98.99
816.312	17.75
816.49	-55.98
816.669	-33.45
816.847	38.23
817.026	81.24
817.204	17.75
817.383	-31.4
817.561	-53.93
817.74	60.76
817.918	79.19
818.097	-51.88
818.275	-41.64
818.453	-25.26
818.632	114
818.81	11.61
818.988	64.85
819.167	-6.83
819.345	-27.31
819.523	-41.64
819.701	54.61
819.879	27.99
820.058	68.95
820.236	19.8
820.414	-33.45
820.592	-4.78
820.77	-41.64
820.948	-113.32
821.127	-8.87
821.305	79.19
821.483	5.46
821.661	101.72
821.839	19.8
822.017	-29.35
822.195	9.56
822.373	120.15
822.551	99.67
822.729	50.52
822.907	11.61
823.085	11.61
823.262	66.9
823.44	-45.74
823.618	-23.21
823.796	19.8
823.974	-21.16
824.152	52.56
824.329	-39.59
824.507	-29.35
824.685	97.62
824.863	50.52
825.04	89.43
825.218	77.14
825.396	27.99
825.574	124.24
825.751	73.04
825.929	-31.4
826.107	-35.5
826.284	34.13
826.462	30.04
826.639	1.37
826.817	-76.46
826.994	-66.22
827.172	-12.97
827.349	189.78
827.527	56.66
827.704	52.56
827.882	132.44
828.059	9.56
828.237	23.89
828.414	71
828.591	-82.6
828.769	25.94
828.946	38.23
829.124	50.52
829.301	122.2
829.478	58.71
829.655	60.76
829.833	-17.07
830.01	-82.6
830.187	109.91
830.364	-17.07
830.542	46.42
830.719	118.1
830.896	93.52
831.073	48.47
831.25	60.76
831.427	38.23
831.604	-12.97
831.782	-53.93
831.959	66.9
832.136	7.51
832.313	23.89
832.49	-6.83
832.667	66.9
832.844	-45.74
833.021	101.72
833.198	50.52
833.374	34.13
833.551	38.23
833.728	-4.78
833.905	58.71
834.082	-60.07
834.259	107.86
834.436	44.37
834.612	-66.22
834.789	111.96
834.966	52.56
835.143	19.8
835.319	-103.08
835.496	71
835.673	-6.83
835.85	48.47
836.026	50.52
836.203	23.89
836.38	30.04
836.556	-84.65
836.733	-39.59
836.909	157.01
837.086	-98.99
837.262	-92.84
837.439	-64.17
837.616	-17.07
837.792	-17.07
837.968	27.99
838.145	-64.17
838.321	-10.92
838.498	54.61
838.674	95.57
838.851	58.71
839.027	-70.31
839.203	66.9
839.38	77.14
839.556	13.65
839.732	25.94
839.909	-60.07
840.085	21.84
840.261	21.84
840.437	5.46
840.614	-58.03
840.79	73.04
840.966	58.71
841.142	27.99
841.318	38.23
841.494	50.52
841.671	109.91
841.847	-60.07
842.023	-19.11
842.199	46.42
842.375	54.61
842.551	-70.31
842.727	23.89
842.903	161.11
843.079	-92.84
843.255	120.15
843.431	-23.21
843.607	-43.69
843.783	-62.12
843.959	48.47
844.134	-12.97
844.31	87.38
844.486	-33.45
844.662	1.37
844.838	-0.68
845.013	-15.02
845.189	83.28
845.365	48.47
845.541	79.19
845.716	25.94
845.892	73.04
846.068	-15.02
846.244	23.89
846.419	38.23
846.595	-27.31
846.77	9.56
846.946	118.1
847.122	19.8
847.297	-27.31
847.473	146.77
847.648	-37.55
847.824	25.94
847.999	-113.32
848.175	95.57
848.35	42.32
848.526	142.68
848.701	111.96
848.876	85.33
849.052	64.85
849.227	-21.16
849.403	46.42
849.578	36.18
849.753	-25.26
849.929	50.52
850.104	-8.87
850.279	-31.4
850.454	30.04
850.63	46.42
850.805	-2.73
850.98	38.23
851.155	-0.68
851.33	124.24
851.505	-25.26
851.681	171.35
851.856	-96.94
852.031	93.52
852.206	21.84
852.381	-12.97
852.556	42.32
852.731	-0.68
852.906	87.38
853.081	40.28
853.256	128.34
853.431	-55.98
853.606	-39.59
853.781	-15.02
853.956	-94.89
854.131	93.52
854.305	17.75
854.48	30.04
854.655	-58.03
854.83	-103.08
855.005	27.99
855.18	11.61
855.354	-6.83
855.529	62.8
855.704	25.94
855.879	136.53
856.053	-47.79
856.228	19.8
856.403	-31.4
856.577	15.7
856.752	-103.08
856.926	-17.07
857.101	-6.83
857.276	-49.83
857.45	-33.45
857.625	118.1
857.799	11.61
857.974	71
858.148	-72.36
858.323	23.89
858.497	62.8
858.672	-51.88
858.846	-103.08
859.02	66.9
859.195	-21.16
859.369	17.75
859.543	79.19
859.718	27.99
859.892	58.71
860.066	89.43
860.241	-37.55
860.415	-88.75
860.589	19.8
860.763	21.84
860.938	-8.87
861.112	-86.7
861.286	-107.18
861.46	120.15
861.634	-17.07
861.808	71
861.982	-60.07
862.157	-90.79
862.331	-31.4
862.505	-58.03
862.679	-66.22
862.853	-58.03
863.027	-21.16
863.201	126.29
863.375	11.61
863.549	38.23
863.722	-37.55
863.896	140.63
864.07	-25.26
864.244	17.75
864.418	56.66
864.592	62.8
864.766	56.66
864.939	-15.02
865.113	-15.02
865.287	85.33
865.461	-105.13
865.634	21.84
865.808	19.8
865.982	-2.73
866.156	-47.79
866.329	-64.17
866.503	-6.83
866.676	64.85
866.85	-39.59
867.024	13.65
867.197	99.67
867.371	54.61
867.544	38.23
867.718	-158.38
867.891	159.06
868.065	-39.59
868.238	19.8
868.412	60.76
868.585	19.8
868.759	-109.23
868.932	-6.83
869.105	-66.22
869.279	54.61
869.452	-55.98
869.625	-15.02
869.799	11.61
869.972	-66.22
870.145	-29.35
870.319	52.56
870.492	-21.16
870.665	-25.26
870.838	-119.46
871.011	-107.18
871.185	13.65
871.358	44.37
871.531	60.76
871.704	-115.37
871.877	17.75
872.05	-92.84
872.223	-74.41
872.396	42.32
872.569	42.32
872.742	-58.03
872.915	15.7
873.088	-2.73
873.261	-78.51
873.434	103.76
873.607	-10.92
873.78	179.54
873.953	-86.7
874.126	154.96
874.299	56.66
874.471	34.13
874.644	11.61
874.817	103.76
874.99	136.53
875.163	1.37
875.335	17.75
875.508	-62.12
875.681	17.75
875.853	-43.69
876.026	-27.31
876.199	7.51
876.371	44.37
876.544	17.75
876.717	3.41
876.889	-33.45
877.062	32.08
877.234	-35.5
877.407	-96.94
877.579	-45.74
877.752	58.71
877.924	87.38
878.097	27.99
878.269	19.8
878.442	-19.11
878.614	21.84
878.786	42.32
878.959	7.51
879.131	5.46
879.303	-115.37
879.476	32.08
879.648	93.52
879.82	15.7
879.993	-35.5
880.165	7.51
880.337	-86.7
880.509	-41.64
880.681	-84.65
880.854	-55.98
881.026	27.99
881.198	185.68
881.37	-15.02
881.542	-19.11
881.714	-37.55
881.886	-0.68
882.058	7.51
882.23	44.37
882.402	77.14
882.574	107.86
882.746	68.95
882.918	103.76
883.09	56.66
883.262	-23.21
883.434	52.56
883.606	36.18
883.778	-47.79
883.95	118.1
884.122	30.04
884.293	71
884.465	44.37
884.637	42.32
884.809	-33.45
884.98	-4.78
885.152	132.44
885.324	-21.16
885.496	-51.88
885.667	-6.83
885.839	25.94
886.011	109.91
886.182	58.71
886.354	107.86
886.525	95.57
886.697	-4.78
886.869	-60.07
887.04	-41.64
887.212	148.82
887.383	148.82
887.555	-4.78
887.726	-72.36
887.897	-51.88
888.069	42.32
888.24	87.38
888.412	-17.07
888.583	-47.79
888.754	19.8
888.926	-70.31
889.097	-33.45
889.268	-37.55
889.44	30.04
889.611	-98.99
889.782	-88.75
889.953	-78.51
890.125	85.33
890.296	-33.45
890.467	-51.88
890.638	-35.5
890.809	-82.6
890.98	48.47
891.151	-10.92
891.323	103.76
891.494	15.7
891.665	-4.78
891.836	-8.87
892.007	17.75
892.178	58.71
892.349	62.8
892.52	-49.83
892.691	56.66
892.862	44.37
893.032	-117.42
893.203	34.13
893.374	21.84
893.545	56.66
893.716	-49.83
893.887	25.94
894.057	-19.11
894.228	-80.55
894.399	-60.07
894.57	52.56
894.74	11.61
894.911	7.51
895.082	77.14
895.253	9.56
895.423	13.65
895.594	-10.92
895.764	-21.16
895.935	-94.89
896.106	66.9
896.276	-37.55
896.447	-27.31
896.617	-31.4
896.788	-33.45
896.958	-6.83
897.129	7.51
897.299	-49.83
897.47	179.54
897.64	95.57
897.81	-8.87
897.981	19.8
898.151	-4.78
898.322	68.95
898.492	42.32
898.662	-53.93
898.832	-23.21
899.003	48.47
899.173	-2.73
899.343	-141.99
899.513	-35.5
