Data from USB4F104151__56__10-43-42-674.txt Node

Date: Wed Feb 26 10:43:42 EST 2025
User: louis
Spectrometer: USB4F10415
Trigger mode: 4
Integration Time (sec): 1.000000E-1
Scans to average: 1
Electric dark correction enabled: true
Nonlinearity correction enabled: false
Boxcar width: 0
XAxis mode: Wavelengths
Number of Pixels in Spectrum: 3648
>>>>>Begin Spectral Data<<<<<
178.204	-280.57
178.424	-280.57
178.644	-280.57
178.864	-387.07
179.084	-389.11
179.304	-36.86
179.524	-24.58
179.744	-69.63
179.964	-18.43
180.184	45.06
180.404	104.45
180.624	45.06
180.844	69.63
181.064	-20.48
181.283	-8.19
181.503	-88.06
181.723	2.05
181.943	-141.31
182.163	208.89
182.383	-38.91
182.602	141.31
182.822	102.4
183.042	12.29
183.262	14.34
183.482	38.91
183.701	-2.05
183.921	24.58
184.141	-18.43
184.361	36.86
184.58	8.19
184.8	-4.1
185.02	-22.53
185.239	55.3
185.459	135.17
185.679	47.1
185.898	-116.73
186.118	108.54
186.338	6.14
186.557	137.21
186.777	2.05
186.997	-26.62
187.216	-20.48
187.436	147.45
187.655	-28.67
187.875	102.4
188.095	24.58
188.314	110.59
188.534	135.17
188.753	-4.1
188.973	61.44
189.192	178.17
189.412	-30.72
189.631	-47.1
189.851	61.44
190.07	147.45
190.29	-88.06
190.509	59.39
190.729	-4.1
190.948	198.65
191.168	276.48
191.387	12.29
191.607	-8.19
191.826	67.58
192.045	-49.15
192.265	18.43
192.484	59.39
192.704	-8.19
192.923	-57.34
193.142	235.52
193.362	63.49
193.581	169.98
193.8	90.11
194.02	47.1
194.239	131.07
194.458	6.14
194.678	55.3
194.897	6.14
195.116	47.1
195.335	110.59
195.555	69.63
195.774	45.06
195.993	114.69
196.212	55.3
196.432	43.01
196.651	81.92
196.87	34.82
197.089	163.84
197.308	0
197.528	120.83
197.747	-10.24
197.966	36.86
198.185	139.26
198.404	-6.14
198.623	116.73
198.842	26.62
199.062	81.92
199.281	73.73
199.5	120.83
199.719	55.3
199.938	59.39
200.157	71.68
200.376	106.49
200.595	81.92
200.814	81.92
201.033	18.43
201.252	155.65
201.471	-24.58
201.69	22.53
201.909	65.54
202.128	90.11
202.347	108.54
202.566	36.86
202.785	-86.01
203.004	-59.39
203.223	272.38
203.442	-38.91
203.661	-22.53
203.879	94.21
204.098	172.03
204.317	-47.1
204.536	98.3
204.755	131.07
204.974	108.54
205.193	-45.06
205.411	165.89
205.63	163.84
205.849	86.01
206.068	24.58
206.287	14.34
206.505	139.26
206.724	83.97
206.943	20.48
207.162	-69.63
207.381	22.53
207.599	57.34
207.818	22.53
208.037	-71.68
208.255	26.62
208.474	61.44
208.693	-32.77
208.911	-12.29
209.13	92.16
209.349	69.63
209.567	79.87
209.786	94.21
210.005	88.06
210.223	45.06
210.442	-73.73
210.661	-47.1
210.879	73.73
211.098	69.63
211.316	43.01
211.535	30.72
211.753	86.01
211.972	51.2
212.191	-18.43
212.409	43.01
212.628	118.78
212.846	38.91
213.065	47.1
213.283	122.88
213.502	10.24
213.72	-24.58
213.938	67.58
214.157	57.34
214.375	167.93
214.594	45.06
214.812	104.45
215.031	-59.39
215.249	126.97
215.467	-2.05
215.686	-6.14
215.904	112.64
216.122	8.19
216.341	215.04
216.559	8.19
216.778	102.4
216.996	131.07
217.214	45.06
217.432	22.53
217.651	-71.68
217.869	118.78
218.087	49.15
218.306	-10.24
218.524	75.77
218.742	67.58
218.96	32.77
219.179	88.06
219.397	38.91
219.615	206.84
219.833	110.59
220.051	-14.34
220.27	22.53
220.488	159.74
220.706	90.11
220.924	-61.44
221.142	2.05
221.36	110.59
221.578	-2.05
221.796	38.91
222.015	4.1
222.233	12.29
222.451	167.93
222.669	34.82
222.887	104.45
223.105	53.25
223.323	12.29
223.541	-43.01
223.759	34.82
223.977	30.72
224.195	219.13
224.413	22.53
224.631	38.91
224.849	112.64
225.067	153.6
225.285	-8.19
225.503	106.49
225.721	-122.88
225.939	69.63
226.157	-16.38
226.375	212.99
226.592	-28.67
226.81	-16.38
227.028	157.69
227.246	131.07
227.464	57.34
227.682	63.49
227.9	112.64
228.117	63.49
228.335	108.54
228.553	-12.29
228.771	47.1
228.989	40.96
229.206	73.73
229.424	36.86
229.642	-47.1
229.86	4.1
230.077	106.49
230.295	92.16
230.513	118.78
230.731	79.87
230.948	114.69
231.166	159.74
231.384	43.01
231.601	-24.58
231.819	92.16
232.037	-16.38
232.254	-34.82
232.472	-24.58
232.689	-8.19
232.907	219.13
233.125	-24.58
233.342	-16.38
233.56	-20.48
233.777	-18.43
233.995	30.72
234.213	135.17
234.43	131.07
234.648	-4.1
234.865	-20.48
235.083	8.19
235.3	86.01
235.518	53.25
235.735	217.08
235.953	102.4
236.17	100.35
236.388	47.1
236.605	114.69
236.822	30.72
237.04	69.63
237.257	47.1
237.475	-26.62
237.692	81.92
237.909	34.82
238.127	63.49
238.344	45.06
238.562	81.92
238.779	10.24
238.996	-2.05
239.214	161.79
239.431	69.63
239.648	-16.38
239.865	206.84
240.083	126.97
240.3	12.29
240.517	-36.86
240.735	-8.19
240.952	137.21
241.169	36.86
241.386	16.38
241.603	8.19
241.821	-22.53
242.038	180.22
242.255	79.87
242.472	-106.49
242.689	-14.34
242.907	61.44
243.124	59.39
243.341	92.16
243.558	57.34
243.775	-51.2
243.992	-51.2
244.209	12.29
244.426	161.79
244.643	83.97
244.86	-10.24
245.078	32.77
245.295	88.06
245.512	51.2
245.729	-28.67
245.946	38.91
246.163	34.82
246.38	8.19
246.597	49.15
246.814	-26.62
247.031	51.2
247.248	53.25
247.464	110.59
247.681	61.44
247.898	79.87
248.115	34.82
248.332	-16.38
248.549	200.7
248.766	124.93
248.983	124.93
249.2	55.3
249.417	139.26
249.633	0
249.85	75.77
250.067	-34.82
250.284	-14.34
250.501	71.68
250.717	73.73
250.934	-92.16
251.151	77.82
251.368	77.82
251.585	81.92
251.801	61.44
252.018	-55.3
252.235	55.3
252.451	-65.53
252.668	-32.77
252.885	200.7
253.102	88.06
253.318	8.19
253.535	43.01
253.752	-22.53
253.968	61.44
254.185	-24.58
254.401	79.87
254.618	129.02
254.835	6.14
255.051	96.25
255.268	32.77
255.484	49.15
255.701	102.4
255.917	71.68
256.134	-20.48
256.351	43.01
256.567	-26.62
256.784	26.62
257	-40.96
257.217	110.59
257.433	90.11
257.65	73.73
257.866	145.41
258.082	-12.29
258.299	20.48
258.515	0
258.732	34.82
258.948	-10.24
259.165	36.86
259.381	-20.48
259.597	40.96
259.814	10.24
260.03	-40.96
260.246	-6.14
260.463	145.41
260.679	81.92
260.895	34.82
261.112	-20.48
261.328	20.48
261.544	79.87
261.761	180.22
261.977	55.3
262.193	-77.82
262.409	153.6
262.626	108.54
262.842	-20.48
263.058	55.3
263.274	77.82
263.49	100.35
263.707	18.43
263.923	116.73
264.139	-83.97
264.355	-14.34
264.571	118.78
264.787	81.92
265.004	167.93
265.22	-43.01
265.436	-24.58
265.652	14.34
265.868	20.48
266.084	20.48
266.3	10.24
266.516	8.19
266.732	126.97
266.948	71.68
267.164	-36.86
267.38	126.97
267.596	40.96
267.812	131.07
268.028	51.2
268.244	67.58
268.46	120.83
268.676	-16.38
268.892	34.82
269.108	8.19
269.324	-43.01
269.54	-73.73
269.756	110.59
269.972	-79.87
270.188	45.06
270.403	-6.14
270.619	-43.01
270.835	90.11
271.051	8.19
271.267	10.24
271.483	-47.1
271.698	90.11
271.914	34.82
272.13	8.19
272.346	-24.58
272.562	-8.19
272.777	83.97
272.993	16.38
273.209	34.82
273.425	102.4
273.64	-28.67
273.856	110.59
274.072	-71.68
274.287	-22.53
274.503	-2.05
274.719	92.16
274.934	34.82
275.15	-61.44
275.366	45.06
275.581	-75.77
275.797	36.86
276.012	45.06
276.228	-36.86
276.444	20.48
276.659	61.44
276.875	-86.01
277.09	4.1
277.306	-8.19
277.521	28.67
277.737	63.49
277.952	26.62
278.168	40.96
278.383	75.77
278.599	47.1
278.814	112.64
279.03	-4.1
279.245	143.36
279.461	43.01
279.676	151.55
279.892	-59.39
280.107	-34.82
280.322	-30.72
280.538	118.78
280.753	0
280.969	120.83
281.184	43.01
281.399	174.08
281.615	24.58
281.83	118.78
282.045	-110.59
282.26	-2.05
282.476	32.77
282.691	83.97
282.906	131.07
283.122	55.3
283.337	24.58
283.552	71.68
283.767	32.77
283.983	118.78
284.198	16.38
284.413	55.3
284.628	-73.73
284.843	16.38
285.058	137.21
285.274	47.1
285.489	24.58
285.704	102.4
285.919	12.29
286.134	26.62
286.349	38.91
286.564	36.86
286.779	169.98
286.995	26.62
287.21	-32.77
287.425	32.77
287.64	-47.1
287.855	61.44
288.07	-94.21
288.285	94.21
288.5	131.07
288.715	4.1
288.93	126.97
289.145	73.73
289.36	139.26
289.575	16.38
289.79	110.59
290.004	57.34
290.219	129.02
290.434	-4.1
290.649	83.97
290.864	61.44
291.079	6.14
291.294	57.34
291.509	24.58
291.724	129.02
291.938	0
292.153	28.67
292.368	14.34
292.583	65.54
292.798	139.26
293.012	159.74
293.227	108.54
293.442	16.38
293.657	118.78
293.871	178.17
294.086	167.93
294.301	174.08
294.516	169.98
294.73	18.43
294.945	-79.87
295.16	-18.43
295.374	120.83
295.589	167.93
295.804	32.77
296.018	47.1
296.233	120.83
296.447	36.86
296.662	71.68
296.877	106.49
297.091	155.65
297.306	24.58
297.52	53.25
297.735	-20.48
297.949	26.62
298.164	77.82
298.378	110.59
298.593	-10.24
298.807	20.48
299.022	49.15
299.236	122.88
299.451	-12.29
299.665	2.05
299.88	88.06
300.094	106.49
300.309	65.54
300.523	-34.82
300.737	-4.1
300.952	30.72
301.166	69.63
301.381	-98.3
301.595	-24.58
301.809	36.86
302.024	0
302.238	10.24
302.452	122.88
302.667	90.11
302.881	145.41
303.095	153.6
303.309	106.49
303.524	12.29
303.738	0
303.952	14.34
304.166	98.3
304.381	-122.88
304.595	161.79
304.809	57.34
305.023	71.68
305.237	-38.91
305.452	32.77
305.666	126.97
305.88	47.1
306.094	100.35
306.308	67.58
306.522	75.77
306.736	24.58
306.95	112.64
307.164	22.53
307.379	2.05
307.593	92.16
307.807	73.73
308.021	90.11
308.235	65.54
308.449	-104.45
308.663	-59.39
308.877	200.7
309.091	24.58
309.305	108.54
309.519	-45.06
309.733	178.17
309.947	-16.38
310.161	86.01
310.374	65.54
310.588	71.68
310.802	2.05
311.016	-32.77
311.23	77.82
311.444	8.19
311.658	63.49
311.872	124.93
312.085	88.06
312.299	210.94
312.513	198.65
312.727	55.3
312.941	0
313.154	61.44
313.368	-24.58
313.582	96.25
313.796	32.77
314.009	47.1
314.223	106.49
314.437	106.49
314.651	49.15
314.864	-53.25
315.078	57.34
315.292	12.29
315.505	14.34
315.719	10.24
315.933	161.79
316.146	71.68
316.36	-40.96
316.573	40.96
316.787	45.06
317.001	4.1
317.214	0
317.428	34.82
317.641	-63.49
317.855	-34.82
318.068	79.87
318.282	96.25
318.495	147.45
318.709	12.29
318.922	26.62
319.136	157.69
319.349	92.16
319.563	22.53
319.776	94.21
319.99	-92.16
320.203	141.31
320.417	73.73
320.63	243.71
320.843	137.21
321.057	38.91
321.27	47.1
321.483	77.82
321.697	190.46
321.91	83.97
322.124	65.54
322.337	129.02
322.55	-38.91
322.763	53.25
322.977	20.48
323.19	4.1
323.403	24.58
323.617	28.67
323.83	196.61
324.043	8.19
324.256	-10.24
324.469	-59.39
324.683	129.02
324.896	73.73
325.109	71.68
325.322	-53.25
325.535	67.58
325.748	98.3
325.962	61.44
326.175	-22.53
326.388	106.49
326.601	110.59
326.814	4.1
327.027	96.25
327.24	122.88
327.453	-96.25
327.666	129.02
327.879	100.35
328.092	100.35
328.305	61.44
328.518	45.06
328.731	14.34
328.944	-49.15
329.157	126.97
329.37	43.01
329.583	174.08
329.796	110.59
330.009	-30.72
330.222	153.6
330.435	167.93
330.648	92.16
330.861	147.45
331.073	51.2
331.286	141.31
331.499	8.19
331.712	-61.44
331.925	-47.1
332.138	40.96
332.35	30.72
332.563	-32.77
332.776	98.3
332.989	-88.06
333.202	45.06
333.414	45.06
333.627	63.49
333.84	71.68
334.053	61.44
334.265	-28.67
334.478	90.11
334.691	77.82
334.903	8.19
335.116	30.72
335.329	55.3
335.541	6.14
335.754	215.04
335.966	-14.34
336.179	12.29
336.392	-36.86
336.604	8.19
336.817	112.64
337.029	65.54
337.242	28.67
337.454	28.67
337.667	-16.38
337.88	147.45
338.092	63.49
338.305	65.54
338.517	-8.19
338.729	59.39
338.942	98.3
339.154	-53.25
339.367	-2.05
339.579	79.87
339.792	-12.29
340.004	45.06
340.217	4.1
340.429	14.34
340.641	-2.05
340.854	-59.39
341.066	61.44
341.278	169.98
341.491	139.26
341.703	10.24
341.915	-51.2
342.128	112.64
342.34	53.25
342.552	-18.43
342.764	49.15
342.977	71.68
343.189	59.39
343.401	51.2
343.613	-40.96
343.826	26.62
344.038	-20.48
344.25	55.3
344.462	-65.53
344.674	34.82
344.886	-83.97
345.099	2.05
345.311	12.29
345.523	-16.38
345.735	-96.25
345.947	6.14
346.159	53.25
346.371	22.53
346.583	-4.1
346.795	301.05
347.007	63.49
347.219	112.64
347.431	6.14
347.643	176.13
347.855	-8.19
348.067	69.63
348.279	-43.01
348.491	69.63
348.703	79.87
348.915	-2.05
349.127	-8.19
349.339	0
349.551	-24.58
349.763	81.92
349.975	83.97
350.187	202.75
350.399	151.55
350.61	43.01
350.822	-12.29
351.034	135.17
351.246	98.3
351.458	102.4
351.669	59.39
351.881	129.02
352.093	188.41
352.305	143.36
352.517	86.01
352.728	124.93
352.94	57.34
353.152	102.4
353.363	-36.86
353.575	51.2
353.787	110.59
353.999	81.92
354.21	190.46
354.422	-55.3
354.633	18.43
354.845	-47.1
355.057	57.34
355.268	100.35
355.48	77.82
355.692	16.38
355.903	-16.38
356.115	63.49
356.326	-55.3
356.538	73.73
356.749	40.96
356.961	176.13
357.172	10.24
357.384	-38.91
357.595	276.48
357.807	12.29
358.018	4.1
358.23	20.48
358.441	151.55
358.653	118.78
358.864	-26.62
359.075	16.38
359.287	159.74
359.498	141.31
359.709	110.59
359.921	73.73
360.132	83.97
360.344	75.77
360.555	-28.67
360.766	65.54
360.977	-83.97
361.189	71.68
361.4	-26.62
361.611	112.64
361.823	161.79
362.034	106.49
362.245	-141.31
362.456	63.49
362.667	96.25
362.879	-8.19
363.09	24.58
363.301	45.06
363.512	69.63
363.723	-67.58
363.935	94.21
364.146	73.73
364.357	20.48
364.568	57.34
364.779	-83.97
364.99	180.22
365.201	-24.58
365.412	90.11
365.623	-59.39
365.834	53.25
366.045	65.54
366.256	153.6
366.467	94.21
366.678	28.67
366.889	14.34
367.1	-24.58
367.311	182.27
367.522	14.34
367.733	110.59
367.944	2.05
368.155	-22.53
368.366	57.34
368.577	92.16
368.788	204.8
368.999	24.58
369.209	22.53
369.42	251.9
369.631	260.09
369.842	94.21
370.053	30.72
370.264	120.83
370.474	-69.63
370.685	100.35
370.896	30.72
371.107	122.88
371.317	63.49
371.528	45.06
371.739	120.83
371.95	59.39
372.16	59.39
372.371	-4.1
372.582	-4.1
372.792	57.34
373.003	83.97
373.214	149.5
373.424	71.68
373.635	2.05
373.846	114.69
374.056	-18.43
374.267	28.67
374.477	38.91
374.688	12.29
374.898	108.54
375.109	90.11
375.319	47.1
375.53	112.64
375.74	59.39
375.951	38.91
376.161	88.06
376.372	100.35
376.582	51.2
376.793	71.68
377.003	-18.43
377.214	-28.67
377.424	16.38
377.635	38.91
377.845	24.58
378.055	143.36
378.266	32.77
378.476	63.49
378.686	57.34
378.897	0
379.107	155.65
379.317	186.37
379.528	8.19
379.738	114.69
379.948	22.53
380.158	131.07
380.369	57.34
380.579	83.97
380.789	-22.53
380.999	53.25
381.21	155.65
381.42	212.99
381.63	-2.05
381.84	118.78
382.05	106.49
382.261	61.44
382.471	106.49
382.681	-73.73
382.891	198.65
383.101	65.54
383.311	-49.15
383.521	6.14
383.731	26.62
383.941	71.68
384.151	75.77
384.361	53.25
384.571	71.68
384.781	24.58
384.991	169.98
385.201	120.83
385.411	71.68
385.621	47.1
385.831	129.02
386.041	133.12
386.251	4.1
386.461	77.82
386.671	30.72
386.881	26.62
387.091	30.72
387.301	79.87
387.511	61.44
387.72	77.82
387.93	69.63
388.14	-36.86
388.35	26.62
388.56	206.84
388.769	96.25
388.979	22.53
389.189	-94.21
389.399	-4.1
389.609	114.69
389.818	139.26
390.028	26.62
390.238	114.69
390.447	-4.1
390.657	77.82
390.867	-22.53
391.076	-34.82
391.286	63.49
391.496	-69.63
391.705	69.63
391.915	155.65
392.125	116.73
392.334	43.01
392.544	118.78
392.753	38.91
392.963	36.86
393.172	30.72
393.382	6.14
393.591	198.65
393.801	16.38
394.01	184.32
394.22	108.54
394.429	-38.91
394.639	-6.14
394.848	63.49
395.058	16.38
395.267	14.34
395.477	96.25
395.686	36.86
395.895	245.76
396.105	182.27
396.314	24.58
396.524	75.77
396.733	38.91
396.942	88.06
397.152	65.54
397.361	88.06
397.57	110.59
397.78	57.34
397.989	32.77
398.198	290.81
398.407	67.58
398.617	26.62
398.826	2.05
399.035	96.25
399.244	106.49
399.453	55.3
399.663	43.01
399.872	59.39
400.081	30.72
400.29	131.07
400.499	73.73
400.708	114.69
400.917	69.63
401.127	-24.58
401.336	28.67
401.545	196.61
401.754	165.89
401.963	73.73
402.172	30.72
402.381	-51.2
402.59	45.06
402.799	110.59
403.008	118.78
403.217	8.19
403.426	90.11
403.635	-90.11
403.844	81.92
404.053	36.86
404.262	57.34
404.471	114.69
404.68	61.44
404.888	-8.19
405.097	45.06
405.306	47.1
405.515	63.49
405.724	24.58
405.933	124.93
406.142	16.38
406.35	77.82
406.559	-24.58
406.768	-2.05
406.977	159.74
407.185	143.36
407.394	102.4
407.603	0
407.812	49.15
408.02	102.4
408.229	45.06
408.438	194.56
408.646	45.06
408.855	57.34
409.064	51.2
409.272	40.96
409.481	157.69
409.69	49.15
409.898	20.48
410.107	63.49
410.315	90.11
410.524	65.54
410.733	79.87
410.941	34.82
411.15	71.68
411.358	104.45
411.567	131.07
411.775	106.49
411.984	65.54
412.192	137.21
412.401	-2.05
412.609	163.84
412.818	147.45
413.026	83.97
413.234	16.38
413.443	65.54
413.651	20.48
413.86	-28.67
414.068	180.22
414.276	174.08
414.485	55.3
414.693	159.74
414.901	188.41
415.11	92.16
415.318	20.48
415.526	71.68
415.734	67.58
415.943	79.87
416.151	81.92
416.359	20.48
416.567	88.06
416.776	102.4
416.984	88.06
417.192	268.28
417.4	20.48
417.608	8.19
417.817	-8.19
418.025	143.36
418.233	178.17
418.441	-18.43
418.649	-16.38
418.857	120.83
419.065	151.55
419.273	0
419.481	139.26
419.689	104.45
419.897	57.34
420.105	-24.58
420.313	90.11
420.521	106.49
420.729	110.59
420.937	24.58
421.145	14.34
421.353	131.07
421.561	194.56
421.769	77.82
421.977	75.77
422.185	124.93
422.393	14.34
422.601	151.55
422.809	47.1
423.017	90.11
423.224	45.06
423.432	184.32
423.64	110.59
423.848	114.69
424.056	-47.1
424.263	77.82
424.471	73.73
424.679	110.59
424.887	-22.53
425.094	145.41
425.302	75.77
425.51	122.88
425.718	133.12
425.925	69.63
426.133	-26.62
426.341	157.69
426.548	51.2
426.756	116.73
426.964	149.5
427.171	69.63
427.379	92.16
427.586	143.36
427.794	137.21
428.001	256
428.209	55.3
428.417	210.94
428.624	139.26
428.832	94.21
429.039	69.63
429.247	153.6
429.454	202.75
429.662	270.33
429.869	163.84
430.076	184.32
430.284	139.26
430.491	333.82
430.699	182.27
430.906	208.89
431.114	194.56
431.321	167.93
431.528	104.45
431.736	133.12
431.943	202.75
432.15	194.56
432.358	268.28
432.565	319.48
432.772	118.78
432.979	270.33
433.187	139.26
433.394	186.37
433.601	145.41
433.808	352.25
434.016	331.77
434.223	272.38
434.43	212.99
434.637	339.96
434.844	354.3
435.052	202.75
435.259	282.62
435.466	423.93
435.673	344.06
435.88	350.2
436.087	448.51
436.294	378.87
436.501	393.21
436.708	393.21
436.915	382.97
437.122	395.26
437.329	280.57
437.537	356.35
437.743	401.4
437.95	516.09
438.157	415.74
438.364	415.74
438.571	462.84
438.778	618.49
438.985	497.66
439.192	542.71
439.399	499.7
439.606	679.93
439.813	618.49
440.02	776.18
440.227	823.28
440.433	626.68
440.64	632.82
440.847	659.45
441.054	761.84
441.261	837.62
441.467	786.42
441.674	837.62
441.881	743.41
442.088	759.8
442.294	948.21
442.501	1066.99
442.708	991.22
442.914	1058.8
443.121	1032.18
443.328	1077.23
443.534	1206.25
443.741	1146.86
443.948	1107.95
444.154	1185.77
444.361	1355.76
444.568	1261.55
444.774	1286.12
444.981	1245.17
445.187	1447.91
445.394	1540.07
445.6	1474.54
445.807	1630.18
446.013	1587.18
446.22	1691.62
446.426	1728.49
446.633	1918.95
446.839	2133.98
447.046	1806.31
447.252	1990.63
447.459	2164.7
447.665	2066.4
447.871	2326.49
448.078	2351.07
448.284	2486.23
448.491	2516.95
448.697	2588.63
448.903	2828.24
449.11	2840.53
449.316	2867.16
449.522	3125.2
449.728	3145.68
449.935	3198.93
450.141	3303.37
450.347	3538.89
450.553	3389.39
450.76	3477.45
450.966	3758.02
451.172	3835.85
451.378	3903.43
451.584	4052.93
451.791	4485.05
451.997	4401.08
452.203	4583.35
452.409	4810.68
452.615	4962.23
452.821	4798.39
453.027	4943.8
453.233	5603.24
453.44	5316.53
453.646	5779.37
453.852	5898.15
454.058	6234.02
454.264	6328.22
454.47	6602.65
454.676	6834.07
454.882	7366.54
455.088	7069.59
455.294	7466.89
455.5	7970.69
455.705	8402.82
455.911	8554.37
456.117	8783.74
456.323	8834.94
456.529	8865.66
456.735	9881.45
456.941	10180.45
457.147	10610.53
457.352	10553.18
457.558	11269.97
457.764	11872.07
457.97	12097.35
458.176	12408.64
458.381	13221.69
458.587	13457.2
458.793	13760.3
458.999	13944.62
459.204	15869.71
459.41	16068.36
459.616	16125.71
459.821	17219.32
460.027	17813.23
460.233	18392.81
460.438	18458.34
460.644	19683.03
460.85	20039.37
461.055	20715.2
461.261	21587.64
461.466	21462.71
461.672	21743.28
461.878	24505.99
462.083	23817.88
462.289	24436.36
462.494	25347.71
462.7	25200.26
462.905	25935.48
463.111	27719.26
463.316	29425.22
463.522	29969.97
463.727	31010.34
463.932	32163.35
464.138	33531.39
464.343	34897.39
464.549	34485.75
464.754	37230.02
464.959	37860.8
465.165	38864.3
465.37	38469.04
465.575	38679.99
465.781	40852.88
465.986	41813.38
466.191	41788.8
466.397	42288.51
466.602	40973.71
466.807	43431.27
467.012	43951.46
467.218	45161.81
467.423	45020.5
467.628	46222.65
467.833	48375.07
468.038	47617.32
468.244	46763.32
468.449	48997.65
468.654	48284.96
468.859	48289.06
469.064	47588.65
469.269	47084.85
469.474	47506.73
469.679	48641.31
469.885	47437.1
470.09	48383.26
470.295	47977.76
470.5	47101.23
470.705	47248.69
470.91	46038.34
471.115	45794.63
471.32	46800.18
471.525	46189.89
471.73	44875.09
471.935	44823.89
472.139	42935.66
472.344	43056.49
472.549	42503.54
472.754	42073.47
472.959	41385.35
473.164	39570.85
473.369	39091.63
473.574	40580.5
473.778	39882.14
473.983	38698.42
474.188	38151.61
474.393	36263.38
474.598	36529.62
474.802	35347.94
475.007	35192.29
475.212	34905.58
475.417	33576.45
475.621	33023.5
475.826	32828.94
476.031	31753.76
476.235	31170.08
476.44	31579.68
476.645	30588.46
476.849	30381.62
477.054	29685.31
477.259	28919.37
477.463	29124.16
477.668	28427.85
477.872	28466.77
478.077	27213.41
478.282	26470
478.486	26449.52
478.691	26220.14
478.895	26064.5
479.1	25644.66
479.304	25695.86
479.509	24856.2
479.713	24948.36
479.918	24280.72
480.122	24235.66
480.326	24241.81
480.531	24041.11
480.735	23613.08
480.94	23529.11
481.144	24202.89
481.348	22916.77
481.553	23627.42
481.757	22382.25
481.961	22732.45
482.166	22982.31
482.37	22443.69
482.574	22064.82
482.778	22034.1
482.983	22320.81
483.187	21962.42
483.391	21683.89
483.595	21262.01
483.8	21231.29
484.004	21208.76
484.208	21208.76
484.412	21020.35
484.616	20319.95
484.821	20332.23
485.025	19650.26
485.229	20158.16
485.433	19367.64
485.637	19472.09
485.841	19261.15
486.045	18945.76
486.249	18753.25
486.453	18333.42
486.657	18450.15
486.861	18151.15
487.065	17221.37
487.269	17284.86
487.473	16539.4
487.677	17078.01
487.881	17045.24
488.085	16320.26
488.289	16183.05
488.493	15675.15
488.697	15623.95
488.901	15263.51
489.105	14800.67
489.309	14542.63
489.512	14503.71
489.716	14321.45
489.92	14106.41
490.124	13786.93
490.328	13780.78
490.531	13489.97
490.735	13328.18
490.939	12947.26
491.143	12472.13
491.346	12355.4
491.55	12250.95
491.754	12021.58
491.958	12015.43
492.161	11677.52
492.365	11587.41
492.569	11165.53
492.772	11198.29
492.976	10985.3
493.18	10755.93
493.383	10813.27
493.587	10571.61
493.79	10555.23
493.994	10309.47
494.197	10043.24
494.401	10078.05
494.605	10073.96
494.808	10166.12
495.012	9690.99
495.215	9981.8
495.419	9744.24
495.622	9645.93
495.825	9570.16
496.029	9365.36
496.232	9600.88
496.436	9402.22
496.639	9547.63
496.843	9404.27
497.046	9383.79
497.249	9541.49
497.453	9502.58
497.656	9133.94
497.859	9361.27
498.063	9404.27
498.266	9496.43
498.469	9287.54
498.673	9389.94
498.876	9566.06
499.079	9623.41
499.282	9353.07
499.485	10053.48
499.689	9508.72
499.892	9717.61
500.095	9543.53
500.298	9688.94
500.501	9637.74
500.705	9946.98
500.908	10174.31
501.111	10088.29
501.314	10354.53
501.517	10510.18
501.72	10284.9
501.923	10256.23
502.126	10450.78
502.329	10704.73
502.532	10870.62
502.735	10827.61
502.938	11091.8
503.141	11044.7
503.344	11108.18
503.547	11491.15
503.75	11319.12
503.953	11622.22
504.156	11865.93
504.359	11953.99
504.562	12023.62
504.765	12377.92
504.968	12547.9
505.17	12838.72
505.373	13061.94
505.576	13113.14
505.779	13166.39
505.982	13311.8
506.185	13907.76
506.387	13774.64
506.59	14112.55
506.793	14413.6
506.996	14458.66
507.198	15066.91
507.401	15087.39
507.604	15392.53
507.807	15732.5
508.009	16215.82
508.212	16346.89
508.415	16430.85
508.617	16824.06
508.82	17352.44
509.022	17481.46
509.225	18271.98
509.428	18282.22
509.63	18702.05
509.833	18927.33
510.035	19715.8
510.238	19660.5
510.44	20330.19
510.643	20774.6
510.845	21421.75
511.048	21872.31
511.25	22296.24
511.453	22511.27
511.655	23449.24
511.858	23686.81
512.06	24211.09
512.262	24882.82
512.465	24827.53
512.667	25726.58
512.87	26183.28
513.072	26799.72
513.274	27639.39
513.477	27926.1
513.679	28646.99
513.881	29382.21
514.084	30273.07
514.286	30178.87
514.488	31403.55
514.69	31995.42
514.893	32810.51
515.095	33058.31
515.297	34268.66
515.499	34207.22
515.701	35120.62
515.904	36126.17
516.106	37203.4
516.308	37483.97
516.51	38077.88
516.712	38778.29
516.914	39902.62
517.116	40455.57
517.318	41141.64
517.52	41522.57
517.722	42300.79
517.925	43169.13
518.127	44234.08
518.329	45000.02
518.531	44821.84
518.733	46017.86
518.935	47105.33
519.136	47492.4
519.338	48235.81
519.54	49122.58
519.742	49902.85
519.944	50158.85
520.146	51389.68
520.348	51633.39
520.55	51965.16
520.752	52497.63
520.954	53712.08
521.155	53576.91
521.357	54660.29
521.559	55319.73
521.761	56609.95
521.963	56046.76
522.164	56925.34
522.366	57392.28
522.568	57918.6
522.77	58045.58
522.971	58715.26
523.173	58846.33
523.375	59167.87
523.576	59348.09
523.778	59012.22
523.98	60273.77
524.181	60224.62
524.383	60306.54
524.584	60828.77
524.786	60775.52
524.988	60066.92
525.189	61078.62
525.391	61310.04
525.592	61211.74
525.794	61533.27
525.995	60740.71
526.197	60890.21
526.398	60761.18
526.6	60879.97
526.801	60929.12
527.003	60597.35
527.204	60494.95
527.406	60718.18
527.607	60640.35
527.808	60171.37
528.01	59100.28
528.211	59065.47
528.412	59450.48
528.614	59147.39
528.815	58446.98
529.016	58844.29
529.218	57332.89
529.419	57103.51
529.62	56718.49
529.822	56100.01
530.023	55915.69
530.224	55227.57
530.425	54777.02
530.626	53767.37
530.828	53290.19
531.029	53818.57
531.23	52368.61
531.431	51948.78
531.632	52122.85
531.833	51295.47
532.035	50177.28
532.236	50029.83
532.437	49591.56
532.638	48444.7
532.839	48207.14
533.04	47572.27
533.241	46626.1
533.442	47007.03
533.643	45858.12
533.844	45337.93
534.045	45032.78
534.246	43758.95
534.447	43986.27
534.648	42947.95
534.849	42478.97
535.05	41551.24
535.251	41397.64
535.451	40572.31
535.652	40490.39
535.853	39636.39
536.054	39155.11
536.255	38809.01
536.456	37950.91
536.657	38020.54
536.857	37103.05
537.058	36326.87
537.259	36138.46
537.46	35517.92
537.66	34934.25
537.861	35317.22
538.062	34186.74
538.263	33779.2
538.463	33367.55
538.664	33150.47
538.865	32738.83
539.065	32374.29
539.266	31686.17
539.466	31761.95
539.667	30844.46
539.868	30774.83
540.068	30316.08
540.269	29941.3
540.469	29957.69
540.67	29212.23
540.87	29120.07
541.071	28436.05
541.271	28221.01
541.472	28012.12
541.672	27561.56
541.873	27092.58
542.073	26730.09
542.274	27217.5
542.474	26678.89
542.675	25974.39
542.875	26009.2
543.075	25382.52
543.276	24977.03
543.476	25439.87
543.676	24536.71
543.877	24626.82
544.077	24155.79
544.277	24053.39
544.478	23656.09
544.678	23500.44
544.878	23350.94
545.078	22855.33
545.279	22648.49
545.479	22030
545.679	22421.16
545.879	21905.07
546.079	21638.84
546.28	21034.69
546.48	21087.93
546.68	21018.3
546.88	20661.96
547.08	20506.31
547.28	20184.78
547.48	19650.26
547.68	19820.24
547.88	19269.34
548.081	19044.06
548.281	19011.29
548.481	18536.17
548.681	18382.57
548.881	18243.31
549.081	18052.84
549.28	17618.68
549.48	17372.92
549.68	17559.28
549.88	17221.37
550.08	16731.9
550.28	16563.97
550.48	16445.19
550.68	16451.33
550.88	15894.29
551.08	15462.16
551.279	15546.13
551.479	15378.2
551.679	15005.47
551.879	14782.24
552.079	14802.72
552.278	14520.1
552.478	14231.33
552.678	14092.07
552.878	14155.56
553.077	13571.89
553.277	13117.24
553.477	13279.03
553.676	13168.44
553.876	12730.17
554.076	12459.84
554.275	12281.67
554.475	11970.38
554.674	12093.26
554.874	11933.51
555.074	11427.67
555.273	11528.02
555.473	11349.84
555.672	11036.5
555.872	11050.84
556.071	10983.26
556.271	10579.81
556.47	10407.78
556.67	10225.51
556.869	10164.07
557.068	9820.01
557.268	9717.61
557.467	9830.25
557.667	9516.91
557.866	9375.6
558.065	9162.61
558.265	9131.89
558.464	9027.45
558.663	8998.77
558.863	8468.35
559.062	8591.23
559.261	8255.36
559.461	8329.09
559.66	8161.16
559.859	7872.39
560.058	7907.21
560.258	7577.48
560.457	7368.59
560.656	7536.52
560.855	7243.67
561.054	7411.6
561.253	7104.4
561.453	7171.99
561.652	7010.2
561.851	6764.44
562.05	6743.96
562.249	6457.25
562.448	6588.32
562.647	6367.13
562.846	6236.06
563.045	6373.28
563.244	6027.17
563.443	6094.75
563.642	5803.94
563.841	5883.81
564.04	5627.82
564.239	5736.36
564.438	5404.59
564.637	5380.01
564.836	5511.08
565.035	5304.24
565.234	5304.24
565.432	5164.98
565.631	5140.4
565.83	5048.24
566.029	4951.99
566.228	4884.41
566.427	4943.8
566.625	4863.93
566.824	4724.66
567.023	4763.58
567.222	4392.89
567.42	4483
567.619	4446.14
567.818	4341.69
568.016	4569.02
568.215	4292.54
568.414	4284.35
568.612	4102.08
568.811	4016.07
569.01	4059.07
569.208	3903.43
569.407	4050.88
569.605	3856.33
569.804	3661.77
570.002	3739.59
570.201	3571.66
570.4	3698.63
570.598	3465.16
570.797	3588.04
570.995	3465.16
571.193	3444.68
571.392	3334.09
571.59	3246.03
571.789	3409.87
571.987	3379.15
572.186	3317.71
572.384	3110.86
572.582	3123.15
572.781	3192.78
572.979	2990.03
573.177	2955.22
573.376	2930.64
573.574	2959.31
573.772	2955.22
573.971	2713.56
574.169	2658.26
574.367	2742.23
574.565	2629.59
574.763	2633.69
574.962	2531.29
575.16	2572.25
575.358	2533.34
575.556	2547.67
575.754	2340.83
575.952	2269.15
576.151	2435.03
576.349	2334.68
576.547	2220
576.745	2283.49
576.943	2224.09
577.141	2234.33
577.339	2144.22
577.537	2017.25
577.735	2176.99
577.933	2070.5
578.131	1931.23
578.329	2054.11
578.527	1939.43
578.725	2037.73
578.923	1742.82
579.121	1933.28
579.319	1732.58
579.516	1798.12
579.714	1904.61
579.912	1806.31
580.11	1695.72
580.308	1701.86
580.506	1632.23
580.704	1538.02
580.901	1523.69
581.099	1669.09
581.297	1722.34
581.495	1611.75
581.692	1513.45
581.89	1669.09
582.088	1624.04
582.285	1441.77
582.483	1396.71
582.681	1511.4
582.878	1490.92
583.076	1472.49
583.274	1363.95
583.471	1521.64
583.669	1314.8
583.866	1284.08
584.064	1253.36
584.262	1114.1
584.459	1226.73
584.657	1249.26
584.854	1208.3
585.052	1196.01
585.249	1187.82
585.447	1271.79
585.644	978.93
585.841	1247.21
586.039	1241.07
586.236	1171.44
586.434	1093.62
586.631	1007.6
586.828	1060.85
587.026	1048.56
587.223	858.1
587.42	970.74
587.618	1017.84
587.815	1073.14
588.012	1017.84
588.21	1032.18
588.407	1003.5
588.604	1124.33
588.801	837.62
588.999	823.28
589.196	1066.99
589.393	948.21
589.59	940.02
589.787	987.12
589.984	958.45
590.182	915.44
590.379	884.72
590.576	854
590.773	907.25
590.97	815.09
591.167	970.74
591.364	935.92
591.561	808.95
591.758	1032.18
591.955	894.96
592.152	901.11
592.349	733.17
592.546	813.04
592.743	886.77
592.94	776.18
593.137	827.38
593.334	931.83
593.531	798.71
593.727	802.8
593.924	831.48
594.121	749.56
594.318	856.05
594.515	966.64
594.712	1019.89
594.908	915.44
595.105	792.56
595.302	925.68
595.499	894.96
595.696	1060.85
595.892	976.88
596.089	1091.57
596.286	819.19
596.482	1062.9
596.679	1140.72
596.876	1077.23
597.072	1114.1
597.269	1077.23
597.466	1105.9
597.662	1169.39
597.859	1142.77
598.055	1249.26
598.252	1263.6
598.448	1357.8
598.645	1384.43
598.841	1476.59
599.038	1507.31
599.234	1521.64
599.431	1548.26
599.627	1544.17
599.824	1705.96
600.02	1669.09
600.217	1818.6
600.413	1796.07
600.609	1992.67
600.806	2246.62
601.002	2107.36
601.198	2146.27
601.395	2242.53
601.591	2392.03
601.787	2488.28
601.984	2523.1
602.18	2715.61
602.376	2543.58
602.572	2834.39
602.769	2858.96
602.965	2912.21
603.161	3182.54
603.357	3186.64
603.553	3338.19
603.75	3356.62
603.946	3585.99
604.142	3612.62
604.338	3825.61
604.534	3891.14
604.73	3942.34
604.926	4208.58
605.122	4265.92
605.318	4233.15
605.514	4417.47
605.71	4609.98
605.906	4886.45
606.102	4839.35
606.298	5052.34
606.494	5246.9
606.69	5484.46
606.886	5654.44
607.082	5449.64
607.278	5838.76
607.474	6076.32
607.67	6197.15
607.866	6283.17
608.062	6565.79
608.257	6643.61
608.453	6832.02
608.649	7053.2
608.845	6985.62
609.041	7456.65
609.236	7845.77
609.432	7876.49
609.628	8189.83
609.824	8286.08
610.019	8447.87
610.215	8685.44
610.411	9328.5
610.606	9353.07
610.802	9449.33
610.998	9838.44
611.193	10073.96
611.389	10049.38
611.584	10620.77
611.78	10354.53
611.976	10962.78
612.171	11538.26
612.367	11552.59
612.562	11896.65
612.758	12025.67
612.953	12363.59
613.149	12965.69
613.344	13080.38
613.539	13414.2
613.735	13944.62
613.93	14350.12
614.126	14581.54
614.321	15091.48
614.517	15634.19
614.712	15728.4
614.907	16264.97
615.103	16719.62
615.298	16758.53
615.493	17364.73
615.688	17833.71
615.884	18790.11
616.079	18702.05
616.274	19396.31
616.47	19926.74
616.665	20250.31
616.86	20694.72
617.055	21206.72
617.25	21827.25
617.445	22363.82
617.641	22978.21
617.836	23713.43
618.031	23576.22
618.226	24766.09
618.421	25034.37
618.616	25644.66
618.811	25671.29
619.006	26945.12
619.201	27045.48
619.396	27835.99
619.591	28360.27
619.786	29328.96
619.981	29572.67
620.176	30748.2
620.371	30823.98
620.566	32083.48
620.761	31688.22
620.956	33209.86
621.151	33127.94
621.346	34555.38
621.541	34477.55
621.735	36062.68
621.93	35816.93
622.125	36705.74
622.32	37019.08
622.515	38034.88
622.709	38823.34
622.904	39558.56
623.099	40191.39
623.294	41203.08
623.488	41194.89
623.683	42306.94
623.878	42429.82
624.072	43558.25
624.267	44387.67
624.462	44655.96
624.656	45450.57
624.851	46159.17
625.046	46683.45
625.24	47521.07
625.435	47891.75
625.629	48827.67
625.824	49001.75
626.018	49767.69
626.213	49796.36
626.407	50748.67
626.602	50820.34
626.796	51899.62
626.991	52229.35
627.185	52286.69
627.38	52927.7
627.574	53155.03
627.768	53220.56
627.963	54072.52
628.157	53552.33
628.352	54746.3
628.546	53302.48
628.74	54719.68
628.935	53931.21
629.129	54277.32
629.323	53843.15
629.517	53718.22
629.712	53134.55
629.906	53007.58
630.1	52444.38
630.294	51999.97
630.489	51739.88
630.683	51193.07
630.877	50031.88
631.071	49108.24
631.265	48698.65
631.459	47721.77
631.653	46669.11
631.848	46183.74
632.042	44653.91
632.236	44111.2
632.43	42163.58
632.624	41987.46
632.818	40240.54
633.012	39167.4
633.206	37944.76
633.4	37119.43
633.594	35526.11
633.788	34502.13
633.982	33404.42
634.176	32228.88
634.369	30842.41
634.563	30060.09
634.757	28376.65
634.951	27899.48
635.145	26547.82
635.339	25722.49
635.533	24647.3
635.726	23539.35
635.92	22218.41
636.114	21702.32
636.308	20790.98
636.501	20068.05
636.695	19461.85
636.889	18503.4
637.083	17415.93
637.276	17112.83
637.47	16297.74
637.664	15546.13
637.857	15302.42
638.051	14262.05
638.244	13877.04
638.438	13107
638.632	12640.06
638.825	12273.48
639.019	11761.48
639.212	11140.95
639.406	10936.15
639.599	10325.86
639.793	10252.13
639.986	9633.65
640.18	9176.95
640.373	8929.14
640.567	8558.46
640.76	8220.55
640.954	7915.4
641.147	7692.17
641.34	7440.27
641.534	7147.41
641.727	6891.41
641.92	6770.58
642.114	6377.37
642.307	6010.79
642.5	5793.7
642.694	5488.56
642.887	5341.1
643.08	5427.12
643.273	5103.54
643.467	4741.05
643.66	4644.79
643.853	4454.33
644.046	4169.66
644.239	4087.75
644.432	3852.23
644.626	3794.89
644.819	3540.94
645.012	3645.38
645.205	3446.73
645.398	3297.23
645.591	3108.82
645.784	2891.73
645.977	2764.76
646.17	2791.38
646.363	2818.01
646.556	2465.75
646.749	2357.21
646.942	2432.99
647.135	2279.39
647.328	2160.61
647.521	2256.86
647.714	1990.63
647.907	2047.97
648.099	1871.84
648.292	1955.81
648.485	1734.63
648.678	1636.33
648.871	1570.79
649.064	1646.57
649.256	1482.73
649.449	1388.52
649.642	1351.66
649.835	1320.94
650.027	1140.72
650.22	1314.8
650.413	1187.82
650.605	1224.69
650.798	1114.1
650.991	1110
651.183	983.02
651.376	1048.56
651.568	1107.95
651.761	929.78
651.954	995.31
652.146	813.04
652.339	917.49
652.531	983.02
652.724	731.12
652.916	731.12
653.109	649.21
653.301	819.19
653.494	749.56
653.686	770.04
653.879	759.8
654.071	696.31
654.263	628.73
654.456	591.86
654.648	720.88
654.84	657.4
655.033	530.42
655.225	696.31
655.417	493.56
655.61	628.73
655.802	495.61
655.994	587.77
656.186	473.08
656.379	509.94
656.571	370.68
656.763	401.4
656.955	428.03
657.148	382.97
657.34	503.8
657.532	333.82
657.724	468.98
657.916	456.7
658.108	421.88
658.3	393.21
658.492	456.7
658.684	417.79
658.876	434.17
659.068	286.72
659.26	278.52
659.452	241.66
659.644	270.33
659.836	417.79
660.028	354.3
660.22	251.9
660.412	282.62
660.604	309.24
660.796	286.72
660.988	352.25
661.18	270.33
661.372	319.48
661.563	284.67
661.755	268.28
661.947	204.8
662.139	235.52
662.331	262.14
662.522	192.51
662.714	196.61
662.906	245.76
663.097	174.08
663.289	163.84
663.481	143.36
663.673	262.14
663.864	221.18
664.056	264.19
664.247	131.07
664.439	321.53
664.631	192.51
664.822	247.8
665.014	174.08
665.205	124.93
665.397	178.17
665.588	237.56
665.78	73.73
665.971	237.56
666.163	124.93
666.354	200.7
666.546	118.78
666.737	131.07
666.929	124.93
667.12	145.41
667.311	274.43
667.503	157.69
667.694	139.26
667.885	65.54
668.077	174.08
668.268	79.87
668.459	169.98
668.651	163.84
668.842	129.02
669.033	88.06
669.224	159.74
669.416	323.58
669.607	169.98
669.798	43.01
669.989	208.89
670.18	120.83
670.371	149.5
670.563	69.63
670.754	206.84
670.945	206.84
671.136	161.79
671.327	53.25
671.518	215.04
671.709	235.52
671.9	212.99
672.091	292.86
672.282	86.01
672.473	57.34
672.664	206.84
672.855	92.16
673.046	149.5
673.237	188.41
673.428	174.08
673.619	221.18
673.809	186.37
674	235.52
674.191	253.95
674.382	137.21
674.573	163.84
674.764	169.98
674.954	221.18
675.145	124.93
675.336	92.16
675.527	77.82
675.717	100.35
675.908	161.79
676.099	163.84
676.289	190.46
676.48	100.35
676.671	126.97
676.861	86.01
677.052	133.12
677.243	63.49
677.433	145.41
677.624	153.6
677.814	200.7
678.005	102.4
678.195	278.52
678.386	59.39
678.576	77.82
678.767	137.21
678.957	114.69
679.148	184.32
679.338	231.42
679.529	299
679.719	112.64
679.909	192.51
680.1	264.19
680.29	167.93
680.481	4.1
680.671	202.75
680.861	182.27
681.052	262.14
681.242	143.36
681.432	108.54
681.622	204.8
681.813	12.29
682.003	167.93
682.193	104.45
682.383	163.84
682.573	243.71
682.764	114.69
682.954	253.95
683.144	260.09
683.334	147.45
683.524	172.03
683.714	153.6
683.904	194.56
684.094	116.73
684.284	161.79
684.474	331.77
684.664	301.05
684.854	206.84
685.044	98.3
685.234	165.89
685.424	145.41
685.614	126.97
685.804	323.58
685.994	206.84
686.184	227.32
686.374	204.8
686.564	172.03
686.753	210.94
686.943	161.79
687.133	188.41
687.323	163.84
687.513	253.95
687.702	260.09
687.892	135.17
688.082	282.62
688.272	282.62
688.461	221.18
688.651	389.11
688.841	256
689.03	161.79
689.22	143.36
689.41	225.28
689.599	282.62
689.789	131.07
689.979	319.48
690.168	155.65
690.358	241.66
690.547	235.52
690.737	219.13
690.926	192.51
691.116	227.32
691.305	290.81
691.495	319.48
691.684	110.59
691.874	112.64
692.063	192.51
692.252	190.46
692.442	251.9
692.631	161.79
692.82	141.31
693.01	217.08
693.199	184.32
693.388	147.45
693.578	186.37
693.767	198.65
693.956	245.76
694.146	182.27
694.335	204.8
694.524	174.08
694.713	256
694.902	190.46
695.092	73.73
695.281	264.19
695.47	165.89
695.659	135.17
695.848	157.69
696.037	135.17
696.226	292.86
696.415	178.17
696.604	331.77
696.793	303.1
696.982	86.01
697.171	221.18
697.36	131.07
697.549	231.42
697.738	110.59
697.927	57.34
698.116	88.06
698.305	313.34
698.494	188.41
698.683	96.25
698.872	301.05
699.061	186.37
699.25	176.13
699.438	188.41
699.627	110.59
699.816	239.61
700.005	110.59
700.193	122.88
700.382	194.56
700.571	198.65
700.76	223.23
700.948	219.13
701.137	278.52
701.326	253.95
701.514	122.88
701.703	180.22
701.892	174.08
702.08	321.53
702.269	126.97
702.457	116.73
702.646	116.73
702.834	167.93
703.023	202.75
703.212	196.61
703.4	178.17
703.589	100.35
703.777	53.25
703.965	112.64
704.154	165.89
704.342	118.78
704.531	145.41
704.719	155.65
704.907	342.01
705.096	149.5
705.284	131.07
705.472	100.35
705.661	212.99
705.849	243.71
706.037	278.52
706.226	147.45
706.414	186.37
706.602	147.45
706.79	231.42
706.979	106.49
707.167	106.49
707.355	38.91
707.543	194.56
707.731	215.04
707.919	190.46
708.107	137.21
708.296	110.59
708.484	167.93
708.672	229.37
708.86	286.72
709.048	122.88
709.236	100.35
709.424	198.65
709.612	143.36
709.8	16.38
709.988	139.26
710.176	282.62
710.364	202.75
710.551	235.52
710.739	104.45
710.927	126.97
711.115	174.08
711.303	239.61
711.491	204.8
711.679	116.73
711.866	243.71
712.054	110.59
712.242	223.23
712.43	159.74
712.617	153.6
712.805	169.98
712.993	227.32
713.181	122.88
713.368	210.94
713.556	147.45
713.744	118.78
713.931	346.11
714.119	253.95
714.306	174.08
714.494	206.84
714.682	137.21
714.869	75.77
715.057	102.4
715.244	110.59
715.432	206.84
715.619	135.17
715.807	139.26
715.994	104.45
716.182	108.54
716.369	286.72
716.556	227.32
716.744	59.39
716.931	139.26
717.119	202.75
717.306	182.27
717.493	307.2
717.681	98.3
717.868	92.16
718.055	198.65
718.242	217.08
718.43	262.14
718.617	253.95
718.804	94.21
718.991	301.05
719.179	262.14
719.366	208.89
719.553	143.36
719.74	147.45
719.927	200.7
720.114	161.79
720.301	153.6
720.488	73.73
720.676	110.59
720.863	331.77
721.05	331.77
721.237	196.61
721.424	239.61
721.611	202.75
721.798	102.4
721.985	163.84
722.172	196.61
722.358	200.7
722.545	233.47
722.732	174.08
722.919	305.15
723.106	256
723.293	161.79
723.48	251.9
723.667	147.45
723.853	266.24
724.04	225.28
724.227	235.52
724.414	198.65
724.6	258.04
724.787	385.02
724.974	337.91
725.161	198.65
725.347	120.83
725.534	253.95
725.72	172.03
725.907	301.05
726.094	253.95
726.28	43.01
726.467	221.18
726.653	116.73
726.84	303.1
727.027	317.44
727.213	241.66
727.4	249.85
727.586	227.32
727.773	274.43
727.959	237.56
728.145	299
728.332	249.85
728.518	165.89
728.705	325.63
728.891	264.19
729.077	272.38
729.264	161.79
729.45	212.99
729.636	303.1
729.823	202.75
730.009	335.87
730.195	204.8
730.382	311.29
730.568	131.07
730.754	172.03
730.94	135.17
731.126	208.89
731.313	309.24
731.499	129.02
731.685	288.76
731.871	253.95
732.057	235.52
732.243	215.04
732.429	219.13
732.615	274.43
732.801	243.71
732.987	307.2
733.173	206.84
733.359	235.52
733.545	272.38
733.731	237.56
733.917	337.91
734.103	192.51
734.289	288.76
734.475	165.89
734.661	389.11
734.847	159.74
735.033	178.17
735.219	321.53
735.404	188.41
735.59	219.13
735.776	256
735.962	266.24
736.148	286.72
736.333	313.34
736.519	155.65
736.705	225.28
736.89	229.37
737.076	200.7
737.262	163.84
737.447	190.46
737.633	157.69
737.819	294.91
738.004	262.14
738.19	204.8
738.375	243.71
738.561	260.09
738.747	208.89
738.932	137.21
739.118	331.77
739.303	221.18
739.489	258.04
739.674	239.61
739.859	188.41
740.045	321.53
740.23	225.28
740.416	151.55
740.601	225.28
740.786	301.05
740.972	180.22
741.157	106.49
741.342	149.5
741.528	131.07
741.713	299
741.898	305.15
742.084	229.37
742.269	219.13
742.454	212.99
742.639	268.28
742.824	247.8
743.01	342.01
743.195	337.91
743.38	159.74
743.565	227.32
743.75	165.89
743.935	194.56
744.12	301.05
744.305	186.37
744.49	190.46
744.675	239.61
744.86	151.55
745.045	299
745.23	215.04
745.415	188.41
745.6	286.72
745.785	221.18
745.97	253.95
746.155	212.99
746.34	327.67
746.525	167.93
746.71	321.53
746.895	180.22
747.079	151.55
747.264	204.8
747.449	200.7
747.634	241.66
747.819	206.84
748.003	190.46
748.188	73.73
748.373	311.29
748.557	225.28
748.742	208.89
748.927	215.04
749.111	149.5
749.296	194.56
749.481	260.09
749.665	192.51
749.85	182.27
750.034	208.89
750.219	227.32
750.404	241.66
750.588	135.17
750.773	106.49
750.957	161.79
751.141	69.63
751.326	219.13
751.51	163.84
751.695	133.12
751.879	112.64
752.064	305.15
752.248	227.32
752.432	202.75
752.617	135.17
752.801	309.24
752.985	139.26
753.17	258.04
753.354	149.5
753.538	157.69
753.722	145.41
753.907	83.97
754.091	65.54
754.275	137.21
754.459	116.73
754.643	86.01
754.828	163.84
755.012	174.08
755.196	77.82
755.38	155.65
755.564	59.39
755.748	102.4
755.932	157.69
756.116	335.87
756.3	278.52
756.484	120.83
756.668	190.46
756.852	110.59
757.036	92.16
757.22	235.52
757.404	151.55
757.588	96.25
757.772	172.03
757.956	143.36
758.14	206.84
758.323	40.96
758.507	149.5
758.691	98.3
758.875	153.6
759.059	174.08
759.242	96.25
759.426	145.41
759.61	149.5
759.794	40.96
759.977	174.08
760.161	342.01
760.345	174.08
760.528	153.6
760.712	188.41
760.895	163.84
761.079	47.1
761.263	32.77
761.446	20.48
761.63	110.59
761.813	163.84
761.997	-22.53
762.18	61.44
762.364	188.41
762.547	-53.25
762.731	40.96
762.914	-6.14
763.098	83.97
763.281	108.54
763.464	57.34
763.648	83.97
763.831	63.49
764.015	47.1
764.198	94.21
764.381	4.1
764.564	92.16
764.748	45.06
764.931	149.5
765.114	108.54
765.297	112.64
765.481	-36.86
765.664	71.68
765.847	73.73
766.03	188.41
766.213	-4.1
766.397	18.43
766.58	83.97
766.763	47.1
766.946	83.97
767.129	145.41
767.312	-20.48
767.495	67.58
767.678	32.77
767.861	100.35
768.044	81.92
768.227	129.02
768.41	43.01
768.593	102.4
768.776	90.11
768.959	92.16
769.142	114.69
769.324	77.82
769.507	49.15
769.69	45.06
769.873	53.25
770.056	276.48
770.239	67.58
770.421	188.41
770.604	155.65
770.787	61.44
770.97	108.54
771.152	59.39
771.335	135.17
771.518	-32.77
771.7	186.37
771.883	110.59
772.066	-10.24
772.248	86.01
772.431	169.98
772.613	141.31
772.796	106.49
772.978	102.4
773.161	192.51
773.343	83.97
773.526	51.2
773.708	-86.01
773.891	-28.67
774.073	6.14
774.256	-34.82
774.438	233.47
774.621	79.87
774.803	38.91
774.985	38.91
775.168	129.02
775.35	65.54
775.532	61.44
775.715	-28.67
775.897	98.3
776.079	22.53
776.261	116.73
776.444	59.39
776.626	112.64
776.808	-20.48
776.99	20.48
777.173	137.21
777.355	18.43
777.537	69.63
777.719	40.96
777.901	16.38
778.083	108.54
778.265	55.3
778.447	100.35
778.629	10.24
778.811	45.06
778.993	161.79
779.175	106.49
779.357	47.1
779.539	-20.48
779.721	34.82
779.903	-12.29
780.085	53.25
780.267	-2.05
780.449	53.25
780.631	86.01
780.812	126.97
780.994	55.3
781.176	90.11
781.358	69.63
781.54	30.72
781.721	79.87
781.903	53.25
782.085	55.3
782.267	86.01
782.448	-98.3
782.63	69.63
782.812	51.2
782.993	75.77
783.175	149.5
783.357	18.43
783.538	120.83
783.72	34.82
783.901	-8.19
784.083	120.83
784.264	75.77
784.446	-69.63
784.627	-47.1
784.809	94.21
784.99	53.25
785.172	61.44
785.353	-20.48
785.535	75.77
785.716	10.24
785.897	-135.17
786.079	14.34
786.26	34.82
786.441	-2.05
786.623	-94.21
786.804	-10.24
786.985	40.96
787.167	98.3
787.348	-24.58
787.529	20.48
787.71	118.78
787.891	24.58
788.073	-16.38
788.254	-61.44
788.435	155.65
788.616	38.91
788.797	-6.14
788.978	34.82
789.159	45.06
789.34	-16.38
789.522	18.43
789.703	-32.77
789.884	90.11
790.065	59.39
790.246	196.61
790.427	2.05
790.607	110.59
790.788	2.05
790.969	6.14
791.15	67.58
791.331	-14.34
791.512	-57.34
791.693	-18.43
791.874	51.2
792.054	194.56
792.235	161.79
792.416	-26.62
792.597	-28.67
792.778	43.01
792.958	34.82
793.139	47.1
793.32	47.1
793.5	-45.06
793.681	98.3
793.862	104.45
794.042	122.88
794.223	-83.97
794.404	-86.01
794.584	-12.29
794.765	-4.1
794.945	81.92
795.126	28.67
795.306	110.59
795.487	92.16
795.667	-22.53
795.848	-36.86
796.028	24.58
796.209	6.14
796.389	32.77
796.57	55.3
796.75	38.91
796.93	-14.34
797.111	16.38
797.291	-4.1
797.471	98.3
797.652	-49.15
797.832	30.72
798.012	20.48
798.192	26.62
798.373	-45.06
798.553	12.29
798.733	40.96
798.913	2.05
799.093	26.62
799.274	-6.14
799.454	40.96
799.634	67.58
799.814	114.69
799.994	32.77
800.174	55.3
800.354	36.86
800.534	-98.3
800.714	90.11
800.894	-49.15
801.074	-100.35
801.254	-22.53
801.434	135.17
801.614	-30.72
801.794	-10.24
801.974	1667.05
802.154	-24.58
802.334	30.72
802.514	-65.53
802.693	38.91
802.873	16.38
803.053	108.54
803.233	114.69
803.413	2.05
803.592	-94.21
803.772	-43.01
803.952	22.53
804.131	-4.1
804.311	43.01
804.491	34.82
804.67	-28.67
804.85	-28.67
805.03	-77.82
805.209	129.02
805.389	18.43
805.568	61.44
805.748	28.67
805.928	6.14
806.107	40.96
806.287	75.77
806.466	-4.1
806.646	-26.62
806.825	28.67
807.004	-26.62
807.184	40.96
807.363	81.92
807.543	22.53
807.722	-90.11
807.901	110.59
808.081	57.34
808.26	-163.84
808.439	75.77
808.619	-26.62
808.798	-40.96
808.977	0
809.156	47.1
809.336	-8.19
809.515	-8.19
809.694	-65.53
809.873	0
810.052	12.29
810.231	59.39
810.411	6.14
810.59	47.1
810.769	-22.53
810.948	139.26
811.127	-159.74
811.306	-65.53
811.485	-14.34
811.664	161.79
811.843	53.25
812.022	24.58
812.201	8.19
812.38	4.1
812.559	-18.43
812.737	63.49
812.916	63.49
813.095	-36.86
813.274	14.34
813.453	0
813.632	116.73
813.811	28.67
813.989	-79.87
814.168	36.86
814.347	-133.12
814.526	-51.2
814.704	129.02
814.883	65.54
815.062	4.1
815.24	49.15
815.419	-24.58
815.598	-22.53
815.776	-102.4
815.955	18.43
816.133	-61.44
816.312	-22.53
816.49	-57.34
816.669	16.38
816.847	-18.43
817.026	22.53
817.204	14.34
817.383	-26.62
817.561	-69.63
817.74	77.82
817.918	-30.72
818.097	-2.05
818.275	-65.53
818.453	24.58
818.632	-28.67
818.81	6.14
818.988	-57.34
819.167	-12.29
819.345	77.82
819.523	-4.1
819.701	-6.14
819.879	14.34
820.058	45.06
820.236	-45.06
820.414	-14.34
820.592	28.67
820.77	-38.91
820.948	-106.49
821.127	10.24
821.305	40.96
821.483	-81.92
821.661	116.73
821.839	43.01
822.017	-83.97
822.195	6.14
822.373	129.02
822.551	-2.05
822.729	116.73
822.907	-30.72
823.085	2.05
823.262	-12.29
823.44	-104.45
823.618	-6.14
823.796	-45.06
823.974	-20.48
824.152	-69.63
824.329	-8.19
824.507	57.34
824.685	92.16
824.863	2.05
825.04	-45.06
825.218	55.3
825.396	67.58
825.574	6.14
825.751	8.19
825.929	16.38
826.107	-96.25
826.284	26.62
826.462	47.1
826.639	-65.53
826.817	6.14
826.994	0
827.172	-55.3
827.349	90.11
827.527	30.72
827.704	-6.14
827.882	59.39
828.059	92.16
828.237	-30.72
828.414	79.87
828.591	-30.72
828.769	51.2
828.946	-32.77
829.124	28.67
829.301	88.06
829.478	-49.15
829.655	22.53
829.833	-20.48
830.01	-59.39
830.187	77.82
830.364	69.63
830.542	18.43
830.719	153.6
830.896	34.82
831.073	55.3
831.25	49.15
831.427	61.44
831.604	24.58
831.782	-26.62
831.959	14.34
832.136	-4.1
832.313	-30.72
832.49	-14.34
832.667	26.62
832.844	-26.62
833.021	94.21
833.198	45.06
833.374	67.58
833.551	55.3
833.728	2.05
833.905	102.4
834.082	-106.49
834.259	12.29
834.436	83.97
834.612	-53.25
834.789	4.1
834.966	34.82
835.143	79.87
835.319	-45.06
835.496	8.19
835.673	38.91
835.85	59.39
836.026	-2.05
836.203	63.49
836.38	-26.62
836.556	18.43
836.733	-57.34
836.909	147.45
837.086	-12.29
837.262	-67.58
837.439	-63.49
837.616	-92.16
837.792	-43.01
837.968	38.91
838.145	-169.98
838.321	10.24
838.498	73.73
838.674	73.73
838.851	57.34
839.027	-18.43
839.203	-24.58
839.38	18.43
839.556	-131.07
839.732	-51.2
839.909	-51.2
840.085	67.58
840.261	-122.88
840.437	40.96
840.614	-2.05
840.79	30.72
840.966	104.45
841.142	6.14
841.318	-16.38
841.494	53.25
841.671	108.54
841.847	-24.58
842.023	-20.48
842.199	55.3
842.375	81.92
842.551	-147.45
842.727	-30.72
842.903	69.63
843.079	-153.6
843.255	110.59
843.431	-55.3
843.607	32.77
843.783	-118.78
843.959	104.45
844.134	-59.39
844.31	73.73
844.486	-45.06
844.662	-20.48
844.838	-16.38
845.013	53.25
845.189	86.01
845.365	38.91
845.541	-18.43
845.716	14.34
845.892	108.54
846.068	28.67
846.244	-36.86
846.419	40.96
846.595	-83.97
846.77	-49.15
846.946	-6.14
847.122	-22.53
847.297	-90.11
847.473	161.79
847.648	-28.67
847.824	49.15
847.999	-51.2
848.175	-45.06
848.35	36.86
848.526	129.02
848.701	106.49
848.876	0
849.052	69.63
849.227	-73.73
849.403	-18.43
849.578	-34.82
849.753	43.01
849.929	51.2
850.104	40.96
850.279	-12.29
850.454	69.63
850.63	6.14
850.805	-28.67
850.98	14.34
851.155	26.62
851.33	-8.19
851.505	30.72
851.681	116.73
851.856	2.05
852.031	8.19
852.206	57.34
852.381	-49.15
852.556	-51.2
852.731	63.49
852.906	34.82
853.081	32.77
853.256	145.41
853.431	32.77
853.606	-55.3
853.781	-94.21
853.956	-63.49
854.131	26.62
854.305	4.1
854.48	-51.2
854.655	-26.62
854.83	-45.06
855.005	6.14
855.18	-53.25
855.354	-2.05
855.529	30.72
855.704	-26.62
855.879	38.91
856.053	-96.25
856.228	8.19
856.403	-110.59
856.577	83.97
856.752	-47.1
856.926	-53.25
857.101	-36.86
857.276	-88.06
857.45	-26.62
857.625	51.2
857.799	-16.38
857.974	6.14
858.148	-18.43
858.323	40.96
858.497	-43.01
858.672	-51.2
858.846	16.38
859.02	36.86
859.195	-22.53
859.369	-43.01
859.543	-12.29
859.718	-12.29
859.892	8.19
860.066	-45.06
860.241	10.24
860.415	-69.63
860.589	-67.58
860.763	63.49
860.938	-75.77
861.112	-2.05
861.286	75.77
861.46	-83.97
861.634	0
861.808	57.34
861.982	-92.16
862.157	-116.73
862.331	-28.67
862.505	-122.88
862.679	-28.67
862.853	-63.49
863.027	-43.01
863.201	155.65
863.375	12.29
863.549	45.06
863.722	75.77
863.896	67.58
864.07	-14.34
864.244	-63.49
864.418	20.48
864.592	-43.01
864.766	-12.29
864.939	38.91
865.113	-49.15
865.287	57.34
865.461	-77.82
865.634	-4.1
865.808	-20.48
865.982	-28.67
866.156	-32.77
866.329	-184.32
866.503	-45.06
866.676	47.1
866.85	28.67
867.024	-30.72
867.197	55.3
867.371	30.72
867.544	-8.19
867.718	-59.39
867.891	114.69
868.065	-83.97
868.238	32.77
868.412	73.73
868.585	14.34
868.759	-34.82
868.932	-51.2
869.105	-112.64
869.279	24.58
869.452	-57.34
869.625	8.19
869.799	-24.58
869.972	-106.49
870.145	43.01
870.319	65.54
870.492	-129.02
870.665	-49.15
870.838	-55.3
871.011	-153.6
871.185	-40.96
871.358	-92.16
871.531	65.54
871.704	-16.38
871.877	-36.86
872.05	-65.53
872.223	-73.73
872.396	34.82
872.569	-2.05
872.742	-65.53
872.915	22.53
873.088	45.06
873.261	-83.97
873.434	32.77
873.607	-38.91
873.78	143.36
873.953	-38.91
874.126	-20.48
874.299	-2.05
874.471	-34.82
874.644	-36.86
874.817	59.39
874.99	92.16
875.163	-51.2
875.335	-34.82
875.508	-18.43
875.681	81.92
875.853	-53.25
876.026	-24.58
876.199	71.68
876.371	55.3
876.544	-47.1
876.717	-61.44
876.889	-65.53
877.062	0
877.234	-83.97
877.407	-55.3
877.579	26.62
877.752	34.82
877.924	34.82
878.097	47.1
878.269	-12.29
878.442	67.58
878.614	38.91
878.786	-49.15
878.959	14.34
879.131	32.77
879.303	-86.01
879.476	0
879.648	40.96
879.82	-51.2
879.993	-47.1
880.165	-59.39
880.337	-57.34
880.509	63.49
880.681	-69.63
880.854	-45.06
881.026	0
881.198	163.84
881.37	16.38
881.542	-22.53
881.714	-32.77
881.886	22.53
882.058	0
882.23	20.48
882.402	-30.72
882.574	-10.24
882.746	6.14
882.918	126.97
883.09	-16.38
883.262	4.1
883.434	30.72
883.606	-79.87
883.778	2.05
883.95	149.5
884.122	2.05
884.293	-18.43
884.465	8.19
884.637	-4.1
884.809	-83.97
884.98	-32.77
885.152	20.48
885.324	59.39
885.496	6.14
885.667	16.38
885.839	-75.77
886.011	77.82
886.182	-8.19
886.354	-10.24
886.525	2.05
886.697	20.48
886.869	-116.73
887.04	4.1
887.212	116.73
887.383	139.26
887.555	-34.82
887.726	-43.01
887.897	-100.35
888.069	-2.05
888.24	38.91
888.412	14.34
888.583	12.29
888.754	0
888.926	-57.34
889.097	-55.3
889.268	-83.97
889.44	20.48
889.611	-92.16
889.782	-79.87
889.953	-63.49
890.125	94.21
890.296	-90.11
890.467	-10.24
890.638	-122.88
890.809	-12.29
890.98	-79.87
891.151	69.63
891.323	43.01
891.494	-20.48
891.665	10.24
891.836	43.01
892.007	43.01
892.178	-24.58
892.349	71.68
892.52	-10.24
892.691	43.01
892.862	-69.63
893.032	-67.58
893.203	-59.39
893.374	-28.67
893.545	67.58
893.716	-49.15
893.887	4.1
894.057	-61.44
894.228	67.58
894.399	-28.67
894.57	163.84
894.74	49.15
894.911	83.97
895.082	-8.19
895.253	-59.39
895.423	-12.29
895.594	6.14
895.764	20.48
895.935	-71.68
896.106	-57.34
896.276	-77.82
896.447	30.72
896.617	-79.87
896.788	-114.69
896.958	-14.34
897.129	34.82
897.299	28.67
897.47	155.65
897.64	20.48
897.81	-10.24
897.981	24.58
898.151	-28.67
898.322	65.54
898.492	14.34
898.662	-49.15
898.832	-12.29
899.003	-26.62
899.173	38.91
899.343	-73.73
899.513	-55.3
