Data from USB4F104151__230__11-06-17-525.txt Node

Date: Wed Feb 26 11:06:17 EST 2025
User: louis
Spectrometer: USB4F10415
Trigger mode: 4
Integration Time (sec): 1.000000E-1
Scans to average: 1
Electric dark correction enabled: true
Nonlinearity correction enabled: false
Boxcar width: 0
XAxis mode: Wavelengths
Number of Pixels in Spectrum: 3648
>>>>>Begin Spectral Data<<<<<
178.204	-408.4
178.424	-408.4
178.644	-408.4
178.864	-387.92
179.084	-400.21
179.304	50.35
179.524	-47.96
179.744	-19.29
179.964	27.82
180.184	17.58
180.404	23.72
180.624	-60.24
180.844	1.19
181.064	-62.29
181.283	62.63
181.503	-37.72
181.723	44.2
181.943	-56.15
182.163	162.98
182.383	52.39
182.602	66.73
182.822	115.88
183.042	64.68
183.262	101.55
183.482	15.53
183.701	-25.43
183.921	58.54
184.141	-37.72
184.361	19.63
184.58	103.59
184.8	7.34
185.02	-45.91
185.239	109.74
185.459	54.44
185.679	160.94
185.898	-95.06
186.118	62.63
186.338	33.96
186.557	93.35
186.777	-47.96
186.997	-39.76
187.216	-0.85
187.436	124.07
187.655	-2.9
187.875	150.7
188.095	-15.19
188.314	124.07
188.534	181.42
188.753	7.34
188.973	144.55
189.192	109.74
189.412	-29.52
189.631	50.35
189.851	33.96
190.07	193.7
190.29	-45.91
190.509	-80.72
190.729	83.11
190.948	138.41
191.168	214.18
191.387	7.34
191.607	11.43
191.826	103.59
192.045	3.24
192.265	-41.81
192.484	11.43
192.704	56.49
192.923	-64.34
193.142	169.13
193.362	97.45
193.581	48.3
193.8	70.83
194.02	40.11
194.239	76.97
194.458	60.59
194.678	-43.86
194.897	15.53
195.116	7.34
195.335	89.26
195.555	1.19
195.774	5.29
195.993	101.55
196.212	13.48
196.432	50.35
196.651	21.67
196.87	95.4
197.089	246.95
197.308	19.63
197.528	105.64
197.747	19.63
197.966	-2.9
198.185	193.7
198.404	-68.44
198.623	62.63
198.842	89.26
199.062	165.03
199.281	130.22
199.5	93.35
199.719	72.87
199.938	56.49
200.157	158.89
200.376	52.39
200.595	132.26
200.814	50.35
201.033	-31.57
201.252	154.79
201.471	25.77
201.69	124.07
201.909	-0.85
202.128	158.89
202.347	74.92
202.566	19.63
202.785	-109.4
203.004	19.63
203.223	242.85
203.442	25.77
203.661	-78.68
203.879	54.44
204.098	111.78
204.317	-33.62
204.536	144.55
204.755	31.91
204.974	99.5
205.193	25.77
205.411	111.78
205.63	91.31
205.849	11.43
206.068	-4.95
206.287	36.01
206.505	117.93
206.724	60.59
206.943	-39.76
207.162	-27.48
207.381	54.44
207.599	7.34
207.818	-9.05
208.037	40.11
208.255	42.15
208.474	81.07
208.693	50.35
208.911	15.53
209.13	132.26
209.349	160.94
209.567	79.02
209.786	50.35
210.005	126.12
210.223	44.2
210.442	-62.29
210.661	44.2
210.879	36.01
211.098	33.96
211.316	85.16
211.535	46.25
211.753	128.17
211.972	1.19
212.191	46.25
212.409	-27.48
212.628	117.93
212.846	13.48
213.065	72.87
213.283	117.93
213.502	29.87
213.72	29.87
213.938	31.91
214.157	-11.09
214.375	93.35
214.594	-29.52
214.812	42.15
215.031	17.58
215.249	19.63
215.467	-39.76
215.686	42.15
215.904	52.39
216.122	46.25
216.341	128.17
216.559	103.59
216.778	179.37
216.996	83.11
217.214	33.96
217.432	-25.43
217.651	-11.09
217.869	17.58
218.087	79.02
218.306	-52.05
218.524	5.29
218.742	1.19
218.96	158.89
219.179	13.48
219.397	76.97
219.615	292.01
219.833	128.17
220.051	-93.01
220.27	179.37
220.488	130.22
220.706	64.68
220.924	-4.95
221.142	46.25
221.36	31.91
221.578	48.3
221.796	58.54
222.015	52.39
222.233	99.5
222.451	58.54
222.669	111.78
222.887	99.5
223.105	13.48
223.323	66.73
223.541	9.39
223.759	56.49
223.977	52.39
224.195	156.84
224.413	68.78
224.631	99.5
224.849	46.25
225.067	148.65
225.285	3.24
225.503	25.77
225.721	-111.44
225.939	111.78
226.157	52.39
226.375	197.8
226.592	62.63
226.81	56.49
227.028	93.35
227.246	150.7
227.464	-4.95
227.682	87.21
227.9	83.11
228.117	3.24
228.335	74.92
228.553	17.58
228.771	-15.19
228.989	31.91
229.206	62.63
229.424	40.11
229.642	-45.91
229.86	7.34
230.077	113.83
230.295	33.96
230.513	81.07
230.731	23.72
230.948	167.08
231.166	119.98
231.384	-19.29
231.601	-17.24
231.819	193.7
232.037	-35.67
232.254	83.11
232.472	33.96
232.689	23.72
232.907	113.83
233.125	-2.9
233.342	60.59
233.56	68.78
233.777	42.15
233.995	40.11
234.213	210.09
234.43	40.11
234.648	68.78
234.865	-19.29
235.083	60.59
235.3	89.26
235.518	44.2
235.735	138.41
235.953	132.26
236.17	79.02
236.388	56.49
236.605	105.64
236.822	148.65
237.04	130.22
237.257	44.2
237.475	-31.57
237.692	15.53
237.909	138.41
238.127	-50
238.344	50.35
238.562	-2.9
238.779	-76.63
238.996	-29.52
239.214	122.02
239.431	109.74
239.648	-0.85
239.865	83.11
240.083	122.02
240.3	85.16
240.517	33.96
240.735	7.34
240.952	138.41
241.169	46.25
241.386	44.2
241.603	13.48
241.821	-4.95
242.038	101.55
242.255	81.07
242.472	-56.15
242.689	162.98
242.907	95.4
243.124	-0.85
243.341	91.31
243.558	23.72
243.775	-4.95
243.992	-68.44
244.209	81.07
244.426	68.78
244.643	58.54
244.86	66.73
245.078	119.98
245.295	36.01
245.512	66.73
245.729	-93.01
245.946	81.07
246.163	105.64
246.38	-35.67
246.597	9.39
246.814	23.72
247.031	46.25
247.248	1.19
247.464	113.83
247.681	64.68
247.898	54.44
248.115	64.68
248.332	7.34
248.549	179.37
248.766	171.18
248.983	97.45
249.2	42.15
249.417	115.88
249.633	-21.33
249.85	58.54
250.067	36.01
250.284	91.31
250.501	122.02
250.717	140.46
250.934	21.67
251.151	-25.43
251.368	5.29
251.585	-15.19
251.801	109.74
252.018	-31.57
252.235	36.01
252.451	-17.24
252.668	-7
252.885	44.2
253.102	91.31
253.318	44.2
253.535	64.68
253.752	36.01
253.968	1.19
254.185	-111.44
254.401	83.11
254.618	128.17
254.835	-52.05
255.051	113.83
255.268	119.98
255.484	54.44
255.701	50.35
255.917	19.63
256.134	23.72
256.351	36.01
256.567	-9.05
256.784	1.19
257	-31.57
257.217	38.06
257.433	158.89
257.65	46.25
257.866	199.85
258.082	-39.76
258.299	-19.29
258.515	-19.29
258.732	11.43
258.948	27.82
259.165	52.39
259.381	-58.2
259.597	81.07
259.814	64.68
260.03	46.25
260.246	-0.85
260.463	46.25
260.679	158.89
260.895	81.07
261.112	7.34
261.328	101.55
261.544	-25.43
261.761	156.84
261.977	40.11
262.193	-7
262.409	105.64
262.626	74.92
262.842	-0.85
263.058	42.15
263.274	58.54
263.49	76.97
263.707	58.54
263.923	64.68
264.139	-68.44
264.355	19.63
264.571	107.69
264.787	56.49
265.004	132.26
265.22	74.92
265.436	23.72
265.652	-35.67
265.868	83.11
266.084	-19.29
266.3	64.68
266.516	-0.85
266.732	33.96
266.948	5.29
267.164	42.15
267.38	56.49
267.596	97.45
267.812	193.7
268.028	7.34
268.244	-29.52
268.46	31.91
268.676	52.39
268.892	1.19
269.108	-39.76
269.324	36.01
269.54	-9.05
269.756	140.46
269.972	-84.82
270.188	42.15
270.403	-68.44
270.619	-0.85
270.835	111.78
271.051	56.49
271.267	-47.96
271.483	-43.86
271.698	136.36
271.914	29.87
272.13	85.16
272.346	54.44
272.562	97.45
272.777	136.36
272.993	15.53
273.209	3.24
273.425	66.73
273.64	-54.1
273.856	99.5
274.072	23.72
274.287	13.48
274.503	109.74
274.719	56.49
274.934	-9.05
275.15	-45.91
275.366	54.44
275.581	11.43
275.797	-23.38
276.012	105.64
276.228	40.11
276.444	1.19
276.659	162.98
276.875	-33.62
277.09	11.43
277.306	38.06
277.521	165.03
277.737	23.72
277.952	122.02
278.168	23.72
278.383	46.25
278.599	117.93
278.814	60.59
279.03	46.25
279.245	136.36
279.461	111.78
279.676	160.94
279.892	-31.57
280.107	38.06
280.322	27.82
280.538	126.12
280.753	-0.85
280.969	-15.19
281.184	83.11
281.399	136.36
281.615	11.43
281.83	72.87
282.045	-11.09
282.26	27.82
282.476	64.68
282.691	79.02
282.906	54.44
283.122	42.15
283.337	-4.95
283.552	99.5
283.767	-45.91
283.983	81.07
284.198	68.78
284.413	29.87
284.628	-41.81
284.843	72.87
285.058	17.58
285.274	21.67
285.489	-72.53
285.704	117.93
285.919	-60.24
286.134	-2.9
286.349	13.48
286.564	21.67
286.779	128.17
286.995	72.87
287.21	-84.82
287.425	68.78
287.64	3.24
287.855	21.67
288.07	-68.44
288.285	160.94
288.5	113.83
288.715	38.06
288.93	1.19
289.145	-33.62
289.36	101.55
289.575	-2.9
289.79	89.26
290.004	-62.29
290.219	91.31
290.434	7.34
290.649	68.78
290.864	-68.44
291.079	60.59
291.294	103.59
291.509	5.29
291.724	50.35
291.938	5.29
292.153	95.4
292.368	52.39
292.583	44.2
292.798	-0.85
293.012	72.87
293.227	1.19
293.442	-68.44
293.657	136.36
293.871	130.22
294.086	33.96
294.301	187.56
294.516	119.98
294.73	40.11
294.945	-19.29
295.16	46.25
295.374	154.79
295.589	152.74
295.804	-13.14
296.018	25.77
296.233	158.89
296.447	21.67
296.662	-4.95
296.877	171.18
297.091	97.45
297.306	-11.09
297.52	13.48
297.735	70.83
297.949	13.48
298.164	5.29
298.378	46.25
298.593	-64.34
298.807	13.48
299.022	46.25
299.236	132.26
299.451	-7
299.665	5.29
299.88	21.67
300.094	48.3
300.309	66.73
300.523	64.68
300.737	7.34
300.952	85.16
301.166	36.01
301.381	-86.87
301.595	5.29
301.809	72.87
302.024	-47.96
302.238	-11.09
302.452	140.46
302.667	70.83
302.881	201.9
303.095	167.08
303.309	89.26
303.524	-21.33
303.738	29.87
303.952	25.77
304.166	95.4
304.381	-72.53
304.595	158.89
304.809	31.91
305.023	93.35
305.237	17.58
305.452	31.91
305.666	50.35
305.88	81.07
306.094	119.98
306.308	56.49
306.522	101.55
306.736	156.84
306.95	173.22
307.164	5.29
307.379	-78.68
307.593	119.98
307.807	68.78
308.021	113.83
308.235	46.25
308.449	-95.06
308.663	72.87
308.877	263.33
309.091	46.25
309.305	60.59
309.519	-70.48
309.733	148.65
309.947	-58.2
310.161	83.11
310.374	54.44
310.588	150.7
310.802	13.48
311.016	48.3
311.23	64.68
311.444	33.96
311.658	-11.09
311.872	72.87
312.085	144.55
312.299	167.08
312.513	162.98
312.727	152.74
312.941	21.67
313.154	38.06
313.368	99.5
313.582	72.87
313.796	9.39
314.009	38.06
314.223	87.21
314.437	85.16
314.651	119.98
314.864	48.3
315.078	74.92
315.292	-86.87
315.505	5.29
315.719	58.54
315.933	134.31
316.146	17.58
316.36	11.43
316.573	60.59
316.787	72.87
317.001	27.82
317.214	-35.67
317.428	5.29
317.641	13.48
317.855	1.19
318.068	58.54
318.282	46.25
318.495	177.32
318.709	56.49
318.922	13.48
319.136	158.89
319.349	103.59
319.563	-43.86
319.776	93.35
319.99	-7
320.203	33.96
320.417	52.39
320.63	76.97
320.843	134.31
321.057	138.41
321.27	103.59
321.483	48.3
321.697	152.74
321.91	36.01
322.124	97.45
322.337	97.45
322.55	-11.09
322.763	66.73
322.977	99.5
323.19	83.11
323.403	58.54
323.617	23.72
323.83	122.02
324.043	52.39
324.256	38.06
324.469	-56.15
324.683	70.83
324.896	105.64
325.109	138.41
325.322	-82.77
325.535	72.87
325.748	162.98
325.962	-39.76
326.175	89.26
326.388	85.16
326.601	150.7
326.814	-0.85
327.027	3.24
327.24	95.4
327.453	-41.81
327.666	23.72
327.879	191.66
328.092	83.11
328.305	33.96
328.518	-7
328.731	23.72
328.944	91.31
329.157	83.11
329.37	-9.05
329.583	238.76
329.796	97.45
330.009	17.58
330.222	91.31
330.435	126.12
330.648	7.34
330.861	117.93
331.073	60.59
331.286	134.31
331.499	40.11
331.712	27.82
331.925	31.91
332.138	56.49
332.35	119.98
332.563	-50
332.776	95.4
332.989	29.87
333.202	33.96
333.414	93.35
333.627	44.2
333.84	58.54
334.053	97.45
334.265	-68.44
334.478	9.39
334.691	36.01
334.903	70.83
335.116	-54.1
335.329	83.11
335.541	42.15
335.754	177.32
335.966	27.82
336.179	-4.95
336.392	-19.29
336.604	76.97
336.817	50.35
337.029	44.2
337.242	52.39
337.454	132.26
337.667	42.15
337.88	136.36
338.092	23.72
338.305	23.72
338.517	-70.48
338.729	85.16
338.942	134.31
339.154	-113.49
339.367	-39.76
339.579	52.39
339.792	15.53
340.004	167.08
340.217	38.06
340.429	95.4
340.641	50.35
340.854	-21.33
341.066	-25.43
341.278	68.78
341.491	195.75
341.703	76.97
341.915	3.24
342.128	66.73
342.34	66.73
342.552	-39.76
342.764	50.35
342.977	99.5
343.189	62.63
343.401	79.02
343.613	-82.77
343.826	-0.85
344.038	-47.96
344.25	56.49
344.462	-50
344.674	87.21
344.886	-23.38
345.099	38.06
345.311	-7
345.523	17.58
345.735	-56.15
345.947	42.15
346.159	62.63
346.371	7.34
346.583	-17.24
346.795	148.65
347.007	-45.91
347.219	74.92
347.431	60.59
347.643	234.66
347.855	56.49
348.067	113.83
348.279	-68.44
348.491	25.77
348.703	128.17
348.915	42.15
349.127	-9.05
349.339	97.45
349.551	25.77
349.763	154.79
349.975	52.39
350.187	74.92
350.399	97.45
350.61	99.5
350.822	-29.52
351.034	56.49
351.246	-15.19
351.458	154.79
351.669	83.11
351.881	189.61
352.093	154.79
352.305	113.83
352.517	89.26
352.728	111.78
352.94	27.82
353.152	79.02
353.363	-54.1
353.575	68.78
353.787	169.13
353.999	48.3
354.21	91.31
354.422	-19.29
354.633	38.06
354.845	74.92
355.057	19.63
355.268	19.63
355.48	60.59
355.692	27.82
355.903	48.3
356.115	-13.14
356.326	-76.63
356.538	162.98
356.749	64.68
356.961	197.8
357.172	23.72
357.384	-31.57
357.595	300.2
357.807	-37.72
358.018	44.2
358.23	13.48
358.441	165.03
358.653	66.73
358.864	15.53
359.075	21.67
359.287	44.2
359.498	140.46
359.709	46.25
359.921	-0.85
360.132	68.78
360.344	56.49
360.555	-80.72
360.766	23.72
360.977	-80.72
361.189	44.2
361.4	13.48
361.611	107.69
361.823	107.69
362.034	97.45
362.245	9.39
362.456	5.29
362.667	13.48
362.879	-62.29
363.09	74.92
363.301	97.45
363.512	44.2
363.723	38.06
363.935	70.83
364.146	-2.9
364.357	42.15
364.568	136.36
364.779	1.19
364.99	128.17
365.201	72.87
365.412	132.26
365.623	-43.86
365.834	93.35
366.045	103.59
366.256	79.02
366.467	48.3
366.678	27.82
366.889	124.07
367.1	64.68
367.311	167.08
367.522	64.68
367.733	128.17
367.944	169.13
368.155	29.87
368.366	23.72
368.577	124.07
368.788	128.17
368.999	54.44
369.209	70.83
369.42	222.38
369.631	236.71
369.842	66.73
370.053	31.91
370.264	91.31
370.474	-4.95
370.685	85.16
370.896	76.97
371.107	154.79
371.317	29.87
371.528	19.63
371.739	122.02
371.95	-4.95
372.16	81.07
372.371	-76.63
372.582	-97.11
372.792	54.44
373.003	95.4
373.214	54.44
373.424	81.07
373.635	-35.67
373.846	171.18
374.056	29.87
374.267	103.59
374.477	99.5
374.688	-37.72
374.898	36.01
375.109	79.02
375.319	54.44
375.53	103.59
375.74	132.26
375.951	-31.57
376.161	74.92
376.372	119.98
376.582	-33.62
376.793	122.02
377.003	7.34
377.214	31.91
377.424	179.37
377.635	105.64
377.845	64.68
378.055	208.04
378.266	-58.2
378.476	97.45
378.686	156.84
378.897	42.15
379.107	181.42
379.317	81.07
379.528	-33.62
379.738	144.55
379.948	-58.2
380.158	89.26
380.369	-25.43
380.579	74.92
380.789	5.29
380.999	52.39
381.21	115.88
381.42	169.13
381.63	5.29
381.84	148.65
382.05	95.4
382.261	126.12
382.471	97.45
382.681	-60.24
382.891	138.41
383.101	83.11
383.311	-11.09
383.521	66.73
383.731	109.74
383.941	177.32
384.151	40.11
384.361	7.34
384.571	36.01
384.781	58.54
384.991	214.18
385.201	165.03
385.411	154.79
385.621	33.96
385.831	72.87
386.041	115.88
386.251	-31.57
386.461	144.55
386.671	48.3
386.881	7.34
387.091	-2.9
387.301	177.32
387.511	46.25
387.72	56.49
387.93	122.02
388.14	3.24
388.35	115.88
388.56	171.18
388.769	177.32
388.979	72.87
389.189	-9.05
389.399	89.26
389.609	117.93
389.818	115.88
390.028	146.6
390.238	64.68
390.447	11.43
390.657	169.13
390.867	89.26
391.076	-35.67
391.286	91.31
391.496	5.29
391.705	21.67
391.915	136.36
392.125	140.46
392.334	42.15
392.544	140.46
392.753	81.07
392.963	31.91
393.172	13.48
393.382	17.58
393.591	154.79
393.801	3.24
394.01	177.32
394.22	62.63
394.429	19.63
394.639	29.87
394.848	119.98
395.058	68.78
395.267	25.77
395.477	107.69
395.686	13.48
395.895	171.18
396.105	187.56
396.314	93.35
396.524	5.29
396.733	29.87
396.942	128.17
397.152	111.78
397.361	117.93
397.57	89.26
397.78	29.87
397.989	74.92
398.198	195.75
398.407	36.01
398.617	23.72
398.826	87.21
399.035	29.87
399.244	76.97
399.453	83.11
399.663	68.78
399.872	103.59
400.081	-103.25
400.29	158.89
400.499	-41.81
400.708	144.55
400.917	-17.24
401.127	70.83
401.336	17.58
401.545	193.7
401.754	173.22
401.963	70.83
402.172	9.39
402.381	-45.91
402.59	38.06
402.799	62.63
403.008	119.98
403.217	87.21
403.426	91.31
403.635	-84.82
403.844	-2.9
404.053	42.15
404.262	58.54
404.471	199.85
404.68	-2.9
404.888	81.07
405.097	-31.57
405.306	48.3
405.515	158.89
405.724	83.11
405.933	193.7
406.142	124.07
406.35	87.21
406.559	109.74
406.768	36.01
406.977	113.83
407.185	85.16
407.394	66.73
407.603	40.11
407.812	146.6
408.02	126.12
408.229	25.77
408.438	54.44
408.646	58.54
408.855	54.44
409.064	103.59
409.272	44.2
409.481	74.92
409.69	60.59
409.898	25.77
410.107	54.44
410.315	136.36
410.524	38.06
410.733	89.26
410.941	27.82
411.15	201.9
411.358	119.98
411.567	89.26
411.775	44.2
411.984	62.63
412.192	81.07
412.401	42.15
412.609	181.42
412.818	111.78
413.026	60.59
413.234	66.73
413.443	183.46
413.651	40.11
413.86	66.73
414.068	152.74
414.276	191.66
414.485	93.35
414.693	218.28
414.901	169.13
415.11	70.83
415.318	95.4
415.526	93.35
415.734	126.12
415.943	64.68
416.151	58.54
416.359	40.11
416.567	-15.19
416.776	111.78
416.984	189.61
417.192	117.93
417.4	44.2
417.608	95.4
417.817	-45.91
418.025	175.27
418.233	117.93
418.441	-41.81
418.649	-35.67
418.857	85.16
419.065	93.35
419.273	23.72
419.481	66.73
419.689	52.39
419.897	72.87
420.105	7.34
420.313	54.44
420.521	154.79
420.729	162.98
420.937	66.73
421.145	3.24
421.353	113.83
421.561	132.26
421.769	117.93
421.977	-13.14
422.185	113.83
422.393	44.2
422.601	128.17
422.809	115.88
423.017	144.55
423.224	85.16
423.432	136.36
423.64	-17.24
423.848	169.13
424.056	46.25
424.263	144.55
424.471	99.5
424.679	152.74
424.887	-39.76
425.094	218.28
425.302	89.26
425.51	3.24
425.718	126.12
425.925	107.69
426.133	46.25
426.341	222.38
426.548	-11.09
426.756	-4.95
426.964	122.02
427.171	70.83
427.379	95.4
427.586	85.16
427.794	138.41
428.001	95.4
428.209	5.29
428.417	222.38
428.624	183.46
428.832	117.93
429.039	107.69
429.247	99.5
429.454	56.49
429.662	208.04
429.869	95.4
430.076	111.78
430.284	162.98
430.491	201.9
430.699	197.8
430.906	224.42
431.114	79.02
431.321	142.5
431.528	76.97
431.736	191.66
431.943	162.98
432.15	175.27
432.358	156.84
432.565	294.05
432.772	25.77
432.979	216.23
433.187	99.5
433.394	205.99
433.601	105.64
433.808	203.94
434.016	238.76
434.223	275.62
434.43	275.62
434.637	251.05
434.844	259.24
435.052	203.94
435.259	298.15
435.466	212.14
435.673	232.62
435.88	263.33
436.087	322.73
436.294	300.2
436.501	300.2
436.708	218.28
436.915	289.96
437.122	404.64
437.329	283.81
437.537	357.54
437.743	345.25
437.95	392.36
438.157	371.88
438.364	314.53
438.571	380.07
438.778	476.32
438.985	449.7
439.192	531.62
439.399	453.8
439.606	507.04
439.813	507.04
440.02	591.01
440.227	691.36
440.433	484.52
440.64	552.1
440.847	470.18
441.054	554.15
441.261	746.66
441.467	576.67
441.674	582.82
441.881	687.26
442.088	672.93
442.294	783.52
442.501	834.72
442.708	785.57
442.914	746.66
443.121	914.59
443.328	801.95
443.534	939.16
443.741	926.88
443.948	783.52
444.154	1029.27
444.361	1229.98
444.568	980.12
444.774	1014.94
444.981	978.08
445.187	1309.85
445.394	1186.97
445.6	1191.06
445.807	1328.28
446.013	1246.36
446.22	1248.41
446.426	1369.24
446.633	1457.3
446.839	1612.95
447.046	1352.85
447.252	1600.66
447.459	1672.34
447.665	1555.6
447.871	1823.89
448.078	1920.14
448.284	1889.42
448.491	1997.96
448.697	2038.92
448.903	2270.34
449.11	2223.24
449.316	2124.94
449.522	2329.74
449.728	2483.33
449.935	2550.92
450.141	2565.25
450.347	2796.67
450.553	2636.93
450.76	2706.56
450.966	2956.41
451.172	2978.94
451.378	3107.96
451.584	3048.57
451.791	3562.61
451.997	3501.17
452.203	3509.37
452.409	3546.23
452.615	3830.9
452.821	3691.63
453.027	3884.14
453.233	4289.64
453.44	4191.34
453.646	4500.58
453.852	4586.6
454.058	4846.69
454.264	4811.87
454.47	5295.19
454.676	5330.01
454.882	5649.49
455.088	5651.54
455.294	5813.33
455.5	6202.44
455.705	6569.03
455.911	6532.17
456.117	6663.24
456.323	6954.05
456.529	6757.44
456.735	7527.48
456.941	7771.19
457.147	7916.59
457.352	8215.6
457.558	8487.98
457.764	9008.16
457.97	9458.71
458.176	9743.38
458.381	10206.22
458.587	10103.82
458.793	10748.93
458.999	10654.73
459.204	11928.56
459.41	12719.08
459.616	12426.22
459.821	12917.73
460.027	13886.42
460.233	14373.84
460.438	14517.2
460.644	15244.23
460.85	15215.55
461.055	16133.04
461.261	16763.82
461.466	16327.6
461.672	16833.45
461.878	18969.48
462.083	18477.97
462.289	18869.13
462.494	19889.02
462.7	20034.42
462.905	20167.54
463.111	21840.73
463.316	22854.48
463.522	23575.36
463.727	23929.66
463.932	25271.08
464.138	25680.67
464.343	26784.53
464.549	27015.95
464.754	28969.71
464.959	29586.15
465.165	30048.99
465.37	30147.29
465.575	29825.76
465.781	32103.1
465.986	33067.7
466.191	32838.33
466.397	32793.27
466.602	31912.64
466.807	33815.21
467.012	34181.79
467.218	35213.97
467.423	34941.59
467.628	36051.59
467.833	38064.74
468.038	36948.6
468.244	36301.44
468.449	38355.55
468.654	37548.65
468.859	37763.69
469.064	37913.19
469.269	36938.36
469.474	37155.44
469.679	38609.5
469.885	36866.68
470.09	37395.06
470.295	37718.64
470.5	36835.96
470.705	37220.98
470.91	36248.19
471.115	36125.32
471.32	36291.2
471.525	36182.66
471.73	35007.12
471.935	34806.42
472.139	33403.56
472.344	33888.93
472.549	33553.07
472.754	32893.62
472.959	32127.68
473.164	30825.17
473.369	30816.98
473.574	31378.12
473.778	30735.06
473.983	30327.52
474.188	29915.87
474.393	28492.54
474.598	28447.48
474.802	27734.79
475.007	27501.32
475.212	27128.59
475.417	25903.9
475.621	25885.47
475.826	25467.69
476.031	24795.95
476.235	24574.77
476.44	24388.41
476.645	23737.15
476.849	23307.08
477.054	23345.99
477.259	22518.61
477.463	22831.95
477.668	21889.88
477.872	21842.78
478.077	21400.42
478.282	20859.76
478.486	20382.58
478.691	20271.99
478.895	20360.05
479.1	20009.85
479.304	19622.78
479.509	19176.33
479.713	19377.03
479.918	18770.83
480.122	18555.79
480.326	18998.15
480.531	18621.33
480.735	18502.54
480.94	18168.73
481.144	18754.44
481.348	17662.88
481.553	17851.29
481.757	17404.83
481.961	17619.87
482.166	17722.27
482.37	17660.83
482.574	16995.24
482.778	17118.12
482.983	17406.88
483.187	16864.17
483.391	16792.49
483.595	16399.28
483.8	16479.15
484.004	16282.55
484.208	16337.84
484.412	16135.09
484.616	16114.61
484.821	15934.39
485.025	15502.27
485.229	15627.2
485.433	15129.54
485.637	14963.65
485.841	14605.26
486.045	14756.81
486.249	14603.21
486.453	14169.04
486.657	13810.65
486.861	13882.33
487.065	13429.73
487.269	13161.44
487.473	12987.36
487.677	13132.77
487.881	12895.21
488.085	12540.91
488.289	12415.98
488.493	11977.72
488.697	12143.6
488.901	11750.39
489.105	11394.04
489.309	11498.49
489.512	11254.78
489.716	11068.42
489.92	10728.45
490.124	10644.49
490.328	10548.23
490.531	10167.31
490.735	10042.39
490.939	9974.8
491.143	9585.69
491.346	9632.79
491.55	9479.19
491.754	9290.78
491.958	9272.35
492.161	9098.27
492.365	9014.31
492.569	8567.85
492.772	8520.74
492.976	8457.26
493.18	8367.15
493.383	8408.11
493.587	8418.35
493.79	8358.96
493.994	7779.38
494.197	7975.98
494.401	7730.23
494.605	7541.82
494.808	7842.87
495.012	7560.25
495.215	7613.49
495.419	7834.68
495.622	7429.18
495.825	7486.52
496.029	7359.55
496.232	7437.37
496.436	7316.54
496.639	7482.42
496.843	7351.35
497.046	7408.7
497.249	7318.59
497.453	7220.28
497.656	7271.48
497.859	7429.18
498.063	7371.83
498.266	7517.24
498.469	7177.28
498.673	7222.33
498.876	7402.55
499.079	7355.45
499.282	7310.4
499.485	7629.88
499.689	7486.52
499.892	7623.73
500.095	7390.27
500.298	7572.54
500.501	7447.61
500.705	7623.73
500.908	7892.02
501.111	7787.57
501.314	7988.27
501.517	8244.27
501.72	8219.69
501.923	8096.82
502.126	8252.46
502.329	8580.14
502.532	8492.07
502.735	8569.9
502.938	8688.68
503.141	8662.05
503.344	8723.49
503.547	9042.98
503.75	9026.59
503.953	9202.72
504.156	9350.17
504.359	9432.09
504.562	9477.15
504.765	9575.45
504.968	9806.87
505.17	10019.86
505.373	10091.54
505.576	10361.87
505.779	10349.58
505.982	10380.3
506.185	10693.64
506.387	10951.68
506.59	10976.26
506.793	11334.65
506.996	11205.63
507.198	12035.06
507.401	11967.48
507.604	12293.1
507.807	12512.24
508.009	12741.61
508.212	12708.84
508.415	13274.08
508.617	13554.65
508.82	13480.92
509.022	13810.65
509.225	14324.69
509.428	14517.2
509.63	14908.36
509.833	14881.74
510.035	15803.32
510.238	15735.74
510.44	16053.17
510.643	16610.22
510.845	17144.74
511.048	16941.99
511.25	17648.54
511.453	17849.24
511.655	18895.75
511.858	18768.78
512.06	19325.83
512.262	19544.96
512.465	19774.33
512.667	20472.69
512.87	20839.28
513.072	21199.72
513.274	21842.78
513.477	22448.98
513.679	22793.04
513.881	23481.16
514.084	23989.05
514.286	24187.71
514.488	24800.05
514.69	25985.82
514.893	26010.4
515.095	26759.95
515.297	27214.6
515.499	27521.8
515.701	28427
515.904	29135.6
516.106	29223.66
516.308	30280.41
516.51	30620.38
516.712	31136.46
516.914	31720.13
517.116	32389.82
517.318	32924.34
517.52	33542.83
517.722	33882.79
517.925	34728.6
518.127	35500.68
518.329	36123.27
518.531	36295.3
518.733	37079.67
518.935	37935.72
519.136	38279.78
519.338	38963.8
519.54	39326.29
519.742	40430.15
519.944	40532.54
520.146	41601.58
520.348	41884.2
520.55	42220.07
520.752	42912.28
520.954	43577.87
521.155	43729.42
521.357	44182.02
521.559	45230.58
521.761	45822.45
521.963	45795.82
522.164	46316.01
522.366	46873.06
522.568	47055.32
522.77	47458.77
522.971	47907.28
523.173	47639
523.375	48101.84
523.576	48570.82
523.778	48818.63
523.98	49273.27
524.181	49144.25
524.383	49494.46
524.584	50090.41
524.786	50198.96
524.988	49662.39
525.189	50475.43
525.391	50334.12
525.592	50545.06
525.794	50583.97
525.995	50227.63
526.197	50428.33
526.398	50223.53
526.6	49981.87
526.801	50356.65
527.003	49947.06
527.204	49559.99
527.406	49662.39
527.607	49361.34
527.808	49863.09
528.01	48290.25
528.211	48794.05
528.412	48806.34
528.614	48292.3
528.815	48019.92
529.016	48376.26
529.218	47122.91
529.419	47094.24
529.62	46946.78
529.822	45980.14
530.023	45806.06
530.224	45378.04
530.425	44775.94
530.626	43704.85
530.828	43428.37
531.029	44077.58
531.23	42971.67
531.431	42375.72
531.632	42328.61
531.833	42078.76
532.035	40950.33
532.236	40933.95
532.437	40798.78
532.638	39570
532.839	39522.9
533.04	39613.01
533.241	38036.07
533.442	38679.13
533.643	37317.23
533.844	36792.95
534.045	36885.11
534.246	35787.4
534.447	35605.13
534.648	35199.63
534.849	34704.03
535.05	34247.33
535.251	33743.53
535.451	32965.3
535.652	32799.41
535.853	32567.99
536.054	31840.96
536.255	31584.97
536.456	31005.39
536.657	30984.91
536.857	30315.23
537.058	29879.01
537.259	29668.07
537.46	29182.7
537.66	28832.5
537.861	28433.14
538.062	27828.99
538.263	27613.96
538.463	27083.53
538.664	26880.78
538.865	26475.29
539.065	26348.31
539.266	25991.97
539.466	25944.86
539.667	25183.02
539.868	25256.75
540.068	24802.1
540.269	24439.61
540.469	24277.82
540.67	23593.79
540.87	23546.69
541.071	23405.38
541.271	23243.59
541.472	23079.75
541.672	22768.46
541.873	22106.97
542.073	21881.69
542.274	22301.53
542.474	21709.66
542.675	21224.29
542.875	21162.86
543.075	20743.02
543.276	20284.28
543.476	20710.25
543.676	20329.33
543.877	20196.21
544.077	19874.68
544.277	19581.82
544.478	19000.2
544.678	19106.7
544.878	18893.71
545.078	18756.49
545.279	18439.06
545.479	18013.08
545.679	18082.71
545.879	17836.95
546.079	17472.42
546.28	17517.47
546.48	17054.63
546.68	17044.39
546.88	16929.7
547.08	16614.32
547.28	16262.07
547.48	16102.32
547.68	16206.77
547.88	15731.64
548.081	15723.45
548.281	15469.5
548.481	15389.63
548.681	15117.25
548.881	14963.65
549.081	14934.98
549.28	14420.94
549.48	14416.85
549.68	14224.34
549.88	14234.58
550.08	13562.84
550.28	13728.73
550.48	13517.79
550.68	13140.96
550.88	12942.31
551.08	12964.84
551.279	12676.07
551.479	12555.24
551.679	12467.18
551.879	12194.8
552.079	12010.48
552.278	11766.78
552.478	11697.14
552.678	11453.44
552.878	11351.04
553.077	11199.49
553.277	10767.37
553.477	10703.88
553.676	10550.28
553.876	10325.01
554.076	10368.01
554.275	10167.31
554.475	9903.12
554.674	9960.47
554.874	9782.29
555.074	9407.52
555.273	9526.3
555.473	9106.46
555.672	8922.15
555.872	8793.12
556.071	8932.39
556.271	8725.54
556.47	8791.08
556.67	8477.74
556.869	8301.61
557.068	8164.4
557.268	7961.65
557.467	7935.03
557.667	7982.13
557.866	7719.99
558.065	7570.49
558.265	7486.52
558.464	7119.93
558.663	7015.49
558.863	7042.11
559.062	7044.16
559.261	6675.52
559.461	6870.08
559.66	6777.92
559.859	6380.62
560.058	6407.24
560.258	6208.59
560.457	6108.24
560.656	6302.79
560.855	5850.19
561.054	6065.23
561.253	5698.64
561.453	5850.19
561.652	5663.83
561.851	5631.06
562.05	5469.27
562.249	5231.71
562.448	5352.54
562.647	5332.06
562.846	5082.21
563.045	5049.44
563.244	4953.18
563.443	5145.69
563.642	4901.98
563.841	5004.38
564.04	4562.02
564.239	4627.56
564.438	4543.59
564.637	4381.8
564.836	4498.53
565.035	4310.12
565.234	4394.09
565.432	4224.11
565.631	4238.44
565.83	4191.34
566.029	3986.54
566.228	4015.21
566.427	3925.1
566.625	3685.49
566.824	3916.91
567.023	3712.11
567.222	3640.44
567.42	3611.76
567.619	3650.67
567.818	3576.95
568.016	3787.89
568.215	3378.3
568.414	3548.28
568.612	3396.73
568.811	3292.28
569.01	3351.67
569.208	3183.74
569.407	3245.18
569.605	3308.66
569.804	3173.5
570.002	3013.76
570.201	3005.56
570.4	2972.8
570.598	2940.03
570.797	2940.03
570.995	2874.49
571.193	2778.24
571.392	2798.72
571.59	2659.46
571.789	2772.1
571.987	2704.51
572.186	2745.47
572.384	2593.92
572.582	2659.46
572.781	2667.65
572.979	2321.54
573.177	2337.93
573.376	2409.61
573.574	2522.24
573.772	2325.64
573.971	2213
574.169	2176.14
574.367	2184.33
574.565	2223.24
574.763	2024.59
574.962	2043.02
575.16	2135.18
575.358	1930.38
575.556	2065.55
575.754	1911.95
575.952	1940.62
576.151	2036.88
576.349	1989.77
576.547	1809.55
576.745	1782.93
576.943	1778.83
577.141	1842.32
577.339	1719.44
577.537	1696.91
577.735	1774.74
577.933	1686.67
578.131	1557.65
578.329	1723.54
578.527	1694.86
578.725	1682.58
578.923	1414.29
579.121	1623.19
579.319	1279.13
579.516	1346.71
579.714	1537.17
579.912	1451.16
580.11	1268.89
580.308	1408.15
580.506	1414.29
580.704	1211.54
580.901	1264.79
581.099	1340.57
581.297	1338.52
581.495	1293.46
581.692	1162.39
581.89	1309.85
582.088	1275.03
582.285	1115.29
582.483	1115.29
582.681	1129.63
582.878	1191.06
583.076	1121.43
583.274	1082.52
583.471	1315.99
583.669	1000.6
583.866	953.5
584.064	1057.95
584.262	971.93
584.459	961.69
584.657	1010.84
584.854	1041.56
585.052	1027.23
585.249	984.22
585.447	990.36
585.644	879.77
585.841	1057.95
586.039	918.68
586.236	955.55
586.434	873.63
586.631	881.82
586.828	793.76
587.026	836.77
587.223	662.69
587.42	783.52
587.618	857.25
587.815	898.2
588.012	738.46
588.21	791.71
588.407	869.53
588.604	861.34
588.801	828.57
588.999	726.18
589.196	783.52
589.393	681.12
589.59	742.56
589.787	715.94
589.984	791.71
590.182	797.85
590.379	705.7
590.576	683.17
590.773	629.92
590.97	648.35
591.167	750.75
591.364	730.27
591.561	672.93
591.758	836.77
591.955	752.8
592.152	683.17
592.349	679.07
592.546	668.83
592.743	611.49
592.94	722.08
593.137	595.11
593.334	683.17
593.531	668.83
593.727	713.89
593.924	808.09
594.121	713.89
594.318	654.5
594.515	720.03
594.712	814.24
594.908	771.23
595.105	730.27
595.302	672.93
595.499	795.81
595.696	793.76
595.892	750.75
596.089	879.77
596.286	695.46
596.482	914.59
596.679	857.25
596.876	720.03
597.072	887.97
597.269	806.05
597.466	908.44
597.662	881.82
597.859	879.77
598.055	879.77
598.252	978.08
598.448	955.55
598.645	1148.06
598.841	1131.67
599.038	1127.58
599.234	1275.03
599.431	1279.13
599.627	1277.08
599.824	1373.33
600.02	1451.16
600.217	1352.85
600.413	1473.68
600.609	1469.59
600.806	1850.51
601.002	1617.04
601.198	1553.55
601.395	1680.53
601.591	1690.77
601.787	1895.57
601.984	1971.34
602.18	2022.54
602.376	2100.36
602.572	2174.09
602.769	2366.6
602.965	2196.62
603.161	2458.76
603.357	2425.99
603.553	2655.36
603.75	2684.03
603.946	2811.01
604.142	2718.85
604.338	2978.94
604.534	3085.44
604.73	3128.44
604.926	3175.55
605.122	3359.86
605.318	3406.97
605.514	3579
605.71	3527.8
605.906	3701.87
606.102	3773.55
606.298	3964.01
606.494	4066.41
606.69	4183.15
606.886	4332.65
607.082	4334.7
607.278	4484.2
607.474	4736.1
607.67	4748.39
607.866	4693.09
608.062	5071.97
608.257	5233.75
608.453	5270.62
608.649	5452.89
608.845	5502.04
609.041	5598.29
609.236	5971.02
609.432	5956.69
609.628	6282.31
609.824	6427.72
610.019	6503.5
610.215	6673.48
610.411	7021.63
610.606	7310.4
610.802	7218.24
610.998	7470.14
611.193	7705.65
611.389	7842.87
611.584	8246.32
611.78	8283.18
611.976	8410.15
612.171	8823.84
612.367	9057.31
612.562	9090.08
612.758	9083.94
612.953	9368.6
613.149	10046.48
613.344	10044.43
613.539	10370.06
613.735	10798.09
613.93	10910.72
614.126	11047.94
614.321	11557.88
614.517	11803.64
614.712	12082.16
614.907	12276.72
615.103	12657.64
615.298	13147.11
615.493	13171.68
615.688	13491.16
615.884	14248.91
616.079	14222.29
616.274	14599.12
616.47	15307.71
616.665	15348.67
616.86	15821.75
617.055	16044.98
617.25	16518.06
617.445	17036.2
617.641	17050.53
617.836	17787.8
618.031	17978.26
618.226	18957.19
618.421	18867.08
618.616	19473.28
618.811	19899.26
619.006	20415.35
619.201	20607.86
619.396	21539.68
619.591	21592.93
619.786	22383.45
619.981	22639.44
620.176	23110.47
620.371	23604.03
620.566	24113.98
620.761	24726.32
620.956	25115.44
621.151	25420.58
621.346	26503.96
621.541	26422.04
621.735	27634.44
621.93	27187.98
622.125	27771.65
622.32	28076.8
622.515	28863.22
622.709	29111.02
622.904	30016.22
623.099	30382.81
623.294	31251.15
623.488	31285.97
623.683	32205.5
623.878	32176.83
624.072	33008.31
624.267	33694.38
624.462	33821.35
624.656	34640.54
624.851	35023.51
625.046	35328.66
625.24	35994.25
625.435	36326.02
625.629	36819.58
625.824	37345.9
626.018	37798.51
626.213	37655.15
626.407	38500.96
626.602	38896.22
626.796	39264.85
626.991	39942.73
627.185	40047.18
627.38	40178.25
627.574	40133.19
627.768	40364.61
627.963	40479.3
628.157	40903.23
628.352	41339.44
628.546	40731.2
628.74	41241.14
628.935	40395.33
629.129	41065.02
629.323	40182.34
629.517	40417.86
629.712	40129.09
629.906	39909.96
630.1	39613.01
630.294	38781.53
630.489	38586.97
630.683	38320.74
630.877	37194.36
631.071	36870.78
631.265	36401.79
631.459	35480.21
631.653	35060.37
631.848	34138.79
632.042	33323.69
632.236	32774.84
632.43	31646.41
632.624	30886.61
632.818	29899.49
633.012	29203.18
633.206	27788.03
633.4	27374.34
633.594	26037.02
633.788	25606.95
633.982	24478.52
634.176	23948.09
634.369	22774.61
634.563	21891.93
634.757	20620.14
634.951	20554.61
635.145	19450.75
635.339	18713.49
635.533	17953.69
635.726	17296.29
635.92	16370.61
636.114	16133.04
636.308	15100.87
636.501	14812.1
636.695	14109.65
636.889	13431.77
637.083	12985.32
637.276	12387.31
637.47	11850.74
637.664	11314.17
637.857	10982.4
638.051	10261.52
638.244	10261.52
638.438	9759.77
638.632	9430.04
638.825	8844.32
639.019	8756.26
639.212	8150.06
639.406	8098.86
639.599	7625.78
639.793	7412.79
639.986	6984.77
640.18	6720.58
640.373	6388.81
640.567	6241.36
640.76	6026.32
640.954	5891.15
641.147	5518.42
641.34	5209.18
641.534	5203.04
641.727	5041.25
641.92	4670.56
642.114	4652.13
642.307	4346.98
642.5	4306.02
642.694	3867.76
642.887	3888.24
643.08	3943.53
643.273	3681.39
643.467	3529.84
643.66	3277.94
643.853	3200.12
644.046	3171.45
644.239	2925.69
644.432	2819.2
644.626	2643.07
644.819	2702.47
645.012	2565.25
645.205	2509.96
645.398	2411.65
645.591	2198.67
645.784	2028.68
645.977	2067.6
646.17	1952.91
646.363	1911.95
646.556	1864.85
646.749	1741.97
646.942	1795.22
647.135	1639.57
647.328	1633.43
647.521	1582.23
647.714	1426.58
647.907	1436.82
648.099	1352.85
648.292	1526.93
648.485	1266.84
648.678	1350.81
648.871	1234.07
649.064	1080.47
649.256	1033.37
649.449	984.22
649.642	894.11
649.835	957.6
650.027	955.55
650.22	1096.86
650.413	928.92
650.605	986.27
650.798	816.29
650.991	791.71
651.183	804
651.376	814.24
651.568	789.66
651.761	689.31
651.954	781.47
652.146	609.44
652.339	685.22
652.531	775.33
652.724	621.73
652.916	615.59
653.109	416.93
653.301	580.77
653.494	507.04
653.686	453.8
653.879	535.71
654.071	484.52
654.263	482.47
654.456	496.8
654.648	486.56
654.84	433.32
655.033	423.08
655.225	521.38
655.417	367.78
655.61	363.69
655.802	482.47
655.994	423.08
656.186	337.06
656.379	390.31
656.571	255.14
656.763	230.57
656.955	267.43
657.148	330.92
657.34	474.28
657.532	287.91
657.724	285.86
657.916	347.3
658.108	335.01
658.3	386.21
658.492	382.12
658.684	259.24
658.876	341.16
659.068	234.66
659.26	199.85
659.452	226.47
659.644	218.28
659.836	394.4
660.028	238.76
660.22	162.98
660.412	255.14
660.604	281.77
660.796	246.95
660.988	324.77
661.18	255.14
661.372	253.09
661.563	175.27
661.755	230.57
661.947	97.45
662.139	148.65
662.331	165.03
662.522	275.62
662.714	189.61
662.906	140.46
663.097	228.52
663.289	134.31
663.481	17.58
663.673	134.31
663.864	199.85
664.056	224.42
664.247	132.26
664.439	230.57
664.631	154.79
664.822	271.53
665.014	156.84
665.205	87.21
665.397	146.6
665.588	169.13
665.78	122.02
665.971	216.23
666.163	44.2
666.354	169.13
666.546	74.92
666.737	62.63
666.929	122.02
667.12	126.12
667.311	109.74
667.503	132.26
667.694	171.18
667.885	126.12
668.077	197.8
668.268	68.78
668.459	214.18
668.651	134.31
668.842	236.71
669.033	48.3
669.224	79.02
669.416	312.49
669.607	52.39
669.798	70.83
669.989	214.18
670.18	111.78
670.371	146.6
670.563	62.63
670.754	189.61
670.945	138.41
671.136	158.89
671.327	83.11
671.518	205.99
671.709	261.29
671.9	199.85
672.091	160.94
672.282	138.41
672.473	115.88
672.664	76.97
672.855	111.78
673.046	183.46
673.237	181.42
673.428	136.36
673.619	113.83
673.809	40.11
674	253.09
674.191	138.41
674.382	140.46
674.573	156.84
674.764	111.78
674.954	226.47
675.145	128.17
675.336	160.94
675.527	72.87
675.717	156.84
675.908	111.78
676.099	85.16
676.289	189.61
676.48	48.3
676.671	162.98
676.861	177.32
677.052	236.71
677.243	46.25
677.433	58.54
677.624	283.81
677.814	208.04
678.005	76.97
678.195	228.52
678.386	109.74
678.576	146.6
678.767	144.55
678.957	216.23
679.148	218.28
679.338	271.53
679.529	210.09
679.719	130.22
679.909	222.38
680.1	205.99
680.29	179.37
680.481	48.3
680.671	294.05
680.861	259.24
681.052	201.9
681.242	175.27
681.432	203.94
681.622	203.94
681.813	62.63
682.003	119.98
682.193	160.94
682.383	187.56
682.573	165.03
682.764	169.13
682.954	195.75
683.144	246.95
683.334	136.36
683.524	140.46
683.714	224.42
683.904	183.46
684.094	85.16
684.284	171.18
684.474	242.85
684.664	177.32
684.854	240.81
685.044	185.51
685.234	134.31
685.424	208.04
685.614	165.03
685.804	281.77
685.994	210.09
686.184	148.65
686.374	210.09
686.564	203.94
686.753	208.04
686.943	130.22
687.133	189.61
687.323	218.28
687.513	322.73
687.702	148.65
687.892	162.98
688.082	199.85
688.272	234.66
688.461	238.76
688.651	275.62
688.841	212.14
689.03	236.71
689.22	187.56
689.41	287.91
689.599	283.81
689.789	177.32
689.979	269.48
690.168	220.33
690.358	267.43
690.547	218.28
690.737	158.89
690.926	218.28
691.116	187.56
691.305	199.85
691.495	193.7
691.684	136.36
691.874	154.79
692.063	230.57
692.252	275.62
692.442	308.39
692.631	210.09
692.82	218.28
693.01	158.89
693.199	187.56
693.388	189.61
693.578	169.13
693.767	205.99
693.956	124.07
694.146	156.84
694.335	193.7
694.524	179.37
694.713	205.99
694.902	165.03
695.092	160.94
695.281	257.19
695.47	165.03
695.659	224.42
695.848	191.66
696.037	130.22
696.226	214.18
696.415	185.51
696.604	234.66
696.793	273.57
696.982	165.03
697.171	322.73
697.36	220.33
697.549	199.85
697.738	33.96
697.927	222.38
698.116	197.8
698.305	310.44
698.494	273.57
698.683	136.36
698.872	337.06
699.061	185.51
699.25	138.41
699.438	158.89
699.627	152.74
699.816	273.57
700.005	138.41
700.193	165.03
700.382	220.33
700.571	185.51
700.76	298.15
700.948	343.21
701.137	279.72
701.326	152.74
701.514	175.27
701.703	156.84
701.892	224.42
702.08	324.77
702.269	165.03
702.457	103.59
702.646	226.47
702.834	187.56
703.023	208.04
703.212	275.62
703.4	212.14
703.589	81.07
703.777	105.64
703.965	91.31
704.154	103.59
704.342	87.21
704.531	193.7
704.719	146.6
704.907	292.01
705.096	173.22
705.284	95.4
705.472	224.42
705.661	249
705.849	253.09
706.037	189.61
706.226	173.22
706.414	138.41
706.602	122.02
706.79	179.37
706.979	128.17
707.167	246.95
707.355	128.17
707.543	191.66
707.731	236.71
707.919	158.89
708.107	146.6
708.296	152.74
708.484	152.74
708.672	199.85
708.86	160.94
709.048	177.32
709.236	115.88
709.424	205.99
709.612	277.67
709.8	132.26
709.988	107.69
710.176	226.47
710.364	283.81
710.551	144.55
710.739	150.7
710.927	74.92
711.115	228.52
711.303	240.81
711.491	277.67
711.679	142.5
711.866	218.28
712.054	117.93
712.242	210.09
712.43	320.68
712.617	210.09
712.805	246.95
712.993	208.04
713.181	95.4
713.368	197.8
713.556	165.03
713.744	115.88
713.931	439.46
714.119	113.83
714.306	99.5
714.494	91.31
714.682	226.47
714.869	64.68
715.057	199.85
715.244	29.87
715.432	242.85
715.619	122.02
715.807	199.85
715.994	167.08
716.182	244.9
716.369	306.34
716.556	185.51
716.744	130.22
716.931	197.8
717.119	216.23
717.306	222.38
717.493	296.1
717.681	122.02
717.868	173.22
718.055	214.18
718.242	173.22
718.43	255.14
718.617	310.44
718.804	183.46
718.991	279.72
719.179	205.99
719.366	214.18
719.553	152.74
719.74	273.57
719.927	236.71
720.114	177.32
720.301	64.68
720.488	203.94
720.676	165.03
720.863	246.95
721.05	300.2
721.237	179.37
721.424	253.09
721.611	230.57
721.798	130.22
721.985	226.47
722.172	154.79
722.358	189.61
722.545	238.76
722.732	175.27
722.919	302.25
723.106	214.18
723.293	193.7
723.48	134.31
723.667	91.31
723.853	275.62
724.04	261.29
724.227	304.29
724.414	214.18
724.6	306.34
724.787	287.91
724.974	386.21
725.161	212.14
725.347	150.7
725.534	271.53
725.72	306.34
725.907	296.1
726.094	230.57
726.28	212.14
726.467	228.52
726.653	132.26
726.84	320.68
727.027	318.63
727.213	171.18
727.4	292.01
727.586	255.14
727.773	285.86
727.959	275.62
728.145	259.24
728.332	214.18
728.518	150.7
728.705	287.91
728.891	187.56
729.077	318.63
729.264	249
729.45	156.84
729.636	320.68
729.823	220.33
730.009	328.87
730.195	222.38
730.382	249
730.568	150.7
730.754	255.14
730.94	232.62
731.126	246.95
731.313	318.63
731.499	261.29
731.685	283.81
731.871	259.24
732.057	273.57
732.243	289.96
732.429	240.81
732.615	298.15
732.801	251.05
732.987	193.7
733.173	292.01
733.359	304.29
733.545	220.33
733.731	183.46
733.917	283.81
734.103	253.09
734.289	296.1
734.475	132.26
734.661	345.25
734.847	203.94
735.033	208.04
735.219	324.77
735.404	173.22
735.59	214.18
735.776	244.9
735.962	212.14
736.148	351.4
736.333	277.67
736.519	203.94
736.705	205.99
736.89	216.23
737.076	263.33
737.262	185.51
737.447	208.04
737.633	169.13
737.819	349.35
738.004	232.62
738.19	224.42
738.375	257.19
738.561	300.2
738.747	232.62
738.932	197.8
739.118	470.18
739.303	285.86
739.489	353.45
739.674	240.81
739.859	193.7
740.045	287.91
740.23	283.81
740.416	89.26
740.601	214.18
740.786	296.1
740.972	181.42
741.157	242.85
741.342	152.74
741.528	218.28
741.713	378.02
741.898	236.71
742.084	199.85
742.269	218.28
742.454	306.34
742.639	279.72
742.824	222.38
743.01	283.81
743.195	328.87
743.38	234.66
743.565	146.6
743.75	298.15
743.935	294.05
744.12	267.43
744.305	177.32
744.49	228.52
744.675	214.18
744.86	144.55
745.045	234.66
745.23	226.47
745.415	205.99
745.6	320.68
745.785	189.61
745.97	306.34
746.155	236.71
746.34	296.1
746.525	251.05
746.71	322.73
746.895	97.45
747.079	158.89
747.264	187.56
747.449	296.1
747.634	332.97
747.819	263.33
748.003	140.46
748.188	70.83
748.373	285.86
748.557	205.99
748.742	257.19
748.927	246.95
749.111	175.27
749.296	150.7
749.481	355.49
749.665	236.71
749.85	64.68
750.034	238.76
750.219	208.04
750.404	179.37
750.588	175.27
750.773	179.37
750.957	203.94
751.141	187.56
751.326	238.76
751.51	179.37
751.695	181.42
751.879	70.83
752.064	259.24
752.248	130.22
752.432	244.9
752.617	269.48
752.801	318.63
752.985	173.22
753.17	283.81
753.354	269.48
753.538	201.9
753.722	181.42
753.907	91.31
754.091	56.49
754.275	158.89
754.459	89.26
754.643	107.69
754.828	167.08
755.012	183.46
755.196	87.21
755.38	183.46
755.564	62.63
755.748	152.74
755.932	253.09
756.116	185.51
756.3	199.85
756.484	142.5
756.668	203.94
756.852	44.2
757.036	144.55
757.22	105.64
757.404	99.5
757.588	95.4
757.772	152.74
757.956	171.18
758.14	132.26
758.323	74.92
758.507	126.12
758.691	87.21
758.875	187.56
759.059	238.76
759.242	101.55
759.426	79.02
759.61	195.75
759.794	89.26
759.977	273.57
760.161	330.92
760.345	216.23
760.528	183.46
760.712	46.25
760.895	107.69
761.079	144.55
761.263	29.87
761.446	124.07
761.63	109.74
761.813	191.66
761.997	33.96
762.18	132.26
762.364	124.07
762.547	15.53
762.731	134.31
762.914	95.4
763.098	117.93
763.281	89.26
763.464	33.96
763.648	87.21
763.831	113.83
764.015	66.73
764.198	183.46
764.381	89.26
764.564	189.61
764.748	150.7
764.931	113.83
765.114	136.36
765.297	181.42
765.481	11.43
765.664	144.55
765.847	95.4
766.03	261.29
766.213	38.06
766.397	169.13
766.58	7.34
766.763	117.93
766.946	60.59
767.129	97.45
767.312	19.63
767.495	76.97
767.678	62.63
767.861	85.16
768.044	138.41
768.227	124.07
768.41	54.44
768.593	158.89
768.776	85.16
768.959	-19.29
769.142	191.66
769.324	113.83
769.507	95.4
769.69	91.31
769.873	115.88
770.056	269.48
770.239	87.21
770.421	126.12
770.604	76.97
770.787	111.78
770.97	119.98
771.152	-31.57
771.335	21.67
771.518	9.39
771.7	152.74
771.883	175.27
772.066	60.59
772.248	165.03
772.431	113.83
772.613	99.5
772.796	74.92
772.978	171.18
773.161	205.99
773.343	46.25
773.526	83.11
773.708	-31.57
773.891	-27.48
774.073	83.11
774.256	52.39
774.438	222.38
774.621	11.43
774.803	130.22
774.985	23.72
775.168	91.31
775.35	68.78
775.532	119.98
775.715	-9.05
775.897	103.59
776.079	48.3
776.261	-19.29
776.444	40.11
776.626	17.58
776.808	83.11
776.99	-39.76
777.173	33.96
777.355	85.16
777.537	40.11
777.719	70.83
777.901	93.35
778.083	-15.19
778.265	-17.24
778.447	25.77
778.629	-31.57
778.811	21.67
778.993	109.74
779.175	87.21
779.357	60.59
779.539	-64.34
779.721	58.54
779.903	144.55
780.085	-31.57
780.267	19.63
780.449	79.02
780.631	97.45
780.812	177.32
780.994	72.87
781.176	124.07
781.358	1.19
781.54	40.11
781.721	124.07
781.903	56.49
782.085	-4.95
782.267	171.18
782.448	-105.3
782.63	89.26
782.812	81.07
782.993	72.87
783.175	25.77
783.357	31.91
783.538	72.87
783.72	7.34
783.901	17.58
784.083	46.25
784.264	103.59
784.446	60.59
784.627	40.11
784.809	68.78
784.99	38.06
785.172	144.55
785.353	58.54
785.535	21.67
785.716	13.48
785.897	-113.49
786.079	1.19
786.26	154.79
786.441	56.49
786.623	-58.2
786.804	11.43
786.985	72.87
787.167	60.59
787.348	-4.95
787.529	36.01
787.71	158.89
787.891	56.49
788.073	-15.19
788.254	-58.2
788.435	162.98
788.616	136.36
788.797	48.3
788.978	-0.85
789.159	-19.29
789.34	66.73
789.522	29.87
789.703	-17.24
789.884	-4.95
790.065	-15.19
790.246	130.22
790.427	5.29
790.607	197.8
790.788	115.88
790.969	17.58
791.15	60.59
791.331	-50
791.512	-62.29
791.693	-72.53
791.874	23.72
792.054	171.18
792.235	146.6
792.416	-39.76
792.597	1.19
792.778	-2.9
792.958	46.25
793.139	87.21
793.32	-25.43
793.5	-95.06
793.681	109.74
793.862	87.21
794.042	11.43
794.223	36.01
794.404	-2.9
794.584	-131.92
794.765	19.63
794.945	40.11
795.126	93.35
795.306	124.07
795.487	44.2
795.667	-17.24
795.848	54.44
796.028	27.82
796.209	-7
796.389	54.44
796.57	21.67
796.75	-78.68
796.93	23.72
797.111	-23.38
797.291	31.91
797.471	74.92
797.652	54.44
797.832	-86.87
798.012	81.07
798.192	-52.05
798.373	-60.24
798.553	27.82
798.733	91.31
798.913	-7
799.093	3.24
799.274	58.54
799.454	27.82
799.634	23.72
799.814	115.88
799.994	50.35
800.174	89.26
800.354	-13.14
800.534	-68.44
800.714	54.44
800.894	1.19
801.074	-58.2
801.254	-29.52
801.434	113.83
801.614	72.87
801.794	-60.24
801.974	1799.31
802.154	40.11
802.334	29.87
802.514	-0.85
802.693	-31.57
802.873	-31.57
803.053	119.98
803.233	50.35
803.413	-52.05
803.592	-7
803.772	5.29
803.952	17.58
804.131	-78.68
804.311	81.07
804.491	169.13
804.67	-68.44
804.85	-27.48
805.03	21.67
805.209	103.59
805.389	-62.29
805.568	3.24
805.748	-56.15
805.928	31.91
806.107	48.3
806.287	79.02
806.466	11.43
806.646	-15.19
806.825	23.72
807.004	-15.19
807.184	1.19
807.363	76.97
807.543	-9.05
807.722	-97.11
807.901	99.5
808.081	52.39
808.26	-222.03
808.439	27.82
808.619	13.48
808.798	-31.57
808.977	27.82
809.156	89.26
809.336	44.2
809.515	38.06
809.694	-27.48
809.873	-9.05
810.052	5.29
810.231	105.64
810.411	31.91
810.59	56.49
810.769	31.91
810.948	23.72
811.127	-31.57
811.306	-13.14
811.485	-54.1
811.664	126.12
811.843	40.11
812.022	15.53
812.201	76.97
812.38	85.16
812.559	-45.91
812.737	7.34
812.916	-82.77
813.095	-105.3
813.274	79.02
813.453	-82.77
813.632	3.24
813.811	95.4
813.989	-113.49
814.168	13.48
814.347	-70.48
814.526	17.58
814.704	179.37
814.883	122.02
815.062	-17.24
815.24	76.97
815.419	-13.14
815.598	-9.05
815.776	-74.58
815.955	13.48
816.133	-84.82
816.312	5.29
816.49	-39.76
816.669	-21.33
816.847	-17.24
817.026	72.87
817.204	3.24
817.383	-0.85
817.561	7.34
817.74	5.29
817.918	58.54
818.097	-74.58
818.275	-68.44
818.453	9.39
818.632	95.4
818.81	-21.33
818.988	-23.38
819.167	-70.48
819.345	70.83
819.523	-9.05
819.701	56.49
819.879	89.26
820.058	87.21
820.236	-19.29
820.414	54.44
820.592	-17.24
820.77	-74.58
820.948	-41.81
821.127	-9.05
821.305	-31.57
821.483	-47.96
821.661	17.58
821.839	13.48
822.017	-66.39
822.195	25.77
822.373	89.26
822.551	-21.33
822.729	42.15
822.907	-9.05
823.085	122.02
823.262	54.44
823.44	-93.01
823.618	27.82
823.796	-31.57
823.974	-15.19
824.152	-17.24
824.329	5.29
824.507	23.72
824.685	85.16
824.863	-15.19
825.04	81.07
825.218	5.29
825.396	-9.05
825.574	-15.19
825.751	27.82
825.929	72.87
826.107	-95.06
826.284	17.58
826.462	13.48
826.639	-43.86
826.817	-50
826.994	-0.85
827.172	-39.76
827.349	181.42
827.527	33.96
827.704	-45.91
827.882	113.83
828.059	-13.14
828.237	-4.95
828.414	33.96
828.591	-144.21
828.769	-0.85
828.946	64.68
829.124	70.83
829.301	132.26
829.478	-0.85
829.655	-4.95
829.833	64.68
830.01	-82.77
830.187	-15.19
830.364	-25.43
830.542	-31.57
830.719	64.68
830.896	36.01
831.073	101.55
831.25	62.63
831.427	74.92
831.604	54.44
831.782	-13.14
831.959	-7
832.136	-11.09
832.313	-23.38
832.49	-17.24
832.667	-2.9
832.844	-47.96
833.021	99.5
833.198	72.87
833.374	48.3
833.551	50.35
833.728	-21.33
833.905	124.07
834.082	-105.3
834.259	23.72
834.436	70.83
834.612	-123.73
834.789	46.25
834.966	-50
835.143	-35.67
835.319	-76.63
835.496	101.55
835.673	19.63
835.85	21.67
836.026	79.02
836.203	-27.48
836.38	3.24
836.556	-45.91
836.733	13.48
836.909	154.79
837.086	-2.9
837.262	-58.2
837.439	25.77
837.616	-47.96
837.792	-21.33
837.968	-41.81
838.145	-133.97
838.321	-27.48
838.498	17.58
838.674	109.74
838.851	-23.38
839.027	-52.05
839.203	-41.81
839.38	44.2
839.556	-50
839.732	105.64
839.909	-37.72
840.085	79.02
840.261	-47.96
840.437	70.83
840.614	31.91
840.79	60.59
840.966	-25.43
841.142	-15.19
841.318	-35.67
841.494	19.63
841.671	-9.05
841.847	-105.3
842.023	-27.48
842.199	48.3
842.375	79.02
842.551	-82.77
842.727	-68.44
842.903	226.47
843.079	-70.48
843.255	115.88
843.431	89.26
843.607	9.39
843.783	-86.87
843.959	29.87
844.134	-13.14
844.31	87.21
844.486	1.19
844.662	-56.15
844.838	-19.29
845.013	76.97
845.189	5.29
845.365	3.24
845.541	-15.19
845.716	11.43
845.892	76.97
846.068	-45.91
846.244	-25.43
846.419	48.3
846.595	-117.59
846.77	-121.68
846.946	21.67
847.122	-66.39
847.297	-27.48
847.473	74.92
847.648	-68.44
847.824	-21.33
847.999	-101.2
848.175	15.53
848.35	-4.95
848.526	97.45
848.701	134.31
848.876	62.63
849.052	66.73
849.227	40.11
849.403	40.11
849.578	36.01
849.753	11.43
849.929	3.24
850.104	-168.79
850.279	13.48
850.454	17.58
850.63	66.73
850.805	29.87
850.98	25.77
851.155	-4.95
851.33	33.96
851.505	-72.53
851.681	124.07
851.856	-101.2
852.031	-7
852.206	23.72
852.381	-29.52
852.556	81.07
852.731	60.59
852.906	81.07
853.081	13.48
853.256	122.02
853.431	-11.09
853.606	-19.29
853.781	-70.48
853.956	-111.44
854.131	-15.19
854.305	-86.87
854.48	-13.14
854.655	31.91
854.83	-39.76
855.005	-15.19
855.18	29.87
855.354	33.96
855.529	50.35
855.704	-64.34
855.879	-31.57
856.053	-72.53
856.228	48.3
856.403	-33.62
856.577	64.68
856.752	-101.2
856.926	-4.95
857.101	9.39
857.276	-58.2
857.45	11.43
857.625	58.54
857.799	19.63
857.974	-62.29
858.148	-113.49
858.323	-4.95
858.497	-43.86
858.672	-17.24
858.846	-64.34
859.02	1.19
859.195	5.29
859.369	33.96
859.543	-74.58
859.718	-23.38
859.892	117.93
860.066	-11.09
860.241	-103.25
860.415	-52.05
860.589	-58.2
860.763	-13.14
860.938	5.29
861.112	70.83
861.286	-33.62
861.46	33.96
861.634	13.48
861.808	38.06
861.982	-60.24
862.157	-39.76
862.331	27.82
862.505	-121.68
862.679	-150.36
862.853	-50
863.027	-0.85
863.201	87.21
863.375	-88.92
863.549	33.96
863.722	-37.72
863.896	117.93
864.07	-45.91
864.244	-7
864.418	13.48
864.592	56.49
864.766	21.67
864.939	9.39
865.113	-97.11
865.287	68.78
865.461	-88.92
865.634	64.68
865.808	19.63
865.982	-4.95
866.156	-68.44
866.329	-152.4
866.503	9.39
866.676	58.54
866.85	99.5
867.024	13.48
867.197	-33.62
867.371	62.63
867.544	-33.62
867.718	-68.44
867.891	56.49
868.065	-52.05
868.238	-37.72
868.412	91.31
868.585	-7
868.759	-76.63
868.932	-23.38
869.105	-60.24
869.279	-56.15
869.452	-62.29
869.625	40.11
869.799	13.48
869.972	-64.34
870.145	-43.86
870.319	56.49
870.492	-11.09
870.665	-2.9
870.838	-95.06
871.011	-21.33
871.185	-29.52
871.358	-21.33
871.531	148.65
871.704	-29.52
871.877	17.58
872.05	-64.34
872.223	-52.05
872.396	25.77
872.569	122.02
872.742	-58.2
872.915	74.92
873.088	-21.33
873.261	-99.16
873.434	46.25
873.607	54.44
873.78	111.78
873.953	-90.96
874.126	36.01
874.299	19.63
874.471	81.07
874.644	-23.38
874.817	119.98
874.99	101.55
875.163	-72.53
875.335	11.43
875.508	-72.53
875.681	103.59
875.853	-107.35
876.026	25.77
876.199	5.29
876.371	74.92
876.544	-80.72
876.717	3.24
876.889	42.15
877.062	13.48
877.234	-115.54
877.407	-27.48
877.579	-7
877.752	33.96
877.924	15.53
878.097	-23.38
878.269	46.25
878.442	-27.48
878.614	42.15
878.786	11.43
878.959	17.58
879.131	-90.96
879.303	-115.54
879.476	5.29
879.648	81.07
879.82	48.3
879.993	1.19
880.165	-56.15
880.337	-80.72
880.509	-21.33
880.681	-99.16
880.854	-19.29
881.026	11.43
881.198	177.32
881.37	48.3
881.542	-31.57
881.714	-29.52
881.886	3.24
882.058	-4.95
882.23	40.11
882.402	-25.43
882.574	15.53
882.746	54.44
882.918	23.72
883.09	-11.09
883.262	31.91
883.434	42.15
883.606	-74.58
883.778	15.53
883.95	91.31
884.122	-35.67
884.293	124.07
884.465	-64.34
884.637	150.7
884.809	-27.48
884.98	-23.38
885.152	93.35
885.324	21.67
885.496	-39.76
885.667	-64.34
885.839	-17.24
886.011	46.25
886.182	-39.76
886.354	50.35
886.525	-0.85
886.697	89.26
886.869	-93.01
887.04	-4.95
887.212	117.93
887.383	132.26
887.555	-13.14
887.726	-56.15
887.897	31.91
888.069	-19.29
888.24	-21.33
888.412	23.72
888.583	-35.67
888.754	-19.29
888.926	-90.96
889.097	-60.24
889.268	-41.81
889.44	-52.05
889.611	-70.48
889.782	-111.44
889.953	-60.24
890.125	40.11
890.296	-52.05
890.467	36.01
890.638	-54.1
890.809	-27.48
890.98	-52.05
891.151	11.43
891.323	128.17
891.494	-68.44
891.665	-33.62
891.836	-33.62
892.007	13.48
892.178	36.01
892.349	-7
892.52	-33.62
892.691	97.45
892.862	44.2
893.032	-97.11
893.203	-82.77
893.374	-11.09
893.545	119.98
893.716	-31.57
893.887	-27.48
894.057	-19.29
894.228	-52.05
894.399	-19.29
894.57	19.63
894.74	-17.24
894.911	33.96
895.082	-43.86
895.253	-27.48
895.423	23.72
895.594	103.59
895.764	38.06
895.935	-121.68
896.106	36.01
896.276	-72.53
896.447	31.91
896.617	-80.72
896.788	-72.53
896.958	-66.39
897.129	-90.96
897.299	-47.96
897.47	83.11
897.64	-13.14
897.81	-47.96
897.981	-45.91
898.151	-88.92
898.322	111.78
898.492	54.44
898.662	40.11
898.832	-11.09
899.003	-29.52
899.173	13.48
899.343	-56.15
899.513	-84.82
