Data from USB4F104151__293__11-21-15-227.txt Node

Date: Wed Feb 26 11:21:15 EST 2025
User: louis
Spectrometer: USB4F10415
Trigger mode: 4
Integration Time (sec): 1.000000E-1
Scans to average: 1
Electric dark correction enabled: true
Nonlinearity correction enabled: false
Boxcar width: 0
XAxis mode: Wavelengths
Number of Pixels in Spectrum: 3648
>>>>>Begin Spectral Data<<<<<
178.204	-471.2
178.424	-471.2
178.644	-471.2
178.864	-424.1
179.084	-440.48
179.304	8.02
179.524	-26.79
179.744	28.5
179.964	73.56
180.184	24.4
180.404	3.93
180.624	-41.13
180.844	18.26
181.064	-82.09
181.283	55.12
181.503	-14.51
181.723	-47.27
181.943	-57.51
182.163	149.33
182.383	-30.89
182.602	63.32
182.822	171.86
183.042	36.69
183.262	-49.32
183.482	10.07
183.701	16.21
183.921	-18.6
184.141	-2.22
184.361	65.36
184.58	24.4
184.8	67.41
185.02	-20.65
185.239	36.69
185.459	65.36
185.679	98.13
185.898	-0.17
186.118	-22.7
186.338	100.18
186.557	69.46
186.777	-127.14
186.997	-34.99
187.216	28.5
187.436	143.19
187.655	79.7
187.875	5.97
188.095	79.7
188.314	137.04
188.534	22.36
188.753	-10.41
188.973	163.67
189.192	114.52
189.412	-37.03
189.631	34.64
189.851	44.88
190.07	175.95
190.29	-47.27
190.509	20.31
190.729	77.65
190.948	112.47
191.168	147.28
191.387	24.4
191.607	-16.55
191.826	8.02
192.045	48.98
192.265	-43.18
192.484	89.94
192.704	38.74
192.923	-4.27
193.142	163.67
193.362	79.7
193.581	98.13
193.8	30.55
194.02	-6.31
194.239	16.21
194.458	128.85
194.678	-57.51
194.897	18.26
195.116	36.69
195.335	42.84
195.555	28.5
195.774	-28.84
195.993	73.56
196.212	16.21
196.432	-14.51
196.651	-14.51
196.87	-10.41
197.089	251.73
197.308	-10.41
197.528	18.26
197.747	44.88
197.966	12.12
198.185	192.34
198.404	28.5
198.623	112.47
198.842	79.7
199.062	130.9
199.281	57.17
199.5	14.17
199.719	42.84
199.938	71.51
200.157	14.17
200.376	65.36
200.595	108.37
200.814	98.13
201.033	-0.17
201.252	212.82
201.471	1.88
201.69	104.28
201.909	18.26
202.128	147.28
202.347	141.14
202.566	81.75
202.785	-49.32
203.004	-104.62
203.223	278.35
203.442	104.28
203.661	-57.51
203.879	36.69
204.098	120.66
204.317	-71.85
204.536	122.71
204.755	137.04
204.974	36.69
205.193	-57.51
205.411	130.9
205.63	94.04
205.849	28.5
206.068	81.75
206.287	5.97
206.505	85.84
206.724	12.12
206.943	30.55
207.162	-22.7
207.381	55.12
207.599	22.36
207.818	57.17
208.037	-45.23
208.255	12.12
208.474	51.03
208.693	8.02
208.911	-10.41
209.13	16.21
209.349	38.74
209.567	98.13
209.786	-2.22
210.005	116.56
210.223	48.98
210.442	-157.86
210.661	10.07
210.879	77.65
211.098	44.88
211.316	12.12
211.535	26.45
211.753	71.51
211.972	38.74
212.191	26.45
212.409	16.21
212.628	59.22
212.846	-30.89
213.065	143.19
213.283	85.84
213.502	26.45
213.72	10.07
213.938	-8.36
214.157	-71.85
214.375	108.37
214.594	-24.75
214.812	71.51
215.031	18.26
215.249	63.32
215.467	73.56
215.686	-0.17
215.904	112.47
216.122	28.5
216.341	81.75
216.559	32.6
216.778	81.75
216.996	108.37
217.214	-2.22
217.432	-24.75
217.651	-18.6
217.869	100.18
218.087	59.22
218.306	8.02
218.524	71.51
218.742	-14.51
218.96	116.56
219.179	24.4
219.397	-37.03
219.615	243.54
219.833	89.94
220.051	-32.94
220.27	102.23
220.488	96.08
220.706	14.17
220.924	-102.57
221.142	-14.51
221.36	16.21
221.578	48.98
221.796	-14.51
222.015	18.26
222.233	30.55
222.451	184.15
222.669	20.31
222.887	57.17
223.105	-18.6
223.323	16.21
223.541	-67.75
223.759	18.26
223.977	46.93
224.195	106.32
224.413	118.61
224.631	5.97
224.849	61.27
225.067	169.81
225.285	-37.03
225.503	-12.46
225.721	-131.24
225.939	48.98
226.157	32.6
226.375	221.01
226.592	-4.27
226.81	-16.55
227.028	153.43
227.246	91.99
227.464	30.55
227.682	114.52
227.9	44.88
228.117	-20.65
228.335	118.61
228.553	12.12
228.771	63.32
228.989	48.98
229.206	40.79
229.424	-57.51
229.642	10.07
229.86	-34.99
230.077	171.86
230.295	16.21
230.513	112.47
230.731	22.36
230.948	126.8
231.166	126.8
231.384	61.27
231.601	-14.51
231.819	114.52
232.037	-10.41
232.254	-88.23
232.472	46.93
232.689	-41.13
232.907	57.17
233.125	34.64
233.342	-45.23
233.56	-55.47
233.777	-57.51
233.995	26.45
234.213	-0.17
234.43	14.17
234.648	8.02
234.865	-34.99
235.083	73.56
235.3	12.12
235.518	87.89
235.735	108.37
235.953	55.12
236.17	-16.55
236.388	38.74
236.605	96.08
236.822	91.99
237.04	57.17
237.257	79.7
237.475	-80.04
237.692	46.93
237.909	67.41
238.127	-4.27
238.344	110.42
238.562	75.6
238.779	-98.47
238.996	30.55
239.214	1.88
239.431	110.42
239.648	-61.61
239.865	55.12
240.083	75.6
240.3	53.08
240.517	30.55
240.735	-47.27
240.952	137.04
241.169	96.08
241.386	81.75
241.603	44.88
241.821	-39.08
242.038	130.9
242.255	102.23
242.472	-32.94
242.689	5.97
242.907	65.36
243.124	32.6
243.341	-2.22
243.558	-12.46
243.775	-41.13
243.992	-121
244.209	85.84
244.426	132.95
244.643	32.6
244.86	-0.17
245.078	81.75
245.295	14.17
245.512	-10.41
245.729	24.4
245.946	112.47
246.163	3.93
246.38	-90.28
246.597	28.5
246.814	12.12
247.031	-12.46
247.248	53.08
247.464	40.79
247.681	38.74
247.898	34.64
248.115	55.12
248.332	-16.55
248.549	147.28
248.766	173.91
248.983	75.6
249.2	59.22
249.417	65.36
249.633	-61.61
249.85	126.8
250.067	59.22
250.284	12.12
250.501	-22.7
250.717	59.22
250.934	-77.99
251.151	18.26
251.368	40.79
251.585	22.36
251.801	53.08
252.018	-51.37
252.235	102.23
252.451	-77.99
252.668	-37.03
252.885	14.17
253.102	69.46
253.318	20.31
253.535	-86.19
253.752	-51.37
253.968	20.31
254.185	-90.28
254.401	104.28
254.618	85.84
254.835	-45.23
255.051	79.7
255.268	94.04
255.484	12.12
255.701	-0.17
255.917	73.56
256.134	-0.17
256.351	-37.03
256.567	-53.42
256.784	-6.31
257	-32.94
257.217	69.46
257.433	96.08
257.65	53.08
257.866	204.63
258.082	-59.56
258.299	26.45
258.515	61.27
258.732	-57.51
258.948	-53.42
259.165	38.74
259.381	-10.41
259.597	51.03
259.814	18.26
260.03	12.12
260.246	-6.31
260.463	96.08
260.679	85.84
260.895	-4.27
261.112	61.27
261.328	-6.31
261.544	-32.94
261.761	137.04
261.977	-41.13
262.193	-34.99
262.409	102.23
262.626	67.41
262.842	30.55
263.058	-0.17
263.274	14.17
263.49	98.13
263.707	85.84
263.923	96.08
264.139	-100.52
264.355	53.08
264.571	130.9
264.787	16.21
265.004	65.36
265.22	-24.75
265.436	46.93
265.652	14.17
265.868	-28.84
266.084	-90.28
266.3	10.07
266.516	-100.52
266.732	87.89
266.948	24.4
267.164	-0.17
267.38	91.99
267.596	100.18
267.812	143.19
268.028	18.26
268.244	-30.89
268.46	-8.36
268.676	48.98
268.892	-4.27
269.108	-57.51
269.324	-18.6
269.54	-43.18
269.756	87.89
269.972	-45.23
270.188	65.36
270.403	-71.85
270.619	1.88
270.835	18.26
271.051	-59.56
271.267	-43.18
271.483	-20.65
271.698	91.99
271.914	112.47
272.13	75.6
272.346	-20.65
272.562	-28.84
272.777	61.27
272.993	77.65
273.209	18.26
273.425	118.61
273.64	-26.79
273.856	28.5
274.072	-6.31
274.287	36.69
274.503	106.32
274.719	67.41
274.934	30.55
275.15	-43.18
275.366	44.88
275.581	-61.61
275.797	36.69
276.012	20.31
276.228	8.02
276.444	34.64
276.659	14.17
276.875	-88.23
277.09	-4.27
277.306	-69.8
277.521	32.6
277.737	28.5
277.952	104.28
278.168	18.26
278.383	81.75
278.599	-32.94
278.814	81.75
279.03	14.17
279.245	104.28
279.461	55.12
279.676	135
279.892	3.93
280.107	-67.75
280.322	-2.22
280.538	63.32
280.753	20.31
280.969	85.84
281.184	42.84
281.399	153.43
281.615	-4.27
281.83	155.47
282.045	-20.65
282.26	-34.99
282.476	-55.47
282.691	122.71
282.906	38.74
283.122	128.85
283.337	-47.27
283.552	71.51
283.767	59.22
283.983	91.99
284.198	-0.17
284.413	122.71
284.628	-73.9
284.843	51.03
285.058	32.6
285.274	-49.32
285.489	44.88
285.704	85.84
285.919	-10.41
286.134	53.08
286.349	-34.99
286.564	5.97
286.779	126.8
286.995	87.89
287.21	-20.65
287.425	3.93
287.64	1.88
287.855	40.79
288.07	16.21
288.285	81.75
288.5	186.19
288.715	65.36
288.93	-12.46
289.145	20.31
289.36	94.04
289.575	5.97
289.79	110.42
290.004	55.12
290.219	98.13
290.434	-55.47
290.649	-24.75
290.864	40.79
291.079	-8.36
291.294	-16.55
291.509	46.93
291.724	-41.13
291.938	69.46
292.153	-2.22
292.368	-16.55
292.583	73.56
292.798	28.5
293.012	59.22
293.227	53.08
293.442	-24.75
293.657	132.95
293.871	85.84
294.086	100.18
294.301	161.62
294.516	126.8
294.73	26.45
294.945	-51.37
295.16	24.4
295.374	132.95
295.589	108.37
295.804	-55.47
296.018	42.84
296.233	167.76
296.447	63.32
296.662	-20.65
296.877	77.65
297.091	30.55
297.306	3.93
297.52	51.03
297.735	24.4
297.949	-8.36
298.164	126.8
298.378	-69.8
298.593	-71.85
298.807	-10.41
299.022	-6.31
299.236	155.47
299.451	59.22
299.665	48.98
299.88	32.6
300.094	102.23
300.309	46.93
300.523	114.52
300.737	65.36
300.952	75.6
301.166	81.75
301.381	-20.65
301.595	-4.27
301.809	55.12
302.024	20.31
302.238	-80.04
302.452	143.19
302.667	-28.84
302.881	139.09
303.095	104.28
303.309	114.52
303.524	-22.7
303.738	-12.46
303.952	-0.17
304.166	69.46
304.381	-147.62
304.595	87.89
304.809	32.6
305.023	14.17
305.237	-14.51
305.452	40.79
305.666	75.6
305.88	36.69
306.094	106.32
306.308	36.69
306.522	94.04
306.736	28.5
306.95	44.88
307.164	79.7
307.379	1.88
307.593	104.28
307.807	151.38
308.021	57.17
308.235	122.71
308.449	-57.51
308.663	16.21
308.877	163.67
309.091	67.41
309.305	87.89
309.519	-98.47
309.733	141.14
309.947	-92.33
310.161	53.08
310.374	69.46
310.588	53.08
310.802	-69.8
311.016	-34.99
311.23	5.97
311.444	-108.71
311.658	77.65
311.872	83.8
312.085	153.43
312.299	61.27
312.513	126.8
312.727	-10.41
312.941	-18.6
313.154	-16.55
313.368	38.74
313.582	83.8
313.796	61.27
314.009	32.6
314.223	42.84
314.437	-0.17
314.651	-18.6
314.864	18.26
315.078	-34.99
315.292	-32.94
315.505	12.12
315.719	26.45
315.933	71.51
316.146	-49.32
316.36	-45.23
316.573	139.09
316.787	79.7
317.001	106.32
317.214	-0.17
317.428	3.93
317.641	-157.86
317.855	8.02
318.068	85.84
318.282	69.46
318.495	108.37
318.709	98.13
318.922	57.17
319.136	161.62
319.349	112.47
319.563	-28.84
319.776	87.89
319.99	-92.33
320.203	77.65
320.417	-6.31
320.63	143.19
320.843	202.58
321.057	75.6
321.27	-41.13
321.483	36.69
321.697	130.9
321.91	42.84
322.124	77.65
322.337	-0.17
322.55	24.4
322.763	79.7
322.977	42.84
323.19	-4.27
323.403	65.36
323.617	16.21
323.83	79.7
324.043	32.6
324.256	44.88
324.469	12.12
324.683	46.93
324.896	-8.36
325.109	46.93
325.322	-47.27
325.535	1.88
325.748	73.56
325.962	22.36
326.175	51.03
326.388	26.45
326.601	87.89
326.814	32.6
327.027	59.22
327.24	114.52
327.453	-90.28
327.666	42.84
327.879	137.04
328.092	34.64
328.305	63.32
328.518	28.5
328.731	-37.03
328.944	-12.46
329.157	69.46
329.37	-0.17
329.583	241.49
329.796	75.6
330.009	-127.14
330.222	14.17
330.435	104.28
330.648	-2.22
330.861	61.27
331.073	34.64
331.286	26.45
331.499	12.12
331.712	-45.23
331.925	-2.22
332.138	61.27
332.35	120.66
332.563	-32.94
332.776	147.28
332.989	-16.55
333.202	-37.03
333.414	71.51
333.627	14.17
333.84	-4.27
334.053	44.88
334.265	-77.99
334.478	1.88
334.691	-10.41
334.903	96.08
335.116	-57.51
335.329	26.45
335.541	40.79
335.754	163.67
335.966	26.45
336.179	18.26
336.392	46.93
336.604	-22.7
336.817	83.8
337.029	22.36
337.242	98.13
337.454	63.32
337.667	-26.79
337.88	53.08
338.092	63.32
338.305	79.7
338.517	-14.51
338.729	79.7
338.942	143.19
339.154	-82.09
339.367	-14.51
339.579	114.52
339.792	-65.71
340.004	40.79
340.217	61.27
340.429	77.65
340.641	-8.36
340.854	5.97
341.066	-24.75
341.278	114.52
341.491	128.85
341.703	87.89
341.915	-30.89
342.128	24.4
342.34	22.36
342.552	-32.94
342.764	-0.17
342.977	69.46
343.189	18.26
343.401	40.79
343.613	-49.32
343.826	46.93
344.038	-22.7
344.25	61.27
344.462	-61.61
344.674	28.5
344.886	40.79
345.099	96.08
345.311	61.27
345.523	69.46
345.735	-75.95
345.947	-4.27
346.159	-22.7
346.371	-0.17
346.583	1.88
346.795	190.29
347.007	61.27
347.219	63.32
347.431	-53.42
347.643	57.17
347.855	-22.7
348.067	124.76
348.279	-45.23
348.491	-51.37
348.703	87.89
348.915	-2.22
349.127	20.31
349.339	5.97
349.551	-86.19
349.763	100.18
349.975	-14.51
350.187	20.31
350.399	55.12
350.61	65.36
350.822	-22.7
351.034	75.6
351.246	20.31
351.458	94.04
351.669	46.93
351.881	36.69
352.093	161.62
352.305	91.99
352.517	137.04
352.728	110.42
352.94	-28.84
353.152	130.9
353.363	65.36
353.575	77.65
353.787	165.71
353.999	-24.75
354.21	151.38
354.422	12.12
354.633	-41.13
354.845	73.56
355.057	48.98
355.268	22.36
355.48	51.03
355.692	-18.6
355.903	57.17
356.115	-2.22
356.326	-2.22
356.538	182.1
356.749	81.75
356.961	120.66
357.172	-0.17
357.384	-28.84
357.595	194.39
357.807	-12.46
358.018	65.36
358.23	-10.41
358.441	188.24
358.653	55.12
358.864	67.41
359.075	-26.79
359.287	96.08
359.498	98.13
359.709	46.93
359.921	5.97
360.132	34.64
360.344	79.7
360.555	-8.36
360.766	83.8
360.977	48.98
361.189	153.43
361.4	10.07
361.611	81.75
361.823	77.65
362.034	28.5
362.245	-86.19
362.456	12.12
362.667	77.65
362.879	-30.89
363.09	108.37
363.301	28.5
363.512	42.84
363.723	48.98
363.935	32.6
364.146	91.99
364.357	18.26
364.568	73.56
364.779	-96.43
364.99	190.29
365.201	10.07
365.412	137.04
365.623	-69.8
365.834	102.23
366.045	18.26
366.256	-14.51
366.467	126.8
366.678	12.12
366.889	-37.03
367.1	5.97
367.311	40.79
367.522	24.4
367.733	120.66
367.944	75.6
368.155	81.75
368.366	24.4
368.577	85.84
368.788	110.42
368.999	18.26
369.209	100.18
369.42	175.95
369.631	204.63
369.842	114.52
370.053	59.22
370.264	89.94
370.474	-96.43
370.685	91.99
370.896	40.79
371.107	110.42
371.317	-14.51
371.528	-14.51
371.739	110.42
371.95	89.94
372.16	55.12
372.371	22.36
372.582	38.74
372.792	30.55
373.003	77.65
373.214	51.03
373.424	75.6
373.635	-41.13
373.846	102.23
374.056	8.02
374.267	57.17
374.477	102.23
374.688	-26.79
374.898	-0.17
375.109	81.75
375.319	46.93
375.53	102.23
375.74	79.7
375.951	48.98
376.161	16.21
376.372	132.95
376.582	-16.55
376.793	98.13
377.003	-41.13
377.214	-30.89
377.424	10.07
377.635	24.4
377.845	-49.32
378.055	130.9
378.266	-73.9
378.476	28.5
378.686	63.32
378.897	46.93
379.107	53.08
379.317	106.32
379.528	24.4
379.738	104.28
379.948	-90.28
380.158	63.32
380.369	61.27
380.579	57.17
380.789	57.17
380.999	163.67
381.21	69.46
381.42	143.19
381.63	28.5
381.84	65.36
382.05	75.6
382.261	143.19
382.471	167.76
382.681	34.64
382.891	149.33
383.101	53.08
383.311	-61.61
383.521	-45.23
383.731	30.55
383.941	104.28
384.151	61.27
384.361	1.88
384.571	155.47
384.781	-12.46
384.991	130.9
385.201	147.28
385.411	57.17
385.621	36.69
385.831	102.23
386.041	10.07
386.251	65.36
386.461	167.76
386.671	71.51
386.881	73.56
387.091	81.75
387.301	118.61
387.511	22.36
387.72	73.56
387.93	69.46
388.14	-32.94
388.35	34.64
388.56	71.51
388.769	180.05
388.979	83.8
389.189	-45.23
389.399	16.21
389.609	137.04
389.818	102.23
390.028	77.65
390.238	59.22
390.447	-8.36
390.657	20.31
390.867	12.12
391.076	1.88
391.286	24.4
391.496	79.7
391.705	36.69
391.915	102.23
392.125	100.18
392.334	1.88
392.544	206.67
392.753	12.12
392.963	-14.51
393.172	36.69
393.382	-26.79
393.591	194.39
393.801	-8.36
394.01	229.2
394.22	42.84
394.429	38.74
394.639	48.98
394.848	87.89
395.058	30.55
395.267	5.97
395.477	124.76
395.686	69.46
395.895	106.32
396.105	130.9
396.314	110.42
396.524	126.8
396.733	24.4
396.942	53.08
397.152	34.64
397.361	48.98
397.57	69.46
397.78	-16.55
397.989	116.56
398.198	225.11
398.407	22.36
398.617	94.04
398.826	26.45
399.035	-34.99
399.244	122.71
399.453	57.17
399.663	55.12
399.872	53.08
400.081	-34.99
400.29	108.37
400.499	34.64
400.708	145.24
400.917	16.21
401.127	-28.84
401.336	28.5
401.545	221.01
401.754	151.38
401.963	79.7
402.172	20.31
402.381	16.21
402.59	-28.84
402.799	83.8
403.008	130.9
403.217	28.5
403.426	128.85
403.635	20.31
403.844	-63.66
404.053	26.45
404.262	-0.17
404.471	163.67
404.68	44.88
404.888	28.5
405.097	-32.94
405.306	26.45
405.515	59.22
405.724	42.84
405.933	116.56
406.142	38.74
406.35	153.43
406.559	-2.22
406.768	16.21
406.977	169.81
407.185	3.93
407.394	69.46
407.603	-2.22
407.812	87.89
408.02	102.23
408.229	14.17
408.438	128.85
408.646	-32.94
408.855	-22.7
409.064	75.6
409.272	3.93
409.481	186.19
409.69	-57.51
409.898	32.6
410.107	83.8
410.315	161.62
410.524	26.45
410.733	10.07
410.941	79.7
411.15	77.65
411.358	124.76
411.567	145.24
411.775	44.88
411.984	69.46
412.192	18.26
412.401	67.41
412.609	69.46
412.818	135
413.026	57.17
413.234	69.46
413.443	5.97
413.651	40.79
413.86	120.66
414.068	36.69
414.276	135
414.485	46.93
414.693	171.86
414.901	180.05
415.11	53.08
415.318	32.6
415.526	55.12
415.734	40.79
415.943	75.6
416.151	67.41
416.359	28.5
416.567	120.66
416.776	61.27
416.984	65.36
417.192	157.52
417.4	-24.75
417.608	16.21
417.817	24.4
418.025	57.17
418.233	155.47
418.441	71.51
418.649	-26.79
418.857	81.75
419.065	141.14
419.273	-8.36
419.481	38.74
419.689	63.32
419.897	8.02
420.105	42.84
420.313	184.15
420.521	233.3
420.729	114.52
420.937	8.02
421.145	-18.6
421.353	141.14
421.561	159.57
421.769	118.61
421.977	38.74
422.185	130.9
422.393	67.41
422.601	153.43
422.809	-2.22
423.017	-2.22
423.224	32.6
423.432	145.24
423.64	65.36
423.848	165.71
424.056	36.69
424.263	182.1
424.471	26.45
424.679	122.71
424.887	77.65
425.094	151.38
425.302	36.69
425.51	44.88
425.718	147.28
425.925	100.18
426.133	-10.41
426.341	155.47
426.548	112.47
426.756	85.84
426.964	83.8
427.171	91.99
427.379	91.99
427.586	36.69
427.794	61.27
428.001	163.67
428.209	73.56
428.417	151.38
428.624	169.81
428.832	126.8
429.039	69.46
429.247	20.31
429.454	130.9
429.662	173.91
429.869	178
430.076	112.47
430.284	194.39
430.491	210.77
430.699	214.87
430.906	180.05
431.114	139.09
431.321	175.95
431.528	112.47
431.736	161.62
431.943	202.58
432.15	251.73
432.358	294.74
432.565	216.91
432.772	44.88
432.979	247.63
433.187	171.86
433.394	173.91
433.601	257.87
433.808	272.21
434.016	276.31
434.223	245.59
434.43	231.25
434.637	257.87
434.844	315.22
435.052	321.36
435.259	325.46
435.466	360.27
435.673	282.45
435.88	386.9
436.087	448.33
436.294	296.78
436.501	329.55
436.708	384.85
436.915	427.85
437.122	427.85
437.329	257.87
437.537	411.47
437.743	438.09
437.95	540.49
438.157	466.77
438.364	440.14
438.571	563.02
438.778	487.25
438.985	536.4
439.192	552.78
439.399	497.49
439.606	491.34
439.813	653.13
440.02	698.19
440.227	878.41
440.433	667.47
440.64	710.47
440.847	677.71
441.054	808.78
441.261	905.03
441.467	741.19
441.674	687.95
441.881	907.08
442.088	808.78
442.294	900.94
442.501	948.04
442.708	929.61
442.914	966.47
443.121	1023.81
443.328	1085.25
443.534	1193.8
443.741	1206.08
443.948	1072.96
444.154	1263.43
444.361	1425.22
444.568	1296.19
444.774	1359.68
444.981	1277.76
445.187	1537.85
445.394	1423.17
445.6	1503.04
445.807	1584.96
446.013	1666.88
446.22	1701.69
446.426	1754.94
446.633	1822.52
446.839	2123.57
447.046	1865.53
447.252	2137.91
447.459	2154.29
447.665	1957.69
447.871	2379.57
448.078	2574.13
448.284	2438.96
448.491	2600.75
448.697	2705.2
448.903	2842.41
449.11	2801.45
449.316	2709.29
449.522	2932.52
449.728	2989.86
449.935	3200.8
450.141	3161.89
450.347	3665.69
450.553	3510.05
450.76	3669.79
450.966	3866.39
451.172	3778.33
451.378	4028.18
451.584	4065.05
451.791	4411.15
451.997	4632.33
452.203	4665.1
452.409	4826.89
452.615	4939.53
452.821	4859.66
453.027	4996.87
453.233	5648.13
453.44	5310.21
453.646	5502.72
453.852	5863.16
454.058	6254.33
454.264	6334.2
454.47	7020.27
454.676	6762.22
454.882	7405.28
455.088	7218.92
455.294	7499.49
455.5	7970.52
455.705	8316.63
455.911	8687.31
456.117	8658.64
456.323	9012.94
456.529	8922.83
456.735	9868.99
456.941	10002.11
457.147	10518.2
457.352	10923.69
457.558	11245.23
457.764	11722.4
457.97	12115.61
458.176	12457.62
458.381	13092.49
458.587	13332.11
458.793	14016.13
458.999	13921.92
459.204	15664.74
459.41	16082.53
459.616	16213.6
459.821	16879.19
460.027	17751.62
460.233	18535.99
460.438	18617.91
460.644	19965.48
460.85	19756.58
461.055	20586.01
461.261	21325.33
461.466	21108.24
461.672	21757.45
461.878	24188.39
462.083	23969.26
462.289	24129
462.494	25380.31
462.7	25785.8
462.905	25912.78
463.111	28081.58
463.316	29386.13
463.522	30074.25
463.727	31188.35
463.932	32187.75
464.138	33060.19
464.343	34446.66
464.549	34604.36
464.754	37254.43
464.959	37954.83
465.165	38993.15
465.37	38090
465.575	38450.44
465.781	41301.22
465.986	42583.24
466.191	41780.44
466.397	42374.35
466.602	41207.01
466.807	43705.53
467.012	44117.17
467.218	44805.29
467.423	45528.22
467.628	46670.99
467.833	48895.08
468.038	47563.9
468.244	47172.74
468.449	49003.63
468.654	48053.37
468.859	48004.22
469.064	48411.76
469.269	47410.31
469.474	47867
469.679	49001.58
469.885	47625.34
470.09	48735.34
470.295	48784.49
470.5	47451.27
470.705	47764.6
470.91	46572.69
471.115	46527.63
471.32	46746.76
471.525	46615.69
471.73	45329.57
471.935	45024.42
472.139	43345.09
472.344	43203.78
472.549	43281.6
472.754	42544.33
472.959	41555.16
473.164	40160.5
473.369	39734.52
473.574	40836.33
473.778	39634.17
473.983	38919.43
474.188	38665.48
474.393	36599.08
474.598	36683.05
474.802	35759.41
475.007	35712.31
475.212	35089.73
475.417	33578.32
475.621	33516.89
475.826	32922.97
476.031	32259.43
476.235	31542.64
476.44	31835.5
476.645	31001.98
476.849	30358.92
477.054	29959.56
477.259	29513.11
477.463	29158.81
477.668	28052.91
477.872	28706.21
478.077	27762.09
478.282	27151.8
478.486	27084.22
478.691	26695.1
478.895	26234.31
479.1	26217.93
479.304	25746.89
479.509	25267.67
479.713	25226.71
479.918	24690.14
480.122	24270.31
480.326	24536.54
480.531	24468.96
480.735	23971.3
480.94	23782.89
481.144	24608.22
481.348	23178.74
481.553	23582.19
481.757	22883.83
481.961	22971.89
482.166	22998.52
482.37	22849.02
482.574	22242.82
482.778	22218.24
482.983	22461.95
483.187	22103.56
483.391	22181.38
483.595	21671.43
483.8	21370.38
484.004	21444.11
484.208	21474.83
484.412	21098
484.616	20887.06
484.821	20663.83
485.025	19664.43
485.229	20108.83
485.433	19570.22
485.637	19736.1
485.841	19478.06
486.045	19088.95
486.249	18957.88
486.453	18384.44
486.657	18462.27
486.861	18148.93
487.065	17614.41
487.269	17630.79
487.473	16766.55
487.677	17118.8
487.881	17104.46
488.085	16537.18
488.289	16195.17
488.493	15881.83
488.697	15969.89
488.901	15566.44
489.105	15003.25
489.309	15036.02
489.512	14663.29
489.716	14263.93
489.92	14247.55
490.124	14057.09
490.328	13786.75
490.531	13485.7
490.735	13112.97
490.939	13135.5
491.143	12654.23
491.346	12502.68
491.55	12500.63
491.754	12170.91
491.958	12035.74
492.161	11974.3
492.365	11577
492.569	11298.47
492.772	11114.16
492.976	11146.92
493.18	11214.51
493.383	11042.48
493.587	10886.83
493.79	10622.64
493.994	10280.63
494.197	10514.1
494.401	10196.67
494.605	9916.09
494.808	10170.04
495.012	9830.08
495.215	9987.77
495.419	10012.35
495.622	9715.39
495.825	9682.63
496.029	9709.25
496.232	9842.37
496.436	9701.06
496.639	9670.34
496.843	9428.68
497.046	9674.43
497.249	9598.66
497.453	9578.18
497.656	9615.04
497.859	9629.38
498.063	9436.87
498.266	9631.43
498.469	9432.77
498.673	9580.23
498.876	9508.55
499.079	9600.71
499.282	9506.5
499.485	10010.3
499.689	9957.05
499.892	9866.94
500.095	10004.16
500.298	10188.47
500.501	9856.7
500.705	10233.53
500.908	10002.11
501.111	10227.39
501.314	10434.23
501.517	10505.91
501.72	10428.09
501.923	10538.68
502.126	10722.99
502.329	10958.51
502.532	11069.1
502.735	11105.96
502.938	11259.56
503.141	11411.11
503.344	11327.14
503.547	11634.34
503.75	11691.68
503.953	11962.01
504.156	12005.02
504.359	12156.57
504.562	12271.26
504.765	12584.6
504.968	12687
505.17	12883.6
505.373	12947.09
505.576	13332.11
505.779	13725.32
505.982	13727.36
506.185	13899.39
506.387	14083.71
506.59	14372.47
506.793	14804.6
506.996	14730.87
507.198	15314.54
507.401	15380.07
507.604	15578.73
507.807	16236.13
508.009	16152.16
508.212	16733.78
508.415	16914
508.617	17276.49
508.82	17417.8
509.022	17880.64
509.225	18370.11
509.428	18619.96
509.63	18984.5
509.833	19359.28
510.035	20086.31
510.238	20198.95
510.44	20717.08
510.643	21106.2
510.845	21640.72
511.048	21857.8
511.25	22275.59
511.453	22439.42
511.655	23793.13
511.858	23926.25
512.06	24518.11
512.262	24593.89
512.465	25372.11
512.667	25720.27
512.87	26490.31
513.072	26969.53
513.274	27616.69
513.477	28386.72
513.679	28798.37
513.881	29490.58
514.084	30379.4
514.286	30735.74
514.488	31495.54
514.69	32372.07
514.893	32869.73
515.095	33391.96
515.297	33887.57
515.499	34393.42
515.701	35550.52
515.904	36144.43
516.106	37356.83
516.308	37657.88
516.51	38561.03
516.712	38604.04
516.914	39427.32
517.116	40473.84
517.318	41395.42
517.52	41852.12
517.722	42417.36
517.925	43226.31
518.127	44291.25
518.329	45014.18
518.531	45012.13
518.733	46159
518.935	47191.17
519.136	47727.74
519.338	48383.09
519.54	49220.71
519.742	49839.2
519.944	50105.43
520.146	51233.86
520.348	51762.24
520.55	52333.62
520.752	52409.4
520.954	54047.77
521.155	53834.78
521.357	54717.46
521.559	55061.52
521.761	56450.04
521.963	56099.84
522.164	56554.49
522.366	57168.88
522.568	58074.08
522.77	58344.41
522.971	58782.68
523.173	58635.22
523.375	59010
523.576	58854.36
523.778	59661.25
523.98	60238.78
524.181	60212.16
524.383	60187.58
524.584	60969.91
524.786	60337.08
524.988	60126.14
525.189	60963.76
525.391	60836.79
525.592	61176.75
525.794	61197.23
525.995	60881.84
526.197	60969.91
526.398	60894.13
526.6	60920.76
526.801	60969.91
527.003	60840.88
527.204	60289.98
527.406	60613.56
527.607	60152.77
527.808	60146.62
528.01	58749.91
528.211	59096.02
528.412	59190.22
528.614	58801.11
528.815	58381.27
529.016	58586.07
529.218	57658.34
529.419	56980.46
529.62	56830.96
529.822	55669.76
530.023	55813.12
530.224	55596.04
530.425	54359.06
530.626	53928.99
530.828	53394.47
531.029	53834.78
531.23	52548.66
531.431	51940.41
531.632	51649.6
531.833	51147.85
532.035	50162.78
532.236	49837.15
532.437	49560.67
532.638	48561.26
532.839	48264.31
533.04	47651.97
533.241	46808.2
533.442	47084.68
533.643	45966.49
533.844	45130.92
534.045	44729.51
534.246	43799.74
534.447	43779.26
534.648	42654.92
534.849	42505.42
535.05	42024.15
535.251	41147.62
535.451	40690.92
535.652	40271.09
535.853	39931.12
536.054	39163.14
536.255	38700.29
536.456	37920.02
536.657	37633.3
536.857	36939.04
537.058	36402.47
537.259	36488.49
537.46	35456.31
537.66	34770.24
537.861	34901.31
538.062	34516.29
538.263	33811.79
538.463	33404.25
538.664	32865.63
538.865	32677.22
539.065	32482.66
539.266	31911.28
539.466	31796.59
539.667	31186.3
539.868	30934.4
540.068	30301.57
540.269	30240.14
540.469	29805.97
540.67	29244.82
540.87	28908.96
541.071	28708.26
541.271	28534.18
541.472	28118.44
541.672	27569.58
541.873	27360.69
542.073	26881.47
542.274	26795.45
542.474	26500.54
542.675	26093
542.875	26027.46
543.075	25533.9
543.276	24903.13
543.476	25318.87
543.676	24722.91
543.877	24493.54
544.077	24417.76
544.277	24231.4
544.478	23653.87
544.678	23776.75
544.878	23070.2
545.078	22855.16
545.279	22312.45
545.479	22392.32
545.679	22187.52
545.879	21753.35
546.079	21392.91
546.28	21372.43
546.48	21091.86
546.68	20882.97
546.88	20880.92
547.08	20397.6
547.28	20497.95
547.48	19897.89
547.68	19627.56
547.88	19373.61
548.081	19625.51
548.281	18880.05
548.481	18484.8
548.681	18931.25
548.881	18380.35
549.081	18189.89
549.28	17792.58
549.48	17778.25
549.68	17475.15
549.88	17370.7
550.08	16655.96
550.28	16793.17
550.48	16604.76
550.68	16330.33
550.88	16262.75
551.08	15826.53
551.279	15804
551.479	15191.66
551.679	15265.39
551.879	14667.38
552.079	14718.58
552.278	14413.43
552.478	14376.57
552.678	13852.29
552.878	13995.65
553.077	13723.27
553.277	13454.98
553.477	13325.96
553.676	13014.67
553.876	13010.57
554.076	12695.19
554.275	12600.98
554.475	12144.28
554.674	12140.19
554.874	11816.61
555.074	11542.18
555.273	11429.54
555.473	11443.88
555.672	10933.93
555.872	10958.51
556.071	11046.57
556.271	10639.03
556.47	10495.67
556.67	10112.7
556.869	10071.74
557.068	10002.11
557.268	9852.61
557.467	9739.97
557.667	9666.24
557.866	9320.14
558.065	9166.54
558.265	9031.37
558.464	8789.71
558.663	9053.9
558.863	8658.64
559.062	8640.21
559.261	8302.29
559.461	8326.87
559.66	8070.87
559.859	8054.49
560.058	7573.22
560.258	7565.03
560.457	7628.51
560.656	7630.56
560.855	7530.21
561.054	7485.16
561.253	7290.6
561.453	7036.65
561.652	6989.55
561.851	6930.16
562.05	6772.46
562.249	6534.9
562.448	6606.58
562.647	6405.88
562.846	6401.78
563.045	6346.48
563.244	6158.07
563.443	6254.33
563.642	5807.87
563.841	6000.38
564.04	5883.64
564.239	5748.48
564.438	5687.04
564.637	5457.67
564.836	5562.11
565.035	5328.64
565.234	5275.4
565.432	5285.64
565.631	5218.05
565.83	5232.39
566.029	5113.61
566.228	5025.54
566.427	4933.39
566.625	4796.17
566.824	4687.63
567.023	4763.4
567.222	4691.73
567.42	4556.56
567.619	4785.93
567.818	4419.35
568.016	4515.6
568.215	4327.19
568.414	4228.88
568.612	4335.38
568.811	4175.64
569.01	4083.48
569.208	3981.08
569.407	4140.82
569.605	3860.25
569.804	3968.79
570.002	3929.88
570.201	3843.87
570.4	3714.84
570.598	3675.93
570.797	3743.52
570.995	3589.92
571.193	3495.71
571.392	3565.34
571.59	3503.9
571.789	3331.87
571.987	3405.6
572.186	3268.39
572.384	3282.72
572.582	3176.23
572.781	3170.08
572.979	2950.95
573.177	3082.02
573.376	2969.38
573.574	2871.08
573.772	2842.41
573.971	2830.12
574.169	2703.15
574.367	2848.55
574.565	2670.38
574.763	2645.8
574.962	2629.42
575.16	2576.17
575.358	2486.06
575.556	2502.45
575.754	2502.45
575.952	2391.86
576.151	2434.86
576.349	2424.62
576.547	2228.02
576.745	2383.66
576.943	2246.45
577.141	2189.11
577.339	2160.44
577.537	2246.45
577.735	2215.73
577.933	2174.77
578.131	2086.71
578.329	2125.62
578.527	1947.45
578.725	2045.75
578.923	1818.43
579.121	1969.98
579.319	1799.99
579.516	1818.43
579.714	2060.09
579.912	1775.42
580.11	1621.82
580.308	1728.31
580.506	1709.88
580.704	1582.91
580.901	1503.04
581.099	1779.51
581.297	1754.94
581.495	1722.17
581.692	1568.57
581.89	1656.64
582.088	1548.09
582.285	1427.26
582.483	1439.55
582.681	1451.84
582.878	1441.6
583.076	1371.97
583.274	1476.41
583.471	1595.2
583.669	1310.53
583.866	1290.05
584.064	1247.04
584.262	1171.27
584.459	1228.61
584.657	1316.67
584.854	1320.77
585.052	1290.05
585.249	1363.78
585.447	1302.34
585.644	1148.74
585.841	1271.62
586.039	1232.71
586.236	1292.1
586.434	1060.68
586.631	1081.16
586.828	1044.29
587.026	1083.2
587.223	964.42
587.42	966.47
587.618	972.61
587.815	1140.55
588.012	1003.33
588.21	972.61
588.407	1001.29
588.604	1029.96
588.801	843.59
588.999	933.7
589.196	937.8
589.393	849.74
589.59	825.16
589.787	927.56
589.984	911.18
590.182	978.76
590.379	782.15
590.576	956.23
590.773	866.12
590.97	796.49
591.167	943.94
591.364	816.97
591.561	821.06
591.758	989
591.955	884.55
592.152	884.55
592.349	812.87
592.546	798.54
592.743	788.3
592.94	843.59
593.137	819.02
593.334	900.94
593.531	915.27
593.727	823.11
593.924	878.41
594.121	857.93
594.318	835.4
594.515	907.08
594.712	976.71
594.908	925.51
595.105	835.4
595.302	950.09
595.499	1032.01
595.696	1064.77
595.892	882.5
596.089	1062.73
596.286	876.36
596.482	1050.44
596.679	1075.01
596.876	984.9
597.072	1171.27
597.269	1105.73
597.466	1134.4
597.662	1058.63
597.859	1136.45
598.055	1218.37
598.252	1290.05
598.448	1408.83
598.645	1447.74
598.841	1324.87
599.038	1584.96
599.234	1544
599.431	1566.53
599.627	1673.02
599.824	1716.03
600.02	1763.13
600.217	1748.79
600.413	1955.64
600.609	1929.02
600.806	2152.24
601.002	2060.09
601.198	2084.66
601.395	2297.65
601.591	2389.81
601.787	2428.72
601.984	2494.26
602.18	2602.8
602.376	2582.32
602.572	2748.2
602.769	2803.5
602.965	2955.05
603.161	3051.3
603.357	3200.8
603.553	3405.6
603.75	3325.73
603.946	3493.66
604.142	3626.78
604.338	3821.34
604.534	3905.31
604.73	4001.56
604.926	4177.69
605.122	4472.59
605.318	4247.32
605.514	4462.35
605.71	4652.81
605.906	4876.04
606.102	4910.86
606.298	5082.89
606.494	5379.84
606.69	5410.56
606.886	5490.43
607.082	5781.25
607.278	6051.58
607.474	5986.04
607.67	6110.97
607.866	6291.19
608.062	6706.93
608.257	6764.27
608.453	6790.89
608.649	7126.76
608.845	7173.86
609.041	7368.42
609.236	7851.74
609.432	7864.03
609.628	8179.42
609.824	8353.49
610.019	8404.69
610.215	8697.55
610.411	9084.62
610.606	9326.28
610.802	9543.36
610.998	9817.79
611.193	10051.26
611.389	10100.41
611.584	10626.74
611.78	10827.44
611.976	10946.22
612.171	11536.04
612.367	11626.15
612.562	11949.73
612.758	12220.06
612.953	12179.1
613.149	12848.79
613.344	13121.17
613.539	13536.9
613.735	13940.35
613.93	14235.26
614.126	14528.12
614.321	15154.8
614.517	15758.95
614.712	15650.41
614.907	16287.32
615.103	16832.08
615.298	16940.63
615.493	17710.66
615.688	17751.62
615.884	18507.32
616.079	18841.14
616.274	19404.33
616.47	19609.13
616.665	20176.42
616.86	20891.16
617.055	21302.8
617.25	21769.74
617.445	22558.21
617.641	22504.96
617.836	23301.62
618.031	23582.19
618.226	24606.17
618.421	25161.17
618.616	25789.9
618.811	26054.09
619.006	27043.26
619.201	27354.55
619.396	28319.14
619.591	28224.93
619.786	29238.68
619.981	29750.67
620.176	30707.07
620.371	30987.64
620.566	31815.02
620.761	32456.04
620.956	33084.76
621.151	33230.17
621.346	34325.83
621.541	34334.03
621.735	35978.54
621.93	35917.11
622.125	36975.91
622.32	37201.18
622.515	37946.64
622.709	38739.21
622.904	39650.55
623.099	39931.12
623.294	40903.91
623.488	40926.44
623.683	42607.82
623.878	42509.52
624.072	43246.79
624.267	44283.06
624.462	44831.91
624.656	45241.51
624.851	46095.51
625.046	46492.82
625.24	47395.97
625.435	47711.36
625.629	48690.29
625.824	49214.57
626.018	50082.91
626.213	49505.38
626.407	51190.86
626.602	50797.65
626.796	52132.92
626.991	52436.02
627.185	52368.44
627.38	52876.33
627.574	52986.92
627.768	53154.86
627.963	53879.84
628.157	53728.29
628.352	54553.62
628.546	53535.78
628.74	55059.47
628.935	54068.25
629.129	54424.6
629.323	54086.68
629.517	53892.13
629.712	53701.67
629.906	53204.01
630.1	52261.94
630.294	52257.85
630.489	51553.35
630.683	51549.25
630.877	49874.01
631.071	49296.49
631.265	48821.36
631.459	47879.29
631.653	46787.72
631.848	46138.52
632.042	44977.32
632.236	44270.77
632.43	42855.62
632.624	41981.14
632.818	40797.41
633.012	39361.79
633.206	38350.09
633.4	37608.73
633.594	35589.43
633.788	34704.71
633.982	33662.29
634.176	32433.51
634.369	31143.29
634.563	30086.54
634.757	28769.69
634.951	27934.12
635.145	26961.34
635.339	25851.34
635.533	24514.02
635.726	23782.89
635.92	22779.39
636.114	21808.65
636.308	20971.03
636.501	20614.68
636.695	19383.85
636.889	18523.71
637.083	17811.01
637.276	17155.66
637.47	16246.37
637.664	15826.53
637.857	15087.22
638.051	14589.56
638.244	13889.15
638.438	13260.43
638.632	12895.89
638.825	12209.82
639.019	11951.77
639.212	11255.47
639.406	10802.86
639.599	10567.35
639.793	10131.13
639.986	9606.85
640.18	9559.75
640.373	9072.33
640.567	8738.51
640.76	8236.76
640.954	7896.8
641.147	7581.41
641.34	7259.88
641.534	7028.46
641.727	6842.09
641.92	6762.22
642.114	6422.26
642.307	6014.71
642.5	5983.99
642.694	5646.08
642.887	5416.71
643.08	5277.44
643.273	5107.46
643.467	4675.34
643.66	4677.39
643.853	4341.52
644.046	4366.1
644.239	4187.93
644.432	3921.69
644.626	3718.94
644.819	3755.8
645.012	3682.08
645.205	3442.46
645.398	3311.39
645.591	3106.6
645.784	2893.61
645.977	2815.79
646.17	2766.64
646.363	2699.05
646.556	2590.51
646.749	2461.49
646.942	2436.91
647.135	2297.65
647.328	2205.49
647.521	2187.06
647.714	2012.98
647.907	1947.45
648.099	1888.06
648.292	1871.67
648.485	1777.47
648.678	1769.27
648.871	1634.11
649.064	1589.05
649.256	1478.46
649.449	1341.25
649.642	1292.1
649.835	1306.43
650.027	1365.82
650.22	1410.88
650.413	1189.7
650.605	1238.85
650.798	1097.54
650.991	1154.88
651.183	1216.32
651.376	1029.96
651.568	1005.38
651.761	993.09
651.954	1052.49
652.146	902.98
652.339	939.85
652.531	890.7
652.724	761.67
652.916	761.67
653.109	675.66
653.301	839.5
653.494	808.78
653.686	606.03
653.879	784.2
654.071	630.6
654.263	728.91
654.456	608.08
654.648	749.39
654.84	716.62
655.033	556.88
655.225	667.47
655.417	366.42
655.61	655.18
655.802	579.4
655.994	638.8
656.186	470.86
656.379	546.64
656.571	470.86
656.763	515.92
656.955	436.05
657.148	423.76
657.34	538.45
657.532	417.61
657.724	427.85
657.916	434
658.108	464.72
658.3	405.33
658.492	409.42
658.684	333.65
658.876	458.57
659.068	309.07
659.26	194.39
659.452	251.73
659.644	313.17
659.836	438.09
660.028	384.85
660.22	218.96
660.412	317.26
660.604	319.31
660.796	288.59
660.988	341.84
661.18	261.97
661.372	313.17
661.563	315.22
661.755	321.36
661.947	218.96
662.139	155.47
662.331	296.78
662.522	345.94
662.714	257.87
662.906	167.76
663.097	300.88
663.289	196.43
663.481	128.85
663.673	270.16
663.864	266.07
664.056	264.02
664.247	91.99
664.439	216.91
664.631	200.53
664.822	257.87
665.014	253.78
665.205	149.33
665.397	237.39
665.588	227.15
665.78	237.39
665.971	280.4
666.163	212.82
666.354	298.83
666.546	63.32
666.737	147.28
666.929	153.43
667.12	178
667.311	225.11
667.503	155.47
667.694	239.44
667.885	202.58
668.077	153.43
668.268	69.46
668.459	225.11
668.651	198.48
668.842	210.77
669.033	159.57
669.224	65.36
669.416	393.04
669.607	139.09
669.798	59.22
669.989	298.83
670.18	241.49
670.371	237.39
670.563	163.67
670.754	116.56
670.945	212.82
671.136	212.82
671.327	110.42
671.518	186.19
671.709	315.22
671.9	212.82
672.091	233.3
672.282	137.04
672.473	171.86
672.664	184.15
672.855	175.95
673.046	235.35
673.237	278.35
673.428	128.85
673.619	225.11
673.809	94.04
674	304.98
674.191	218.96
674.382	157.52
674.573	237.39
674.764	108.37
674.954	180.05
675.145	89.94
675.336	137.04
675.527	102.23
675.717	132.95
675.908	120.66
676.099	196.43
676.289	214.87
676.48	110.42
676.671	175.95
676.861	91.99
677.052	233.3
677.243	147.28
677.433	171.86
677.624	200.53
677.814	171.86
678.005	104.28
678.195	331.6
678.386	202.58
678.576	173.91
678.767	65.36
678.957	239.44
679.148	300.88
679.338	278.35
679.529	249.68
679.719	159.57
679.909	270.16
680.1	233.3
680.29	245.59
680.481	157.52
680.671	216.91
680.861	261.97
681.052	175.95
681.242	229.2
681.432	188.24
681.622	169.81
681.813	89.94
682.003	235.35
682.193	130.9
682.383	206.67
682.573	135
682.764	180.05
682.954	218.96
683.144	261.97
683.334	192.34
683.524	200.53
683.714	218.96
683.904	272.21
684.094	235.35
684.284	257.87
684.474	311.12
684.664	313.17
684.854	241.49
685.044	192.34
685.234	300.88
685.424	251.73
685.614	249.68
685.804	425.81
685.994	272.21
686.184	167.76
686.374	257.87
686.564	276.31
686.753	132.95
686.943	186.19
687.133	173.91
687.323	130.9
687.513	304.98
687.702	247.63
687.892	165.71
688.082	276.31
688.272	302.93
688.461	171.86
688.651	309.07
688.841	237.39
689.03	206.67
689.22	274.26
689.41	255.83
689.599	259.92
689.789	204.63
689.979	309.07
690.168	266.07
690.358	370.51
690.547	198.48
690.737	161.62
690.926	223.06
691.116	233.3
691.305	298.83
691.495	286.54
691.684	210.77
691.874	192.34
692.063	218.96
692.252	274.26
692.442	335.7
692.631	178
692.82	237.39
693.01	270.16
693.199	200.53
693.388	247.63
693.578	241.49
693.767	276.31
693.956	235.35
694.146	229.2
694.335	235.35
694.524	257.87
694.713	266.07
694.902	206.67
695.092	221.01
695.281	266.07
695.47	249.68
695.659	186.19
695.848	221.01
696.037	137.04
696.226	323.41
696.415	161.62
696.604	292.69
696.793	282.45
696.982	223.06
697.171	372.56
697.36	241.49
697.549	239.44
697.738	135
697.927	196.43
698.116	102.23
698.305	223.06
698.494	190.29
698.683	218.96
698.872	339.79
699.061	276.31
699.25	184.15
699.438	204.63
699.627	212.82
699.816	321.36
700.005	151.38
700.193	151.38
700.382	278.35
700.571	251.73
700.76	218.96
700.948	247.63
701.137	300.88
701.326	341.84
701.514	120.66
701.703	218.96
701.892	239.44
702.08	335.7
702.269	241.49
702.457	233.3
702.646	173.91
702.834	261.97
703.023	186.19
703.212	200.53
703.4	167.76
703.589	223.06
703.777	149.33
703.965	145.24
704.154	149.33
704.342	55.12
704.531	190.29
704.719	130.9
704.907	276.31
705.096	206.67
705.284	114.52
705.472	221.01
705.661	161.62
705.849	272.21
706.037	284.5
706.226	261.97
706.414	286.54
706.602	182.1
706.79	204.63
706.979	194.39
707.167	171.86
707.355	89.94
707.543	274.26
707.731	212.82
707.919	200.53
708.107	214.87
708.296	73.56
708.484	151.38
708.672	198.48
708.86	255.83
709.048	200.53
709.236	124.76
709.424	311.12
709.612	151.38
709.8	106.32
709.988	257.87
710.176	223.06
710.364	196.43
710.551	137.04
710.739	188.24
710.927	216.91
711.115	151.38
711.303	292.69
711.491	329.55
711.679	139.09
711.866	245.59
712.054	204.63
712.242	247.63
712.43	264.02
712.617	194.39
712.805	298.83
712.993	278.35
713.181	149.33
713.368	264.02
713.556	221.01
713.744	284.5
713.931	370.51
714.119	237.39
714.306	186.19
714.494	212.82
714.682	247.63
714.869	116.56
715.057	223.06
715.244	167.76
715.432	241.49
715.619	89.94
715.807	196.43
715.994	239.44
716.182	261.97
716.369	343.89
716.556	169.81
716.744	114.52
716.931	128.85
717.119	210.77
717.306	270.16
717.493	288.59
717.681	204.63
717.868	89.94
718.055	212.82
718.242	341.84
718.43	270.16
718.617	270.16
718.804	233.3
718.991	290.64
719.179	241.49
719.366	302.93
719.553	245.59
719.74	231.25
719.927	235.35
720.114	241.49
720.301	135
720.488	231.25
720.676	200.53
720.863	311.12
721.05	304.98
721.237	292.69
721.424	272.21
721.611	282.45
721.798	186.19
721.985	204.63
722.172	206.67
722.358	253.78
722.545	292.69
722.732	290.64
722.919	356.18
723.106	270.16
723.293	233.3
723.48	251.73
723.667	116.56
723.853	296.78
724.04	235.35
724.227	296.78
724.414	167.76
724.6	235.35
724.787	292.69
724.974	274.26
725.161	218.96
725.347	132.95
725.534	206.67
725.72	319.31
725.907	329.55
726.094	247.63
726.28	204.63
726.467	229.2
726.653	214.87
726.84	329.55
727.027	384.85
727.213	161.62
727.4	264.02
727.586	286.54
727.773	206.67
727.959	296.78
728.145	241.49
728.332	171.86
728.518	198.48
728.705	196.43
728.891	329.55
729.077	350.03
729.264	270.16
729.45	231.25
729.636	284.5
729.823	345.94
730.009	368.46
730.195	184.15
730.382	249.68
730.568	210.77
730.754	255.83
730.94	231.25
731.126	302.93
731.313	311.12
731.499	257.87
731.685	280.4
731.871	329.55
732.057	239.44
732.243	323.41
732.429	335.7
732.615	409.42
732.801	298.83
732.987	333.65
733.173	241.49
733.359	225.11
733.545	184.15
733.731	212.82
733.917	421.71
734.103	241.49
734.289	286.54
734.475	261.97
734.661	419.66
734.847	327.5
735.033	180.05
735.219	362.32
735.404	264.02
735.59	208.72
735.776	239.44
735.962	290.64
736.148	360.27
736.333	327.5
736.519	296.78
736.705	294.74
736.89	282.45
737.076	274.26
737.262	245.59
737.447	264.02
737.633	268.11
737.819	288.59
738.004	290.64
738.19	274.26
738.375	235.35
738.561	358.22
738.747	233.3
738.932	216.91
739.118	446.29
739.303	405.33
739.489	321.36
739.674	288.59
739.859	194.39
740.045	341.84
740.23	378.7
740.416	165.71
740.601	317.26
740.786	268.11
740.972	251.73
741.157	243.54
741.342	178
741.528	261.97
741.713	339.79
741.898	235.35
742.084	245.59
742.269	233.3
742.454	280.4
742.639	368.46
742.824	335.7
743.01	358.22
743.195	427.85
743.38	282.45
743.565	241.49
743.75	241.49
743.935	352.08
744.12	261.97
744.305	237.39
744.49	282.45
744.675	233.3
744.86	188.24
745.045	264.02
745.23	282.45
745.415	286.54
745.6	284.5
745.785	255.83
745.97	401.23
746.155	298.83
746.34	327.5
746.525	255.83
746.71	356.18
746.895	194.39
747.079	223.06
747.264	231.25
747.449	284.5
747.634	323.41
747.819	216.91
748.003	257.87
748.188	145.24
748.373	311.12
748.557	182.1
748.742	259.92
748.927	268.11
749.111	190.29
749.296	141.14
749.481	264.02
749.665	329.55
749.85	206.67
750.034	218.96
750.219	202.58
750.404	227.15
750.588	188.24
750.773	114.52
750.957	147.28
751.141	204.63
751.326	245.59
751.51	178
751.695	167.76
751.879	178
752.064	292.69
752.248	280.4
752.432	341.84
752.617	251.73
752.801	243.54
752.985	192.34
753.17	196.43
753.354	143.19
753.538	255.83
753.722	118.61
753.907	159.57
754.091	161.62
754.275	182.1
754.459	116.56
754.643	48.98
754.828	147.28
755.012	231.25
755.196	108.37
755.38	196.43
755.564	128.85
755.748	184.15
755.932	173.91
756.116	245.59
756.3	206.67
756.484	118.61
756.668	175.95
756.852	44.88
757.036	194.39
757.22	151.38
757.404	114.52
757.588	171.86
757.772	124.76
757.956	114.52
758.14	241.49
758.323	100.18
758.507	243.54
758.691	120.66
758.875	218.96
759.059	309.07
759.242	73.56
759.426	208.72
759.61	116.56
759.794	75.6
759.977	233.3
760.161	360.27
760.345	214.87
760.528	214.87
760.712	165.71
760.895	196.43
761.079	126.8
761.263	104.28
761.446	139.09
761.63	153.43
761.813	169.81
761.997	108.37
762.18	112.47
762.364	272.21
762.547	24.4
762.731	198.48
762.914	120.66
763.098	135
763.281	106.32
763.464	89.94
763.648	75.6
763.831	46.93
764.015	137.04
764.198	223.06
764.381	139.09
764.564	173.91
764.748	122.71
764.931	159.57
765.114	104.28
765.297	153.43
765.481	61.27
765.664	114.52
765.847	96.08
766.03	180.05
766.213	44.88
766.397	118.61
766.58	-18.6
766.763	153.43
766.946	100.18
767.129	157.52
767.312	118.61
767.495	104.28
767.678	65.36
767.861	14.17
768.044	91.99
768.227	14.17
768.41	139.09
768.593	110.42
768.776	194.39
768.959	71.51
769.142	171.86
769.324	65.36
769.507	94.04
769.69	87.89
769.873	44.88
770.056	284.5
770.239	57.17
770.421	180.05
770.604	65.36
770.787	44.88
770.97	149.33
771.152	1.88
771.335	120.66
771.518	77.65
771.7	147.28
771.883	116.56
772.066	69.46
772.248	137.04
772.431	200.53
772.613	169.81
772.796	59.22
772.978	85.84
773.161	225.11
773.343	48.98
773.526	36.69
773.708	-49.32
773.891	3.93
774.073	61.27
774.256	22.36
774.438	247.63
774.621	36.69
774.803	79.7
774.985	28.5
775.168	155.47
775.35	12.12
775.532	96.08
775.715	-45.23
775.897	122.71
776.079	36.69
776.261	122.71
776.444	48.98
776.626	8.02
776.808	57.17
776.99	-24.75
777.173	137.04
777.355	87.89
777.537	118.61
777.719	61.27
777.901	65.36
778.083	65.36
778.265	34.64
778.447	124.76
778.629	71.51
778.811	100.18
778.993	122.71
779.175	67.41
779.357	-32.94
779.539	-24.75
779.721	67.41
779.903	102.23
780.085	-14.51
780.267	89.94
780.449	32.6
780.631	114.52
780.812	149.33
780.994	108.37
781.176	18.26
781.358	-41.13
781.54	-4.27
781.721	128.85
781.903	147.28
782.085	-0.17
782.267	153.43
782.448	-49.32
782.63	24.4
782.812	46.93
782.993	98.13
783.175	61.27
783.357	-16.55
783.538	38.74
783.72	-18.6
783.901	36.69
784.083	38.74
784.264	71.51
784.446	3.93
784.627	-26.79
784.809	91.99
784.99	10.07
785.172	108.37
785.353	100.18
785.535	48.98
785.716	48.98
785.897	-51.37
786.079	3.93
786.26	-18.6
786.441	32.6
786.623	-69.8
786.804	18.26
786.985	34.64
787.167	22.36
787.348	-57.51
787.529	-65.71
787.71	221.01
787.891	-22.7
788.073	-45.23
788.254	-63.66
788.435	143.19
788.616	-18.6
788.797	-86.19
788.978	98.13
789.159	-39.08
789.34	40.79
789.522	-2.22
789.703	-37.03
789.884	44.88
790.065	24.4
790.246	120.66
790.427	-32.94
790.607	126.8
790.788	104.28
790.969	-12.46
791.15	98.13
791.331	-12.46
791.512	-49.32
791.693	-49.32
791.874	16.21
792.054	147.28
792.235	124.76
792.416	-118.95
792.597	-24.75
792.778	28.5
792.958	48.98
793.139	132.95
793.32	59.22
793.5	-10.41
793.681	171.86
793.862	36.69
794.042	-4.27
794.223	-71.85
794.404	-28.84
794.584	-129.19
794.765	10.07
794.945	100.18
795.126	32.6
795.306	167.76
795.487	-12.46
795.667	12.12
795.848	3.93
796.028	5.97
796.209	46.93
796.389	130.9
796.57	-26.79
796.75	-112.81
796.93	-20.65
797.111	-55.47
797.291	-10.41
797.471	57.17
797.652	-14.51
797.832	-106.67
798.012	42.84
798.192	3.93
798.373	-10.41
798.553	5.97
798.733	98.13
798.913	-37.03
799.093	-20.65
799.274	28.5
799.454	59.22
799.634	139.09
799.814	73.56
799.994	-22.7
800.174	26.45
800.354	34.64
800.534	-20.65
800.714	118.61
800.894	-75.95
801.074	12.12
801.254	-10.41
801.434	100.18
801.614	1.88
801.794	-67.75
801.974	1832.76
802.154	65.36
802.334	96.08
802.514	8.02
802.693	24.4
802.873	73.56
803.053	75.6
803.233	10.07
803.413	20.31
803.592	-22.7
803.772	-53.42
803.952	-2.22
804.131	-82.09
804.311	65.36
804.491	46.93
804.67	-39.08
804.85	-24.75
805.03	16.21
805.209	42.84
805.389	-37.03
805.568	-55.47
805.748	-47.27
805.928	16.21
806.107	22.36
806.287	53.08
806.466	75.6
806.646	-57.51
806.825	10.07
807.004	-61.61
807.184	10.07
807.363	165.71
807.543	-2.22
807.722	-59.56
807.901	102.23
808.081	16.21
808.26	-184.49
808.439	65.36
808.619	3.93
808.798	-53.42
808.977	69.46
809.156	61.27
809.336	-30.89
809.515	18.26
809.694	-2.22
809.873	-28.84
810.052	51.03
810.231	69.46
810.411	-0.17
810.59	69.46
810.769	34.64
810.948	42.84
811.127	-110.76
811.306	-57.51
811.485	-45.23
811.664	96.08
811.843	44.88
812.022	14.17
812.201	-55.47
812.38	32.6
812.559	3.93
812.737	48.98
812.916	-90.28
813.095	-39.08
813.274	48.98
813.453	-41.13
813.632	89.94
813.811	79.7
813.989	-61.61
814.168	40.79
814.347	-69.8
814.526	-55.47
814.704	110.42
814.883	63.32
815.062	-34.99
815.24	-12.46
815.419	-61.61
815.598	1.88
815.776	-98.47
815.955	10.07
816.133	-100.52
816.312	30.55
816.49	-69.8
816.669	-30.89
816.847	83.8
817.026	34.64
817.204	65.36
817.383	-102.57
817.561	-71.85
817.74	3.93
817.918	-2.22
818.097	5.97
818.275	-47.27
818.453	26.45
818.632	16.21
818.81	71.51
818.988	-2.22
819.167	-41.13
819.345	71.51
819.523	-41.13
819.701	-51.37
819.879	18.26
820.058	-61.61
820.236	-8.36
820.414	3.93
820.592	14.17
820.77	26.45
820.948	-37.03
821.127	-77.99
821.305	-2.22
821.483	-53.42
821.661	100.18
821.839	12.12
822.017	-71.85
822.195	8.02
822.373	10.07
822.551	-14.51
822.729	-10.41
822.907	-6.31
823.085	100.18
823.262	26.45
823.44	-53.42
823.618	-53.42
823.796	44.88
823.974	-16.55
824.152	-84.14
824.329	8.02
824.507	1.88
824.685	55.12
824.863	42.84
825.04	57.17
825.218	73.56
825.396	-55.47
825.574	53.08
825.751	-55.47
825.929	63.32
826.107	-51.37
826.284	-77.99
826.462	38.74
826.639	-28.84
826.817	-108.71
826.994	57.17
827.172	-104.62
827.349	94.04
827.527	8.02
827.704	12.12
827.882	18.26
828.059	-47.27
828.237	-92.33
828.414	36.69
828.591	-18.6
828.769	-39.08
828.946	-94.38
829.124	75.6
829.301	75.6
829.478	-63.66
829.655	122.71
829.833	30.55
830.01	-182.44
830.187	1.88
830.364	-57.51
830.542	-77.99
830.719	135
830.896	94.04
831.073	-10.41
831.25	48.98
831.427	77.65
831.604	-4.27
831.782	-0.17
831.959	12.12
832.136	-41.13
832.313	36.69
832.49	-131.24
832.667	77.65
832.844	-92.33
833.021	26.45
833.198	32.6
833.374	3.93
833.551	-26.79
833.728	-110.76
833.905	85.84
834.082	-57.51
834.259	3.93
834.436	137.04
834.612	-47.27
834.789	75.6
834.966	-65.71
835.143	83.8
835.319	-137.38
835.496	79.7
835.673	44.88
835.85	57.17
836.026	8.02
836.203	67.41
836.38	-28.84
836.556	-49.32
836.733	-26.79
836.909	163.67
837.086	-0.17
837.262	-82.09
837.439	-18.6
837.616	-57.51
837.792	-49.32
837.968	-32.94
838.145	-123.05
838.321	20.31
838.498	102.23
838.674	26.45
838.851	44.88
839.027	-41.13
839.203	51.03
839.38	8.02
839.556	-16.55
839.732	26.45
839.909	-0.17
840.085	20.31
840.261	-100.52
840.437	10.07
840.614	-57.51
840.79	55.12
840.966	73.56
841.142	46.93
841.318	-32.94
841.494	42.84
841.671	38.74
841.847	-69.8
842.023	-53.42
842.199	32.6
842.375	126.8
842.551	-86.19
842.727	-131.24
842.903	38.74
843.079	-92.33
843.255	91.99
843.431	-0.17
843.607	-20.65
843.783	-104.62
843.959	42.84
844.134	-28.84
844.31	108.37
844.486	-16.55
844.662	3.93
844.838	32.6
845.013	24.4
845.189	85.84
845.365	-65.71
845.541	20.31
845.716	-108.71
845.892	57.17
846.068	-69.8
846.244	-63.66
846.419	24.4
846.595	-80.04
846.77	-61.61
846.946	16.21
847.122	-41.13
847.297	-14.51
847.473	96.08
847.648	-137.38
847.824	-41.13
847.999	-114.86
848.175	-55.47
848.35	-0.17
848.526	100.18
848.701	10.07
848.876	40.79
849.052	16.21
849.227	-92.33
849.403	-43.18
849.578	-22.7
849.753	-4.27
849.929	61.27
850.104	-98.47
850.279	10.07
850.454	-37.03
850.63	67.41
850.805	28.5
850.98	44.88
851.155	-16.55
851.33	-12.46
851.505	-82.09
851.681	137.04
851.856	-4.27
852.031	-2.22
852.206	1.88
852.381	-77.99
852.556	-86.19
852.731	-39.08
852.906	16.21
853.081	5.97
853.256	71.51
853.431	-34.99
853.606	-43.18
853.781	-73.9
853.956	-184.49
854.131	51.03
854.305	-94.38
854.48	-41.13
854.655	-71.85
854.83	-41.13
855.005	-41.13
855.18	22.36
855.354	-20.65
855.529	20.31
855.704	-75.95
855.879	44.88
856.053	24.4
856.228	44.88
856.403	-47.27
856.577	24.4
856.752	-118.95
856.926	-39.08
857.101	51.03
857.276	-65.71
857.45	-0.17
857.625	57.17
857.799	34.64
857.974	-2.22
858.148	-112.81
858.323	10.07
858.497	10.07
858.672	-92.33
858.846	-123.05
859.02	26.45
859.195	-102.57
859.369	-75.95
859.543	8.02
859.718	-18.6
859.892	26.45
860.066	18.26
860.241	-73.9
860.415	-63.66
860.589	-53.42
860.763	-34.99
860.938	-53.42
861.112	79.7
861.286	-6.31
861.46	-45.23
861.634	-12.46
861.808	32.6
861.982	-55.47
862.157	-106.67
862.331	-88.23
862.505	-92.33
862.679	-133.29
862.853	-61.61
863.027	24.4
863.201	98.13
863.375	-86.19
863.549	36.69
863.722	40.79
863.896	61.27
864.07	-45.23
864.244	48.98
864.418	-24.75
864.592	-16.55
864.766	-59.56
864.939	-2.22
865.113	-116.9
865.287	89.94
865.461	-104.62
865.634	-26.79
865.808	-73.9
865.982	-41.13
866.156	-18.6
866.329	-98.47
866.503	-24.75
866.676	5.97
866.85	-20.65
867.024	-77.99
867.197	-22.7
867.371	-24.75
867.544	-61.61
867.718	-92.33
867.891	1.88
868.065	-129.19
868.238	-37.03
868.412	55.12
868.585	-34.99
868.759	-151.72
868.932	-96.43
869.105	-114.86
869.279	-65.71
869.452	-90.28
869.625	-6.31
869.799	8.02
869.972	-108.71
870.145	-47.27
870.319	108.37
870.492	-55.47
870.665	-12.46
870.838	-176.3
871.011	-139.43
871.185	-2.22
871.358	-82.09
871.531	18.26
871.704	-86.19
871.877	34.64
872.05	-59.56
872.223	-164.01
872.396	16.21
872.569	71.51
872.742	-157.86
872.915	10.07
873.088	-63.66
873.261	-98.47
873.434	67.41
873.607	18.26
873.78	132.95
873.953	-75.95
874.126	-41.13
874.299	-14.51
874.471	10.07
874.644	-30.89
874.817	61.27
874.99	36.69
875.163	-110.76
875.335	-32.94
875.508	-55.47
875.681	59.22
875.853	-77.99
876.026	-26.79
876.199	46.93
876.371	-28.84
876.544	20.31
876.717	-10.41
876.889	-20.65
877.062	24.4
877.234	-125.1
877.407	-4.27
877.579	-43.18
877.752	-86.19
877.924	61.27
878.097	-0.17
878.269	-2.22
878.442	-30.89
878.614	26.45
878.786	-6.31
878.959	-75.95
879.131	-12.46
879.303	-96.43
879.476	-0.17
879.648	81.75
879.82	-94.38
879.993	-10.41
880.165	-28.84
880.337	-151.72
880.509	5.97
880.681	-47.27
880.854	-45.23
881.026	-30.89
881.198	171.86
881.37	1.88
881.542	36.69
881.714	-49.32
881.886	-28.84
882.058	-49.32
882.23	30.55
882.402	-77.99
882.574	-0.17
882.746	22.36
882.918	102.23
883.09	85.84
883.262	63.32
883.434	3.93
883.606	-133.29
883.778	-16.55
883.95	126.8
884.122	8.02
884.293	24.4
884.465	-22.7
884.637	51.03
884.809	-80.04
884.98	14.17
885.152	46.93
885.324	8.02
885.496	-43.18
885.667	-26.79
885.839	-47.27
886.011	116.56
886.182	-8.36
886.354	53.08
886.525	75.6
886.697	-84.14
886.869	-55.47
887.04	-125.1
887.212	155.47
887.383	77.65
887.555	44.88
887.726	-37.03
887.897	-18.6
888.069	-10.41
888.24	30.55
888.412	-30.89
888.583	-106.67
888.754	5.97
888.926	-149.67
889.097	-121
889.268	-139.43
889.44	-6.31
889.611	-98.47
889.782	-65.71
889.953	-63.66
890.125	83.8
890.296	-32.94
890.467	-69.8
890.638	-98.47
890.809	-20.65
890.98	-94.38
891.151	-63.66
891.323	124.76
891.494	-14.51
891.665	-0.17
891.836	-100.52
892.007	-16.55
892.178	-57.51
892.349	26.45
892.52	-149.67
892.691	1.88
892.862	-98.47
893.032	-168.1
893.203	-47.27
893.374	22.36
893.545	42.84
893.716	3.93
893.887	65.36
894.057	-96.43
894.228	-28.84
894.399	-69.8
894.57	-39.08
894.74	-90.28
894.911	14.17
895.082	-55.47
895.253	-22.7
895.423	-39.08
895.594	55.12
895.764	24.4
895.935	-80.04
896.106	44.88
896.276	-57.51
896.447	-4.27
896.617	-100.52
896.788	-75.95
896.958	-32.94
897.129	34.64
897.299	-49.32
897.47	59.22
897.64	94.04
897.81	-94.38
897.981	44.88
898.151	-71.85
898.322	26.45
898.492	16.21
898.662	-94.38
898.832	-34.99
899.003	-88.23
899.173	94.04
899.343	-28.84
899.513	-61.61
