Data from USB4F104151__242__11-06-36-113.txt Node

Date: Wed Feb 26 11:06:36 EST 2025
User: louis
Spectrometer: USB4F10415
Trigger mode: 4
Integration Time (sec): 1.000000E-1
Scans to average: 1
Electric dark correction enabled: true
Nonlinearity correction enabled: false
Boxcar width: 0
XAxis mode: Wavelengths
Number of Pixels in Spectrum: 3648
>>>>>Begin Spectral Data<<<<<
178.204	-453.28
178.424	-453.28
178.644	-453.28
178.864	-414.37
179.084	-381.6
179.304	-2.73
179.524	-39.59
179.744	32.08
179.964	54.61
180.184	38.23
180.404	19.8
180.624	-49.83
180.844	19.8
181.064	-76.46
181.283	60.76
181.503	-92.84
181.723	36.18
181.943	-88.75
182.163	116.05
182.383	36.18
182.602	66.9
182.822	146.77
183.042	-4.78
183.262	40.28
183.482	1.37
183.701	-27.31
183.921	81.24
184.141	23.89
184.361	114
184.58	144.72
184.8	60.76
185.02	-53.93
185.239	136.53
185.459	64.85
185.679	107.86
185.898	-37.55
186.118	93.52
186.338	42.32
186.557	148.82
186.777	-2.73
186.997	-15.02
187.216	27.99
187.436	157.01
187.655	-23.21
187.875	101.72
188.095	-23.21
188.314	103.76
188.534	56.66
188.753	-70.31
188.973	114
189.192	161.11
189.412	-17.07
189.631	48.47
189.851	89.43
190.07	118.1
190.29	-82.6
190.509	-39.59
190.729	25.94
190.948	73.04
191.168	206.16
191.387	118.1
191.607	-29.35
191.826	116.05
192.045	54.61
192.265	17.75
192.484	71
192.704	21.84
192.923	-17.07
193.142	157.01
193.362	120.15
193.581	118.1
193.8	60.76
194.02	105.81
194.239	-17.07
194.458	52.56
194.678	44.37
194.897	25.94
195.116	36.18
195.335	87.38
195.555	15.7
195.774	-12.97
195.993	167.25
196.212	1.37
196.432	48.47
196.651	99.67
196.87	44.37
197.089	206.16
197.308	50.52
197.528	130.39
197.747	-23.21
197.966	122.2
198.185	40.28
198.404	-0.68
198.623	181.59
198.842	120.15
199.062	91.48
199.281	97.62
199.5	-8.87
199.719	126.29
199.938	-4.78
200.157	85.33
200.376	89.43
200.595	138.58
200.814	138.58
201.033	56.66
201.252	134.48
201.471	21.84
201.69	120.15
201.909	50.52
202.128	81.24
202.347	109.91
202.566	83.28
202.785	-96.94
203.004	-15.02
203.223	224.59
203.442	62.8
203.661	-6.83
203.879	32.08
204.098	157.01
204.317	-86.7
204.536	101.72
204.755	111.96
204.974	50.52
205.193	-37.55
205.411	171.35
205.63	114
205.849	81.24
206.068	-33.45
206.287	66.9
206.505	126.29
206.724	-62.12
206.943	75.09
207.162	-35.5
207.381	64.85
207.599	54.61
207.818	34.13
208.037	-17.07
208.255	44.37
208.474	38.23
208.693	132.44
208.911	3.41
209.13	124.24
209.349	101.72
209.567	60.76
209.786	46.42
210.005	114
210.223	48.47
210.442	-144.04
210.661	36.18
210.879	66.9
211.098	9.56
211.316	95.57
211.535	95.57
211.753	85.33
211.972	107.86
212.191	87.38
212.409	1.37
212.628	150.87
212.846	17.75
213.065	132.44
213.283	62.8
213.502	-43.69
213.72	91.48
213.938	52.56
214.157	52.56
214.375	144.72
214.594	-6.83
214.812	116.05
215.031	15.7
215.249	5.46
215.467	44.37
215.686	48.47
215.904	36.18
216.122	1.37
216.341	99.67
216.559	54.61
216.778	111.96
216.996	81.24
217.214	32.08
217.432	-25.26
217.651	-12.97
217.869	40.28
218.087	93.52
218.306	5.46
218.524	60.76
218.742	27.99
218.96	111.96
219.179	87.38
219.397	-12.97
219.615	210.26
219.833	132.44
220.051	-43.69
220.27	116.05
220.488	171.35
220.706	114
220.924	-33.45
221.142	7.51
221.36	32.08
221.578	40.28
221.796	48.47
222.015	68.95
222.233	50.52
222.451	208.21
222.669	-82.6
222.887	97.62
223.105	56.66
223.323	46.42
223.541	-45.74
223.759	134.48
223.977	32.08
224.195	62.8
224.413	25.94
224.631	13.65
224.849	44.37
225.067	179.54
225.285	50.52
225.503	21.84
225.721	-62.12
225.939	23.89
226.157	34.13
226.375	220.5
226.592	34.13
226.81	46.42
227.028	132.44
227.246	181.59
227.464	36.18
227.682	95.57
227.9	93.52
228.117	44.37
228.335	71
228.553	30.04
228.771	73.04
228.989	17.75
229.206	120.15
229.424	101.72
229.642	-88.75
229.86	1.37
230.077	161.11
230.295	52.56
230.513	114
230.731	-10.92
230.948	118.1
231.166	197.97
231.384	-15.02
231.601	17.75
231.819	224.59
232.037	-96.94
232.254	-70.31
232.472	5.46
232.689	-25.26
232.907	83.28
233.125	38.23
233.342	19.8
233.56	9.56
233.777	85.33
233.995	-33.45
234.213	146.77
234.43	124.24
234.648	77.14
234.865	32.08
235.083	140.63
235.3	46.42
235.518	66.9
235.735	136.53
235.953	79.19
236.17	19.8
236.388	40.28
236.605	62.8
236.822	114
237.04	185.68
237.257	52.56
237.475	-39.59
237.692	34.13
237.909	93.52
238.127	25.94
238.344	144.72
238.562	87.38
238.779	-27.31
238.996	-41.64
239.214	19.8
239.431	99.67
239.648	30.04
239.865	91.48
240.083	132.44
240.3	58.71
240.517	-2.73
240.735	17.75
240.952	114
241.169	32.08
241.386	130.39
241.603	38.23
241.821	-37.55
242.038	89.43
242.255	89.43
242.472	15.7
242.689	38.23
242.907	56.66
243.124	171.35
243.341	13.65
243.558	-35.5
243.775	27.99
243.992	-58.03
244.209	79.19
244.426	138.58
244.643	-31.4
244.86	34.13
245.078	144.72
245.295	83.28
245.512	-21.16
245.729	30.04
245.946	99.67
246.163	27.99
246.38	11.61
246.597	85.33
246.814	15.7
247.031	-35.5
247.248	-27.31
247.464	62.8
247.681	23.89
247.898	77.14
248.115	81.24
248.332	-53.93
248.549	179.54
248.766	204.11
248.983	71
249.2	68.95
249.417	85.33
249.633	11.61
249.85	107.86
250.067	-47.79
250.284	77.14
250.501	27.99
250.717	83.28
250.934	-25.26
251.151	21.84
251.368	1.37
251.585	89.43
251.801	46.42
252.018	42.32
252.235	111.96
252.451	-58.03
252.668	75.09
252.885	122.2
253.102	40.28
253.318	-17.07
253.535	-4.78
253.752	-10.92
253.968	-2.73
254.185	-43.69
254.401	48.47
254.618	60.76
254.835	-113.32
255.051	79.19
255.268	77.14
255.484	93.52
255.701	64.85
255.917	79.19
256.134	-90.79
256.351	-10.92
256.567	-21.16
256.784	46.42
257	-62.12
257.217	142.68
257.433	23.89
257.65	58.71
257.866	197.97
258.082	-62.12
258.299	-27.31
258.515	81.24
258.732	30.04
258.948	38.23
259.165	-2.73
259.381	-6.83
259.597	3.41
259.814	42.32
260.03	62.8
260.246	103.76
260.463	154.96
260.679	79.19
260.895	77.14
261.112	97.62
261.328	48.47
261.544	-47.79
261.761	200.02
261.977	-12.97
262.193	-8.87
262.409	120.15
262.626	5.46
262.842	13.65
263.058	-33.45
263.274	64.85
263.49	97.62
263.707	132.44
263.923	128.34
264.139	-37.55
264.355	64.85
264.571	161.11
264.787	114
265.004	154.96
265.22	-10.92
265.436	54.61
265.652	42.32
265.868	15.7
266.084	-17.07
266.3	46.42
266.516	-49.83
266.732	52.56
266.948	-4.78
267.164	32.08
267.38	140.63
267.596	-17.07
267.812	204.11
268.028	87.38
268.244	54.61
268.46	-41.64
268.676	17.75
268.892	30.04
269.108	-27.31
269.324	-64.17
269.54	-25.26
269.756	95.57
269.972	-53.93
270.188	36.18
270.403	-90.79
270.619	-17.07
270.835	23.89
271.051	21.84
271.267	-4.78
271.483	-21.16
271.698	71
271.914	52.56
272.13	19.8
272.346	-21.16
272.562	87.38
272.777	140.63
272.993	-29.35
273.209	-43.69
273.425	95.57
273.64	-76.46
273.856	107.86
274.072	-51.88
274.287	23.89
274.503	97.62
274.719	118.1
274.934	-72.36
275.15	-43.69
275.366	1.37
275.581	-47.79
275.797	40.28
276.012	9.56
276.228	15.7
276.444	85.33
276.659	15.7
276.875	-23.21
277.09	42.32
277.306	-47.79
277.521	122.2
277.737	25.94
277.952	91.48
278.168	73.04
278.383	50.52
278.599	64.85
278.814	62.8
279.03	109.91
279.245	126.29
279.461	95.57
279.676	142.68
279.892	-51.88
280.107	-21.16
280.322	-31.4
280.538	-37.55
280.753	-41.64
280.969	79.19
281.184	44.37
281.399	163.15
281.615	13.65
281.83	89.43
282.045	52.56
282.26	3.41
282.476	21.84
282.691	40.28
282.906	1.37
283.122	27.99
283.337	-29.35
283.552	9.56
283.767	64.85
283.983	124.24
284.198	-12.97
284.413	68.95
284.628	-17.07
284.843	13.65
285.058	60.76
285.274	30.04
285.489	13.65
285.704	81.24
285.919	-62.12
286.134	-2.73
286.349	89.43
286.564	-64.17
286.779	173.39
286.995	-31.4
287.21	36.18
287.425	87.38
287.64	15.7
287.855	48.47
288.07	-103.08
288.285	87.38
288.5	144.72
288.715	116.05
288.93	116.05
289.145	-17.07
289.36	50.52
289.575	-6.83
289.79	202.07
290.004	5.46
290.219	91.48
290.434	-17.07
290.649	-35.5
290.864	-15.02
291.079	15.7
291.294	73.04
291.509	126.29
291.724	42.32
291.938	17.75
292.153	-0.68
292.368	3.41
292.583	50.52
292.798	77.14
293.012	118.1
293.227	56.66
293.442	73.04
293.657	140.63
293.871	130.39
294.086	95.57
294.301	220.5
294.516	95.57
294.73	48.47
294.945	40.28
295.16	21.84
295.374	66.9
295.589	40.28
295.804	-27.31
296.018	48.47
296.233	111.96
296.447	13.65
296.662	-29.35
296.877	99.67
297.091	109.91
297.306	48.47
297.52	32.08
297.735	91.48
297.949	17.75
298.164	89.43
298.378	56.66
298.593	7.51
298.807	27.99
299.022	56.66
299.236	89.43
299.451	-49.83
299.665	107.86
299.88	1.37
300.094	83.28
300.309	62.8
300.523	89.43
300.737	-23.21
300.952	91.48
301.166	81.24
301.381	-25.26
301.595	-66.22
301.809	54.61
302.024	30.04
302.238	-66.22
302.452	77.14
302.667	105.81
302.881	216.4
303.095	40.28
303.309	-8.87
303.524	-29.35
303.738	-41.64
303.952	-17.07
304.166	38.23
304.381	-80.55
304.595	101.72
304.809	15.7
305.023	48.47
305.237	-6.83
305.452	64.85
305.666	9.56
305.88	73.04
306.094	68.95
306.308	27.99
306.522	32.08
306.736	66.9
306.95	107.86
307.164	36.18
307.379	42.32
307.593	175.44
307.807	71
308.021	93.52
308.235	109.91
308.449	-45.74
308.663	-8.87
308.877	314.7
309.091	-15.02
309.305	103.76
309.519	-55.98
309.733	132.44
309.947	9.56
310.161	93.52
310.374	154.96
310.588	134.48
310.802	-21.16
311.016	46.42
311.23	87.38
311.444	-37.55
311.658	89.43
311.872	87.38
312.085	140.63
312.299	224.59
312.513	163.15
312.727	13.65
312.941	-2.73
313.154	-6.83
313.368	120.15
313.582	7.51
313.796	81.24
314.009	27.99
314.223	85.33
314.437	44.37
314.651	126.29
314.864	21.84
315.078	50.52
315.292	-21.16
315.505	-12.97
315.719	52.56
315.933	91.48
316.146	-51.88
316.36	-74.41
316.573	38.23
316.787	126.29
317.001	68.95
317.214	-105.13
317.428	140.63
317.641	-86.7
317.855	21.84
318.068	46.42
318.282	118.1
318.495	185.68
318.709	77.14
318.922	9.56
319.136	142.68
319.349	144.72
319.563	19.8
319.776	89.43
319.99	-58.03
320.203	15.7
320.417	93.52
320.63	87.38
320.843	132.44
321.057	9.56
321.27	89.43
321.483	91.48
321.697	163.15
321.91	7.51
322.124	116.05
322.337	122.2
322.55	-21.16
322.763	95.57
322.977	9.56
323.19	21.84
323.403	107.86
323.617	62.8
323.83	132.44
324.043	79.19
324.256	-31.4
324.469	-55.98
324.683	99.67
324.896	21.84
325.109	-60.07
325.322	-162.47
325.535	52.56
325.748	17.75
325.962	-8.87
326.175	91.48
326.388	107.86
326.601	52.56
326.814	-17.07
327.027	50.52
327.24	152.91
327.453	36.18
327.666	71
327.879	48.47
328.092	54.61
328.305	60.76
328.518	48.47
328.731	52.56
328.944	42.32
329.157	114
329.37	-37.55
329.583	173.39
329.796	154.96
330.009	-45.74
330.222	30.04
330.435	89.43
330.648	7.51
330.861	75.09
331.073	48.47
331.286	114
331.499	23.89
331.712	-35.5
331.925	81.24
332.138	87.38
332.35	136.53
332.563	87.38
332.776	77.14
332.989	-19.11
333.202	-33.45
333.414	17.75
333.627	15.7
333.84	38.23
334.053	50.52
334.265	-31.4
334.478	-0.68
334.691	1.37
334.903	64.85
335.116	-19.11
335.329	-55.98
335.541	5.46
335.754	118.1
335.966	-8.87
336.179	27.99
336.392	-15.02
336.604	3.41
336.817	75.09
337.029	54.61
337.242	77.14
337.454	46.42
337.667	56.66
337.88	148.82
338.092	46.42
338.305	50.52
338.517	27.99
338.729	89.43
338.942	101.72
339.154	-27.31
339.367	-121.51
339.579	109.91
339.792	-39.59
340.004	48.47
340.217	27.99
340.429	27.99
340.641	30.04
340.854	-12.97
341.066	21.84
341.278	109.91
341.491	216.4
341.703	5.46
341.915	7.51
342.128	95.57
342.34	122.2
342.552	-17.07
342.764	46.42
342.977	17.75
343.189	3.41
343.401	42.32
343.613	-43.69
343.826	66.9
344.038	-39.59
344.25	73.04
344.462	-41.64
344.674	11.61
344.886	52.56
345.099	105.81
345.311	48.47
345.523	21.84
345.735	-125.61
345.947	42.32
346.159	44.37
346.371	15.7
346.583	-27.31
346.795	191.83
347.007	40.28
347.219	101.72
347.431	23.89
347.643	175.44
347.855	-43.69
348.067	140.63
348.279	-10.92
348.491	52.56
348.703	40.28
348.915	-60.07
349.127	13.65
349.339	111.96
349.551	42.32
349.763	183.63
349.975	109.91
350.187	19.8
350.399	118.1
350.61	91.48
350.822	-4.78
351.034	15.7
351.246	114
351.458	93.52
351.669	66.9
351.881	77.14
352.093	103.76
352.305	109.91
352.517	27.99
352.728	109.91
352.94	38.23
353.152	97.62
353.363	-49.83
353.575	50.52
353.787	101.72
353.999	107.86
354.21	236.88
354.422	1.37
354.633	83.28
354.845	95.57
355.057	34.13
355.268	11.61
355.48	93.52
355.692	-70.31
355.903	15.7
356.115	25.94
356.326	-84.65
356.538	165.2
356.749	36.18
356.961	116.05
357.172	46.42
357.384	-29.35
357.595	238.93
357.807	-4.78
358.018	11.61
358.23	97.62
358.441	191.83
358.653	152.91
358.864	-10.92
359.075	105.81
359.287	87.38
359.498	89.43
359.709	32.08
359.921	42.32
360.132	77.14
360.344	36.18
360.555	-23.21
360.766	-17.07
360.977	-33.45
361.189	146.77
361.4	11.61
361.611	175.44
361.823	46.42
362.034	19.8
362.245	-62.12
362.456	21.84
362.667	126.29
362.879	-55.98
363.09	62.8
363.301	11.61
363.512	52.56
363.723	-45.74
363.935	-15.02
364.146	126.29
364.357	13.65
364.568	48.47
364.779	-10.92
364.99	208.21
365.201	1.37
365.412	85.33
365.623	-41.64
365.834	73.04
366.045	48.47
366.256	48.47
366.467	116.05
366.678	27.99
366.889	89.43
367.1	23.89
367.311	62.8
367.522	17.75
367.733	58.71
367.944	126.29
368.155	9.56
368.366	103.76
368.577	134.48
368.788	144.72
368.999	-41.64
369.209	27.99
369.42	118.1
369.631	208.21
369.842	50.52
370.053	36.18
370.264	89.43
370.474	-4.78
370.685	32.08
370.896	75.09
371.107	83.28
371.317	93.52
371.528	-21.16
371.739	144.72
371.95	64.85
372.16	58.71
372.371	-29.35
372.582	83.28
372.792	75.09
373.003	103.76
373.214	19.8
373.424	58.71
373.635	-64.17
373.846	159.06
374.056	40.28
374.267	142.68
374.477	15.7
374.688	-94.89
374.898	126.29
375.109	134.48
375.319	54.61
375.53	32.08
375.74	146.77
375.951	7.51
376.161	62.8
376.372	111.96
376.582	40.28
376.793	83.28
377.003	-2.73
377.214	19.8
377.424	109.91
377.635	42.32
377.845	-39.59
378.055	132.44
378.266	-2.73
378.476	85.33
378.686	-4.78
378.897	46.42
379.107	97.62
379.317	-12.97
379.528	-45.74
379.738	120.15
379.948	-25.26
380.158	95.57
380.369	89.43
380.579	107.86
380.789	7.51
380.999	107.86
381.21	171.35
381.42	138.58
381.63	36.18
381.84	118.1
382.05	109.91
382.261	85.33
382.471	34.13
382.681	-8.87
382.891	134.48
383.101	-10.92
383.311	40.28
383.521	17.75
383.731	87.38
383.941	132.44
384.151	40.28
384.361	38.23
384.571	58.71
384.781	148.82
384.991	247.12
385.201	208.21
385.411	167.25
385.621	71
385.831	64.85
386.041	11.61
386.251	79.19
386.461	161.11
386.671	79.19
386.881	36.18
387.091	5.46
387.301	116.05
387.511	30.04
387.72	50.52
387.93	56.66
388.14	21.84
388.35	97.62
388.56	38.23
388.769	118.1
388.979	25.94
389.189	3.41
389.399	95.57
389.609	54.61
389.818	114
390.028	138.58
390.238	77.14
390.447	-2.73
390.657	81.24
390.867	7.51
391.076	-33.45
391.286	30.04
391.496	-23.21
391.705	64.85
391.915	144.72
392.125	118.1
392.334	-6.83
392.544	136.53
392.753	-41.64
392.963	-76.46
393.172	79.19
393.382	-35.5
393.591	150.87
393.801	7.51
394.01	109.91
394.22	58.71
394.429	38.23
394.639	-17.07
394.848	152.91
395.058	71
395.267	89.43
395.477	48.47
395.686	60.76
395.895	130.39
396.105	163.15
396.314	152.91
396.524	75.09
396.733	-12.97
396.942	146.77
397.152	48.47
397.361	167.25
397.57	64.85
397.78	-8.87
397.989	85.33
398.198	288.08
398.407	68.95
398.617	3.41
398.826	120.15
399.035	99.67
399.244	81.24
399.453	-10.92
399.663	105.81
399.872	52.56
400.081	-0.68
400.29	89.43
400.499	-10.92
400.708	118.1
400.917	89.43
401.127	11.61
401.336	5.46
401.545	191.83
401.754	148.82
401.963	97.62
402.172	54.61
402.381	23.89
402.59	5.46
402.799	54.61
403.008	105.81
403.217	-21.16
403.426	68.95
403.635	-37.55
403.844	-8.87
404.053	34.13
404.262	5.46
404.471	109.91
404.68	-4.78
404.888	-8.87
405.097	44.37
405.306	77.14
405.515	83.28
405.724	27.99
405.933	105.81
406.142	62.8
406.35	167.25
406.559	66.9
406.768	42.32
406.977	150.87
407.185	95.57
407.394	122.2
407.603	-84.65
407.812	85.33
408.02	161.11
408.229	87.38
408.438	38.23
408.646	-86.7
408.855	73.04
409.064	58.71
409.272	-10.92
409.481	89.43
409.69	-68.27
409.898	93.52
410.107	105.81
410.315	79.19
410.524	-21.16
410.733	103.76
410.941	85.33
411.15	93.52
411.358	132.44
411.567	167.25
411.775	56.66
411.984	95.57
412.192	200.02
412.401	17.75
412.609	230.74
412.818	91.48
413.026	38.23
413.234	85.33
413.443	56.66
413.651	7.51
413.86	-2.73
414.068	175.44
414.276	177.49
414.485	54.61
414.693	245.07
414.901	152.91
415.11	126.29
415.318	44.37
415.526	81.24
415.734	89.43
415.943	103.76
416.151	73.04
416.359	56.66
416.567	60.76
416.776	134.48
416.984	107.86
417.192	224.59
417.4	15.7
417.608	42.32
417.817	-25.26
418.025	99.67
418.233	222.55
418.441	62.8
418.649	25.94
418.857	-0.68
419.065	150.87
419.273	62.8
419.481	58.71
419.689	93.52
419.897	42.32
420.105	40.28
420.313	138.58
420.521	189.78
420.729	161.11
420.937	48.47
421.145	-0.68
421.353	83.28
421.561	165.2
421.769	146.77
421.977	75.09
422.185	140.63
422.393	5.46
422.601	202.07
422.809	64.85
423.017	89.43
423.224	75.09
423.432	132.44
423.64	75.09
423.848	136.53
424.056	83.28
424.263	107.86
424.471	81.24
424.679	154.96
424.887	60.76
425.094	107.86
425.302	62.8
425.51	5.46
425.718	161.11
425.925	-2.73
426.133	38.23
426.341	232.79
426.548	68.95
426.756	77.14
426.964	99.67
427.171	83.28
427.379	138.58
427.586	77.14
427.794	181.59
428.001	130.39
428.209	42.32
428.417	159.06
428.624	175.44
428.832	171.35
429.039	105.81
429.247	44.37
429.454	132.44
429.662	232.79
429.869	173.39
430.076	181.59
430.284	187.73
430.491	200.02
430.699	148.82
430.906	181.59
431.114	195.92
431.321	245.07
431.528	236.88
431.736	140.63
431.943	183.63
432.15	132.44
432.358	173.39
432.565	255.31
432.772	91.48
432.979	220.5
433.187	157.01
433.394	204.11
433.601	214.35
433.808	238.93
434.016	245.07
434.223	271.7
434.43	294.22
434.637	290.13
434.844	363.86
435.052	275.79
435.259	273.75
435.466	283.98
435.673	281.94
435.88	388.43
436.087	357.71
436.294	298.32
436.501	378.19
436.708	363.86
436.915	308.56
437.122	429.39
437.329	329.04
437.537	382.29
437.743	374.1
437.95	496.97
438.157	507.21
438.364	361.81
438.571	468.3
438.778	458.06
438.985	523.6
439.192	535.89
439.399	509.26
439.606	525.65
439.813	609.61
440.02	691.53
440.227	732.49
440.433	677.19
440.64	640.33
440.847	570.7
441.054	685.39
441.261	832.84
441.467	705.87
441.674	609.61
441.881	775.5
442.088	738.63
442.294	894.28
442.501	914.76
442.708	896.33
442.914	902.47
443.121	996.68
443.328	996.68
443.534	1056.07
443.741	988.49
443.948	925
444.154	1197.38
444.361	1240.39
444.568	1271.11
444.774	1232.19
444.981	1228.1
445.187	1350.98
445.394	1432.9
445.6	1361.22
445.807	1512.77
446.013	1387.84
446.22	1467.71
446.426	1590.59
446.633	1666.36
446.839	1838.39
447.046	1701.18
447.252	1914.17
447.459	1951.03
447.665	1897.78
447.871	2186.55
448.078	2217.27
448.284	2168.12
448.491	2354.48
448.697	2491.7
448.903	2487.6
449.11	2604.33
449.316	2592.05
449.522	2710.83
449.728	2762.03
449.935	2960.68
450.141	2932.01
450.347	3251.49
450.553	3140.9
450.76	3255.59
450.966	3349.79
451.172	3530.02
451.378	3396.9
451.584	3624.22
451.791	4095.25
451.997	4144.41
452.203	4128.02
452.409	4324.63
452.615	4625.68
452.821	4404.5
453.027	4422.93
453.233	4889.87
453.44	4863.24
453.646	5223.69
453.852	5395.72
454.058	5657.85
454.264	5840.12
454.47	6282.49
454.676	6292.73
454.882	6608.11
455.088	6460.66
455.294	6817.01
455.5	7312.61
455.705	7570.66
455.911	7628
456.117	7976.16
456.323	8197.34
456.529	8158.42
456.735	8871.12
456.941	8959.18
457.147	9630.91
457.352	9653.44
457.558	9868.48
457.764	10521.78
457.97	10683.57
458.176	11279.53
458.381	11709.6
458.587	11898.02
458.793	12534.93
458.999	12610.71
459.204	14115.97
459.41	14793.84
459.616	14832.75
459.821	15189.1
460.027	16172.13
460.233	16854.1
460.438	17083.47
460.644	17757.25
460.85	18060.35
461.055	18824.25
461.261	19596.33
461.466	19301.42
461.672	19510.32
461.878	22156.29
462.083	21718.03
462.289	21949.45
462.494	22844.41
462.7	23182.32
462.905	23548.91
463.111	25349.07
463.316	27050.94
463.522	27057.08
463.727	27904.94
463.932	28816.29
464.138	29938.57
464.343	31275.9
464.549	31343.48
464.754	33416.02
464.959	34499.4
465.165	35208
465.37	34915.14
465.575	34876.23
465.781	37620.5
465.986	38234.89
466.191	37583.64
466.397	38257.42
466.602	37102.37
466.807	39314.17
467.012	40104.69
467.218	40387.31
467.423	40755.94
467.628	41913.05
467.833	44171.96
468.038	42965.7
468.244	42330.83
468.449	44331.7
468.654	43410.11
468.859	43461.31
469.064	43645.63
469.269	42517.2
469.474	42984.13
469.679	44108.47
469.885	42717.9
470.09	43576
470.295	43694.78
470.5	42771.14
470.705	42685.13
470.91	41992.92
471.115	41587.42
471.32	41970.39
471.525	41839.32
471.73	40657.64
471.935	40575.72
472.139	39236.35
472.344	39211.78
472.549	39187.2
472.754	37972.75
472.959	37403.42
473.164	35775.28
473.369	35359.55
473.574	36553.51
473.778	36143.92
473.983	35162.94
474.188	34394.95
474.393	33020.77
474.598	33004.38
474.802	32138.09
475.007	31581.04
475.212	31277.94
475.417	30000.01
475.621	29930.38
475.826	29770.64
476.031	28924.83
476.235	28044.2
476.44	28470.18
476.645	27483.06
476.849	27423.67
477.054	26821.56
477.259	26467.27
477.463	25961.42
477.668	25510.86
477.872	25525.2
478.077	24720.35
478.282	24232.93
478.486	24024.04
478.691	23696.36
478.895	22934.52
479.1	23186.42
479.304	23161.84
479.509	22481.92
479.713	22629.37
479.918	21922.82
480.122	21740.55
480.326	22031.37
480.531	21861.38
480.735	21734.41
480.94	21228.56
481.144	22047.75
481.348	20786.2
481.553	20798.49
481.757	20337.69
481.961	20767.77
482.166	20659.23
482.37	20386.85
482.574	19704.87
482.778	19835.94
482.983	20239.39
483.187	19506.22
483.391	19557.42
483.595	19276.85
483.8	19203.12
484.004	18867.25
484.208	18850.87
484.412	18859.06
484.616	18633.78
484.821	18447.42
485.025	17828.93
485.229	18156.61
485.433	17450.06
485.637	17574.99
485.841	17130.58
486.045	17165.39
486.249	16983.12
486.453	16530.52
486.657	16280.67
486.861	16213.09
487.065	15963.23
487.269	16002.15
487.473	15369.32
487.677	15408.23
487.881	15385.71
488.085	14787.7
488.289	14746.74
488.493	14148.73
488.697	14331
488.901	13937.79
489.105	13669.51
489.309	13339.79
489.512	13122.7
489.716	12899.47
489.92	12620.95
490.124	12496.02
490.328	12616.85
490.531	12065.95
490.735	12059.81
490.939	11814.05
491.143	11451.56
491.346	11424.93
491.55	11220.14
491.754	10888.37
491.958	10984.62
492.161	10503.35
492.365	10607.8
492.569	10400.95
492.772	10063.04
492.976	10325.18
493.18	9938.11
493.383	9841.86
493.587	9704.64
493.79	9915.58
493.994	9436.36
494.197	9495.75
494.401	9487.56
494.605	8983.76
494.808	9059.53
495.012	9133.26
495.215	9006.28
495.419	8991.95
495.622	8740.05
495.825	8936.65
496.029	8787.15
496.232	8834.25
496.436	8518.87
496.639	8965.32
496.843	8867.02
497.046	8955.08
497.249	8893.65
497.453	8713.42
497.656	8860.88
497.859	8621.27
498.063	8899.79
498.266	8918.22
498.469	8670.42
498.673	8881.36
498.876	8953.04
499.079	8928.46
499.282	9043.15
499.485	9336.01
499.689	9043.15
499.892	9264.33
500.095	9135.31
500.298	9419.97
500.501	9192.65
500.705	9622.72
500.908	9376.97
501.111	9458.88
501.314	9745.6
501.517	9917.63
501.72	10112.19
501.923	9704.64
502.126	10265.78
502.329	10288.31
502.532	10259.64
502.735	10544.31
502.938	10622.13
503.141	10527.92
503.344	10663.09
503.547	11097.26
503.75	11029.68
503.953	11240.62
504.156	11277.48
504.359	11443.37
504.562	11715.75
504.765	12156.06
504.968	12086.43
505.17	12229.79
505.373	12461.21
505.576	12985.49
505.779	12799.12
505.982	13030.54
506.185	13390.98
506.387	13534.34
506.59	13640.84
506.793	14199.93
506.996	14144.64
507.198	14648.44
507.401	14845.04
507.604	15191.15
507.807	15471.72
508.009	15686.76
508.212	15891.55
508.415	16108.64
508.617	16483.42
508.82	16802.9
509.022	17202.25
509.225	17964.1
509.428	18009.15
509.63	18035.78
509.833	18693.18
510.035	19614.76
510.238	19412.01
510.44	19848.23
510.643	20427.81
510.845	21021.72
511.048	20839.45
511.25	21627.92
511.453	21636.11
511.655	23376.88
511.858	23249.91
512.06	23716.84
512.262	24218.6
512.465	24667.1
512.667	25299.92
512.87	25760.72
513.072	26061.77
513.274	27024.31
513.477	27575.22
513.679	28171.18
513.881	28754.85
514.084	29578.13
514.286	29635.47
514.488	30806.91
514.69	31314.81
514.893	31701.87
515.095	32508.77
515.297	33332.06
515.499	34001.74
515.701	34782.02
515.904	35132.22
516.106	35945.26
516.308	36627.24
516.51	37423.9
516.712	37749.53
516.914	39592.7
517.116	39478.01
517.318	40135.41
517.52	41034.47
517.722	41841.37
517.925	42175.19
518.127	43250.37
518.329	43977.4
518.531	43897.53
518.733	45253.28
518.935	45896.35
519.136	46387.86
519.338	47043.21
519.54	47846.01
519.742	48691.82
519.944	49101.42
520.146	50045.53
520.348	50471.51
520.55	51073.61
520.752	51679.81
520.954	52746.8
521.155	52075.07
521.357	53250.6
521.559	54024.73
521.761	54686.23
521.963	55058.96
522.164	55247.37
522.366	55439.88
522.568	56517.11
522.77	56498.68
522.971	57225.71
523.173	57328.11
523.375	57960.93
523.576	57594.34
523.778	57457.13
523.98	58954.19
524.181	58859.99
524.383	58577.37
524.584	59109.84
524.786	58933.71
524.988	58434.01
525.189	59202
525.391	59384.27
525.592	59345.36
525.794	59423.18
525.995	59148.75
526.197	59232.72
526.398	59353.55
526.6	59111.89
526.801	58853.84
527.003	58927.57
527.204	58149.34
527.406	58581.46
527.607	58040.8
527.808	58448.35
528.01	57383.4
528.211	57422.31
528.412	57694.69
528.614	57090.54
528.815	56326.65
529.016	56517.11
529.218	55169.55
529.419	55362.06
529.62	54972.94
529.822	54147.61
530.023	53645.86
530.224	53463.59
530.425	52812.34
530.626	51933.76
530.828	51262.02
531.029	51868.22
531.23	50268.76
531.431	50029.15
531.632	49738.33
531.833	49011.31
532.035	48745.07
532.236	48122.49
532.437	47784.57
532.638	46865.03
532.839	46250.64
533.04	45828.76
533.241	44812.97
533.442	45109.93
533.643	44223.15
533.844	43600.57
534.045	43240.13
534.246	42222.29
534.447	42166.99
534.648	40968.93
534.849	40708.84
535.05	39867.12
535.251	39129.86
535.451	38826.76
535.652	38845.19
535.853	37886.74
536.054	37606.17
536.255	37114.65
536.456	36088.62
536.657	36164.4
536.857	35476.28
537.058	35060.54
537.259	34425.67
537.46	34153.29
537.66	33735.51
537.861	33389.4
538.062	32746.34
538.263	32150.38
538.463	31685.49
538.664	31323
538.865	31212.41
539.065	30866.3
539.266	29858.7
539.466	30321.54
539.667	29528.98
539.868	29901.71
540.068	28828.57
540.269	28636.06
540.469	28437.41
540.67	27767.73
540.87	27427.76
541.071	27108.28
541.271	26815.42
541.472	26913.72
541.672	26371.01
541.873	26014.66
542.073	25562.06
542.274	25480.14
542.474	25334.74
542.675	24648.67
542.875	24757.21
543.075	24505.31
543.276	23794.67
543.476	23897.06
543.676	23430.13
543.877	23319.54
544.077	22973.43
544.277	22639.61
544.478	22832.12
544.678	22096.9
544.878	22002.69
545.078	21769.23
545.279	21425.17
545.479	21128.21
545.679	21181.46
545.879	20958.23
546.079	20413.47
546.28	20347.93
546.48	20276.26
546.68	20124.71
546.88	19735.59
547.08	19311.66
547.28	19229.74
547.48	18598.97
547.68	18838.58
547.88	18310.21
548.081	18506.81
548.281	17863.75
548.481	17665.1
548.681	17671.24
548.881	17398.86
549.081	17214.54
549.28	16886.87
549.48	16612.44
549.68	16383.07
549.88	16604.25
550.08	15723.62
550.28	15946.85
550.48	15430.76
550.68	15359.08
550.88	15062.13
551.08	14939.25
551.279	14898.29
551.479	14425.21
551.679	14447.74
551.879	14034.05
552.079	14021.76
552.278	13612.17
552.478	13472.9
552.678	13331.59
552.878	13315.21
553.077	12790.93
553.277	12399.77
553.477	12516.5
553.676	12108.96
553.876	12084.38
554.076	11834.53
554.275	11791.52
554.475	11580.58
554.674	11410.6
554.874	11252.91
555.074	10820.78
555.273	10880.18
555.473	10722.48
555.672	10669.23
555.872	10390.71
556.071	10255.54
556.271	10159.29
556.47	10085.56
556.67	9790.66
556.869	9579.72
557.068	9317.58
557.268	9346.25
557.467	9053.39
557.667	9077.96
557.866	8832.21
558.065	8635.6
558.265	8484.05
558.464	8191.19
558.663	8293.59
558.863	8152.28
559.062	7937.24
559.261	7884
559.461	7941.34
559.66	7820.51
559.859	7576.8
560.058	7384.29
560.258	7240.93
560.457	7058.67
560.656	7101.67
560.855	6829.29
561.054	6968.55
561.253	6737.13
561.453	6608.11
561.652	6601.97
561.851	6499.57
562.05	6386.93
562.249	6106.36
562.448	6159.61
562.647	6030.59
562.846	6075.64
563.045	5838.08
563.244	5846.27
563.443	5885.18
563.642	5618.94
563.841	5600.51
564.04	5383.43
564.239	5502.21
564.438	5244.17
564.637	5180.68
564.836	5158.15
565.035	5174.53
565.234	4885.77
565.432	4982.03
565.631	4861.2
565.83	4814.09
566.029	4783.37
566.228	4549.9
566.427	4691.21
566.625	4519.18
566.824	4486.42
567.023	4320.53
567.222	4451.6
567.42	4506.9
567.619	4375.83
567.818	4101.4
568.016	4244.76
568.215	4158.74
568.414	4150.55
568.612	3896.6
568.811	3999
569.01	3925.27
569.208	3689.76
569.407	3704.09
569.605	3673.37
569.804	3724.57
570.002	3618.08
570.201	3517.73
570.4	3509.54
570.598	3546.4
570.797	3419.43
570.995	3228.96
571.193	3388.71
571.392	3247.4
571.59	3097.89
571.789	3200.29
571.987	3190.05
572.186	3136.81
572.384	2833.71
572.582	2989.35
572.781	3015.98
572.979	2954.54
573.177	2776.36
573.376	2764.08
573.574	2790.7
573.772	2716.97
573.971	2635.05
574.169	2530.61
574.367	2663.72
574.565	2516.27
574.763	2528.56
574.962	2465.07
575.16	2524.46
575.358	2352.43
575.556	2385.2
575.754	2276.66
575.952	2288.95
576.151	2245.94
576.349	2278.71
576.547	2153.78
576.745	2245.94
576.943	2090.29
577.141	2114.87
577.339	1959.22
577.537	2065.72
577.735	2057.53
577.933	2067.77
578.131	1848.63
578.329	2053.43
578.527	1813.82
578.725	1893.69
578.923	1678.65
579.121	1912.12
579.319	1613.12
579.516	1760.57
579.714	1916.22
579.912	1672.51
580.11	1645.88
580.308	1654.08
580.506	1670.46
580.704	1520.96
580.901	1486.14
581.099	1686.84
581.297	1529.15
581.495	1463.62
581.692	1373.5
581.89	1625.4
582.088	1537.34
582.285	1355.07
582.483	1379.65
582.681	1416.51
582.878	1279.3
583.076	1346.88
583.274	1287.49
583.471	1445.18
583.669	1234.24
583.866	1217.86
584.064	1193.28
584.262	1125.7
584.459	1178.95
584.657	1127.75
584.854	1258.82
585.052	1195.33
585.249	1158.47
585.447	1119.56
585.644	1017.16
585.841	1123.65
586.039	1174.85
586.236	1213.76
586.434	1021.25
586.631	959.81
586.828	972.1
587.026	988.49
587.223	974.15
587.42	902.47
587.618	1025.35
587.815	1037.64
588.012	892.23
588.21	892.23
588.407	1041.73
588.604	937.29
588.801	900.42
588.999	929.1
589.196	961.86
589.393	853.32
589.59	992.58
589.787	841.03
589.984	933.19
590.182	916.81
590.379	861.51
590.576	836.94
590.773	841.03
590.97	853.32
591.167	814.41
591.364	900.42
591.561	877.9
591.758	970.05
591.955	841.03
592.152	740.68
592.349	828.74
592.546	777.55
592.743	712.01
592.94	798.03
593.137	802.12
593.334	853.32
593.531	920.9
593.727	836.94
593.924	775.5
594.121	787.79
594.318	724.3
594.515	822.6
594.712	955.72
594.908	914.76
595.105	769.35
595.302	884.04
595.499	892.23
595.696	1072.45
595.892	777.55
596.089	1019.21
596.286	933.19
596.482	961.86
596.679	986.44
596.876	867.66
597.072	1019.21
597.269	937.29
597.466	1078.6
597.662	1154.37
597.859	1076.55
598.055	1162.56
598.252	1269.06
598.448	1320.26
598.645	1328.45
598.841	1402.18
599.038	1410.37
599.234	1609.02
599.431	1449.28
599.627	1572.16
599.824	1686.84
600.02	1584.45
600.217	1592.64
600.413	1748.28
600.609	1785.15
600.806	1963.32
601.002	2022.71
601.198	2004.28
601.395	2174.26
601.591	2196.79
601.787	2311.47
601.984	2397.49
602.18	2430.26
602.376	2567.47
602.572	2678.06
602.769	2927.91
602.965	2704.68
603.161	3054.89
603.357	3030.31
603.553	3112.23
603.75	3204.39
603.946	3425.57
604.142	3605.79
604.338	3829.02
604.534	3734.81
604.73	3833.11
604.926	3867.93
605.122	4158.74
605.318	4207.89
605.514	4478.22
605.71	4558.1
605.906	4592.91
606.102	4787.47
606.298	4939.02
606.494	5025.03
606.69	5272.84
606.886	5342.47
607.082	5379.33
607.278	5670.14
607.474	5737.73
607.67	5752.06
607.866	5977.34
608.062	6296.82
608.257	6368.5
608.453	6587.63
608.649	6817.01
608.845	6896.88
609.041	7163.11
609.236	7267.56
609.432	7550.18
609.628	7736.54
609.824	7877.85
610.019	8183
610.215	8496.34
610.411	8670.42
610.606	8760.53
610.802	8981.71
610.998	9239.75
611.193	9612.48
611.389	9694.4
611.584	10013.88
611.78	10286.26
611.976	10568.88
612.171	10933.42
612.367	11207.85
612.562	11267.24
612.758	11580.58
612.953	11814.05
613.149	12502.17
613.344	12514.45
613.539	13016.21
613.735	13098.13
613.93	13515.91
614.126	13984.9
614.321	14492.79
614.517	14822.52
614.712	15008.88
614.907	15373.42
615.103	16147.55
615.298	16186.46
615.493	16895.06
615.688	16876.63
615.884	18146.37
616.079	17728.58
616.274	18570.3
616.47	18809.91
616.665	19289.13
616.86	19962.92
617.055	20511.77
617.25	20706.33
617.445	21498.89
617.641	21746.7
617.836	22832.12
618.031	22739.96
618.226	23716.84
618.421	24050.66
618.616	24738.78
618.811	25271.25
619.006	25928.65
619.201	26125.25
619.396	27132.86
619.591	27280.31
619.786	28414.88
619.981	28654.5
620.176	29426.58
620.371	29533.07
620.566	30557.06
620.761	30870.4
620.956	31912.81
621.151	32273.26
621.346	32955.23
621.541	33037.15
621.735	34640.71
621.93	34765.63
622.125	35846.96
622.32	36102.96
622.515	36995.87
622.709	37405.47
622.904	38073.1
623.099	38568.71
623.294	39891.7
623.488	39643.9
623.683	40614.63
623.878	40915.68
624.072	42007.25
624.267	42887.88
624.462	43369.15
624.656	43446.97
624.851	44466.86
625.046	44980.9
625.24	45695.64
625.435	46006.94
625.629	46594.7
625.824	47024.78
626.018	47891.07
626.213	47563.39
626.407	48968.3
626.602	48863.85
626.796	49881.69
626.991	50430.55
627.185	50661.97
627.38	50631.25
627.574	51003.98
627.768	51257.93
627.963	51597.89
628.157	51696.19
628.352	52120.12
628.546	51581.51
628.74	52587.06
628.935	51589.7
629.129	51984.96
629.323	51348.04
629.517	51464.77
629.712	51833.41
629.906	50764.37
630.1	49715.81
630.294	50158.17
630.489	49201.77
630.683	48702.06
630.877	47565.44
631.071	47239.81
631.265	46375.57
631.459	45228.71
631.653	44116.66
631.848	43770.55
632.042	42791.62
632.236	42074.84
632.43	40542.95
632.624	39635.7
632.818	37810.96
633.012	37212.96
633.206	35631.93
633.4	35255.1
633.594	32858.98
633.788	32492.39
633.982	31593.33
634.176	30073.74
634.369	29105.05
634.563	28070.82
634.757	26704.83
634.951	26096.58
635.145	25496.53
635.339	23962.6
635.533	23006.2
635.726	22131.72
635.92	20964.37
636.114	20540.44
636.308	19559.47
636.501	18988.08
636.695	18097.22
636.889	17359.95
637.083	16467.03
637.276	15684.71
637.47	14898.29
637.664	14591.09
637.857	13862.02
638.051	13290.63
638.244	12971.15
638.438	12356.76
638.632	11754.66
638.825	11433.13
639.019	10966.19
639.212	10435.77
639.406	10208.44
639.599	9663.68
639.793	9235.66
639.986	9045.2
640.18	8787.15
640.373	8369.37
640.567	7832.8
640.76	7720.16
640.954	7269.61
641.147	7116.01
641.34	6694.13
641.534	6788.33
641.727	6477.04
641.92	6280.44
642.114	5901.56
642.307	5776.64
642.5	5424.39
642.694	5184.77
642.887	4973.83
643.08	4977.93
643.273	4613.39
643.467	4437.27
643.66	4232.47
643.853	4132.12
644.046	3980.57
644.239	3804.44
644.432	3689.76
644.626	3323.17
644.819	3532.06
645.012	3228.96
645.205	3235.11
645.398	3159.33
645.591	2882.86
645.784	2798.89
645.977	2764.08
646.17	2667.82
646.363	2415.92
646.556	2362.67
646.749	2180.4
646.942	2247.99
647.135	2182.45
647.328	2002.23
647.521	1979.7
647.714	1903.93
647.907	1951.03
648.099	1725.75
648.292	1819.96
648.485	1684.8
648.678	1557.82
648.871	1506.62
649.064	1445.18
649.256	1262.91
649.449	1293.63
649.642	1305.92
649.835	1187.14
650.027	1275.2
650.22	1236.29
650.413	1217.86
650.605	1219.91
650.798	1058.12
650.991	1035.59
651.183	1019.21
651.376	984.39
651.568	941.38
651.761	890.18
651.954	896.33
652.146	738.63
652.339	847.18
652.531	869.7
652.724	720.2
652.916	752.97
653.109	648.52
653.301	728.39
653.494	720.2
653.686	689.48
653.879	787.79
654.071	707.91
654.263	615.76
654.456	562.51
654.648	677.19
654.84	609.61
655.033	517.45
655.225	576.84
655.417	408.91
655.61	591.18
655.802	554.32
655.994	517.45
656.186	398.67
656.379	576.84
656.571	447.82
656.763	343.38
656.955	408.91
657.148	423.25
657.34	492.88
657.532	357.71
657.724	365.9
657.916	421.2
658.108	482.64
658.3	402.77
658.492	388.43
658.684	361.81
658.876	499.02
659.068	197.97
659.26	212.31
659.452	279.89
659.644	347.47
659.836	404.82
660.028	370
660.22	253.27
660.412	269.65
660.604	279.89
660.796	277.84
660.988	339.28
661.18	277.84
661.372	314.7
661.563	296.27
661.755	269.65
661.947	167.25
662.139	140.63
662.331	269.65
662.522	255.31
662.714	226.64
662.906	187.73
663.097	212.31
663.289	140.63
663.481	56.66
663.673	222.55
663.864	271.7
664.056	179.54
664.247	165.2
664.439	259.41
664.631	204.11
664.822	269.65
665.014	212.31
665.205	163.15
665.397	218.45
665.588	122.2
665.78	218.45
665.971	281.94
666.163	193.87
666.354	251.22
666.546	81.24
666.737	142.68
666.929	91.48
667.12	157.01
667.311	236.88
667.503	173.39
667.694	212.31
667.885	226.64
668.077	226.64
668.268	93.52
668.459	148.82
668.651	175.44
668.842	220.5
669.033	187.73
669.224	103.76
669.416	312.66
669.607	134.48
669.798	97.62
669.989	265.55
670.18	236.88
670.371	236.88
670.563	103.76
670.754	314.7
670.945	185.68
671.136	269.65
671.327	97.62
671.518	279.89
671.709	261.46
671.9	238.93
672.091	230.74
672.282	122.2
672.473	163.15
672.664	122.2
672.855	128.34
673.046	208.21
673.237	236.88
673.428	120.15
673.619	185.68
673.809	234.83
674	243.03
674.191	204.11
674.382	165.2
674.573	171.35
674.764	169.3
674.954	312.66
675.145	197.97
675.336	138.58
675.527	116.05
675.717	122.2
675.908	245.07
676.099	206.16
676.289	222.55
676.48	89.43
676.671	165.2
676.861	206.16
677.052	232.79
677.243	163.15
677.433	116.05
677.624	257.36
677.814	202.07
678.005	109.91
678.195	322.9
678.386	150.87
678.576	132.44
678.767	85.33
678.957	189.78
679.148	230.74
679.338	245.07
679.529	212.31
679.719	292.18
679.909	277.84
680.1	245.07
680.29	265.55
680.481	71
680.671	267.6
680.861	212.31
681.052	234.83
681.242	179.54
681.432	236.88
681.622	111.96
681.813	126.29
682.003	197.97
682.193	148.82
682.383	277.84
682.573	238.93
682.764	251.22
682.954	238.93
683.144	288.08
683.334	281.94
683.524	210.26
683.714	251.22
683.904	298.32
684.094	165.2
684.284	220.5
684.474	343.38
684.664	329.04
684.854	197.97
685.044	179.54
685.234	226.64
685.424	206.16
685.614	169.3
685.804	370
685.994	298.32
686.184	173.39
686.374	316.75
686.564	197.97
686.753	126.29
686.943	138.58
687.133	247.12
687.323	267.6
687.513	261.46
687.702	281.94
687.892	181.59
688.082	329.04
688.272	249.17
688.461	234.83
688.651	357.71
688.841	269.65
689.03	193.87
689.22	179.54
689.41	331.09
689.599	275.79
689.789	179.54
689.979	304.46
690.168	216.4
690.358	302.42
690.547	189.78
690.737	255.31
690.926	300.37
691.116	281.94
691.305	253.27
691.495	386.38
691.684	189.78
691.874	175.44
692.063	251.22
692.252	314.7
692.442	216.4
692.631	275.79
692.82	232.79
693.01	277.84
693.199	189.78
693.388	300.37
693.578	222.55
693.767	195.92
693.956	273.75
694.146	191.83
694.335	224.59
694.524	220.5
694.713	226.64
694.902	173.39
695.092	267.6
695.281	257.36
695.47	232.79
695.659	111.96
695.848	202.07
696.037	146.77
696.226	320.85
696.415	222.55
696.604	349.52
696.793	302.42
696.982	230.74
697.171	339.28
697.36	136.53
697.549	222.55
697.738	60.76
697.927	179.54
698.116	245.07
698.305	243.03
698.494	224.59
698.683	208.21
698.872	388.43
699.061	183.63
699.25	148.82
699.438	173.39
699.627	163.15
699.816	390.48
700.005	122.2
700.193	122.2
700.382	271.7
700.571	212.31
700.76	152.91
700.948	216.4
701.137	218.45
701.326	222.55
701.514	116.05
701.703	224.59
701.892	261.46
702.08	370
702.269	183.63
702.457	140.63
702.646	271.7
702.834	253.27
703.023	306.51
703.212	277.84
703.4	181.59
703.589	128.34
703.777	261.46
703.965	273.75
704.154	122.2
704.342	128.34
704.531	157.01
704.719	222.55
704.907	273.75
705.096	157.01
705.284	97.62
705.472	228.69
705.661	255.31
705.849	298.32
706.037	292.18
706.226	224.59
706.414	304.46
706.602	134.48
706.79	251.22
706.979	118.1
707.167	114
707.355	81.24
707.543	261.46
707.731	232.79
707.919	232.79
708.107	216.4
708.296	193.87
708.484	124.24
708.672	185.68
708.86	185.68
709.048	173.39
709.236	134.48
709.424	177.49
709.612	146.77
709.8	142.68
709.988	126.29
710.176	283.98
710.364	275.79
710.551	208.21
710.739	197.97
710.927	91.48
711.115	130.39
711.303	259.41
711.491	300.37
711.679	150.87
711.866	204.11
712.054	202.07
712.242	232.79
712.43	265.55
712.617	179.54
712.805	329.04
712.993	247.12
713.181	30.04
713.368	316.75
713.556	279.89
713.744	81.24
713.931	296.27
714.119	320.85
714.306	152.91
714.494	179.54
714.682	230.74
714.869	101.72
715.057	185.68
715.244	46.42
715.432	191.83
715.619	173.39
715.807	218.45
715.994	191.83
716.182	189.78
716.369	240.98
716.556	329.04
716.744	130.39
716.931	136.53
717.119	255.31
717.306	173.39
717.493	292.18
717.681	159.06
717.868	224.59
718.055	312.66
718.242	169.3
718.43	193.87
718.617	329.04
718.804	240.98
718.991	232.79
719.179	255.31
719.366	173.39
719.553	214.35
719.74	230.74
719.927	220.5
720.114	181.59
720.301	193.87
720.488	25.94
720.676	212.31
720.863	277.84
721.05	347.47
721.237	281.94
721.424	281.94
721.611	312.66
721.798	122.2
721.985	179.54
722.172	240.98
722.358	195.92
722.545	380.24
722.732	208.21
722.919	437.58
723.106	277.84
723.293	351.57
723.48	187.73
723.667	247.12
723.853	339.28
724.04	316.75
724.227	337.23
724.414	195.92
724.6	283.98
724.787	318.8
724.974	363.86
725.161	249.17
725.347	202.07
725.534	206.16
725.72	222.55
725.907	288.08
726.094	302.42
726.28	183.63
726.467	220.5
726.653	212.31
726.84	294.22
727.027	392.53
727.213	269.65
727.4	271.7
727.586	269.65
727.773	224.59
727.959	275.79
728.145	304.46
728.332	238.93
728.518	202.07
728.705	257.36
728.891	300.37
729.077	230.74
729.264	214.35
729.45	214.35
729.636	320.85
729.823	314.7
730.009	367.95
730.195	261.46
730.382	324.94
730.568	195.92
730.754	228.69
730.94	281.94
731.126	271.7
731.313	322.9
731.499	193.87
731.685	275.79
731.871	310.61
732.057	298.32
732.243	294.22
732.429	298.32
732.615	437.58
732.801	312.66
732.987	294.22
733.173	345.42
733.359	191.83
733.545	302.42
733.731	206.16
733.917	255.31
734.103	222.55
734.289	341.33
734.475	277.84
734.661	347.47
734.847	310.61
735.033	306.51
735.219	343.38
735.404	245.07
735.59	331.09
735.776	202.07
735.962	286.03
736.148	306.51
736.333	337.23
736.519	271.7
736.705	288.08
736.89	283.98
737.076	372.05
737.262	177.49
737.447	197.97
737.633	316.75
737.819	308.56
738.004	261.46
738.19	359.76
738.375	294.22
738.561	251.22
738.747	220.5
738.932	169.3
739.118	351.57
739.303	316.75
739.489	288.08
739.674	251.22
739.859	191.83
740.045	331.09
740.23	300.37
740.416	159.06
740.601	306.51
740.786	226.64
740.972	222.55
741.157	238.93
741.342	249.17
741.528	189.78
741.713	341.33
741.898	263.51
742.084	283.98
742.269	275.79
742.454	271.7
742.639	259.41
742.824	257.36
743.01	413.01
743.195	429.39
743.38	263.51
743.565	404.82
743.75	283.98
743.935	288.08
744.12	361.81
744.305	214.35
744.49	249.17
744.675	329.04
744.86	238.93
745.045	257.36
745.23	277.84
745.415	238.93
745.6	269.65
745.785	236.88
745.97	331.09
746.155	322.9
746.34	310.61
746.525	310.61
746.71	343.38
746.895	236.88
747.079	185.68
747.264	251.22
747.449	355.66
747.634	378.19
747.819	263.51
748.003	277.84
748.188	245.07
748.373	273.75
748.557	314.7
748.742	261.46
748.927	283.98
749.111	230.74
749.296	300.37
749.481	234.83
749.665	230.74
749.85	222.55
750.034	294.22
750.219	173.39
750.404	245.07
750.588	265.55
750.773	159.06
750.957	216.4
751.141	132.44
751.326	247.12
751.51	245.07
751.695	224.59
751.879	253.27
752.064	329.04
752.248	236.88
752.432	314.7
752.617	275.79
752.801	296.27
752.985	195.92
753.17	326.99
753.354	279.89
753.538	247.12
753.722	185.68
753.907	152.91
754.091	128.34
754.275	228.69
754.459	60.76
754.643	140.63
754.828	232.79
755.012	271.7
755.196	109.91
755.38	269.65
755.564	171.35
755.748	128.34
755.932	251.22
756.116	148.82
756.3	230.74
756.484	132.44
756.668	306.51
756.852	27.99
757.036	171.35
757.22	144.72
757.404	124.24
757.588	148.82
757.772	171.35
757.956	138.58
758.14	281.94
758.323	79.19
758.507	208.21
758.691	132.44
758.875	240.98
759.059	259.41
759.242	89.43
759.426	171.35
759.61	210.26
759.794	103.76
759.977	226.64
760.161	331.09
760.345	179.54
760.528	187.73
760.712	193.87
760.895	179.54
761.079	165.2
761.263	107.86
761.446	89.43
761.63	159.06
761.813	236.88
761.997	44.37
762.18	150.87
762.364	294.22
762.547	52.56
762.731	111.96
762.914	111.96
763.098	148.82
763.281	23.89
763.464	144.72
763.648	165.2
763.831	83.28
764.015	11.61
764.198	220.5
764.381	114
764.564	154.96
764.748	167.25
764.931	128.34
765.114	32.08
765.297	142.68
765.481	50.52
765.664	165.2
765.847	140.63
766.03	181.59
766.213	97.62
766.397	138.58
766.58	36.18
766.763	142.68
766.946	118.1
767.129	21.84
767.312	71
767.495	66.9
767.678	32.08
767.861	68.95
768.044	136.53
768.227	11.61
768.41	105.81
768.593	148.82
768.776	212.31
768.959	126.29
769.142	236.88
769.324	77.14
769.507	142.68
769.69	32.08
769.873	46.42
770.056	259.41
770.239	91.48
770.421	136.53
770.604	171.35
770.787	85.33
770.97	138.58
771.152	50.52
771.335	169.3
771.518	58.71
771.7	200.02
771.883	118.1
772.066	60.76
772.248	126.29
772.431	210.26
772.613	161.11
772.796	146.77
772.978	93.52
773.161	122.2
773.343	71
773.526	40.28
773.708	-74.41
773.891	-51.88
774.073	23.89
774.256	27.99
774.438	232.79
774.621	60.76
774.803	118.1
774.985	73.04
775.168	157.01
775.35	48.47
775.532	89.43
775.715	32.08
775.897	91.48
776.079	85.33
776.261	97.62
776.444	-58.03
776.626	38.23
776.808	25.94
776.99	-21.16
777.173	30.04
777.355	68.95
777.537	40.28
777.719	62.8
777.901	17.75
778.083	15.7
778.265	-68.27
778.447	134.48
778.629	25.94
778.811	118.1
778.993	42.32
779.175	193.87
779.357	130.39
779.539	19.8
779.721	93.52
779.903	101.72
780.085	44.37
780.267	-51.88
780.449	52.56
780.631	118.1
780.812	140.63
780.994	38.23
781.176	81.24
781.358	-6.83
781.54	159.06
781.721	95.57
781.903	124.24
782.085	52.56
782.267	107.86
782.448	48.47
782.63	19.8
782.812	87.38
782.993	48.47
783.175	165.2
783.357	79.19
783.538	68.95
783.72	-2.73
783.901	-21.16
784.083	97.62
784.264	126.29
784.446	-10.92
784.627	-25.26
784.809	116.05
784.99	-12.97
785.172	128.34
785.353	34.13
785.535	77.14
785.716	-17.07
785.897	-37.55
786.079	34.13
786.26	7.51
786.441	73.04
786.623	-86.7
786.804	-84.65
786.985	66.9
787.167	60.76
787.348	36.18
787.529	52.56
787.71	134.48
787.891	62.8
788.073	-31.4
788.254	21.84
788.435	179.54
788.616	27.99
788.797	-25.26
788.978	-8.87
789.159	-15.02
789.34	36.18
789.522	-49.83
789.703	-39.59
789.884	23.89
790.065	85.33
790.246	120.15
790.427	-6.83
790.607	163.15
790.788	64.85
790.969	-12.97
791.15	71
791.331	-41.64
791.512	34.13
791.693	-47.79
791.874	-58.03
792.054	165.2
792.235	122.2
792.416	-37.55
792.597	-37.55
792.778	52.56
792.958	95.57
793.139	118.1
793.32	60.76
793.5	-88.75
793.681	157.01
793.862	34.13
794.042	-41.64
794.223	-33.45
794.404	11.61
794.584	-80.55
794.765	50.52
794.945	-58.03
795.126	50.52
795.306	105.81
795.487	77.14
795.667	-62.12
795.848	44.37
796.028	17.75
796.209	21.84
796.389	40.28
796.57	19.8
796.75	-49.83
796.93	9.56
797.111	-49.83
797.291	-10.92
797.471	15.7
797.652	60.76
797.832	-35.5
798.012	40.28
798.192	48.47
798.373	-94.89
798.553	-15.02
798.733	50.52
798.913	-55.98
799.093	19.8
799.274	7.51
799.454	154.96
799.634	66.9
799.814	73.04
799.994	36.18
800.174	85.33
800.354	-2.73
800.534	-72.36
800.714	56.66
800.894	-82.6
801.074	-25.26
801.254	3.41
801.434	93.52
801.614	30.04
801.794	-82.6
801.974	1930.55
802.154	11.61
802.334	167.25
802.514	-2.73
802.693	-17.07
802.873	-19.11
803.053	101.72
803.233	97.62
803.413	7.51
803.592	-60.07
803.772	3.41
803.952	-35.5
804.131	-45.74
804.311	34.13
804.491	99.67
804.67	-62.12
804.85	-31.4
805.03	44.37
805.209	85.33
805.389	-29.35
805.568	-47.79
805.748	32.08
805.928	19.8
806.107	77.14
806.287	66.9
806.466	19.8
806.646	-17.07
806.825	-17.07
807.004	-29.35
807.184	38.23
807.363	103.76
807.543	5.46
807.722	5.46
807.901	154.96
808.081	197.97
808.26	-107.18
808.439	40.28
808.619	21.84
808.798	11.61
808.977	-12.97
809.156	87.38
809.336	30.04
809.515	83.28
809.694	-33.45
809.873	5.46
810.052	40.28
810.231	77.14
810.411	101.72
810.59	130.39
810.769	-25.26
810.948	71
811.127	-103.08
811.306	-12.97
811.485	-107.18
811.664	130.39
811.843	34.13
812.022	-35.5
812.201	-33.45
812.38	-21.16
812.559	3.41
812.737	132.44
812.916	-41.64
813.095	-19.11
813.274	-6.83
813.453	48.47
813.632	36.18
813.811	159.06
813.989	-37.55
814.168	42.32
814.347	-19.11
814.526	-62.12
814.704	251.22
814.883	25.94
815.062	-68.27
815.24	56.66
815.419	7.51
815.598	-21.16
815.776	-101.03
815.955	27.99
816.133	-92.84
816.312	48.47
816.49	-125.61
816.669	73.04
816.847	23.89
817.026	38.23
817.204	-12.97
817.383	11.61
817.561	-6.83
817.74	34.13
817.918	62.8
818.097	-62.12
818.275	-103.08
818.453	52.56
818.632	23.89
818.81	-21.16
818.988	44.37
819.167	-17.07
819.345	9.56
819.523	83.28
819.701	30.04
819.879	1.37
820.058	68.95
820.236	21.84
820.414	-33.45
820.592	-49.83
820.77	-43.69
820.948	-17.07
821.127	-47.79
821.305	48.47
821.483	-37.55
821.661	34.13
821.839	23.89
822.017	-62.12
822.195	-0.68
822.373	50.52
822.551	87.38
822.729	15.7
822.907	11.61
823.085	81.24
823.262	11.61
823.44	-31.4
823.618	-68.27
823.796	-23.21
823.974	-27.31
824.152	40.28
824.329	-51.88
824.507	46.42
824.685	48.47
824.863	64.85
825.04	-19.11
825.218	-21.16
825.396	3.41
825.574	56.66
825.751	-21.16
825.929	93.52
826.107	-74.41
826.284	9.56
826.462	21.84
826.639	-64.17
826.817	-80.55
826.994	34.13
827.172	3.41
827.349	116.05
827.527	87.38
827.704	23.89
827.882	68.95
828.059	-53.93
828.237	-47.79
828.414	7.51
828.591	-90.79
828.769	15.7
828.946	-53.93
829.124	50.52
829.301	95.57
829.478	-21.16
829.655	114
829.833	-6.83
830.01	-76.46
830.187	-4.78
830.364	-15.02
830.542	-37.55
830.719	146.77
830.896	87.38
831.073	-6.83
831.25	-8.87
831.427	68.95
831.604	42.32
831.782	-43.69
831.959	-2.73
832.136	11.61
832.313	-8.87
832.49	-17.07
832.667	-64.17
832.844	-41.64
833.021	52.56
833.198	36.18
833.374	46.42
833.551	-21.16
833.728	-41.64
833.905	21.84
834.082	-131.75
834.259	-31.4
834.436	48.47
834.612	-29.35
834.789	19.8
834.966	-47.79
835.143	79.19
835.319	-47.79
835.496	73.04
835.673	38.23
835.85	93.52
836.026	1.37
836.203	91.48
836.38	17.75
836.556	-51.88
836.733	-15.02
836.909	128.34
837.086	-45.74
837.262	-88.75
837.439	-55.98
837.616	-43.69
837.792	-8.87
837.968	34.13
838.145	-98.99
838.321	99.67
838.498	68.95
838.674	-8.87
838.851	-45.74
839.027	-33.45
839.203	111.96
839.38	11.61
839.556	1.37
839.732	71
839.909	11.61
840.085	44.37
840.261	-37.55
840.437	50.52
840.614	-49.83
840.79	58.71
840.966	56.66
841.142	-35.5
841.318	50.52
841.494	25.94
841.671	38.23
841.847	-39.59
842.023	-12.97
842.199	42.32
842.375	48.47
842.551	-88.75
842.727	-41.64
842.903	122.2
843.079	-19.11
843.255	75.09
843.431	-17.07
843.607	159.06
843.783	-139.94
843.959	81.24
844.134	-49.83
844.31	111.96
844.486	7.51
844.662	-29.35
844.838	54.61
845.013	11.61
845.189	83.28
845.365	7.51
845.541	19.8
845.716	52.56
845.892	60.76
846.068	-43.69
846.244	-64.17
846.419	85.33
846.595	-86.7
846.77	-62.12
846.946	60.76
847.122	42.32
847.297	-70.31
847.473	144.72
847.648	-84.65
847.824	46.42
847.999	-137.9
848.175	9.56
848.35	17.75
848.526	126.29
848.701	27.99
848.876	-6.83
849.052	58.71
849.227	-23.21
849.403	40.28
849.578	-49.83
849.753	42.32
849.929	19.8
850.104	-109.23
850.279	-4.78
850.454	7.51
850.63	17.75
850.805	103.76
850.98	-49.83
851.155	-33.45
851.33	-17.07
851.505	-68.27
851.681	161.11
851.856	-70.31
852.031	87.38
852.206	-15.02
852.381	-105.13
852.556	-39.59
852.731	-8.87
852.906	44.37
853.081	-19.11
853.256	93.52
853.431	-68.27
853.606	-74.41
853.781	-123.56
853.956	-148.14
854.131	9.56
854.305	-62.12
854.48	1.37
854.655	-45.74
854.83	-10.92
855.005	-41.64
855.18	7.51
855.354	32.08
855.529	-4.78
855.704	3.41
855.879	85.33
856.053	-74.41
856.228	81.24
856.403	-98.99
856.577	19.8
856.752	-74.41
856.926	-15.02
857.101	-37.55
857.276	-64.17
857.45	19.8
857.625	40.28
857.799	75.09
857.974	-19.11
858.148	-172.71
858.323	-0.68
858.497	-60.07
858.672	-45.74
858.846	-25.26
859.02	109.91
859.195	-62.12
859.369	-45.74
859.543	9.56
859.718	-33.45
859.892	52.56
860.066	23.89
860.241	-12.97
860.415	-45.74
860.589	21.84
860.763	-66.22
860.938	-0.68
861.112	-29.35
861.286	-51.88
861.46	11.61
861.634	-45.74
861.808	23.89
861.982	-94.89
862.157	-113.32
862.331	5.46
862.505	-98.99
862.679	-135.85
862.853	-31.4
863.027	-21.16
863.201	64.85
863.375	-82.6
863.549	27.99
863.722	-15.02
863.896	134.48
864.07	-92.84
864.244	19.8
864.418	105.81
864.592	68.95
864.766	-23.21
864.939	-43.69
865.113	-21.16
865.287	66.9
865.461	-55.98
865.634	-53.93
865.808	1.37
865.982	-78.51
866.156	-41.64
866.329	-66.22
866.503	40.28
866.676	107.86
866.85	-12.97
867.024	-96.94
867.197	34.13
867.371	-4.78
867.544	1.37
867.718	-68.27
867.891	75.09
868.065	-109.23
868.238	25.94
868.412	99.67
868.585	-58.03
868.759	11.61
868.932	-58.03
869.105	-133.8
869.279	62.8
869.452	-111.27
869.625	48.47
869.799	66.9
869.972	-98.99
870.145	-0.68
870.319	46.42
870.492	-47.79
870.665	-51.88
870.838	-86.7
871.011	-117.42
871.185	-31.4
871.358	-47.79
871.531	21.84
871.704	-78.51
871.877	60.76
872.05	-21.16
872.223	-60.07
872.396	23.89
872.569	85.33
872.742	-72.36
872.915	21.84
873.088	-53.93
873.261	-35.5
873.434	77.14
873.607	-21.16
873.78	42.32
873.953	-98.99
874.126	23.89
874.299	-53.93
874.471	-82.6
874.644	-0.68
874.817	71
874.99	23.89
875.163	-10.92
875.335	3.41
875.508	46.42
875.681	32.08
875.853	-33.45
876.026	19.8
876.199	138.58
876.371	40.28
876.544	-21.16
876.717	-17.07
876.889	-107.18
877.062	23.89
877.234	-64.17
877.407	-72.36
877.579	-33.45
877.752	17.75
877.924	1.37
878.097	48.47
878.269	32.08
878.442	30.04
878.614	79.19
878.786	-33.45
878.959	-43.69
879.131	-10.92
879.303	-92.84
879.476	11.61
879.648	66.9
879.82	-43.69
879.993	-98.99
880.165	9.56
880.337	-31.4
880.509	27.99
880.681	-80.55
880.854	-53.93
881.026	79.19
881.198	75.09
881.37	-10.92
881.542	-15.02
881.714	-98.99
881.886	-21.16
882.058	-25.26
882.23	-58.03
882.402	-17.07
882.574	-39.59
882.746	32.08
882.918	36.18
883.09	36.18
883.262	-94.89
883.434	-4.78
883.606	-101.03
883.778	-19.11
883.95	122.2
884.122	-2.73
884.293	42.32
884.465	7.51
884.637	77.14
884.809	-49.83
884.98	-12.97
885.152	89.43
885.324	11.61
885.496	-58.03
885.667	44.37
885.839	-51.88
886.011	71
886.182	25.94
886.354	42.32
886.525	-17.07
886.697	58.71
886.869	-94.89
887.04	-98.99
887.212	93.52
887.383	99.67
887.555	-45.74
887.726	-29.35
887.897	-64.17
888.069	-6.83
888.24	21.84
888.412	-29.35
888.583	-33.45
888.754	-70.31
888.926	-150.18
889.097	-58.03
889.268	-60.07
889.44	-39.59
889.611	-107.18
889.782	1.37
889.953	-68.27
890.125	-21.16
890.296	-70.31
890.467	-6.83
890.638	11.61
890.809	-62.12
890.98	-72.36
891.151	38.23
891.323	105.81
891.494	38.23
891.665	25.94
891.836	44.37
892.007	-2.73
892.178	56.66
892.349	-6.83
892.52	-27.31
892.691	3.41
892.862	-78.51
893.032	-121.51
893.203	40.28
893.374	77.14
893.545	13.65
893.716	-49.83
893.887	11.61
894.057	-25.26
894.228	-15.02
894.399	27.99
894.57	54.61
894.74	73.04
894.911	17.75
895.082	-80.55
895.253	36.18
895.423	56.66
895.594	11.61
895.764	11.61
895.935	-94.89
896.106	126.29
896.276	-43.69
896.447	-0.68
896.617	11.61
896.788	-60.07
896.958	-135.85
897.129	-23.21
897.299	-80.55
897.47	124.24
897.64	85.33
897.81	-27.31
897.981	48.47
898.151	-45.74
898.322	42.32
898.492	-23.21
898.662	-158.38
898.832	-103.08
899.003	-58.03
899.173	-10.92
899.343	-125.61
899.513	-41.64
