Data from USB4F104151__124__10-46-19-058.txt Node

Date: Wed Feb 26 10:46:19 EST 2025
User: louis
Spectrometer: USB4F10415
Trigger mode: 4
Integration Time (sec): 1.000000E-1
Scans to average: 1
Electric dark correction enabled: true
Nonlinearity correction enabled: false
Boxcar width: 0
XAxis mode: Wavelengths
Number of Pixels in Spectrum: 3648
>>>>>Begin Spectral Data<<<<<
178.204	-312.83
178.424	-312.83
178.644	-312.83
178.864	-411.13
179.084	-364.03
179.304	-11.78
179.524	-22.02
179.744	12.8
179.964	41.47
180.184	70.14
180.404	37.38
180.624	-69.12
180.844	29.18
181.064	-173.57
181.283	70.14
181.503	-7.68
181.723	23.04
181.943	-60.93
182.163	197.12
182.383	-15.87
182.602	35.33
182.822	190.97
183.042	57.86
183.262	-15.87
183.482	16.9
183.701	92.67
183.921	35.33
184.141	-5.63
184.361	111.1
184.58	119.29
184.8	78.33
185.02	-17.92
185.239	100.86
185.459	104.96
185.679	88.57
185.898	-3.58
186.118	123.39
186.338	158.21
186.557	156.16
186.777	-22.02
186.997	2.56
187.216	100.86
187.436	168.45
187.655	66.05
187.875	102.91
188.095	84.48
188.314	92.67
188.534	115.2
188.753	-38.4
188.973	127.49
189.192	219.64
189.412	94.72
189.631	29.18
189.851	127.49
190.07	172.54
190.29	-38.4
190.509	33.28
190.729	57.86
190.948	127.49
191.168	258.56
191.387	178.69
191.607	59.9
191.826	96.77
192.045	10.75
192.265	20.99
192.484	90.62
192.704	72.19
192.923	-54.78
193.142	240.12
193.362	121.34
193.581	152.06
193.8	70.14
194.02	86.53
194.239	49.66
194.458	51.71
194.678	100.86
194.897	33.28
195.116	145.92
195.335	107.01
195.555	98.81
195.774	-58.88
195.993	76.29
196.212	53.76
196.432	27.14
196.651	-48.64
196.87	37.38
197.089	205.31
197.308	37.38
197.528	82.43
197.747	-50.69
197.966	133.63
198.185	150.01
198.404	-77.31
198.623	127.49
198.842	166.4
199.062	96.77
199.281	111.1
199.5	125.44
199.719	78.33
199.938	29.18
200.157	6.66
200.376	168.45
200.595	121.34
200.814	84.48
201.033	55.81
201.252	141.82
201.471	64
201.69	64
201.909	49.66
202.128	78.33
202.347	57.86
202.566	55.81
202.785	-26.11
203.004	39.42
203.223	303.61
203.442	-30.21
203.661	-7.68
203.879	66.05
204.098	170.49
204.317	-19.97
204.536	152.06
204.755	98.81
204.974	94.72
205.193	90.62
205.411	176.64
205.63	197.12
205.849	86.53
206.068	80.38
206.287	-15.87
206.505	147.97
206.724	49.66
206.943	-44.54
207.162	-22.02
207.381	64
207.599	53.76
207.818	33.28
208.037	-17.92
208.255	84.48
208.474	115.2
208.693	23.04
208.911	37.38
209.13	113.15
209.349	143.87
209.567	59.9
209.786	137.73
210.005	178.69
210.223	102.91
210.442	6.66
210.661	59.9
210.879	145.92
211.098	61.95
211.316	20.99
211.535	135.68
211.753	70.14
211.972	131.58
212.191	-24.06
212.409	23.04
212.628	152.06
212.846	16.9
213.065	47.62
213.283	94.72
213.502	88.57
213.72	37.38
213.938	37.38
214.157	-15.87
214.375	98.81
214.594	12.8
214.812	70.14
215.031	94.72
215.249	20.99
215.467	68.09
215.686	78.33
215.904	74.24
216.122	86.53
216.341	215.55
216.559	74.24
216.778	113.15
216.996	59.9
217.214	82.43
217.432	-3.58
217.651	12.8
217.869	31.23
218.087	4.61
218.306	51.71
218.524	20.99
218.742	123.39
218.96	109.05
219.179	47.62
219.397	117.25
219.615	236.03
219.833	154.11
220.051	29.18
220.27	74.24
220.488	139.77
220.706	166.4
220.924	-19.97
221.142	10.75
221.36	43.52
221.578	76.29
221.796	74.24
222.015	72.19
222.233	74.24
222.451	164.35
222.669	-44.54
222.887	78.33
223.105	31.23
223.323	90.62
223.541	16.9
223.759	111.1
223.977	45.57
224.195	152.06
224.413	174.59
224.631	10.75
224.849	57.86
225.067	199.16
225.285	33.28
225.503	8.7
225.721	-99.84
225.939	51.71
226.157	82.43
226.375	305.66
226.592	51.71
226.81	72.19
227.028	164.35
227.246	129.53
227.464	86.53
227.682	76.29
227.9	145.92
228.117	78.33
228.335	37.38
228.553	16.9
228.771	109.05
228.989	55.81
229.206	145.92
229.424	61.95
229.642	12.8
229.86	-1.54
230.077	121.34
230.295	96.77
230.513	152.06
230.731	53.76
230.948	207.36
231.166	143.87
231.384	29.18
231.601	35.33
231.819	154.11
232.037	47.62
232.254	6.66
232.472	41.47
232.689	29.18
232.907	127.49
233.125	-5.63
233.342	-17.92
233.56	33.28
233.777	47.62
233.995	152.06
234.213	61.95
234.43	76.29
234.648	80.38
234.865	33.28
235.083	74.24
235.3	109.05
235.518	86.53
235.735	117.25
235.953	98.81
236.17	90.62
236.388	53.76
236.605	92.67
236.822	180.73
237.04	190.97
237.257	107.01
237.475	-1.54
237.692	84.48
237.909	104.96
238.127	37.38
238.344	127.49
238.562	-17.92
238.779	-11.78
238.996	-87.55
239.214	49.66
239.431	66.05
239.648	68.09
239.865	150.01
240.083	100.86
240.3	4.61
240.517	37.38
240.735	20.99
240.952	117.25
241.169	84.48
241.386	98.81
241.603	86.53
241.821	-7.68
242.038	123.39
242.255	127.49
242.472	-44.54
242.689	82.43
242.907	156.16
243.124	98.81
243.341	82.43
243.558	45.57
243.775	-1.54
243.992	12.8
244.209	76.29
244.426	205.31
244.643	49.66
244.86	29.18
245.078	150.01
245.295	31.23
245.512	100.86
245.729	-17.92
245.946	111.1
246.163	152.06
246.38	23.04
246.597	37.38
246.814	-71.17
247.031	53.76
247.248	72.19
247.464	76.29
247.681	8.7
247.898	43.52
248.115	119.29
248.332	-19.97
248.549	121.34
248.766	233.98
248.983	98.81
249.2	88.57
249.417	113.15
249.633	41.47
249.85	145.92
250.067	20.99
250.284	98.81
250.501	68.09
250.717	94.72
250.934	-54.78
251.151	0.51
251.368	23.04
251.585	115.2
251.801	100.86
252.018	-17.92
252.235	176.64
252.451	29.18
252.668	45.57
252.885	111.1
253.102	88.57
253.318	72.19
253.535	143.87
253.752	74.24
253.968	-7.68
254.185	-60.93
254.401	133.63
254.618	49.66
254.835	51.71
255.051	121.34
255.268	82.43
255.484	64
255.701	53.76
255.917	57.86
256.134	-19.97
256.351	-11.78
256.567	12.8
256.784	33.28
257	-5.63
257.217	94.72
257.433	123.39
257.65	53.76
257.866	92.67
258.082	12.8
258.299	-26.11
258.515	78.33
258.732	2.56
258.948	27.14
259.165	4.61
259.381	14.85
259.597	156.16
259.814	49.66
260.03	-9.73
260.246	57.86
260.463	221.69
260.679	107.01
260.895	64
261.112	53.76
261.328	59.9
261.544	-32.26
261.761	141.82
261.977	-15.87
262.193	18.94
262.409	166.4
262.626	53.76
262.842	66.05
263.058	16.9
263.274	119.29
263.49	125.44
263.707	113.15
263.923	127.49
264.139	-42.5
264.355	139.77
264.571	94.72
264.787	96.77
265.004	156.16
265.22	109.05
265.436	-17.92
265.652	10.75
265.868	78.33
266.084	35.33
266.3	31.23
266.516	66.05
266.732	88.57
266.948	20.99
267.164	18.94
267.38	129.53
267.596	84.48
267.812	172.54
268.028	45.57
268.244	59.9
268.46	43.52
268.676	23.04
268.892	94.72
269.108	-120.32
269.324	31.23
269.54	27.14
269.756	125.44
269.972	8.7
270.188	66.05
270.403	-30.21
270.619	47.62
270.835	84.48
271.051	80.38
271.267	18.94
271.483	-40.45
271.698	139.77
271.914	47.62
272.13	104.96
272.346	-1.54
272.562	109.05
272.777	113.15
272.993	29.18
273.209	18.94
273.425	119.29
273.64	-26.11
273.856	121.34
274.072	66.05
274.287	-40.45
274.503	23.04
274.719	55.81
274.934	41.47
275.15	-11.78
275.366	23.04
275.581	-69.12
275.797	37.38
276.012	64
276.228	94.72
276.444	12.8
276.659	176.64
276.875	27.14
277.09	51.71
277.306	25.09
277.521	18.94
277.737	78.33
277.952	174.59
278.168	123.39
278.383	92.67
278.599	143.87
278.814	98.81
279.03	41.47
279.245	186.88
279.461	10.75
279.676	84.48
279.892	-30.21
280.107	-54.78
280.322	-65.02
280.538	43.52
280.753	33.28
280.969	92.67
281.184	41.47
281.399	133.63
281.615	35.33
281.83	74.24
282.045	37.38
282.26	-36.35
282.476	104.96
282.691	49.66
282.906	123.39
283.122	61.95
283.337	47.62
283.552	88.57
283.767	10.75
283.983	90.62
284.198	8.7
284.413	72.19
284.628	-17.92
284.843	-7.68
285.058	109.05
285.274	18.94
285.489	-1.54
285.704	131.58
285.919	27.14
286.134	139.77
286.349	4.61
286.564	6.66
286.779	129.53
286.995	-19.97
287.21	-67.07
287.425	92.67
287.64	-7.68
287.855	94.72
288.07	-24.06
288.285	205.31
288.5	113.15
288.715	109.05
288.93	6.66
289.145	-24.06
289.36	107.01
289.575	59.9
289.79	129.53
290.004	64
290.219	139.77
290.434	49.66
290.649	70.14
290.864	35.33
291.079	78.33
291.294	64
291.509	70.14
291.724	45.57
291.938	68.09
292.153	47.62
292.368	47.62
292.583	45.57
292.798	113.15
293.012	-19.97
293.227	104.96
293.442	-7.68
293.657	127.49
293.871	172.54
294.086	162.3
294.301	61.95
294.516	168.45
294.73	125.44
294.945	-34.3
295.16	53.76
295.374	174.59
295.589	219.64
295.804	-1.54
296.018	100.86
296.233	43.52
296.447	115.2
296.662	53.76
296.877	129.53
297.091	92.67
297.306	-30.21
297.52	61.95
297.735	78.33
297.949	78.33
298.164	25.09
298.378	45.57
298.593	8.7
298.807	41.47
299.022	135.68
299.236	211.45
299.451	6.66
299.665	33.28
299.88	27.14
300.094	94.72
300.309	37.38
300.523	137.73
300.737	88.57
300.952	88.57
301.166	80.38
301.381	-46.59
301.595	14.85
301.809	27.14
302.024	25.09
302.238	18.94
302.452	139.77
302.667	57.86
302.881	129.53
303.095	59.9
303.309	-3.58
303.524	-11.78
303.738	84.48
303.952	137.73
304.166	88.57
304.381	-148.99
304.595	168.45
304.809	12.8
305.023	82.43
305.237	4.61
305.452	35.33
305.666	109.05
305.88	115.2
306.094	147.97
306.308	172.54
306.522	113.15
306.736	121.34
306.95	158.21
307.164	16.9
307.379	49.66
307.593	139.77
307.807	113.15
308.021	121.34
308.235	141.82
308.449	29.18
308.663	113.15
308.877	227.84
309.091	12.8
309.305	51.71
309.519	-42.5
309.733	115.2
309.947	-79.36
310.161	84.48
310.374	78.33
310.588	131.58
310.802	-36.35
311.016	80.38
311.23	61.95
311.444	2.56
311.658	53.76
311.872	141.82
312.085	41.47
312.299	45.57
312.513	125.44
312.727	102.91
312.941	23.04
313.154	41.47
313.368	41.47
313.582	16.9
313.796	78.33
314.009	14.85
314.223	92.67
314.437	102.91
314.651	143.87
314.864	20.99
315.078	-1.54
315.292	-9.73
315.505	53.76
315.719	20.99
315.933	72.19
316.146	-32.26
316.36	-13.82
316.573	150.01
316.787	92.67
317.001	61.95
317.214	-17.92
317.428	129.53
317.641	0.51
317.855	-22.02
318.068	76.29
318.282	61.95
318.495	162.3
318.709	66.05
318.922	-1.54
319.136	143.87
319.349	107.01
319.563	-22.02
319.776	135.68
319.99	-81.41
320.203	86.53
320.417	49.66
320.63	141.82
320.843	107.01
321.057	76.29
321.27	55.81
321.483	113.15
321.697	182.78
321.91	29.18
322.124	111.1
322.337	80.38
322.55	-1.54
322.763	66.05
322.977	12.8
323.19	4.61
323.403	96.77
323.617	0.51
323.83	123.39
324.043	57.86
324.256	107.01
324.469	-65.02
324.683	199.16
324.896	41.47
325.109	152.06
325.322	25.09
325.535	64
325.748	98.81
325.962	51.71
326.175	92.67
326.388	92.67
326.601	162.3
326.814	27.14
327.027	41.47
327.24	172.54
327.453	-99.84
327.666	96.77
327.879	135.68
328.092	115.2
328.305	47.62
328.518	8.7
328.731	10.75
328.944	35.33
329.157	82.43
329.37	94.72
329.583	150.01
329.796	162.3
330.009	20.99
330.222	82.43
330.435	150.01
330.648	64
330.861	43.52
331.073	76.29
331.286	74.24
331.499	70.14
331.712	4.61
331.925	-44.54
332.138	55.81
332.35	174.59
332.563	49.66
332.776	137.73
332.989	39.42
333.202	-9.73
333.414	43.52
333.627	74.24
333.84	33.28
334.053	72.19
334.265	113.15
334.478	76.29
334.691	-34.3
334.903	88.57
335.116	20.99
335.329	-24.06
335.541	70.14
335.754	182.78
335.966	92.67
336.179	-1.54
336.392	8.7
336.604	39.42
336.817	145.92
337.029	43.52
337.242	45.57
337.454	129.53
337.667	68.09
337.88	215.55
338.092	80.38
338.305	29.18
338.517	12.8
338.729	86.53
338.942	96.77
339.154	-34.3
339.367	-5.63
339.579	70.14
339.792	-19.97
340.004	109.05
340.217	-48.64
340.429	88.57
340.641	4.61
340.854	0.51
341.066	53.76
341.278	135.68
341.491	199.16
341.703	53.76
341.915	82.43
342.128	96.77
342.34	117.25
342.552	55.81
342.764	90.62
342.977	90.62
343.189	147.97
343.401	100.86
343.613	4.61
343.826	-11.78
344.038	-26.11
344.25	43.52
344.462	-101.89
344.674	80.38
344.886	86.53
345.099	72.19
345.311	47.62
345.523	102.91
345.735	-54.78
345.947	0.51
346.159	107.01
346.371	53.76
346.583	33.28
346.795	225.79
347.007	53.76
347.219	115.2
347.431	31.23
347.643	92.67
347.855	68.09
348.067	113.15
348.279	-48.64
348.491	86.53
348.703	141.82
348.915	47.62
349.127	20.99
349.339	2.56
349.551	-3.58
349.763	100.86
349.975	64
350.187	125.44
350.399	141.82
350.61	104.96
350.822	-15.87
351.034	-5.63
351.246	72.19
351.458	74.24
351.669	137.73
351.881	127.49
352.093	74.24
352.305	119.29
352.517	76.29
352.728	166.4
352.94	115.2
353.152	117.25
353.363	-46.59
353.575	160.25
353.787	137.73
353.999	68.09
354.21	152.06
354.422	37.38
354.633	29.18
354.845	12.8
355.057	84.48
355.268	25.09
355.48	57.86
355.692	-36.35
355.903	37.38
356.115	-67.07
356.326	-89.6
356.538	184.83
356.749	94.72
356.961	211.45
357.172	-30.21
357.384	47.62
357.595	205.31
357.807	35.33
358.018	66.05
358.23	10.75
358.441	137.73
358.653	143.87
358.864	70.14
359.075	-7.68
359.287	98.81
359.498	119.29
359.709	59.9
359.921	152.06
360.132	125.44
360.344	-34.3
360.555	2.56
360.766	51.71
360.977	47.62
361.189	64
361.4	86.53
361.611	123.39
361.823	53.76
362.034	82.43
362.245	-30.21
362.456	78.33
362.667	135.68
362.879	-5.63
363.09	47.62
363.301	115.2
363.512	78.33
363.723	27.14
363.935	25.09
364.146	195.07
364.357	100.86
364.568	100.86
364.779	-36.35
364.99	156.16
365.201	-15.87
365.412	199.16
365.623	-52.74
365.834	137.73
366.045	16.9
366.256	96.77
366.467	176.64
366.678	-15.87
366.889	37.38
367.1	27.14
367.311	131.58
367.522	-22.02
367.733	111.1
367.944	90.62
368.155	70.14
368.366	78.33
368.577	154.11
368.788	100.86
368.999	-54.78
369.209	37.38
369.42	289.28
369.631	322.04
369.842	94.72
370.053	74.24
370.264	127.49
370.474	-13.82
370.685	131.58
370.896	96.77
371.107	166.4
371.317	78.33
371.528	4.61
371.739	176.64
371.95	86.53
372.16	102.91
372.371	-11.78
372.582	43.52
372.792	135.68
373.003	84.48
373.214	102.91
373.424	121.34
373.635	27.14
373.846	205.31
374.056	86.53
374.267	82.43
374.477	78.33
374.688	43.52
374.898	100.86
375.109	-9.73
375.319	66.05
375.53	152.06
375.74	64
375.951	47.62
376.161	76.29
376.372	199.16
376.582	35.33
376.793	100.86
377.003	14.85
377.214	59.9
377.424	102.91
377.635	72.19
377.845	29.18
378.055	119.29
378.266	-62.98
378.476	-22.02
378.686	111.1
378.897	70.14
379.107	174.59
379.317	135.68
379.528	23.04
379.738	207.36
379.948	-46.59
380.158	86.53
380.369	64
380.579	219.64
380.789	119.29
380.999	123.39
381.21	121.34
381.42	186.88
381.63	4.61
381.84	156.16
382.05	84.48
382.261	131.58
382.471	123.39
382.681	12.8
382.891	156.16
383.101	135.68
383.311	16.9
383.521	-87.55
383.731	145.92
383.941	123.39
384.151	102.91
384.361	80.38
384.571	143.87
384.781	113.15
384.991	180.73
385.201	178.69
385.411	76.29
385.621	35.33
385.831	80.38
386.041	8.7
386.251	29.18
386.461	135.68
386.671	78.33
386.881	20.99
387.091	14.85
387.301	72.19
387.511	111.1
387.72	111.1
387.93	119.29
388.14	-95.74
388.35	47.62
388.56	90.62
388.769	143.87
388.979	51.71
389.189	66.05
389.399	100.86
389.609	14.85
389.818	135.68
390.028	76.29
390.238	104.96
390.447	-28.16
390.657	100.86
390.867	78.33
391.076	-36.35
391.286	57.86
391.496	29.18
391.705	76.29
391.915	225.79
392.125	172.54
392.334	-5.63
392.544	147.97
392.753	25.09
392.963	-44.54
393.172	-9.73
393.382	-7.68
393.591	213.5
393.801	43.52
394.01	193.02
394.22	66.05
394.429	-15.87
394.639	2.56
394.848	121.34
395.058	96.77
395.267	98.81
395.477	84.48
395.686	78.33
395.895	195.07
396.105	221.69
396.314	145.92
396.524	37.38
396.733	45.57
396.942	117.25
397.152	182.78
397.361	82.43
397.57	-1.54
397.78	35.33
397.989	-17.92
398.198	283.13
398.407	2.56
398.617	31.23
398.826	49.66
399.035	16.9
399.244	178.69
399.453	129.53
399.663	27.14
399.872	4.61
400.081	45.57
400.29	119.29
400.499	-54.78
400.708	35.33
400.917	39.42
401.127	127.49
401.336	59.9
401.545	170.49
401.754	96.77
401.963	88.57
402.172	41.47
402.381	12.8
402.59	43.52
402.799	86.53
403.008	115.2
403.217	100.86
403.426	31.23
403.635	-17.92
403.844	147.97
404.053	70.14
404.262	45.57
404.471	127.49
404.68	88.57
404.888	23.04
405.097	29.18
405.306	47.62
405.515	213.5
405.724	64
405.933	98.81
406.142	160.25
406.35	164.35
406.559	43.52
406.768	29.18
406.977	137.73
407.185	14.85
407.394	82.43
407.603	6.66
407.812	127.49
408.02	156.16
408.229	100.86
408.438	66.05
408.646	-75.26
408.855	74.24
409.064	86.53
409.272	109.05
409.481	135.68
409.69	-19.97
409.898	47.62
410.107	184.83
410.315	137.73
410.524	66.05
410.733	49.66
410.941	80.38
411.15	152.06
411.358	102.91
411.567	180.73
411.775	66.05
411.984	41.47
412.192	109.05
412.401	111.1
412.609	223.74
412.818	150.01
413.026	129.53
413.234	37.38
413.443	6.66
413.651	35.33
413.86	51.71
414.068	96.77
414.276	281.08
414.485	66.05
414.693	152.06
414.901	213.5
415.11	137.73
415.318	92.67
415.526	164.35
415.734	16.9
415.943	143.87
416.151	121.34
416.359	160.25
416.567	100.86
416.776	168.45
416.984	137.73
417.192	131.58
417.4	84.48
417.608	45.57
417.817	31.23
418.025	139.77
418.233	223.74
418.441	51.71
418.649	-7.68
418.857	107.01
419.065	193.02
419.273	68.09
419.481	47.62
419.689	47.62
419.897	6.66
420.105	43.52
420.313	123.39
420.521	135.68
420.729	209.4
420.937	113.15
421.145	8.7
421.353	113.15
421.561	213.5
421.769	94.72
421.977	39.42
422.185	94.72
422.393	78.33
422.601	164.35
422.809	160.25
423.017	90.62
423.224	57.86
423.432	141.82
423.64	131.58
423.848	147.97
424.056	25.09
424.263	84.48
424.471	125.44
424.679	227.84
424.887	-62.98
425.094	211.45
425.302	131.58
425.51	123.39
425.718	197.12
425.925	98.81
426.133	74.24
426.341	242.17
426.548	76.29
426.756	102.91
426.964	113.15
427.171	14.85
427.379	92.67
427.586	156.16
427.794	152.06
428.001	102.91
428.209	102.91
428.417	254.46
428.624	164.35
428.832	100.86
429.039	113.15
429.247	127.49
429.454	205.31
429.662	262.65
429.869	152.06
430.076	150.01
430.284	186.88
430.491	285.18
430.699	195.07
430.906	274.94
431.114	131.58
431.321	211.45
431.528	164.35
431.736	102.91
431.943	217.6
432.15	258.56
432.358	233.98
432.565	317.95
432.772	31.23
432.979	285.18
433.187	242.17
433.394	317.95
433.601	184.83
433.808	285.18
434.016	246.27
434.223	276.99
434.43	256.51
434.637	287.23
434.844	303.61
435.052	352.76
435.259	268.8
435.466	322.04
435.673	272.89
435.88	283.13
436.087	406.01
436.294	399.87
436.501	356.86
436.708	340.47
436.915	422.39
437.122	406.01
437.329	412.15
437.537	442.87
437.743	428.54
437.95	551.42
438.157	483.83
438.364	485.88
438.571	446.97
438.778	555.51
438.985	494.07
439.192	541.18
439.399	557.56
439.606	504.31
439.813	637.43
440.02	649.72
440.227	766.45
440.433	616.95
440.64	662.01
440.847	561.66
441.054	598.52
441.261	733.68
441.467	735.73
441.674	741.88
441.881	903.67
442.088	772.6
442.294	750.07
442.501	920.05
442.708	928.24
442.914	838.13
443.121	1153.52
443.328	948.72
443.534	1098.22
443.741	1055.22
443.948	936.43
444.154	1186.29
444.361	1313.26
444.568	1159.66
444.774	1149.42
444.981	1163.76
445.187	1352.17
445.394	1419.75
445.6	1329.64
445.807	1622.5
446.013	1524.2
446.22	1530.34
446.426	1696.23
446.633	1679.85
446.839	1858.02
447.046	1755.62
447.252	1968.61
447.459	1812.96
447.665	1978.85
447.871	2058.72
448.078	2304.48
448.284	2152.93
448.491	2308.57
448.697	2357.72
448.903	2513.37
449.11	2718.17
449.316	2482.65
449.522	2728.41
449.728	2871.76
449.935	3031.51
450.141	2857.43
450.347	3224.01
450.553	3002.83
450.76	3234.25
450.966	3459.53
451.172	3424.72
451.378	3731.91
451.584	3596.75
451.791	3985.86
451.997	4059.59
452.203	4080.07
452.409	4549.05
452.615	4524.47
452.821	4475.32
453.027	4559.29
453.233	5274.03
453.44	4983.22
453.646	5130.67
453.852	5351.85
454.058	5693.87
454.264	5761.45
454.47	6138.27
454.676	6150.56
454.882	6699.42
455.088	6504.86
455.294	6812.06
455.5	7235.99
455.705	7608.72
455.911	7833.99
456.117	8022.41
456.323	8311.17
456.529	8188.29
456.735	8814.97
456.941	9130.36
457.147	9537.9
457.352	9636.2
457.558	9851.24
457.764	10574.17
457.97	10684.76
458.176	11278.68
458.381	11927.88
458.587	12112.2
458.793	12689.73
458.999	12761.41
459.204	14391.59
459.41	14749.98
459.616	14424.36
459.821	15440.15
460.027	16070.92
460.233	16707.84
460.438	16828.67
460.644	17740.02
460.85	17967.34
461.055	18723.04
461.261	19308.76
461.466	19144.92
461.672	19499.22
461.878	21688.5
462.083	21645.49
462.289	22134.96
462.494	22991.01
462.7	23163.04
462.905	23408.79
463.111	25221.25
463.316	26542.19
463.522	26753.13
463.727	27930.71
463.932	29048.9
464.138	29655.1
464.343	31070.25
464.549	31168.55
464.754	33220.61
464.959	34455.54
465.165	34926.57
465.37	34340.85
465.575	34576.37
465.781	36841.42
465.986	38064.06
466.191	37513.16
466.397	37758.91
466.602	36814.8
466.807	39055.28
467.012	39878.56
467.218	40253.34
467.423	40521.62
467.628	41428.87
467.833	43505.51
468.038	42887.03
468.244	42190.72
468.449	43970.4
468.654	43155.31
468.859	42815.35
469.064	43321.19
469.269	42057.6
469.474	42389.37
469.679	43773.8
469.885	42477.43
470.09	43126.64
470.295	43140.97
470.5	42280.83
470.705	42524.54
470.91	41600.9
471.115	40769.43
471.32	41936.77
471.525	41807.75
471.73	40640.4
471.935	39806.88
472.139	38557.62
472.344	38502.32
472.549	38420.41
472.754	37533.64
472.959	36687.82
473.164	35088.36
473.369	35082.22
473.574	35770.33
473.778	35057.64
473.983	34746.35
474.188	33968.12
474.393	32733.2
474.598	32526.35
474.802	31633.44
475.007	31086.63
475.212	31092.77
475.417	29757.5
475.621	29456.45
475.826	29345.86
476.031	28557.39
476.235	27684.95
476.44	28008.53
476.645	27250.78
476.849	27084.9
477.054	26349.68
477.259	25720.95
477.463	25766.01
477.668	24883.33
477.872	25317.5
478.077	24328.33
478.282	23607.45
478.486	23582.87
478.691	23249.05
478.895	22986.91
479.1	22968.48
479.304	22904.99
479.509	21967.02
479.713	22417.58
479.918	21872.82
480.122	21387.45
480.326	21614.77
480.531	21592.25
480.735	21299.39
480.94	20717.76
481.144	21446.84
481.348	20334.79
481.553	20531.4
481.757	20033.74
481.961	20029.65
482.166	20373.71
482.37	20084.94
482.574	19402.97
482.778	19529.94
482.983	19855.57
483.187	19466.45
483.391	19411.16
483.595	18706.66
483.8	18499.81
484.004	18675.94
484.208	18499.81
484.412	18499.81
484.616	18364.65
484.821	17993.97
485.025	17504.5
485.229	17320.18
485.433	17414.39
485.637	17197.31
485.841	16814.34
486.045	16785.66
486.249	16587.01
486.453	15935.76
486.657	15919.37
486.861	15761.68
487.065	15393.05
487.269	15495.44
487.473	14743.84
487.677	14811.42
487.881	14788.89
488.085	14229.8
488.289	14291.24
488.493	13672.75
488.697	13943.08
488.901	13459.76
489.105	13195.57
489.309	12822.84
489.512	13033.79
489.716	12695.87
489.92	12497.22
490.124	11948.36
490.328	12251.46
490.531	11749.71
490.735	11569.49
490.939	11284.82
491.143	11037.02
491.346	10955.1
491.55	11006.3
491.754	10793.31
491.958	10451.3
492.161	10121.57
492.365	10236.26
492.569	9908.58
492.772	9824.62
492.976	9740.65
493.18	9640.3
493.383	9525.61
493.587	9326.96
493.79	9365.87
493.994	9308.53
494.197	9064.82
494.401	9181.56
494.605	8919.42
494.808	9030.01
495.012	8681.85
495.215	8624.51
495.419	8685.95
495.622	8526.21
495.825	8501.63
496.029	8286.59
496.232	8710.52
496.436	8280.45
496.639	8767.87
496.843	8446.34
497.046	8497.53
497.249	8579.45
497.453	8454.53
497.656	8462.72
497.859	8522.11
498.063	8374.66
498.266	8589.69
498.469	8462.72
498.673	8466.81
498.876	8505.73
499.079	8675.71
499.282	8587.64
499.485	8958.33
499.689	8694.14
499.892	8868.22
500.095	8696.19
500.298	9089.4
500.501	8833.4
500.705	9103.73
500.908	9064.82
501.111	9009.53
501.314	9408.88
501.517	9486.7
501.72	9693.55
501.923	9277.81
502.126	9689.45
502.329	9750.89
502.532	9632.11
502.735	9947.5
502.938	10209.64
503.141	10172.77
503.344	10221.92
503.547	10457.44
503.75	10479.97
503.953	10803.55
504.156	10985.82
504.359	10852.7
504.562	11100.5
504.765	11530.58
504.968	11409.75
505.17	11731.28
505.373	11706.7
505.576	12087.62
505.779	12122.44
505.982	12267.84
506.185	12798.27
506.387	12976.44
506.59	12974.39
506.793	13295.93
506.996	13576.5
507.198	13934.89
507.401	14223.65
507.604	14244.13
507.807	14799.13
508.009	14797.09
508.212	14887.2
508.415	15298.84
508.617	15976.72
508.82	15978.76
509.022	16314.63
509.225	16875.77
509.428	17328.38
509.63	17400.05
509.833	17727.73
510.035	18553.06
510.238	18589.92
510.44	18780.39
510.643	19200.22
510.845	20136.14
511.048	20009.17
511.25	20764.87
511.453	21160.13
511.655	21895.35
511.858	21981.36
512.06	22499.5
512.262	22894.75
512.465	23396.51
512.667	23994.51
512.87	24338.57
513.072	24793.22
513.274	26065.01
513.477	26234.99
513.679	26876.01
513.881	27396.19
514.084	28256.34
514.286	28778.57
514.488	29136.96
514.69	30298.16
514.893	30580.78
515.095	31229.99
515.297	31905.82
515.499	32256.02
515.701	33136.65
515.904	33931.26
516.106	34275.32
516.308	35037.16
516.51	36251.61
516.712	36474.84
516.914	37382.09
517.116	38459.32
517.318	38604.72
517.52	39415.72
517.722	40011.68
517.925	40707.99
518.127	41664.39
518.329	42231.68
518.531	42094.46
518.733	43513.7
518.935	44584.79
519.136	44664.66
519.338	45635.4
519.54	46622.52
519.742	46911.28
519.944	47914.79
520.146	48576.28
520.348	49162
520.55	49751.82
520.752	50218.75
520.954	51353.33
521.155	51369.71
521.357	52084.45
521.559	52356.83
521.761	53700.3
521.963	53327.57
522.164	54122.18
522.366	54238.92
522.568	55469.75
522.77	55387.83
522.971	56444.58
523.173	56198.82
523.375	56596.13
523.576	56620.7
523.778	56747.68
523.98	57622.16
524.181	57702.03
524.383	57616.02
524.584	58420.87
524.786	58377.86
524.988	58001.03
525.189	58699.39
525.391	58867.33
525.592	58945.15
525.794	58893.95
525.995	58842.75
526.197	58631.81
526.398	58488.45
526.6	58816.13
526.801	58033.8
527.003	58111.63
527.204	57685.65
527.406	57947.79
527.607	57679.5
527.808	58144.39
528.01	56913.56
528.211	57038.49
528.412	57222.81
528.614	56708.77
528.815	56002.22
529.016	56583.84
529.218	54795.96
529.419	54961.85
529.62	54914.75
529.822	53913.29
530.023	53520.08
530.224	53233.36
530.425	52436.7
530.626	51791.59
530.828	51293.94
531.029	52049.64
531.23	50286.34
531.431	49628.94
531.632	49721.1
531.833	48656.15
532.035	48785.18
532.236	47884.07
532.437	47642.41
532.638	46737.21
532.839	46278.46
533.04	46124.86
533.241	44803.92
533.442	44855.12
533.643	44631.89
533.844	43659.11
534.045	43087.73
534.246	42051.45
534.447	41475.98
534.648	41338.76
534.849	41158.54
535.05	40044.44
535.251	39479.21
535.451	38776.75
535.652	38098.87
535.853	37945.28
536.054	37785.54
536.255	37115.85
536.456	36595.67
536.657	36437.97
536.857	35846.11
537.058	35096.55
537.259	34916.33
537.46	34463.73
537.66	33648.64
537.861	33720.32
538.062	32819.21
538.263	32696.33
538.463	32161.81
538.664	31901.72
538.865	31371.3
539.065	31068.2
539.266	30402.61
539.466	30165.04
539.667	29933.62
539.868	29749.31
540.068	28944.45
540.269	28821.58
540.469	28676.17
540.67	28080.21
540.87	27953.24
541.071	27502.68
541.271	27132
541.472	27261.02
541.672	26204.27
541.873	26470.51
542.073	25596.03
542.274	25942.13
542.474	25161.86
542.675	24795.27
542.875	25030.79
543.075	24600.71
543.276	23914.64
543.476	24461.45
543.676	23759
543.877	23324.83
544.077	23218.33
544.277	22933.67
544.478	22354.09
544.678	22757.54
544.878	22292.65
545.078	21901.49
545.279	21557.43
545.479	21469.37
545.679	21139.65
545.879	20850.88
546.079	20938.94
546.28	20340.94
546.48	19912.91
546.68	19968.21
546.88	19849.43
547.08	19644.63
547.28	19275.99
547.48	19036.38
547.68	19069.15
547.88	18284.78
548.081	18249.96
548.281	18432.23
548.481	17821.94
548.681	17852.66
548.881	17529.08
549.081	17518.84
549.28	16945.41
549.48	16922.88
549.68	16849.15
549.88	16630.02
550.08	16265.48
550.28	15982.86
550.48	15812.88
550.68	15579.41
550.88	15259.93
551.08	14936.35
551.279	15075.61
551.479	14526.75
551.679	14358.82
551.879	14055.72
552.079	14235.94
552.278	13719.85
552.478	13736.24
552.678	13533.49
552.878	13437.23
553.077	13048.12
553.277	12685.63
553.477	12945.72
553.676	12525.89
553.876	12290.37
554.076	12192.07
554.275	11880.78
554.475	11608.4
554.674	11387.22
554.874	11176.28
555.074	11151.7
555.273	10975.58
555.473	10692.96
555.672	10586.46
555.872	10416.48
556.071	10295.65
556.271	10338.66
556.47	9851.24
556.67	9638.25
556.869	9533.81
557.068	9519.47
557.268	9349.49
557.467	9156.98
557.667	9251.19
557.866	9038.2
558.065	8870.26
558.265	8462.72
558.464	8356.22
558.663	8317.31
558.863	8100.23
559.062	8196.48
559.261	7950.73
559.461	8016.26
559.66	7588.24
559.859	7565.71
560.058	7360.91
560.258	7244.18
560.457	7205.27
560.656	7233.94
560.855	6918.55
561.054	6949.27
561.253	6791.58
561.453	6701.47
561.652	6562.2
561.851	6603.16
562.05	6445.47
562.249	6214.05
562.448	6173.09
562.647	6130.08
562.846	5953.96
563.045	6009.25
563.244	5927.33
563.443	5845.41
563.642	5579.18
563.841	5605.8
564.04	5564.84
564.239	5540.27
564.438	5419.44
564.637	5120.43
564.836	5099.95
565.035	5122.48
565.234	5104.05
565.432	5018.04
565.631	4995.51
565.83	4780.47
566.029	4727.22
566.228	4573.63
566.427	4637.11
566.625	4456.89
566.824	4491.71
567.023	4430.27
567.222	4186.56
567.42	4143.55
567.619	4258.24
567.818	4248
568.016	4307.39
568.215	4051.39
568.414	4084.16
568.612	3867.08
568.811	3785.16
569.01	3834.31
569.208	3817.93
569.407	3822.02
569.605	3592.65
569.804	3523.02
570.002	3531.21
570.201	3361.23
570.4	3518.92
570.598	3346.89
570.797	3350.99
570.995	3293.65
571.193	3279.31
571.392	3310.03
571.59	2982.35
571.789	3256.78
571.987	3230.16
572.186	3025.36
572.384	3002.83
572.582	3035.6
572.781	3029.46
572.979	2716.12
573.177	2863.57
573.376	2882
573.574	2732.5
573.772	2519.51
573.971	2666.97
574.169	2415.07
574.367	2535.9
574.565	2445.79
574.763	2521.56
574.962	2529.75
575.16	2314.72
575.358	2370.01
575.556	2214.37
575.754	2347.48
575.952	2185.69
576.151	2157.02
576.349	2292.19
576.547	2066.91
576.745	2159.07
576.943	2095.58
577.141	2019.81
577.339	1993.19
577.537	1987.04
577.735	1929.7
577.933	2003.43
578.131	1849.83
578.329	1966.56
578.527	1864.16
578.725	1847.78
578.923	1712.61
579.121	1767.91
579.319	1640.93
579.516	1665.51
579.714	1948.13
579.912	1622.5
580.11	1556.97
580.308	1593.83
580.506	1542.63
580.704	1364.46
580.901	1532.39
581.099	1575.4
581.297	1448.43
581.495	1475.05
581.692	1417.71
581.89	1544.68
582.088	1448.43
582.285	1358.32
582.483	1260.01
582.681	1423.85
582.878	1184.24
583.076	1333.74
583.274	1239.53
583.471	1384.94
583.669	1241.58
583.866	1063.41
584.064	1167.85
584.262	1020.4
584.459	1067.5
584.657	1184.24
584.854	1296.88
585.052	1171.95
585.249	1034.74
585.447	1161.71
585.644	926.19
585.841	1106.42
586.039	1128.94
586.236	1155.57
586.434	1026.54
586.631	956.91
586.828	920.05
587.026	936.43
587.223	946.67
587.42	930.29
587.618	1057.26
587.815	1038.83
588.012	967.15
588.21	817.65
588.407	971.25
588.604	1012.21
588.801	811.51
588.999	872.95
589.196	842.23
589.393	887.28
589.59	940.53
589.787	850.42
589.984	768.5
590.182	901.62
590.379	784.88
590.576	846.32
590.773	864.75
590.97	774.64
591.167	854.51
591.364	797.17
591.561	772.6
591.758	922.1
591.955	752.12
592.152	819.7
592.349	743.92
592.546	752.12
592.743	825.84
592.94	758.26
593.137	752.12
593.334	817.65
593.531	821.75
593.727	823.8
593.924	801.27
594.121	807.41
594.318	797.17
594.515	831.99
594.712	874.99
594.908	836.08
595.105	692.73
595.302	827.89
595.499	922.1
595.696	948.72
595.892	817.65
596.089	977.39
596.286	823.8
596.482	1036.78
596.679	879.09
596.876	852.47
597.072	991.73
597.269	1012.21
597.466	977.39
597.662	1120.75
597.859	1069.55
598.055	1141.23
598.252	1149.42
598.448	1141.23
598.645	1321.45
598.841	1376.75
599.038	1405.42
599.234	1497.58
599.431	1362.41
599.627	1518.06
599.824	1473
600.02	1434.09
600.217	1602.02
600.413	1583.59
600.609	1640.93
600.806	2081.25
601.002	1819.11
601.198	1909.22
601.395	2103.78
601.591	1999.33
601.787	2077.15
601.984	2195.93
602.18	2273.76
602.376	2324.96
602.572	2570.71
602.769	2621.91
602.965	2605.53
603.161	2652.63
603.357	2906.58
603.553	3074.51
603.75	3027.41
603.946	3101.14
604.142	3281.36
604.338	3449.29
604.534	3365.32
604.73	3668.42
604.926	3539.4
605.122	3873.22
605.318	3779.01
605.514	3946.95
605.71	4041.15
605.906	4268.48
606.102	4315.58
606.298	4549.05
606.494	4813.24
606.69	4876.73
606.886	4807.09
607.082	5132.72
607.278	5235.12
607.474	5188.02
607.67	5394.86
607.866	5620.14
608.062	5853.61
608.257	5829.03
608.453	6042.02
608.649	6308.26
608.845	6353.31
609.041	6408.61
609.236	6877.59
609.432	6975.89
609.628	7307.66
609.824	7299.47
610.019	7518.61
610.215	7719.31
610.411	8049.03
610.606	8137.09
610.802	8114.56
610.998	8688
611.193	8991.09
611.389	9195.89
611.584	9286
611.78	9488.75
611.976	9621.87
612.171	10119.53
612.367	10299.75
612.562	10529.12
612.758	10563.93
612.953	10891.61
613.149	11364.69
613.344	11415.89
613.539	12179.78
613.735	12218.69
613.93	12495.17
614.126	12839.23
614.321	13300.02
614.517	13480.24
614.712	13961.51
614.907	14326.05
615.103	14706.98
615.298	14573.86
615.493	15429.91
615.688	15409.43
615.884	16347.4
616.079	16158.99
616.274	16877.82
616.47	17142.01
616.665	17500.4
616.86	17910
617.055	18618.6
617.25	18995.42
617.445	19525.85
617.641	19538.13
617.836	20756.68
618.031	20730.05
618.226	21649.59
618.421	21715.12
618.616	22522.02
618.811	22812.84
619.006	23617.69
619.201	23687.32
619.396	24610.95
619.591	24385.68
619.786	25593.98
619.981	25856.12
620.176	26839.14
620.371	26843.24
620.566	28020.82
620.761	27904.09
620.956	28600.4
621.151	28993.61
621.346	29915.19
621.541	30087.22
621.735	31182.88
621.93	31463.46
622.125	31926.3
622.32	31926.3
622.515	33228.8
622.709	33683.45
622.904	33994.75
623.099	34797.55
623.294	35495.91
623.488	35799.01
623.683	36593.62
623.878	36689.87
624.072	37930.94
624.267	38193.08
624.462	38920.11
624.656	39522.21
624.851	40501.14
625.046	40290.2
625.24	41351.05
625.435	41605
625.629	41987.97
625.824	42874.74
626.018	43224.94
626.213	43059.05
626.407	44443.48
626.602	44275.55
626.796	45201.23
626.991	45426.51
627.185	45533
627.38	45782.85
627.574	46393.15
627.768	46477.11
627.963	46638.9
628.157	46894.9
628.352	47124.27
628.546	46604.09
628.74	47009.59
628.935	46982.96
629.129	47486.76
629.323	46374.72
629.517	46806.84
629.712	46382.91
629.906	46040.9
630.1	45053.78
630.294	45317.96
630.489	44388.19
630.683	44486.49
630.877	43366.25
631.071	42692.47
631.265	42354.55
631.459	41265.03
631.653	40445.85
631.848	39886.75
632.042	38596.53
632.236	38219.7
632.43	36779.98
632.624	36079.58
632.818	34957.29
633.012	33333.25
633.206	32503.82
633.4	31580.19
633.594	30939.18
633.788	29816.89
633.982	28459.09
634.176	27918.42
634.369	26443.88
634.563	25813.11
634.757	24600.71
634.951	23720.09
635.145	23046.3
635.339	21948.59
635.533	20914.37
635.726	20506.82
635.92	19437.78
636.114	18651.36
636.308	17864.94
636.501	17219.83
636.695	16740.61
636.889	15696.14
637.083	15190.3
637.276	14567.71
637.47	13715.76
637.664	13381.94
637.857	12941.63
638.051	12437.83
638.244	11907.4
638.438	11225.43
638.632	11041.11
638.825	10250.6
639.019	10121.57
639.212	9681.26
639.406	9312.63
639.599	8915.32
639.793	8479.1
639.986	8325.5
640.18	7907.72
640.373	7631.24
640.567	7336.34
640.76	7131.54
640.954	6775.19
641.147	6511
641.34	6187.43
641.534	6007.2
641.727	5888.42
641.92	5599.66
642.114	5345.71
642.307	5306.8
642.5	5112.24
642.694	4747.7
642.887	4612.54
643.08	4518.33
643.273	4317.63
643.467	4213.18
643.66	3903.94
643.853	3830.21
644.046	3701.19
644.239	3484.11
644.432	3279.31
644.626	3164.62
644.819	3111.38
645.012	3031.51
645.205	2920.92
645.398	2902.48
645.591	2738.65
645.784	2570.71
645.977	2384.35
646.17	2382.3
646.363	2224.61
646.556	2251.23
646.749	2052.58
646.942	2114.02
647.135	2142.69
647.328	1890.79
647.521	1812.96
647.714	1708.52
647.907	1757.67
648.099	1647.08
648.292	1624.55
648.485	1569.26
648.678	1368.56
648.871	1352.17
649.064	1434.09
649.256	1284.59
649.449	1257.96
649.642	1049.07
649.835	1128.94
650.027	1073.65
650.22	1143.28
650.413	1036.78
650.605	1071.6
650.798	954.87
650.991	983.54
651.183	938.48
651.376	946.67
651.568	993.78
651.761	864.75
651.954	836.08
652.146	831.99
652.339	895.47
652.531	799.22
652.724	735.73
652.916	633.33
653.109	631.29
653.301	707.06
653.494	668.15
653.686	623.09
653.879	725.49
654.071	629.24
654.263	549.37
654.456	451.07
654.648	709.11
654.84	647.67
655.033	500.22
655.225	629.24
655.417	369.15
655.61	537.08
655.802	516.6
655.994	582.14
656.186	375.29
656.379	551.42
656.571	344.57
656.763	406.01
656.955	414.2
657.148	502.26
657.34	512.5
657.532	313.85
657.724	414.2
657.916	449.02
658.108	492.02
658.3	375.29
658.492	408.06
658.684	356.86
658.876	428.54
659.068	311.8
659.26	238.08
659.452	301.56
659.644	297.47
659.836	389.63
660.028	281.08
660.22	264.7
660.412	252.41
660.604	303.61
660.796	324.09
660.988	348.67
661.18	287.23
661.372	303.61
661.563	283.13
661.755	254.46
661.947	166.4
662.139	233.98
662.331	307.71
662.522	248.32
662.714	141.82
662.906	180.73
663.097	246.27
663.289	156.16
663.481	74.24
663.673	266.75
663.864	231.93
664.056	227.84
664.247	158.21
664.439	225.79
664.631	217.6
664.822	309.76
665.014	201.21
665.205	188.93
665.397	158.21
665.588	168.45
665.78	195.07
665.971	272.89
666.163	225.79
666.354	190.97
666.546	147.97
666.737	176.64
666.929	143.87
667.12	186.88
667.311	150.01
667.503	215.55
667.694	199.16
667.885	215.55
668.077	274.94
668.268	96.77
668.459	262.65
668.651	184.83
668.842	260.6
669.033	125.44
669.224	86.53
669.416	399.87
669.607	100.86
669.798	129.53
669.989	285.18
670.18	129.53
670.371	164.35
670.563	127.49
670.754	229.88
670.945	221.69
671.136	227.84
671.327	139.77
671.518	272.89
671.709	326.14
671.9	178.69
672.091	244.22
672.282	178.69
672.473	166.4
672.664	37.38
672.855	168.45
673.046	215.55
673.237	260.6
673.428	139.77
673.619	250.36
673.809	129.53
674	305.66
674.191	254.46
674.382	164.35
674.573	217.6
674.764	188.93
674.954	262.65
675.145	94.72
675.336	158.21
675.527	201.21
675.717	145.92
675.908	94.72
676.099	111.1
676.289	180.73
676.48	90.62
676.671	158.21
676.861	201.21
677.052	117.25
677.243	168.45
677.433	129.53
677.624	268.8
677.814	137.73
678.005	145.92
678.195	244.22
678.386	152.06
678.576	174.59
678.767	59.9
678.957	184.83
679.148	209.4
679.338	322.04
679.529	238.08
679.719	184.83
679.909	229.88
680.1	274.94
680.29	221.69
680.481	166.4
680.671	272.89
680.861	276.99
681.052	215.55
681.242	207.36
681.432	264.7
681.622	197.12
681.813	115.2
682.003	184.83
682.193	145.92
682.383	178.69
682.573	240.12
682.764	197.12
682.954	250.36
683.144	299.52
683.334	174.59
683.524	154.11
683.714	221.69
683.904	201.21
684.094	248.32
684.284	233.98
684.474	285.18
684.664	209.4
684.854	135.68
685.044	283.13
685.234	197.12
685.424	264.7
685.614	225.79
685.804	422.39
685.994	326.14
686.184	250.36
686.374	328.19
686.564	176.64
686.753	250.36
686.943	158.21
687.133	291.32
687.323	266.75
687.513	291.32
687.702	256.51
687.892	213.5
688.082	244.22
688.272	244.22
688.461	209.4
688.651	322.04
688.841	262.65
689.03	197.12
689.22	225.79
689.41	281.08
689.599	307.71
689.789	201.21
689.979	328.19
690.168	131.58
690.358	285.18
690.547	231.93
690.737	274.94
690.926	305.66
691.116	197.12
691.305	293.37
691.495	209.4
691.684	231.93
691.874	197.12
692.063	197.12
692.252	215.55
692.442	256.51
692.631	283.13
692.82	205.31
693.01	283.13
693.199	213.5
693.388	238.08
693.578	190.97
693.767	295.42
693.956	281.08
694.146	160.25
694.335	268.8
694.524	217.6
694.713	279.04
694.902	240.12
695.092	213.5
695.281	256.51
695.47	160.25
695.659	133.63
695.848	180.73
696.037	154.11
696.226	270.84
696.415	225.79
696.604	264.7
696.793	223.74
696.982	113.15
697.171	344.57
697.36	125.44
697.549	195.07
697.738	150.01
697.927	201.21
698.116	164.35
698.305	240.12
698.494	162.3
698.683	158.21
698.872	338.43
699.061	260.6
699.25	152.06
699.438	223.74
699.627	168.45
699.816	354.81
700.005	152.06
700.193	182.78
700.382	207.36
700.571	199.16
700.76	213.5
700.948	225.79
701.137	207.36
701.326	287.23
701.514	236.03
701.703	133.63
701.892	295.42
702.08	373.24
702.269	229.88
702.457	176.64
702.646	315.9
702.834	160.25
703.023	326.14
703.212	256.51
703.4	193.02
703.589	158.21
703.777	129.53
703.965	127.49
704.154	186.88
704.342	170.49
704.531	86.53
704.719	268.8
704.907	248.32
705.096	141.82
705.284	182.78
705.472	250.36
705.661	299.52
705.849	248.32
706.037	213.5
706.226	96.77
706.414	240.12
706.602	156.16
706.79	254.46
706.979	166.4
707.167	223.74
707.355	47.62
707.543	205.31
707.731	223.74
707.919	250.36
708.107	190.97
708.296	205.31
708.484	68.09
708.672	225.79
708.86	150.01
709.048	250.36
709.236	199.16
709.424	260.6
709.612	258.56
709.8	53.76
709.988	227.84
710.176	303.61
710.364	260.6
710.551	113.15
710.739	131.58
710.927	184.83
711.115	195.07
711.303	252.41
711.491	229.88
711.679	172.54
711.866	250.36
712.054	197.12
712.242	217.6
712.43	293.37
712.617	164.35
712.805	279.04
712.993	201.21
713.181	129.53
713.368	182.78
713.556	199.16
713.744	129.53
713.931	336.38
714.119	272.89
714.306	158.21
714.494	244.22
714.682	139.77
714.869	102.91
715.057	178.69
715.244	127.49
715.432	186.88
715.619	201.21
715.807	209.4
715.994	193.02
716.182	250.36
716.369	299.52
716.556	287.23
716.744	127.49
716.931	213.5
717.119	143.87
717.306	94.72
717.493	297.47
717.681	158.21
717.868	195.07
718.055	211.45
718.242	207.36
718.43	233.98
718.617	244.22
718.804	199.16
718.991	256.51
719.179	109.05
719.366	270.84
719.553	264.7
719.74	201.21
719.927	197.12
720.114	229.88
720.301	186.88
720.488	127.49
720.676	190.97
720.863	217.6
721.05	332.28
721.237	254.46
721.424	264.7
721.611	231.93
721.798	117.25
721.985	135.68
722.172	133.63
722.358	182.78
722.545	250.36
722.732	225.79
722.919	317.95
723.106	289.28
723.293	303.61
723.48	324.09
723.667	205.31
723.853	266.75
724.04	285.18
724.227	340.47
724.414	221.69
724.6	285.18
724.787	358.91
724.974	371.19
725.161	227.84
725.347	162.3
725.534	254.46
725.72	248.32
725.907	289.28
726.094	272.89
726.28	160.25
726.467	250.36
726.653	182.78
726.84	242.17
727.027	377.34
727.213	262.65
727.4	279.04
727.586	266.75
727.773	250.36
727.959	178.69
728.145	313.85
728.332	201.21
728.518	213.5
728.705	276.99
728.891	250.36
729.077	274.94
729.264	215.55
729.45	221.69
729.636	264.7
729.823	279.04
730.009	330.23
730.195	182.78
730.382	293.37
730.568	188.93
730.754	268.8
730.94	244.22
731.126	225.79
731.313	410.11
731.499	215.55
731.685	254.46
731.871	315.9
732.057	256.51
732.243	309.76
732.429	254.46
732.615	348.67
732.801	352.76
732.987	219.64
733.173	166.4
733.359	231.93
733.545	276.99
733.731	203.26
733.917	305.66
734.103	307.71
734.289	252.41
734.475	256.51
734.661	459.26
734.847	283.13
735.033	315.9
735.219	307.71
735.404	178.69
735.59	193.02
735.776	215.55
735.962	264.7
736.148	309.76
736.333	332.28
736.519	260.6
736.705	293.37
736.89	266.75
737.076	262.65
737.262	223.74
737.447	176.64
737.633	246.27
737.819	272.89
738.004	227.84
738.19	203.26
738.375	295.42
738.561	293.37
738.747	221.69
738.932	190.97
739.118	414.2
739.303	348.67
739.489	242.17
739.674	229.88
739.859	154.11
740.045	260.6
740.23	227.84
740.416	109.05
740.601	311.8
740.786	262.65
740.972	172.54
741.157	193.02
741.342	131.58
741.528	190.97
741.713	311.8
741.898	242.17
742.084	145.92
742.269	174.59
742.454	291.32
742.639	352.76
742.824	256.51
743.01	387.58
743.195	326.14
743.38	233.98
743.565	219.64
743.75	244.22
743.935	274.94
744.12	326.14
744.305	197.12
744.49	266.75
744.675	262.65
744.86	186.88
745.045	262.65
745.23	209.4
745.415	201.21
745.6	410.11
745.785	197.12
745.97	311.8
746.155	272.89
746.34	311.8
746.525	252.41
746.71	410.11
746.895	131.58
747.079	123.39
747.264	205.31
747.449	201.21
747.634	254.46
747.819	332.28
748.003	283.13
748.188	143.87
748.373	223.74
748.557	170.49
748.742	211.45
748.927	256.51
749.111	190.97
749.296	160.25
749.481	152.06
749.665	221.69
749.85	147.97
750.034	195.07
750.219	217.6
750.404	117.25
750.588	252.41
750.773	162.3
750.957	242.17
751.141	213.5
751.326	213.5
751.51	64
751.695	176.64
751.879	184.83
752.064	283.13
752.248	180.73
752.432	389.63
752.617	262.65
752.801	254.46
752.985	127.49
753.17	274.94
753.354	164.35
753.538	231.93
753.722	156.16
753.907	150.01
754.091	141.82
754.275	215.55
754.459	143.87
754.643	141.82
754.828	240.12
755.012	195.07
755.196	98.81
755.38	205.31
755.564	166.4
755.748	141.82
755.932	256.51
756.116	190.97
756.3	238.08
756.484	125.44
756.668	139.77
756.852	76.29
757.036	195.07
757.22	268.8
757.404	121.34
757.588	172.54
757.772	150.01
757.956	150.01
758.14	309.76
758.323	133.63
758.507	154.11
758.691	109.05
758.875	188.93
759.059	238.08
759.242	31.23
759.426	240.12
759.61	172.54
759.794	113.15
759.977	190.97
760.161	387.58
760.345	338.43
760.528	281.08
760.712	199.16
760.895	233.98
761.079	174.59
761.263	41.47
761.446	111.1
761.63	133.63
761.813	227.84
761.997	94.72
762.18	45.57
762.364	180.73
762.547	107.01
762.731	31.23
762.914	135.68
763.098	115.2
763.281	102.91
763.464	39.42
763.648	111.1
763.831	51.71
764.015	27.14
764.198	229.88
764.381	64
764.564	92.67
764.748	166.4
764.931	139.77
765.114	72.19
765.297	172.54
765.481	47.62
765.664	172.54
765.847	29.18
766.03	215.55
766.213	6.66
766.397	88.57
766.58	12.8
766.763	135.68
766.946	59.9
767.129	90.62
767.312	14.85
767.495	160.25
767.678	51.71
767.861	137.73
768.044	131.58
768.227	84.48
768.41	59.9
768.593	109.05
768.776	190.97
768.959	76.29
769.142	197.12
769.324	162.3
769.507	102.91
769.69	141.82
769.873	64
770.056	229.88
770.239	90.62
770.421	213.5
770.604	123.39
770.787	96.77
770.97	129.53
771.152	53.76
771.335	147.97
771.518	6.66
771.7	201.21
771.883	150.01
772.066	102.91
772.248	86.53
772.431	170.49
772.613	76.29
772.796	49.66
772.978	55.81
773.161	145.92
773.343	51.71
773.526	47.62
773.708	14.85
773.891	-52.74
774.073	55.81
774.256	53.76
774.438	135.68
774.621	45.57
774.803	172.54
774.985	82.43
775.168	98.81
775.35	86.53
775.532	74.24
775.715	-32.26
775.897	12.8
776.079	66.05
776.261	150.01
776.444	102.91
776.626	107.01
776.808	88.57
776.99	12.8
777.173	92.67
777.355	70.14
777.537	96.77
777.719	45.57
777.901	100.86
778.083	51.71
778.265	16.9
778.447	127.49
778.629	84.48
778.811	129.53
778.993	150.01
779.175	113.15
779.357	41.47
779.539	-36.35
779.721	49.66
779.903	176.64
780.085	4.61
780.267	84.48
780.449	49.66
780.631	129.53
780.812	184.83
780.994	47.62
781.176	-44.54
781.358	68.09
781.54	123.39
781.721	74.24
781.903	158.21
782.085	51.71
782.267	178.69
782.448	59.9
782.63	66.05
782.812	125.44
782.993	84.48
783.175	184.83
783.357	-11.78
783.538	104.96
783.72	8.7
783.901	74.24
784.083	111.1
784.264	78.33
784.446	8.7
784.627	-44.54
784.809	72.19
784.99	-46.59
785.172	47.62
785.353	78.33
785.535	57.86
785.716	2.56
785.897	-26.11
786.079	-1.54
786.26	23.04
786.441	131.58
786.623	-87.55
786.804	-19.97
786.985	66.05
787.167	152.06
787.348	64
787.529	27.14
787.71	242.17
787.891	66.05
788.073	-50.69
788.254	-60.93
788.435	254.46
788.616	10.75
788.797	-73.21
788.978	12.8
789.159	49.66
789.34	59.9
789.522	27.14
789.703	-13.82
789.884	57.86
790.065	80.38
790.246	156.16
790.427	-3.58
790.607	94.72
790.788	141.82
790.969	59.9
791.15	59.9
791.331	51.71
791.512	51.71
791.693	12.8
791.874	0.51
792.054	250.36
792.235	125.44
792.416	-71.17
792.597	4.61
792.778	96.77
792.958	84.48
793.139	70.14
793.32	107.01
793.5	4.61
793.681	219.64
793.862	61.95
794.042	80.38
794.223	-38.4
794.404	18.94
794.584	-38.4
794.765	-32.26
794.945	49.66
795.126	74.24
795.306	135.68
795.487	37.38
795.667	39.42
795.848	68.09
796.028	66.05
796.209	37.38
796.389	64
796.57	78.33
796.75	-13.82
796.93	76.29
797.111	39.42
797.291	-19.97
797.471	86.53
797.652	16.9
797.832	23.04
798.012	135.68
798.192	-5.63
798.373	-32.26
798.553	41.47
798.733	27.14
798.913	-54.78
799.093	-44.54
799.274	74.24
799.454	72.19
799.634	119.29
799.814	55.81
799.994	68.09
800.174	100.86
800.354	14.85
800.534	-30.21
800.714	51.71
800.894	6.66
801.074	-108.03
801.254	-30.21
801.434	184.83
801.614	0.51
801.794	-9.73
801.974	1536.49
802.154	-46.59
802.334	14.85
802.514	-17.92
802.693	-19.97
802.873	-28.16
803.053	102.91
803.233	82.43
803.413	68.09
803.592	-58.88
803.772	66.05
803.952	147.97
804.131	-52.74
804.311	70.14
804.491	90.62
804.67	-60.93
804.85	2.56
805.03	80.38
805.209	96.77
805.389	-5.63
805.568	-97.79
805.748	-24.06
805.928	43.52
806.107	113.15
806.287	66.05
806.466	49.66
806.646	-9.73
806.825	-15.87
807.004	-24.06
807.184	57.86
807.363	43.52
807.543	-17.92
807.722	6.66
807.901	131.58
808.081	57.86
808.26	-124.41
808.439	51.71
808.619	-22.02
808.798	29.18
808.977	-3.58
809.156	100.86
809.336	12.8
809.515	133.63
809.694	-67.07
809.873	-19.97
810.052	29.18
810.231	133.63
810.411	57.86
810.59	51.71
810.769	14.85
810.948	51.71
811.127	-101.89
811.306	-52.74
811.485	12.8
811.664	154.11
811.843	37.38
812.022	-3.58
812.201	12.8
812.38	-7.68
812.559	27.14
812.737	141.82
812.916	-101.89
813.095	-42.5
813.274	-28.16
813.453	18.94
813.632	78.33
813.811	47.62
813.989	4.61
814.168	-19.97
814.347	-40.45
814.526	20.99
814.704	141.82
814.883	100.86
815.062	-62.98
815.24	45.57
815.419	-95.74
815.598	43.52
815.776	-42.5
815.955	57.86
816.133	-60.93
816.312	23.04
816.49	57.86
816.669	18.94
816.847	-3.58
817.026	145.92
817.204	31.23
817.383	0.51
817.561	-116.22
817.74	27.14
817.918	-42.5
818.097	78.33
818.275	-48.64
818.453	23.04
818.632	31.23
818.81	8.7
818.988	0.51
819.167	-75.26
819.345	16.9
819.523	47.62
819.701	0.51
819.879	49.66
820.058	-11.78
820.236	12.8
820.414	25.09
820.592	0.51
820.77	66.05
820.948	-50.69
821.127	6.66
821.305	37.38
821.483	-9.73
821.661	125.44
821.839	33.28
822.017	18.94
822.195	-19.97
822.373	139.77
822.551	37.38
822.729	59.9
822.907	-38.4
823.085	47.62
823.262	4.61
823.44	33.28
823.618	61.95
823.796	23.04
823.974	41.47
824.152	-36.35
824.329	-24.06
824.507	-3.58
824.685	70.14
824.863	64
825.04	-24.06
825.218	61.95
825.396	-11.78
825.574	113.15
825.751	25.09
825.929	113.15
826.107	-36.35
826.284	14.85
826.462	70.14
826.639	-58.88
826.817	-24.06
826.994	-9.73
827.172	6.66
827.349	121.34
827.527	45.57
827.704	72.19
827.882	123.39
828.059	-50.69
828.237	16.9
828.414	68.09
828.591	-71.17
828.769	-9.73
828.946	-44.54
829.124	119.29
829.301	76.29
829.478	10.75
829.655	59.9
829.833	-69.12
830.01	-148.99
830.187	78.33
830.364	4.61
830.542	-15.87
830.719	6.66
830.896	70.14
831.073	49.66
831.25	16.9
831.427	66.05
831.604	-1.54
831.782	-30.21
831.959	33.28
832.136	0.51
832.313	6.66
832.49	10.75
832.667	41.47
832.844	-7.68
833.021	201.21
833.198	78.33
833.374	-3.58
833.551	133.63
833.728	-62.98
833.905	92.67
834.082	-134.65
834.259	16.9
834.436	98.81
834.612	-30.21
834.789	61.95
834.966	18.94
835.143	4.61
835.319	-5.63
835.496	82.43
835.673	117.25
835.85	37.38
836.026	59.9
836.203	6.66
836.38	-62.98
836.556	4.61
836.733	-13.82
836.909	176.64
837.086	-3.58
837.262	-62.98
837.439	20.99
837.616	-65.02
837.792	23.04
837.968	100.86
838.145	-81.41
838.321	88.57
838.498	61.95
838.674	94.72
838.851	41.47
839.027	-24.06
839.203	16.9
839.38	43.52
839.556	-26.11
839.732	86.53
839.909	2.56
840.085	-19.97
840.261	-34.3
840.437	76.29
840.614	53.76
840.79	137.73
840.966	74.24
841.142	8.7
841.318	14.85
841.494	45.57
841.671	78.33
841.847	-5.63
842.023	25.09
842.199	55.81
842.375	117.25
842.551	-130.56
842.727	6.66
842.903	111.1
843.079	-132.61
843.255	135.68
843.431	64
843.607	123.39
843.783	-136.7
843.959	-11.78
844.134	-40.45
844.31	90.62
844.486	-93.69
844.662	-38.4
844.838	-3.58
845.013	51.71
845.189	133.63
845.365	78.33
845.541	102.91
845.716	43.52
845.892	61.95
846.068	-42.5
846.244	-24.06
846.419	100.86
846.595	-69.12
846.77	-3.58
846.946	-42.5
847.122	-60.93
847.297	43.52
847.473	119.29
847.648	4.61
847.824	39.42
847.999	-44.54
848.175	25.09
848.35	82.43
848.526	61.95
848.701	74.24
848.876	31.23
849.052	156.16
849.227	59.9
849.403	-11.78
849.578	-73.21
849.753	37.38
849.929	57.86
850.104	-58.88
850.279	4.61
850.454	53.76
850.63	20.99
850.805	27.14
850.98	27.14
851.155	33.28
851.33	16.9
851.505	-71.17
851.681	211.45
851.856	-62.98
852.031	82.43
852.206	23.04
852.381	-28.16
852.556	-44.54
852.731	55.81
852.906	61.95
853.081	12.8
853.256	49.66
853.431	-3.58
853.606	-22.02
853.781	-79.36
853.956	-97.79
854.131	-19.97
854.305	-19.97
854.48	35.33
854.655	-38.4
854.83	-67.07
855.005	43.52
855.18	12.8
855.354	6.66
855.529	-1.54
855.704	27.14
855.879	57.86
856.053	-79.36
856.228	29.18
856.403	-36.35
856.577	45.57
856.752	-67.07
856.926	-46.59
857.101	78.33
857.276	-87.55
857.45	39.42
857.625	129.53
857.799	66.05
857.974	-7.68
858.148	-81.41
858.323	-13.82
858.497	-54.78
858.672	-93.69
858.846	-40.45
859.02	86.53
859.195	-42.5
859.369	-26.11
859.543	43.52
859.718	-22.02
859.892	53.76
860.066	-11.78
860.241	-50.69
860.415	-62.98
860.589	12.8
860.763	2.56
860.938	16.9
861.112	47.62
861.286	-32.26
861.46	33.28
861.634	16.9
861.808	86.53
861.982	-3.58
862.157	-77.31
862.331	-73.21
862.505	-30.21
862.679	-62.98
862.853	-13.82
863.027	-1.54
863.201	117.25
863.375	-3.58
863.549	68.09
863.722	29.18
863.896	31.23
864.07	-87.55
864.244	-15.87
864.418	82.43
864.592	-7.68
864.766	6.66
864.939	-44.54
865.113	-67.07
865.287	84.48
865.461	-93.69
865.634	12.8
865.808	-3.58
865.982	43.52
866.156	-13.82
866.329	-116.22
866.503	49.66
866.676	113.15
866.85	37.38
867.024	-38.4
867.197	92.67
867.371	68.09
867.544	61.95
867.718	-85.5
867.891	82.43
868.065	-19.97
868.238	2.56
868.412	74.24
868.585	29.18
868.759	-32.26
868.932	-26.11
869.105	-44.54
869.279	31.23
869.452	-83.45
869.625	0.51
869.799	2.56
869.972	-62.98
870.145	-44.54
870.319	72.19
870.492	-28.16
870.665	-50.69
870.838	-60.93
871.011	-138.75
871.185	-34.3
871.358	-19.97
871.531	94.72
871.704	-5.63
871.877	-42.5
872.05	-56.83
872.223	-30.21
872.396	-9.73
872.569	113.15
872.742	-44.54
872.915	20.99
873.088	31.23
873.261	-3.58
873.434	74.24
873.607	49.66
873.78	8.7
873.953	-56.83
874.126	66.05
874.299	45.57
874.471	-65.02
874.644	4.61
874.817	98.81
874.99	170.49
875.163	-48.64
875.335	6.66
875.508	14.85
875.681	66.05
875.853	31.23
876.026	-24.06
876.199	88.57
876.371	-22.02
876.544	-71.17
876.717	64
876.889	-65.02
877.062	25.09
877.234	-24.06
877.407	-83.45
877.579	12.8
877.752	33.28
877.924	92.67
878.097	10.75
878.269	-36.35
878.442	-1.54
878.614	31.23
878.786	-46.59
878.959	16.9
879.131	25.09
879.303	-171.52
879.476	-3.58
879.648	137.73
879.82	23.04
879.993	0.51
880.165	-36.35
880.337	-77.31
880.509	49.66
880.681	-108.03
880.854	14.85
881.026	53.76
881.198	201.21
881.37	-17.92
881.542	-30.21
881.714	-22.02
881.886	-26.11
882.058	39.42
882.23	6.66
882.402	-95.74
882.574	39.42
882.746	96.77
882.918	125.44
883.09	88.57
883.262	31.23
883.434	-38.4
883.606	-75.26
883.778	41.47
883.95	129.53
884.122	-52.74
884.293	43.52
884.465	25.09
884.637	23.04
884.809	-22.02
884.98	27.14
885.152	104.96
885.324	-1.54
885.496	20.99
885.667	14.85
885.839	-7.68
886.011	133.63
886.182	78.33
886.354	31.23
886.525	72.19
886.697	35.33
886.869	12.8
887.04	37.38
887.212	88.57
887.383	104.96
887.555	43.52
887.726	-48.64
887.897	-24.06
888.069	33.28
888.24	53.76
888.412	-22.02
888.583	-5.63
888.754	-17.92
888.926	-93.69
889.097	-40.45
889.268	-153.09
889.44	80.38
889.611	-103.93
889.782	-28.16
889.953	-28.16
890.125	61.95
890.296	-50.69
890.467	33.28
890.638	-19.97
890.809	-30.21
890.98	20.99
891.151	76.29
891.323	84.48
891.494	-13.82
891.665	-9.73
891.836	0.51
892.007	-3.58
892.178	66.05
892.349	64
892.52	55.81
892.691	43.52
892.862	2.56
893.032	-11.78
893.203	-87.55
893.374	6.66
893.545	117.25
893.716	-48.64
893.887	29.18
894.057	6.66
894.228	-24.06
894.399	-22.02
894.57	123.39
894.74	29.18
894.911	-50.69
895.082	-15.87
895.253	-34.3
895.423	-32.26
895.594	51.71
895.764	82.43
895.935	-58.88
896.106	53.76
896.276	68.09
896.447	107.01
896.617	-116.22
896.788	-26.11
896.958	-48.64
897.129	27.14
897.299	-34.3
897.47	98.81
897.64	117.25
897.81	-19.97
897.981	111.1
898.151	-120.32
898.322	129.53
898.492	45.57
898.662	-34.3
898.832	68.09
899.003	45.57
899.173	78.33
899.343	-75.26
899.513	37.38
