Data from USB4F104151__42__10-42-52-680.txt Node

Date: Wed Feb 26 10:42:52 EST 2025
User: louis
Spectrometer: USB4F10415
Trigger mode: 4
Integration Time (sec): 1.000000E-1
Scans to average: 1
Electric dark correction enabled: true
Nonlinearity correction enabled: false
Boxcar width: 0
XAxis mode: Wavelengths
Number of Pixels in Spectrum: 3648
>>>>>Begin Spectral Data<<<<<
178.204	-373.75
178.424	-373.75
178.644	-373.75
178.864	-431.1
179.084	-394.23
179.304	5.12
179.524	-17.41
179.744	50.18
179.964	-23.55
180.184	11.26
180.404	-19.46
180.624	11.26
180.844	-17.41
181.064	-68.61
181.283	7.17
181.503	35.84
181.723	25.6
181.943	-33.79
182.163	156.67
182.383	44.03
182.602	23.55
182.822	111.61
183.042	-31.74
183.262	-58.37
183.482	52.22
183.701	19.46
183.921	-27.65
184.141	-60.42
184.361	99.33
184.58	13.31
184.8	23.55
185.02	-44.03
185.239	58.37
185.459	99.33
185.679	87.04
185.898	-150.53
186.118	15.36
186.338	78.85
186.557	99.33
186.777	-54.27
186.997	-1.02
187.216	-19.46
187.436	134.14
187.655	99.33
187.875	115.71
188.095	33.79
188.314	173.05
188.534	99.33
188.753	21.5
188.973	115.71
189.192	156.67
189.412	44.03
189.631	54.27
189.851	46.08
190.07	142.33
190.29	-80.89
190.509	68.61
190.729	29.7
190.948	175.1
191.168	203.77
191.387	84.99
191.607	25.6
191.826	64.51
192.045	46.08
192.265	-46.08
192.484	46.08
192.704	-19.46
192.923	-68.61
193.142	168.96
193.362	103.42
193.581	101.37
193.8	39.94
194.02	76.8
194.239	17.41
194.458	3.07
194.678	35.84
194.897	-19.46
195.116	80.89
195.335	99.33
195.555	29.7
195.774	-44.03
195.993	148.48
196.212	19.46
196.432	17.41
196.651	9.22
196.87	-17.41
197.089	173.05
197.308	-3.07
197.528	70.65
197.747	-7.17
197.966	-9.22
198.185	52.22
198.404	-25.6
198.623	117.76
198.842	89.09
199.062	99.33
199.281	93.18
199.5	62.46
199.719	111.61
199.938	29.7
200.157	21.5
200.376	152.57
200.595	99.33
200.814	-25.6
201.033	21.5
201.252	56.32
201.471	33.79
201.69	41.98
201.909	-11.26
202.128	107.52
202.347	142.33
202.566	60.42
202.785	-91.13
203.004	23.55
203.223	291.84
203.442	29.7
203.661	-138.24
203.879	62.46
204.098	82.94
204.317	-95.23
204.536	70.65
204.755	39.94
204.974	84.99
205.193	27.65
205.411	130.05
205.63	144.38
205.849	74.75
206.068	-25.6
206.287	-3.07
206.505	181.25
206.724	-39.94
206.943	68.61
207.162	5.12
207.381	-15.36
207.599	72.7
207.818	84.99
208.037	-123.9
208.255	80.89
208.474	-15.36
208.693	29.7
208.911	-33.79
209.13	84.99
209.349	66.56
209.567	74.75
209.786	54.27
210.005	103.42
210.223	48.13
210.442	-82.94
210.661	7.17
210.879	48.13
211.098	15.36
211.316	-35.84
211.535	130.05
211.753	82.94
211.972	23.55
212.191	-25.6
212.409	25.6
212.628	25.6
212.846	-33.79
213.065	58.37
213.283	144.38
213.502	25.6
213.72	5.12
213.938	87.04
214.157	-25.6
214.375	109.57
214.594	58.37
214.812	68.61
215.031	-52.22
215.249	19.46
215.467	-19.46
215.686	-17.41
215.904	52.22
216.122	70.65
216.341	179.2
216.559	46.08
216.778	64.51
216.996	89.09
217.214	-1.02
217.432	-13.31
217.651	-101.37
217.869	58.37
218.087	37.89
218.306	19.46
218.524	-9.22
218.742	54.27
218.96	113.66
219.179	29.7
219.397	15.36
219.615	197.63
219.833	136.19
220.051	33.79
220.27	140.29
220.488	138.24
220.706	39.94
220.924	-13.31
221.142	-56.32
221.36	115.71
221.578	17.41
221.796	35.84
222.015	76.8
222.233	-3.07
222.451	136.19
222.669	-19.46
222.887	41.98
223.105	39.94
223.323	-1.02
223.541	-113.66
223.759	60.42
223.977	-7.17
224.195	185.34
224.413	37.89
224.631	60.42
224.849	91.13
225.067	193.53
225.285	-41.98
225.503	-39.94
225.721	-101.37
225.939	50.18
226.157	44.03
226.375	226.3
226.592	-3.07
226.81	76.8
227.028	123.9
227.246	70.65
227.464	95.23
227.682	140.29
227.9	156.67
228.117	29.7
228.335	76.8
228.553	13.31
228.771	-9.22
228.989	70.65
229.206	72.7
229.424	-3.07
229.642	-56.32
229.86	-3.07
230.077	113.66
230.295	37.89
230.513	103.42
230.731	48.13
230.948	201.72
231.166	160.77
231.384	-27.65
231.601	-19.46
231.819	119.81
232.037	44.03
232.254	-31.74
232.472	-29.7
232.689	37.89
232.907	74.75
233.125	29.7
233.342	52.22
233.56	17.41
233.777	37.89
233.995	54.27
234.213	-13.31
234.43	134.14
234.648	66.56
234.865	29.7
235.083	-15.36
235.3	46.08
235.518	37.89
235.735	119.81
235.953	31.74
236.17	-31.74
236.388	25.6
236.605	41.98
236.822	128
237.04	62.46
237.257	97.28
237.475	-80.89
237.692	17.41
237.909	103.42
238.127	44.03
238.344	27.65
238.562	-1.02
238.779	-72.7
238.996	70.65
239.214	48.13
239.431	31.74
239.648	-50.18
239.865	58.37
240.083	93.18
240.3	25.6
240.517	33.79
240.735	33.79
240.952	142.33
241.169	87.04
241.386	64.51
241.603	44.03
241.821	-68.61
242.038	128
242.255	156.67
242.472	-146.43
242.689	95.23
242.907	5.12
243.124	3.07
243.341	13.31
243.558	46.08
243.775	-44.03
243.992	-44.03
244.209	1.02
244.426	199.68
244.643	50.18
244.86	60.42
245.078	97.28
245.295	31.74
245.512	60.42
245.729	15.36
245.946	107.52
246.163	3.07
246.38	31.74
246.597	70.65
246.814	23.55
247.031	-7.17
247.248	48.13
247.464	52.22
247.681	60.42
247.898	25.6
248.115	5.12
248.332	-87.04
248.549	160.77
248.766	158.72
248.983	56.32
249.2	68.61
249.417	62.46
249.633	-44.03
249.85	58.37
250.067	11.26
250.284	15.36
250.501	74.75
250.717	80.89
250.934	-39.94
251.151	50.18
251.368	41.98
251.585	52.22
251.801	29.7
252.018	-54.27
252.235	105.47
252.451	-37.89
252.668	78.85
252.885	78.85
253.102	78.85
253.318	-25.6
253.535	-44.03
253.752	-60.42
253.968	29.7
254.185	-84.99
254.401	68.61
254.618	-17.41
254.835	19.46
255.051	117.76
255.268	29.7
255.484	37.89
255.701	-25.6
255.917	101.37
256.134	-21.5
256.351	54.27
256.567	-25.6
256.784	44.03
257	-44.03
257.217	60.42
257.433	54.27
257.65	72.7
257.866	130.05
258.082	-64.51
258.299	-72.7
258.515	74.75
258.732	-35.84
258.948	-17.41
259.165	50.18
259.381	-89.09
259.597	91.13
259.814	41.98
260.03	23.55
260.246	-15.36
260.463	144.38
260.679	152.57
260.895	54.27
261.112	74.75
261.328	9.22
261.544	-9.22
261.761	181.25
261.977	48.13
262.193	-35.84
262.409	80.89
262.626	76.8
262.842	23.55
263.058	-58.37
263.274	89.09
263.49	7.17
263.707	115.71
263.923	93.18
264.139	-74.75
264.355	13.31
264.571	84.99
264.787	17.41
265.004	123.9
265.22	23.55
265.436	39.94
265.652	66.56
265.868	113.66
266.084	-54.27
266.3	-13.31
266.516	-37.89
266.732	41.98
266.948	54.27
267.164	5.12
267.38	82.94
267.596	130.05
267.812	113.66
268.028	11.26
268.244	-9.22
268.46	17.41
268.676	1.02
268.892	44.03
269.108	-39.94
269.324	-44.03
269.54	-68.61
269.756	134.14
269.972	-9.22
270.188	-31.74
270.403	-15.36
270.619	-44.03
270.835	91.13
271.051	64.51
271.267	60.42
271.483	-44.03
271.698	117.76
271.914	60.42
272.13	13.31
272.346	-7.17
272.562	46.08
272.777	39.94
272.993	-23.55
273.209	1.02
273.425	76.8
273.64	-74.75
273.856	97.28
274.072	-3.07
274.287	9.22
274.503	5.12
274.719	15.36
274.934	-48.13
275.15	-54.27
275.366	19.46
275.581	-56.32
275.797	1.02
276.012	9.22
276.228	-13.31
276.444	44.03
276.659	91.13
276.875	-56.32
277.09	74.75
277.306	19.46
277.521	142.33
277.737	-13.31
277.952	72.7
278.168	-17.41
278.383	3.07
278.599	68.61
278.814	41.98
279.03	64.51
279.245	119.81
279.461	-37.89
279.676	107.52
279.892	-39.94
280.107	50.18
280.322	-46.08
280.538	35.84
280.753	-7.17
280.969	31.74
281.184	-13.31
281.399	150.53
281.615	35.84
281.83	132.09
282.045	-87.04
282.26	60.42
282.476	23.55
282.691	82.94
282.906	111.61
283.122	62.46
283.337	-11.26
283.552	44.03
283.767	29.7
283.983	50.18
284.198	-33.79
284.413	7.17
284.628	-74.75
284.843	109.57
285.058	89.09
285.274	-46.08
285.489	-44.03
285.704	31.74
285.919	-21.5
286.134	56.32
286.349	56.32
286.564	46.08
286.779	66.56
286.995	-17.41
287.21	-44.03
287.425	54.27
287.64	17.41
287.855	33.79
288.07	-64.51
288.285	82.94
288.5	82.94
288.715	84.99
288.93	54.27
289.145	-11.26
289.36	101.37
289.575	-23.55
289.79	115.71
290.004	-11.26
290.219	29.7
290.434	21.5
290.649	-72.7
290.864	31.74
291.079	-64.51
291.294	29.7
291.509	68.61
291.724	70.65
291.938	-80.89
292.153	15.36
292.368	27.65
292.583	17.41
292.798	58.37
293.012	48.13
293.227	91.13
293.442	-7.17
293.657	97.28
293.871	138.24
294.086	87.04
294.301	160.77
294.516	160.77
294.73	-29.7
294.945	-121.85
295.16	-66.56
295.374	84.99
295.589	91.13
295.804	19.46
296.018	68.61
296.233	128
296.447	5.12
296.662	-5.12
296.877	142.33
297.091	29.7
297.306	33.79
297.52	29.7
297.735	76.8
297.949	74.75
298.164	33.79
298.378	46.08
298.593	-76.8
298.807	27.65
299.022	62.46
299.236	56.32
299.451	17.41
299.665	-41.98
299.88	29.7
300.094	62.46
300.309	56.32
300.523	17.41
300.737	-70.65
300.952	46.08
301.166	68.61
301.381	64.51
301.595	-39.94
301.809	44.03
302.024	-9.22
302.238	-25.6
302.452	62.46
302.667	29.7
302.881	171.01
303.095	156.67
303.309	-52.22
303.524	-15.36
303.738	37.89
303.952	25.6
304.166	82.94
304.381	-84.99
304.595	185.34
304.809	58.37
305.023	35.84
305.237	-76.8
305.452	-15.36
305.666	80.89
305.88	80.89
306.094	80.89
306.308	99.33
306.522	9.22
306.736	78.85
306.95	95.23
307.164	-11.26
307.379	-50.18
307.593	113.66
307.807	97.28
308.021	99.33
308.235	-64.51
308.449	1.02
308.663	-66.56
308.877	248.83
309.091	80.89
309.305	-19.46
309.519	-109.57
309.733	177.15
309.947	-97.28
310.161	13.31
310.374	46.08
310.588	168.96
310.802	-21.5
311.016	23.55
311.23	89.09
311.444	52.22
311.658	111.61
311.872	97.28
312.085	134.14
312.299	95.23
312.513	209.92
312.727	9.22
312.941	25.6
313.154	15.36
313.368	9.22
313.582	37.89
313.796	27.65
314.009	25.6
314.223	138.24
314.437	52.22
314.651	19.46
314.864	-35.84
315.078	-15.36
315.292	-37.89
315.505	-21.5
315.719	39.94
315.933	121.85
316.146	3.07
316.36	-82.94
316.573	146.43
316.787	56.32
317.001	60.42
317.214	-29.7
317.428	19.46
317.641	27.65
317.855	17.41
318.068	97.28
318.282	23.55
318.495	144.38
318.709	84.99
318.922	17.41
319.136	119.81
319.349	35.84
319.563	35.84
319.776	109.57
319.99	-39.94
320.203	-1.02
320.417	13.31
320.63	140.29
320.843	93.18
321.057	56.32
321.27	74.75
321.483	41.98
321.697	97.28
321.91	66.56
322.124	125.95
322.337	7.17
322.55	-72.7
322.763	31.74
322.977	-1.02
323.19	56.32
323.403	44.03
323.617	46.08
323.83	70.65
324.043	31.74
324.256	66.56
324.469	1.02
324.683	91.13
324.896	15.36
325.109	27.65
325.322	-64.51
325.535	99.33
325.748	93.18
325.962	140.29
326.175	-15.36
326.388	46.08
326.601	148.48
326.814	-3.07
327.027	7.17
327.24	173.05
327.453	-91.13
327.666	54.27
327.879	91.13
328.092	56.32
328.305	1.02
328.518	78.85
328.731	62.46
328.944	27.65
329.157	46.08
329.37	-29.7
329.583	162.81
329.796	146.43
330.009	50.18
330.222	91.13
330.435	60.42
330.648	41.98
330.861	9.22
331.073	87.04
331.286	50.18
331.499	41.98
331.712	39.94
331.925	41.98
332.138	60.42
332.35	54.27
332.563	-19.46
332.776	105.47
332.989	-21.5
333.202	66.56
333.414	44.03
333.627	103.42
333.84	50.18
334.053	101.37
334.265	31.74
334.478	27.65
334.691	93.18
334.903	-29.7
335.116	7.17
335.329	-21.5
335.541	11.26
335.754	189.44
335.966	-56.32
336.179	1.02
336.392	31.74
336.604	-9.22
336.817	144.38
337.029	68.61
337.242	25.6
337.454	68.61
337.667	29.7
337.88	97.28
338.092	74.75
338.305	-7.17
338.517	1.02
338.729	76.8
338.942	95.23
339.154	-5.12
339.367	-64.51
339.579	97.28
339.792	33.79
340.004	72.7
340.217	60.42
340.429	60.42
340.641	-19.46
340.854	-48.13
341.066	87.04
341.278	138.24
341.491	185.34
341.703	33.79
341.915	-11.26
342.128	56.32
342.34	44.03
342.552	5.12
342.764	123.9
342.977	87.04
343.189	101.37
343.401	27.65
343.613	-35.84
343.826	103.42
344.038	-41.98
344.25	76.8
344.462	-37.89
344.674	37.89
344.886	23.55
345.099	72.7
345.311	37.89
345.523	-19.46
345.735	-50.18
345.947	31.74
346.159	95.23
346.371	-37.89
346.583	-72.7
346.795	173.05
347.007	-11.26
347.219	111.61
347.431	33.79
347.643	142.33
347.855	-60.42
348.067	78.85
348.279	-48.13
348.491	68.61
348.703	95.23
348.915	46.08
349.127	-48.13
349.339	27.65
349.551	-74.75
349.763	56.32
349.975	9.22
350.187	107.52
350.399	105.47
350.61	44.03
350.822	-13.31
351.034	44.03
351.246	39.94
351.458	21.5
351.669	84.99
351.881	13.31
352.093	158.72
352.305	142.33
352.517	23.55
352.728	87.04
352.94	150.53
353.152	115.71
353.363	-58.37
353.575	107.52
353.787	154.62
353.999	44.03
354.21	101.37
354.422	-27.65
354.633	-48.13
354.845	19.46
355.057	41.98
355.268	33.79
355.48	35.84
355.692	-39.94
355.903	31.74
356.115	-60.42
356.326	-105.47
356.538	113.66
356.749	25.6
356.961	37.89
357.172	15.36
357.384	-78.85
357.595	121.85
357.807	-15.36
358.018	19.46
358.23	23.55
358.441	160.77
358.653	89.09
358.864	-1.02
359.075	-15.36
359.287	-68.61
359.498	44.03
359.709	103.42
359.921	52.22
360.132	29.7
360.344	17.41
360.555	56.32
360.766	95.23
360.977	27.65
361.189	50.18
361.4	31.74
361.611	27.65
361.823	25.6
362.034	-35.84
362.245	-97.28
362.456	-70.65
362.667	23.55
362.879	-56.32
363.09	76.8
363.301	-1.02
363.512	-13.31
363.723	-25.6
363.935	-5.12
364.146	99.33
364.357	3.07
364.568	50.18
364.779	-74.75
364.99	158.72
365.201	-5.12
365.412	95.23
365.623	-82.94
365.834	17.41
366.045	54.27
366.256	48.13
366.467	121.85
366.678	15.36
366.889	60.42
367.1	1.02
367.311	84.99
367.522	-27.65
367.733	46.08
367.944	91.13
368.155	9.22
368.366	138.24
368.577	111.61
368.788	97.28
368.999	1.02
369.209	17.41
369.42	218.11
369.631	287.74
369.842	5.12
370.053	37.89
370.264	111.61
370.474	-60.42
370.685	54.27
370.896	29.7
371.107	121.85
371.317	-15.36
371.528	-21.5
371.739	144.38
371.95	11.26
372.16	128
372.371	-113.66
372.582	5.12
372.792	31.74
373.003	87.04
373.214	29.7
373.424	48.13
373.635	27.65
373.846	107.52
374.056	-5.12
374.267	50.18
374.477	107.52
374.688	-70.65
374.898	62.46
375.109	5.12
375.319	35.84
375.53	97.28
375.74	76.8
375.951	52.22
376.161	29.7
376.372	84.99
376.582	13.31
376.793	52.22
377.003	-29.7
377.214	-17.41
377.424	58.37
377.635	76.8
377.845	44.03
378.055	138.24
378.266	-99.33
378.476	-11.26
378.686	70.65
378.897	-3.07
379.107	82.94
379.317	58.37
379.528	11.26
379.738	91.13
379.948	-41.98
380.158	154.62
380.369	44.03
380.579	41.98
380.789	17.41
380.999	68.61
381.21	111.61
381.42	158.72
381.63	29.7
381.84	103.42
382.05	107.52
382.261	87.04
382.471	115.71
382.681	23.55
382.891	150.53
383.101	23.55
383.311	9.22
383.521	29.7
383.731	111.61
383.941	39.94
384.151	48.13
384.361	31.74
384.571	54.27
384.781	23.55
384.991	175.1
385.201	162.81
385.411	72.7
385.621	109.57
385.831	91.13
386.041	-21.5
386.251	-52.22
386.461	60.42
386.671	37.89
386.881	9.22
387.091	-7.17
387.301	78.85
387.511	1.02
387.72	70.65
387.93	97.28
388.14	-68.61
388.35	-11.26
388.56	107.52
388.769	91.13
388.979	66.56
389.189	-29.7
389.399	-3.07
389.609	39.94
389.818	132.09
390.028	121.85
390.238	41.98
390.447	-23.55
390.657	99.33
390.867	39.94
391.076	-25.6
391.286	66.56
391.496	62.46
391.705	21.5
391.915	80.89
392.125	132.09
392.334	72.7
392.544	113.66
392.753	121.85
392.963	37.89
393.172	21.5
393.382	-68.61
393.591	121.85
393.801	13.31
394.01	87.04
394.22	173.05
394.429	19.46
394.639	68.61
394.848	52.22
395.058	33.79
395.267	62.46
395.477	111.61
395.686	82.94
395.895	240.64
396.105	168.96
396.314	101.37
396.524	21.5
396.733	33.79
396.942	87.04
397.152	62.46
397.361	82.94
397.57	39.94
397.78	-11.26
397.989	74.75
398.198	175.1
398.407	97.28
398.617	111.61
398.826	128
399.035	29.7
399.244	164.86
399.453	-21.5
399.663	48.13
399.872	95.23
400.081	-58.37
400.29	173.05
400.499	68.61
400.708	78.85
400.917	-27.65
401.127	-5.12
401.336	52.22
401.545	152.57
401.754	97.28
401.963	128
402.172	-35.84
402.381	-21.5
402.59	35.84
402.799	5.12
403.008	123.9
403.217	93.18
403.426	7.17
403.635	-78.85
403.844	97.28
404.053	105.47
404.262	33.79
404.471	144.38
404.68	78.85
404.888	21.5
405.097	66.56
405.306	171.01
405.515	173.05
405.724	21.5
405.933	68.61
406.142	23.55
406.35	125.95
406.559	78.85
406.768	44.03
406.977	158.72
407.185	103.42
407.394	9.22
407.603	13.31
407.812	66.56
408.02	101.37
408.229	3.07
408.438	31.74
408.646	-64.51
408.855	-9.22
409.064	123.9
409.272	37.89
409.481	48.13
409.69	-76.8
409.898	-9.22
410.107	109.57
410.315	152.57
410.524	82.94
410.733	89.09
410.941	13.31
411.15	136.19
411.358	35.84
411.567	87.04
411.775	99.33
411.984	27.65
412.192	76.8
412.401	46.08
412.609	168.96
412.818	76.8
413.026	-31.74
413.234	35.84
413.443	-15.36
413.651	-11.26
413.86	17.41
414.068	93.18
414.276	199.68
414.485	-3.07
414.693	148.48
414.901	185.34
415.11	72.7
415.318	54.27
415.526	84.99
415.734	29.7
415.943	89.09
416.151	97.28
416.359	-52.22
416.567	187.39
416.776	31.74
416.984	91.13
417.192	205.82
417.4	5.12
417.608	15.36
417.817	-27.65
418.025	41.98
418.233	189.44
418.441	-105.47
418.649	-101.37
418.857	37.89
419.065	117.76
419.273	-84.99
419.481	103.42
419.689	95.23
419.897	-33.79
420.105	-37.89
420.313	134.14
420.521	232.44
420.729	168.96
420.937	-39.94
421.145	-97.28
421.353	181.25
421.561	195.58
421.769	91.13
421.977	-48.13
422.185	82.94
422.393	15.36
422.601	66.56
422.809	56.32
423.017	21.5
423.224	50.18
423.432	121.85
423.64	111.61
423.848	179.2
424.056	56.32
424.263	105.47
424.471	44.03
424.679	95.23
424.887	25.6
425.094	111.61
425.302	121.85
425.51	109.57
425.718	87.04
425.925	89.09
426.133	-33.79
426.341	271.36
426.548	111.61
426.756	58.37
426.964	62.46
427.171	-11.26
427.379	66.56
427.586	84.99
427.794	50.18
428.001	105.47
428.209	91.13
428.417	166.91
428.624	144.38
428.832	44.03
429.039	117.76
429.247	68.61
429.454	164.86
429.662	179.2
429.869	93.18
430.076	48.13
430.284	82.94
430.491	144.38
430.699	128
430.906	130.05
431.114	144.38
431.321	93.18
431.528	103.42
431.736	44.03
431.943	220.16
432.15	166.91
432.358	195.58
432.565	195.58
432.772	66.56
432.979	152.57
433.187	91.13
433.394	306.17
433.601	66.56
433.808	220.16
434.016	220.16
434.223	289.79
434.43	119.81
434.637	183.29
434.844	336.89
435.052	128
435.259	214.01
435.466	216.06
435.673	189.44
435.88	263.16
436.087	351.23
436.294	218.11
436.501	277.5
436.708	193.53
436.915	279.55
437.122	424.95
437.329	140.29
437.537	347.13
437.743	340.99
437.95	338.94
438.157	312.32
438.364	312.32
438.571	340.99
438.778	377.85
438.985	459.77
439.192	457.72
439.399	414.71
439.606	506.87
439.813	463.86
440.02	621.56
440.227	689.14
440.433	650.23
440.64	529.4
440.847	519.16
441.054	547.83
441.261	695.29
441.467	621.56
441.674	543.74
441.881	744.44
442.088	660.47
442.294	617.46
442.501	711.67
442.708	791.54
442.914	834.55
443.121	822.26
443.328	850.93
443.534	900.08
443.741	910.32
443.948	893.94
444.154	971.76
444.361	1207.28
444.568	973.81
444.774	988.14
444.981	914.42
445.187	1254.38
445.394	1104.88
445.6	1143.79
445.807	1262.57
446.013	1291.24
446.22	1258.48
446.426	1319.92
446.633	1426.41
446.839	1565.67
447.046	1377.26
447.252	1586.15
447.459	1577.96
447.665	1602.54
447.871	1686.5
448.078	1807.33
448.284	1893.35
448.491	2135.01
448.697	2051.04
448.903	2038.75
449.11	2120.67
449.316	2051.04
449.522	2257.89
449.728	2329.56
449.935	2493.4
450.141	2493.4
450.347	2814.93
450.553	2773.97
450.76	2716.63
450.966	2792.41
451.172	2950.1
451.378	3144.66
451.584	3150.8
451.791	3414.99
451.997	3589.07
452.203	3513.29
452.409	3625.93
452.615	3773.38
452.821	3738.57
453.027	3888.07
453.233	4322.24
453.44	4211.65
453.646	4465.6
453.852	4547.51
454.058	4727.74
454.264	4756.41
454.47	5209.01
454.676	5245.87
454.882	5776.3
455.088	5307.31
455.294	5788.58
455.5	6093.73
455.705	6513.56
455.911	6407.07
456.117	6484.89
456.323	6986.65
456.529	6814.62
456.735	7490.45
456.941	7701.39
457.147	7949.19
457.352	8172.42
457.558	8328.06
457.764	8960.89
457.97	9216.88
458.176	9405.3
458.381	9974.63
458.587	9976.68
458.793	10597.21
458.999	10576.73
459.204	12069.7
459.41	12366.66
459.616	12337.99
459.821	13148.98
460.027	13552.43
460.233	14121.77
460.438	14461.73
460.644	14916.38
460.85	15242.01
461.055	15768.34
461.261	16687.87
461.466	16366.34
461.672	16433.93
461.878	18297.58
462.083	18260.71
462.289	18721.51
462.494	19475.16
462.7	19563.22
462.905	19925.71
463.111	21404.35
463.316	22289.07
463.522	22968.99
463.727	23644.82
463.932	24939.14
464.138	25275.01
464.343	26409.58
464.549	26780.26
464.754	28611.15
464.959	29098.56
465.165	29667.9
465.37	29680.19
465.575	29608.51
465.781	31359.52
465.986	32240.15
466.191	31900.19
466.397	32141.85
466.602	31332.9
466.807	33200.65
467.012	33573.38
467.218	34146.81
467.423	34601.46
467.628	35592.67
467.833	37349.83
468.038	36311.51
468.244	35903.96
468.449	37507.52
468.654	37231.05
468.859	36856.27
469.064	37130.7
469.269	36065.75
469.474	36628.95
469.679	37470.66
469.885	36420.05
470.09	37183.94
470.295	36942.28
470.5	36413.91
470.705	36790.73
470.91	35795.42
471.115	35088.87
471.32	35834.33
471.525	35721.69
471.73	34822.64
471.935	34288.12
472.139	33151.49
472.344	33167.88
472.549	33337.86
472.754	32051.73
472.959	31558.17
473.164	30892.58
473.369	30360.11
473.574	31175.2
473.778	30360.11
473.983	29643.32
474.188	29358.66
474.393	27843.16
474.598	28013.14
474.802	27216.48
475.007	26974.82
475.212	26884.71
475.417	25283.2
475.621	25350.78
475.826	25094.79
476.031	24427.15
476.235	24122
476.44	24359.56
476.645	23308.96
476.849	23302.81
477.054	22737.57
477.259	22313.64
477.463	22348.46
477.668	21652.15
477.872	21594.81
478.077	21093.05
478.282	20503.24
478.486	20118.22
478.691	20085.45
478.895	19774.16
479.1	19751.63
479.304	19976.91
479.509	19002.08
479.713	19385.05
479.918	18768.61
480.122	18531.05
480.326	18633.44
480.531	18424.55
480.735	18170.6
480.94	18115.31
481.144	18557.67
481.348	17599.22
481.553	17728.24
481.757	16958.21
481.961	17339.13
482.166	17230.59
482.37	17046.27
482.574	17023.74
482.778	16800.51
482.983	16970.49
483.187	16888.57
483.391	16542.47
483.595	16427.78
483.8	16120.59
484.004	16247.56
484.208	15985.42
484.412	15891.21
484.616	15692.56
484.821	15571.73
485.025	15074.07
485.229	15244.06
485.433	14797.6
485.637	14916.38
485.841	14471.97
486.045	14551.84
486.249	14226.21
486.453	13968.17
486.657	13945.64
486.861	13751.09
487.065	13249.33
487.269	13331.25
487.473	12614.46
487.677	13075.26
487.881	12952.38
488.085	12145.48
488.289	12294.98
488.493	12151.62
488.697	11948.87
488.901	11750.22
489.105	11148.12
489.309	11533.14
489.512	11238.23
489.716	10978.14
489.92	10777.44
490.124	10707.8
490.328	10484.58
490.531	10077.03
490.735	10042.21
490.939	10052.45
491.143	9591.66
491.346	9429.87
491.55	9210.74
491.754	9145.2
491.958	8950.65
492.161	8846.2
492.365	8688.51
492.569	8663.93
492.772	8530.81
492.976	8233.86
493.18	8125.32
493.383	8405.89
493.587	8280.96
493.79	8135.56
493.994	7754.63
494.197	7730.06
494.401	7881.61
494.605	7373.71
494.808	7736.2
495.012	7685
495.215	7627.66
495.419	7555.98
495.622	7340.94
495.825	7277.46
496.029	7250.83
496.232	7459.73
496.436	7246.74
496.639	7467.92
496.843	7152.53
497.046	7263.12
497.249	7439.25
497.453	7408.53
497.656	7332.75
497.859	7152.53
498.063	7240.59
498.266	7449.49
498.469	7048.08
498.673	7058.32
498.876	7295.89
499.079	7216.02
499.282	7277.46
499.485	7703.43
499.689	7504.78
499.892	7705.48
500.095	7633.8
500.298	7642
500.501	7519.12
500.705	7582.6
500.908	7787.4
501.111	7660.43
501.314	7936.9
501.517	7984.01
501.72	8094.6
501.923	8119.17
502.126	8168.32
502.329	8485.76
502.532	8340.35
502.735	8430.46
502.938	8665.98
503.141	8520.57
503.344	8774.52
503.547	8952.7
503.75	9061.24
503.953	8938.36
504.156	9284.47
504.359	9309.04
504.562	9255.79
504.765	9638.76
504.968	9751.4
505.17	9724.78
505.373	9894.76
505.576	10279.78
505.779	10412.9
505.982	10376.03
506.185	10728.28
506.387	10894.17
506.59	11150.17
506.793	11271
506.996	11332.44
507.198	11899.72
507.401	11932.49
507.604	12061.51
507.807	12385.09
508.009	12569.41
508.212	12800.83
508.415	12942.14
508.617	13208.37
508.82	13650.74
509.022	13511.47
509.225	14279.46
509.428	14443.3
509.63	14744.35
509.833	14922.52
510.035	15610.64
510.238	15528.72
510.44	16048.91
510.643	16407.3
510.845	16460.55
511.048	16911.1
511.25	17234.68
511.453	17443.57
511.655	18434.79
511.858	18567.91
512.06	19028.7
512.262	19335.9
512.465	19448.54
512.667	20212.43
512.87	20533.96
513.072	20802.24
513.274	21676.73
513.477	22153.9
513.679	22655.65
513.881	23034.53
514.084	23693.97
514.286	23986.83
514.488	24332.94
514.69	25334.4
514.893	25576.06
515.095	25881.21
515.297	26530.41
515.499	27116.13
515.701	27951.7
515.904	28518.99
516.106	29182.53
516.308	29710.91
516.51	30140.98
516.712	30200.37
516.914	31400.48
517.116	32147.99
517.318	32565.78
517.52	33077.77
517.722	33563.14
517.925	34394.61
518.127	35461.6
518.329	35531.23
518.531	35627.49
518.733	36606.42
518.935	37687.74
519.136	38009.28
519.338	38287.8
519.54	38896.05
519.742	39465.38
519.944	40051.1
520.146	41245.07
520.348	41435.53
520.55	41841.03
520.752	42533.24
520.954	43161.97
521.155	43227.5
521.357	44087.65
521.559	44452.19
521.761	45037.9
521.963	45519.18
522.164	45760.84
522.366	46100.8
522.568	46786.87
522.77	47237.42
522.971	47360.3
523.173	47362.35
523.375	48247.07
523.576	48382.24
523.778	48429.34
523.98	48867.61
524.181	48785.69
524.383	48879.89
524.584	49639.69
524.786	49387.79
524.988	49492.24
525.189	49846.54
525.391	50389.25
525.592	50041.09
525.794	49731.85
525.995	49928.45
526.197	49502.48
526.398	49809.67
526.6	49799.43
526.801	49887.49
527.003	49656.07
527.204	49455.37
527.406	49150.23
527.607	49203.47
527.808	49336.59
528.01	48308.51
528.211	48390.43
528.412	48636.19
528.614	48369.95
528.815	47978.79
529.016	47495.47
529.218	46899.51
529.419	47010.1
529.62	46405.95
529.822	45848.9
530.023	45582.66
530.224	45422.92
530.425	44681.56
530.626	43802.98
530.828	43356.52
531.029	44167.52
531.23	42856.82
531.431	42529.14
531.632	42172.8
531.833	41978.24
532.035	41263.5
532.236	40984.97
532.437	40401.3
532.638	39457.19
532.839	39465.38
533.04	38990.25
533.241	38490.55
533.442	38484.4
533.643	37831.1
533.844	37046.73
534.045	36645.33
534.246	35439.08
534.447	35813.85
534.648	35406.31
534.849	34929.13
535.05	34015.74
535.251	33767.93
535.451	33057.29
535.652	33053.19
535.853	32395.79
536.054	32080.41
536.255	32010.78
536.456	30794.28
536.657	31117.86
536.857	30321.2
537.058	29549.12
537.259	29405.76
537.46	29274.69
537.66	28346.96
537.861	28344.91
538.062	27974.23
538.263	27705.95
538.463	27429.47
538.664	26937.96
538.865	26782.31
539.065	26774.12
539.266	25856.63
539.466	25991.8
539.667	25363.07
539.868	25354.88
540.068	24472.2
540.269	24502.92
540.469	24824.45
540.67	23941.78
540.87	23745.17
541.071	23333.53
541.271	23337.63
541.472	23016.1
541.672	22876.83
541.873	22309.55
542.073	21918.39
542.274	21961.39
542.474	21924.53
542.675	21426.87
542.875	21295.8
543.075	20900.55
543.276	20515.53
543.476	20853.44
543.676	20343.5
543.877	20042.45
544.077	19620.56
544.277	19319.51
544.478	19184.35
544.678	19475.16
544.878	18983.65
545.078	18729.7
545.279	18291.43
545.479	18273
545.679	18166.51
545.879	17840.88
546.079	17883.89
546.28	17306.36
546.48	17056.51
546.68	17158.91
546.88	17009.4
547.08	16608
547.28	16454.4
547.48	16167.69
547.68	16118.54
547.88	15833.87
548.081	15866.64
548.281	15444.76
548.481	15096.6
548.681	15135.51
548.881	14850.85
549.081	14834.46
549.28	14332.71
549.48	14218.02
549.68	14324.52
549.88	13976.36
550.08	13458.23
550.28	13732.65
550.48	13327.16
550.68	13239.09
550.88	13128.5
551.08	12847.93
551.279	12884.8
551.479	12499.78
551.679	12344.13
551.879	12061.51
552.079	12110.66
552.278	11682.64
552.478	11979.59
552.678	11373.39
552.878	11268.95
553.077	11152.21
553.277	10742.62
553.477	10609.5
553.676	10634.08
553.876	10457.95
554.076	10195.81
554.275	10124.13
554.475	9915.24
554.674	9810.79
554.874	9732.97
555.074	9411.44
555.273	9395.06
555.473	9200.5
555.672	8971.13
555.872	8766.33
556.071	8741.75
556.271	8846.2
556.47	8565.63
556.67	8346.5
556.869	8342.4
557.068	7912.33
557.268	8035.21
557.467	7754.63
557.667	7672.71
557.866	7793.55
558.065	7502.73
558.265	7353.23
558.464	7201.68
558.663	7318.42
558.863	6933.4
559.062	7041.94
559.261	6773.66
559.461	6826.9
559.66	6638.49
559.859	6308.77
560.058	6343.58
560.258	6192.03
560.457	6241.18
560.656	6374.3
560.855	5815.21
561.054	5968.8
561.253	5745.58
561.453	5790.63
561.652	5553.07
561.851	5735.34
562.05	5426.09
562.249	5352.37
562.448	5358.51
562.647	5094.32
562.846	5192.62
563.045	5163.95
563.244	4918.2
563.443	5018.55
563.642	4813.75
563.841	4746.17
564.04	4727.74
564.239	4592.57
564.438	4502.46
564.637	4373.44
564.836	4447.16
565.035	4324.29
565.234	4346.81
565.432	4099.01
565.631	4172.74
565.83	3998.66
566.029	4027.33
566.228	4078.53
566.427	4131.78
566.625	3640.26
566.824	3847.11
567.023	3810.25
567.222	3722.18
567.42	3744.71
567.619	3699.66
567.818	3507.15
568.016	3507.15
568.215	3513.29
568.414	3431.37
568.612	3292.11
568.811	3255.25
569.01	3165.14
569.208	3222.48
569.407	3093.46
569.605	3179.47
569.804	3079.12
570.002	3107.79
570.201	2968.53
570.4	3101.65
570.598	2823.12
570.797	2835.41
570.995	2690.01
571.193	2757.59
571.392	2859.99
571.59	2628.57
571.789	2753.49
571.987	2702.29
572.186	2659.29
572.384	2507.74
572.582	2329.56
572.781	2560.98
572.979	2270.17
573.177	2393.05
573.376	2448.35
573.574	2481.11
573.772	2331.61
573.971	2198.49
574.169	2182.11
574.367	2055.14
574.565	2059.23
574.763	2026.47
574.962	2001.89
575.16	1995.75
575.358	1911.78
575.556	1901.54
575.754	1891.3
575.952	1987.55
576.151	1958.88
576.349	1942.5
576.547	1727.46
576.745	1782.76
576.943	1758.18
577.141	1827.81
577.339	1592.3
577.537	1684.45
577.735	1749.99
577.933	1657.83
578.131	1575.91
578.329	1610.73
578.527	1545.19
578.725	1625.06
578.923	1483.75
579.121	1623.02
579.319	1332.2
579.516	1430.51
579.714	1539.05
579.912	1326.06
580.11	1338.35
580.308	1293.29
580.506	1367.02
580.704	1182.7
580.901	1182.7
581.099	1346.54
581.297	1178.61
581.495	1207.28
581.692	1217.52
581.89	1252.33
582.088	1205.23
582.285	1227.76
582.483	1135.6
582.681	1053.68
582.878	1086.45
583.076	1151.98
583.274	1035.25
583.471	1168.37
583.669	990.19
583.866	992.24
584.064	965.62
584.262	920.56
584.459	871.41
584.657	1014.77
584.854	1053.68
585.052	920.56
585.249	943.09
585.447	875.51
585.644	879.6
585.841	943.09
586.039	975.86
586.236	963.57
586.434	928.75
586.631	752.63
586.828	805.88
587.026	805.88
587.223	717.81
587.42	676.85
587.618	719.86
587.815	865.27
588.012	760.82
588.21	709.62
588.407	783.35
588.604	762.87
588.801	787.44
588.999	754.68
589.196	773.11
589.393	615.41
589.59	709.62
589.787	756.72
589.984	646.13
590.182	705.53
590.379	719.86
590.576	629.75
590.773	750.58
590.97	658.42
591.167	676.85
591.364	752.63
591.561	664.57
591.758	779.25
591.955	719.86
592.152	695.29
592.349	576.5
592.546	568.31
592.743	642.04
592.94	582.65
593.137	625.65
593.334	730.1
593.531	707.57
593.727	773.11
593.924	642.04
594.121	697.33
594.318	601.08
594.515	717.81
594.712	814.07
594.908	805.88
595.105	601.08
595.302	721.91
595.499	662.52
595.696	738.29
595.892	695.29
596.089	816.12
596.286	726
596.482	773.11
596.679	752.63
596.876	730.1
597.072	838.64
597.269	824.31
597.466	818.16
597.662	914.42
597.859	816.12
598.055	934.9
598.252	965.62
598.448	992.24
598.645	1074.16
598.841	1037.3
599.038	1209.33
599.234	1246.19
599.431	1229.81
599.627	1242.09
599.824	1262.57
600.02	1262.57
600.217	1336.3
600.413	1448.94
600.609	1485.8
600.806	1717.22
601.002	1565.67
601.198	1448.94
601.395	1676.26
601.591	1733.61
601.787	1913.83
601.984	1838.05
602.18	1897.44
602.376	2106.34
602.572	2167.77
602.769	2182.11
602.965	2204.64
603.161	2442.2
603.357	2436.06
603.553	2552.79
603.75	2544.6
603.946	2640.86
604.142	2687.96
604.338	2814.93
604.534	2917.33
604.73	3097.55
604.926	3064.79
605.122	3214.29
605.318	3267.53
605.514	3388.36
605.71	3568.59
605.906	3707.85
606.102	3552.2
606.298	3912.64
606.494	4084.67
606.69	4101.06
606.886	4172.74
607.082	4279.23
607.278	4434.88
607.474	4527.03
607.67	4725.69
607.866	4711.35
608.062	4971.44
608.257	5071.79
608.453	5106.61
608.649	5364.65
608.845	5362.61
609.041	5575.59
609.236	5835.69
609.432	5870.5
609.628	6192.03
609.824	6556.57
610.019	6435.74
610.215	6460.32
610.411	6728.6
610.606	6808.47
610.802	7109.52
610.998	7254.93
611.193	7525.26
611.389	7441.29
611.584	8039.3
611.78	8129.41
611.976	8412.03
612.171	8676.22
612.367	8952.7
612.562	9042.81
612.758	8979.32
612.953	9350
613.149	9700.2
613.344	9843.56
613.539	10173.28
613.735	10343.27
613.93	10740.57
614.126	10910.55
614.321	11434.83
614.517	11481.94
614.712	11973.45
614.907	12180.29
615.103	12561.22
615.298	12583.74
615.493	13085.5
615.688	13282.1
615.884	13847.34
616.079	13921.07
616.274	14428.96
616.47	14644
616.665	15205.14
616.86	15678.22
617.055	15647.51
617.25	16214.79
617.445	16890.62
617.641	16997.12
617.836	17550.07
618.031	17668.85
618.226	18326.25
618.421	18612.96
618.616	19366.62
618.811	19354.33
619.006	19841.75
619.201	20579.01
619.396	21134.01
619.591	21265.08
619.786	22024.88
619.981	22172.33
620.176	22796.96
620.371	23161.5
620.566	23556.76
620.761	24279.69
620.956	24605.32
621.151	25127.55
621.346	25684.6
621.541	25555.58
621.735	26849.89
621.93	26548.84
622.125	27664.99
622.32	27507.29
622.515	28502.61
622.709	28662.35
622.904	29710.91
623.099	29758.01
623.294	30532.14
623.488	30390.83
623.683	31969.82
623.878	31515.17
624.072	32369.17
624.267	33171.97
624.462	33346.05
624.656	33591.81
624.851	34490.87
625.046	35115.5
625.24	35510.75
625.435	35684.83
625.629	36116.95
625.824	36686.29
626.018	37433.8
626.213	37087.69
626.407	37958.08
626.602	37724.61
626.796	39074.22
626.991	39289.26
627.185	39612.84
627.38	39805.34
627.574	39547.3
627.768	40169.88
627.963	40192.41
628.157	40577.43
628.352	40671.64
628.546	40497.56
628.74	40767.89
628.935	40427.93
629.129	40405.4
629.323	40300.95
629.517	40612.24
629.712	39997.85
629.906	39528.87
630.1	39158.19
630.294	39199.15
630.489	38545.84
630.683	38144.44
630.877	37325.25
631.071	37194.18
631.265	36567.51
631.459	35799.52
631.653	34740.72
631.848	33991.16
632.042	33151.49
632.236	32989.7
632.43	31488.54
632.624	31105.57
632.818	30149.17
633.012	29104.71
633.206	28250.7
633.4	27503.2
633.594	26319.47
633.788	26069.62
633.982	24871.56
634.176	24003.22
634.369	22938.27
634.563	22180.53
634.757	21091.01
634.951	20609.73
635.145	20007.63
635.339	18920.16
635.533	17844.98
635.726	17617.65
635.92	16433.93
636.114	16026.38
636.308	15524.63
636.501	14844.7
636.695	14246.69
636.889	13550.39
637.083	12995.39
637.276	12626.75
637.47	12018.5
637.664	11518.8
637.857	11230.04
638.051	10414.95
638.244	10224.48
638.438	9759.6
638.632	9399.15
638.825	8860.54
639.019	8674.17
639.212	8321.92
639.406	7990.15
639.599	7725.96
639.793	7445.39
639.986	6994.84
640.18	6960.02
640.373	6677.4
640.567	6259.62
640.76	6189.99
640.954	5856.17
641.147	5505.96
641.34	5352.37
641.534	5082.03
641.727	5022.64
641.92	4834.23
642.114	4584.38
642.307	4436.92
642.5	4502.46
642.694	4033.47
642.887	4092.87
643.08	3931.08
643.273	3804.1
643.467	3730.38
643.66	3408.84
643.853	3376.08
644.046	3257.29
644.239	3150.8
644.432	2786.26
644.626	2606.04
644.819	2560.98
645.012	2497.5
645.205	2520.03
645.398	2491.35
645.591	2171.87
645.784	2100.19
645.977	2092
646.17	2020.32
646.363	2032.61
646.556	1911.78
646.749	1797.09
646.942	1754.09
647.135	1764.33
647.328	1551.34
647.521	1721.32
647.714	1487.85
647.907	1498.09
648.099	1256.43
648.292	1360.88
648.485	1356.78
648.678	1213.42
648.871	1213.42
649.064	1145.84
649.256	1086.45
649.449	1035.25
649.642	1033.2
649.835	1043.44
650.027	836.6
650.22	941.04
650.413	852.98
650.605	938.99
650.798	807.92
650.991	842.74
651.183	867.31
651.376	752.63
651.568	910.32
651.761	621.56
651.954	750.58
652.146	617.46
652.339	746.48
652.531	699.38
652.724	588.79
652.916	506.87
653.109	406.52
653.301	566.26
653.494	676.85
653.686	601.08
653.879	584.7
654.071	496.63
654.263	494.58
654.456	406.52
654.648	556.02
654.84	390.14
655.033	394.23
655.225	513.02
655.417	289.79
655.61	547.83
655.802	449.53
655.994	418.81
656.186	293.88
656.379	410.62
656.571	291.84
656.763	314.36
656.955	310.27
657.148	373.75
657.34	412.67
657.532	373.75
657.724	232.44
657.916	365.56
658.108	437.24
658.3	297.98
658.492	328.7
658.684	211.96
658.876	287.74
659.068	205.82
659.26	199.68
659.452	238.59
659.644	209.92
659.836	414.71
660.028	234.49
660.22	242.68
660.412	254.97
660.604	209.92
660.796	230.4
660.988	248.83
661.18	146.43
661.372	302.08
661.563	285.69
661.755	277.5
661.947	140.29
662.139	76.8
662.331	224.25
662.522	224.25
662.714	211.96
662.906	146.43
663.097	144.38
663.289	173.05
663.481	144.38
663.673	199.68
663.864	166.91
664.056	226.3
664.247	103.42
664.439	279.55
664.631	236.54
664.822	269.31
665.014	80.89
665.205	93.18
665.397	121.85
665.588	189.44
665.78	136.19
665.971	166.91
666.163	109.57
666.354	179.2
666.546	78.85
666.737	160.77
666.929	183.29
667.12	89.09
667.311	177.15
667.503	207.87
667.694	201.72
667.885	144.38
668.077	195.58
668.268	68.61
668.459	154.62
668.651	158.72
668.842	232.44
669.033	25.6
669.224	52.22
669.416	304.12
669.607	105.47
669.798	109.57
669.989	191.49
670.18	175.1
670.371	148.48
670.563	46.08
670.754	285.69
670.945	211.96
671.136	234.49
671.327	68.61
671.518	205.82
671.709	312.32
671.9	238.59
672.091	197.63
672.282	103.42
672.473	115.71
672.664	146.43
672.855	203.77
673.046	164.86
673.237	269.31
673.428	130.05
673.619	242.68
673.809	183.29
674	300.03
674.191	242.68
674.382	144.38
674.573	230.4
674.764	177.15
674.954	226.3
675.145	138.24
675.336	111.61
675.527	99.33
675.717	195.58
675.908	173.05
676.099	113.66
676.289	164.86
676.48	80.89
676.671	171.01
676.861	158.72
677.052	171.01
677.243	119.81
677.433	191.49
677.624	277.5
677.814	242.68
678.005	93.18
678.195	318.46
678.386	168.96
678.576	175.1
678.767	95.23
678.957	119.81
679.148	281.6
679.338	334.84
679.529	257.02
679.719	173.05
679.909	269.31
680.1	304.12
680.29	236.54
680.481	166.91
680.671	330.75
680.861	304.12
681.052	287.74
681.242	111.61
681.432	267.26
681.622	222.2
681.813	164.86
682.003	207.87
682.193	230.4
682.383	259.07
682.573	238.59
682.764	224.25
682.954	316.41
683.144	304.12
683.334	232.44
683.524	224.25
683.714	201.72
683.904	287.74
684.094	175.1
684.284	267.26
684.474	383.99
684.664	283.64
684.854	316.41
685.044	203.77
685.234	304.12
685.424	277.5
685.614	312.32
685.804	361.47
685.994	295.93
686.184	304.12
686.374	214.01
686.564	273.4
686.753	254.97
686.943	211.96
687.133	277.5
687.323	259.07
687.513	250.88
687.702	314.36
687.892	181.25
688.082	336.89
688.272	310.27
688.461	297.98
688.651	383.99
688.841	349.18
689.03	205.82
689.22	218.11
689.41	322.56
689.599	297.98
689.789	195.58
689.979	365.56
690.168	273.4
690.358	230.4
690.547	207.87
690.737	310.27
690.926	238.59
691.116	291.84
691.305	379.9
691.495	388.09
691.684	128
691.874	203.77
692.063	238.59
692.252	306.17
692.442	265.21
692.631	128
692.82	316.41
693.01	314.36
693.199	197.63
693.388	232.44
693.578	234.49
693.767	287.74
693.956	271.36
694.146	242.68
694.335	283.64
694.524	228.35
694.713	216.06
694.902	130.05
695.092	283.64
695.281	293.88
695.47	183.29
695.659	218.11
695.848	244.73
696.037	218.11
696.226	302.08
696.415	234.49
696.604	308.22
696.793	283.64
696.982	156.67
697.171	320.51
697.36	183.29
697.549	234.49
697.738	168.96
697.927	154.62
698.116	154.62
698.305	281.6
698.494	277.5
698.683	156.67
698.872	390.14
699.061	160.77
699.25	214.01
699.438	261.12
699.627	197.63
699.816	285.69
700.005	197.63
700.193	209.92
700.382	297.98
700.571	238.59
700.76	265.21
700.948	257.02
701.137	238.59
701.326	349.18
701.514	140.29
701.703	232.44
701.892	207.87
702.08	347.13
702.269	238.59
702.457	226.3
702.646	271.36
702.834	179.2
703.023	222.2
703.212	238.59
703.4	214.01
703.589	242.68
703.777	238.59
703.965	209.92
704.154	261.12
704.342	60.42
704.531	197.63
704.719	236.54
704.907	254.97
705.096	142.33
705.284	123.9
705.472	195.58
705.661	246.78
705.849	273.4
706.037	246.78
706.226	230.4
706.414	261.12
706.602	164.86
706.79	265.21
706.979	136.19
707.167	175.1
707.355	121.85
707.543	220.16
707.731	265.21
707.919	209.92
708.107	175.1
708.296	168.96
708.484	91.13
708.672	209.92
708.86	230.4
709.048	211.96
709.236	142.33
709.424	297.98
709.612	199.68
709.8	142.33
709.988	125.95
710.176	300.03
710.364	363.51
710.551	289.79
710.739	216.06
710.927	156.67
711.115	195.58
711.303	283.64
711.491	275.45
711.679	134.14
711.866	228.35
712.054	207.87
712.242	248.83
712.43	248.83
712.617	121.85
712.805	267.26
712.993	246.78
713.181	195.58
713.368	271.36
713.556	211.96
713.744	142.33
713.931	314.36
714.119	246.78
714.306	287.74
714.494	152.57
714.682	191.49
714.869	232.44
715.057	248.83
715.244	166.91
715.432	279.55
715.619	183.29
715.807	214.01
715.994	177.15
716.182	257.02
716.369	222.2
716.556	269.31
716.744	158.72
716.931	265.21
717.119	244.73
717.306	297.98
717.493	193.53
717.681	234.49
717.868	168.96
718.055	205.82
718.242	185.34
718.43	330.75
718.617	318.46
718.804	242.68
718.991	316.41
719.179	310.27
719.366	295.93
719.553	201.72
719.74	226.3
719.927	234.49
720.114	250.88
720.301	197.63
720.488	189.44
720.676	197.63
720.863	320.51
721.05	367.61
721.237	289.79
721.424	289.79
721.611	297.98
721.798	119.81
721.985	214.01
722.172	295.93
722.358	316.41
722.545	263.16
722.732	316.41
722.919	357.37
723.106	312.32
723.293	279.55
723.48	271.36
723.667	261.12
723.853	304.12
724.04	261.12
724.227	326.65
724.414	214.01
724.6	392.19
724.787	357.37
724.974	361.47
725.161	230.4
725.347	152.57
725.534	300.03
725.72	302.08
725.907	271.36
726.094	312.32
726.28	207.87
726.467	302.08
726.653	193.53
726.84	390.14
727.027	365.56
727.213	287.74
727.4	353.27
727.586	328.7
727.773	257.02
727.959	234.49
728.145	351.23
728.332	252.92
728.518	220.16
728.705	302.08
728.891	277.5
729.077	254.97
729.264	146.43
729.45	324.6
729.636	400.38
729.823	312.32
730.009	261.12
730.195	242.68
730.382	388.09
730.568	269.31
730.754	326.65
730.94	324.6
731.126	263.16
731.313	353.27
731.499	218.11
731.685	330.75
731.871	338.94
732.057	349.18
732.243	330.75
732.429	349.18
732.615	373.75
732.801	338.94
732.987	265.21
733.173	345.08
733.359	228.35
733.545	363.51
733.731	343.03
733.917	375.8
734.103	295.93
734.289	293.88
734.475	248.83
734.661	412.67
734.847	336.89
735.033	316.41
735.219	328.7
735.404	257.02
735.59	226.3
735.776	308.22
735.962	322.56
736.148	392.19
736.333	451.58
736.519	316.41
736.705	279.55
736.89	308.22
737.076	181.25
737.262	275.45
737.447	195.58
737.633	234.49
737.819	328.7
738.004	318.46
738.19	308.22
738.375	359.42
738.561	392.19
738.747	355.32
738.932	254.97
739.118	476.15
739.303	338.94
739.489	375.8
739.674	273.4
739.859	216.06
740.045	320.51
740.23	275.45
740.416	187.39
740.601	254.97
740.786	359.42
740.972	160.77
741.157	297.98
741.342	232.44
741.528	226.3
741.713	328.7
741.898	336.89
742.084	242.68
742.269	246.78
742.454	361.47
742.639	232.44
742.824	279.55
743.01	318.46
743.195	365.56
743.38	351.23
743.565	248.83
743.75	353.27
743.935	265.21
744.12	388.09
744.305	308.22
744.49	259.07
744.675	244.73
744.86	205.82
745.045	416.76
745.23	302.08
745.415	234.49
745.6	338.94
745.785	285.69
745.97	427
746.155	283.64
746.34	326.65
746.525	248.83
746.71	349.18
746.895	177.15
747.079	216.06
747.264	214.01
747.449	377.85
747.634	334.84
747.819	240.64
748.003	287.74
748.188	238.59
748.373	283.64
748.557	199.68
748.742	238.59
748.927	269.31
749.111	150.53
749.296	197.63
749.481	257.02
749.665	306.17
749.85	230.4
750.034	228.35
750.219	267.26
750.404	218.11
750.588	254.97
750.773	181.25
750.957	185.34
751.141	164.86
751.326	324.6
751.51	193.53
751.695	166.91
751.879	154.62
752.064	351.23
752.248	242.68
752.432	312.32
752.617	156.67
752.801	257.02
752.985	148.48
753.17	334.84
753.354	156.67
753.538	197.63
753.722	123.9
753.907	136.19
754.091	154.62
754.275	214.01
754.459	150.53
754.643	162.81
754.828	207.87
755.012	228.35
755.196	87.04
755.38	193.53
755.564	113.66
755.748	109.57
755.932	216.06
756.116	322.56
756.3	191.49
756.484	189.44
756.668	246.78
756.852	35.84
757.036	226.3
757.22	306.17
757.404	121.85
757.588	68.61
757.772	220.16
757.956	125.95
758.14	300.03
758.323	99.33
758.507	283.64
758.691	144.38
758.875	201.72
759.059	259.07
759.242	128
759.426	191.49
759.61	209.92
759.794	125.95
759.977	218.11
760.161	304.12
760.345	234.49
760.528	228.35
760.712	132.09
760.895	158.72
761.079	138.24
761.263	105.47
761.446	66.56
761.63	93.18
761.813	240.64
761.997	48.13
762.18	72.7
762.364	187.39
762.547	-37.89
762.731	130.05
762.914	154.62
763.098	164.86
763.281	87.04
763.464	142.33
763.648	107.52
763.831	101.37
764.015	109.57
764.198	119.81
764.381	107.52
764.564	156.67
764.748	191.49
764.931	111.61
765.114	99.33
765.297	183.29
765.481	76.8
765.664	52.22
765.847	52.22
766.03	275.45
766.213	89.09
766.397	76.8
766.58	3.07
766.763	142.33
766.946	107.52
767.129	103.42
767.312	56.32
767.495	128
767.678	95.23
767.861	99.33
768.044	64.51
768.227	93.18
768.41	123.9
768.593	50.18
768.776	123.9
768.959	78.85
769.142	64.51
769.324	115.71
769.507	74.75
769.69	58.37
769.873	64.51
770.056	338.94
770.239	136.19
770.421	214.01
770.604	74.75
770.787	52.22
770.97	168.96
771.152	-41.98
771.335	89.09
771.518	44.03
771.7	99.33
771.883	140.29
772.066	44.03
772.248	107.52
772.431	232.44
772.613	148.48
772.796	123.9
772.978	107.52
773.161	156.67
773.343	68.61
773.526	33.79
773.708	-50.18
773.891	3.07
774.073	60.42
774.256	29.7
774.438	185.34
774.621	37.89
774.803	101.37
774.985	95.23
775.168	115.71
775.35	-27.65
775.532	140.29
775.715	50.18
775.897	128
776.079	-5.12
776.261	91.13
776.444	119.81
776.626	-5.12
776.808	78.85
776.99	70.65
777.173	93.18
777.355	-56.32
777.537	87.04
777.719	146.43
777.901	-3.07
778.083	95.23
778.265	13.31
778.447	152.57
778.629	-7.17
778.811	111.61
778.993	25.6
779.175	87.04
779.357	41.98
779.539	37.89
779.721	150.53
779.903	105.47
780.085	56.32
780.267	72.7
780.449	25.6
780.631	121.85
780.812	101.37
780.994	25.6
781.176	74.75
781.358	33.79
781.54	-27.65
781.721	109.57
781.903	123.9
782.085	37.89
782.267	82.94
782.448	-9.22
782.63	1.02
782.812	84.99
782.993	146.43
783.175	48.13
783.357	95.23
783.538	46.08
783.72	-1.02
783.901	11.26
784.083	111.61
784.264	37.89
784.446	-64.51
784.627	-101.37
784.809	58.37
784.99	15.36
785.172	140.29
785.353	52.22
785.535	52.22
785.716	-33.79
785.897	23.55
786.079	58.37
786.26	58.37
786.441	62.46
786.623	-97.28
786.804	-33.79
786.985	29.7
787.167	82.94
787.348	7.17
787.529	13.31
787.71	207.87
787.891	97.28
788.073	-48.13
788.254	3.07
788.435	183.29
788.616	91.13
788.797	-82.94
788.978	66.56
789.159	-7.17
789.34	68.61
789.522	-5.12
789.703	37.89
789.884	41.98
790.065	23.55
790.246	136.19
790.427	31.74
790.607	95.23
790.788	173.05
790.969	-52.22
791.15	52.22
791.331	15.36
791.512	97.28
791.693	-68.61
791.874	-33.79
792.054	207.87
792.235	54.27
792.416	-44.03
792.597	-29.7
792.778	121.85
792.958	44.03
793.139	15.36
793.32	3.07
793.5	-21.5
793.681	144.38
793.862	9.22
794.042	-5.12
794.223	-13.31
794.404	-13.31
794.584	-76.8
794.765	41.98
794.945	29.7
795.126	68.61
795.306	132.09
795.487	-60.42
795.667	17.41
795.848	50.18
796.028	-29.7
796.209	31.74
796.389	70.65
796.57	-9.22
796.75	-29.7
796.93	29.7
797.111	29.7
797.291	66.56
797.471	29.7
797.652	15.36
797.832	-13.31
798.012	123.9
798.192	-11.26
798.373	-136.19
798.553	-25.6
798.733	52.22
798.913	-41.98
799.093	-76.8
799.274	5.12
799.454	-13.31
799.634	64.51
799.814	70.65
799.994	19.46
800.174	78.85
800.354	-27.65
800.534	-5.12
800.714	76.8
800.894	-74.75
801.074	-62.46
801.254	-29.7
801.434	144.38
801.614	54.27
801.794	-41.98
801.974	1686.5
802.154	41.98
802.334	64.51
802.514	-19.46
802.693	21.5
802.873	-31.74
803.053	142.33
803.233	-19.46
803.413	-1.02
803.592	-19.46
803.772	-164.86
803.952	-23.55
804.131	-3.07
804.311	95.23
804.491	123.9
804.67	-13.31
804.85	-33.79
805.03	87.04
805.209	125.95
805.389	23.55
805.568	37.89
805.748	29.7
805.928	19.46
806.107	113.66
806.287	66.56
806.466	48.13
806.646	-9.22
806.825	-82.94
807.004	-72.7
807.184	-31.74
807.363	68.61
807.543	48.13
807.722	-29.7
807.901	132.09
808.081	103.42
808.26	-93.18
808.439	1.02
808.619	-19.46
808.798	9.22
808.977	-5.12
809.156	64.51
809.336	15.36
809.515	15.36
809.694	-56.32
809.873	-76.8
810.052	-5.12
810.231	181.25
810.411	37.89
810.59	82.94
810.769	-13.31
810.948	109.57
811.127	-142.33
811.306	-84.99
811.485	35.84
811.664	70.65
811.843	41.98
812.022	-29.7
812.201	-74.75
812.38	-23.55
812.559	7.17
812.737	11.26
812.916	-19.46
813.095	-68.61
813.274	-35.84
813.453	7.17
813.632	82.94
813.811	78.85
813.989	-91.13
814.168	-48.13
814.347	-93.18
814.526	-27.65
814.704	68.61
814.883	78.85
815.062	-74.75
815.24	15.36
815.419	-107.52
815.598	68.61
815.776	-119.81
815.955	-95.23
816.133	-144.38
816.312	-80.89
816.49	-97.28
816.669	15.36
816.847	-35.84
817.026	-48.13
817.204	5.12
817.383	-7.17
817.561	-66.56
817.74	21.5
817.918	-5.12
818.097	-33.79
818.275	-35.84
818.453	15.36
818.632	82.94
818.81	3.07
818.988	-58.37
819.167	-158.72
819.345	-37.89
819.523	-66.56
819.701	23.55
819.879	13.31
820.058	44.03
820.236	-11.26
820.414	52.22
820.592	13.31
820.77	11.26
820.948	-19.46
821.127	-115.71
821.305	7.17
821.483	-15.36
821.661	78.85
821.839	-35.84
822.017	-15.36
822.195	-25.6
822.373	23.55
822.551	-21.5
822.729	78.85
822.907	-46.08
823.085	64.51
823.262	-35.84
823.44	-52.22
823.618	-29.7
823.796	41.98
823.974	-103.42
824.152	-5.12
824.329	-80.89
824.507	-3.07
824.685	-11.26
824.863	37.89
825.04	39.94
825.218	107.52
825.396	25.6
825.574	37.89
825.751	11.26
825.929	93.18
826.107	-68.61
826.284	11.26
826.462	-9.22
826.639	-50.18
826.817	-68.61
826.994	39.94
827.172	-29.7
827.349	89.09
827.527	70.65
827.704	5.12
827.882	82.94
828.059	-5.12
828.237	-21.5
828.414	66.56
828.591	-156.67
828.769	35.84
828.946	-84.99
829.124	37.89
829.301	60.42
829.478	-97.28
829.655	31.74
829.833	-15.36
830.01	-68.61
830.187	13.31
830.364	-17.41
830.542	-68.61
830.719	23.55
830.896	64.51
831.073	37.89
831.25	33.79
831.427	33.79
831.604	-82.94
831.782	-68.61
831.959	1.02
832.136	-113.66
832.313	7.17
832.49	-52.22
832.667	52.22
832.844	-56.32
833.021	76.8
833.198	9.22
833.374	21.5
833.551	64.51
833.728	-52.22
833.905	64.51
834.082	-111.61
834.259	19.46
834.436	93.18
834.612	-105.47
834.789	160.77
834.966	-39.94
835.143	87.04
835.319	-84.99
835.496	27.65
835.673	19.46
835.85	35.84
836.026	9.22
836.203	-11.26
836.38	-72.7
836.556	-78.85
836.733	-62.46
836.909	97.28
837.086	-25.6
837.262	-70.65
837.439	-66.56
837.616	-78.85
837.792	-99.33
837.968	54.27
838.145	-105.47
838.321	-46.08
838.498	17.41
838.674	41.98
838.851	7.17
839.027	-60.42
839.203	9.22
839.38	82.94
839.556	-35.84
839.732	72.7
839.909	68.61
840.085	21.5
840.261	-23.55
840.437	-37.89
840.614	-72.7
840.79	52.22
840.966	58.37
841.142	41.98
841.318	-84.99
841.494	-62.46
841.671	87.04
841.847	-46.08
842.023	-103.42
842.199	44.03
842.375	121.85
842.551	-70.65
842.727	-74.75
842.903	154.62
843.079	3.07
843.255	111.61
843.431	-50.18
843.607	56.32
843.783	-154.62
843.959	-37.89
844.134	56.32
844.31	33.79
844.486	-19.46
844.662	-35.84
844.838	62.46
845.013	-1.02
845.189	23.55
845.365	27.65
845.541	1.02
845.716	3.07
845.892	68.61
846.068	-37.89
846.244	-130.05
846.419	7.17
846.595	-54.27
846.77	-15.36
846.946	29.7
847.122	-25.6
847.297	-25.6
847.473	111.61
847.648	-66.56
847.824	-37.89
847.999	-138.24
848.175	-37.89
848.35	3.07
848.526	-1.02
848.701	72.7
848.876	78.85
849.052	50.18
849.227	-84.99
849.403	-35.84
849.578	-72.7
849.753	27.65
849.929	37.89
850.104	-101.37
850.279	-35.84
850.454	-37.89
850.63	115.71
850.805	-17.41
850.98	-29.7
851.155	-39.94
851.33	-29.7
851.505	-68.61
851.681	97.28
851.856	-74.75
852.031	46.08
852.206	-27.65
852.381	-74.75
852.556	-39.94
852.731	-58.37
852.906	3.07
853.081	-7.17
853.256	105.47
853.431	-7.17
853.606	-46.08
853.781	-60.42
853.956	-105.47
854.131	-3.07
854.305	-25.6
854.48	7.17
854.655	-123.9
854.83	-21.5
855.005	27.65
855.18	48.13
855.354	29.7
855.529	3.07
855.704	-82.94
855.879	60.42
856.053	-7.17
856.228	72.7
856.403	-56.32
856.577	-31.74
856.752	-107.52
856.926	76.8
857.101	13.31
857.276	-66.56
857.45	-39.94
857.625	60.42
857.799	-27.65
857.974	-9.22
858.148	-91.13
858.323	-35.84
858.497	29.7
858.672	-17.41
858.846	-19.46
859.02	-3.07
859.195	-99.33
859.369	13.31
859.543	19.46
859.718	3.07
859.892	-5.12
860.066	-33.79
860.241	-68.61
860.415	-105.47
860.589	44.03
860.763	74.75
860.938	-15.36
861.112	58.37
861.286	-82.94
861.46	13.31
861.634	-101.37
861.808	37.89
861.982	-78.85
862.157	-74.75
862.331	27.65
862.505	-21.5
862.679	-103.42
862.853	-23.55
863.027	-37.89
863.201	117.76
863.375	-13.31
863.549	35.84
863.722	-1.02
863.896	132.09
864.07	-97.28
864.244	-35.84
864.418	52.22
864.592	-39.94
864.766	-29.7
864.939	-23.55
865.113	-33.79
865.287	41.98
865.461	-74.75
865.634	84.99
865.808	109.57
865.982	-31.74
866.156	-13.31
866.329	-105.47
866.503	-3.07
866.676	46.08
866.85	31.74
867.024	-76.8
867.197	-39.94
867.371	19.46
867.544	-3.07
867.718	-70.65
867.891	27.65
868.065	-52.22
868.238	9.22
868.412	91.13
868.585	33.79
868.759	-101.37
868.932	-52.22
869.105	-95.23
869.279	-29.7
869.452	-103.42
869.625	41.98
869.799	-89.09
869.972	-78.85
870.145	-25.6
870.319	33.79
870.492	-70.65
870.665	-27.65
870.838	-78.85
871.011	-99.33
871.185	-35.84
871.358	-68.61
871.531	13.31
871.704	-101.37
871.877	21.5
872.05	-39.94
872.223	-97.28
872.396	29.7
872.569	115.71
872.742	-113.66
872.915	84.99
873.088	13.31
873.261	11.26
873.434	62.46
873.607	-41.98
873.78	123.9
873.953	-166.91
874.126	-44.03
874.299	58.37
874.471	23.55
874.644	-46.08
874.817	44.03
874.99	123.9
875.163	-72.7
875.335	15.36
875.508	-29.7
875.681	109.57
875.853	3.07
876.026	-82.94
876.199	37.89
876.371	-44.03
876.544	-60.42
876.717	-1.02
876.889	-15.36
877.062	-7.17
877.234	-58.37
877.407	-74.75
877.579	-82.94
877.752	-46.08
877.924	74.75
878.097	3.07
878.269	-74.75
878.442	-7.17
878.614	52.22
878.786	25.6
878.959	-29.7
879.131	-17.41
879.303	-80.89
879.476	-13.31
879.648	87.04
879.82	17.41
879.993	-62.46
880.165	-46.08
880.337	-95.23
880.509	-27.65
880.681	-152.57
880.854	-160.77
881.026	9.22
881.198	130.05
881.37	-5.12
881.542	-23.55
881.714	-39.94
881.886	-84.99
882.058	-54.27
882.23	-19.46
882.402	-82.94
882.574	60.42
882.746	13.31
882.918	99.33
883.09	41.98
883.262	-27.65
883.434	35.84
883.606	-128
883.778	13.31
883.95	93.18
884.122	-19.46
884.293	17.41
884.465	-19.46
884.637	11.26
884.809	-87.04
884.98	-17.41
885.152	-19.46
885.324	-3.07
885.496	-117.76
885.667	-35.84
885.839	48.13
886.011	89.09
886.182	-64.51
886.354	21.5
886.525	-7.17
886.697	-27.65
886.869	9.22
887.04	-9.22
887.212	44.03
887.383	134.14
887.555	-60.42
887.726	-93.18
887.897	-105.47
888.069	-70.65
888.24	56.32
888.412	48.13
888.583	-97.28
888.754	-76.8
888.926	-115.71
889.097	-62.46
889.268	-144.38
889.44	-95.23
889.611	-52.22
889.782	-72.7
889.953	-89.09
890.125	46.08
890.296	-41.98
890.467	-84.99
890.638	-109.57
890.809	-60.42
890.98	11.26
891.151	56.32
891.323	50.18
891.494	-52.22
891.665	-25.6
891.836	7.17
892.007	-31.74
892.178	23.55
892.349	23.55
892.52	3.07
892.691	13.31
892.862	-15.36
893.032	-111.61
893.203	-37.89
893.374	39.94
893.545	41.98
893.716	-31.74
893.887	-1.02
894.057	-25.6
894.228	-3.07
894.399	-64.51
894.57	87.04
894.74	27.65
894.911	-11.26
895.082	-7.17
895.253	-25.6
895.423	21.5
895.594	123.9
895.764	37.89
895.935	-82.94
896.106	-5.12
896.276	-48.13
896.447	-9.22
896.617	-52.22
896.788	-115.71
896.958	-84.99
897.129	-39.94
897.299	-119.81
897.47	-5.12
897.64	91.13
897.81	-11.26
897.981	11.26
898.151	-82.94
898.322	74.75
898.492	-13.31
898.662	-128
898.832	-78.85
899.003	-93.18
899.173	-5.12
899.343	-52.22
899.513	-66.56
