Data from USB4F104151__241__11-06-35-213.txt Node

Date: Wed Feb 26 11:06:35 EST 2025
User: louis
Spectrometer: USB4F10415
Trigger mode: 4
Integration Time (sec): 1.000000E-1
Scans to average: 1
Electric dark correction enabled: true
Nonlinearity correction enabled: false
Boxcar width: 0
XAxis mode: Wavelengths
Number of Pixels in Spectrum: 3648
>>>>>Begin Spectral Data<<<<<
178.204	-383.82
178.424	-383.82
178.644	-383.82
178.864	-424.78
179.084	-377.68
179.304	66.73
179.524	-33.62
179.744	-13.14
179.964	74.92
180.184	44.2
180.404	54.44
180.624	-19.29
180.844	-15.19
181.064	-129.88
181.283	31.91
181.503	-117.59
181.723	56.49
181.943	-90.96
182.163	158.89
182.383	-58.2
182.602	95.4
182.822	97.45
183.042	7.34
183.262	72.87
183.482	-27.48
183.701	40.11
183.921	-2.9
184.141	-27.48
184.361	76.97
184.58	103.59
184.8	81.07
185.02	-33.62
185.239	154.79
185.459	50.35
185.679	101.55
185.898	-64.34
186.118	-15.19
186.338	97.45
186.557	95.4
186.777	-103.25
186.997	-64.34
187.216	33.96
187.436	158.89
187.655	64.68
187.875	58.54
188.095	101.55
188.314	122.02
188.534	103.59
188.753	-93.01
188.973	126.12
189.192	173.22
189.412	-50
189.631	31.91
189.851	17.58
190.07	64.68
190.29	-68.44
190.509	-113.49
190.729	25.77
190.948	158.89
191.168	175.27
191.387	13.48
191.607	-31.57
191.826	62.63
192.045	74.92
192.265	13.48
192.484	19.63
192.704	62.63
192.923	-117.59
193.142	158.89
193.362	109.74
193.581	193.7
193.8	38.06
194.02	93.35
194.239	62.63
194.458	165.03
194.678	56.49
194.897	-33.62
195.116	62.63
195.335	72.87
195.555	60.59
195.774	9.39
195.993	146.6
196.212	11.43
196.432	-60.24
196.651	-7
196.87	52.39
197.089	236.71
197.308	74.92
197.528	19.63
197.747	-43.86
197.966	40.11
198.185	124.07
198.404	40.11
198.623	117.93
198.842	126.12
199.062	62.63
199.281	134.31
199.5	25.77
199.719	85.16
199.938	-11.09
200.157	66.73
200.376	185.51
200.595	68.78
200.814	70.83
201.033	76.97
201.252	109.74
201.471	33.96
201.69	42.15
201.909	27.82
202.128	9.39
202.347	33.96
202.566	-17.24
202.785	-7
203.004	-4.95
203.223	197.8
203.442	44.2
203.661	-39.76
203.879	72.87
204.098	144.55
204.317	-47.96
204.536	72.87
204.755	36.01
204.974	101.55
205.193	52.39
205.411	142.5
205.63	158.89
205.849	68.78
206.068	-52.05
206.287	-72.53
206.505	101.55
206.724	44.2
206.943	13.48
207.162	19.63
207.381	101.55
207.599	-33.62
207.818	111.78
208.037	-31.57
208.255	48.3
208.474	56.49
208.693	64.68
208.911	44.2
209.13	91.31
209.349	70.83
209.567	9.39
209.786	111.78
210.005	107.69
210.223	38.06
210.442	-101.2
210.661	17.58
210.879	87.21
211.098	74.92
211.316	21.67
211.535	52.39
211.753	66.73
211.972	99.5
212.191	29.87
212.409	85.16
212.628	15.53
212.846	5.29
213.065	68.78
213.283	62.63
213.502	-7
213.72	91.31
213.938	42.15
214.157	21.67
214.375	81.07
214.594	50.35
214.812	31.91
215.031	64.68
215.249	48.3
215.467	95.4
215.686	-33.62
215.904	64.68
216.122	-72.53
216.341	150.7
216.559	87.21
216.778	97.45
216.996	169.13
217.214	-70.48
217.432	-78.68
217.651	-111.44
217.869	27.82
218.087	89.26
218.306	89.26
218.524	38.06
218.742	56.49
218.96	66.73
219.179	5.29
219.397	33.96
219.615	175.27
219.833	111.78
220.051	15.53
220.27	76.97
220.488	95.4
220.706	103.59
220.924	11.43
221.142	-58.2
221.36	101.55
221.578	107.69
221.796	33.96
222.015	91.31
222.233	56.49
222.451	160.94
222.669	-86.87
222.887	70.83
223.105	29.87
223.323	7.34
223.541	9.39
223.759	109.74
223.977	40.11
224.195	68.78
224.413	72.87
224.631	72.87
224.849	46.25
225.067	222.38
225.285	-31.57
225.503	-7
225.721	-80.72
225.939	11.43
226.157	-7
226.375	228.52
226.592	-23.38
226.81	33.96
227.028	165.03
227.246	103.59
227.464	52.39
227.682	152.74
227.9	87.21
228.117	54.44
228.335	9.39
228.553	42.15
228.771	5.29
228.989	74.92
229.206	70.83
229.424	19.63
229.642	13.48
229.86	-99.16
230.077	148.65
230.295	23.72
230.513	93.35
230.731	70.83
230.948	124.07
231.166	128.17
231.384	70.83
231.601	46.25
231.819	203.94
232.037	7.34
232.254	-47.96
232.472	46.25
232.689	-0.85
232.907	87.21
233.125	1.19
233.342	-23.38
233.56	48.3
233.777	17.58
233.995	-2.9
234.213	119.98
234.43	36.01
234.648	19.63
234.865	38.06
235.083	128.17
235.3	-15.19
235.518	97.45
235.735	124.07
235.953	101.55
236.17	3.24
236.388	76.97
236.605	138.41
236.822	85.16
237.04	126.12
237.257	126.12
237.475	1.19
237.692	-7
237.909	70.83
238.127	-13.14
238.344	85.16
238.562	27.82
238.779	-23.38
238.996	-33.62
239.214	58.54
239.431	93.35
239.648	-4.95
239.865	-41.81
240.083	165.03
240.3	29.87
240.517	-66.39
240.735	13.48
240.952	97.45
241.169	72.87
241.386	72.87
241.603	62.63
241.821	-58.2
242.038	60.59
242.255	101.55
242.472	5.29
242.689	89.26
242.907	-17.24
243.124	27.82
243.341	27.82
243.558	-29.52
243.775	-9.05
243.992	-43.86
244.209	66.73
244.426	173.22
244.643	38.06
244.86	13.48
245.078	68.78
245.295	72.87
245.512	-17.24
245.729	-88.92
245.946	113.83
246.163	21.67
246.38	40.11
246.597	83.11
246.814	-13.14
247.031	-9.05
247.248	-25.43
247.464	136.36
247.681	33.96
247.898	91.31
248.115	62.63
248.332	-2.9
248.549	62.63
248.766	220.33
248.983	95.4
249.2	72.87
249.417	101.55
249.633	-47.96
249.85	19.63
250.067	27.82
250.284	19.63
250.501	27.82
250.717	48.3
250.934	5.29
251.151	-35.67
251.368	23.72
251.585	62.63
251.801	54.44
252.018	-45.91
252.235	79.02
252.451	-68.44
252.668	1.19
252.885	144.55
253.102	148.65
253.318	-58.2
253.535	-19.29
253.752	83.11
253.968	1.19
254.185	-105.3
254.401	68.78
254.618	36.01
254.835	-0.85
255.051	111.78
255.268	109.74
255.484	3.24
255.701	33.96
255.917	70.83
256.134	15.53
256.351	33.96
256.567	-35.67
256.784	56.49
257	-95.06
257.217	117.93
257.433	42.15
257.65	40.11
257.866	138.41
258.082	-13.14
258.299	-29.52
258.515	-7
258.732	33.96
258.948	-21.33
259.165	29.87
259.381	-0.85
259.597	54.44
259.814	11.43
260.03	21.67
260.246	-47.96
260.463	119.98
260.679	66.73
260.895	115.88
261.112	99.5
261.328	11.43
261.544	-41.81
261.761	58.54
261.977	-70.48
262.193	-140.12
262.409	109.74
262.626	23.72
262.842	38.06
263.058	-7
263.274	81.07
263.49	42.15
263.707	83.11
263.923	48.3
264.139	-97.11
264.355	-4.95
264.571	115.88
264.787	85.16
265.004	107.69
265.22	46.25
265.436	-56.15
265.652	19.63
265.868	9.39
266.084	7.34
266.3	13.48
266.516	-31.57
266.732	29.87
266.948	13.48
267.164	-56.15
267.38	46.25
267.596	21.67
267.812	95.4
268.028	66.73
268.244	-45.91
268.46	87.21
268.676	17.58
268.892	21.67
269.108	-54.1
269.324	-27.48
269.54	-4.95
269.756	83.11
269.972	-86.87
270.188	-41.81
270.403	-4.95
270.619	1.19
270.835	27.82
271.051	103.59
271.267	-0.85
271.483	-13.14
271.698	76.97
271.914	72.87
272.13	-31.57
272.346	-21.33
272.562	21.67
272.777	160.94
272.993	25.77
273.209	-62.29
273.425	140.46
273.64	-72.53
273.856	64.68
274.072	5.29
274.287	-21.33
274.503	58.54
274.719	111.78
274.934	-47.96
275.15	-43.86
275.366	9.39
275.581	9.39
275.797	52.39
276.012	91.31
276.228	-76.63
276.444	38.06
276.659	64.68
276.875	-68.44
277.09	134.31
277.306	3.24
277.521	46.25
277.737	31.91
277.952	105.64
278.168	19.63
278.383	5.29
278.599	-23.38
278.814	21.67
279.03	-31.57
279.245	76.97
279.461	85.16
279.676	103.59
279.892	-31.57
280.107	-72.53
280.322	-37.72
280.538	58.54
280.753	-2.9
280.969	-21.33
281.184	-2.9
281.399	119.98
281.615	64.68
281.83	-15.19
282.045	-70.48
282.26	25.77
282.476	-37.72
282.691	89.26
282.906	89.26
283.122	134.31
283.337	-9.05
283.552	150.7
283.767	29.87
283.983	68.78
284.198	-25.43
284.413	119.98
284.628	-0.85
284.843	27.82
285.058	103.59
285.274	-41.81
285.489	-52.05
285.704	95.4
285.919	-52.05
286.134	19.63
286.349	21.67
286.564	101.55
286.779	128.17
286.995	-2.9
287.21	40.11
287.425	122.02
287.64	-21.33
287.855	50.35
288.07	-72.53
288.285	81.07
288.5	89.26
288.715	46.25
288.93	17.58
289.145	-9.05
289.36	66.73
289.575	15.53
289.79	128.17
290.004	-47.96
290.219	146.6
290.434	-27.48
290.649	-7
290.864	-9.05
291.079	-7
291.294	93.35
291.509	136.36
291.724	-23.38
291.938	21.67
292.153	79.02
292.368	52.39
292.583	42.15
292.798	29.87
293.012	1.19
293.227	91.31
293.442	29.87
293.657	105.64
293.871	105.64
294.086	33.96
294.301	199.85
294.516	48.3
294.73	23.72
294.945	-60.24
295.16	-7
295.374	40.11
295.589	54.44
295.804	3.24
296.018	33.96
296.233	144.55
296.447	62.63
296.662	83.11
296.877	79.02
297.091	56.49
297.306	-23.38
297.52	-21.33
297.735	97.45
297.949	1.19
298.164	44.2
298.378	31.91
298.593	-52.05
298.807	-13.14
299.022	-9.05
299.236	115.88
299.451	15.53
299.665	23.72
299.88	81.07
300.094	42.15
300.309	17.58
300.523	9.39
300.737	36.01
300.952	124.07
301.166	42.15
301.381	-39.76
301.595	48.3
301.809	48.3
302.024	-2.9
302.238	21.67
302.452	150.7
302.667	-66.39
302.881	179.37
303.095	132.26
303.309	62.63
303.524	52.39
303.738	-54.1
303.952	-31.57
304.166	89.26
304.381	-82.77
304.595	128.17
304.809	7.34
305.023	-2.9
305.237	-33.62
305.452	52.39
305.666	64.68
305.88	17.58
306.094	140.46
306.308	54.44
306.522	97.45
306.736	21.67
306.95	38.06
307.164	-17.24
307.379	48.3
307.593	66.73
307.807	144.55
308.021	66.73
308.235	70.83
308.449	-2.9
308.663	-2.9
308.877	124.07
309.091	50.35
309.305	9.39
309.519	-56.15
309.733	150.7
309.947	-80.72
310.161	89.26
310.374	99.5
310.588	122.02
310.802	-64.34
311.016	21.67
311.23	64.68
311.444	-70.48
311.658	-0.85
311.872	89.26
312.085	132.26
312.299	87.21
312.513	171.18
312.727	56.49
312.941	-21.33
313.154	122.02
313.368	21.67
313.582	42.15
313.796	36.01
314.009	-9.05
314.223	132.26
314.437	29.87
314.651	64.68
314.864	-23.38
315.078	-9.05
315.292	-29.52
315.505	-35.67
315.719	97.45
315.933	-25.43
316.146	-68.44
316.36	-4.95
316.573	79.02
316.787	115.88
317.001	115.88
317.214	-21.33
317.428	-19.29
317.641	-23.38
317.855	58.54
318.068	52.39
318.282	48.3
318.495	165.03
318.709	105.64
318.922	66.73
319.136	177.32
319.349	126.12
319.563	15.53
319.776	83.11
319.99	-41.81
320.203	148.65
320.417	91.31
320.63	79.02
320.843	169.13
321.057	87.21
321.27	29.87
321.483	81.07
321.697	122.02
321.91	-27.48
322.124	95.4
322.337	56.49
322.55	46.25
322.763	21.67
322.977	21.67
323.19	7.34
323.403	60.59
323.617	128.17
323.83	56.49
324.043	31.91
324.256	3.24
324.469	-62.29
324.683	175.27
324.896	-45.91
325.109	56.49
325.322	-15.19
325.535	124.07
325.748	48.3
325.962	-15.19
326.175	44.2
326.388	89.26
326.601	103.59
326.814	15.53
327.027	25.77
327.24	193.7
327.453	-133.97
327.666	146.6
327.879	134.31
328.092	103.59
328.305	81.07
328.518	-50
328.731	-19.29
328.944	3.24
329.157	68.78
329.37	11.43
329.583	187.56
329.796	134.31
330.009	-72.53
330.222	46.25
330.435	81.07
330.648	44.2
330.861	64.68
331.073	79.02
331.286	113.83
331.499	38.06
331.712	21.67
331.925	52.39
332.138	25.77
332.35	50.35
332.563	23.72
332.776	214.18
332.989	40.11
333.202	-4.95
333.414	21.67
333.627	44.2
333.84	50.35
334.053	87.21
334.265	-43.86
334.478	27.82
334.691	13.48
334.903	62.63
335.116	-43.86
335.329	29.87
335.541	64.68
335.754	185.51
335.966	52.39
336.179	29.87
336.392	13.48
336.604	-39.76
336.817	167.08
337.029	50.35
337.242	52.39
337.454	150.7
337.667	40.11
337.88	76.97
338.092	74.92
338.305	132.26
338.517	-37.72
338.729	74.92
338.942	87.21
339.154	1.19
339.367	-31.57
339.579	-0.85
339.792	11.43
340.004	83.11
340.217	-52.05
340.429	107.69
340.641	-103.25
340.854	-45.91
341.066	27.82
341.278	83.11
341.491	105.64
341.703	138.41
341.915	-66.39
342.128	-4.95
342.34	107.69
342.552	9.39
342.764	38.06
342.977	-52.05
343.189	46.25
343.401	46.25
343.613	-45.91
343.826	54.44
344.038	-43.86
344.25	33.96
344.462	11.43
344.674	115.88
344.886	136.36
345.099	93.35
345.311	48.3
345.523	36.01
345.735	-68.44
345.947	27.82
346.159	70.83
346.371	42.15
346.583	42.15
346.795	183.46
347.007	-27.48
347.219	74.92
347.431	-39.76
347.643	124.07
347.855	33.96
348.067	93.35
348.279	1.19
348.491	52.39
348.703	40.11
348.915	21.67
349.127	-58.2
349.339	-13.14
349.551	-76.63
349.763	72.87
349.975	11.43
350.187	154.79
350.399	126.12
350.61	56.49
350.822	5.29
351.034	50.35
351.246	68.78
351.458	42.15
351.669	62.63
351.881	76.97
352.093	162.98
352.305	99.5
352.517	50.35
352.728	154.79
352.94	70.83
353.152	60.59
353.363	-39.76
353.575	38.06
353.787	158.89
353.999	3.24
354.21	152.74
354.422	-62.29
354.633	50.35
354.845	111.78
355.057	128.17
355.268	62.63
355.48	38.06
355.692	-39.76
355.903	-21.33
356.115	-25.43
356.326	-70.48
356.538	99.5
356.749	83.11
356.961	175.27
357.172	76.97
357.384	-19.29
357.595	214.18
357.807	19.63
358.018	19.63
358.23	-4.95
358.441	148.65
358.653	140.46
358.864	25.77
359.075	23.72
359.287	117.93
359.498	115.88
359.709	62.63
359.921	115.88
360.132	101.55
360.344	113.83
360.555	-56.15
360.766	-21.33
360.977	-13.14
361.189	93.35
361.4	-43.86
361.611	138.41
361.823	99.5
362.034	17.58
362.245	-56.15
362.456	48.3
362.667	40.11
362.879	-60.24
363.09	107.69
363.301	72.87
363.512	64.68
363.723	-19.29
363.935	-15.19
364.146	140.46
364.357	79.02
364.568	58.54
364.779	-82.77
364.99	85.16
365.201	-9.05
365.412	142.5
365.623	-101.2
365.834	72.87
366.045	17.58
366.256	109.74
366.467	72.87
366.678	46.25
366.889	36.01
367.1	68.78
367.311	115.88
367.522	-60.24
367.733	107.69
367.944	72.87
368.155	38.06
368.366	87.21
368.577	99.5
368.788	128.17
368.999	9.39
369.209	83.11
369.42	271.53
369.631	238.76
369.842	74.92
370.053	42.15
370.264	167.08
370.474	-90.96
370.685	81.07
370.896	42.15
371.107	160.94
371.317	23.72
371.528	46.25
371.739	128.17
371.95	19.63
372.16	91.31
372.371	-19.29
372.582	40.11
372.792	66.73
373.003	93.35
373.214	103.59
373.424	87.21
373.635	-0.85
373.846	9.39
374.056	-45.91
374.267	115.88
374.477	124.07
374.688	-99.16
374.898	85.16
375.109	-2.9
375.319	85.16
375.53	44.2
375.74	66.73
375.951	-50
376.161	13.48
376.372	152.74
376.582	19.63
376.793	95.4
377.003	-25.43
377.214	-47.96
377.424	54.44
377.635	5.29
377.845	13.48
378.055	167.08
378.266	7.34
378.476	-35.67
378.686	52.39
378.897	115.88
379.107	95.4
379.317	74.92
379.528	58.54
379.738	95.4
379.948	-82.77
380.158	136.36
380.369	15.53
380.579	21.67
380.789	17.58
380.999	50.35
381.21	93.35
381.42	177.32
381.63	-33.62
381.84	62.63
382.05	99.5
382.261	46.25
382.471	111.78
382.681	-7
382.891	134.31
383.101	101.55
383.311	-11.09
383.521	36.01
383.731	124.07
383.941	76.97
384.151	40.11
384.361	-25.43
384.571	21.67
384.781	25.77
384.991	132.26
385.201	210.09
385.411	142.5
385.621	132.26
385.831	44.2
386.041	72.87
386.251	5.29
386.461	105.64
386.671	-68.44
386.881	7.34
387.091	36.01
387.301	21.67
387.511	-23.38
387.72	27.82
387.93	154.79
388.14	-50
388.35	74.92
388.56	111.78
388.769	140.46
388.979	46.25
389.189	25.77
389.399	62.63
389.609	70.83
389.818	68.78
390.028	99.5
390.238	79.02
390.447	-84.82
390.657	36.01
390.867	-11.09
391.076	-103.25
391.286	11.43
391.496	-11.09
391.705	122.02
391.915	138.41
392.125	50.35
392.334	40.11
392.544	175.27
392.753	7.34
392.963	-39.76
393.172	5.29
393.382	1.19
393.591	154.79
393.801	66.73
394.01	148.65
394.22	3.24
394.429	81.07
394.639	23.72
394.848	60.59
395.058	76.97
395.267	85.16
395.477	72.87
395.686	38.06
395.895	187.56
396.105	167.08
396.314	72.87
396.524	95.4
396.733	11.43
396.942	70.83
397.152	99.5
397.361	138.41
397.57	105.64
397.78	-54.1
397.989	79.02
398.198	177.32
398.407	60.59
398.617	25.77
398.826	74.92
399.035	38.06
399.244	126.12
399.453	150.7
399.663	122.02
399.872	103.59
400.081	11.43
400.29	177.32
400.499	-37.72
400.708	119.98
400.917	-37.72
401.127	44.2
401.336	56.49
401.545	156.84
401.754	109.74
401.963	111.78
402.172	19.63
402.381	11.43
402.59	58.54
402.799	150.7
403.008	160.94
403.217	87.21
403.426	13.48
403.635	-68.44
403.844	-62.29
404.053	11.43
404.262	50.35
404.471	162.98
404.68	72.87
404.888	-29.52
405.097	31.91
405.306	74.92
405.515	50.35
405.724	-82.77
405.933	128.17
406.142	79.02
406.35	70.83
406.559	-33.62
406.768	58.54
406.977	160.94
407.185	87.21
407.394	91.31
407.603	-58.2
407.812	48.3
408.02	122.02
408.229	50.35
408.438	126.12
408.646	-60.24
408.855	21.67
409.064	56.49
409.272	-60.24
409.481	52.39
409.69	95.4
409.898	-60.24
410.107	115.88
410.315	113.83
410.524	-60.24
410.733	1.19
410.941	46.25
411.15	85.16
411.358	52.39
411.567	162.98
411.775	54.44
411.984	29.87
412.192	97.45
412.401	-7
412.609	152.74
412.818	169.13
413.026	-17.24
413.234	50.35
413.443	-4.95
413.651	-15.19
413.86	38.06
414.068	179.37
414.276	148.65
414.485	11.43
414.693	119.98
414.901	187.56
415.11	72.87
415.318	27.82
415.526	31.91
415.734	167.08
415.943	113.83
416.151	122.02
416.359	74.92
416.567	29.87
416.776	91.31
416.984	136.36
417.192	169.13
417.4	-17.24
417.608	44.2
417.817	-121.68
418.025	42.15
418.233	218.28
418.441	99.5
418.649	54.44
418.857	56.49
419.065	146.6
419.273	68.78
419.481	60.59
419.689	79.02
419.897	50.35
420.105	-25.43
420.313	146.6
420.521	105.64
420.729	187.56
420.937	7.34
421.145	1.19
421.353	165.03
421.561	122.02
421.769	103.59
421.977	9.39
422.185	156.84
422.393	38.06
422.601	183.46
422.809	85.16
423.017	91.31
423.224	54.44
423.432	124.07
423.64	72.87
423.848	146.6
424.056	-68.44
424.263	107.69
424.471	60.59
424.679	107.69
424.887	-27.48
425.094	76.97
425.302	70.83
425.51	103.59
425.718	111.78
425.925	70.83
426.133	33.96
426.341	246.95
426.548	103.59
426.756	13.48
426.964	68.78
427.171	31.91
427.379	89.26
427.586	119.98
427.794	140.46
428.001	154.79
428.209	216.23
428.417	230.57
428.624	175.27
428.832	177.32
429.039	97.45
429.247	58.54
429.454	191.66
429.662	224.42
429.869	189.61
430.076	105.64
430.284	175.27
430.491	226.47
430.699	218.28
430.906	203.94
431.114	109.74
431.321	136.36
431.528	111.78
431.736	117.93
431.943	126.12
432.15	113.83
432.358	197.8
432.565	236.71
432.772	66.73
432.979	201.9
433.187	136.36
433.394	289.96
433.601	101.55
433.808	246.95
434.016	275.62
434.223	253.09
434.43	222.38
434.637	328.87
434.844	214.18
435.052	214.18
435.259	259.24
435.466	249
435.673	279.72
435.88	259.24
436.087	367.78
436.294	259.24
436.501	332.97
436.708	312.49
436.915	410.79
437.122	400.55
437.329	285.86
437.537	390.31
437.743	382.12
437.95	484.52
438.157	482.47
438.364	396.45
438.571	365.73
438.778	410.79
438.985	459.94
439.192	527.52
439.399	478.37
439.606	492.71
439.813	605.35
440.02	662.69
440.227	683.17
440.433	607.39
440.64	627.87
440.847	492.71
441.054	715.94
441.261	769.18
441.467	668.83
441.674	693.41
441.881	775.33
442.088	736.42
442.294	826.53
442.501	851.1
442.708	890.01
442.914	849.05
443.121	976.03
443.328	955.55
443.534	1076.38
443.741	1100.95
443.948	994.46
444.154	1049.75
444.361	1359
444.568	1123.48
444.774	1150.11
444.981	1137.82
445.187	1346.71
445.394	1350.81
445.6	1356.95
445.807	1510.55
446.013	1379.48
446.22	1442.96
446.426	1617.04
446.633	1623.19
446.839	1815.69
447.046	1643.67
447.252	1922.19
447.459	1879.18
447.665	1854.61
447.871	2051.21
448.078	2260.1
448.284	2163.85
448.491	2139.27
448.697	2503.81
448.903	2444.42
449.11	2501.76
449.316	2397.32
449.522	2866.3
449.728	2897.02
449.935	3050.62
450.141	3036.28
450.347	3148.92
450.553	3089.53
450.76	3187.83
450.966	3318.9
451.172	3482.74
451.378	3654.77
451.584	3701.87
451.791	3923.05
451.997	4009.07
452.203	4258.92
452.409	4385.9
452.615	4449.38
452.821	4473.96
453.027	4576.36
453.233	5002.33
453.44	4916.32
453.646	5188.7
453.852	5235.8
454.058	5631.06
454.264	5753.94
454.47	6267.98
454.676	6149.2
454.882	6743.11
455.088	6288.46
455.294	6800.45
455.5	7210.04
455.705	7709.75
455.911	7664.69
456.117	7707.7
456.323	8033.33
456.529	8129.58
456.735	8924.19
456.941	9122.85
457.147	9421.85
457.352	9675.8
457.558	9937.94
457.764	10488.84
457.97	10738.69
458.176	11238.4
458.381	11940.85
458.587	12125.17
458.793	12680.17
458.999	12669.93
459.204	14216.15
459.41	14726.09
459.616	14439.37
459.821	15203.27
460.027	16108.47
460.233	17001.38
460.438	16806.83
460.644	18025.37
460.85	18461.58
461.055	18744.2
461.261	19839.87
461.466	19245.96
461.672	19663.74
461.878	21957.47
462.083	21775.2
462.289	22199.13
462.494	23073.61
462.7	23233.35
462.905	23423.81
463.111	25537.32
463.316	26553.11
463.522	27116.3
463.727	28082.94
463.932	29055.73
464.138	30319.32
464.343	31132.37
464.549	31281.87
464.754	33817.25
464.959	34521.76
465.165	35433.1
465.37	34894.49
465.575	34724.5
465.781	36919.93
465.986	38330.98
466.191	37595.76
466.397	38195.81
466.602	37390.96
466.807	39170.64
467.012	39737.93
467.218	40538.69
467.423	40692.29
467.628	41830.96
467.833	44067.34
468.038	42928.67
468.244	42551.84
468.449	45117.95
468.654	43600.4
468.859	43536.91
469.064	43549.2
469.269	42578.46
469.474	42953.24
469.679	44001.8
469.885	43031.07
470.09	43645.46
470.295	44102.15
470.5	42664.48
470.705	42842.65
470.91	41751.09
471.115	41335.35
471.32	42388
471.525	42111.53
471.73	40548.93
471.935	40532.54
472.139	38951.51
472.344	39316.05
472.549	38859.35
472.754	38210.15
472.959	37073.52
473.164	36065.92
473.369	35371.66
473.574	36383.36
473.778	36113.03
473.983	35023.51
474.188	34775.7
474.393	32893.62
474.598	32629.43
474.802	32348.86
475.007	31460.04
475.212	31578.82
475.417	30282.46
475.621	29788.9
475.826	29502.18
476.031	28852.98
476.235	28076.8
476.44	28068.61
476.645	27546.37
476.849	27134.73
477.054	26829.59
477.259	26239.77
477.463	26002.21
477.668	25426.73
477.872	25391.91
478.077	25058.09
478.282	24296.25
478.486	23923.52
478.691	23827.26
478.895	23446.34
479.1	23341.89
479.304	22985.55
479.509	22285.14
479.713	22885.2
479.918	22141.78
480.122	21844.83
480.326	22016.86
480.531	22023
480.735	21406.56
480.94	21246.82
481.144	22066.01
481.348	20902.76
481.553	20810.61
481.757	20259.7
481.961	20691.82
482.166	20444.02
482.37	20167.54
482.574	20032.38
482.778	19778.43
482.983	20020.09
483.187	19909.5
483.391	19960.7
483.595	19409.79
483.8	18928.52
484.004	19239.81
484.208	19297.16
484.412	18967.43
484.616	18848.65
484.821	18570.13
485.025	17820.57
485.229	18023.32
485.433	17433.5
485.637	17746.84
485.841	17349.54
486.045	17001.38
486.249	17005.48
486.453	16552.88
486.657	16335.79
486.861	16151.48
487.065	15834.04
487.269	15897.53
487.473	15252.42
487.677	15543.23
487.881	15387.58
488.085	14713.8
488.289	14674.89
488.493	14234.58
488.697	14195.67
488.901	13929.43
489.105	13571.04
489.309	13468.64
489.512	13304.8
489.716	13011.94
489.92	12481.52
490.124	12600.3
490.328	12420.08
490.531	11979.76
490.735	11940.85
490.939	11723.77
491.143	11305.98
491.346	11344.89
491.55	11342.85
491.754	11246.59
491.958	10933.25
492.161	10687.5
492.365	10540.04
492.569	10279.95
492.772	10310.67
492.976	10130.45
493.18	10036.24
493.383	9722.9
493.587	9733.14
493.79	9729.05
493.994	9491.48
494.197	9356.32
494.401	9350.17
494.605	9233.44
494.808	9196.57
495.012	9036.83
495.215	9200.67
495.419	9067.55
495.622	8893.47
495.825	8907.81
496.029	8660.01
496.232	8936.48
496.436	8606.76
496.639	8952.87
496.843	8590.38
497.046	8793.12
497.249	8897.57
497.453	8674.34
497.656	8905.76
497.859	8944.67
498.063	8797.22
498.266	8799.27
498.469	8832.04
498.673	8793.12
498.876	8948.77
499.079	8950.82
499.282	8901.67
499.485	9368.6
499.689	9063.46
499.892	9079.84
500.095	9165.85
500.298	9298.97
500.501	9102.37
500.705	9370.65
500.908	9608.22
501.111	9581.59
501.314	9890.84
501.517	9962.51
501.72	9772.05
501.923	9872.4
502.126	10003.47
502.329	10433.55
502.532	10417.16
502.735	10628.1
502.938	10710.02
503.141	10718.22
503.344	10900.48
503.547	10966.02
503.75	10980.36
503.953	11033.6
504.156	11547.64
504.359	11613.18
504.562	11971.57
504.765	11924.47
504.968	12360.69
505.17	12342.25
505.373	12540.91
505.576	12628.97
505.779	12866.53
505.982	13054.95
506.185	13300.7
506.387	13495.26
506.59	13835.22
506.793	14007.25
506.996	14279.63
507.198	14769.1
507.401	14681.03
507.604	15082.44
507.807	15469.5
508.009	15530.94
508.212	16100.28
508.415	16319.41
508.617	16528.3
508.82	16950.18
509.022	16888.74
509.225	17986.46
509.428	17853.34
509.63	18553.74
509.833	18418.58
510.035	19446.66
510.238	19622.78
510.44	20011.9
510.643	20423.54
510.845	20970.35
511.048	21146.47
511.25	21726.05
511.453	22276.95
511.655	23040.84
511.858	23305.03
512.06	23624.51
512.262	24111.93
512.465	24159.03
512.667	25019.18
512.87	26057.5
513.072	26176.28
513.274	27226.89
513.477	27425.54
513.679	28367.61
513.881	28609.27
514.084	29319.92
514.286	29899.49
514.488	30382.81
514.69	31724.23
514.893	31875.78
515.095	32297.66
515.297	33430.19
515.499	33551.02
515.701	34515.61
515.904	35392.14
516.106	35809.93
516.308	36680.31
516.51	37562.99
516.712	37829.23
516.914	38627.93
517.116	39705.16
517.318	39995.98
517.52	40864.32
517.722	41040.44
517.925	42207.78
518.127	43293.21
518.329	43973.13
518.531	44165.64
518.733	45347.32
518.935	46082.54
519.136	46324.2
519.338	47450.58
519.54	47698.39
519.742	48886.21
519.944	49056.19
520.146	50753.96
520.348	50493.86
520.55	50764.2
520.752	51980.69
520.954	52541.83
521.155	52783.49
521.357	53584.25
521.559	54020.47
521.761	54942.05
521.963	54770.02
522.164	55497.05
522.366	55736.66
522.568	56488.27
522.77	56512.84
522.971	57413.95
523.173	57186.63
523.375	57715
523.576	57712.95
523.778	58263.86
523.98	58624.3
524.181	59169.06
524.383	58767.66
524.584	59255.07
524.786	59234.59
524.988	58417.46
525.189	59339.04
525.391	59275.55
525.592	59611.42
525.794	59541.79
525.995	59210.02
526.197	59625.76
526.398	59494.69
526.6	59380
526.801	59482.4
527.003	59259.17
527.204	58980.65
527.406	58855.72
527.607	58435.89
527.808	58693.93
528.01	57092.42
528.211	57688.38
528.412	58050.87
528.614	57000.26
528.815	56645.96
529.016	57014.6
529.218	55757.14
529.419	55056.74
529.62	54417.77
529.822	54323.57
530.023	53698.94
530.224	53277.05
530.425	52834.69
530.626	51792.28
530.828	51722.65
531.029	51669.4
531.23	50545.06
531.431	50108.85
531.632	49889.71
531.833	49177.02
532.035	48851.39
532.236	47735.25
532.437	47991.25
532.638	46471.65
532.839	46529
533.04	45810.16
533.241	44720.64
533.442	45292.02
533.643	43936.27
533.844	43426.32
534.045	43112.98
534.246	41984.55
534.447	41972.27
534.648	40935.99
534.849	40868.41
535.05	39610.96
535.251	39815.76
535.451	38976.09
535.652	38670.94
535.853	38054.5
536.054	37769.83
536.255	37386.86
536.456	36063.88
536.657	36553.34
536.857	35646.09
537.058	34681.5
537.259	34673.31
537.46	34433.69
537.66	33338.03
537.861	33247.92
538.062	32938.68
538.263	31992.51
538.463	31836.87
538.664	31427.28
538.865	31290.06
539.065	30915.28
539.266	30071.52
539.466	30200.54
539.667	29260.52
539.868	29641.45
540.068	29352.68
540.269	28457.72
540.469	28275.45
540.67	27962.11
540.87	27618.05
541.071	27583.24
541.271	27357.96
541.472	26800.91
541.672	26524.44
541.873	25932.57
542.073	25762.59
542.274	25660.2
542.474	25205.55
542.675	24900.4
542.875	24660.79
543.075	24417.08
543.276	23860.03
543.476	24013.63
543.676	23475.01
543.877	23337.8
544.077	22897.49
544.277	22670.16
544.478	22420.31
544.678	22471.51
544.878	21998.43
545.078	21674.85
545.279	21625.7
545.479	21328.74
545.679	20732.78
545.879	20554.61
546.079	20468.59
546.28	20315
546.48	19954.55
546.68	20329.33
546.88	19866.49
547.08	19137.41
547.28	18985.86
547.48	18721.68
547.68	18846.6
547.88	18367.38
548.081	18445.2
548.281	17849.24
548.481	17443.74
548.681	17611.68
548.881	17398.69
549.081	17241
549.28	16796.59
549.48	16630.7
549.68	16434.1
549.88	16307.12
550.08	15659.96
550.28	15918.01
550.48	15498.17
550.68	15457.21
550.88	14795.72
551.08	14963.65
551.279	14910.41
551.479	14207.95
551.679	14500.81
551.879	14128.08
552.079	13894.61
552.278	13583.32
552.478	13511.64
552.678	13339.62
552.878	13106.15
553.077	12794.86
553.277	12495.85
553.477	12706.79
553.676	12368.88
553.876	12178.42
554.076	11838.45
554.275	11752.44
554.475	11596.79
554.674	11521.02
554.874	11164.67
555.074	10642.44
555.273	10759.17
555.473	10644.49
555.672	10474.51
555.872	10355.72
556.071	10177.55
556.271	10134.54
556.47	9677.85
556.67	9786.39
556.869	9444.38
557.068	9294.88
557.268	9194.53
557.467	8920.1
557.667	8942.63
557.866	8883.24
558.065	8647.72
558.265	8475.69
558.464	8367.15
558.663	8277.04
558.863	7992.37
559.062	8115.25
559.261	7875.63
559.461	7916.59
559.66	7623.73
559.859	7384.12
560.058	7386.17
560.258	7142.46
560.457	7251
560.656	7068.73
560.855	6966.34
561.054	6908.99
561.253	6827.07
561.453	6734.92
561.652	6607.94
561.851	6460.49
562.05	6186.06
562.249	5985.36
562.448	6196.3
562.647	5928.02
562.846	5907.54
563.045	5981.26
563.244	5747.79
563.443	5815.38
563.642	5686.36
563.841	5524.57
564.04	5499.99
564.239	5465.18
564.438	5401.69
564.637	5121.12
564.836	4969.57
565.035	5047.39
565.234	4879.46
565.432	4926.56
565.631	4852.83
565.83	4811.87
566.029	4783.2
566.228	4648.04
566.427	4580.45
566.625	4602.98
566.824	4494.44
567.023	4654.18
567.222	4263.02
567.42	4142.19
567.619	4256.87
567.818	4179.05
568.016	4291.69
568.215	3955.82
568.414	4021.36
568.612	4011.12
568.811	3957.87
569.01	3816.56
569.208	3781.74
569.407	3787.89
569.605	3705.97
569.804	3738.74
570.002	3667.06
570.201	3505.27
570.4	3558.52
570.598	3294.33
570.797	3331.19
570.995	3398.77
571.193	3359.86
571.392	3337.34
571.59	3214.46
571.789	3140.73
571.987	3120.25
572.186	3157.11
572.384	3128.44
572.582	2886.78
572.781	3083.39
572.979	2827.39
573.177	2765.95
573.376	2815.1
573.574	2765.95
573.772	2692.23
573.971	2671.75
574.169	2419.85
574.367	2651.27
574.565	2499.72
574.763	2471.04
574.962	2469
575.16	2409.61
575.358	2430.09
575.556	2385.03
575.754	2260.1
575.952	2294.92
576.151	2251.91
576.349	2247.82
576.547	2077.83
576.745	2137.23
576.943	2133.13
577.141	2016.4
577.339	2112.65
577.537	2049.16
577.735	2092.17
577.933	2002.06
578.131	1893.52
578.329	2010.25
578.527	1889.42
578.725	1887.37
578.923	1803.41
579.121	1827.98
579.319	1694.86
579.516	1766.54
579.714	1909.9
579.912	1735.82
580.11	1578.13
580.308	1635.47
580.506	1457.3
580.704	1504.4
580.901	1545.36
581.099	1645.71
581.297	1420.44
581.495	1623.19
581.692	1399.96
581.89	1621.14
582.088	1473.68
582.285	1549.46
582.483	1340.57
582.681	1430.68
582.878	1354.9
583.076	1381.53
583.274	1264.79
583.471	1387.67
583.669	1283.22
583.866	1164.44
584.064	1199.26
584.262	1088.67
584.459	1264.79
584.657	1213.59
584.854	1209.5
585.052	1160.34
585.249	1129.63
585.447	1162.39
585.644	1041.56
585.841	1160.34
586.039	1148.06
586.236	1096.86
586.434	984.22
586.631	1072.28
586.828	998.56
587.026	1029.27
587.223	930.97
587.42	949.4
587.618	1105.05
587.815	1035.42
588.012	949.4
588.21	963.74
588.407	990.36
588.604	998.56
588.801	910.49
588.999	883.87
589.196	945.31
589.393	836.77
589.59	855.2
589.787	847.01
589.984	984.22
590.182	875.68
590.379	789.66
590.576	855.2
590.773	883.87
590.97	887.97
591.167	906.4
591.364	871.58
591.561	781.47
591.758	894.11
591.955	875.68
592.152	822.43
592.349	736.42
592.546	732.32
592.743	732.32
592.94	728.22
593.137	828.57
593.334	912.54
593.531	871.58
593.727	853.15
593.924	851.1
594.121	885.92
594.318	824.48
594.515	918.68
594.712	869.53
594.908	1037.47
595.105	758.94
595.302	863.39
595.499	863.39
595.696	1105.05
595.892	898.2
596.089	1023.13
596.286	892.06
596.482	1076.38
596.679	973.98
596.876	930.97
597.072	1049.75
597.269	1012.89
597.466	1096.86
597.662	1146.01
597.859	971.93
598.055	1117.34
598.252	1160.34
598.448	1279.13
598.645	1225.88
598.841	1363.09
599.038	1502.36
599.234	1463.44
599.431	1494.16
599.627	1508.5
599.824	1641.62
600.02	1578.13
600.217	1631.38
600.413	1731.73
600.609	1864.85
600.806	2176.14
601.002	1983.63
601.198	2022.54
601.395	2225.29
601.591	2194.57
601.787	2231.43
601.984	2512
602.18	2344.07
602.376	2516.1
602.572	2700.42
602.769	2765.95
602.965	2927.74
603.161	2915.45
603.357	3058.81
603.553	3185.79
603.75	3136.63
603.946	3294.33
604.142	3533.94
604.338	3628.15
604.534	3587.19
604.73	3787.89
604.926	3894.38
605.122	4066.41
605.318	4062.32
605.514	4265.07
605.71	4361.32
605.906	4525.16
606.102	4766.82
606.298	4985.95
606.494	5067.87
606.69	5200.99
606.886	5387.35
607.082	5456.98
607.278	5708.88
607.474	5770.32
607.67	6052.94
607.866	5944.4
608.062	6423.62
608.257	6642.76
608.453	6581.32
608.649	6960.19
608.845	6947.9
609.041	7117.89
609.236	7414.84
609.432	7515.19
609.628	7828.53
609.824	7930.93
610.019	8170.54
610.215	8477.74
610.411	8731.69
610.606	8727.59
610.802	8924.19
610.998	9139.23
611.193	9495.58
611.389	9716.76
611.584	10247.18
611.78	10116.11
611.976	10359.82
612.171	11088.9
612.367	11265.02
612.562	11488.25
612.758	11465.72
612.953	11777.01
613.149	12555.24
613.344	12557.29
613.539	13294.56
613.735	13362.14
613.93	13904.85
614.126	13802.46
614.321	14558.16
614.517	14879.69
614.712	15127.49
614.907	15475.65
615.103	15791.03
615.298	16319.41
615.493	16886.7
615.688	17171.36
615.884	18008.98
616.079	17904.54
616.274	18453.39
616.47	19028.87
616.665	19676.03
616.86	19809.15
617.055	20521.84
617.25	20874.09
617.445	21750.62
617.641	21853.02
617.836	22711.12
618.031	22645.59
618.226	23780.16
618.421	24077.12
618.616	24830.77
618.811	25338.66
619.006	26188.57
619.201	26264.35
619.396	27063.05
619.591	27355.91
619.786	28386.04
619.981	28500.73
620.176	29248.24
620.371	29874.91
620.566	30628.57
620.761	31222.48
620.956	32123.58
621.151	32377.53
621.346	33020.59
621.541	33227.44
621.735	34562.72
621.93	34488.99
622.125	35173.01
622.32	36113.03
622.515	36917.88
622.709	37388.91
622.904	38273.63
623.099	38867.55
623.294	39791.18
623.488	39742.03
623.683	40809.02
623.878	40768.06
624.072	42080.81
624.267	42734.11
624.462	43153.94
624.656	43452.95
624.851	44935.68
625.046	45224.44
625.24	45572.6
625.435	46299.62
625.629	46893.54
625.824	47204.83
626.018	48073.17
626.213	47892.94
626.407	49127.87
626.602	49342.91
626.796	50231.72
626.991	50528.68
627.185	50205.1
627.38	50973.09
627.574	51386.78
627.768	51384.73
627.963	51976.59
628.157	51607.96
628.352	52181.39
628.546	51939.73
628.74	52271.5
628.935	51759.51
629.129	52023.7
629.323	51552.66
629.517	51628.44
629.712	51202.46
629.906	50637.22
630.1	50307.5
630.294	49945.01
630.489	49619.38
630.683	48916.93
630.877	47548.89
631.071	46991.84
631.265	46436.84
631.459	45462
631.653	44175.88
631.848	43825.68
632.042	42211.88
632.236	41724.46
632.43	40237.64
632.624	39121.49
632.818	38171.24
633.012	36874.87
633.206	35613.32
633.4	34783.9
633.594	33346.22
633.788	32490.17
633.982	31107.79
634.176	30407.39
634.369	28996.34
634.563	28279.55
634.757	26845.97
634.951	26186.52
635.145	25250.6
635.339	24038.2
635.533	23141.19
635.726	22268.76
635.92	21003.11
636.114	20534.13
636.308	19469.19
636.501	18881.42
636.695	18158.49
636.889	17310.63
637.083	16626.6
637.276	15774.65
637.47	15262.66
637.664	14627.79
637.857	14091.22
638.051	13554.65
638.244	12825.57
638.438	12252.14
638.632	11998.2
638.825	11351.04
639.019	10916.87
639.212	10503.18
639.406	10095.63
639.599	9960.47
639.793	9321.5
639.986	8999.97
640.18	8639.53
640.373	8166.45
640.567	7957.55
640.76	7681.08
640.954	7390.27
641.147	7132.22
641.34	6792.26
641.534	6536.26
641.727	6321.23
641.92	6083.66
642.114	5930.06
642.307	5704.79
642.5	5514.33
642.694	5119.07
642.887	5102.68
643.08	4818.02
643.273	4785.25
643.467	4349.03
643.66	4101.23
643.853	4113.52
644.046	3904.62
644.239	3814.51
644.432	3556.47
644.626	3554.42
644.819	3478.65
645.012	3273.85
645.205	3282.04
645.398	3189.88
645.591	3040.38
645.784	2954.37
645.977	2696.32
646.17	2626.69
646.363	2335.88
646.556	2327.69
646.749	2346.12
646.942	2266.25
647.135	2188.43
647.328	1893.52
647.521	1979.53
647.714	1832.08
647.907	1787.02
648.099	1690.77
648.292	1766.54
648.485	1682.58
648.678	1561.75
648.871	1508.5
649.064	1414.29
649.256	1313.94
649.449	1369.24
649.642	1348.76
649.835	1170.58
650.027	1242.26
650.22	1330.33
650.413	1109.15
650.605	1078.43
650.798	1045.66
650.991	965.79
651.183	1072.28
651.376	963.74
651.568	1006.75
651.761	939.16
651.954	965.79
652.146	877.73
652.339	836.77
652.531	900.25
652.724	746.66
652.916	666.78
653.109	605.35
653.301	752.8
653.494	715.94
653.686	726.18
653.879	709.79
654.071	636.06
654.263	617.63
654.456	527.52
654.648	699.55
654.84	674.98
655.033	496.8
655.225	597.15
655.417	435.36
655.61	627.87
655.802	564.39
655.994	652.45
656.186	400.55
656.379	474.28
656.571	353.45
656.763	445.6
656.955	435.36
657.148	398.5
657.34	480.42
657.532	392.36
657.724	451.75
657.916	498.85
658.108	466.08
658.3	367.78
658.492	365.73
658.684	283.81
658.876	388.26
659.068	259.24
659.26	246.95
659.452	203.94
659.644	275.62
659.836	429.22
660.028	308.39
660.22	189.61
660.412	314.53
660.604	337.06
660.796	289.96
660.988	349.35
661.18	238.76
661.372	269.48
661.563	160.94
661.755	244.9
661.947	134.31
662.139	220.33
662.331	261.29
662.522	189.61
662.714	122.02
662.906	167.08
663.097	148.65
663.289	175.27
663.481	48.3
663.673	185.51
663.864	246.95
664.056	183.46
664.247	99.5
664.439	224.42
664.631	226.47
664.822	251.05
665.014	210.09
665.205	187.56
665.397	128.17
665.588	236.71
665.78	246.95
665.971	232.62
666.163	208.04
666.354	267.43
666.546	36.01
666.737	189.61
666.929	97.45
667.12	140.46
667.311	191.66
667.503	134.31
667.694	167.08
667.885	193.7
668.077	189.61
668.268	76.97
668.459	156.84
668.651	218.28
668.842	154.79
669.033	79.02
669.224	36.01
669.416	326.82
669.607	154.79
669.798	134.31
669.989	244.9
670.18	169.13
670.371	181.42
670.563	99.5
670.754	173.22
670.945	195.75
671.136	226.47
671.327	117.93
671.518	234.66
671.709	251.05
671.9	259.24
672.091	177.32
672.282	130.22
672.473	122.02
672.664	109.74
672.855	179.37
673.046	136.36
673.237	126.12
673.428	210.09
673.619	195.75
673.809	136.36
674	222.38
674.191	187.56
674.382	72.87
674.573	158.89
674.764	162.98
674.954	156.84
675.145	142.5
675.336	70.83
675.527	117.93
675.717	113.83
675.908	199.85
676.099	148.65
676.289	113.83
676.48	58.54
676.671	76.97
676.861	140.46
677.052	97.45
677.243	113.83
677.433	136.36
677.624	238.76
677.814	152.74
678.005	142.5
678.195	281.77
678.386	68.78
678.576	191.66
678.767	111.78
678.957	126.12
679.148	173.22
679.338	212.14
679.529	212.14
679.719	138.41
679.909	244.9
680.1	222.38
680.29	283.81
680.481	130.22
680.671	283.81
680.861	234.66
681.052	232.62
681.242	97.45
681.432	203.94
681.622	214.18
681.813	126.12
682.003	212.14
682.193	74.92
682.383	234.66
682.573	189.61
682.764	187.56
682.954	287.91
683.144	330.92
683.334	185.51
683.524	179.37
683.714	193.7
683.904	152.74
684.094	179.37
684.284	160.94
684.474	251.05
684.664	267.43
684.854	228.52
685.044	214.18
685.234	228.52
685.424	259.24
685.614	208.04
685.804	316.58
685.994	210.09
686.184	244.9
686.374	185.51
686.564	275.62
686.753	242.85
686.943	142.5
687.133	203.94
687.323	210.09
687.513	320.68
687.702	240.81
687.892	191.66
688.082	261.29
688.272	251.05
688.461	255.14
688.651	337.06
688.841	269.48
689.03	220.33
689.22	242.85
689.41	185.51
689.599	294.05
689.789	99.5
689.979	279.72
690.168	255.14
690.358	275.62
690.547	171.18
690.737	222.38
690.926	171.18
691.116	257.19
691.305	259.24
691.495	222.38
691.684	167.08
691.874	195.75
692.063	175.27
692.252	314.53
692.442	310.44
692.631	189.61
692.82	152.74
693.01	189.61
693.199	187.56
693.388	226.47
693.578	183.46
693.767	185.51
693.956	261.29
694.146	162.98
694.335	273.57
694.524	208.04
694.713	281.77
694.902	216.23
695.092	181.42
695.281	175.27
695.47	220.33
695.659	189.61
695.848	154.79
696.037	158.89
696.226	312.49
696.415	236.71
696.604	277.67
696.793	224.42
696.982	160.94
697.171	332.97
697.36	201.9
697.549	212.14
697.738	152.74
697.927	117.93
698.116	193.7
698.305	232.62
698.494	216.23
698.683	130.22
698.872	361.64
699.061	191.66
699.25	193.7
699.438	246.95
699.627	136.36
699.816	332.97
700.005	72.87
700.193	185.51
700.382	251.05
700.571	150.7
700.76	244.9
700.948	218.28
701.137	212.14
701.326	212.14
701.514	138.41
701.703	228.52
701.892	251.05
702.08	363.69
702.269	189.61
702.457	189.61
702.646	195.75
702.834	181.42
703.023	306.34
703.212	261.29
703.4	162.98
703.589	169.13
703.777	128.17
703.965	183.46
704.154	269.48
704.342	85.16
704.531	140.46
704.719	185.51
704.907	337.06
705.096	117.93
705.284	148.65
705.472	187.56
705.661	232.62
705.849	167.08
706.037	167.08
706.226	191.66
706.414	109.74
706.602	158.89
706.79	193.7
706.979	191.66
707.167	216.23
707.355	70.83
707.543	214.18
707.731	257.19
707.919	179.37
708.107	109.74
708.296	201.9
708.484	109.74
708.672	265.38
708.86	230.57
709.048	179.37
709.236	76.97
709.424	244.9
709.612	267.43
709.8	58.54
709.988	203.94
710.176	265.38
710.364	259.24
710.551	165.03
710.739	228.52
710.927	177.32
711.115	115.88
711.303	259.24
711.491	218.28
711.679	203.94
711.866	193.7
712.054	132.26
712.242	230.57
712.43	261.29
712.617	40.11
712.805	220.33
712.993	150.7
713.181	113.83
713.368	308.39
713.556	165.03
713.744	212.14
713.931	255.14
714.119	226.47
714.306	302.25
714.494	179.37
714.682	158.89
714.869	156.84
715.057	152.74
715.244	52.39
715.432	177.32
715.619	193.7
715.807	83.11
715.994	167.08
716.182	185.51
716.369	187.56
716.556	246.95
716.744	132.26
716.931	158.89
717.119	255.14
717.306	152.74
717.493	281.77
717.681	179.37
717.868	146.6
718.055	236.71
718.242	165.03
718.43	187.56
718.617	320.68
718.804	156.84
718.991	312.49
719.179	197.8
719.366	277.67
719.553	267.43
719.74	216.23
719.927	228.52
720.114	193.7
720.301	154.79
720.488	105.64
720.676	148.65
720.863	244.9
721.05	265.38
721.237	169.13
721.424	246.95
721.611	279.72
721.798	140.46
721.985	97.45
722.172	220.33
722.358	203.94
722.545	302.25
722.732	292.01
722.919	326.82
723.106	119.98
723.293	289.96
723.48	162.98
723.667	171.18
723.853	253.09
724.04	320.68
724.227	224.42
724.414	175.27
724.6	230.57
724.787	322.73
724.974	328.87
725.161	218.28
725.347	187.56
725.534	222.38
725.72	201.9
725.907	302.25
726.094	226.47
726.28	208.04
726.467	150.7
726.653	99.5
726.84	302.25
727.027	251.05
727.213	234.66
727.4	255.14
727.586	234.66
727.773	193.7
727.959	205.99
728.145	234.66
728.332	283.81
728.518	136.36
728.705	287.91
728.891	257.19
729.077	244.9
729.264	142.5
729.45	234.66
729.636	289.96
729.823	298.15
730.009	318.63
730.195	330.92
730.382	341.16
730.568	165.03
730.754	255.14
730.94	240.81
731.126	195.75
731.313	308.39
731.499	304.29
731.685	285.86
731.871	308.39
732.057	251.05
732.243	414.88
732.429	226.47
732.615	304.29
732.801	238.76
732.987	160.94
733.173	300.2
733.359	208.04
733.545	341.16
733.731	277.67
733.917	431.27
734.103	267.43
734.289	226.47
734.475	187.56
734.661	402.6
734.847	275.62
735.033	283.81
735.219	316.58
735.404	261.29
735.59	162.98
735.776	242.85
735.962	292.01
736.148	318.63
736.333	357.54
736.519	214.18
736.705	275.62
736.89	218.28
737.076	222.38
737.262	279.72
737.447	253.09
737.633	277.67
737.819	304.29
738.004	201.9
738.19	222.38
738.375	302.25
738.561	304.29
738.747	269.48
738.932	244.9
739.118	369.83
739.303	347.3
739.489	244.9
739.674	257.19
739.859	212.14
740.045	285.86
740.23	246.95
740.416	122.02
740.601	244.9
740.786	259.24
740.972	228.52
741.157	263.33
741.342	246.95
741.528	144.55
741.713	314.53
741.898	236.71
742.084	281.77
742.269	249
742.454	314.53
742.639	273.57
742.824	271.53
743.01	322.73
743.195	322.73
743.38	253.09
743.565	181.42
743.75	312.49
743.935	308.39
744.12	298.15
744.305	158.89
744.49	287.91
744.675	238.76
744.86	236.71
745.045	310.44
745.23	212.14
745.415	150.7
745.6	279.72
745.785	195.75
745.97	300.2
746.155	205.99
746.34	238.76
746.525	162.98
746.71	328.87
746.895	130.22
747.079	179.37
747.264	208.04
747.449	312.49
747.634	310.44
747.819	244.9
748.003	177.32
748.188	167.08
748.373	253.09
748.557	171.18
748.742	326.82
748.927	216.23
749.111	259.24
749.296	177.32
749.481	277.67
749.665	316.58
749.85	148.65
750.034	302.25
750.219	201.9
750.404	148.65
750.588	201.9
750.773	244.9
750.957	199.85
751.141	183.46
751.326	183.46
751.51	101.55
751.695	230.57
751.879	185.51
752.064	226.47
752.248	216.23
752.432	275.62
752.617	314.53
752.801	228.52
752.985	138.41
753.17	294.05
753.354	240.81
753.538	160.94
753.722	156.84
753.907	89.26
754.091	107.69
754.275	224.42
754.459	93.35
754.643	175.27
754.828	181.42
755.012	193.7
755.196	109.74
755.38	205.99
755.564	162.98
755.748	146.6
755.932	205.99
756.116	300.2
756.3	208.04
756.484	165.03
756.668	195.75
756.852	81.07
757.036	68.78
757.22	142.5
757.404	119.98
757.588	130.22
757.772	205.99
757.956	126.12
758.14	224.42
758.323	62.63
758.507	148.65
758.691	62.63
758.875	130.22
759.059	212.14
759.242	111.78
759.426	177.32
759.61	97.45
759.794	79.02
759.977	210.09
760.161	322.73
760.345	259.24
760.528	191.66
760.712	148.65
760.895	175.27
761.079	109.74
761.263	27.82
761.446	46.25
761.63	146.6
761.813	193.7
761.997	105.64
762.18	173.22
762.364	171.18
762.547	56.49
762.731	-11.09
762.914	122.02
763.098	64.68
763.281	140.46
763.464	17.58
763.648	126.12
763.831	64.68
764.015	-19.29
764.198	212.14
764.381	107.69
764.564	95.4
764.748	134.31
764.931	175.27
765.114	11.43
765.297	210.09
765.481	7.34
765.664	83.11
765.847	44.2
766.03	107.69
766.213	1.19
766.397	76.97
766.58	29.87
766.763	97.45
766.946	122.02
767.129	79.02
767.312	97.45
767.495	119.98
767.678	50.35
767.861	156.84
768.044	74.92
768.227	107.69
768.41	74.92
768.593	52.39
768.776	-27.48
768.959	-27.48
769.142	175.27
769.324	74.92
769.507	36.01
769.69	97.45
769.873	36.01
770.056	144.55
770.239	160.94
770.421	160.94
770.604	201.9
770.787	111.78
770.97	83.11
771.152	144.55
771.335	117.93
771.518	-56.15
771.7	158.89
771.883	226.47
772.066	54.44
772.248	113.83
772.431	115.88
772.613	74.92
772.796	7.34
772.978	54.44
773.161	187.56
773.343	38.06
773.526	-7
773.708	-25.43
773.891	-64.34
774.073	160.94
774.256	-88.92
774.438	175.27
774.621	-17.24
774.803	54.44
774.985	17.58
775.168	122.02
775.35	48.3
775.532	38.06
775.715	3.24
775.897	124.07
776.079	-2.9
776.261	134.31
776.444	17.58
776.626	44.2
776.808	40.11
776.99	-47.96
777.173	7.34
777.355	-11.09
777.537	36.01
777.719	42.15
777.901	-72.53
778.083	44.2
778.265	13.48
778.447	60.59
778.629	9.39
778.811	150.7
778.993	29.87
779.175	107.69
779.357	33.96
779.539	-17.24
779.721	42.15
779.903	17.58
780.085	-4.95
780.267	64.68
780.449	1.19
780.631	93.35
780.812	179.37
780.994	27.82
781.176	46.25
781.358	29.87
781.54	74.92
781.721	148.65
781.903	85.16
782.085	85.16
782.267	113.83
782.448	-47.96
782.63	101.55
782.812	3.24
782.993	68.78
783.175	36.01
783.357	72.87
783.538	13.48
783.72	-45.91
783.901	25.77
784.083	97.45
784.264	140.46
784.446	-9.05
784.627	36.01
784.809	97.45
784.99	3.24
785.172	66.73
785.353	23.72
785.535	-13.14
785.716	107.69
785.897	-68.44
786.079	3.24
786.26	40.11
786.441	171.18
786.623	-21.33
786.804	-15.19
786.985	25.77
787.167	122.02
787.348	64.68
787.529	70.83
787.71	97.45
787.891	70.83
788.073	27.82
788.254	-64.34
788.435	220.33
788.616	62.63
788.797	25.77
788.978	27.82
789.159	-13.14
789.34	138.41
789.522	33.96
789.703	-29.52
789.884	56.49
790.065	56.49
790.246	152.74
790.427	-52.05
790.607	158.89
790.788	134.31
790.969	-4.95
791.15	66.73
791.331	27.82
791.512	7.34
791.693	5.29
791.874	23.72
792.054	167.08
792.235	142.5
792.416	-74.58
792.597	-13.14
792.778	52.39
792.958	72.87
793.139	42.15
793.32	17.58
793.5	74.92
793.681	56.49
793.862	13.48
794.042	17.58
794.223	-13.14
794.404	27.82
794.584	-78.68
794.765	46.25
794.945	42.15
795.126	64.68
795.306	119.98
795.487	-58.2
795.667	15.53
795.848	50.35
796.028	27.82
796.209	40.11
796.389	17.58
796.57	81.07
796.75	-21.33
796.93	-19.29
797.111	-93.01
797.291	-37.72
797.471	119.98
797.652	-11.09
797.832	-11.09
798.012	42.15
798.192	-82.77
798.373	-70.48
798.553	-31.57
798.733	1.19
798.913	-74.58
799.093	-60.24
799.274	62.63
799.454	36.01
799.634	79.02
799.814	111.78
799.994	15.53
800.174	5.29
800.354	-43.86
800.534	-105.3
800.714	1.19
800.894	-66.39
801.074	-70.48
801.254	-80.72
801.434	142.5
801.614	-19.29
801.794	-4.95
801.974	1975.44
802.154	-35.67
802.334	79.02
802.514	-27.48
802.693	17.58
802.873	-37.72
803.053	158.89
803.233	-2.9
803.413	3.24
803.592	-52.05
803.772	-54.1
803.952	62.63
804.131	1.19
804.311	79.02
804.491	25.77
804.67	-7
804.85	-43.86
805.03	72.87
805.209	93.35
805.389	1.19
805.568	56.49
805.748	-2.9
805.928	-23.38
806.107	76.97
806.287	93.35
806.466	68.78
806.646	-17.24
806.825	-37.72
807.004	-2.9
807.184	-70.48
807.363	38.06
807.543	-9.05
807.722	-109.4
807.901	-4.95
808.081	105.64
808.26	-107.35
808.439	-82.77
808.619	-37.72
808.798	-29.52
808.977	31.91
809.156	119.98
809.336	-29.52
809.515	60.59
809.694	-117.59
809.873	-17.24
810.052	33.96
810.231	185.51
810.411	7.34
810.59	64.68
810.769	38.06
810.948	124.07
811.127	-121.68
811.306	-45.91
811.485	-56.15
811.664	115.88
811.843	23.72
812.022	31.91
812.201	-35.67
812.38	-58.2
812.559	-47.96
812.737	7.34
812.916	-50
813.095	-76.63
813.274	46.25
813.453	13.48
813.632	81.07
813.811	56.49
813.989	-54.1
814.168	19.63
814.347	-13.14
814.526	-97.11
814.704	126.12
814.883	74.92
815.062	-125.78
815.24	58.54
815.419	-47.96
815.598	97.45
815.776	-174.93
815.955	-54.1
816.133	-113.49
816.312	3.24
816.49	-47.96
816.669	11.43
816.847	-21.33
817.026	29.87
817.204	15.53
817.383	-11.09
817.561	-25.43
817.74	50.35
817.918	-47.96
818.097	-95.06
818.275	-31.57
818.453	89.26
818.632	36.01
818.81	5.29
818.988	-23.38
819.167	-64.34
819.345	-15.19
819.523	-74.58
819.701	42.15
819.879	21.67
820.058	50.35
820.236	83.11
820.414	-15.19
820.592	13.48
820.77	23.72
820.948	-19.29
821.127	-11.09
821.305	1.19
821.483	5.29
821.661	119.98
821.839	76.97
822.017	25.77
822.195	25.77
822.373	-9.05
822.551	-11.09
822.729	52.39
822.907	-33.62
823.085	-11.09
823.262	9.39
823.44	-64.34
823.618	-23.38
823.796	-33.62
823.974	-7
824.152	-60.24
824.329	-25.43
824.507	1.19
824.685	-4.95
824.863	-0.85
825.04	3.24
825.218	44.2
825.396	7.34
825.574	-9.05
825.751	40.11
825.929	-41.81
826.107	-35.67
826.284	29.87
826.462	-11.09
826.639	-74.58
826.817	-56.15
826.994	-27.48
827.172	-66.39
827.349	36.01
827.527	40.11
827.704	-25.43
827.882	91.31
828.059	19.63
828.237	-29.52
828.414	54.44
828.591	-164.69
828.769	33.96
828.946	-68.44
829.124	70.83
829.301	5.29
829.478	7.34
829.655	83.11
829.833	-41.81
830.01	-127.83
830.187	-23.38
830.364	-25.43
830.542	15.53
830.719	193.7
830.896	27.82
831.073	-50
831.25	76.97
831.427	-7
831.604	-17.24
831.782	-0.85
831.959	33.96
832.136	38.06
832.313	-33.62
832.49	-9.05
832.667	25.77
832.844	-11.09
833.021	142.5
833.198	56.49
833.374	-19.29
833.551	3.24
833.728	-50
833.905	58.54
834.082	-43.86
834.259	29.87
834.436	109.74
834.612	-93.01
834.789	9.39
834.966	19.63
835.143	-60.24
835.319	-97.11
835.496	68.78
835.673	-15.19
835.85	31.91
836.026	19.63
836.203	58.54
836.38	-31.57
836.556	-76.63
836.733	-66.39
836.909	54.44
837.086	-19.29
837.262	-105.3
837.439	46.25
837.616	-86.87
837.792	-54.1
837.968	81.07
838.145	-133.97
838.321	-27.48
838.498	70.83
838.674	11.43
838.851	46.25
839.027	-90.96
839.203	-60.24
839.38	-25.43
839.556	-70.48
839.732	42.15
839.909	52.39
840.085	-15.19
840.261	-29.52
840.437	29.87
840.614	-21.33
840.79	44.2
840.966	38.06
841.142	40.11
841.318	-90.96
841.494	23.72
841.671	109.74
841.847	-88.92
842.023	-56.15
842.199	-4.95
842.375	115.88
842.551	-97.11
842.727	-9.05
842.903	33.96
843.079	-136.02
843.255	109.74
843.431	-9.05
843.607	21.67
843.783	-195.41
843.959	17.58
844.134	-45.91
844.31	31.91
844.486	-84.82
844.662	-103.25
844.838	5.29
845.013	52.39
845.189	76.97
845.365	58.54
845.541	11.43
845.716	-27.48
845.892	7.34
846.068	-21.33
846.244	27.82
846.419	7.34
846.595	-25.43
846.77	-45.91
846.946	91.31
847.122	-90.96
847.297	-19.29
847.473	60.59
847.648	-58.2
847.824	-43.86
847.999	-103.25
848.175	-68.44
848.35	44.2
848.526	50.35
848.701	11.43
848.876	29.87
849.052	54.44
849.227	-11.09
849.403	17.58
849.578	-27.48
849.753	-52.05
849.929	38.06
850.104	-82.77
850.279	-39.76
850.454	-33.62
850.63	97.45
850.805	13.48
850.98	-25.43
851.155	74.92
851.33	11.43
851.505	-103.25
851.681	97.45
851.856	-29.52
852.031	79.02
852.206	21.67
852.381	-29.52
852.556	-2.9
852.731	56.49
852.906	25.77
853.081	79.02
853.256	122.02
853.431	33.96
853.606	-52.05
853.781	-111.44
853.956	-125.78
854.131	70.83
854.305	-68.44
854.48	-45.91
854.655	-37.72
854.83	9.39
855.005	-4.95
855.18	-0.85
855.354	-50
855.529	-2.9
855.704	-78.68
855.879	-41.81
856.053	-35.67
856.228	38.06
856.403	-54.1
856.577	21.67
856.752	-117.59
856.926	-17.24
857.101	-35.67
857.276	-58.2
857.45	54.44
857.625	60.59
857.799	-11.09
857.974	-64.34
858.148	-181.07
858.323	9.39
858.497	-52.05
858.672	-2.9
858.846	-121.68
859.02	27.82
859.195	-84.82
859.369	40.11
859.543	11.43
859.718	-90.96
859.892	29.87
860.066	-35.67
860.241	-33.62
860.415	-37.72
860.589	-45.91
860.763	5.29
860.938	-13.14
861.112	27.82
861.286	-35.67
861.46	-4.95
861.634	-2.9
861.808	103.59
861.982	-43.86
862.157	-121.68
862.331	-39.76
862.505	-64.34
862.679	-105.3
862.853	-56.15
863.027	7.34
863.201	107.69
863.375	-74.58
863.549	50.35
863.722	27.82
863.896	158.89
864.07	-33.62
864.244	-13.14
864.418	-25.43
864.592	38.06
864.766	15.53
864.939	5.29
865.113	-68.44
865.287	56.49
865.461	-70.48
865.634	-56.15
865.808	-41.81
865.982	-58.2
866.156	-47.96
866.329	-78.68
866.503	-62.29
866.676	25.77
866.85	9.39
867.024	-115.54
867.197	74.92
867.371	-13.14
867.544	-17.24
867.718	-84.82
867.891	136.36
868.065	-4.95
868.238	27.82
868.412	101.55
868.585	-50
868.759	-27.48
868.932	-76.63
869.105	-113.49
869.279	7.34
869.452	-70.48
869.625	87.21
869.799	-2.9
869.972	-72.53
870.145	-76.63
870.319	83.11
870.492	-80.72
870.665	-19.29
870.838	-56.15
871.011	-133.97
871.185	-54.1
871.358	-31.57
871.531	68.78
871.704	-25.43
871.877	-11.09
872.05	-95.06
872.223	-27.48
872.396	25.77
872.569	5.29
872.742	-74.58
872.915	-2.9
873.088	-35.67
873.261	-76.63
873.434	81.07
873.607	11.43
873.78	89.26
873.953	-179.03
874.126	19.63
874.299	-31.57
874.471	13.48
874.644	9.39
874.817	-9.05
874.99	150.7
875.163	-60.24
875.335	27.82
875.508	23.72
875.681	9.39
875.853	-56.15
876.026	-80.72
876.199	38.06
876.371	11.43
876.544	-15.19
876.717	60.59
876.889	1.19
877.062	-52.05
877.234	-56.15
877.407	-107.35
877.579	42.15
877.752	-7
877.924	25.77
878.097	29.87
878.269	-31.57
878.442	85.16
878.614	21.67
878.786	-70.48
878.959	-35.67
879.131	74.92
879.303	-84.82
879.476	9.39
879.648	95.4
879.82	-37.72
879.993	-66.39
880.165	-97.11
880.337	-39.76
880.509	23.72
880.681	-82.77
880.854	-68.44
881.026	40.11
881.198	181.42
881.37	25.77
881.542	-43.86
881.714	-54.1
881.886	-21.33
882.058	-23.38
882.23	25.77
882.402	5.29
882.574	13.48
882.746	36.01
882.918	87.21
883.09	13.48
883.262	-52.05
883.434	-7
883.606	-121.68
883.778	-72.53
883.95	54.44
884.122	-58.2
884.293	29.87
884.465	27.82
884.637	68.78
884.809	-13.14
884.98	15.53
885.152	68.78
885.324	46.25
885.496	-45.91
885.667	-47.96
885.839	-99.16
886.011	89.26
886.182	-19.29
886.354	-58.2
886.525	21.67
886.697	-0.85
886.869	-84.82
887.04	42.15
887.212	128.17
887.383	113.83
887.555	11.43
887.726	-43.86
887.897	-60.24
888.069	-9.05
888.24	17.58
888.412	-13.14
888.583	-35.67
888.754	13.48
888.926	-109.4
889.097	-54.1
889.268	-201.55
889.44	-0.85
889.611	-54.1
889.782	-50
889.953	-95.06
890.125	62.63
890.296	-170.83
890.467	-13.14
890.638	-70.48
890.809	3.24
890.98	-58.2
891.151	-17.24
891.323	130.22
891.494	-35.67
891.665	-86.87
891.836	-50
892.007	19.63
892.178	-11.09
892.349	66.73
892.52	-52.05
892.691	-23.38
892.862	-66.39
893.032	-99.16
893.203	-37.72
893.374	21.67
893.545	-17.24
893.716	-17.24
893.887	44.2
894.057	-68.44
894.228	-0.85
894.399	-25.43
894.57	66.73
894.74	-54.1
894.911	3.24
895.082	-76.63
895.253	7.34
895.423	-76.63
895.594	7.34
895.764	31.91
895.935	-82.77
896.106	40.11
896.276	-39.76
896.447	52.39
896.617	-115.54
896.788	-117.59
896.958	-4.95
897.129	-99.16
897.299	-15.19
897.47	25.77
897.64	-25.43
897.81	-13.14
897.981	-17.24
898.151	-62.29
898.322	-21.33
898.492	50.35
898.662	-99.16
898.832	-33.62
899.003	-0.85
899.173	-43.86
899.343	-121.68
899.513	-64.34
