Data from USB4F104151__279__11-20-53-031.txt Node

Date: Wed Feb 26 11:20:53 EST 2025
User: louis
Spectrometer: USB4F10415
Trigger mode: 4
Integration Time (sec): 1.000000E-1
Scans to average: 1
Electric dark correction enabled: true
Nonlinearity correction enabled: false
Boxcar width: 0
XAxis mode: Wavelengths
Number of Pixels in Spectrum: 3648
>>>>>Begin Spectral Data<<<<<
178.204	-382.63
178.424	-382.63
178.644	-382.63
178.864	-401.06
179.084	-376.48
179.304	2.39
179.524	-9.9
179.744	-22.19
179.964	0.34
180.184	88.4
180.404	88.4
180.624	24.92
180.844	12.63
181.064	-132.78
181.283	-42.67
181.503	10.58
181.723	-20.14
181.943	-7.85
182.163	131.41
182.383	45.4
182.602	94.55
182.822	133.46
183.042	149.84
183.262	-38.57
183.482	-5.8
183.701	20.82
183.921	20.82
184.141	-73.39
184.361	98.64
184.58	69.97
184.8	102.74
185.02	-24.23
185.239	39.25
185.459	29.01
185.679	65.88
185.898	-36.52
186.118	55.64
186.338	57.68
186.557	106.84
186.777	4.44
186.997	78.16
187.216	29.01
187.436	137.56
187.655	88.4
187.875	29.01
188.095	22.87
188.314	190.8
188.534	115.03
188.753	-20.14
188.973	170.32
189.192	192.85
189.412	29.01
189.631	33.11
189.851	18.77
190.07	182.61
190.29	-46.76
190.509	-54.95
190.729	61.78
190.948	106.84
191.168	174.42
191.387	74.07
191.607	6.49
191.826	86.36
192.045	12.63
192.265	49.49
192.484	41.3
192.704	-5.8
192.923	-28.33
193.142	115.03
193.362	119.12
193.581	229.71
193.8	61.78
194.02	94.55
194.239	65.88
194.458	115.03
194.678	-54.95
194.897	-54.95
195.116	41.3
195.335	82.26
195.555	29.01
195.774	41.3
195.993	102.74
196.212	-9.9
196.432	55.64
196.651	26.96
196.87	59.73
197.089	305.49
197.308	61.78
197.528	53.59
197.747	-36.52
197.966	29.01
198.185	151.89
198.404	-7.85
198.623	90.45
198.842	127.32
199.062	63.83
199.281	125.27
199.5	117.08
199.719	72.02
199.938	115.03
200.157	53.59
200.376	112.98
200.595	108.88
200.814	112.98
201.033	65.88
201.252	153.94
201.471	-1.71
201.69	92.5
201.909	35.16
202.128	125.27
202.347	55.64
202.566	57.68
202.785	-36.52
203.004	94.55
203.223	252.24
203.442	41.3
203.661	-54.95
203.879	112.98
204.098	74.07
204.317	4.44
204.536	110.93
204.755	108.88
204.974	133.46
205.193	92.5
205.411	131.41
205.63	119.12
205.849	20.82
206.068	57.68
206.287	-69.29
206.505	115.03
206.724	-1.71
206.943	0.34
207.162	-1.71
207.381	92.5
207.599	47.44
207.818	16.73
208.037	-3.75
208.255	31.06
208.474	129.36
208.693	82.26
208.911	-16.04
209.13	100.69
209.349	88.4
209.567	18.77
209.786	115.03
210.005	76.12
210.223	10.58
210.442	-102.06
210.661	-3.75
210.879	2.39
211.098	41.3
211.316	47.44
211.535	67.92
211.753	84.31
211.972	74.07
212.191	49.49
212.409	33.11
212.628	141.65
212.846	0.34
213.065	41.3
213.283	147.8
213.502	92.5
213.72	80.21
213.938	65.88
214.157	67.92
214.375	96.6
214.594	-38.57
214.812	108.88
215.031	8.53
215.249	39.25
215.467	131.41
215.686	41.3
215.904	139.6
216.122	72.02
216.341	153.94
216.559	92.5
216.778	153.94
216.996	84.31
217.214	88.4
217.432	12.63
217.651	-85.67
217.869	-1.71
218.087	35.16
218.306	-44.71
218.524	39.25
218.742	12.63
218.96	94.55
219.179	-9.9
219.397	45.4
219.615	270.67
219.833	80.21
220.051	26.96
220.27	51.54
220.488	194.9
220.706	92.5
220.924	-20.14
221.142	31.06
221.36	82.26
221.578	100.69
221.796	4.44
222.015	51.54
222.233	98.64
222.451	137.56
222.669	-28.33
222.887	41.3
223.105	-18.09
223.323	47.44
223.541	-30.38
223.759	59.73
223.977	74.07
224.195	155.99
224.413	16.73
224.631	59.73
224.849	61.78
225.067	168.27
225.285	-85.67
225.503	26.96
225.721	-100.01
225.939	24.92
226.157	14.68
226.375	168.27
226.592	-85.67
226.81	33.11
227.028	168.27
227.246	166.23
227.464	49.49
227.682	82.26
227.9	139.6
228.117	33.11
228.335	37.2
228.553	65.88
228.771	121.17
228.989	80.21
229.206	59.73
229.424	45.4
229.642	-20.14
229.86	-3.75
230.077	94.55
230.295	74.07
230.513	125.27
230.731	26.96
230.948	162.13
231.166	127.32
231.384	-7.85
231.601	29.01
231.819	170.32
232.037	4.44
232.254	-3.75
232.472	24.92
232.689	-34.47
232.907	121.17
233.125	-52.91
233.342	-85.67
233.56	57.68
233.777	51.54
233.995	37.2
234.213	145.75
234.43	149.84
234.648	-50.86
234.865	55.64
235.083	31.06
235.3	35.16
235.518	108.88
235.735	145.75
235.953	59.73
236.17	88.4
236.388	-48.81
236.605	47.44
236.822	119.12
237.04	84.31
237.257	31.06
237.475	-38.57
237.692	45.4
237.909	135.51
238.127	10.58
238.344	33.11
238.562	26.96
238.779	6.49
238.996	-87.72
239.214	33.11
239.431	121.17
239.648	31.06
239.865	102.74
240.083	49.49
240.3	-3.75
240.517	-42.67
240.735	51.54
240.952	155.99
241.169	121.17
241.386	139.6
241.603	4.44
241.821	-42.67
242.038	110.93
242.255	78.16
242.472	-65.19
242.689	74.07
242.907	31.06
243.124	67.92
243.341	43.35
243.558	-3.75
243.775	-36.52
243.992	-36.52
244.209	98.64
244.426	190.8
244.643	119.12
244.86	-28.33
245.078	104.79
245.295	26.96
245.512	12.63
245.729	-26.28
245.946	110.93
246.163	-9.9
246.38	-18.09
246.597	98.64
246.814	-11.95
247.031	24.92
247.248	57.68
247.464	55.64
247.681	47.44
247.898	84.31
248.115	88.4
248.332	-16.04
248.549	180.56
248.766	155.99
248.983	137.56
249.2	80.21
249.417	141.65
249.633	14.68
249.85	135.51
250.067	-1.71
250.284	-13.99
250.501	82.26
250.717	141.65
250.934	-24.23
251.151	-34.47
251.368	4.44
251.585	125.27
251.801	57.68
252.018	10.58
252.235	158.03
252.451	-20.14
252.668	33.11
252.885	82.26
253.102	8.53
253.318	-38.57
253.535	-22.19
253.752	12.63
253.968	-59.05
254.185	-108.2
254.401	12.63
254.618	12.63
254.835	-7.85
255.051	78.16
255.268	49.49
255.484	39.25
255.701	-9.9
255.917	88.4
256.134	-26.28
256.351	61.78
256.567	-26.28
256.784	112.98
257	-24.23
257.217	94.55
257.433	41.3
257.65	29.01
257.866	151.89
258.082	-114.34
258.299	22.87
258.515	76.12
258.732	8.53
258.948	-46.76
259.165	78.16
259.381	-26.28
259.597	94.55
259.814	37.2
260.03	8.53
260.246	-54.95
260.463	125.27
260.679	45.4
260.895	57.68
261.112	117.08
261.328	20.82
261.544	18.77
261.761	168.27
261.977	-57
262.193	-69.29
262.409	112.98
262.626	112.98
262.842	55.64
263.058	-63.15
263.274	92.5
263.49	63.83
263.707	69.97
263.923	158.03
264.139	-3.75
264.355	-52.91
264.571	127.32
264.787	29.01
265.004	172.37
265.22	57.68
265.436	-57
265.652	20.82
265.868	41.3
266.084	-5.8
266.3	20.82
266.516	-108.2
266.732	47.44
266.948	53.59
267.164	10.58
267.38	22.87
267.596	67.92
267.812	219.47
268.028	-9.9
268.244	-20.14
268.46	72.02
268.676	-20.14
268.892	104.79
269.108	-61.1
269.324	-5.8
269.54	-63.15
269.756	98.64
269.972	10.58
270.188	-61.1
270.403	-9.9
270.619	26.96
270.835	121.17
271.051	45.4
271.267	14.68
271.483	-7.85
271.698	76.12
271.914	98.64
272.13	76.12
272.346	-20.14
272.562	84.31
272.777	82.26
272.993	-7.85
273.209	-32.43
273.425	149.84
273.64	14.68
273.856	55.64
274.072	-5.8
274.287	35.16
274.503	47.44
274.719	24.92
274.934	-16.04
275.15	29.01
275.366	6.49
275.581	-59.05
275.797	0.34
276.012	18.77
276.228	-16.04
276.444	78.16
276.659	139.6
276.875	-44.71
277.09	72.02
277.306	-11.95
277.521	90.45
277.737	43.35
277.952	8.53
278.168	26.96
278.383	12.63
278.599	100.69
278.814	166.23
279.03	90.45
279.245	145.75
279.461	63.83
279.676	86.36
279.892	-38.57
280.107	-28.33
280.322	-46.76
280.538	86.36
280.753	-24.23
280.969	92.5
281.184	55.64
281.399	190.8
281.615	29.01
281.83	49.49
282.045	26.96
282.26	49.49
282.476	67.92
282.691	86.36
282.906	35.16
283.122	53.59
283.337	55.64
283.552	131.41
283.767	112.98
283.983	135.51
284.198	63.83
284.413	80.21
284.628	-93.87
284.843	39.25
285.058	106.84
285.274	51.54
285.489	33.11
285.704	164.18
285.919	18.77
286.134	-67.24
286.349	86.36
286.564	-9.9
286.779	129.36
286.995	10.58
287.21	-54.95
287.425	98.64
287.64	8.53
287.855	84.31
288.07	-67.24
288.285	131.41
288.5	149.84
288.715	43.35
288.93	10.58
289.145	-22.19
289.36	94.55
289.575	-18.09
289.79	151.89
290.004	24.92
290.219	96.6
290.434	0.34
290.649	-108.2
290.864	0.34
291.079	33.11
291.294	33.11
291.509	67.92
291.724	-16.04
291.938	12.63
292.153	123.22
292.368	-9.9
292.583	35.16
292.798	69.97
293.012	65.88
293.227	47.44
293.442	-1.71
293.657	135.51
293.871	131.41
294.086	33.11
294.301	203.09
294.516	110.93
294.73	6.49
294.945	-38.57
295.16	29.01
295.374	141.65
295.589	100.69
295.804	24.92
296.018	37.2
296.233	170.32
296.447	92.5
296.662	-57
296.877	43.35
297.091	106.84
297.306	29.01
297.52	45.4
297.735	86.36
297.949	69.97
298.164	49.49
298.378	53.59
298.593	-16.04
298.807	-11.95
299.022	26.96
299.236	155.99
299.451	10.58
299.665	18.77
299.88	24.92
300.094	92.5
300.309	37.2
300.523	26.96
300.737	61.78
300.952	100.69
301.166	98.64
301.381	-26.28
301.595	39.25
301.809	12.63
302.024	57.68
302.238	-34.47
302.452	129.36
302.667	-1.71
302.881	59.73
303.095	170.32
303.309	26.96
303.524	0.34
303.738	-24.23
303.952	-9.9
304.166	110.93
304.381	-40.62
304.595	153.94
304.809	-42.67
305.023	49.49
305.237	41.3
305.452	88.4
305.666	35.16
305.88	123.22
306.094	72.02
306.308	-7.85
306.522	72.02
306.736	82.26
306.95	86.36
307.164	86.36
307.379	22.87
307.593	188.75
307.807	125.27
308.021	74.07
308.235	61.78
308.449	-42.67
308.663	29.01
308.877	244.05
309.091	-5.8
309.305	108.88
309.519	-91.82
309.733	129.36
309.947	-18.09
310.161	45.4
310.374	33.11
310.588	135.51
310.802	4.44
311.016	2.39
311.23	110.93
311.444	20.82
311.658	-16.04
311.872	90.45
312.085	115.03
312.299	137.56
312.513	49.49
312.727	69.97
312.941	-40.62
313.154	22.87
313.368	69.97
313.582	-3.75
313.796	117.08
314.009	-50.86
314.223	153.94
314.437	45.4
314.651	59.73
314.864	-20.14
315.078	-30.38
315.292	-22.19
315.505	-20.14
315.719	115.03
315.933	55.64
316.146	-16.04
316.36	-16.04
316.573	131.41
316.787	96.6
317.001	35.16
317.214	-22.19
317.428	47.44
317.641	-44.71
317.855	47.44
318.068	49.49
318.282	74.07
318.495	151.89
318.709	72.02
318.922	67.92
319.136	92.5
319.349	151.89
319.563	24.92
319.776	121.17
319.99	-13.99
320.203	168.27
320.417	-3.75
320.63	141.65
320.843	119.12
321.057	117.08
321.27	4.44
321.483	98.64
321.697	143.7
321.91	10.58
322.124	110.93
322.337	121.17
322.55	-3.75
322.763	16.73
322.977	-40.62
323.19	-26.28
323.403	59.73
323.617	20.82
323.83	72.02
324.043	43.35
324.256	94.55
324.469	-73.39
324.683	78.16
324.896	-5.8
325.109	37.2
325.322	-108.2
325.535	145.75
325.748	18.77
325.962	24.92
326.175	74.07
326.388	166.23
326.601	59.73
326.814	26.96
327.027	24.92
327.24	188.75
327.453	-42.67
327.666	104.79
327.879	135.51
328.092	22.87
328.305	106.84
328.518	-57
328.731	-71.34
328.944	49.49
329.157	72.02
329.37	59.73
329.583	192.85
329.796	158.03
330.009	-65.19
330.222	102.74
330.435	151.89
330.648	69.97
330.861	112.98
331.073	12.63
331.286	59.73
331.499	22.87
331.712	-69.29
331.925	123.22
332.138	-40.62
332.35	88.4
332.563	-30.38
332.776	24.92
332.989	55.64
333.202	41.3
333.414	18.77
333.627	47.44
333.84	14.68
334.053	33.11
334.265	18.77
334.478	-42.67
334.691	65.88
334.903	94.55
335.116	-1.71
335.329	33.11
335.541	59.73
335.754	112.98
335.966	14.68
336.179	33.11
336.392	61.78
336.604	18.77
336.817	141.65
337.029	65.88
337.242	110.93
337.454	39.25
337.667	33.11
337.88	203.09
338.092	24.92
338.305	94.55
338.517	0.34
338.729	20.82
338.942	205.14
339.154	-106.15
339.367	-120.49
339.579	123.22
339.792	-13.99
340.004	63.83
340.217	-9.9
340.429	24.92
340.641	29.01
340.854	-40.62
341.066	45.4
341.278	90.45
341.491	123.22
341.703	104.79
341.915	-65.19
342.128	104.79
342.34	6.49
342.552	-5.8
342.764	-16.04
342.977	29.01
343.189	45.4
343.401	117.08
343.613	-93.87
343.826	106.84
344.038	-9.9
344.25	-38.57
344.462	-11.95
344.674	102.74
344.886	49.49
345.099	24.92
345.311	20.82
345.523	35.16
345.735	-79.53
345.947	72.02
346.159	37.2
346.371	12.63
346.583	61.78
346.795	176.47
347.007	57.68
347.219	6.49
347.431	57.68
347.643	104.79
347.855	-11.95
348.067	198.99
348.279	14.68
348.491	43.35
348.703	76.12
348.915	10.58
349.127	43.35
349.339	43.35
349.551	20.82
349.763	115.03
349.975	20.82
350.187	69.97
350.399	137.56
350.61	12.63
350.822	45.4
351.034	76.12
351.246	-16.04
351.458	55.64
351.669	110.93
351.881	112.98
352.093	63.83
352.305	135.51
352.517	139.6
352.728	121.17
352.94	57.68
353.152	22.87
353.363	41.3
353.575	137.56
353.787	174.42
353.999	29.01
354.21	102.74
354.422	-57
354.633	98.64
354.845	78.16
355.057	78.16
355.268	37.2
355.48	78.16
355.692	-24.23
355.903	153.94
356.115	-77.48
356.326	-104.11
356.538	164.18
356.749	80.21
356.961	174.42
357.172	-16.04
357.384	22.87
357.595	229.71
357.807	31.06
358.018	-7.85
358.23	-1.71
358.441	155.99
358.653	69.97
358.864	39.25
359.075	-34.47
359.287	-36.52
359.498	96.6
359.709	45.4
359.921	51.54
360.132	94.55
360.344	-30.38
360.555	2.39
360.766	49.49
360.977	31.06
361.189	53.59
361.4	43.35
361.611	80.21
361.823	84.31
362.034	53.59
362.245	-5.8
362.456	59.73
362.667	137.56
362.879	-32.43
363.09	51.54
363.301	43.35
363.512	53.59
363.723	-40.62
363.935	8.53
364.146	147.8
364.357	37.2
364.568	76.12
364.779	-69.29
364.99	119.12
365.201	49.49
365.412	45.4
365.623	-28.33
365.834	24.92
366.045	49.49
366.256	39.25
366.467	96.6
366.678	49.49
366.889	26.96
367.1	-16.04
367.311	67.92
367.522	33.11
367.733	80.21
367.944	78.16
368.155	45.4
368.366	6.49
368.577	145.75
368.788	94.55
368.999	59.73
369.209	-3.75
369.42	131.41
369.631	219.47
369.842	108.88
370.053	55.64
370.264	160.08
370.474	39.25
370.685	145.75
370.896	8.53
371.107	69.97
371.317	153.94
371.528	59.73
371.739	160.08
371.95	51.54
372.16	117.08
372.371	-30.38
372.582	12.63
372.792	123.22
373.003	63.83
373.214	24.92
373.424	123.22
373.635	-42.67
373.846	67.92
374.056	47.44
374.267	35.16
374.477	39.25
374.688	26.96
374.898	41.3
375.109	4.44
375.319	33.11
375.53	129.36
375.74	117.08
375.951	129.36
376.161	55.64
376.372	147.8
376.582	16.73
376.793	153.94
377.003	-22.19
377.214	-83.63
377.424	41.3
377.635	55.64
377.845	-24.23
378.055	137.56
378.266	-48.81
378.476	37.2
378.686	92.5
378.897	110.93
379.107	102.74
379.317	29.01
379.528	-24.23
379.738	88.4
379.948	2.39
380.158	137.56
380.369	4.44
380.579	84.31
380.789	94.55
380.999	88.4
381.21	125.27
381.42	198.99
381.63	67.92
381.84	131.41
382.05	192.85
382.261	104.79
382.471	153.94
382.681	-34.47
382.891	180.56
383.101	24.92
383.311	-52.91
383.521	-40.62
383.731	57.68
383.941	22.87
384.151	96.6
384.361	108.88
384.571	115.03
384.781	72.02
384.991	190.8
385.201	192.85
385.411	115.03
385.621	65.88
385.831	-57
386.041	12.63
386.251	37.2
386.461	147.8
386.671	0.34
386.881	80.21
387.091	47.44
387.301	125.27
387.511	53.59
387.72	176.47
387.93	86.36
388.14	-11.95
388.35	29.01
388.56	170.32
388.769	55.64
388.979	14.68
389.189	26.96
389.399	-5.8
389.609	174.42
389.818	135.51
390.028	139.6
390.238	84.31
390.447	47.44
390.657	106.84
390.867	39.25
391.076	-18.09
391.286	82.26
391.496	98.64
391.705	78.16
391.915	149.84
392.125	110.93
392.334	0.34
392.544	151.89
392.753	123.22
392.963	-61.1
393.172	12.63
393.382	41.3
393.591	192.85
393.801	-3.75
394.01	192.85
394.22	119.12
394.429	26.96
394.639	57.68
394.848	102.74
395.058	67.92
395.267	31.06
395.477	139.6
395.686	82.26
395.895	174.42
396.105	221.52
396.314	53.59
396.524	24.92
396.733	-11.95
396.942	143.7
397.152	137.56
397.361	65.88
397.57	82.26
397.78	90.45
397.989	55.64
398.198	211.28
398.407	41.3
398.617	2.39
398.826	100.69
399.035	139.6
399.244	106.84
399.453	41.3
399.663	55.64
399.872	53.59
400.081	-89.77
400.29	80.21
400.499	-32.43
400.708	67.92
400.917	65.88
401.127	110.93
401.336	-28.33
401.545	209.23
401.754	176.47
401.963	49.49
402.172	53.59
402.381	-46.76
402.59	55.64
402.799	43.35
403.008	55.64
403.217	2.39
403.426	76.12
403.635	-69.29
403.844	51.54
404.053	65.88
404.262	24.92
404.471	180.56
404.68	51.54
404.888	-11.95
405.097	82.26
405.306	14.68
405.515	88.4
405.724	8.53
405.933	145.75
406.142	63.83
406.35	160.08
406.559	72.02
406.768	22.87
406.977	141.65
407.185	94.55
407.394	110.93
407.603	10.58
407.812	4.44
408.02	125.27
408.229	43.35
408.438	100.69
408.646	-28.33
408.855	22.87
409.064	20.82
409.272	-24.23
409.481	53.59
409.69	106.84
409.898	10.58
410.107	12.63
410.315	155.99
410.524	41.3
410.733	35.16
410.941	123.22
411.15	139.6
411.358	61.78
411.567	100.69
411.775	59.73
411.984	31.06
412.192	135.51
412.401	4.44
412.609	147.8
412.818	131.41
413.026	43.35
413.234	39.25
413.443	16.73
413.651	-7.85
413.86	76.12
414.068	160.08
414.276	176.47
414.485	-59.05
414.693	158.03
414.901	182.61
415.11	78.16
415.318	55.64
415.526	53.59
415.734	100.69
415.943	20.82
416.151	149.84
416.359	-32.43
416.567	133.46
416.776	131.41
416.984	49.49
417.192	174.42
417.4	-26.28
417.608	-24.23
417.817	26.96
418.025	131.41
418.233	205.14
418.441	-5.8
418.649	-1.71
418.857	65.88
419.065	190.8
419.273	51.54
419.481	31.06
419.689	112.98
419.897	-18.09
420.105	8.53
420.313	137.56
420.521	104.79
420.729	182.61
420.937	-52.91
421.145	-16.04
421.353	166.23
421.561	231.76
421.769	82.26
421.977	33.11
422.185	67.92
422.393	115.03
422.601	162.13
422.809	147.8
423.017	-24.23
423.224	96.6
423.432	151.89
423.64	92.5
423.848	135.51
424.056	49.49
424.263	162.13
424.471	72.02
424.679	90.45
424.887	-28.33
425.094	110.93
425.302	215.38
425.51	37.2
425.718	162.13
425.925	88.4
426.133	4.44
426.341	160.08
426.548	26.96
426.756	-16.04
426.964	63.83
427.171	45.4
427.379	20.82
427.586	61.78
427.794	141.65
428.001	149.84
428.209	121.17
428.417	213.33
428.624	158.03
428.832	90.45
429.039	57.68
429.247	170.32
429.454	133.46
429.662	242
429.869	135.51
430.076	162.13
430.284	205.14
430.491	252.24
430.699	137.56
430.906	205.14
431.114	90.45
431.321	160.08
431.528	104.79
431.736	104.79
431.943	221.52
432.15	285.01
432.358	147.8
432.565	272.72
432.772	55.64
432.979	309.58
433.187	145.75
433.394	233.81
433.601	86.36
433.808	223.57
434.016	235.86
434.223	246.1
434.43	155.99
434.637	219.47
434.844	280.91
435.052	180.56
435.259	262.48
435.466	258.39
435.673	252.24
435.88	301.39
436.087	317.78
436.294	262.48
436.501	276.82
436.708	293.2
436.915	186.71
437.122	336.21
437.329	182.61
437.537	313.68
437.743	328.02
437.95	534.86
438.157	344.4
438.364	379.22
438.571	358.74
438.778	432.46
438.985	389.46
439.192	444.75
439.399	336.21
439.606	399.7
439.813	526.67
440.02	551.24
440.227	645.45
440.433	504.14
440.64	444.75
440.847	467.28
441.054	483.66
441.261	645.45
441.467	549.2
441.674	485.71
441.881	680.27
442.088	639.31
442.294	602.44
442.501	756.04
442.708	710.99
442.914	715.08
443.121	817.48
443.328	790.86
443.534	872.78
443.741	868.68
443.948	678.22
444.154	966.98
444.361	1020.23
444.568	975.17
444.774	889.16
444.981	866.63
445.187	1110.34
445.394	1036.61
445.6	1071.43
445.807	1278.27
446.013	1145.16
446.22	1050.95
446.426	1272.13
446.633	1462.59
446.839	1511.74
447.046	1315.14
447.252	1358.14
447.459	1519.93
447.665	1552.7
447.871	1616.19
448.078	1780.03
448.284	1782.07
448.491	1757.5
448.697	1870.14
448.903	2027.83
449.11	1999.16
449.316	1919.29
449.522	2175.28
449.728	2142.52
449.935	2324.79
450.141	2285.87
450.347	2570.54
450.553	2509.1
450.76	2564.4
450.966	2697.52
451.172	2642.22
451.378	2855.21
451.584	2916.65
451.791	3146.02
451.997	3236.13
452.203	3348.77
452.409	3584.29
452.615	3621.15
452.821	3440.93
453.027	3588.38
453.233	4012.31
453.44	3739.93
453.646	4167.96
453.852	4206.87
454.058	4432.15
454.264	4395.28
454.47	4841.74
454.676	4778.25
454.882	5363.97
455.088	5083.4
455.294	5345.54
455.5	5617.92
455.705	5964.03
455.911	6066.42
456.117	6113.53
456.323	6506.74
456.529	6500.59
456.735	6916.33
456.941	7297.25
457.147	7518.43
457.352	7626.98
457.558	7854.3
457.764	8409.3
457.97	8544.47
458.176	8577.23
458.381	9083.08
458.587	9421
458.793	10016.96
458.999	9857.21
459.204	11403.43
459.41	11602.08
459.616	11378.86
459.821	12292.25
460.027	12652.69
460.233	13222.03
460.438	13170.83
460.644	14008.45
460.85	13904
461.055	14526.58
461.261	15583.34
461.466	14850.16
461.672	15425.64
461.878	17195.09
462.083	16910.42
462.289	17221.71
462.494	18030.66
462.7	18034.75
462.905	18675.77
463.111	19798.06
463.316	20914.2
463.522	21080.08
463.727	21944.33
463.932	22863.86
464.138	23273.46
464.343	24391.65
464.549	24442.85
464.754	26122.18
464.959	27111.35
465.165	27697.07
465.37	27572.14
465.575	26984.38
465.781	29218.71
465.986	30099.34
466.191	29695.89
466.397	29955.98
466.602	29339.54
466.807	30709.63
467.012	31444.85
467.218	31952.75
467.423	31862.64
467.628	32896.86
467.833	34400.07
468.038	34113.36
468.244	33634.13
468.449	34957.12
468.654	34191.18
468.859	34398.02
469.064	34424.65
469.269	33644.37
469.474	34105.16
469.679	34776.9
469.885	33720.15
470.09	34303.82
470.295	34711.36
470.5	33963.86
470.705	34025.29
470.91	33118.04
471.115	32536.42
471.32	32866.14
471.525	33091.42
471.73	31967.09
471.935	31776.62
472.139	30699.39
472.344	31037.31
472.549	30332.81
472.754	30197.64
472.959	29476.76
473.164	28639.14
473.369	27803.57
473.574	28741.53
473.778	27938.73
473.983	27705.26
474.188	27246.52
474.393	25837.52
474.598	26060.74
474.802	25434.07
475.007	24793.05
475.212	24905.69
475.417	23951.34
475.621	23584.75
475.826	23373.81
476.031	22736.89
476.235	22388.74
476.44	22327.3
476.645	21409.81
476.849	21514.25
477.054	21266.45
477.259	20819.99
477.463	20805.66
477.668	19968.04
477.872	19963.94
478.077	19351.6
478.282	18714.68
478.486	19132.47
478.691	18573.37
478.895	18556.99
479.1	17993.79
479.304	18366.53
479.509	17487.95
479.713	17905.73
479.918	17514.57
480.122	16783.45
480.326	17188.94
480.531	17123.41
480.735	16851.03
480.94	16885.84
481.144	17082.45
481.348	16472.15
481.553	16539.74
481.757	16021.6
481.961	16091.23
482.166	16320.6
482.37	16078.94
482.574	15708.26
482.778	15474.79
482.983	15949.92
483.187	15532.14
483.391	15444.07
483.595	15226.99
483.8	14860.4
484.004	15106.16
484.208	14979.18
484.412	14786.68
484.616	14524.54
484.821	14571.64
485.025	14016.64
485.229	14143.61
485.433	13987.97
485.637	13713.54
485.841	13535.37
486.045	13594.76
486.249	13150.35
486.453	13256.84
486.657	13078.67
486.861	12597.4
487.065	12449.94
487.269	12308.63
487.473	11862.18
487.677	12085.4
487.881	11929.76
488.085	11419.82
488.289	11507.88
488.493	11145.39
488.697	11217.07
488.901	10889.39
489.105	10754.23
489.309	10735.79
489.512	10455.22
489.716	10152.12
489.92	10000.57
490.124	9789.63
490.328	9808.06
490.531	9541.83
490.735	9394.37
490.939	9334.98
491.143	9005.26
491.346	8906.96
491.55	9091.27
491.754	8790.22
491.958	8587.47
492.161	8464.6
492.365	8141.02
492.569	7985.37
492.772	8034.52
492.976	8151.26
493.18	7864.54
493.383	7829.73
493.587	7534.82
493.79	7848.16
493.994	7321.83
494.197	7383.27
494.401	7426.28
494.605	7461.09
494.808	7287.01
495.012	7264.49
495.215	7196.9
495.419	7356.65
495.622	7082.22
495.825	6891.76
496.029	7031.02
496.232	7012.59
496.436	6797.55
496.639	7059.69
496.843	6856.94
497.046	7012.59
497.249	7033.07
497.453	7055.59
497.656	6799.6
497.859	6818.03
498.063	6951.15
498.266	7160.04
498.469	6951.15
498.673	7018.73
498.876	7074.03
499.079	7071.98
499.282	7039.21
499.485	7336.17
499.689	7321.83
499.892	7231.72
500.095	7201
500.298	7428.32
500.501	7297.25
500.705	7420.13
500.908	7479.52
501.111	7553.25
501.314	7839.97
501.517	7770.33
501.72	7821.53
501.923	7962.84
502.126	7981.28
502.329	8071.39
502.532	8079.58
502.735	8267.99
502.938	8384.73
503.141	8777.94
503.344	8642.77
503.547	8720.59
503.75	8564.95
503.953	9044.17
504.156	9107.66
504.359	9251.02
504.562	9212.1
504.765	9480.39
504.968	9603.27
505.17	9732.29
505.373	10109.12
505.576	10309.82
505.779	10188.99
505.982	10551.48
506.185	10827.95
506.387	10657.97
506.59	10905.77
506.793	11376.81
506.996	11385
507.198	11704.48
507.401	11876.51
507.604	12058.78
507.807	12507.29
508.009	12632.21
508.212	12810.39
508.415	12953.74
508.617	13252.75
508.82	13469.83
509.022	13867.14
509.225	14076.03
509.428	14184.57
509.63	14643.32
509.833	14766.2
510.035	15450.22
510.238	15679.59
510.44	16023.65
510.643	16320.6
510.845	16961.62
511.048	17053.78
511.25	17406.03
511.453	17623.11
511.655	18376.76
511.858	18710.58
512.06	18997.3
512.262	19408.94
512.465	19413.04
512.667	20465.69
512.87	20658.2
513.072	21045.27
513.274	21684.23
513.477	22431.74
513.679	22556.67
513.881	23093.24
514.084	23508.97
514.286	23773.16
514.488	24602.59
514.69	25542.61
514.893	25694.16
515.095	26009.54
515.297	27027.38
515.499	27140.02
515.701	27924.4
515.904	28864.41
516.106	29253.53
516.308	29812.62
516.51	30320.52
516.712	30996.35
516.914	31422.33
517.116	32294.76
517.318	33134.43
517.52	33146.72
517.722	33716.05
517.925	34281.29
518.127	34856.77
518.329	35645.24
518.531	35866.42
518.733	37117.73
518.935	37435.16
519.136	38010.64
519.338	38674.18
519.54	39044.87
519.742	40244.98
519.944	40238.83
520.146	41264.86
520.348	41897.69
520.55	41879.25
520.752	42368.72
520.954	43218.63
521.155	43267.78
521.357	44050.1
521.559	44482.22
521.761	45192.87
521.963	45813.4
522.164	45774.49
522.366	46130.84
522.568	46966.41
522.77	47132.29
522.971	47629.95
523.173	47308.42
523.375	47976.06
523.576	48197.24
523.778	47988.35
523.98	48762.48
524.181	49213.03
524.383	48852.59
524.584	49647.2
524.786	49600.1
524.988	48993.9
525.189	50308.69
525.391	49761.89
525.592	50206.3
525.794	50060.89
525.995	49776.22
526.197	49788.51
526.398	49966.68
526.6	50296.41
526.801	49645.15
527.003	49712.73
527.204	49872.48
527.406	49716.83
527.607	49204.84
527.808	49471.07
528.01	48184.95
528.211	48236.15
528.412	48363.12
528.614	48176.76
528.815	47898.23
529.016	47718.01
529.218	46691.98
529.419	46818.95
529.62	46429.84
529.822	45706.91
530.023	45495.97
530.224	45342.37
530.425	45047.46
530.626	43865.78
530.828	43394.75
531.029	43828.92
531.23	43091.65
531.431	42522.32
531.632	42137.3
531.833	41629.4
532.035	40943.33
532.236	41062.11
532.437	39821.05
532.638	39663.35
532.839	38911.75
533.04	38989.57
533.241	38307.6
533.442	38149.9
533.643	37498.65
533.844	36673.32
534.045	36484.9
534.246	35725.11
534.447	35784.5
534.648	34873.15
534.849	34813.76
535.05	33589.08
535.251	33572.69
535.451	32864.1
535.652	32984.93
535.853	31973.23
536.054	31770.48
536.255	31295.35
536.456	31086.46
536.657	31047.55
536.857	30156.68
537.058	29597.59
537.259	29400.98
537.46	29378.45
537.66	28426.15
537.861	28121
538.062	27813.8
538.263	27486.13
538.463	27029.43
538.664	26941.37
538.865	26787.77
539.065	26410.95
539.266	25821.13
539.466	25862.09
539.667	25352.15
539.868	25331.67
540.068	24700.89
540.269	24496.1
540.469	24211.43
540.67	24039.4
540.87	23748.59
541.071	23244.79
541.271	23052.28
541.472	22937.59
541.672	22484.99
541.873	22259.71
542.073	21743.63
542.274	21915.65
542.474	21493.77
542.675	21389.33
542.875	21258.26
543.075	20856.86
543.276	20439.07
543.476	20496.41
543.676	20277.28
543.877	20072.48
544.077	19712.04
544.277	19662.89
544.478	19374.13
544.678	19521.58
544.878	18909.24
545.078	18837.56
545.279	18397.24
545.479	18085.95
545.679	18106.43
545.879	17983.55
546.079	17756.23
546.28	17274.96
546.48	17174.61
546.68	17410.12
546.88	17000.53
547.08	16619.61
547.28	16406.62
547.48	15919.2
547.68	16181.34
547.88	15870.05
548.081	15609.96
548.281	15384.68
548.481	15210.61
548.681	15239.28
548.881	14874.74
549.081	14725.24
549.28	14260.35
549.48	14235.77
549.68	14147.71
549.88	14092.41
550.08	13537.41
550.28	13582.47
550.48	13459.59
550.68	13303.95
550.88	12853.39
551.08	12961.94
551.279	12863.63
551.479	12454.04
551.679	12523.67
551.879	12028.06
552.079	12075.17
552.278	11825.31
552.478	11815.07
552.678	11462.82
552.878	11380.9
553.077	10973.36
553.277	10805.42
553.477	10739.89
553.676	10688.69
553.876	10440.89
554.076	10197.18
554.275	10186.94
554.475	9789.63
554.674	9875.65
554.874	9883.84
555.074	9371.85
555.273	9476.29
555.473	9218.25
555.672	9019.6
555.872	9023.69
556.071	8962.25
556.271	8945.87
556.47	8550.61
556.67	8409.3
556.869	8153.3
557.068	8171.74
557.268	7932.12
557.467	7946.46
557.667	7899.36
557.866	7770.33
558.065	7573.73
558.265	7500
558.464	7055.59
558.663	7180.52
558.863	6897.9
559.062	7059.69
559.261	6865.13
559.461	6850.8
559.66	6523.12
559.859	6344.95
560.058	6179.06
560.258	6289.65
560.457	6213.88
560.656	6142.2
560.855	6011.13
561.054	6054.14
561.253	5830.91
561.453	5693.69
561.652	5675.26
561.851	5634.3
562.05	5435.65
562.249	5234.95
562.448	5357.83
562.647	5181.7
562.846	5052.68
563.045	5185.8
563.244	5060.87
563.443	5069.06
563.642	4782.35
563.841	4927.75
564.04	4763.92
564.239	4679.95
564.438	4501.78
564.637	4485.39
564.836	4411.67
565.035	4327.7
565.234	4305.17
565.432	4155.67
565.631	4186.39
565.83	4028.7
566.029	4045.08
566.228	3952.92
566.427	4077.85
566.625	3805.47
566.824	3899.67
567.023	3805.47
567.222	3795.23
567.42	3811.61
567.619	3760.41
567.818	3694.88
568.016	3713.31
568.215	3563.81
568.414	3578.14
568.612	3422.5
568.811	3184.93
569.01	3330.34
569.208	3227.94
569.407	3289.38
569.605	3107.11
569.804	3094.82
570.002	3139.88
570.201	3006.76
570.4	3088.68
570.598	3047.72
570.797	2916.65
570.995	2890.03
571.193	2857.26
571.392	2752.81
571.59	2775.34
571.789	2771.24
571.987	2683.18
572.186	2783.53
572.384	2572.59
572.582	2578.73
572.781	2525.49
572.979	2398.51
573.177	2382.13
573.376	2404.66
573.574	2355.51
573.772	2400.56
573.971	2195.76
574.169	2128.18
574.367	2259.25
574.565	2146.61
574.763	2107.7
574.962	2156.85
575.16	2044.21
575.358	2007.35
575.556	1982.78
575.754	1929.53
575.952	1980.73
576.151	1964.34
576.349	2013.49
576.547	1909.05
576.745	1921.34
576.943	1829.18
577.141	1790.27
577.339	1683.77
577.537	1618.24
577.735	1702.2
577.933	1775.93
578.131	1540.41
578.329	1747.26
578.527	1569.09
578.725	1593.66
578.923	1446.21
579.121	1538.37
579.319	1446.21
579.516	1622.33
579.714	1630.52
579.912	1554.75
580.11	1360.19
580.308	1335.62
580.506	1341.76
580.704	1306.95
580.901	1263.94
581.099	1407.3
581.297	1347.9
581.495	1261.89
581.692	1184.07
581.89	1313.09
582.088	1237.31
582.285	1229.12
582.483	1159.49
582.681	1071.43
582.878	1085.76
583.076	1155.4
583.274	1136.96
583.471	1227.07
583.669	1085.76
583.866	1073.48
584.064	1079.62
584.262	956.74
584.459	923.98
584.657	1059.14
584.854	1126.72
585.052	1108.29
585.249	1009.99
585.447	1018.18
585.644	856.39
585.841	962.89
586.039	960.84
586.236	1055.05
586.434	864.58
586.631	780.62
586.828	762.19
587.026	940.36
587.223	821.58
587.42	774.47
587.618	891.21
587.815	897.35
588.012	768.33
588.21	731.47
588.407	880.97
588.604	870.73
588.801	715.08
588.999	680.27
589.196	817.48
589.393	745.8
589.59	745.8
589.787	717.13
589.984	803.15
590.182	807.24
590.379	762.19
590.576	708.94
590.773	739.66
590.97	774.47
591.167	764.23
591.364	778.57
591.561	682.31
591.758	784.71
591.955	762.19
592.152	797
592.349	643.4
592.546	639.31
592.743	565.58
592.94	686.41
593.137	655.69
593.334	776.52
593.531	647.5
593.727	708.94
593.924	725.32
594.121	594.25
594.318	665.93
594.515	713.03
594.712	848.2
594.908	811.34
595.105	688.46
595.302	704.84
595.499	794.95
595.696	893.26
595.892	721.23
596.089	825.67
596.286	772.43
596.482	799.05
596.679	917.83
596.876	768.33
597.072	846.15
597.269	926.02
597.466	878.92
597.662	823.62
597.859	911.69
598.055	954.69
598.252	946.5
598.448	1053
598.645	1122.63
598.841	1059.14
599.038	1235.27
599.234	1218.88
599.431	1233.22
599.627	1167.68
599.824	1374.53
600.02	1325.38
600.217	1390.91
600.413	1421.63
600.609	1405.25
600.806	1808.7
601.002	1538.37
601.198	1562.94
601.395	1859.9
601.591	1724.73
601.787	1827.13
601.984	1982.78
602.18	2003.25
602.376	2017.59
602.572	2206
602.769	2220.34
602.965	2326.83
603.161	2400.56
603.357	2550.06
603.553	2621.74
603.75	2623.79
603.946	2531.63
604.142	2777.39
604.338	2904.36
604.534	2908.46
604.73	3010.86
604.926	3137.83
605.122	3369.25
605.318	3285.28
605.514	3504.42
605.71	3289.38
605.906	3649.82
606.102	3574.05
606.298	3918.11
606.494	3967.26
606.69	4180.25
606.886	4256.02
607.082	4133.14
607.278	4401.43
607.474	4417.81
607.67	4671.76
607.866	4624.65
608.062	4989.19
608.257	4987.15
608.453	5114.12
608.649	5538.05
608.845	5400.83
609.041	5562.62
609.236	5734.65
609.432	5980.41
609.628	6211.83
609.824	6351.09
610.019	6252.79
610.215	6611.18
610.411	7008.49
610.606	6981.87
610.802	7147.75
610.998	7330.02
611.193	7588.07
611.389	7753.95
611.584	7880.93
611.78	8038.62
611.976	8159.45
612.171	8728.78
612.367	8540.37
612.562	8949.96
612.758	9201.86
612.953	9121.99
613.149	9611.46
613.344	9781.44
613.539	10145.98
613.735	10397.88
613.93	10709.17
614.126	10856.62
614.321	11417.77
614.517	11772.07
614.712	11737.25
614.907	12175.52
615.103	12533.91
615.298	12716.18
615.493	13111.44
615.688	13152.4
615.884	14049.41
616.079	13670.53
616.274	14469.24
616.47	14645.37
616.665	14934.13
616.86	15487.08
617.055	15536.23
617.25	16029.79
617.445	16683.09
617.641	16840.79
617.836	17393.74
618.031	17702.98
618.226	18268.22
618.421	18774.07
618.616	19335.21
618.811	19312.69
619.006	19839.01
619.201	20191.27
619.396	20797.46
619.591	21200.91
619.786	22048.77
619.981	22079.49
620.176	22808.57
620.371	23009.27
620.566	23713.77
620.761	23955.43
620.956	24690.65
621.151	24901.59
621.346	25679.82
621.541	25618.38
621.735	26621.89
621.93	26668.99
622.125	27594.67
622.32	27656.11
622.515	28669.86
622.709	28856.22
622.904	29304.73
623.099	29812.62
623.294	30730.11
623.488	30697.34
623.683	31477.62
623.878	31817.58
624.072	32653.16
624.267	32800.61
624.462	33283.93
624.656	33519.45
624.851	34201.42
625.046	34801.47
625.24	35446.58
625.435	35307.32
625.629	36316.97
625.824	36859.68
626.018	37371.68
626.213	37498.65
626.407	37998.35
626.602	38154
626.796	38964.99
626.991	39528.19
627.185	39522.04
627.38	39862.01
627.574	40019.7
627.768	40238.83
627.963	40648.43
628.157	40384.24
628.352	40969.96
628.546	40259.31
628.74	41287.39
628.935	40713.96
629.129	40466.16
629.323	40472.3
629.517	40087.28
629.712	40023.79
629.906	39761.65
630.1	39239.42
630.294	39440.12
630.489	38289.17
630.683	38407.95
630.877	37750.55
631.071	37117.73
631.265	36867.87
631.459	35759.92
631.653	34830.15
631.848	34381.64
632.042	33535.83
632.236	32933.73
632.43	31960.94
632.624	31133.56
632.818	30123.91
633.012	29378.45
633.206	28276.65
633.4	27719.6
633.594	26773.44
633.788	25786.32
633.982	24965.08
634.176	23814.12
634.369	23154.68
634.563	22370.3
634.757	21219.35
634.951	20723.74
635.145	19953.7
635.339	19367.98
635.533	18120.77
635.726	17805.38
635.92	16894.04
636.114	16257.12
636.308	15728.74
636.501	14964.85
636.695	14448.76
636.889	13471.88
637.083	13125.77
637.276	12619.92
637.47	12112.03
637.664	11763.87
637.857	11129
638.051	10737.84
638.244	10223.8
638.438	9816.26
638.632	9461.96
638.825	8949.96
639.019	8763.6
639.212	8339.67
639.406	8302.81
639.599	7665.89
639.793	7469.28
639.986	7254.25
640.18	7067.88
640.373	6555.89
640.567	6408.44
640.76	6007.03
640.954	5900.54
641.147	5601.54
641.34	5300.48
641.534	5124.36
641.727	5148.93
641.92	4907.27
642.114	4571.41
642.307	4471.06
642.5	4473.11
642.694	4135.19
642.887	3981.59
643.08	3948.83
643.273	3899.67
643.467	3582.24
643.66	3328.29
643.853	3229.99
644.046	3045.67
644.239	3076.39
644.432	2873.64
644.626	2634.03
644.819	2599.21
645.012	2548.01
645.205	2535.73
645.398	2552.11
645.591	2220.34
645.784	2208.05
645.977	2160.95
646.17	2019.64
646.363	1947.96
646.556	1841.47
646.749	1831.23
646.942	1851.71
647.135	1863.99
647.328	1591.61
647.521	1675.58
647.714	1528.13
647.907	1571.13
648.099	1395.01
648.292	1421.63
648.485	1253.7
648.678	1132.87
648.871	1268.03
649.064	1235.27
649.256	1110.34
649.449	1077.57
649.642	946.5
649.835	1014.09
650.027	942.41
650.22	1028.42
650.413	885.06
650.605	993.61
650.798	821.58
650.991	825.67
651.183	778.57
651.376	848.2
651.568	797
651.761	706.89
651.954	780.62
652.146	624.97
652.339	831.82
652.531	811.34
652.724	565.58
652.916	586.06
653.109	485.71
653.301	655.69
653.494	618.83
653.686	606.54
653.879	614.73
654.071	502.09
654.263	518.48
654.456	411.98
654.648	561.48
654.84	569.68
655.033	364.88
655.225	569.68
655.417	309.58
655.61	440.65
655.802	459.09
655.994	493.9
656.186	401.74
656.379	469.33
656.571	328.02
656.763	346.45
656.955	301.39
657.148	323.92
657.34	373.07
657.532	321.87
657.724	217.43
657.916	317.78
658.108	442.7
658.3	391.5
658.492	356.69
658.684	211.28
658.876	397.65
659.068	201.04
659.26	133.46
659.452	297.3
659.644	233.81
659.836	371.02
660.028	278.87
660.22	258.39
660.412	196.95
660.604	227.67
660.796	246.1
660.988	366.93
661.18	201.04
661.372	299.34
661.563	153.94
661.755	239.95
661.947	205.14
662.139	115.03
662.331	258.39
662.522	250.19
662.714	98.64
662.906	168.27
663.097	155.99
663.289	201.04
663.481	102.74
663.673	237.91
663.864	184.66
664.056	221.52
664.247	166.23
664.439	235.86
664.631	233.81
664.822	180.56
665.014	164.18
665.205	176.47
665.397	98.64
665.588	102.74
665.78	153.94
665.971	192.85
666.163	180.56
666.354	180.56
666.546	117.08
666.737	131.41
666.929	90.45
667.12	178.51
667.311	166.23
667.503	198.99
667.694	246.1
667.885	153.94
668.077	176.47
668.268	215.38
668.459	162.13
668.651	164.18
668.842	151.89
669.033	121.17
669.224	119.12
669.416	362.83
669.607	186.71
669.798	158.03
669.989	196.95
670.18	131.41
670.371	217.43
670.563	98.64
670.754	274.77
670.945	127.32
671.136	186.71
671.327	96.6
671.518	182.61
671.709	299.34
671.9	184.66
672.091	301.39
672.282	262.48
672.473	137.56
672.664	96.6
672.855	180.56
673.046	133.46
673.237	194.9
673.428	223.57
673.619	168.27
673.809	133.46
674	254.29
674.191	149.84
674.382	147.8
674.573	125.27
674.764	125.27
674.954	254.29
675.145	178.51
675.336	151.89
675.527	192.85
675.717	131.41
675.908	100.69
676.099	108.88
676.289	186.71
676.48	160.08
676.671	213.33
676.861	76.12
677.052	231.76
677.243	141.65
677.433	170.32
677.624	250.19
677.814	254.29
678.005	131.41
678.195	328.02
678.386	108.88
678.576	297.3
678.767	94.55
678.957	237.91
679.148	231.76
679.338	350.54
679.529	278.87
679.719	153.94
679.909	225.62
680.1	248.15
680.29	235.86
680.481	102.74
680.671	270.67
680.861	287.06
681.052	262.48
681.242	211.28
681.432	289.1
681.622	221.52
681.813	127.32
682.003	266.58
682.193	131.41
682.383	229.71
682.573	237.91
682.764	184.66
682.954	196.95
683.144	323.92
683.334	250.19
683.524	254.29
683.714	295.25
683.904	297.3
684.094	219.47
684.284	323.92
684.474	348.5
684.664	383.31
684.854	356.69
685.044	307.54
685.234	264.53
685.424	223.57
685.614	174.42
685.804	432.46
685.994	405.84
686.184	205.14
686.374	295.25
686.564	260.43
686.753	360.78
686.943	239.95
687.133	282.96
687.323	287.06
687.513	237.91
687.702	307.54
687.892	262.48
688.082	364.88
688.272	307.54
688.461	262.48
688.651	356.69
688.841	262.48
689.03	190.8
689.22	285.01
689.41	315.73
689.599	274.77
689.789	256.34
689.979	278.87
690.168	246.1
690.358	340.3
690.547	219.47
690.737	166.23
690.926	346.45
691.116	307.54
691.305	285.01
691.495	256.34
691.684	215.38
691.874	223.57
692.063	282.96
692.252	334.16
692.442	356.69
692.631	188.75
692.82	178.51
693.01	229.71
693.199	235.86
693.388	319.82
693.578	301.39
693.767	231.76
693.956	244.05
694.146	192.85
694.335	293.2
694.524	182.61
694.713	303.44
694.902	289.1
695.092	186.71
695.281	285.01
695.47	301.39
695.659	217.43
695.848	196.95
696.037	205.14
696.226	280.91
696.415	287.06
696.604	274.77
696.793	356.69
696.982	215.38
697.171	285.01
697.36	221.52
697.549	209.23
697.738	166.23
697.927	147.8
698.116	205.14
698.305	274.77
698.494	280.91
698.683	274.77
698.872	346.45
699.061	254.29
699.25	297.3
699.438	198.99
699.627	155.99
699.816	393.55
700.005	108.88
700.193	256.34
700.382	221.52
700.571	258.39
700.76	274.77
700.948	282.96
701.137	260.43
701.326	276.82
701.514	221.52
701.703	252.24
701.892	272.72
702.08	362.83
702.269	186.71
702.457	201.04
702.646	280.91
702.834	184.66
703.023	303.44
703.212	270.67
703.4	258.39
703.589	244.05
703.777	131.41
703.965	225.62
704.154	231.76
704.342	162.13
704.531	209.23
704.719	215.38
704.907	291.15
705.096	246.1
705.284	147.8
705.472	258.39
705.661	276.82
705.849	293.2
706.037	375.12
706.226	266.58
706.414	254.29
706.602	119.12
706.79	215.38
706.979	207.19
707.167	258.39
707.355	104.79
707.543	227.67
707.731	211.28
707.919	256.34
708.107	98.64
708.296	201.04
708.484	186.71
708.672	315.73
708.86	233.81
709.048	233.81
709.236	141.65
709.424	321.87
709.612	192.85
709.8	141.65
709.988	188.75
710.176	289.1
710.364	248.15
710.551	131.41
710.739	229.71
710.927	141.65
711.115	295.25
711.303	328.02
711.491	354.64
711.679	198.99
711.866	303.44
712.054	131.41
712.242	291.15
712.43	315.73
712.617	196.95
712.805	340.3
712.993	317.78
713.181	78.16
713.368	246.1
713.556	289.1
713.744	172.37
713.931	420.17
714.119	287.06
714.306	217.43
714.494	108.88
714.682	180.56
714.869	160.08
715.057	229.71
715.244	135.51
715.432	205.14
715.619	174.42
715.807	274.77
715.994	229.71
716.182	213.33
716.369	250.19
716.556	231.76
716.744	225.62
716.931	151.89
717.119	303.44
717.306	258.39
717.493	268.63
717.681	186.71
717.868	168.27
718.055	207.19
718.242	268.63
718.43	315.73
718.617	309.58
718.804	229.71
718.991	428.37
719.179	235.86
719.366	280.91
719.553	246.1
719.74	319.82
719.927	293.2
720.114	309.58
720.301	209.23
720.488	117.08
720.676	225.62
720.863	389.46
721.05	340.3
721.237	248.15
721.424	299.34
721.611	246.1
721.798	299.34
721.985	233.81
722.172	258.39
722.358	235.86
722.545	395.6
722.732	342.35
722.919	399.7
723.106	305.49
723.293	205.14
723.48	239.95
723.667	248.15
723.853	332.11
724.04	301.39
724.227	393.55
724.414	250.19
724.6	274.77
724.787	434.51
724.974	348.5
725.161	289.1
725.347	231.76
725.534	221.52
725.72	293.2
725.907	293.2
726.094	321.87
726.28	246.1
726.467	311.63
726.653	276.82
726.84	303.44
727.027	360.78
727.213	272.72
727.4	295.25
727.586	260.43
727.773	291.15
727.959	229.71
728.145	332.11
728.332	287.06
728.518	246.1
728.705	309.58
728.891	315.73
729.077	315.73
729.264	160.08
729.45	270.67
729.636	248.15
729.823	321.87
730.009	416.08
730.195	334.16
730.382	332.11
730.568	153.94
730.754	280.91
730.94	317.78
731.126	293.2
731.313	393.55
731.499	260.43
731.685	340.3
731.871	334.16
732.057	319.82
732.243	379.22
732.429	295.25
732.615	467.28
732.801	280.91
732.987	309.58
733.173	428.37
733.359	237.91
733.545	358.74
733.731	332.11
733.917	422.22
734.103	328.02
734.289	375.12
734.475	231.76
734.661	444.75
734.847	315.73
735.033	282.96
735.219	344.4
735.404	313.68
735.59	262.48
735.776	307.54
735.962	350.54
736.148	377.17
736.333	395.6
736.519	328.02
736.705	340.3
736.89	344.4
737.076	254.29
737.262	213.33
737.447	305.49
737.633	299.34
737.819	358.74
738.004	301.39
738.19	299.34
738.375	366.93
738.561	360.78
738.747	285.01
738.932	184.66
739.118	489.81
739.303	434.51
739.489	409.94
739.674	227.67
739.859	180.56
740.045	323.92
740.23	338.26
740.416	155.99
740.601	334.16
740.786	293.2
740.972	280.91
741.157	233.81
741.342	303.44
741.528	260.43
741.713	424.27
741.898	272.72
742.084	330.06
742.269	272.72
742.454	272.72
742.639	366.93
742.824	278.87
743.01	405.84
743.195	440.65
743.38	278.87
743.565	297.3
743.75	340.3
743.935	377.17
744.12	350.54
744.305	139.6
744.49	313.68
744.675	233.81
744.86	274.77
745.045	299.34
745.23	291.15
745.415	299.34
745.6	319.82
745.785	287.06
745.97	389.46
746.155	315.73
746.34	346.45
746.525	344.4
746.71	442.7
746.895	192.85
747.079	270.67
747.264	319.82
747.449	317.78
747.634	366.93
747.819	305.49
748.003	246.1
748.188	215.38
748.373	274.77
748.557	223.57
748.742	242
748.927	242
749.111	186.71
749.296	192.85
749.481	233.81
749.665	250.19
749.85	223.57
750.034	227.67
750.219	301.39
750.404	223.57
750.588	252.24
750.773	209.23
750.957	233.81
751.141	225.62
751.326	303.44
751.51	166.23
751.695	196.95
751.879	254.29
752.064	338.26
752.248	176.47
752.432	368.98
752.617	256.34
752.801	231.76
752.985	203.09
753.17	266.58
753.354	172.37
753.538	227.67
753.722	174.42
753.907	217.43
754.091	160.08
754.275	262.48
754.459	145.75
754.643	123.22
754.828	305.49
755.012	231.76
755.196	215.38
755.38	268.63
755.564	166.23
755.748	188.75
755.932	227.67
756.116	211.28
756.3	207.19
756.484	274.77
756.668	270.67
756.852	133.46
757.036	119.12
757.22	123.22
757.404	106.84
757.588	137.56
757.772	291.15
757.956	141.65
758.14	315.73
758.323	121.17
758.507	242
758.691	205.14
758.875	250.19
759.059	201.04
759.242	190.8
759.426	168.27
759.61	149.84
759.794	151.89
759.977	168.27
760.161	276.82
760.345	317.78
760.528	274.77
760.712	215.38
760.895	82.26
761.079	143.7
761.263	76.12
761.446	51.54
761.63	203.09
761.813	227.67
761.997	35.16
762.18	184.66
762.364	155.99
762.547	96.6
762.731	178.51
762.914	137.56
763.098	209.23
763.281	108.88
763.464	74.07
763.648	164.18
763.831	76.12
764.015	100.69
764.198	207.19
764.381	35.16
764.564	133.46
764.748	223.57
764.931	160.08
765.114	112.98
765.297	182.61
765.481	51.54
765.664	110.93
765.847	143.7
766.03	205.14
766.213	10.58
766.397	129.36
766.58	43.35
766.763	182.61
766.946	63.83
767.129	151.89
767.312	102.74
767.495	98.64
767.678	90.45
767.861	213.33
768.044	117.08
768.227	53.59
768.41	106.84
768.593	86.36
768.776	94.55
768.959	133.46
769.142	160.08
769.324	18.77
769.507	96.6
769.69	51.54
769.873	110.93
770.056	278.87
770.239	55.64
770.421	174.42
770.604	178.51
770.787	125.27
770.97	129.36
771.152	14.68
771.335	172.37
771.518	24.92
771.7	229.71
771.883	203.09
772.066	29.01
772.248	49.49
772.431	188.75
772.613	137.56
772.796	18.77
772.978	196.95
773.161	282.96
773.343	98.64
773.526	55.64
773.708	-28.33
773.891	6.49
774.073	119.12
774.256	45.4
774.438	196.95
774.621	59.73
774.803	59.73
774.985	35.16
775.168	98.64
775.35	-42.67
775.532	153.94
775.715	61.78
775.897	74.07
776.079	41.3
776.261	110.93
776.444	-11.95
776.626	86.36
776.808	-65.19
776.99	8.53
777.173	102.74
777.355	100.69
777.537	59.73
777.719	115.03
777.901	14.68
778.083	74.07
778.265	22.87
778.447	104.79
778.629	-44.71
778.811	39.25
778.993	123.22
779.175	151.89
779.357	67.92
779.539	45.4
779.721	20.82
779.903	176.47
780.085	47.44
780.267	149.84
780.449	110.93
780.631	135.51
780.812	198.99
780.994	74.07
781.176	80.21
781.358	94.55
781.54	98.64
781.721	117.08
781.903	182.61
782.085	-11.95
782.267	112.98
782.448	-20.14
782.63	67.92
782.812	110.93
782.993	131.41
783.175	115.03
783.357	-7.85
783.538	110.93
783.72	-26.28
783.901	82.26
784.083	127.32
784.264	69.97
784.446	-34.47
784.627	-7.85
784.809	133.46
784.99	12.63
785.172	88.4
785.353	121.17
785.535	76.12
785.716	41.3
785.897	-1.71
786.079	49.49
786.26	61.78
786.441	59.73
786.623	-79.53
786.804	24.92
786.985	98.64
787.167	72.02
787.348	53.59
787.529	49.49
787.71	94.55
787.891	35.16
788.073	31.06
788.254	-81.58
788.435	186.71
788.616	88.4
788.797	-69.29
788.978	12.63
789.159	6.49
789.34	35.16
789.522	-11.95
789.703	47.44
789.884	29.01
790.065	47.44
790.246	112.98
790.427	45.4
790.607	164.18
790.788	98.64
790.969	18.77
791.15	108.88
791.331	-5.8
791.512	-18.09
791.693	-26.28
791.874	31.06
792.054	203.09
792.235	160.08
792.416	22.87
792.597	31.06
792.778	26.96
792.958	55.64
793.139	78.16
793.32	57.68
793.5	-13.99
793.681	153.94
793.862	47.44
794.042	55.64
794.223	-13.99
794.404	-28.33
794.584	6.49
794.765	57.68
794.945	6.49
795.126	112.98
795.306	72.02
795.487	12.63
795.667	45.4
795.848	108.88
796.028	-5.8
796.209	102.74
796.389	33.11
796.57	41.3
796.75	16.73
796.93	-40.62
797.111	-30.38
797.291	29.01
797.471	49.49
797.652	-5.8
797.832	31.06
798.012	63.83
798.192	16.73
798.373	-42.67
798.553	6.49
798.733	65.88
798.913	-57
799.093	-3.75
799.274	115.03
799.454	63.83
799.634	69.97
799.814	121.17
799.994	65.88
800.174	49.49
800.354	-28.33
800.534	-97.96
800.714	76.12
800.894	-24.23
801.074	-28.33
801.254	0.34
801.434	117.08
801.614	2.39
801.794	-163.5
801.974	1972.54
802.154	-24.23
802.334	143.7
802.514	-61.1
802.693	29.01
802.873	22.87
803.053	86.36
803.233	76.12
803.413	20.82
803.592	20.82
803.772	-102.06
803.952	-42.67
804.131	-32.43
804.311	129.36
804.491	88.4
804.67	-1.71
804.85	-65.19
805.03	127.32
805.209	20.82
805.389	33.11
805.568	-7.85
805.748	-34.47
805.928	-50.86
806.107	49.49
806.287	51.54
806.466	82.26
806.646	74.07
806.825	-32.43
807.004	12.63
807.184	29.01
807.363	96.6
807.543	0.34
807.722	12.63
807.901	53.59
808.081	125.27
808.26	-48.81
808.439	-13.99
808.619	88.4
808.798	-34.47
808.977	16.73
809.156	123.22
809.336	37.2
809.515	76.12
809.694	-30.38
809.873	12.63
810.052	76.12
810.231	74.07
810.411	39.25
810.59	88.4
810.769	-46.76
810.948	108.88
811.127	-128.68
811.306	41.3
811.485	-32.43
811.664	133.46
811.843	2.39
812.022	-3.75
812.201	-54.95
812.38	24.92
812.559	18.77
812.737	102.74
812.916	-114.34
813.095	10.58
813.274	98.64
813.453	18.77
813.632	72.02
813.811	153.94
813.989	-52.91
814.168	55.64
814.347	-52.91
814.526	24.92
814.704	168.27
814.883	186.71
815.062	-13.99
815.24	78.16
815.419	-71.34
815.598	72.02
815.776	-77.48
815.955	39.25
816.133	-59.05
816.312	41.3
816.49	-44.71
816.669	-34.47
816.847	-61.1
817.026	10.58
817.204	90.45
817.383	22.87
817.561	-16.04
817.74	110.93
817.918	94.55
818.097	-50.86
818.275	-104.11
818.453	41.3
818.632	106.84
818.81	-42.67
818.988	-54.95
819.167	-97.96
819.345	-22.19
819.523	-102.06
819.701	55.64
819.879	39.25
820.058	39.25
820.236	-30.38
820.414	-7.85
820.592	20.82
820.77	39.25
820.948	-85.67
821.127	16.73
821.305	8.53
821.483	-20.14
821.661	2.39
821.839	-16.04
822.017	-75.43
822.195	-77.48
822.373	129.36
822.551	29.01
822.729	67.92
822.907	14.68
823.085	37.2
823.262	16.73
823.44	4.44
823.618	-46.76
823.796	-40.62
823.974	-13.99
824.152	-24.23
824.329	53.59
824.507	24.92
824.685	90.45
824.863	-11.95
825.04	-7.85
825.218	43.35
825.396	16.73
825.574	-1.71
825.751	45.4
825.929	-34.47
826.107	-161.45
826.284	0.34
826.462	61.78
826.639	-13.99
826.817	-136.87
826.994	35.16
827.172	-16.04
827.349	129.36
827.527	45.4
827.704	-18.09
827.882	-18.09
828.059	2.39
828.237	-124.58
828.414	155.99
828.591	-167.59
828.769	57.68
828.946	-36.52
829.124	18.77
829.301	112.98
829.478	-57
829.655	119.12
829.833	0.34
830.01	-32.43
830.187	-22.19
830.364	-18.09
830.542	2.39
830.719	252.24
830.896	98.64
831.073	39.25
831.25	24.92
831.427	55.64
831.604	-32.43
831.782	-48.81
831.959	72.02
832.136	-61.1
832.313	2.39
832.49	-5.8
832.667	-42.67
832.844	-48.81
833.021	31.06
833.198	18.77
833.374	-28.33
833.551	-24.23
833.728	-24.23
833.905	90.45
834.082	-106.15
834.259	72.02
834.436	151.89
834.612	43.35
834.789	65.88
834.966	-34.47
835.143	-18.09
835.319	-190.12
835.496	63.83
835.673	16.73
835.85	94.55
836.026	0.34
836.203	31.06
836.38	29.01
836.556	-52.91
836.733	-34.47
836.909	139.6
837.086	24.92
837.262	-114.34
837.439	-42.67
837.616	-120.49
837.792	2.39
837.968	49.49
838.145	-108.2
838.321	57.68
838.498	74.07
838.674	88.4
838.851	31.06
839.027	-46.76
839.203	20.82
839.38	8.53
839.556	8.53
839.732	88.4
839.909	76.12
840.085	24.92
840.261	-97.96
840.437	41.3
840.614	-1.71
840.79	14.68
840.966	41.3
841.142	-18.09
841.318	-3.75
841.494	57.68
841.671	86.36
841.847	-28.33
842.023	-52.91
842.199	12.63
842.375	80.21
842.551	-34.47
842.727	-67.24
842.903	151.89
843.079	-87.72
843.255	94.55
843.431	-1.71
843.607	41.3
843.783	-171.69
843.959	45.4
844.134	-30.38
844.31	49.49
844.486	6.49
844.662	-28.33
844.838	-13.99
845.013	45.4
845.189	72.02
845.365	-18.09
845.541	20.82
845.716	29.01
845.892	82.26
846.068	12.63
846.244	-26.28
846.419	88.4
846.595	-81.58
846.77	-54.95
846.946	47.44
847.122	-13.99
847.297	-30.38
847.473	108.88
847.648	-100.01
847.824	24.92
847.999	-61.1
848.175	-52.91
848.35	31.06
848.526	39.25
848.701	51.54
848.876	41.3
849.052	96.6
849.227	20.82
849.403	-1.71
849.578	-26.28
849.753	16.73
849.929	84.31
850.104	-42.67
850.279	2.39
850.454	53.59
850.63	74.07
850.805	6.49
850.98	49.49
851.155	49.49
851.33	-48.81
851.505	-71.34
851.681	174.42
851.856	-73.39
852.031	41.3
852.206	78.16
852.381	-16.04
852.556	-108.2
852.731	4.44
852.906	86.36
853.081	47.44
853.256	76.12
853.431	51.54
853.606	-48.81
853.781	-97.96
853.956	-173.74
854.131	49.49
854.305	-63.15
854.48	6.49
854.655	-102.06
854.83	-77.48
855.005	-16.04
855.18	-63.15
855.354	-11.95
855.529	35.16
855.704	-69.29
855.879	18.77
856.053	-93.87
856.228	-22.19
856.403	-26.28
856.577	16.73
856.752	-106.15
856.926	-71.34
857.101	43.35
857.276	-46.76
857.45	10.58
857.625	65.88
857.799	-73.39
857.974	10.58
858.148	-48.81
858.323	-36.52
858.497	-7.85
858.672	-91.82
858.846	-106.15
859.02	69.97
859.195	-85.67
859.369	-48.81
859.543	22.87
859.718	37.2
859.892	45.4
860.066	43.35
860.241	-11.95
860.415	-24.23
860.589	-65.19
860.763	-36.52
860.938	-42.67
861.112	22.87
861.286	-34.47
861.46	26.96
861.634	-28.33
861.808	74.07
861.982	-20.14
862.157	-91.82
862.331	-7.85
862.505	-67.24
862.679	-93.87
862.853	-20.14
863.027	-1.71
863.201	102.74
863.375	10.58
863.549	-40.62
863.722	59.73
863.896	90.45
864.07	-54.95
864.244	-1.71
864.418	63.83
864.592	4.44
864.766	47.44
864.939	8.53
865.113	-100.01
865.287	90.45
865.461	-161.45
865.634	49.49
865.808	6.49
865.982	-34.47
866.156	41.3
866.329	-163.5
866.503	12.63
866.676	112.98
866.85	49.49
867.024	-81.58
867.197	12.63
867.371	31.06
867.544	24.92
867.718	-50.86
867.891	129.36
868.065	-108.2
868.238	-30.38
868.412	67.92
868.585	-42.67
868.759	-22.19
868.932	-67.24
869.105	-71.34
869.279	10.58
869.452	-3.75
869.625	100.69
869.799	-42.67
869.972	-32.43
870.145	10.58
870.319	67.92
870.492	-48.81
870.665	-126.63
870.838	-57
871.011	-108.2
871.185	14.68
871.358	26.96
871.531	10.58
871.704	-85.67
871.877	-38.57
872.05	57.68
872.223	-163.5
872.396	92.5
872.569	41.3
872.742	-75.43
872.915	96.6
873.088	-5.8
873.261	-11.95
873.434	45.4
873.607	82.26
873.78	-11.95
873.953	-46.76
874.126	10.58
874.299	61.78
874.471	-11.95
874.644	-26.28
874.817	67.92
874.99	123.22
875.163	-46.76
875.335	45.4
875.508	-36.52
875.681	100.69
875.853	-104.11
876.026	-18.09
876.199	24.92
876.371	14.68
876.544	-57
876.717	-28.33
876.889	90.45
877.062	61.78
877.234	-140.97
877.407	-42.67
877.579	-50.86
877.752	29.01
877.924	123.22
878.097	110.93
878.269	51.54
878.442	-26.28
878.614	0.34
878.786	53.59
878.959	43.35
879.131	-11.95
879.303	-120.49
879.476	-16.04
879.648	-1.71
879.82	-44.71
879.993	-34.47
880.165	-57
880.337	-24.23
880.509	61.78
880.681	-114.34
880.854	-38.57
881.026	37.2
881.198	98.64
881.37	-28.33
881.542	-24.23
881.714	-18.09
881.886	10.58
882.058	14.68
882.23	-9.9
882.402	35.16
882.574	-18.09
882.746	39.25
882.918	72.02
883.09	14.68
883.262	86.36
883.434	4.44
883.606	-81.58
883.778	20.82
883.95	186.71
884.122	31.06
884.293	63.83
884.465	31.06
884.637	51.54
884.809	-30.38
884.98	-38.57
885.152	18.77
885.324	80.21
885.496	-63.15
885.667	-32.43
885.839	102.74
886.011	88.4
886.182	57.68
886.354	86.36
886.525	51.54
886.697	43.35
886.869	-40.62
887.04	-13.99
887.212	96.6
887.383	180.56
887.555	51.54
887.726	-13.99
887.897	-40.62
888.069	6.49
888.24	8.53
888.412	-1.71
888.583	-54.95
888.754	-30.38
888.926	-140.97
889.097	-104.11
889.268	-140.97
889.44	123.22
889.611	-108.2
889.782	-16.04
889.953	-120.49
890.125	72.02
890.296	-130.73
890.467	-44.71
890.638	-9.9
890.809	8.53
890.98	-46.76
891.151	39.25
891.323	117.08
891.494	-67.24
891.665	-40.62
891.836	-93.87
892.007	65.88
892.178	106.84
892.349	6.49
892.52	53.59
892.691	-18.09
892.862	-22.19
893.032	-71.34
893.203	14.68
893.374	29.01
893.545	16.73
893.716	-32.43
893.887	90.45
894.057	-73.39
894.228	-65.19
894.399	-50.86
894.57	102.74
894.74	26.96
894.911	53.59
895.082	-93.87
895.253	-85.67
895.423	12.63
895.594	131.41
895.764	45.4
895.935	-89.77
896.106	78.16
896.276	-73.39
896.447	-42.67
896.617	-40.62
896.788	-26.28
896.958	-44.71
897.129	-61.1
897.299	-69.29
897.47	166.23
897.64	20.82
897.81	-71.34
897.981	45.4
898.151	-71.34
898.322	-18.09
898.492	59.73
898.662	-83.63
898.832	33.11
899.003	-73.39
899.173	80.21
899.343	-89.77
899.513	-85.67
