Data from USB4F104151__66__10-43-56-473.txt Node

Date: Wed Feb 26 10:43:56 EST 2025
User: louis
Spectrometer: USB4F10415
Trigger mode: 4
Integration Time (sec): 1.000000E-1
Scans to average: 1
Electric dark correction enabled: true
Nonlinearity correction enabled: false
Boxcar width: 0
XAxis mode: Wavelengths
Number of Pixels in Spectrum: 3648
>>>>>Begin Spectral Data<<<<<
178.204	-439.8
178.424	-439.8
178.644	-439.8
178.864	-472.57
179.084	-435.71
179.304	-32.26
179.524	-19.97
179.744	25.09
179.964	43.52
180.184	-30.21
180.404	61.95
180.624	-75.26
180.844	14.85
181.064	-24.06
181.283	31.23
181.503	-79.36
181.723	84.48
181.943	-42.5
182.163	180.73
182.383	-81.41
182.602	41.47
182.822	117.25
183.042	18.94
183.262	0.51
183.482	45.57
183.701	-36.35
183.921	-5.63
184.141	8.7
184.361	104.96
184.58	-7.68
184.8	-22.02
185.02	-26.11
185.239	84.48
185.459	51.71
185.679	31.23
185.898	-69.12
186.118	109.05
186.338	115.2
186.557	76.29
186.777	-108.03
186.997	-48.64
187.216	49.66
187.436	176.64
187.655	27.14
187.875	43.52
188.095	-1.54
188.314	104.96
188.534	57.86
188.753	-11.78
188.973	137.73
189.192	135.68
189.412	-22.02
189.631	-28.16
189.851	25.09
190.07	150.01
190.29	-73.21
190.509	0.51
190.729	-22.02
190.948	55.81
191.168	242.17
191.387	74.24
191.607	-1.54
191.826	-1.54
192.045	20.99
192.265	88.57
192.484	86.53
192.704	45.57
192.923	-34.3
193.142	84.48
193.362	23.04
193.581	135.68
193.8	76.29
194.02	76.29
194.239	4.61
194.458	143.87
194.678	-24.06
194.897	-3.58
195.116	57.86
195.335	102.91
195.555	49.66
195.774	-26.11
195.993	31.23
196.212	23.04
196.432	-48.64
196.651	-5.63
196.87	51.71
197.089	274.94
197.308	76.29
197.528	154.11
197.747	-24.06
197.966	33.28
198.185	184.83
198.404	-5.63
198.623	115.2
198.842	53.76
199.062	80.38
199.281	72.19
199.5	55.81
199.719	117.25
199.938	61.95
200.157	80.38
200.376	137.73
200.595	51.71
200.814	107.01
201.033	18.94
201.252	88.57
201.471	96.77
201.69	61.95
201.909	25.09
202.128	115.2
202.347	92.67
202.566	80.38
202.785	-50.69
203.004	-42.5
203.223	281.08
203.442	0.51
203.661	-24.06
203.879	57.86
204.098	109.05
204.317	-73.21
204.536	78.33
204.755	51.71
204.974	117.25
205.193	-48.64
205.411	133.63
205.63	100.86
205.849	76.29
206.068	25.09
206.287	-7.68
206.505	107.01
206.724	74.24
206.943	8.7
207.162	-3.58
207.381	74.24
207.599	53.76
207.818	-44.54
208.037	-15.87
208.255	14.85
208.474	76.29
208.693	86.53
208.911	35.33
209.13	107.01
209.349	31.23
209.567	55.81
209.786	90.62
210.005	115.2
210.223	88.57
210.442	-58.88
210.661	-17.92
210.879	-46.59
211.098	14.85
211.316	12.8
211.535	76.29
211.753	-15.87
211.972	119.29
212.191	2.56
212.409	-32.26
212.628	113.15
212.846	-60.93
213.065	121.34
213.283	45.57
213.502	20.99
213.72	61.95
213.938	51.71
214.157	-7.68
214.375	-26.11
214.594	-38.4
214.812	61.95
215.031	-42.5
215.249	20.99
215.467	59.9
215.686	49.66
215.904	57.86
216.122	-32.26
216.341	100.86
216.559	61.95
216.778	-9.73
216.996	92.67
217.214	49.66
217.432	-17.92
217.651	-77.31
217.869	2.56
218.087	29.18
218.306	-3.58
218.524	-3.58
218.742	-44.54
218.96	100.86
219.179	-5.63
219.397	57.86
219.615	123.39
219.833	107.01
220.051	-11.78
220.27	86.53
220.488	104.96
220.706	72.19
220.924	-24.06
221.142	-52.74
221.36	-13.82
221.578	84.48
221.796	96.77
222.015	8.7
222.233	27.14
222.451	152.06
222.669	-34.3
222.887	12.8
223.105	-65.02
223.323	39.42
223.541	-54.78
223.759	117.25
223.977	37.38
224.195	137.73
224.413	74.24
224.631	25.09
224.849	-15.87
225.067	184.83
225.285	-22.02
225.503	37.38
225.721	-142.85
225.939	66.05
226.157	-13.82
226.375	225.79
226.592	33.28
226.81	41.47
227.028	41.47
227.246	72.19
227.464	47.62
227.682	33.28
227.9	55.81
228.117	12.8
228.335	74.24
228.553	-26.11
228.771	-19.97
228.989	-11.78
229.206	98.81
229.424	2.56
229.642	23.04
229.86	-81.41
230.077	33.28
230.295	27.14
230.513	90.62
230.731	66.05
230.948	156.16
231.166	121.34
231.384	-40.45
231.601	-24.06
231.819	195.07
232.037	-44.54
232.254	-36.35
232.472	41.47
232.689	-54.78
232.907	96.77
233.125	-32.26
233.342	-26.11
233.56	14.85
233.777	-36.35
233.995	59.9
234.213	102.91
234.43	2.56
234.648	8.7
234.865	-32.26
235.083	23.04
235.3	4.61
235.518	35.33
235.735	51.71
235.953	43.52
236.17	29.18
236.388	23.04
236.605	10.75
236.822	86.53
237.04	80.38
237.257	31.23
237.475	-65.02
237.692	55.81
237.909	37.38
238.127	14.85
238.344	39.42
238.562	8.7
238.779	-89.6
238.996	-62.98
239.214	129.53
239.431	59.9
239.648	53.76
239.865	76.29
240.083	111.1
240.3	2.56
240.517	29.18
240.735	-32.26
240.952	119.29
241.169	16.9
241.386	168.45
241.603	16.9
241.821	-1.54
242.038	66.05
242.255	135.68
242.472	-52.74
242.689	104.96
242.907	88.57
243.124	27.14
243.341	25.09
243.558	2.56
243.775	-30.21
243.992	-97.79
244.209	47.62
244.426	184.83
244.643	90.62
244.86	-48.64
245.078	51.71
245.295	82.43
245.512	53.76
245.729	-48.64
245.946	2.56
246.163	82.43
246.38	45.57
246.597	57.86
246.814	-7.68
247.031	-62.98
247.248	82.43
247.464	82.43
247.681	35.33
247.898	35.33
248.115	115.2
248.332	18.94
248.549	180.73
248.766	182.78
248.983	51.71
249.2	152.06
249.417	18.94
249.633	-24.06
249.85	53.76
250.067	-3.58
250.284	123.39
250.501	47.62
250.717	35.33
250.934	2.56
251.151	86.53
251.368	86.53
251.585	0.51
251.801	16.9
252.018	-5.63
252.235	10.75
252.451	-24.06
252.668	31.23
252.885	133.63
253.102	-11.78
253.318	43.52
253.535	4.61
253.752	10.75
253.968	-42.5
254.185	-120.32
254.401	53.76
254.618	16.9
254.835	68.09
255.051	117.25
255.268	41.47
255.484	-9.73
255.701	35.33
255.917	90.62
256.134	-19.97
256.351	102.91
256.567	-75.26
256.784	90.62
257	-58.88
257.217	64
257.433	43.52
257.65	25.09
257.866	178.69
258.082	-128.51
258.299	-95.74
258.515	45.57
258.732	-26.11
258.948	-19.97
259.165	64
259.381	-65.02
259.597	74.24
259.814	84.48
260.03	-69.12
260.246	47.62
260.463	107.01
260.679	154.11
260.895	-7.68
261.112	88.57
261.328	59.9
261.544	-32.26
261.761	197.12
261.977	-58.88
262.193	-19.97
262.409	111.1
262.626	41.47
262.842	80.38
263.058	45.57
263.274	70.14
263.49	20.99
263.707	76.29
263.923	53.76
264.139	-44.54
264.355	51.71
264.571	121.34
264.787	74.24
265.004	135.68
265.22	51.71
265.436	43.52
265.652	-13.82
265.868	23.04
266.084	12.8
266.3	90.62
266.516	-79.36
266.732	70.14
266.948	41.47
267.164	-85.5
267.38	88.57
267.596	20.99
267.812	143.87
268.028	64
268.244	-38.4
268.46	-32.26
268.676	-13.82
268.892	-7.68
269.108	-87.55
269.324	-28.16
269.54	-42.5
269.756	37.38
269.972	-118.27
270.188	-48.64
270.403	-97.79
270.619	6.66
270.835	59.9
271.051	-34.3
271.267	-3.58
271.483	-60.93
271.698	72.19
271.914	68.09
272.13	33.28
272.346	-50.69
272.562	152.06
272.777	119.29
272.993	49.66
273.209	-5.63
273.425	100.86
273.64	-46.59
273.856	33.28
274.072	-50.69
274.287	-13.82
274.503	74.24
274.719	98.81
274.934	18.94
275.15	-42.5
275.366	-5.63
275.581	4.61
275.797	41.47
276.012	37.38
276.228	14.85
276.444	39.42
276.659	64
276.875	-60.93
277.09	-77.31
277.306	-32.26
277.521	49.66
277.737	49.66
277.952	158.21
278.168	-38.4
278.383	57.86
278.599	-11.78
278.814	27.14
279.03	47.62
279.245	55.81
279.461	98.81
279.676	8.7
279.892	-34.3
280.107	-15.87
280.322	68.09
280.538	70.14
280.753	41.47
280.969	-32.26
281.184	-13.82
281.399	133.63
281.615	27.14
281.83	43.52
282.045	-42.5
282.26	-40.45
282.476	76.29
282.691	64
282.906	113.15
283.122	-5.63
283.337	31.23
283.552	76.29
283.767	-11.78
283.983	98.81
284.198	45.57
284.413	74.24
284.628	-58.88
284.843	61.95
285.058	-30.21
285.274	72.19
285.489	29.18
285.704	117.25
285.919	41.47
286.134	51.71
286.349	-3.58
286.564	2.56
286.779	162.3
286.995	80.38
287.21	-105.98
287.425	66.05
287.64	-62.98
287.855	45.57
288.07	-65.02
288.285	168.45
288.5	123.39
288.715	88.57
288.93	-15.87
289.145	-19.97
289.36	150.01
289.575	-19.97
289.79	86.53
290.004	-28.16
290.219	64
290.434	-87.55
290.649	6.66
290.864	10.75
291.079	-75.26
291.294	96.77
291.509	29.18
291.724	20.99
291.938	-79.36
292.153	80.38
292.368	-52.74
292.583	76.29
292.798	96.77
293.012	51.71
293.227	111.1
293.442	-44.54
293.657	61.95
293.871	90.62
294.086	43.52
294.301	158.21
294.516	137.73
294.73	39.42
294.945	-15.87
295.16	29.18
295.374	119.29
295.589	125.44
295.804	-9.73
296.018	70.14
296.233	127.49
296.447	-11.78
296.662	8.7
296.877	104.96
297.091	84.48
297.306	-13.82
297.52	4.61
297.735	-11.78
297.949	43.52
298.164	35.33
298.378	-26.11
298.593	10.75
298.807	10.75
299.022	-9.73
299.236	115.2
299.451	-44.54
299.665	8.7
299.88	12.8
300.094	100.86
300.309	33.28
300.523	41.47
300.737	33.28
300.952	29.18
301.166	104.96
301.381	-40.45
301.595	-36.35
301.809	53.76
302.024	61.95
302.238	16.9
302.452	109.05
302.667	-26.11
302.881	72.19
303.095	25.09
303.309	51.71
303.524	-65.02
303.738	10.75
303.952	-38.4
304.166	115.2
304.381	-36.35
304.595	209.4
304.809	-13.82
305.023	2.56
305.237	57.86
305.452	33.28
305.666	-11.78
305.88	20.99
306.094	113.15
306.308	131.58
306.522	25.09
306.736	20.99
306.95	102.91
307.164	61.95
307.379	-5.63
307.593	78.33
307.807	80.38
308.021	86.53
308.235	41.47
308.449	16.9
308.663	100.86
308.877	238.08
309.091	123.39
309.305	55.81
309.519	-40.45
309.733	168.45
309.947	-134.65
310.161	29.18
310.374	104.96
310.588	133.63
310.802	-30.21
311.016	4.61
311.23	107.01
311.444	-44.54
311.658	70.14
311.872	100.86
312.085	147.97
312.299	29.18
312.513	176.64
312.727	-40.45
312.941	27.14
313.154	137.73
313.368	20.99
313.582	27.14
313.796	80.38
314.009	-81.41
314.223	131.58
314.437	4.61
314.651	176.64
314.864	-11.78
315.078	12.8
315.292	-108.03
315.505	4.61
315.719	96.77
315.933	57.86
316.146	16.9
316.36	-24.06
316.573	96.77
316.787	147.97
317.001	74.24
317.214	4.61
317.428	12.8
317.641	-22.02
317.855	-38.4
318.068	-15.87
318.282	74.24
318.495	123.39
318.709	104.96
318.922	51.71
319.136	90.62
319.349	86.53
319.563	-3.58
319.776	107.01
319.99	-11.78
320.203	125.44
320.417	39.42
320.63	102.91
320.843	119.29
321.057	121.34
321.27	14.85
321.483	74.24
321.697	125.44
321.91	-15.87
322.124	66.05
322.337	82.43
322.55	-69.12
322.763	41.47
322.977	-30.21
323.19	0.51
323.403	-11.78
323.617	6.66
323.83	113.15
324.043	41.47
324.256	-1.54
324.469	-105.98
324.683	100.86
324.896	31.23
325.109	23.04
325.322	-48.64
325.535	31.23
325.748	96.77
325.962	-50.69
326.175	4.61
326.388	76.29
326.601	104.96
326.814	-24.06
327.027	-17.92
327.24	172.54
327.453	-87.55
327.666	76.29
327.879	119.29
328.092	53.76
328.305	98.81
328.518	41.47
328.731	-19.97
328.944	18.94
329.157	35.33
329.37	-15.87
329.583	207.36
329.796	182.78
330.009	-110.08
330.222	59.9
330.435	92.67
330.648	49.66
330.861	86.53
331.073	39.42
331.286	129.53
331.499	66.05
331.712	-60.93
331.925	35.33
332.138	51.71
332.35	115.2
332.563	-54.78
332.776	86.53
332.989	-38.4
333.202	2.56
333.414	20.99
333.627	51.71
333.84	-15.87
334.053	80.38
334.265	-26.11
334.478	-28.16
334.691	51.71
334.903	49.66
335.116	-5.63
335.329	12.8
335.541	8.7
335.754	170.49
335.966	12.8
336.179	-11.78
336.392	-105.98
336.604	-1.54
336.817	121.34
337.029	10.75
337.242	86.53
337.454	37.38
337.667	14.85
337.88	145.92
338.092	12.8
338.305	127.49
338.517	0.51
338.729	25.09
338.942	176.64
339.154	12.8
339.367	2.56
339.579	109.05
339.792	-128.51
340.004	20.99
340.217	41.47
340.429	14.85
340.641	12.8
340.854	4.61
341.066	6.66
341.278	72.19
341.491	193.02
341.703	82.43
341.915	18.94
342.128	107.01
342.34	80.38
342.552	-52.74
342.764	55.81
342.977	55.81
343.189	111.1
343.401	37.38
343.613	-81.41
343.826	27.14
344.038	-28.16
344.25	98.81
344.462	53.76
344.674	-17.92
344.886	-22.02
345.099	4.61
345.311	37.38
345.523	45.57
345.735	-99.84
345.947	29.18
346.159	12.8
346.371	33.28
346.583	-56.83
346.795	107.01
347.007	49.66
347.219	109.05
347.431	-32.26
347.643	78.33
347.855	59.9
348.067	205.31
348.279	-32.26
348.491	18.94
348.703	51.71
348.915	14.85
349.127	6.66
349.339	41.47
349.551	6.66
349.763	115.2
349.975	-24.06
350.187	113.15
350.399	121.34
350.61	57.86
350.822	14.85
351.034	16.9
351.246	84.48
351.458	55.81
351.669	35.33
351.881	72.19
352.093	90.62
352.305	78.33
352.517	6.66
352.728	74.24
352.94	104.96
353.152	137.73
353.363	-60.93
353.575	68.09
353.787	137.73
353.999	102.91
354.21	178.69
354.422	-36.35
354.633	-40.45
354.845	25.09
355.057	47.62
355.268	-40.45
355.48	88.57
355.692	-48.64
355.903	41.47
356.115	39.42
356.326	-79.36
356.538	125.44
356.749	129.53
356.961	135.68
357.172	59.9
357.384	6.66
357.595	145.92
357.807	-30.21
358.018	61.95
358.23	-40.45
358.441	186.88
358.653	2.56
358.864	41.47
359.075	-24.06
359.287	-7.68
359.498	72.19
359.709	39.42
359.921	-52.74
360.132	37.38
360.344	-46.59
360.555	4.61
360.766	102.91
360.977	82.43
361.189	90.62
361.4	-48.64
361.611	164.35
361.823	121.34
362.034	68.09
362.245	-77.31
362.456	12.8
362.667	78.33
362.879	-13.82
363.09	51.71
363.301	29.18
363.512	35.33
363.723	-116.22
363.935	-30.21
364.146	104.96
364.357	6.66
364.568	76.29
364.779	-77.31
364.99	143.87
365.201	-52.74
365.412	107.01
365.623	-28.16
365.834	-5.63
366.045	-22.02
366.256	29.18
366.467	100.86
366.678	59.9
366.889	-9.73
367.1	-56.83
367.311	133.63
367.522	-32.26
367.733	53.76
367.944	53.76
368.155	-32.26
368.366	115.2
368.577	115.2
368.788	74.24
368.999	-36.35
369.209	37.38
369.42	168.45
369.631	203.26
369.842	113.15
370.053	72.19
370.264	57.86
370.474	0.51
370.685	64
370.896	20.99
371.107	64
371.317	80.38
371.528	55.81
371.739	188.93
371.95	41.47
372.16	92.67
372.371	25.09
372.582	-19.97
372.792	98.81
373.003	31.23
373.214	25.09
373.424	107.01
373.635	-7.68
373.846	68.09
374.056	135.68
374.267	92.67
374.477	59.9
374.688	10.75
374.898	55.81
375.109	39.42
375.319	23.04
375.53	119.29
375.74	47.62
375.951	25.09
376.161	70.14
376.372	113.15
376.582	2.56
376.793	111.1
377.003	14.85
377.214	37.38
377.424	25.09
377.635	10.75
377.845	-38.4
378.055	176.64
378.266	-11.78
378.476	0.51
378.686	96.77
378.897	88.57
379.107	131.58
379.317	49.66
379.528	43.52
379.738	119.29
379.948	47.62
380.158	113.15
380.369	29.18
380.579	41.47
380.789	74.24
380.999	10.75
381.21	139.77
381.42	141.82
381.63	23.04
381.84	121.34
382.05	66.05
382.261	137.73
382.471	125.44
382.681	43.52
382.891	217.6
383.101	-36.35
383.311	35.33
383.521	-7.68
383.731	86.53
383.941	64
384.151	152.06
384.361	43.52
384.571	55.81
384.781	39.42
384.991	186.88
385.201	168.45
385.411	61.95
385.621	92.67
385.831	66.05
386.041	-38.4
386.251	14.85
386.461	43.52
386.671	39.42
386.881	74.24
387.091	29.18
387.301	133.63
387.511	35.33
387.72	76.29
387.93	80.38
388.14	-54.78
388.35	51.71
388.56	145.92
388.769	104.96
388.979	35.33
389.189	14.85
389.399	33.28
389.609	117.25
389.818	94.72
390.028	35.33
390.238	16.9
390.447	0.51
390.657	0.51
390.867	-48.64
391.076	-110.08
391.286	-13.82
391.496	-44.54
391.705	-67.07
391.915	125.44
392.125	115.2
392.334	-5.63
392.544	133.63
392.753	18.94
392.963	-11.78
393.172	37.38
393.382	-34.3
393.591	260.6
393.801	53.76
394.01	121.34
394.22	94.72
394.429	-7.68
394.639	27.14
394.848	68.09
395.058	35.33
395.267	-17.92
395.477	68.09
395.686	66.05
395.895	131.58
396.105	152.06
396.314	72.19
396.524	-48.64
396.733	16.9
396.942	104.96
397.152	72.19
397.361	100.86
397.57	72.19
397.78	-42.5
397.989	55.81
398.198	201.21
398.407	25.09
398.617	55.81
398.826	59.9
399.035	59.9
399.244	115.2
399.453	86.53
399.663	45.57
399.872	82.43
400.081	-65.02
400.29	109.05
400.499	10.75
400.708	190.97
400.917	-28.16
401.127	104.96
401.336	-34.3
401.545	221.69
401.754	88.57
401.963	-11.78
402.172	6.66
402.381	-48.64
402.59	-7.68
402.799	29.18
403.008	100.86
403.217	109.05
403.426	76.29
403.635	-38.4
403.844	51.71
404.053	4.61
404.262	31.23
404.471	176.64
404.68	82.43
404.888	96.77
405.097	33.28
405.306	84.48
405.515	80.38
405.724	147.97
405.933	94.72
406.142	41.47
406.35	102.91
406.559	-46.59
406.768	64
406.977	186.88
407.185	29.18
407.394	100.86
407.603	2.56
407.812	84.48
408.02	119.29
408.229	92.67
408.438	51.71
408.646	-24.06
408.855	-11.78
409.064	90.62
409.272	78.33
409.481	139.77
409.69	-103.93
409.898	-42.5
410.107	90.62
410.315	68.09
410.524	98.81
410.733	10.75
410.941	90.62
411.15	35.33
411.358	119.29
411.567	147.97
411.775	-5.63
411.984	82.43
412.192	107.01
412.401	-17.92
412.609	229.88
412.818	98.81
413.026	80.38
413.234	2.56
413.443	33.28
413.651	53.76
413.86	49.66
414.068	55.81
414.276	174.59
414.485	51.71
414.693	178.69
414.901	193.02
415.11	10.75
415.318	104.96
415.526	43.52
415.734	100.86
415.943	41.47
416.151	115.2
416.359	-26.11
416.567	84.48
416.776	10.75
416.984	64
417.192	178.69
417.4	-50.69
417.608	53.76
417.817	-91.65
418.025	125.44
418.233	227.84
418.441	-36.35
418.649	18.94
418.857	47.62
419.065	178.69
419.273	-42.5
419.481	76.29
419.689	45.57
419.897	47.62
420.105	57.86
420.313	23.04
420.521	111.1
420.729	125.44
420.937	-30.21
421.145	-81.41
421.353	37.38
421.561	182.78
421.769	53.76
421.977	16.9
422.185	29.18
422.393	-58.88
422.601	121.34
422.809	107.01
423.017	39.42
423.224	-34.3
423.432	141.82
423.64	70.14
423.848	96.77
424.056	-24.06
424.263	186.88
424.471	29.18
424.679	84.48
424.887	-11.78
425.094	109.05
425.302	70.14
425.51	33.28
425.718	109.05
425.925	80.38
426.133	66.05
426.341	229.88
426.548	35.33
426.756	84.48
426.964	160.25
427.171	31.23
427.379	96.77
427.586	66.05
427.794	104.96
428.001	162.3
428.209	102.91
428.417	152.06
428.624	184.83
428.832	184.83
429.039	104.96
429.247	102.91
429.454	119.29
429.662	215.55
429.869	190.97
430.076	166.4
430.284	92.67
430.491	276.99
430.699	139.77
430.906	238.08
431.114	45.57
431.321	78.33
431.528	141.82
431.736	107.01
431.943	111.1
432.15	137.73
432.358	193.02
432.565	281.08
432.772	-28.16
432.979	111.1
433.187	172.54
433.394	213.5
433.601	98.81
433.808	217.6
434.016	252.41
434.223	213.5
434.43	227.84
434.637	246.27
434.844	223.74
435.052	186.88
435.259	231.93
435.466	317.95
435.673	320
435.88	254.46
436.087	279.04
436.294	260.6
436.501	334.33
436.708	229.88
436.915	238.08
437.122	363
437.329	233.98
437.537	322.04
437.743	371.19
437.95	403.96
438.157	395.77
438.364	326.14
438.571	406.01
438.778	422.39
438.985	401.91
439.192	451.07
439.399	418.3
439.606	403.96
439.813	498.17
440.02	598.52
440.227	674.29
440.433	461.3
440.64	504.31
440.847	449.02
441.054	575.99
441.261	643.57
441.467	567.8
441.674	477.69
441.881	707.06
442.088	612.85
442.294	674.29
442.501	721.4
442.708	678.39
442.914	715.25
443.121	848.37
443.328	776.69
443.534	801.27
443.741	848.37
443.948	756.21
444.154	918
444.361	1122.8
444.568	1010.16
444.774	963.06
444.981	997.87
445.187	1063.41
445.394	1081.84
445.6	1012.21
445.807	1270.25
446.013	1253.87
446.22	1163.76
446.426	1384.94
446.633	1450.47
446.839	1526.25
447.046	1339.88
447.252	1597.93
447.459	1571.3
447.665	1376.75
447.871	1753.57
448.078	1802.72
448.284	1812.96
448.491	1890.79
448.697	2019.81
448.903	2126.3
449.11	2083.3
449.316	1999.33
449.522	2259.42
449.728	2277.85
449.935	2476.51
450.141	2372.06
450.347	2585.05
450.553	2693.59
450.76	2728.41
450.966	2775.51
451.172	2965.97
451.378	3109.33
451.584	3127.76
451.791	3367.37
451.997	3373.52
452.203	3475.91
452.409	3580.36
452.615	3764.68
452.821	3504.59
453.027	3635.66
453.233	4313.53
453.44	3967.43
453.646	4319.68
453.852	4473.28
454.058	4481.47
454.264	4725.18
454.47	5011.89
454.676	4923.83
454.882	5536.17
455.088	5282.22
455.294	5515.69
455.5	5904.81
455.705	6351.26
455.911	6416.8
456.117	6422.94
456.323	6594.97
456.529	6687.13
456.735	7147.92
456.941	7416.21
457.147	7793.03
457.352	7897.48
457.558	8075.65
457.764	8642.94
457.97	8915.32
458.176	9193.84
458.381	9673.07
458.587	9757.04
458.793	10166.63
458.999	10479.97
459.204	11753.8
459.41	12149.06
459.616	12024.14
459.821	12722.49
460.027	13138.23
460.233	13685.04
460.438	13924.65
460.644	14780.7
460.85	14735.65
461.055	15255.83
461.261	15915.28
461.466	15827.21
461.672	15880.46
461.878	17907.95
462.083	17791.22
462.289	18278.63
462.494	18632.93
462.7	18876.64
462.905	19171.55
463.111	20928.7
463.316	21778.61
463.522	22218.92
463.727	22988.96
463.932	23775.38
464.138	24529.03
464.343	25225.34
464.549	25829.49
464.754	27545.69
464.959	28317.78
465.165	28694.6
465.37	28295.25
465.575	28579.92
465.781	30550.06
465.986	31285.28
466.191	30949.42
466.397	31115.3
466.602	30322.74
466.807	32507.92
467.012	32872.46
467.218	33331.2
467.423	33452.03
467.628	33906.68
467.833	35727.33
468.038	35469.28
468.244	34820.08
468.449	36440.02
468.654	35860.44
468.859	35821.53
469.064	35930.08
469.269	35092.46
469.474	35348.45
469.679	36159.45
469.885	35317.73
470.09	36259.8
470.295	36110.3
470.5	35399.65
470.705	35395.56
470.91	34351.09
471.115	33951.74
471.32	35086.31
471.525	34744.3
471.73	33173.51
471.935	33224.71
472.139	31889.43
472.344	32253.97
472.549	31944.73
472.754	31422.5
472.959	30640.17
473.164	29497.41
473.369	29075.52
473.574	30142.52
473.778	29395.01
473.983	28944.45
474.188	28403.79
474.393	27142.24
474.598	27025.51
474.802	26103.92
475.007	25972.85
475.212	25927.8
475.417	24606.86
475.621	24725.64
475.826	24141.97
476.031	23611.54
476.235	23128.22
476.44	23236.77
476.645	22712.49
476.849	22345.9
477.054	22143.15
477.259	21510.33
477.463	21303.48
477.668	21039.29
477.872	20967.62
478.077	20402.38
478.282	19525.85
478.486	19536.09
478.691	19257.56
478.895	19075.29
479.1	18936.03
479.304	19054.81
479.509	18090.22
479.713	18720.99
479.918	18006.25
480.122	17684.72
480.326	18016.49
480.531	17948.91
480.735	17666.29
480.94	17258.74
481.144	17879.28
481.348	16873.73
481.553	17207.55
481.757	16742.66
481.961	16865.53
482.166	16675.07
482.37	16857.34
482.574	16085.26
482.778	16345.35
482.983	16386.31
483.187	16064.78
483.391	16019.72
483.595	15900.94
483.8	15657.23
484.004	15753.49
484.208	15352.09
484.412	15401.24
484.616	15311.13
484.821	15001.88
485.025	14477.6
485.229	14735.65
485.433	14485.79
485.637	14221.61
485.841	13984.04
486.045	13869.36
486.249	13898.03
486.453	13621.55
486.657	13406.52
486.861	13242.68
487.065	12886.33
487.269	13019.45
487.473	12337.48
487.677	12452.16
487.881	12548.42
488.085	12034.38
488.289	11858.25
488.493	11747.66
488.697	11618.64
488.901	11297.11
489.105	10967.38
489.309	10971.48
489.512	10637.66
489.716	10615.13
489.92	10236.26
490.124	10125.67
490.328	10234.21
490.531	9793.9
490.735	9695.6
490.939	9664.88
491.143	9398.64
491.346	9222.52
491.55	9167.22
491.754	8968.57
491.958	8898.94
492.161	8589.69
492.365	8501.63
492.569	8157.57
492.772	8401.28
492.976	8350.08
493.18	8198.53
493.383	8104.32
493.587	8137.09
493.79	7866.76
493.994	7602.57
494.197	7565.71
494.401	7563.66
494.605	7401.87
494.808	7373.2
495.012	7510.41
495.215	7444.88
495.419	7360.91
495.622	7215.51
495.825	7262.61
496.029	7037.33
496.232	7160.21
496.436	7145.87
496.639	7254.42
496.843	7066
497.046	7133.59
497.249	7152.02
497.453	7156.11
497.656	7035.28
497.859	7078.29
498.063	7102.87
498.266	7307.66
498.469	7039.38
498.673	7258.51
498.876	7348.62
499.079	7213.46
499.282	7231.89
499.485	7637.39
499.689	7444.88
499.892	7512.46
500.095	7203.22
500.298	7532.94
500.501	7502.22
500.705	7805.32
500.908	7688.59
501.111	7879.05
501.314	8012.17
501.517	8034.69
501.72	7963.01
501.923	7989.64
502.126	8219.01
502.329	8432
502.532	8237.44
502.735	8343.94
502.938	8794.49
503.141	8792.44
503.344	8716.67
503.547	9044.34
503.75	8927.61
503.953	9060.73
504.156	9286
504.359	9306.48
504.562	9673.07
504.765	9668.97
504.968	9996.65
505.17	9802.09
505.373	10180.96
505.576	10316.13
505.779	10246.5
505.982	10510.69
506.185	10910.04
506.387	10920.28
506.59	11524.43
506.793	11295.06
506.996	11370.83
507.198	12149.06
507.401	11915.59
507.604	12233.03
507.807	12517.7
508.009	12835.13
508.212	13039.93
508.415	13269.3
508.617	13406.52
508.82	13562.16
509.022	13781.29
509.225	14395.68
509.428	14809.37
509.63	14840.09
509.833	14897.44
510.035	15687.95
510.238	15954.19
510.44	16005.39
510.643	16748.8
510.845	16896.25
511.048	17191.16
511.25	17578.23
511.453	18004.21
511.655	18712.8
511.858	19083.48
512.06	19546.33
512.262	19697.88
512.465	20023.5
512.667	20940.99
512.87	21037.25
513.072	21139.65
513.274	21981.36
513.477	22388.91
513.679	23054.5
513.881	23238.81
514.084	24316.04
514.286	24363.15
514.488	24971.39
514.69	25700.47
514.893	26093.68
515.095	26466.41
515.297	27215.97
515.499	27693.15
515.701	28280.91
515.904	28807.24
516.106	29665.34
516.308	30097.46
516.51	30959.66
516.712	31070.25
516.914	32040.98
517.116	32696.33
517.318	33105.93
517.52	33781.76
517.722	34123.77
517.925	34826.22
518.127	35819.49
518.329	36210.65
518.531	36505.55
518.733	37337.03
518.935	38088.63
519.136	38604.72
519.338	39487.4
519.54	39978.91
519.742	40249.24
519.944	40740.75
520.146	41703.3
520.348	42135.42
520.55	42708.85
520.752	42776.44
520.954	43884.39
521.155	44144.48
521.357	44623.7
521.559	45123.41
521.761	46040.9
521.963	45899.59
522.164	46706.49
522.366	46585.66
522.568	47351.6
522.77	47290.16
522.971	48047.91
523.173	48121.63
523.375	48768.79
523.576	48729.88
523.778	48514.84
523.98	49182.48
524.181	49692.43
524.383	49444.62
524.584	49780.49
524.786	50149.12
524.988	49573.64
525.189	50288.38
525.391	50693.88
525.592	50564.86
525.794	50620.16
525.995	51207.92
526.197	50390.78
526.398	50456.32
526.6	50155.27
526.801	50382.59
527.003	50059.01
527.204	49882.89
527.406	49843.98
527.607	49960.71
527.808	50173.7
528.01	48852.76
528.211	49217.3
528.412	49487.63
528.614	48682.78
528.815	48279.33
529.016	48637.72
529.218	47218.48
529.419	47562.54
529.62	46780.21
529.822	46571.32
530.023	46153.54
530.224	45930.31
530.425	45375.31
530.626	44480.35
530.828	43937.63
531.029	44441.43
531.23	43290.48
531.431	43052.91
531.632	42702.71
531.833	42370.94
532.035	41633.67
532.236	41095.05
532.437	41031.57
532.638	40040.35
532.839	39944.09
533.04	39968.67
533.241	38447.03
533.442	38860.72
533.643	37935.04
533.844	37054.41
534.045	36943.82
534.246	36194.26
534.447	36153.3
534.648	35256.29
534.849	35008.49
535.05	34383.86
535.251	33933.31
535.451	33794.04
535.652	33163.27
535.853	32671.76
536.054	32387.09
536.255	31936.54
536.456	31221.8
536.657	31541.28
536.857	30509.1
537.058	29919.29
537.259	30044.21
537.46	29476.93
537.66	28950.6
537.861	28706.89
538.062	27899.99
538.263	27914.33
538.463	27494.49
538.664	26888.29
538.865	26929.25
539.065	26771.56
539.266	25968.76
539.466	26220.66
539.667	25223.3
539.868	25567.35
540.068	24934.53
540.269	24569.99
540.469	24393.87
540.67	24014.99
540.87	23937.17
541.071	23419.03
541.271	23529.62
541.472	23419.03
541.672	22874.27
541.873	22458.54
542.073	22079.66
542.274	21964.98
542.474	21590.2
542.675	21481.66
542.875	21276.86
543.075	21104.83
543.276	20746.44
543.476	20840.64
543.676	20691.14
543.877	19949.78
544.077	19996.88
544.277	19531.99
544.478	19540.18
544.678	19095.77
544.878	18929.89
545.078	18827.49
545.279	18262.25
545.479	18364.65
545.679	18401.51
545.879	17821.94
546.079	17783.02
546.28	17543.41
546.48	17146.11
546.68	17060.09
546.88	16998.65
547.08	16716.03
547.28	16386.31
547.48	16222.47
547.68	16185.61
547.88	16066.83
548.081	15900.94
548.281	15405.33
548.481	15311.13
548.681	15321.37
548.881	14997.79
549.081	14809.37
549.28	14629.15
549.48	14592.29
549.68	14201.13
549.88	14078.25
550.08	13695.28
550.28	13730.09
550.48	13551.92
550.68	13472.05
550.88	12939.58
551.08	12872
551.279	12796.22
551.479	12620.1
551.679	12702.01
551.879	12101.96
552.079	12157.25
552.278	11917.64
552.478	12032.33
552.678	11632.97
552.878	11311.44
553.077	11198.81
553.277	10826.07
553.477	10963.29
553.676	10643.81
553.876	10613.09
554.076	10359.14
554.275	10115.43
554.475	9808.23
554.674	9994.6
554.874	9808.23
555.074	9441.65
555.273	9513.33
555.473	9302.39
555.672	9154.93
555.872	8898.94
556.071	8780.15
556.271	8774.01
556.47	8448.38
556.67	8266.11
556.869	8270.21
557.068	8112.52
557.268	7840.14
557.467	7831.94
557.667	7758.22
557.866	7514.51
558.065	7512.46
558.265	7395.73
558.464	7184.79
558.663	7182.74
558.863	7117.2
559.062	7004.57
559.261	6715.8
559.461	6795.67
559.66	6488.48
559.859	6371.74
560.058	6199.71
560.258	6195.62
560.457	6240.67
560.656	6076.84
560.855	5994.92
561.054	5720.49
561.253	5964.2
561.453	5697.96
561.652	5679.53
561.851	5771.69
562.05	5431.73
562.249	5294.51
562.448	5403.05
562.647	5030.32
562.846	5165.49
563.045	5210.54
563.244	4819.38
563.443	5022.13
563.642	4768.18
563.841	4907.45
564.04	4637.11
564.239	4573.63
564.438	4581.82
564.637	4450.75
564.836	4278.72
565.035	4362.69
565.234	4329.92
565.432	4159.94
565.631	4116.93
565.83	4182.46
566.029	4094.4
566.228	4004.29
566.427	4125.12
566.625	3787.21
566.824	3934.66
567.023	3643.85
567.222	3662.28
567.42	3596.75
567.619	3697.1
567.818	3580.36
568.016	3668.42
568.215	3537.35
568.414	3488.2
568.612	3615.18
568.811	3379.66
569.01	3281.36
569.208	3240.4
569.407	3416.52
569.605	3207.63
569.804	3090.9
570.002	3094.99
570.201	2839
570.4	2994.64
570.598	2877.91
570.797	2836.95
570.995	2853.33
571.193	2755.03
571.392	2701.78
571.59	2623.96
571.789	2828.76
571.987	2630.1
572.186	2671.06
572.384	2507.23
572.582	2531.8
572.781	2691.54
572.979	2324.96
573.177	2482.65
573.376	2267.61
573.574	2296.28
573.772	2236.89
573.971	2191.84
574.169	2163.17
574.367	2288.09
574.565	2187.74
574.763	2171.36
574.962	2091.49
575.16	2073.06
575.358	1966.56
575.556	2028
575.754	2017.76
575.952	1907.17
576.151	1884.64
576.349	2046.43
576.547	1757.67
576.745	1833.44
576.943	1847.78
577.141	1675.75
577.339	1563.11
577.537	1726.95
577.735	1874.4
577.933	1729
578.131	1458.67
578.329	1702.37
578.527	1606.12
578.725	1606.12
578.923	1366.51
579.121	1593.83
579.319	1311.21
579.516	1434.09
579.714	1606.12
579.912	1419.75
580.11	1307.12
580.308	1395.18
580.506	1427.95
580.704	1327.6
580.901	1221.1
581.099	1403.37
581.297	1341.93
581.495	1264.11
581.692	1188.33
581.89	1360.36
582.088	1341.93
582.285	1077.74
582.483	1184.24
582.681	1188.33
582.878	954.87
583.076	1065.46
583.274	1180.14
583.471	1245.68
583.669	1038.83
583.866	952.82
584.064	973.3
584.262	999.92
584.459	1055.22
584.657	1008.11
584.854	1081.84
585.052	883.19
585.249	1067.5
585.447	979.44
585.644	899.57
585.841	903.67
586.039	946.67
586.236	1110.51
586.434	731.64
586.631	782.84
586.828	778.74
587.026	793.08
587.223	752.12
587.42	766.45
587.618	844.28
587.815	920.05
588.012	805.36
588.21	866.8
588.407	866.8
588.604	840.18
588.801	639.48
588.999	709.11
589.196	866.8
589.393	711.16
589.59	758.26
589.787	750.07
589.984	743.92
590.182	821.75
590.379	705.01
590.576	647.67
590.773	612.85
590.97	725.49
591.167	709.11
591.364	694.77
591.561	633.33
591.758	760.31
591.955	692.73
592.152	563.7
592.349	674.29
592.546	635.38
592.743	612.85
592.94	688.63
593.137	688.63
593.334	737.78
593.531	709.11
593.727	672.25
593.924	727.54
594.121	770.55
594.318	586.23
594.515	762.36
594.712	825.84
594.908	795.12
595.105	672.25
595.302	731.64
595.499	760.31
595.696	809.46
595.892	627.19
596.089	750.07
596.286	692.73
596.482	909.81
596.679	836.08
596.876	700.92
597.072	850.42
597.269	872.95
597.466	862.71
597.662	881.14
597.859	774.64
598.055	872.95
598.252	1087.98
598.448	1030.64
598.645	1018.35
598.841	1139.18
599.038	1202.67
599.234	1204.72
599.431	1274.35
599.627	1268.2
599.824	1327.6
600.02	1350.12
600.217	1288.68
600.413	1372.65
600.609	1518.06
600.806	1753.57
601.002	1630.7
601.198	1548.78
601.395	1649.13
601.591	1706.47
601.787	1882.6
601.984	1905.12
602.18	1874.4
602.376	2028
602.572	2163.17
602.769	2288.09
602.965	2355.68
603.161	2421.21
603.357	2460.12
603.553	2580.95
603.75	2521.56
603.946	2660.82
604.142	2701.78
604.338	2970.07
604.534	2974.16
604.73	3054.03
604.926	3185.1
605.122	3387.85
605.318	3287.5
605.514	3557.83
605.71	3598.79
605.906	3785.16
606.102	3875.27
606.298	3953.09
606.494	4088.26
606.69	4223.42
606.886	4305.34
607.082	4368.83
607.278	4444.6
607.474	4555.19
607.67	4692.41
607.866	4784.57
608.062	5081.52
608.257	5255.6
608.453	5224.88
608.649	5562.8
608.845	5495.21
609.041	5702.06
609.236	6062.5
609.432	5896.61
609.628	6336.93
609.824	6445.47
610.019	6588.83
610.215	6625.69
610.411	6988.18
610.606	7119.25
610.802	7156.11
610.998	7451.02
611.193	7762.31
611.389	7821.7
611.584	8065.41
611.78	8280.45
611.976	8542.59
612.171	8749.43
612.367	8978.81
612.562	9218.42
612.758	9345.39
612.953	9537.9
613.149	9935.21
613.344	9963.88
613.539	10631.52
613.735	10774.88
613.93	11104.6
614.126	11032.92
614.321	11825.48
614.517	12034.38
614.712	12163.4
614.907	12243.27
615.103	12742.97
615.298	12872
615.493	13361.46
615.688	13656.37
615.884	14532.9
616.079	14281
616.274	14928.16
616.47	15130.91
616.665	15368.47
616.86	15946
617.055	16316.68
617.25	16423.17
617.445	17088.76
617.641	17144.06
617.836	18071.79
618.031	17973.49
618.226	18839.78
618.421	19058.91
618.616	19882.19
618.811	19943.63
619.006	20842.69
619.201	20967.62
619.396	21459.13
619.591	21676.21
619.786	22610.09
619.981	22632.61
620.176	23666.84
620.371	23572.63
620.566	24526.99
620.761	24899.72
620.956	25647.22
621.151	25749.62
621.346	26355.82
621.541	26701.93
621.735	27543.64
621.93	27258.98
622.125	28311.63
622.32	28483.66
622.515	29511.74
622.709	29689.91
622.904	30263.35
623.099	30830.63
623.294	31680.54
623.488	31725.6
623.683	32548.88
623.878	32860.17
624.072	33495.04
624.267	34117.62
624.462	34883.56
624.656	34940.91
624.851	35530.72
625.046	36198.36
625.24	36636.62
625.435	37031.88
625.629	37357.51
625.824	38201.27
626.018	38598.58
626.213	38053.82
626.407	39276.46
626.602	39452.58
626.796	40419.22
626.991	40718.23
627.185	41027.47
627.38	41316.23
627.574	41518.98
627.768	41486.21
627.963	41693.06
628.157	42155.9
628.352	42340.22
628.546	41944.96
628.74	42659.7
628.935	41766.79
629.129	42293.11
629.323	41670.53
629.517	41828.23
629.712	41314.19
629.906	41133.96
630.1	40294.3
630.294	40630.16
630.489	40003.49
630.683	40071.07
630.877	38852.53
631.071	38631.35
631.265	37914.56
631.459	37230.54
631.653	36089.82
631.848	35813.34
632.042	34613.23
632.236	34109.43
632.43	32804.88
632.624	32319.51
632.818	31221.8
633.012	30283.83
633.206	29298.75
633.4	28848.2
633.594	27281.5
633.788	26851.43
633.982	25872.5
634.176	24909.96
634.369	24004.75
634.563	23150.75
634.757	22091.95
634.951	21270.72
635.145	20801.73
635.339	19845.33
635.533	18800.87
635.726	18421.99
635.92	17496.31
636.114	16771.33
636.308	15855.89
636.501	15835.41
636.695	15073.56
636.889	14043.43
637.083	13603.12
637.276	12747.07
637.47	12585.28
637.664	11925.83
637.857	11671.89
638.051	11176.28
638.244	10735.96
638.438	10279.27
638.632	9910.63
638.825	9337.2
639.019	9101.69
639.212	8722.81
639.406	8470.91
639.599	8030.6
639.793	7713.16
639.986	7440.78
640.18	7430.54
640.373	6789.53
640.567	6578.59
640.76	6402.46
640.954	6044.07
641.147	5878.18
641.34	5638.57
641.534	5552.56
641.727	5298.61
641.92	5310.89
642.114	4958.64
642.307	4676.02
642.5	4614.59
642.694	4268.48
642.887	4161.98
643.08	4182.46
643.273	3955.14
643.467	3699.14
643.66	3484.11
643.853	3320.27
644.046	3430.86
644.239	3207.63
644.432	2925.01
644.626	2865.62
644.819	2685.4
645.012	2722.26
645.205	2564.57
645.398	2748.89
645.591	2398.68
645.784	2167.26
645.977	2206.17
646.17	2118.11
646.363	2025.95
646.556	1944.03
646.749	1737.19
646.942	1792.48
647.135	1835.49
647.328	1675.75
647.521	1659.37
647.714	1628.65
647.907	1565.16
648.099	1485.29
648.292	1524.2
648.485	1294.83
648.678	1300.97
648.871	1198.57
649.064	1155.57
649.256	1135.09
649.449	1020.4
649.642	1006.06
649.835	938.48
650.027	989.68
650.22	1139.18
650.413	954.87
650.605	958.96
650.798	881.14
650.991	770.55
651.183	819.7
651.376	782.84
651.568	864.75
651.761	809.46
651.954	778.74
652.146	621.05
652.339	803.32
652.531	774.64
652.724	645.62
652.916	590.33
653.109	471.54
653.301	700.92
653.494	588.28
653.686	559.61
653.879	608.76
654.071	502.26
654.263	457.21
654.456	483.83
654.648	549.37
654.84	498.17
655.033	477.69
655.225	547.32
655.417	313.85
655.61	492.02
655.802	430.59
655.994	430.59
656.186	350.71
656.379	373.24
656.571	350.71
656.763	303.61
656.955	322.04
657.148	387.58
657.34	328.19
657.532	233.98
657.724	299.52
657.916	324.09
658.108	313.85
658.3	338.43
658.492	350.71
658.684	221.69
658.876	367.1
659.068	195.07
659.26	186.88
659.452	248.32
659.644	217.6
659.836	330.23
660.028	262.65
660.22	156.16
660.412	213.5
660.604	238.08
660.796	229.88
660.988	299.52
661.18	197.12
661.372	274.94
661.563	225.79
661.755	264.7
661.947	166.4
662.139	82.43
662.331	137.73
662.522	152.06
662.714	121.34
662.906	180.73
663.097	213.5
663.289	111.1
663.481	78.33
663.673	223.74
663.864	139.77
664.056	217.6
664.247	98.81
664.439	268.8
664.631	141.82
664.822	307.71
665.014	135.68
665.205	74.24
665.397	82.43
665.588	113.15
665.78	150.01
665.971	172.54
666.163	96.77
666.354	143.87
666.546	74.24
666.737	158.21
666.929	113.15
667.12	61.95
667.311	147.97
667.503	100.86
667.694	143.87
667.885	225.79
668.077	137.73
668.268	70.14
668.459	188.93
668.651	150.01
668.842	111.1
669.033	127.49
669.224	61.95
669.416	309.76
669.607	115.2
669.798	76.29
669.989	252.41
670.18	100.86
670.371	90.62
670.563	16.9
670.754	178.69
670.945	219.64
671.136	147.97
671.327	121.34
671.518	211.45
671.709	268.8
671.9	178.69
672.091	158.21
672.282	139.77
672.473	135.68
672.664	39.42
672.855	70.14
673.046	197.12
673.237	115.2
673.428	121.34
673.619	199.16
673.809	119.29
674	158.21
674.191	188.93
674.382	186.88
674.573	88.57
674.764	154.11
674.954	229.88
675.145	92.67
675.336	129.53
675.527	78.33
675.717	131.58
675.908	113.15
676.099	135.68
676.289	125.44
676.48	68.09
676.671	84.48
676.861	129.53
677.052	154.11
677.243	127.49
677.433	61.95
677.624	147.97
677.814	162.3
678.005	51.71
678.195	242.17
678.386	96.77
678.576	115.2
678.767	31.23
678.957	182.78
679.148	135.68
679.338	217.6
679.529	174.59
679.719	180.73
679.909	215.55
680.1	266.75
680.29	213.5
680.481	51.71
680.671	178.69
680.861	133.63
681.052	223.74
681.242	109.05
681.432	221.69
681.622	272.89
681.813	104.96
682.003	158.21
682.193	154.11
682.383	170.49
682.573	152.06
682.764	117.25
682.954	184.83
683.144	225.79
683.334	174.59
683.524	59.9
683.714	260.6
683.904	221.69
684.094	223.74
684.284	152.06
684.474	221.69
684.664	248.32
684.854	221.69
685.044	281.08
685.234	219.64
685.424	156.16
685.614	39.42
685.804	289.28
685.994	219.64
686.184	160.25
686.374	176.64
686.564	236.03
686.753	186.88
686.943	74.24
687.133	213.5
687.323	104.96
687.513	223.74
687.702	174.59
687.892	152.06
688.082	154.11
688.272	209.4
688.461	209.4
688.651	320
688.841	211.45
689.03	182.78
689.22	164.35
689.41	197.12
689.599	203.26
689.789	104.96
689.979	283.13
690.168	193.02
690.358	215.55
690.547	254.46
690.737	268.8
690.926	276.99
691.116	236.03
691.305	264.7
691.495	217.6
691.684	94.72
691.874	156.16
692.063	201.21
692.252	215.55
692.442	238.08
692.631	199.16
692.82	158.21
693.01	240.12
693.199	137.73
693.388	152.06
693.578	141.82
693.767	225.79
693.956	164.35
694.146	100.86
694.335	162.3
694.524	168.45
694.713	240.12
694.902	180.73
695.092	139.77
695.281	225.79
695.47	170.49
695.659	221.69
695.848	180.73
696.037	111.1
696.226	242.17
696.415	164.35
696.604	272.89
696.793	240.12
696.982	127.49
697.171	311.8
697.36	168.45
697.549	182.78
697.738	96.77
697.927	236.03
698.116	152.06
698.305	219.64
698.494	121.34
698.683	92.67
698.872	242.17
699.061	170.49
699.25	115.2
699.438	82.43
699.627	117.25
699.816	293.37
700.005	90.62
700.193	90.62
700.382	233.98
700.571	258.56
700.76	184.83
700.948	223.74
701.137	242.17
701.326	135.68
701.514	143.87
701.703	172.54
701.892	150.01
702.08	313.85
702.269	96.77
702.457	76.29
702.646	180.73
702.834	248.32
703.023	219.64
703.212	147.97
703.4	135.68
703.589	127.49
703.777	76.29
703.965	268.8
704.154	205.31
704.342	158.21
704.531	107.01
704.719	207.36
704.907	233.98
705.096	86.53
705.284	66.05
705.472	211.45
705.661	256.51
705.849	205.31
706.037	264.7
706.226	180.73
706.414	184.83
706.602	72.19
706.79	147.97
706.979	92.67
707.167	197.12
707.355	78.33
707.543	221.69
707.731	215.55
707.919	154.11
708.107	127.49
708.296	150.01
708.484	139.77
708.672	225.79
708.86	266.75
709.048	164.35
709.236	115.2
709.424	197.12
709.612	186.88
709.8	127.49
709.988	207.36
710.176	147.97
710.364	205.31
710.551	135.68
710.739	186.88
710.927	207.36
711.115	197.12
711.303	129.53
711.491	268.8
711.679	180.73
711.866	197.12
712.054	131.58
712.242	184.83
712.43	205.31
712.617	154.11
712.805	242.17
712.993	250.36
713.181	68.09
713.368	193.02
713.556	240.12
713.744	141.82
713.931	397.82
714.119	225.79
714.306	88.57
714.494	111.1
714.682	127.49
714.869	115.2
715.057	195.07
715.244	68.09
715.432	215.55
715.619	150.01
715.807	211.45
715.994	107.01
716.182	195.07
716.369	283.13
716.556	244.22
716.744	96.77
716.931	37.38
717.119	115.2
717.306	186.88
717.493	221.69
717.681	131.58
717.868	88.57
718.055	201.21
718.242	172.54
718.43	233.98
718.617	287.23
718.804	145.92
718.991	272.89
719.179	233.98
719.366	147.97
719.553	143.87
719.74	190.97
719.927	205.31
720.114	213.5
720.301	150.01
720.488	127.49
720.676	141.82
720.863	281.08
721.05	307.71
721.237	250.36
721.424	268.8
721.611	154.11
721.798	201.21
721.985	117.25
722.172	121.34
722.358	254.46
722.545	260.6
722.732	201.21
722.919	231.93
723.106	199.16
723.293	215.55
723.48	184.83
723.667	135.68
723.853	231.93
724.04	131.58
724.227	307.71
724.414	176.64
724.6	281.08
724.787	297.47
724.974	381.43
725.161	174.59
725.347	170.49
725.534	213.5
725.72	260.6
725.907	266.75
726.094	301.56
726.28	88.57
726.467	199.16
726.653	141.82
726.84	256.51
727.027	252.41
727.213	111.1
727.4	246.27
727.586	158.21
727.773	205.31
727.959	254.46
728.145	170.49
728.332	293.37
728.518	174.59
728.705	180.73
728.891	147.97
729.077	236.03
729.264	141.82
729.45	102.91
729.636	250.36
729.823	176.64
730.009	240.12
730.195	199.16
730.382	256.51
730.568	182.78
730.754	256.51
730.94	264.7
731.126	231.93
731.313	276.99
731.499	215.55
731.685	274.94
731.871	190.97
732.057	285.18
732.243	313.85
732.429	184.83
732.615	360.95
732.801	209.4
732.987	203.26
733.173	252.41
733.359	229.88
733.545	219.64
733.731	182.78
733.917	328.19
734.103	233.98
734.289	201.21
734.475	219.64
734.661	348.67
734.847	246.27
735.033	217.6
735.219	244.22
735.404	127.49
735.59	193.02
735.776	135.68
735.962	215.55
736.148	236.03
736.333	403.96
736.519	276.99
736.705	217.6
736.89	248.32
737.076	285.18
737.262	150.01
737.447	168.45
737.633	207.36
737.819	291.32
738.004	270.84
738.19	250.36
738.375	223.74
738.561	248.32
738.747	274.94
738.932	166.4
739.118	301.56
739.303	264.7
739.489	260.6
739.674	207.36
739.859	166.4
740.045	268.8
740.23	324.09
740.416	133.63
740.601	152.06
740.786	301.56
740.972	131.58
741.157	211.45
741.342	96.77
741.528	258.56
741.713	254.46
741.898	143.87
742.084	217.6
742.269	285.18
742.454	238.08
742.639	193.02
742.824	238.08
743.01	283.13
743.195	301.56
743.38	180.73
743.565	225.79
743.75	268.8
743.935	244.22
744.12	281.08
744.305	166.4
744.49	156.16
744.675	195.07
744.86	143.87
745.045	236.03
745.23	168.45
745.415	190.97
745.6	274.94
745.785	238.08
745.97	299.52
746.155	340.47
746.34	274.94
746.525	111.1
746.71	401.91
746.895	147.97
747.079	127.49
747.264	199.16
747.449	225.79
747.634	236.03
747.819	258.56
748.003	231.93
748.188	64
748.373	322.04
748.557	172.54
748.742	182.78
748.927	209.4
749.111	104.96
749.296	82.43
749.481	262.65
749.665	96.77
749.85	184.83
750.034	289.28
750.219	266.75
750.404	166.4
750.588	203.26
750.773	133.63
750.957	184.83
751.141	201.21
751.326	217.6
751.51	59.9
751.695	147.97
751.879	127.49
752.064	268.8
752.248	135.68
752.432	307.71
752.617	205.31
752.801	264.7
752.985	109.05
753.17	289.28
753.354	244.22
753.538	219.64
753.722	156.16
753.907	193.02
754.091	94.72
754.275	154.11
754.459	121.34
754.643	39.42
754.828	152.06
755.012	227.84
755.196	61.95
755.38	178.69
755.564	137.73
755.748	154.11
755.932	154.11
756.116	156.16
756.3	227.84
756.484	125.44
756.668	201.21
756.852	16.9
757.036	49.66
757.22	164.35
757.404	139.77
757.588	53.76
757.772	203.26
757.956	180.73
758.14	221.69
758.323	8.7
758.507	123.39
758.691	94.72
758.875	186.88
759.059	217.6
759.242	74.24
759.426	107.01
759.61	137.73
759.794	84.48
759.977	170.49
760.161	313.85
760.345	190.97
760.528	180.73
760.712	168.45
760.895	156.16
761.079	88.57
761.263	35.33
761.446	104.96
761.63	61.95
761.813	162.3
761.997	61.95
762.18	61.95
762.364	147.97
762.547	59.9
762.731	8.7
762.914	82.43
763.098	94.72
763.281	123.39
763.464	156.16
763.648	115.2
763.831	72.19
764.015	57.86
764.198	160.25
764.381	51.71
764.564	66.05
764.748	98.81
764.931	150.01
765.114	84.48
765.297	119.29
765.481	78.33
765.664	33.28
765.847	68.09
766.03	205.31
766.213	0.51
766.397	72.19
766.58	-9.73
766.763	131.58
766.946	70.14
767.129	2.56
767.312	14.85
767.495	70.14
767.678	66.05
767.861	96.77
768.044	113.15
768.227	90.62
768.41	55.81
768.593	-60.93
768.776	82.43
768.959	94.72
769.142	152.06
769.324	119.29
769.507	80.38
769.69	-11.78
769.873	78.33
770.056	233.98
770.239	182.78
770.421	242.17
770.604	137.73
770.787	82.43
770.97	51.71
771.152	29.18
771.335	119.29
771.518	76.29
771.7	104.96
771.883	190.97
772.066	6.66
772.248	76.29
772.431	215.55
772.613	84.48
772.796	4.61
772.978	115.2
773.161	152.06
773.343	-3.58
773.526	-34.3
773.708	-56.83
773.891	-9.73
774.073	-38.4
774.256	72.19
774.438	158.21
774.621	18.94
774.803	70.14
774.985	16.9
775.168	92.67
775.35	-7.68
775.532	115.2
775.715	25.09
775.897	43.52
776.079	64
776.261	29.18
776.444	121.34
776.626	27.14
776.808	74.24
776.99	-58.88
777.173	109.05
777.355	119.29
777.537	53.76
777.719	100.86
777.901	-1.54
778.083	23.04
778.265	-17.92
778.447	86.53
778.629	-44.54
778.811	92.67
778.993	72.19
779.175	94.72
779.357	35.33
779.539	-40.45
779.721	-3.58
779.903	80.38
780.085	-11.78
780.267	84.48
780.449	-7.68
780.631	111.1
780.812	190.97
780.994	18.94
781.176	88.57
781.358	-13.82
781.54	29.18
781.721	74.24
781.903	53.76
782.085	66.05
782.267	186.88
782.448	-73.21
782.63	8.7
782.812	76.29
782.993	74.24
783.175	64
783.357	43.52
783.538	31.23
783.72	-36.35
783.901	-17.92
784.083	104.96
784.264	49.66
784.446	-62.98
784.627	-140.8
784.809	61.95
784.99	-5.63
785.172	121.34
785.353	-15.87
785.535	96.77
785.716	-30.21
785.897	-11.78
786.079	-11.78
786.26	39.42
786.441	82.43
786.623	-28.16
786.804	20.99
786.985	47.62
787.167	20.99
787.348	18.94
787.529	39.42
787.71	180.73
787.891	70.14
788.073	-50.69
788.254	-58.88
788.435	156.16
788.616	33.28
788.797	-44.54
788.978	-32.26
789.159	6.66
789.34	90.62
789.522	-13.82
789.703	2.56
789.884	51.71
790.065	6.66
790.246	139.77
790.427	-17.92
790.607	111.1
790.788	102.91
790.969	-103.93
791.15	160.25
791.331	8.7
791.512	23.04
791.693	-36.35
791.874	39.42
792.054	190.97
792.235	125.44
792.416	-77.31
792.597	-26.11
792.778	104.96
792.958	25.09
793.139	109.05
793.32	94.72
793.5	-19.97
793.681	96.77
793.862	70.14
794.042	70.14
794.223	-44.54
794.404	-40.45
794.584	-81.41
794.765	37.38
794.945	14.85
795.126	20.99
795.306	98.81
795.487	0.51
795.667	20.99
795.848	49.66
796.028	-69.12
796.209	59.9
796.389	127.49
796.57	33.28
796.75	12.8
796.93	41.47
797.111	2.56
797.291	-17.92
797.471	64
797.652	-26.11
797.832	-30.21
798.012	45.57
798.192	-101.89
798.373	-93.69
798.553	-71.17
798.733	-17.92
798.913	-75.26
799.093	-50.69
799.274	29.18
799.454	113.15
799.634	78.33
799.814	82.43
799.994	59.9
800.174	47.62
800.354	-50.69
800.534	-183.81
800.714	86.53
800.894	-48.64
801.074	-34.3
801.254	-69.12
801.434	143.87
801.614	-73.21
801.794	-67.07
801.974	1651.17
802.154	-19.97
802.334	41.47
802.514	-52.74
802.693	-48.64
802.873	-30.21
803.053	51.71
803.233	55.81
803.413	0.51
803.592	4.61
803.772	8.7
803.952	14.85
804.131	-75.26
804.311	86.53
804.491	29.18
804.67	57.86
804.85	-60.93
805.03	4.61
805.209	59.9
805.389	-28.16
805.568	-22.02
805.748	-124.41
805.928	-22.02
806.107	43.52
806.287	23.04
806.466	94.72
806.646	-9.73
806.825	-17.92
807.004	-87.55
807.184	-3.58
807.363	18.94
807.543	18.94
807.722	-7.68
807.901	23.04
808.081	64
808.26	-93.69
808.439	-48.64
808.619	-5.63
808.798	-44.54
808.977	88.57
809.156	2.56
809.336	41.47
809.515	55.81
809.694	-79.36
809.873	4.61
810.052	104.96
810.231	133.63
810.411	57.86
810.59	51.71
810.769	-1.54
810.948	68.09
811.127	-101.89
811.306	-42.5
811.485	-5.63
811.664	61.95
811.843	70.14
812.022	29.18
812.201	-69.12
812.38	0.51
812.559	8.7
812.737	-15.87
812.916	-108.03
813.095	-19.97
813.274	51.71
813.453	0.51
813.632	-42.5
813.811	39.42
813.989	-60.93
814.168	72.19
814.347	-32.26
814.526	-32.26
814.704	78.33
814.883	-1.54
815.062	-79.36
815.24	12.8
815.419	-62.98
815.598	47.62
815.776	-50.69
815.955	-114.17
816.133	-79.36
816.312	-5.63
816.49	-91.65
816.669	8.7
816.847	-15.87
817.026	39.42
817.204	-54.78
817.383	-105.98
817.561	-15.87
817.74	-26.11
817.918	-19.97
818.097	-77.31
818.275	-103.93
818.453	27.14
818.632	8.7
818.81	-22.02
818.988	-3.58
819.167	-52.74
819.345	-22.02
819.523	-46.59
819.701	57.86
819.879	35.33
820.058	-30.21
820.236	-15.87
820.414	14.85
820.592	-24.06
820.77	-22.02
820.948	-19.97
821.127	-71.17
821.305	35.33
821.483	-58.88
821.661	104.96
821.839	10.75
822.017	-87.55
822.195	-89.6
822.373	100.86
822.551	-52.74
822.729	29.18
822.907	0.51
823.085	92.67
823.262	0.51
823.44	-40.45
823.618	-15.87
823.796	-91.65
823.974	-9.73
824.152	-110.08
824.329	57.86
824.507	-3.58
824.685	72.19
824.863	-56.83
825.04	49.66
825.218	-3.58
825.396	-7.68
825.574	8.7
825.751	16.9
825.929	29.18
826.107	-75.26
826.284	-17.92
826.462	66.05
826.639	43.52
826.817	-93.69
826.994	53.76
827.172	-124.41
827.349	104.96
827.527	61.95
827.704	-28.16
827.882	90.62
828.059	-28.16
828.237	-26.11
828.414	88.57
828.591	-165.37
828.769	111.1
828.946	8.7
829.124	55.81
829.301	49.66
829.478	-62.98
829.655	10.75
829.833	43.52
830.01	-89.6
830.187	64
830.364	-5.63
830.542	57.86
830.719	72.19
830.896	74.24
831.073	80.38
831.25	43.52
831.427	84.48
831.604	2.56
831.782	-38.4
831.959	35.33
832.136	-13.82
832.313	25.09
832.49	-38.4
832.667	-40.45
832.844	-62.98
833.021	174.59
833.198	14.85
833.374	8.7
833.551	23.04
833.728	-36.35
833.905	-15.87
834.082	-148.99
834.259	-52.74
834.436	53.76
834.612	-69.12
834.789	68.09
834.966	18.94
835.143	53.76
835.319	-50.69
835.496	51.71
835.673	-65.02
835.85	-7.68
836.026	23.04
836.203	59.9
836.38	-32.26
836.556	-65.02
836.733	-5.63
836.909	107.01
837.086	-19.97
837.262	-87.55
837.439	-5.63
837.616	-93.69
837.792	31.23
837.968	-46.59
838.145	-114.17
838.321	-3.58
838.498	-9.73
838.674	-1.54
838.851	-52.74
839.027	-17.92
839.203	-17.92
839.38	2.56
839.556	-77.31
839.732	-19.97
839.909	-28.16
840.085	47.62
840.261	-58.88
840.437	41.47
840.614	-50.69
840.79	64
840.966	10.75
841.142	14.85
841.318	-48.64
841.494	14.85
841.671	12.8
841.847	-44.54
842.023	-54.78
842.199	78.33
842.375	76.29
842.551	-101.89
842.727	-122.37
842.903	156.16
843.079	-79.36
843.255	57.86
843.431	64
843.607	90.62
843.783	-146.94
843.959	61.95
844.134	-50.69
844.31	74.24
844.486	-56.83
844.662	-50.69
844.838	-75.26
845.013	84.48
845.189	18.94
845.365	33.28
845.541	53.76
845.716	-32.26
845.892	41.47
846.068	43.52
846.244	-48.64
846.419	98.81
846.595	-93.69
846.77	-52.74
846.946	37.38
847.122	-54.78
847.297	-108.03
847.473	74.24
847.648	-36.35
847.824	-65.02
847.999	-112.13
848.175	20.99
848.35	-36.35
848.526	100.86
848.701	59.9
848.876	-9.73
849.052	94.72
849.227	-28.16
849.403	43.52
849.578	6.66
849.753	-69.12
849.929	33.28
850.104	-73.21
850.279	68.09
850.454	-54.78
850.63	37.38
850.805	6.66
850.98	35.33
851.155	12.8
851.33	43.52
851.505	-157.18
851.681	174.59
851.856	-85.5
852.031	41.47
852.206	0.51
852.381	-91.65
852.556	-73.21
852.731	14.85
852.906	86.53
853.081	-19.97
853.256	135.68
853.431	-103.93
853.606	-50.69
853.781	-42.5
853.956	-91.65
854.131	37.38
854.305	-101.89
854.48	-48.64
854.655	-46.59
854.83	-67.07
855.005	-44.54
855.18	-28.16
855.354	-85.5
855.529	8.7
855.704	0.51
855.879	-38.4
856.053	-56.83
856.228	-3.58
856.403	-81.41
856.577	53.76
856.752	-101.89
856.926	10.75
857.101	80.38
857.276	-19.97
857.45	29.18
857.625	82.43
857.799	0.51
857.974	-36.35
858.148	-54.78
858.323	61.95
858.497	-46.59
858.672	-32.26
858.846	-26.11
859.02	-38.4
859.195	-38.4
859.369	-71.17
859.543	20.99
859.718	39.42
859.892	57.86
860.066	6.66
860.241	-93.69
860.415	-40.45
860.589	-114.17
860.763	8.7
860.938	39.42
861.112	-11.78
861.286	-34.3
861.46	-24.06
861.634	-26.11
861.808	70.14
861.982	-79.36
862.157	-105.98
862.331	-56.83
862.505	-114.17
862.679	-91.65
862.853	-56.83
863.027	-19.97
863.201	104.96
863.375	-110.08
863.549	12.8
863.722	37.38
863.896	43.52
864.07	-38.4
864.244	43.52
864.418	-24.06
864.592	6.66
864.766	-42.5
864.939	12.8
865.113	-34.3
865.287	96.77
865.461	-108.03
865.634	-38.4
865.808	12.8
865.982	18.94
866.156	-97.79
866.329	-138.75
866.503	14.85
866.676	39.42
866.85	6.66
867.024	-26.11
867.197	41.47
867.371	18.94
867.544	-22.02
867.718	-138.75
867.891	37.38
868.065	-81.41
868.238	-30.21
868.412	88.57
868.585	-28.16
868.759	-60.93
868.932	-40.45
869.105	-34.3
869.279	-11.78
869.452	-97.79
869.625	53.76
869.799	8.7
869.972	-69.12
870.145	-91.65
870.319	102.91
870.492	-28.16
870.665	-46.59
870.838	-75.26
871.011	-91.65
871.185	-22.02
871.358	-26.11
871.531	20.99
871.704	-52.74
871.877	98.81
872.05	-9.73
872.223	-28.16
872.396	12.8
872.569	20.99
872.742	-97.79
872.915	76.29
873.088	27.14
873.261	-54.78
873.434	18.94
873.607	4.61
873.78	-28.16
873.953	-9.73
874.126	-44.54
874.299	-7.68
874.471	-15.87
874.644	-52.74
874.817	53.76
874.99	135.68
875.163	-26.11
875.335	39.42
875.508	4.61
875.681	55.81
875.853	2.56
876.026	-52.74
876.199	18.94
876.371	-5.63
876.544	-73.21
876.717	-108.03
876.889	-75.26
877.062	20.99
877.234	-126.46
877.407	-126.46
877.579	-13.82
877.752	-13.82
877.924	33.28
878.097	18.94
878.269	8.7
878.442	-17.92
878.614	33.28
878.786	-26.11
878.959	0.51
879.131	-7.68
879.303	-97.79
879.476	-34.3
879.648	16.9
879.82	6.66
879.993	35.33
880.165	-38.4
880.337	-58.88
880.509	104.96
880.681	-71.17
880.854	-19.97
881.026	76.29
881.198	160.25
881.37	-38.4
881.542	111.1
881.714	-28.16
881.886	-3.58
882.058	-48.64
882.23	-30.21
882.402	14.85
882.574	49.66
882.746	10.75
882.918	14.85
883.09	145.92
883.262	-30.21
883.434	-42.5
883.606	-120.32
883.778	-9.73
883.95	127.49
884.122	6.66
884.293	68.09
884.465	-24.06
884.637	102.91
884.809	-34.3
884.98	86.53
885.152	104.96
885.324	16.9
885.496	-93.69
885.667	-30.21
885.839	-32.26
886.011	27.14
886.182	27.14
886.354	119.29
886.525	68.09
886.697	12.8
886.869	-114.17
887.04	-54.78
887.212	80.38
887.383	156.16
887.555	14.85
887.726	2.56
887.897	16.9
888.069	-50.69
888.24	29.18
888.412	-5.63
888.583	8.7
888.754	8.7
888.926	-83.45
889.097	-44.54
889.268	-46.59
889.44	20.99
889.611	-124.41
889.782	-85.5
889.953	-122.37
890.125	18.94
890.296	-77.31
890.467	-85.5
890.638	-73.21
890.809	-62.98
890.98	-198.14
891.151	18.94
891.323	35.33
891.494	-24.06
891.665	12.8
891.836	-79.36
892.007	-46.59
892.178	41.47
892.349	16.9
892.52	-77.31
892.691	8.7
892.862	-99.84
893.032	-128.51
893.203	-30.21
893.374	-58.88
893.545	72.19
893.716	4.61
893.887	55.81
894.057	-60.93
894.228	-99.84
894.399	-60.93
894.57	102.91
894.74	6.66
894.911	-44.54
895.082	4.61
895.253	-67.07
895.423	-5.63
895.594	39.42
895.764	-24.06
895.935	-134.65
896.106	10.75
896.276	18.94
896.447	-17.92
896.617	-32.26
896.788	-42.5
896.958	-5.63
897.129	-46.59
897.299	-71.17
897.47	45.57
897.64	8.7
897.81	-1.54
897.981	-15.87
898.151	-136.7
898.322	-9.73
898.492	-5.63
898.662	-93.69
898.832	-28.16
899.003	-83.45
899.173	4.61
899.343	-122.37
899.513	-81.41
