Data from USB4F104151__152__11-04-29-338.txt Node

Date: Wed Feb 26 11:04:29 EST 2025
User: louis
Spectrometer: USB4F10415
Trigger mode: 4
Integration Time (sec): 1.000000E-1
Scans to average: 1
Electric dark correction enabled: true
Nonlinearity correction enabled: false
Boxcar width: 0
XAxis mode: Wavelengths
Number of Pixels in Spectrum: 3648
>>>>>Begin Spectral Data<<<<<
178.204	-398.84
178.424	-398.84
178.644	-398.84
178.864	-423.42
179.084	-396.79
179.304	20.99
179.524	-15.87
179.744	-30.21
179.964	55.81
180.184	25.09
180.404	-19.97
180.624	-32.26
180.844	-3.58
181.064	-101.89
181.283	-7.68
181.503	33.28
181.723	76.29
181.943	-79.36
182.163	162.3
182.383	-126.46
182.602	45.57
182.822	178.69
183.042	51.71
183.262	12.8
183.482	43.52
183.701	47.62
183.921	16.9
184.141	-71.17
184.361	127.49
184.58	104.96
184.8	45.57
185.02	39.42
185.239	119.29
185.459	76.29
185.679	199.16
185.898	-22.02
186.118	66.05
186.338	8.7
186.557	74.24
186.777	-112.13
186.997	51.71
187.216	2.56
187.436	152.06
187.655	53.76
187.875	143.87
188.095	86.53
188.314	55.81
188.534	168.45
188.753	-38.4
188.973	90.62
189.192	180.73
189.412	10.75
189.631	53.76
189.851	68.09
190.07	203.26
190.29	80.38
190.509	-3.58
190.729	66.05
190.948	170.49
191.168	182.78
191.387	45.57
191.607	16.9
191.826	92.67
192.045	84.48
192.265	-3.58
192.484	43.52
192.704	96.77
192.923	-46.59
193.142	186.88
193.362	125.44
193.581	84.48
193.8	12.8
194.02	66.05
194.239	107.01
194.458	141.82
194.678	-1.54
194.897	10.75
195.116	43.52
195.335	27.14
195.555	64
195.774	29.18
195.993	90.62
196.212	94.72
196.432	20.99
196.651	2.56
196.87	35.33
197.089	293.37
197.308	23.04
197.528	78.33
197.747	47.62
197.966	47.62
198.185	125.44
198.404	-75.26
198.623	88.57
198.842	23.04
199.062	154.11
199.281	70.14
199.5	-28.16
199.719	53.76
199.938	10.75
200.157	111.1
200.376	137.73
200.595	123.39
200.814	86.53
201.033	51.71
201.252	190.97
201.471	74.24
201.69	131.58
201.909	47.62
202.128	125.44
202.347	82.43
202.566	35.33
202.785	-58.88
203.004	-32.26
203.223	287.23
203.442	43.52
203.661	2.56
203.879	98.81
204.098	154.11
204.317	-69.12
204.536	115.2
204.755	27.14
204.974	66.05
205.193	35.33
205.411	160.25
205.63	88.57
205.849	96.77
206.068	16.9
206.287	-19.97
206.505	111.1
206.724	51.71
206.943	-30.21
207.162	2.56
207.381	98.81
207.599	86.53
207.818	39.42
208.037	10.75
208.255	4.61
208.474	119.29
208.693	2.56
208.911	25.09
209.13	182.78
209.349	53.76
209.567	104.96
209.786	51.71
210.005	59.9
210.223	109.05
210.442	-93.69
210.661	-1.54
210.879	68.09
211.098	43.52
211.316	47.62
211.535	135.68
211.753	78.33
211.972	84.48
212.191	-56.83
212.409	31.23
212.628	76.29
212.846	-52.74
213.065	107.01
213.283	94.72
213.502	10.75
213.72	39.42
213.938	88.57
214.157	8.7
214.375	143.87
214.594	41.47
214.812	66.05
215.031	-38.4
215.249	82.43
215.467	74.24
215.686	45.57
215.904	121.34
216.122	25.09
216.341	125.44
216.559	51.71
216.778	96.77
216.996	205.31
217.214	78.33
217.432	78.33
217.651	-87.55
217.869	102.91
218.087	84.48
218.306	57.86
218.524	23.04
218.742	41.47
218.96	119.29
219.179	29.18
219.397	64
219.615	188.93
219.833	139.77
220.051	10.75
220.27	102.91
220.488	64
220.706	86.53
220.924	-11.78
221.142	-30.21
221.36	20.99
221.578	113.15
221.796	-75.26
222.015	43.52
222.233	-3.58
222.451	180.73
222.669	23.04
222.887	57.86
223.105	109.05
223.323	0.51
223.541	-7.68
223.759	37.38
223.977	4.61
224.195	100.86
224.413	117.25
224.631	70.14
224.849	184.83
225.067	184.83
225.285	-58.88
225.503	4.61
225.721	-132.61
225.939	49.66
226.157	80.38
226.375	213.5
226.592	-17.92
226.81	76.29
227.028	49.66
227.246	143.87
227.464	14.85
227.682	129.53
227.9	88.57
228.117	29.18
228.335	143.87
228.553	27.14
228.771	20.99
228.989	98.81
229.206	102.91
229.424	37.38
229.642	-44.54
229.86	31.23
230.077	168.45
230.295	43.52
230.513	78.33
230.731	82.43
230.948	256.51
231.166	154.11
231.384	-9.73
231.601	-32.26
231.819	176.64
232.037	-77.31
232.254	6.66
232.472	35.33
232.689	12.8
232.907	94.72
233.125	18.94
233.342	-52.74
233.56	29.18
233.777	-9.73
233.995	53.76
234.213	147.97
234.43	6.66
234.648	53.76
234.865	74.24
235.083	66.05
235.3	109.05
235.518	53.76
235.735	107.01
235.953	100.86
236.17	59.9
236.388	72.19
236.605	72.19
236.822	68.09
237.04	188.93
237.257	23.04
237.475	-19.97
237.692	18.94
237.909	129.53
238.127	-5.63
238.344	111.1
238.562	45.57
238.779	-50.69
238.996	-7.68
239.214	41.47
239.431	45.57
239.648	2.56
239.865	78.33
240.083	82.43
240.3	-9.73
240.517	45.57
240.735	57.86
240.952	182.78
241.169	66.05
241.386	150.01
241.603	-9.73
241.821	-24.06
242.038	100.86
242.255	92.67
242.472	-30.21
242.689	107.01
242.907	35.33
243.124	18.94
243.341	-48.64
243.558	8.7
243.775	-54.78
243.992	-108.03
244.209	184.83
244.426	186.88
244.643	6.66
244.86	-5.63
245.078	41.47
245.295	47.62
245.512	-13.82
245.729	-34.3
245.946	33.28
246.163	66.05
246.38	43.52
246.597	33.28
246.814	70.14
247.031	78.33
247.248	39.42
247.464	139.77
247.681	20.99
247.898	170.49
248.115	84.48
248.332	10.75
248.549	133.63
248.766	211.45
248.983	104.96
249.2	96.77
249.417	109.05
249.633	-7.68
249.85	35.33
250.067	27.14
250.284	57.86
250.501	39.42
250.717	-13.82
250.934	-13.82
251.151	45.57
251.368	20.99
251.585	49.66
251.801	141.82
252.018	-50.69
252.235	98.81
252.451	-69.12
252.668	31.23
252.885	129.53
253.102	-3.58
253.318	-1.54
253.535	25.09
253.752	4.61
253.968	20.99
254.185	-32.26
254.401	86.53
254.618	64
254.835	-11.78
255.051	96.77
255.268	59.9
255.484	84.48
255.701	51.71
255.917	72.19
256.134	53.76
256.351	47.62
256.567	-22.02
256.784	107.01
257	2.56
257.217	133.63
257.433	127.49
257.65	98.81
257.866	123.39
258.082	-1.54
258.299	6.66
258.515	78.33
258.732	8.7
258.948	59.9
259.165	107.01
259.381	-101.89
259.597	78.33
259.814	4.61
260.03	16.9
260.246	107.01
260.463	147.97
260.679	178.69
260.895	88.57
261.112	43.52
261.328	0.51
261.544	-3.58
261.761	217.6
261.977	-40.45
262.193	-65.02
262.409	104.96
262.626	66.05
262.842	51.71
263.058	-24.06
263.274	117.25
263.49	68.09
263.707	104.96
263.923	121.34
264.139	-32.26
264.355	33.28
264.571	158.21
264.787	66.05
265.004	152.06
265.22	49.66
265.436	6.66
265.652	14.85
265.868	8.7
266.084	16.9
266.3	45.57
266.516	-99.84
266.732	29.18
266.948	18.94
267.164	74.24
267.38	133.63
267.596	64
267.812	215.55
268.028	92.67
268.244	12.8
268.46	8.7
268.676	59.9
268.892	70.14
269.108	8.7
269.324	-89.6
269.54	29.18
269.756	98.81
269.972	45.57
270.188	6.66
270.403	35.33
270.619	-19.97
270.835	102.91
271.051	88.57
271.267	55.81
271.483	64
271.698	55.81
271.914	84.48
272.13	113.15
272.346	2.56
272.562	39.42
272.777	152.06
272.993	23.04
273.209	35.33
273.425	86.53
273.64	-46.59
273.856	109.05
274.072	37.38
274.287	10.75
274.503	70.14
274.719	121.34
274.934	-48.64
275.15	-28.16
275.366	-1.54
275.581	-56.83
275.797	82.43
276.012	109.05
276.228	-17.92
276.444	76.29
276.659	57.86
276.875	16.9
277.09	-17.92
277.306	-7.68
277.521	96.77
277.737	33.28
277.952	72.19
278.168	14.85
278.383	-15.87
278.599	55.81
278.814	88.57
279.03	64
279.245	152.06
279.461	51.71
279.676	80.38
279.892	-142.85
280.107	-44.54
280.322	-11.78
280.538	-1.54
280.753	-17.92
280.969	57.86
281.184	76.29
281.399	119.29
281.615	27.14
281.83	78.33
282.045	-22.02
282.26	53.76
282.476	33.28
282.691	8.7
282.906	119.29
283.122	104.96
283.337	-19.97
283.552	-9.73
283.767	115.2
283.983	135.68
284.198	104.96
284.413	6.66
284.628	-44.54
284.843	25.09
285.058	35.33
285.274	59.9
285.489	-40.45
285.704	47.62
285.919	18.94
286.134	-15.87
286.349	12.8
286.564	39.42
286.779	59.9
286.995	4.61
287.21	-75.26
287.425	59.9
287.64	-36.35
287.855	51.71
288.07	-19.97
288.285	164.35
288.5	104.96
288.715	55.81
288.93	31.23
289.145	-52.74
289.36	113.15
289.575	104.96
289.79	188.93
290.004	-42.5
290.219	90.62
290.434	41.47
290.649	-38.4
290.864	-81.41
291.079	84.48
291.294	137.73
291.509	113.15
291.724	-9.73
291.938	-28.16
292.153	49.66
292.368	-5.63
292.583	27.14
292.798	170.49
293.012	82.43
293.227	23.04
293.442	0.51
293.657	64
293.871	104.96
294.086	18.94
294.301	195.07
294.516	129.53
294.73	-26.11
294.945	-48.64
295.16	76.29
295.374	152.06
295.589	127.49
295.804	-1.54
296.018	55.81
296.233	43.52
296.447	102.91
296.662	-58.88
296.877	127.49
297.091	182.78
297.306	18.94
297.52	14.85
297.735	2.56
297.949	55.81
298.164	31.23
298.378	53.76
298.593	37.38
298.807	-13.82
299.022	64
299.236	188.93
299.451	6.66
299.665	16.9
299.88	10.75
300.094	107.01
300.309	55.81
300.523	35.33
300.737	10.75
300.952	100.86
301.166	119.29
301.381	-26.11
301.595	-5.63
301.809	-13.82
302.024	18.94
302.238	-24.06
302.452	160.25
302.667	35.33
302.881	150.01
303.095	107.01
303.309	78.33
303.524	88.57
303.738	10.75
303.952	-38.4
304.166	49.66
304.381	-83.45
304.595	90.62
304.809	39.42
305.023	59.9
305.237	41.47
305.452	0.51
305.666	72.19
305.88	86.53
306.094	55.81
306.308	59.9
306.522	141.82
306.736	20.99
306.95	18.94
307.164	10.75
307.379	47.62
307.593	180.73
307.807	172.54
308.021	80.38
308.235	80.38
308.449	-28.16
308.663	20.99
308.877	184.83
309.091	78.33
309.305	104.96
309.519	-75.26
309.733	145.92
309.947	-22.02
310.161	100.86
310.374	18.94
310.588	115.2
310.802	-9.73
311.016	-15.87
311.23	72.19
311.444	-65.02
311.658	92.67
311.872	129.53
312.085	98.81
312.299	162.3
312.513	94.72
312.727	25.09
312.941	-69.12
313.154	74.24
313.368	90.62
313.582	-32.26
313.796	45.57
314.009	23.04
314.223	166.4
314.437	70.14
314.651	92.67
314.864	-34.3
315.078	-28.16
315.292	-44.54
315.505	53.76
315.719	160.25
315.933	109.05
316.146	70.14
316.36	10.75
316.573	125.44
316.787	68.09
317.001	64
317.214	4.61
317.428	18.94
317.641	-40.45
317.855	-46.59
318.068	84.48
318.282	18.94
318.495	123.39
318.709	70.14
318.922	74.24
319.136	242.17
319.349	86.53
319.563	27.14
319.776	51.71
319.99	-126.46
320.203	94.72
320.417	-11.78
320.63	33.28
320.843	178.69
321.057	23.04
321.27	78.33
321.483	154.11
321.697	107.01
321.91	49.66
322.124	59.9
322.337	43.52
322.55	-19.97
322.763	18.94
322.977	72.19
323.19	-1.54
323.403	23.04
323.617	90.62
323.83	104.96
324.043	55.81
324.256	23.04
324.469	14.85
324.683	37.38
324.896	20.99
325.109	-22.02
325.322	-85.5
325.535	154.11
325.748	113.15
325.962	68.09
326.175	37.38
326.388	127.49
326.601	104.96
326.814	-30.21
327.027	0.51
327.24	127.49
327.453	-120.32
327.666	43.52
327.879	74.24
328.092	43.52
328.305	-1.54
328.518	-34.3
328.731	12.8
328.944	37.38
329.157	96.77
329.37	20.99
329.583	139.77
329.796	125.44
330.009	-19.97
330.222	104.96
330.435	53.76
330.648	51.71
330.861	98.81
331.073	20.99
331.286	102.91
331.499	59.9
331.712	0.51
331.925	20.99
332.138	66.05
332.35	121.34
332.563	20.99
332.776	133.63
332.989	8.7
333.202	-11.78
333.414	20.99
333.627	47.62
333.84	10.75
334.053	111.1
334.265	6.66
334.478	4.61
334.691	45.57
334.903	82.43
335.116	37.38
335.329	6.66
335.541	94.72
335.754	231.93
335.966	23.04
336.179	-24.06
336.392	27.14
336.604	70.14
336.817	102.91
337.029	31.23
337.242	-9.73
337.454	133.63
337.667	2.56
337.88	139.77
338.092	43.52
338.305	80.38
338.517	14.85
338.729	25.09
338.942	78.33
339.154	-89.6
339.367	10.75
339.579	49.66
339.792	-52.74
340.004	121.34
340.217	-3.58
340.429	131.58
340.641	-38.4
340.854	-40.45
341.066	8.7
341.278	215.55
341.491	152.06
341.703	76.29
341.915	-77.31
342.128	76.29
342.34	-30.21
342.552	-7.68
342.764	59.9
342.977	70.14
343.189	88.57
343.401	100.86
343.613	-15.87
343.826	39.42
344.038	-56.83
344.25	41.47
344.462	-32.26
344.674	47.62
344.886	64
345.099	37.38
345.311	31.23
345.523	-13.82
345.735	-24.06
345.947	68.09
346.159	49.66
346.371	12.8
346.583	8.7
346.795	186.88
347.007	8.7
347.219	76.29
347.431	-58.88
347.643	166.4
347.855	39.42
348.067	145.92
348.279	-22.02
348.491	37.38
348.703	102.91
348.915	23.04
349.127	-24.06
349.339	53.76
349.551	16.9
349.763	86.53
349.975	51.71
350.187	133.63
350.399	147.97
350.61	27.14
350.822	33.28
351.034	-19.97
351.246	66.05
351.458	59.9
351.669	59.9
351.881	86.53
352.093	154.11
352.305	158.21
352.517	92.67
352.728	84.48
352.94	43.52
353.152	27.14
353.363	68.09
353.575	55.81
353.787	113.15
353.999	64
354.21	166.4
354.422	-56.83
354.633	35.33
354.845	31.23
355.057	39.42
355.268	41.47
355.48	213.5
355.692	-65.02
355.903	12.8
356.115	6.66
356.326	-34.3
356.538	115.2
356.749	127.49
356.961	133.63
357.172	59.9
357.384	57.86
357.595	240.12
357.807	18.94
358.018	31.23
358.23	37.38
358.441	145.92
358.653	-19.97
358.864	29.18
359.075	-32.26
359.287	88.57
359.498	92.67
359.709	176.64
359.921	135.68
360.132	113.15
360.344	39.42
360.555	-26.11
360.766	14.85
360.977	-24.06
361.189	172.54
361.4	-22.02
361.611	94.72
361.823	59.9
362.034	39.42
362.245	-48.64
362.456	10.75
362.667	147.97
362.879	-34.3
363.09	84.48
363.301	129.53
363.512	33.28
363.723	-44.54
363.935	-19.97
364.146	113.15
364.357	55.81
364.568	51.71
364.779	-62.98
364.99	156.16
365.201	-42.5
365.412	203.26
365.623	-105.98
365.834	109.05
366.045	51.71
366.256	80.38
366.467	117.25
366.678	57.86
366.889	12.8
367.1	-11.78
367.311	80.38
367.522	18.94
367.733	123.39
367.944	137.73
368.155	-11.78
368.366	150.01
368.577	88.57
368.788	113.15
368.999	12.8
369.209	6.66
369.42	156.16
369.631	170.49
369.842	156.16
370.053	-5.63
370.264	135.68
370.474	45.57
370.685	74.24
370.896	82.43
371.107	164.35
371.317	70.14
371.528	-79.36
371.739	133.63
371.95	129.53
372.16	123.39
372.371	-71.17
372.582	102.91
372.792	49.66
373.003	98.81
373.214	2.56
373.424	53.76
373.635	18.94
373.846	16.9
374.056	25.09
374.267	41.47
374.477	82.43
374.688	25.09
374.898	31.23
375.109	45.57
375.319	47.62
375.53	113.15
375.74	61.95
375.951	20.99
376.161	51.71
376.372	133.63
376.582	-1.54
376.793	78.33
377.003	-5.63
377.214	-15.87
377.424	57.86
377.635	37.38
377.845	-11.78
378.055	182.78
378.266	-122.37
378.476	31.23
378.686	111.1
378.897	131.58
379.107	168.45
379.317	66.05
379.528	47.62
379.738	76.29
379.948	-30.21
380.158	66.05
380.369	139.77
380.579	61.95
380.789	33.28
380.999	29.18
381.21	164.35
381.42	186.88
381.63	49.66
381.84	133.63
382.05	74.24
382.261	147.97
382.471	98.81
382.681	-11.78
382.891	186.88
383.101	33.28
383.311	-17.92
383.521	8.7
383.731	127.49
383.941	98.81
384.151	131.58
384.361	10.75
384.571	16.9
384.781	80.38
384.991	164.35
385.201	166.4
385.411	49.66
385.621	80.38
385.831	25.09
386.041	6.66
386.251	20.99
386.461	74.24
386.671	-7.68
386.881	107.01
387.091	61.95
387.301	72.19
387.511	68.09
387.72	80.38
387.93	76.29
388.14	-7.68
388.35	107.01
388.56	166.4
388.769	80.38
388.979	45.57
389.189	-5.63
389.399	43.52
389.609	125.44
389.818	55.81
390.028	90.62
390.238	39.42
390.447	68.09
390.657	98.81
390.867	100.86
391.076	-103.93
391.286	78.33
391.496	74.24
391.705	72.19
391.915	150.01
392.125	111.1
392.334	8.7
392.544	135.68
392.753	45.57
392.963	2.56
393.172	45.57
393.382	-69.12
393.591	137.73
393.801	72.19
394.01	160.25
394.22	162.3
394.429	-17.92
394.639	143.87
394.848	37.38
395.058	107.01
395.267	37.38
395.477	53.76
395.686	131.58
395.895	188.93
396.105	147.97
396.314	64
396.524	35.33
396.733	45.57
396.942	109.05
397.152	107.01
397.361	186.88
397.57	53.76
397.78	14.85
397.989	61.95
398.198	143.87
398.407	76.29
398.617	51.71
398.826	-32.26
399.035	76.29
399.244	107.01
399.453	-1.54
399.663	96.77
399.872	137.73
400.081	-58.88
400.29	107.01
400.499	-1.54
400.708	64
400.917	74.24
401.127	-13.82
401.336	20.99
401.545	180.73
401.754	111.1
401.963	141.82
402.172	23.04
402.381	-32.26
402.59	39.42
402.799	4.61
403.008	123.39
403.217	109.05
403.426	41.47
403.635	-40.45
403.844	-5.63
404.053	33.28
404.262	-11.78
404.471	164.35
404.68	45.57
404.888	-5.63
405.097	68.09
405.306	45.57
405.515	78.33
405.724	74.24
405.933	84.48
406.142	51.71
406.35	119.29
406.559	-19.97
406.768	74.24
406.977	215.55
407.185	84.48
407.394	96.77
407.603	-32.26
407.812	113.15
408.02	111.1
408.229	123.39
408.438	39.42
408.646	-75.26
408.855	88.57
409.064	41.47
409.272	59.9
409.481	70.14
409.69	-19.97
409.898	-3.58
410.107	66.05
410.315	84.48
410.524	47.62
410.733	-19.97
410.941	6.66
411.15	180.73
411.358	86.53
411.567	94.72
411.775	12.8
411.984	-3.58
412.192	186.88
412.401	-75.26
412.609	199.16
412.818	76.29
413.026	113.15
413.234	14.85
413.443	76.29
413.651	-3.58
413.86	86.53
414.068	133.63
414.276	197.12
414.485	25.09
414.693	168.45
414.901	164.35
415.11	127.49
415.318	39.42
415.526	86.53
415.734	74.24
415.943	27.14
416.151	143.87
416.359	49.66
416.567	59.9
416.776	102.91
416.984	156.16
417.192	143.87
417.4	6.66
417.608	10.75
417.817	-11.78
418.025	45.57
418.233	221.69
418.441	-22.02
418.649	-50.69
418.857	72.19
419.065	113.15
419.273	18.94
419.481	125.44
419.689	49.66
419.897	37.38
420.105	-19.97
420.313	86.53
420.521	178.69
420.729	86.53
420.937	33.28
421.145	-44.54
421.353	209.4
421.561	145.92
421.769	88.57
421.977	27.14
422.185	82.43
422.393	57.86
422.601	123.39
422.809	27.14
423.017	55.81
423.224	8.7
423.432	172.54
423.64	45.57
423.848	129.53
424.056	-32.26
424.263	127.49
424.471	31.23
424.679	139.77
424.887	-48.64
425.094	147.97
425.302	109.05
425.51	41.47
425.718	137.73
425.925	55.81
426.133	68.09
426.341	219.64
426.548	16.9
426.756	0.51
426.964	78.33
427.171	72.19
427.379	119.29
427.586	98.81
427.794	18.94
428.001	84.48
428.209	100.86
428.417	84.48
428.624	78.33
428.832	141.82
429.039	59.9
429.247	94.72
429.454	100.86
429.662	145.92
429.869	88.57
430.076	107.01
430.284	113.15
430.491	225.79
430.699	147.97
430.906	231.93
431.114	74.24
431.321	74.24
431.528	129.53
431.736	158.21
431.943	156.16
432.15	176.64
432.358	147.97
432.565	203.26
432.772	-75.26
432.979	158.21
433.187	150.01
433.394	236.03
433.601	145.92
433.808	221.69
434.016	246.27
434.223	229.88
434.43	158.21
434.637	287.23
434.844	317.95
435.052	172.54
435.259	264.7
435.466	264.7
435.673	258.56
435.88	291.32
436.087	375.29
436.294	365.05
436.501	287.23
436.708	231.93
436.915	430.59
437.122	401.91
437.329	287.23
437.537	336.38
437.743	342.52
437.95	492.02
438.157	322.04
438.364	459.26
438.571	414.2
438.778	461.3
438.985	481.78
439.192	492.02
439.399	414.2
439.606	418.3
439.813	524.79
440.02	551.42
440.227	662.01
440.433	645.62
440.64	526.84
440.847	500.22
441.054	674.29
441.261	717.3
441.467	582.14
441.674	600.57
441.881	702.97
442.088	631.29
442.294	782.84
442.501	786.93
442.708	815.6
442.914	774.64
443.121	844.28
443.328	858.61
443.534	985.58
443.741	881.14
443.948	831.99
444.154	1063.41
444.361	1192.43
444.568	1026.54
444.774	999.92
444.981	973.3
445.187	1245.68
445.394	1237.49
445.6	1225.2
445.807	1407.47
446.013	1212.91
446.22	1337.84
446.426	1542.63
446.633	1466.86
446.839	1739.24
447.046	1407.47
447.252	1737.19
447.459	1626.6
447.665	1763.81
447.871	1907.17
448.078	2015.71
448.284	1982.95
448.491	2013.67
448.697	2173.41
448.903	2210.27
449.11	2281.95
449.316	2333.15
449.522	2390.49
449.728	2626.01
449.935	2673.11
450.141	2576.86
450.347	2841.04
450.553	2828.76
450.76	2789.85
450.966	3035.6
451.172	3201.49
451.378	3324.37
451.584	3342.8
451.791	3627.46
451.997	3758.53
452.203	3615.18
452.409	3953.09
452.615	4112.83
452.821	4041.15
453.027	4045.25
453.233	4397.5
453.44	4295.1
453.646	4624.83
453.852	4905.4
454.058	4882.87
454.264	5151.15
454.47	5663.15
454.676	5579.18
454.882	6064.55
455.088	5628.33
455.294	6003.11
455.5	6500.76
455.705	6842.78
455.911	6795.67
456.117	7008.66
456.323	7086.48
456.529	7233.94
456.735	7928.2
456.941	8147.33
457.147	8442.24
457.352	8710.52
457.558	8833.4
457.764	9466.22
457.97	9652.59
458.176	10142.05
458.381	10811.74
458.587	10727.77
458.793	11473.23
458.999	11479.38
459.204	12790.08
459.41	13205.81
459.616	13072.7
459.821	13689.14
460.027	14506.27
460.233	14938.4
460.438	15192.34
460.644	15974.67
460.85	16032.01
461.055	16972.03
461.261	17856.75
461.466	17236.22
461.672	17592.56
461.878	19777.75
462.083	19339.48
462.289	19822.8
462.494	20590.79
462.7	21233.85
462.905	21268.67
463.111	22925.47
463.316	24170.64
463.522	24506.51
463.727	25512.06
463.932	26095.73
464.138	27138.15
464.343	27988.05
464.549	28057.68
464.754	30357.55
464.959	31264.8
465.165	31815.71
465.37	31586.33
465.575	31676.44
465.781	33730.56
465.986	34183.16
466.191	34062.33
466.397	34326.52
466.602	33538.05
466.807	35291.11
467.012	36149.21
467.218	36423.64
467.423	36878.29
467.628	37674.95
467.833	39325.61
468.038	38868.91
468.244	38256.57
468.449	40400.79
468.654	39456.68
468.859	39624.61
469.064	39186.35
469.269	38350.77
469.474	38629.3
469.679	39751.59
469.885	38465.46
470.09	39337.9
470.295	39475.11
470.5	38567.86
470.705	38602.67
470.91	37543.88
471.115	37216.2
471.32	37701.57
471.525	37822.4
471.73	36302.81
471.935	36077.53
472.139	34516.98
472.344	34781.17
472.549	34744.3
472.754	33921.02
472.959	33517.57
473.164	32141.33
473.369	31508.51
473.574	32798.73
473.778	31928.34
473.983	31225.89
474.188	30795.82
474.393	29376.58
474.598	29442.11
474.802	28805.19
475.007	28366.93
475.212	27840.6
475.417	26593.39
475.621	26396.78
475.826	26335.34
476.031	25446.52
476.235	25104.51
476.44	25137.28
476.645	24582.28
476.849	24346.76
477.054	23824.53
477.259	23140.51
477.463	23189.66
477.668	22524.07
477.872	22349.99
478.077	21782.71
478.282	21272.76
478.486	21344.44
478.691	21000.38
478.895	20986.05
479.1	20975.81
479.304	20650.18
479.509	19579.09
479.713	20349.13
479.918	19613.91
480.122	18901.22
480.326	19179.74
480.531	19370.2
480.735	19103.96
480.94	18802.91
481.144	19607.76
481.348	18225.39
481.553	18581.73
481.757	18073.84
481.961	18284.78
482.166	18188.52
482.37	18075.88
482.574	17463.54
482.778	17600.76
482.983	17977.58
483.187	17363.19
483.391	17336.57
483.595	17217.79
483.8	16920.83
484.004	16898.3
484.208	16767.23
484.412	16576.77
484.616	16546.05
484.821	15884.56
485.025	15755.54
485.229	15704.34
485.433	15356.18
485.637	15345.94
485.841	15374.61
486.045	15126.81
486.249	15118.62
486.453	14430.5
486.657	14549.28
486.861	14444.84
487.065	13543.73
487.269	13670.7
487.473	13252.92
487.677	13410.61
487.881	13562.16
488.085	13113.66
488.289	12734.78
488.493	12486.98
488.697	12456.26
488.901	12140.87
489.105	11747.66
489.309	11790.67
489.512	11684.17
489.716	11311.44
489.92	11088.21
490.124	10758.49
490.328	10639.71
490.531	10506.59
490.735	10449.25
490.939	10238.31
491.143	10070.37
491.346	9877.87
491.55	9632.11
491.754	9822.57
491.958	9525.61
492.161	9062.77
492.365	9118.07
492.569	8913.27
492.772	8825.21
492.976	9107.83
493.18	8728.95
493.383	8556.93
493.587	8567.17
493.79	8450.43
493.994	8149.38
494.197	8155.52
494.401	8079.75
494.605	7809.42
494.808	8051.08
495.012	7758.22
495.215	7805.32
495.419	8098.18
495.622	7682.44
495.825	7727.5
496.029	7543.18
496.232	7774.6
496.436	7604.62
496.639	7844.23
496.843	7590.28
497.046	7688.59
497.249	7858.57
497.453	7770.51
497.656	7674.25
497.859	7541.13
498.063	7756.17
498.266	7713.16
498.469	7571.85
498.673	7573.9
498.876	7584.14
499.079	7874.95
499.282	7846.28
499.485	8085.89
499.689	7711.11
499.892	8003.97
500.095	8006.02
500.298	8079.75
500.501	7903.62
500.705	8268.16
500.908	8307.07
501.111	8298.88
501.314	8259.97
501.517	8681.85
501.72	8620.41
501.923	8528.25
502.126	8563.07
502.329	8954.23
502.532	8950.14
502.735	9218.42
502.938	9226.61
503.141	9261.43
503.344	9286
503.547	9564.53
503.75	9482.61
503.953	9677.16
504.156	9714.03
504.359	9967.98
504.562	9914.73
504.765	10258.79
504.968	10506.59
505.17	10492.26
505.373	10695
505.576	10953.05
505.779	10828.12
505.982	11063.64
506.185	11551.06
506.387	11368.79
506.59	11907.4
506.793	12001.61
506.996	12190.02
507.198	12548.42
507.401	12616
507.604	13044.02
507.807	13177.14
508.009	13470
508.212	13644.08
508.415	14102.82
508.617	14283.05
508.82	14502.18
509.022	14752.03
509.225	15259.93
509.428	15370.52
509.63	15851.79
509.833	16040.2
510.035	16668.93
510.238	16806.14
510.44	17207.55
510.643	17789.17
510.845	17889.52
511.048	18305.26
511.25	18651.36
511.453	19075.29
511.655	19970.26
511.858	19937.49
512.06	20254.92
512.262	20969.66
512.465	21268.67
512.667	21491.9
512.87	22433.96
513.072	22497.45
513.274	23398.55
513.477	23593.11
513.679	24252.56
513.881	24952.96
514.084	25235.58
514.286	25671.8
514.488	26706.02
514.69	27277.41
514.893	27560.03
515.095	28033.11
515.297	28923.97
515.499	29255.75
515.701	30201.91
515.904	30896.17
516.106	31283.23
516.308	32178.2
516.51	32651.28
516.712	32950.28
516.914	34144.25
517.116	34758.64
517.318	34809.84
517.52	35540.96
517.722	36298.71
517.925	37021.64
518.127	37580.74
518.329	38502.32
518.531	38369.21
518.733	39620.52
518.935	40564.63
519.136	40523.67
519.338	41670.53
519.54	42108.8
519.742	42391.42
519.944	43442.03
520.146	44089.18
520.348	44513.11
520.55	44701.53
520.752	45739.85
520.954	46257.98
521.155	46370.62
521.357	46880.56
521.559	48004.9
521.761	48019.24
521.963	48764.7
522.164	48846.61
522.366	49317.65
522.568	49827.59
522.77	49960.71
522.971	50548.48
523.173	50392.83
523.375	51107.57
523.576	50783.99
523.778	51232.5
523.98	51494.64
524.181	52000.49
524.383	51867.37
524.584	52571.87
524.786	52537.05
524.988	52238.05
525.189	53276.37
525.391	52721.37
525.592	53026.52
525.794	53059.29
525.995	52815.58
526.197	52563.68
526.398	52676.32
526.6	52555.49
526.801	52584.16
527.003	53069.53
527.204	51926.76
527.406	52389.6
527.607	51584.75
527.808	51871.46
528.01	50892.54
528.211	50888.44
528.412	51134.2
528.614	51091.19
528.815	50155.27
529.016	50937.59
529.218	49680.14
529.419	49166.1
529.62	48762.65
529.822	48391.97
530.023	47984.42
530.224	47087.41
530.425	46698.3
530.626	46278.46
530.828	45844.29
531.029	46040.9
531.23	44756.82
531.431	44777.3
531.632	44228.45
531.833	43900.77
532.035	43226.99
532.236	42796.91
532.437	42643.32
532.638	41496.45
532.839	41201.55
533.04	40624.02
533.241	39966.62
533.442	40169.37
533.643	39454.63
533.844	38762.42
534.045	38297.53
534.246	37621.7
534.447	36958.16
534.648	36573.14
534.849	36437.97
535.05	35444.71
535.251	35319.78
535.451	34832.36
535.652	34422.77
535.853	33863.68
536.054	33277.96
536.255	32923.66
536.456	32423.95
536.657	32235.54
536.857	31412.26
537.058	31168.55
537.259	31072.29
537.46	30722.09
537.66	29976.63
537.861	29843.51
538.062	29081.67
538.263	28862.54
538.463	28592.2
538.664	28033.11
538.865	27943
539.065	27682.91
539.266	26851.43
539.466	27039.84
539.667	26554.47
539.868	26478.7
540.068	25999.48
540.269	25710.71
540.469	25610.36
540.67	25206.91
540.87	24686.73
541.071	24510.6
541.271	24250.51
541.472	24062.1
541.672	23625.88
541.873	23388.32
542.073	22948
542.274	22917.28
542.474	22700.2
542.675	22280.36
542.875	22112.43
543.075	21971.12
543.276	21422.27
543.476	21416.12
543.676	20969.66
543.877	20836.55
544.077	20672.71
544.277	20650.18
544.478	20166.86
544.678	19990.73
544.878	19812.56
545.078	19464.41
545.279	19144.92
545.479	19323.1
545.679	18813.15
545.879	18850.02
546.079	18690.27
546.28	18258.15
546.48	17793.26
546.68	17686.77
546.88	17531.12
547.08	17545.46
547.28	17230.07
547.48	16763.14
547.68	16767.23
547.88	16451.84
548.081	16398.6
548.281	16144.65
548.481	16015.63
548.681	16058.63
548.881	15720.72
549.081	15309.08
549.28	15112.47
549.48	15083.8
549.68	14788.89
549.88	14719.26
550.08	14272.81
550.28	14229.8
550.48	14070.06
550.68	14057.77
550.88	13603.12
551.08	13365.56
551.279	13173.05
551.479	12900.67
551.679	12773.69
551.879	12497.22
552.079	12777.79
552.278	12134.73
552.478	12282.18
552.678	11991.37
552.878	11983.18
553.077	11518.29
553.277	11204.95
553.477	11293.01
553.676	11071.83
553.876	10832.22
554.076	10545.5
554.275	10709.34
554.475	10381.67
554.674	10355.04
554.874	9990.5
555.074	10004.84
555.273	9902.44
555.473	9654.64
555.672	9408.88
555.872	9345.39
556.071	9324.91
556.271	9118.07
556.47	8837.5
556.67	8726.91
556.869	8731
557.068	8653.18
557.268	8294.79
557.467	8253.83
557.667	8061.32
557.866	8106.37
558.065	7741.83
558.265	7700.87
558.464	7514.51
558.663	7512.46
558.863	7410.06
559.062	7383.44
559.261	7006.61
559.461	7035.28
559.66	6869.4
559.859	6715.8
560.058	6666.65
560.258	6406.56
560.457	6633.88
560.656	6353.31
560.855	6212
561.054	6232.48
561.253	6212
561.453	5968.29
561.652	5806.5
561.851	5882.28
562.05	5724.58
562.249	5390.77
562.448	5411.25
562.647	5478.83
562.846	5343.66
563.045	5411.25
563.244	5245.36
563.443	5312.94
563.642	5063.09
563.841	5110.19
564.04	4927.92
564.239	4925.88
564.438	4626.87
564.637	4635.07
564.836	4704.7
565.035	4493.76
565.234	4432.32
565.432	4438.46
565.631	4286.91
565.83	4284.86
566.029	4403.64
566.228	4204.99
566.427	4227.52
566.625	4112.83
566.824	4002.24
567.023	4086.21
567.222	3951.04
567.42	3860.93
567.619	3752.39
567.818	3858.89
568.016	3912.13
568.215	3652.04
568.414	3666.38
568.612	3625.42
568.811	3379.66
569.01	3543.5
569.208	3504.59
569.407	3389.9
569.605	3451.34
569.804	3250.64
570.002	3203.54
570.201	3011.03
570.4	3205.58
570.598	3047.89
570.797	3062.23
570.995	2822.61
571.193	2957.78
571.392	2968.02
571.59	2726.36
571.789	2828.76
571.987	2834.9
572.186	2892.24
572.384	2603.48
572.582	2738.65
572.781	2720.21
572.979	2519.51
573.177	2523.61
573.376	2519.51
573.574	2601.43
573.772	2367.96
573.971	2345.44
574.169	2195.93
574.367	2329.05
574.565	2386.4
574.763	2226.65
574.962	2304.48
575.16	2279.9
575.358	2103.78
575.556	2118.11
575.754	2056.67
575.952	2099.68
576.151	1968.61
576.349	2046.43
576.547	1839.59
576.745	1964.51
576.943	2017.76
577.141	1843.68
577.339	1772
577.537	1800.68
577.735	1757.67
577.933	1733.09
578.131	1700.33
578.329	1753.57
578.527	1616.36
578.725	1831.4
578.923	1575.4
579.121	1624.55
579.319	1522.15
579.516	1532.39
579.714	1778.15
579.912	1440.23
580.11	1323.5
580.308	1456.62
580.506	1354.22
580.704	1356.27
580.901	1339.88
581.099	1491.43
581.297	1294.83
581.495	1421.8
581.692	1323.5
581.89	1466.86
582.088	1268.2
582.285	1346.03
582.483	1202.67
582.681	1174
582.878	1223.15
583.076	1135.09
583.274	1180.14
583.471	1223.15
583.669	1135.09
583.866	1102.32
584.064	1100.27
584.262	1028.59
584.459	918
584.657	1139.18
584.854	1141.23
585.052	1073.65
585.249	1081.84
585.447	1061.36
585.644	911.86
585.841	1090.03
586.039	938.48
586.236	1038.83
586.434	924.15
586.631	936.43
586.828	938.48
587.026	915.95
587.223	842.23
587.42	817.65
587.618	922.1
587.815	977.39
588.012	821.75
588.21	745.97
588.407	838.13
588.604	848.37
588.801	764.4
588.999	766.45
589.196	887.28
589.393	715.25
589.59	813.56
589.787	803.32
589.984	852.47
590.182	836.08
590.379	676.34
590.576	694.77
590.773	756.21
590.97	702.97
591.167	784.88
591.364	717.3
591.561	786.93
591.758	842.23
591.955	715.25
592.152	717.3
592.349	698.87
592.546	637.43
592.743	668.15
592.94	748.02
593.137	705.01
593.334	797.17
593.531	762.36
593.727	825.84
593.924	817.65
594.121	811.51
594.318	727.54
594.515	791.03
594.712	860.66
594.908	854.51
595.105	694.77
595.302	756.21
595.499	811.51
595.696	928.24
595.892	713.21
596.089	881.14
596.286	825.84
596.482	942.58
596.679	846.32
596.876	834.04
597.072	940.53
597.269	948.72
597.466	973.3
597.662	971.25
597.859	987.63
598.055	1006.06
598.252	1049.07
598.448	1096.18
598.645	1333.74
598.841	1153.52
599.038	1358.32
599.234	1329.64
599.431	1362.41
599.627	1331.69
599.824	1513.96
600.02	1444.33
600.217	1389.03
600.413	1542.63
600.609	1495.53
600.806	1839.59
601.002	1767.91
601.198	1661.41
601.395	1901.03
601.591	1952.23
601.787	2122.21
601.984	2126.3
602.18	2140.64
602.376	2265.57
602.572	2372.06
602.769	2486.75
602.965	2570.71
603.161	2609.62
603.357	2691.54
603.553	2927.06
603.75	2785.75
603.946	2900.44
604.142	3031.51
604.338	3228.11
604.534	3246.54
604.73	3221.97
604.926	3437
605.122	3652.04
605.318	3627.46
605.514	3770.82
605.71	3869.12
605.906	3856.84
606.102	3987.91
606.298	4262.33
606.494	4438.46
606.69	4522.43
606.886	4538.81
607.082	4606.39
607.278	4682.17
607.474	5097.91
607.67	5089.71
607.866	5167.54
608.062	5585.32
608.257	5687.72
608.453	5628.33
608.649	5927.33
608.845	5900.71
609.041	6222.24
609.236	6236.58
609.432	6486.43
609.628	6660.51
609.824	6791.58
610.019	6979.99
610.215	7281.04
610.411	7485.84
610.606	7641.48
610.802	7516.56
610.998	7946.63
611.193	8198.53
611.389	8417.66
611.584	8659.32
611.78	8528.25
611.976	9148.79
612.171	9490.8
612.367	9415.02
612.562	9924.97
612.758	9759.08
612.953	10125.67
613.149	10389.86
613.344	10711.39
613.539	11053.4
613.735	11221.33
613.93	11686.22
614.126	11782.48
614.321	12278.08
614.517	12609.86
614.712	12857.66
614.907	13068.6
615.103	13547.83
615.298	13754.67
615.493	14414.12
615.688	14407.97
615.884	15008.03
616.079	15302.93
616.274	15694.1
616.47	16214.28
616.665	16664.83
616.86	16859.39
617.055	17000.7
617.25	17596.66
617.445	18432.23
617.641	18448.61
617.836	19011.81
618.031	19470.55
618.226	20025.55
618.421	20254.92
618.616	21010.62
618.811	21166.27
619.006	21713.08
619.201	22202.54
619.396	22950.05
619.591	22661.29
619.786	24174.74
619.981	24174.74
620.176	24989.83
620.371	24944.77
620.566	25581.69
620.761	26351.73
620.956	26882.15
621.151	27062.37
621.346	28035.16
621.541	28201.04
621.735	29153.35
621.93	29354.05
622.125	29913.14
622.32	29874.23
622.515	31039.53
622.709	31449.12
622.904	32022.55
623.099	32698.38
623.294	33177.61
623.488	33607.68
623.683	34627.57
623.878	34602.99
624.072	35409.89
624.267	35819.49
624.462	36661.2
624.656	36698.06
624.851	37521.35
625.046	37875.65
625.24	38815.66
625.435	38926.25
625.629	39546.79
625.824	39780.26
626.018	40294.3
626.213	40181.66
626.407	41136.01
626.602	41127.82
626.796	41494.41
626.991	42274.68
627.185	42536.82
627.38	43220.84
627.574	42870.64
627.768	43249.52
627.963	43415.4
628.157	43003.76
628.352	43923.3
628.546	42856.31
628.74	43741.03
628.935	42903.41
629.129	43437.93
629.323	42663.8
629.517	42721.14
629.712	42119.04
629.906	42233.72
630.1	41723.78
630.294	41701.25
630.489	40355.74
630.683	40234.91
630.877	39096.24
631.071	38604.72
631.265	37928.89
631.459	37007.31
631.653	36282.33
631.848	35524.58
632.042	34428.91
632.236	33818.62
632.43	32583.69
632.624	32426
632.818	30677.04
633.012	29825.08
633.206	28663.88
633.4	27936.85
633.594	26722.41
633.788	26185.84
633.982	25153.66
634.176	24273.04
634.369	23457.95
634.563	22835.36
634.757	21504.18
634.951	20826.31
635.145	20474.06
635.339	19261.66
635.533	18542.82
635.726	17881.33
635.92	16926.97
636.114	16390.41
636.308	15522.07
636.501	15040.79
636.695	14432.55
636.889	13644.08
637.083	13244.73
637.276	12620.1
637.47	12050.76
637.664	11585.87
637.857	11370.83
638.051	10707.29
638.244	10309.99
638.438	9861.48
638.632	9580.91
638.825	9081.21
639.019	8798.59
639.212	8427.9
639.406	8245.63
639.599	7731.59
639.793	7643.53
639.986	7088.53
640.18	7172.5
640.373	6658.46
640.567	6492.57
640.76	6115.75
640.954	5947.81
641.147	5603.75
641.34	5491.12
641.534	5257.65
641.727	5194.16
641.92	4966.84
642.114	4678.07
642.307	4680.12
642.5	4526.52
642.694	4114.88
642.887	4028.87
643.08	3965.38
643.273	3936.71
643.467	3557.83
643.66	3391.95
643.853	3359.18
644.046	3256.78
644.239	3111.38
644.432	2972.11
644.626	2822.61
644.819	2732.5
645.012	2628.06
645.205	2568.66
645.398	2529.75
645.591	2263.52
645.784	2214.37
645.977	2109.92
646.17	2138.59
646.363	2050.53
646.556	1880.55
646.749	1833.44
646.942	1786.34
647.135	1671.65
647.328	1702.37
647.521	1698.28
647.714	1509.86
647.907	1442.28
648.099	1327.6
648.292	1425.9
648.485	1274.35
648.678	1251.82
648.871	1122.8
649.064	1186.29
649.256	1159.66
649.449	1151.47
649.642	1010.16
649.835	1077.74
650.027	1071.6
650.22	1010.16
650.413	854.51
650.605	922.1
650.798	803.32
650.991	809.46
651.183	872.95
651.376	791.03
651.568	748.02
651.761	735.73
651.954	727.54
652.146	684.53
652.339	682.49
652.531	684.53
652.724	518.65
652.916	616.95
653.109	532.98
653.301	645.62
653.494	520.7
653.686	555.51
653.879	670.2
654.071	651.77
654.263	479.74
654.456	479.74
654.648	485.88
654.84	526.84
655.033	344.57
655.225	526.84
655.417	276.99
655.61	532.98
655.802	418.3
655.994	551.42
656.186	303.61
656.379	403.96
656.571	285.18
656.763	397.82
656.955	389.63
657.148	342.52
657.34	457.21
657.532	276.99
657.724	330.23
657.916	375.29
658.108	363
658.3	346.62
658.492	365.05
658.684	264.7
658.876	303.61
659.068	217.6
659.26	197.12
659.452	172.54
659.644	287.23
659.836	377.34
660.028	283.13
660.22	244.22
660.412	215.55
660.604	164.35
660.796	260.6
660.988	219.64
661.18	172.54
661.372	268.8
661.563	215.55
661.755	250.36
661.947	137.73
662.139	195.07
662.331	127.49
662.522	211.45
662.714	150.01
662.906	59.9
663.097	166.4
663.289	141.82
663.481	33.28
663.673	174.59
663.864	207.36
664.056	176.64
664.247	23.04
664.439	301.56
664.631	123.39
664.822	336.38
665.014	166.4
665.205	119.29
665.397	176.64
665.588	199.16
665.78	137.73
665.971	213.5
666.163	49.66
666.354	244.22
666.546	-1.54
666.737	41.47
666.929	147.97
667.12	88.57
667.311	111.1
667.503	158.21
667.694	219.64
667.885	43.52
668.077	160.25
668.268	102.91
668.459	33.28
668.651	170.49
668.842	160.25
669.033	64
669.224	55.81
669.416	246.27
669.607	10.75
669.798	64
669.989	168.45
670.18	119.29
670.371	143.87
670.563	-22.02
670.754	176.64
670.945	158.21
671.136	100.86
671.327	145.92
671.518	190.97
671.709	260.6
671.9	82.43
672.091	211.45
672.282	84.48
672.473	184.83
672.664	80.38
672.855	43.52
673.046	107.01
673.237	147.97
673.428	217.6
673.619	170.49
673.809	88.57
674	217.6
674.191	135.68
674.382	107.01
674.573	20.99
674.764	74.24
674.954	176.64
675.145	170.49
675.336	-3.58
675.527	51.71
675.717	80.38
675.908	96.77
676.099	33.28
676.289	102.91
676.48	6.66
676.671	98.81
676.861	-19.97
677.052	133.63
677.243	70.14
677.433	88.57
677.624	111.1
677.814	154.11
678.005	125.44
678.195	143.87
678.386	76.29
678.576	121.34
678.767	33.28
678.957	66.05
679.148	158.21
679.338	287.23
679.529	174.59
679.719	178.69
679.909	240.12
680.1	236.03
680.29	184.83
680.481	-87.55
680.671	248.32
680.861	205.31
681.052	147.97
681.242	68.09
681.432	131.58
681.622	168.45
681.813	12.8
682.003	162.3
682.193	39.42
682.383	145.92
682.573	94.72
682.764	119.29
682.954	141.82
683.144	176.64
683.334	25.09
683.524	94.72
683.714	150.01
683.904	184.83
684.094	43.52
684.284	117.25
684.474	195.07
684.664	107.01
684.854	152.06
685.044	61.95
685.234	98.81
685.424	248.32
685.614	61.95
685.804	340.47
685.994	45.57
686.184	100.86
686.374	150.01
686.564	168.45
686.753	115.2
686.943	113.15
687.133	68.09
687.323	104.96
687.513	205.31
687.702	125.44
687.892	121.34
688.082	131.58
688.272	252.41
688.461	154.11
688.651	313.85
688.841	166.4
689.03	127.49
689.22	78.33
689.41	219.64
689.599	158.21
689.789	57.86
689.979	211.45
690.168	117.25
690.358	176.64
690.547	107.01
690.737	190.97
690.926	170.49
691.116	160.25
691.305	248.32
691.495	236.03
691.684	102.91
691.874	123.39
692.063	180.73
692.252	135.68
692.442	199.16
692.631	59.9
692.82	94.72
693.01	113.15
693.199	41.47
693.388	164.35
693.578	133.63
693.767	211.45
693.956	182.78
694.146	123.39
694.335	164.35
694.524	139.77
694.713	238.08
694.902	100.86
695.092	72.19
695.281	164.35
695.47	64
695.659	121.34
695.848	137.73
696.037	92.67
696.226	117.25
696.415	147.97
696.604	207.36
696.793	229.88
696.982	92.67
697.171	223.74
697.36	47.62
697.549	121.34
697.738	61.95
697.927	143.87
698.116	88.57
698.305	147.97
698.494	129.53
698.683	49.66
698.872	242.17
699.061	174.59
699.25	4.61
699.438	154.11
699.627	64
699.816	315.9
700.005	39.42
700.193	182.78
700.382	182.78
700.571	152.06
700.76	137.73
700.948	176.64
701.137	178.69
701.326	109.05
701.514	23.04
701.703	158.21
701.892	174.59
702.08	356.86
702.269	162.3
702.457	182.78
702.646	172.54
702.834	150.01
703.023	197.12
703.212	236.03
703.4	152.06
703.589	74.24
703.777	109.05
703.965	43.52
704.154	59.9
704.342	84.48
704.531	137.73
704.719	129.53
704.907	227.84
705.096	129.53
705.284	90.62
705.472	137.73
705.661	176.64
705.849	203.26
706.037	180.73
706.226	137.73
706.414	193.02
706.602	68.09
706.79	127.49
706.979	90.62
707.167	109.05
707.355	92.67
707.543	285.18
707.731	217.6
707.919	141.82
708.107	121.34
708.296	8.7
708.484	14.85
708.672	188.93
708.86	174.59
709.048	72.19
709.236	-28.16
709.424	135.68
709.612	94.72
709.8	-17.92
709.988	135.68
710.176	233.98
710.364	147.97
710.551	84.48
710.739	158.21
710.927	31.23
711.115	172.54
711.303	246.27
711.491	231.93
711.679	172.54
711.866	223.74
712.054	102.91
712.242	113.15
712.43	229.88
712.617	152.06
712.805	221.69
712.993	207.36
713.181	49.66
713.368	272.89
713.556	145.92
713.744	102.91
713.931	352.76
714.119	211.45
714.306	2.56
714.494	139.77
714.682	143.87
714.869	51.71
715.057	125.44
715.244	10.75
715.432	225.79
715.619	12.8
715.807	84.48
715.994	129.53
716.182	127.49
716.369	193.02
716.556	186.88
716.744	-54.78
716.931	143.87
717.119	139.77
717.306	102.91
717.493	188.93
717.681	121.34
717.868	125.44
718.055	233.98
718.242	104.96
718.43	150.01
718.617	195.07
718.804	156.16
718.991	154.11
719.179	137.73
719.366	139.77
719.553	141.82
719.74	205.31
719.927	115.2
720.114	168.45
720.301	27.14
720.488	80.38
720.676	64
720.863	248.32
721.05	242.17
721.237	180.73
721.424	182.78
721.611	113.15
721.798	109.05
721.985	117.25
722.172	145.92
722.358	70.14
722.545	293.37
722.732	123.39
722.919	133.63
723.106	143.87
723.293	150.01
723.48	180.73
723.667	139.77
723.853	139.77
724.04	207.36
724.227	268.8
724.414	143.87
724.6	223.74
724.787	270.84
724.974	307.71
725.161	145.92
725.347	129.53
725.534	178.69
725.72	193.02
725.907	154.11
726.094	176.64
726.28	135.68
726.467	137.73
726.653	104.96
726.84	252.41
727.027	279.04
727.213	150.01
727.4	256.51
727.586	170.49
727.773	176.64
727.959	74.24
728.145	137.73
728.332	242.17
728.518	121.34
728.705	279.04
728.891	238.08
729.077	225.79
729.264	80.38
729.45	117.25
729.636	229.88
729.823	121.34
730.009	260.6
730.195	186.88
730.382	209.4
730.568	102.91
730.754	170.49
730.94	107.01
731.126	166.4
731.313	219.64
731.499	121.34
731.685	158.21
731.871	190.97
732.057	176.64
732.243	242.17
732.429	152.06
732.615	309.76
732.801	250.36
732.987	174.59
733.173	227.84
733.359	193.02
733.545	266.75
733.731	92.67
733.917	242.17
734.103	209.4
734.289	256.51
734.475	127.49
734.661	346.62
734.847	172.54
735.033	190.97
735.219	250.36
735.404	109.05
735.59	109.05
735.776	225.79
735.962	217.6
736.148	205.31
736.333	297.47
736.519	213.5
736.705	96.77
736.89	135.68
737.076	211.45
737.262	137.73
737.447	164.35
737.633	127.49
737.819	256.51
738.004	252.41
738.19	156.16
738.375	98.81
738.561	213.5
738.747	252.41
738.932	68.09
739.118	377.34
739.303	207.36
739.489	238.08
739.674	141.82
739.859	236.03
740.045	293.37
740.23	227.84
740.416	41.47
740.601	203.26
740.786	178.69
740.972	16.9
741.157	223.74
741.342	184.83
741.528	76.29
741.713	190.97
741.898	199.16
742.084	150.01
742.269	178.69
742.454	156.16
742.639	293.37
742.824	217.6
743.01	219.64
743.195	354.81
743.38	229.88
743.565	174.59
743.75	268.8
743.935	227.84
744.12	188.93
744.305	111.1
744.49	186.88
744.675	123.39
744.86	82.43
745.045	162.3
745.23	193.02
745.415	166.4
745.6	264.7
745.785	190.97
745.97	268.8
746.155	229.88
746.34	283.13
746.525	184.83
746.71	244.22
746.895	131.58
747.079	33.28
747.264	195.07
747.449	281.08
747.634	207.36
747.819	236.03
748.003	61.95
748.188	74.24
748.373	215.55
748.557	135.68
748.742	160.25
748.927	199.16
749.111	133.63
749.296	164.35
749.481	195.07
749.665	158.21
749.85	137.73
750.034	205.31
750.219	197.12
750.404	104.96
750.588	164.35
750.773	94.72
750.957	205.31
751.141	152.06
751.326	166.4
751.51	109.05
751.695	121.34
751.879	145.92
752.064	207.36
752.248	129.53
752.432	207.36
752.617	238.08
752.801	141.82
752.985	147.97
753.17	248.32
753.354	135.68
753.538	137.73
753.722	154.11
753.907	59.9
754.091	119.29
754.275	158.21
754.459	123.39
754.643	74.24
754.828	170.49
755.012	147.97
755.196	111.1
755.38	94.72
755.564	90.62
755.748	143.87
755.932	150.01
756.116	98.81
756.3	184.83
756.484	88.57
756.668	117.25
756.852	-44.54
757.036	90.62
757.22	86.53
757.404	102.91
757.588	18.94
757.772	119.29
757.956	68.09
758.14	309.76
758.323	109.05
758.507	170.49
758.691	41.47
758.875	219.64
759.059	193.02
759.242	45.57
759.426	158.21
759.61	74.24
759.794	70.14
759.977	182.78
760.161	348.67
760.345	244.22
760.528	231.93
760.712	43.52
760.895	109.05
761.079	162.3
761.263	-77.31
761.446	23.04
761.63	139.77
761.813	207.36
761.997	74.24
762.18	84.48
762.364	121.34
762.547	-81.41
762.731	125.44
762.914	86.53
763.098	72.19
763.281	109.05
763.464	78.33
763.648	125.44
763.831	10.75
764.015	102.91
764.198	141.82
764.381	45.57
764.564	125.44
764.748	117.25
764.931	94.72
765.114	78.33
765.297	111.1
765.481	-26.11
765.664	74.24
765.847	86.53
766.03	219.64
766.213	45.57
766.397	119.29
766.58	-28.16
766.763	94.72
766.946	45.57
767.129	74.24
767.312	2.56
767.495	76.29
767.678	55.81
767.861	90.62
768.044	-1.54
768.227	-30.21
768.41	47.62
768.593	90.62
768.776	90.62
768.959	64
769.142	164.35
769.324	137.73
769.507	119.29
769.69	35.33
769.873	88.57
770.056	250.36
770.239	94.72
770.421	180.73
770.604	94.72
770.787	25.09
770.97	35.33
771.152	20.99
771.335	117.25
771.518	102.91
771.7	170.49
771.883	201.21
772.066	-5.63
772.248	41.47
772.431	98.81
772.613	133.63
772.796	4.61
772.978	55.81
773.161	193.02
773.343	20.99
773.526	-48.64
773.708	0.51
773.891	-65.02
774.073	90.62
774.256	-5.63
774.438	223.74
774.621	31.23
774.803	45.57
774.985	139.77
775.168	170.49
775.35	37.38
775.532	115.2
775.715	25.09
775.897	72.19
776.079	-11.78
776.261	31.23
776.444	-30.21
776.626	33.28
776.808	18.94
776.99	-24.06
777.173	27.14
777.355	33.28
777.537	88.57
777.719	88.57
777.901	-30.21
778.083	-85.5
778.265	-42.5
778.447	119.29
778.629	-30.21
778.811	27.14
778.993	74.24
779.175	150.01
779.357	2.56
779.539	-54.78
779.721	80.38
779.903	119.29
780.085	14.85
780.267	107.01
780.449	55.81
780.631	104.96
780.812	102.91
780.994	86.53
781.176	-32.26
781.358	-11.78
781.54	51.71
781.721	29.18
781.903	98.81
782.085	20.99
782.267	113.15
782.448	-77.31
782.63	-3.58
782.812	137.73
782.993	16.9
783.175	64
783.357	10.75
783.538	102.91
783.72	29.18
783.901	68.09
784.083	90.62
784.264	78.33
784.446	47.62
784.627	2.56
784.809	152.06
784.99	-17.92
785.172	74.24
785.353	-11.78
785.535	12.8
785.716	-36.35
785.897	-56.83
786.079	35.33
786.26	55.81
786.441	76.29
786.623	-95.74
786.804	-5.63
786.985	10.75
787.167	80.38
787.348	10.75
787.529	94.72
787.71	145.92
787.891	119.29
788.073	-44.54
788.254	-30.21
788.435	207.36
788.616	-1.54
788.797	-75.26
788.978	55.81
789.159	-71.17
789.34	49.66
789.522	0.51
789.703	20.99
789.884	-26.11
790.065	12.8
790.246	170.49
790.427	49.66
790.607	72.19
790.788	51.71
790.969	-5.63
791.15	100.86
791.331	-1.54
791.512	-40.45
791.693	-54.78
791.874	47.62
792.054	225.79
792.235	70.14
792.416	18.94
792.597	-87.55
792.778	117.25
792.958	45.57
793.139	104.96
793.32	12.8
793.5	-26.11
793.681	47.62
793.862	57.86
794.042	76.29
794.223	-65.02
794.404	-3.58
794.584	-9.73
794.765	76.29
794.945	10.75
795.126	47.62
795.306	43.52
795.487	37.38
795.667	53.76
795.848	-26.11
796.028	-28.16
796.209	74.24
796.389	16.9
796.57	47.62
796.75	-65.02
796.93	-60.93
797.111	-22.02
797.291	-38.4
797.471	104.96
797.652	-13.82
797.832	-69.12
798.012	4.61
798.192	27.14
798.373	-65.02
798.553	-3.58
798.733	107.01
798.913	-28.16
799.093	2.56
799.274	-22.02
799.454	27.14
799.634	64
799.814	90.62
799.994	66.05
800.174	88.57
800.354	33.28
800.534	-7.68
800.714	53.76
800.894	2.56
801.074	-103.93
801.254	-17.92
801.434	59.9
801.614	-69.12
801.794	12.8
801.974	1931.75
802.154	35.33
802.334	-7.68
802.514	-11.78
802.693	55.81
802.873	-46.59
803.053	129.53
803.233	4.61
803.413	-9.73
803.592	-30.21
803.772	20.99
803.952	-5.63
804.131	-95.74
804.311	4.61
804.491	41.47
804.67	-112.13
804.85	-67.07
805.03	0.51
805.209	84.48
805.389	12.8
805.568	-28.16
805.748	-30.21
805.928	61.95
806.107	49.66
806.287	49.66
806.466	80.38
806.646	-19.97
806.825	0.51
807.004	-54.78
807.184	49.66
807.363	53.76
807.543	-9.73
807.722	-69.12
807.901	96.77
808.081	25.09
808.26	-60.93
808.439	64
808.619	102.91
808.798	-62.98
808.977	0.51
809.156	158.21
809.336	76.29
809.515	59.9
809.694	-28.16
809.873	61.95
810.052	86.53
810.231	104.96
810.411	2.56
810.59	51.71
810.769	35.33
810.948	39.42
811.127	-95.74
811.306	-54.78
811.485	64
811.664	76.29
811.843	49.66
812.022	-3.58
812.201	-52.74
812.38	45.57
812.559	-42.5
812.737	18.94
812.916	-91.65
813.095	-42.5
813.274	20.99
813.453	53.76
813.632	45.57
813.811	92.67
813.989	-79.36
814.168	-15.87
814.347	-30.21
814.526	-9.73
814.704	90.62
814.883	61.95
815.062	0.51
815.24	57.86
815.419	14.85
815.598	90.62
815.776	-73.21
815.955	2.56
816.133	-34.3
816.312	6.66
816.49	31.23
816.669	-28.16
816.847	100.86
817.026	70.14
817.204	12.8
817.383	-19.97
817.561	-62.98
817.74	45.57
817.918	-62.98
818.097	-65.02
818.275	-15.87
818.453	12.8
818.632	107.01
818.81	-54.78
818.988	82.43
819.167	70.14
819.345	12.8
819.523	-81.41
819.701	-17.92
819.879	6.66
820.058	20.99
820.236	70.14
820.414	-75.26
820.592	-30.21
820.77	31.23
820.948	-9.73
821.127	-22.02
821.305	51.71
821.483	-34.3
821.661	76.29
821.839	25.09
822.017	-83.45
822.195	-46.59
822.373	127.49
822.551	-38.4
822.729	66.05
822.907	47.62
823.085	2.56
823.262	-5.63
823.44	-44.54
823.618	6.66
823.796	14.85
823.974	-122.37
824.152	-99.84
824.329	33.28
824.507	51.71
824.685	78.33
824.863	-26.11
825.04	57.86
825.218	70.14
825.396	-48.64
825.574	66.05
825.751	-26.11
825.929	20.99
826.107	-81.41
826.284	43.52
826.462	104.96
826.639	-124.41
826.817	-7.68
826.994	41.47
827.172	-40.45
827.349	139.77
827.527	141.82
827.704	23.04
827.882	18.94
828.059	33.28
828.237	-56.83
828.414	100.86
828.591	-112.13
828.769	-15.87
828.946	-101.89
829.124	154.11
829.301	35.33
829.478	-19.97
829.655	0.51
829.833	-67.07
830.01	-110.08
830.187	16.9
830.364	29.18
830.542	4.61
830.719	139.77
830.896	55.81
831.073	150.01
831.25	37.38
831.427	45.57
831.604	64
831.782	10.75
831.959	31.23
832.136	-13.82
832.313	14.85
832.49	10.75
832.667	-34.3
832.844	-5.63
833.021	100.86
833.198	31.23
833.374	-58.88
833.551	-7.68
833.728	-71.17
833.905	59.9
834.082	-103.93
834.259	8.7
834.436	92.67
834.612	-13.82
834.789	6.66
834.966	72.19
835.143	-54.78
835.319	-24.06
835.496	86.53
835.673	-7.68
835.85	57.86
836.026	29.18
836.203	98.81
836.38	-46.59
836.556	37.38
836.733	8.7
836.909	172.54
837.086	51.71
837.262	-34.3
837.439	-22.02
837.616	-38.4
837.792	12.8
837.968	-22.02
838.145	-105.98
838.321	-30.21
838.498	80.38
838.674	74.24
838.851	-17.92
839.027	8.7
839.203	-9.73
839.38	20.99
839.556	-65.02
839.732	53.76
839.909	-13.82
840.085	92.67
840.261	-5.63
840.437	2.56
840.614	-75.26
840.79	98.81
840.966	59.9
841.142	14.85
841.318	-15.87
841.494	-9.73
841.671	43.52
841.847	-87.55
842.023	-114.17
842.199	104.96
842.375	43.52
842.551	-52.74
842.727	-79.36
842.903	104.96
843.079	-34.3
843.255	66.05
843.431	6.66
843.607	76.29
843.783	-151.04
843.959	10.75
844.134	-73.21
844.31	190.97
844.486	-91.65
844.662	-62.98
844.838	-19.97
845.013	39.42
845.189	61.95
845.365	92.67
845.541	16.9
845.716	-15.87
845.892	78.33
846.068	-73.21
846.244	-19.97
846.419	14.85
846.595	-67.07
846.77	-22.02
846.946	31.23
847.122	18.94
847.297	-81.41
847.473	176.64
847.648	-97.79
847.824	16.9
847.999	-140.8
848.175	55.81
848.35	-24.06
848.526	66.05
848.701	-28.16
848.876	49.66
849.052	49.66
849.227	-42.5
849.403	61.95
849.578	2.56
849.753	49.66
849.929	59.9
850.104	-38.4
850.279	-44.54
850.454	-24.06
850.63	64
850.805	49.66
850.98	31.23
851.155	-67.07
851.33	45.57
851.505	-79.36
851.681	123.39
851.856	-22.02
852.031	59.9
852.206	23.04
852.381	-36.35
852.556	-11.78
852.731	25.09
852.906	72.19
853.081	10.75
853.256	39.42
853.431	47.62
853.606	-28.16
853.781	-93.69
853.956	-19.97
854.131	31.23
854.305	-67.07
854.48	-36.35
854.655	-30.21
854.83	-81.41
855.005	16.9
855.18	27.14
855.354	-38.4
855.529	18.94
855.704	-52.74
855.879	35.33
856.053	-62.98
856.228	121.34
856.403	-120.32
856.577	72.19
856.752	-120.32
856.926	-69.12
857.101	12.8
857.276	-108.03
857.45	20.99
857.625	80.38
857.799	0.51
857.974	-34.3
858.148	-54.78
858.323	-13.82
858.497	-24.06
858.672	-15.87
858.846	-32.26
859.02	-19.97
859.195	-52.74
859.369	-77.31
859.543	51.71
859.718	57.86
859.892	35.33
860.066	-36.35
860.241	4.61
860.415	20.99
860.589	2.56
860.763	-50.69
860.938	-54.78
861.112	70.14
861.286	-34.3
861.46	18.94
861.634	45.57
861.808	72.19
861.982	-56.83
862.157	-58.88
862.331	-62.98
862.505	-62.98
862.679	-67.07
862.853	-38.4
863.027	-50.69
863.201	125.44
863.375	-3.58
863.549	16.9
863.722	-56.83
863.896	78.33
864.07	-50.69
864.244	16.9
864.418	31.23
864.592	23.04
864.766	-24.06
864.939	51.71
865.113	-26.11
865.287	45.57
865.461	-48.64
865.634	-26.11
865.808	-65.02
865.982	-7.68
866.156	-85.5
866.329	-60.93
866.503	-130.56
866.676	88.57
866.85	64
867.024	-87.55
867.197	-11.78
867.371	-13.82
867.544	8.7
867.718	-116.22
867.891	90.62
868.065	-50.69
868.238	74.24
868.412	121.34
868.585	-30.21
868.759	-30.21
868.932	-77.31
869.105	-81.41
869.279	-17.92
869.452	23.04
869.625	-9.73
869.799	16.9
869.972	-60.93
870.145	-87.55
870.319	84.48
870.492	-48.64
870.665	-40.45
870.838	-77.31
871.011	-48.64
871.185	-44.54
871.358	-38.4
871.531	59.9
871.704	-38.4
871.877	51.71
872.05	14.85
872.223	-30.21
872.396	20.99
872.569	70.14
872.742	-87.55
872.915	59.9
873.088	16.9
873.261	-93.69
873.434	80.38
873.607	98.81
873.78	98.81
873.953	-99.84
874.126	-17.92
874.299	16.9
874.471	-116.22
874.644	-114.17
874.817	61.95
874.99	70.14
875.163	-1.54
875.335	-11.78
875.508	20.99
875.681	41.47
875.853	0.51
876.026	39.42
876.199	-13.82
876.371	84.48
876.544	-77.31
876.717	100.86
876.889	-54.78
877.062	-42.5
877.234	-58.88
877.407	-44.54
877.579	-163.33
877.752	-28.16
877.924	145.92
878.097	82.43
878.269	-13.82
878.442	-48.64
878.614	51.71
878.786	-58.88
878.959	14.85
879.131	-7.68
879.303	-30.21
879.476	-38.4
879.648	131.58
879.82	78.33
879.993	39.42
880.165	-15.87
880.337	-105.98
880.509	41.47
880.681	-5.63
880.854	-24.06
881.026	-5.63
881.198	176.64
881.37	-19.97
881.542	-75.26
881.714	-36.35
881.886	-42.5
882.058	-105.98
882.23	-77.31
882.402	4.61
882.574	29.18
882.746	66.05
882.918	156.16
883.09	25.09
883.262	-9.73
883.434	-91.65
883.606	-50.69
883.778	-40.45
883.95	94.72
884.122	-60.93
884.293	47.62
884.465	-48.64
884.637	117.25
884.809	-83.45
884.98	2.56
885.152	92.67
885.324	49.66
885.496	-79.36
885.667	-40.45
885.839	33.28
886.011	100.86
886.182	-46.59
886.354	109.05
886.525	49.66
886.697	96.77
886.869	-110.08
887.04	-40.45
887.212	51.71
887.383	117.25
887.555	-36.35
887.726	-5.63
887.897	-67.07
888.069	20.99
888.24	31.23
888.412	-26.11
888.583	86.53
888.754	-17.92
888.926	-130.56
889.097	-103.93
889.268	-54.78
889.44	-7.68
889.611	-126.46
889.782	-132.61
889.953	-128.51
890.125	47.62
890.296	-95.74
890.467	-36.35
890.638	-32.26
890.809	-7.68
890.98	-67.07
891.151	12.8
891.323	84.48
891.494	4.61
891.665	51.71
891.836	-99.84
892.007	-7.68
892.178	-62.98
892.349	-36.35
892.52	-79.36
892.691	-50.69
892.862	-75.26
893.032	-130.56
893.203	-62.98
893.374	20.99
893.545	170.49
893.716	-7.68
893.887	76.29
894.057	-24.06
894.228	-79.36
894.399	-36.35
894.57	53.76
894.74	-30.21
894.911	23.04
895.082	-28.16
895.253	-7.68
895.423	-22.02
895.594	23.04
895.764	-17.92
895.935	-85.5
896.106	-5.63
896.276	-67.07
896.447	-3.58
896.617	-34.3
896.788	-136.7
896.958	-54.78
897.129	-42.5
897.299	2.56
897.47	121.34
897.64	-11.78
897.81	-30.21
897.981	76.29
898.151	-58.88
898.322	74.24
898.492	29.18
898.662	6.66
898.832	4.61
899.003	-97.79
899.173	-26.11
899.343	-87.55
899.513	-54.78
