Data from USB4F104151__215__11-05-54-828.txt Node

Date: Wed Feb 26 11:05:54 EST 2025
User: louis
Spectrometer: USB4F10415
Trigger mode: 4
Integration Time (sec): 1.000000E-1
Scans to average: 1
Electric dark correction enabled: true
Nonlinearity correction enabled: false
Boxcar width: 0
XAxis mode: Wavelengths
Number of Pixels in Spectrum: 3648
>>>>>Begin Spectral Data<<<<<
178.204	-354.98
178.424	-354.98
178.644	-354.98
178.864	-352.93
179.084	-434.85
179.304	-2.73
179.524	-45.74
179.744	-84.65
179.964	-10.92
180.184	27.99
180.404	25.94
180.624	-25.26
180.844	23.89
181.064	25.94
181.283	46.42
181.503	30.04
181.723	-10.92
181.943	-72.36
182.163	175.44
182.383	-4.78
182.602	21.85
182.822	103.76
183.042	114
183.262	-35.5
183.482	-25.26
183.701	1.37
183.921	107.86
184.141	-96.94
184.361	23.89
184.58	52.56
184.8	5.46
185.02	38.23
185.239	165.2
185.459	36.18
185.679	83.28
185.898	-49.83
186.118	11.61
186.338	50.52
186.557	111.96
186.777	-31.4
186.997	52.56
187.216	73.04
187.436	181.59
187.655	9.56
187.875	87.38
188.095	91.48
188.314	122.2
188.534	120.15
188.753	21.85
188.973	107.86
189.192	249.17
189.412	77.14
189.631	23.89
189.851	128.34
190.07	202.07
190.29	-113.32
190.509	68.95
190.729	19.8
190.948	107.86
191.168	224.59
191.387	56.66
191.607	-6.83
191.826	95.57
192.045	62.8
192.265	50.52
192.484	77.14
192.704	118.1
192.923	-29.35
193.142	146.77
193.362	91.48
193.581	195.92
193.8	107.86
194.02	58.71
194.239	54.61
194.458	116.05
194.678	9.56
194.897	11.61
195.116	77.14
195.335	148.82
195.555	91.48
195.774	3.41
195.993	109.91
196.212	34.13
196.432	5.46
196.651	9.56
196.87	54.61
197.089	243.03
197.308	73.04
197.528	36.18
197.747	-64.17
197.966	114
198.185	111.96
198.404	-25.26
198.623	30.04
198.842	148.82
199.062	124.24
199.281	107.86
199.5	77.14
199.719	27.99
199.938	81.24
200.157	91.48
200.376	58.71
200.595	138.58
200.814	46.42
201.033	11.61
201.252	197.97
201.471	138.58
201.69	73.04
201.909	46.42
202.128	107.86
202.347	5.46
202.566	89.43
202.785	-80.55
203.004	21.85
203.223	251.22
203.442	118.1
203.661	-33.45
203.879	-12.97
204.098	154.96
204.317	-23.21
204.536	183.63
204.755	120.15
204.974	150.87
205.193	7.51
205.411	138.58
205.63	44.37
205.849	68.95
206.068	79.19
206.287	7.51
206.505	138.58
206.724	56.66
206.943	-68.27
207.162	-4.78
207.381	-4.78
207.599	-45.74
207.818	11.61
208.037	5.46
208.255	99.67
208.474	99.67
208.693	27.99
208.911	75.09
209.13	79.19
209.349	62.8
209.567	136.53
209.786	64.85
210.005	38.23
210.223	21.85
210.442	-70.31
210.661	44.37
210.879	132.44
211.098	68.95
211.316	54.61
211.535	148.82
211.753	38.23
211.972	27.99
212.191	54.61
212.409	15.7
212.628	120.15
212.846	-23.21
213.065	124.24
213.283	99.67
213.502	58.71
213.72	21.85
213.938	-10.92
214.157	38.23
214.375	142.68
214.594	-6.83
214.812	30.04
215.031	-113.32
215.249	79.19
215.467	38.23
215.686	64.85
215.904	83.28
216.122	91.48
216.341	169.3
216.559	124.24
216.778	140.63
216.996	177.49
217.214	77.14
217.432	42.32
217.651	60.76
217.869	83.28
218.087	-2.73
218.306	21.85
218.524	66.9
218.742	54.61
218.96	19.8
219.179	15.7
219.397	-31.4
219.615	228.69
219.833	27.99
220.051	73.04
220.27	114
220.488	148.82
220.706	71
220.924	-10.92
221.142	13.65
221.36	95.57
221.578	13.65
221.796	-12.97
222.015	91.48
222.233	-49.83
222.451	234.83
222.669	19.8
222.887	111.96
223.105	-29.35
223.323	42.32
223.541	21.85
223.759	56.66
223.977	79.19
224.195	152.91
224.413	91.48
224.631	19.8
224.849	40.28
225.067	251.22
225.285	-17.07
225.503	17.75
225.721	-117.42
225.939	73.04
226.157	91.48
226.375	195.92
226.592	34.13
226.81	-33.45
227.028	232.79
227.246	206.16
227.464	79.19
227.682	85.33
227.9	111.96
228.117	99.67
228.335	89.43
228.553	44.37
228.771	99.67
228.989	81.24
229.206	167.25
229.424	34.13
229.642	91.48
229.86	-51.88
230.077	193.87
230.295	1.37
230.513	138.58
230.731	148.82
230.948	185.68
231.166	175.44
231.384	23.89
231.601	64.85
231.819	197.97
232.037	-10.92
232.254	5.46
232.472	62.8
232.689	3.41
232.907	101.72
233.125	36.18
233.342	89.43
233.56	-27.31
233.777	21.85
233.995	7.51
234.213	36.18
234.43	73.04
234.648	27.99
234.865	-45.74
235.083	118.1
235.3	73.04
235.518	163.15
235.735	124.24
235.953	167.25
236.17	-8.87
236.388	34.13
236.605	79.19
236.822	152.91
237.04	134.48
237.257	89.43
237.475	-29.35
237.692	7.51
237.909	97.62
238.127	-37.55
238.344	91.48
238.562	44.37
238.779	-15.02
238.996	7.51
239.214	21.85
239.431	107.86
239.648	25.94
239.865	101.72
240.083	134.48
240.3	71
240.517	21.85
240.735	99.67
240.952	144.72
241.169	58.71
241.386	97.62
241.603	89.43
241.821	-10.92
242.038	89.43
242.255	23.89
242.472	-15.02
242.689	79.19
242.907	140.63
243.124	91.48
243.341	36.18
243.558	-35.5
243.775	73.04
243.992	46.42
244.209	93.52
244.426	132.44
244.643	134.48
244.86	19.8
245.078	126.29
245.295	95.57
245.512	30.04
245.729	93.52
245.946	101.72
246.163	-2.73
246.38	30.04
246.597	85.33
246.814	81.24
247.031	-10.92
247.248	54.61
247.464	124.24
247.681	60.76
247.898	116.05
248.115	-6.83
248.332	-88.75
248.549	99.67
248.766	200.02
248.983	93.52
249.2	95.57
249.417	75.09
249.633	32.08
249.85	7.51
250.067	83.28
250.284	17.75
250.501	38.23
250.717	157.01
250.934	38.23
251.151	-49.83
251.368	-17.07
251.585	73.04
251.801	91.48
252.018	-19.11
252.235	62.8
252.451	-53.93
252.668	11.61
252.885	109.91
253.102	50.52
253.318	-29.35
253.535	-0.68
253.752	5.46
253.968	42.32
254.185	-43.69
254.401	85.33
254.618	46.42
254.835	1.37
255.051	73.04
255.268	62.8
255.484	81.24
255.701	15.7
255.917	3.41
256.134	40.28
256.351	95.57
256.567	-21.16
256.784	30.04
257	-19.11
257.217	122.2
257.433	64.85
257.65	105.81
257.866	85.33
258.082	-33.45
258.299	-43.69
258.515	-35.5
258.732	-39.59
258.948	-53.93
259.165	38.23
259.381	-133.8
259.597	79.19
259.814	17.75
260.03	77.14
260.246	46.42
260.463	91.48
260.679	91.48
260.895	7.51
261.112	114
261.328	-29.35
261.544	-2.73
261.761	167.25
261.977	21.85
262.193	-12.97
262.409	99.67
262.626	15.7
262.842	73.04
263.058	-51.88
263.274	7.51
263.49	97.62
263.707	58.71
263.923	126.29
264.139	-80.55
264.355	64.85
264.571	148.82
264.787	46.42
265.004	107.86
265.22	68.95
265.436	-15.02
265.652	54.61
265.868	40.28
266.084	9.56
266.3	21.85
266.516	-29.35
266.732	99.67
266.948	17.75
267.164	56.66
267.38	73.04
267.596	48.47
267.812	171.35
268.028	83.28
268.244	-35.5
268.46	-23.21
268.676	38.23
268.892	50.52
269.108	27.99
269.324	15.7
269.54	19.8
269.756	157.01
269.972	-12.97
270.188	3.41
270.403	-58.03
270.619	75.09
270.835	120.15
271.051	30.04
271.267	17.75
271.483	46.42
271.698	62.8
271.914	126.29
272.13	58.71
272.346	58.71
272.562	46.42
272.777	140.63
272.993	40.28
273.209	-2.73
273.425	148.82
273.64	-29.35
273.856	48.47
274.072	9.56
274.287	34.13
274.503	101.72
274.719	118.1
274.934	11.61
275.15	-51.88
275.366	54.61
275.581	-78.51
275.797	62.8
276.012	91.48
276.228	89.43
276.444	17.75
276.659	132.44
276.875	-17.07
277.09	-12.97
277.306	-33.45
277.521	77.14
277.737	62.8
277.952	120.15
278.168	25.94
278.383	124.24
278.599	144.72
278.814	130.39
279.03	50.52
279.245	105.81
279.461	54.61
279.676	118.1
279.892	-96.94
280.107	-47.79
280.322	-41.64
280.538	79.19
280.753	46.42
280.969	1.37
281.184	48.47
281.399	97.62
281.615	54.61
281.83	7.51
282.045	-60.07
282.26	50.52
282.476	13.65
282.691	107.86
282.906	42.32
283.122	85.33
283.337	-29.35
283.552	50.52
283.767	13.65
283.983	101.72
284.198	40.28
284.413	124.24
284.628	-49.83
284.843	66.9
285.058	95.57
285.274	99.67
285.489	-10.92
285.704	130.39
285.919	23.89
286.134	52.56
286.349	15.7
286.564	-29.35
286.779	210.26
286.995	-0.68
287.21	-12.97
287.425	19.8
287.64	34.13
287.855	120.15
288.07	-101.03
288.285	68.95
288.5	171.35
288.715	52.56
288.93	-15.02
289.145	-10.92
289.36	118.1
289.575	-23.21
289.79	144.72
290.004	-35.5
290.219	120.15
290.434	-49.83
290.649	-41.64
290.864	44.37
291.079	60.76
291.294	132.44
291.509	-15.02
291.724	-33.45
291.938	-29.35
292.153	87.38
292.368	48.47
292.583	-8.87
292.798	93.52
293.012	7.51
293.227	97.62
293.442	25.94
293.657	128.34
293.871	105.81
294.086	50.52
294.301	191.83
294.516	107.86
294.73	-4.78
294.945	-51.88
295.16	71
295.374	183.63
295.589	91.48
295.804	-45.74
296.018	103.76
296.233	114
296.447	56.66
296.662	-21.16
296.877	206.16
297.091	109.91
297.306	30.04
297.52	-17.07
297.735	50.52
297.949	1.37
298.164	75.09
298.378	97.62
298.593	-92.84
298.807	44.37
299.022	38.23
299.236	169.3
299.451	15.7
299.665	1.37
299.88	-2.73
300.094	97.62
300.309	9.56
300.523	150.87
300.737	21.85
300.952	116.05
301.166	85.33
301.381	21.85
301.595	-39.59
301.809	25.94
302.024	32.08
302.238	-21.16
302.452	118.1
302.667	27.99
302.881	120.15
303.095	48.47
303.309	50.52
303.524	36.18
303.738	-39.59
303.952	-12.97
304.166	75.09
304.381	-154.28
304.595	187.73
304.809	7.51
305.023	3.41
305.237	71
305.452	87.38
305.666	85.33
305.88	54.61
306.094	101.72
306.308	71
306.522	95.57
306.736	120.15
306.95	93.52
307.164	42.32
307.379	36.18
307.593	165.2
307.807	161.11
308.021	109.91
308.235	124.24
308.449	-41.64
308.663	-10.92
308.877	243.03
309.091	30.04
309.305	89.43
309.519	-60.07
309.733	97.62
309.947	9.56
310.161	150.87
310.374	54.61
310.588	52.56
310.802	-21.16
311.016	7.51
311.23	58.71
311.444	-51.88
311.658	75.09
311.872	148.82
312.085	107.86
312.299	136.53
312.513	120.15
312.727	9.56
312.941	-82.6
313.154	52.56
313.368	73.04
313.582	32.08
313.796	97.62
314.009	23.89
314.223	87.38
314.437	93.52
314.651	103.76
314.864	-45.74
315.078	-51.88
315.292	-58.03
315.505	30.04
315.719	42.32
315.933	38.23
316.146	-17.07
316.36	-35.5
316.573	93.52
316.787	130.39
317.001	30.04
317.214	-60.07
317.428	9.56
317.641	-66.22
317.855	44.37
318.068	50.52
318.282	46.42
318.495	208.21
318.709	83.28
318.922	58.71
319.136	152.91
319.349	118.1
319.563	46.42
319.776	71
319.99	-70.31
320.203	99.67
320.417	7.51
320.63	105.81
320.843	265.55
321.057	60.76
321.27	-8.87
321.483	38.23
321.697	157.01
321.91	52.56
322.124	50.52
322.337	97.62
322.55	25.94
322.763	111.96
322.977	-12.97
323.19	-29.35
323.403	17.75
323.617	79.19
323.83	120.15
324.043	-0.68
324.256	23.89
324.469	-17.07
324.683	140.63
324.896	116.05
325.109	83.28
325.322	-66.22
325.535	89.43
325.748	136.53
325.962	-10.92
326.175	42.32
326.388	58.71
326.601	142.68
326.814	-23.21
327.027	38.23
327.24	83.28
327.453	-15.02
327.666	91.48
327.879	134.48
328.092	77.14
328.305	19.8
328.518	7.51
328.731	-41.64
328.944	9.56
329.157	44.37
329.37	109.91
329.583	183.63
329.796	230.74
330.009	-51.88
330.222	91.48
330.435	116.05
330.648	95.57
330.861	75.09
331.073	32.08
331.286	179.54
331.499	152.91
331.712	-49.83
331.925	60.76
332.138	56.66
332.35	187.73
332.563	-33.45
332.776	97.62
332.989	11.61
333.202	77.14
333.414	87.38
333.627	30.04
333.84	40.28
334.053	52.56
334.265	30.04
334.478	9.56
334.691	62.8
334.903	42.32
335.116	-37.55
335.329	-15.02
335.541	13.65
335.754	189.78
335.966	87.38
336.179	120.15
336.392	-47.79
336.604	75.09
336.817	146.77
337.029	103.76
337.242	40.28
337.454	83.28
337.667	130.39
337.88	75.09
338.092	73.04
338.305	105.81
338.517	30.04
338.729	34.13
338.942	138.58
339.154	-60.07
339.367	-33.45
339.579	68.95
339.792	-15.02
340.004	128.34
340.217	7.51
340.429	71
340.641	-15.02
340.854	-80.55
341.066	44.37
341.278	154.96
341.491	175.44
341.703	81.24
341.915	27.99
342.128	50.52
342.34	95.57
342.552	-29.35
342.764	87.38
342.977	97.62
343.189	-17.07
343.401	64.85
343.613	-62.12
343.826	-31.4
344.038	-0.68
344.25	130.39
344.462	-72.36
344.674	-43.69
344.886	5.46
345.099	107.86
345.311	91.48
345.523	79.19
345.735	-39.59
345.947	-12.97
346.159	87.38
346.371	19.8
346.583	-8.87
346.795	157.01
347.007	52.56
347.219	144.72
347.431	101.72
347.643	15.7
347.855	-107.18
348.067	140.63
348.279	-29.35
348.491	89.43
348.703	99.67
348.915	25.94
349.127	27.99
349.339	11.61
349.551	27.99
349.763	99.67
349.975	109.91
350.187	118.1
350.399	58.71
350.61	75.09
350.822	36.18
351.034	32.08
351.246	50.52
351.458	142.68
351.669	144.72
351.881	25.94
352.093	128.34
352.305	89.43
352.517	134.48
352.728	140.63
352.94	89.43
353.152	9.56
353.363	-15.02
353.575	124.24
353.787	146.77
353.999	71
354.21	175.44
354.422	-31.4
354.633	11.61
354.845	32.08
355.057	111.96
355.268	56.66
355.48	169.3
355.692	-55.98
355.903	71
356.115	71
356.326	-115.37
356.538	224.59
356.749	91.48
356.961	179.54
357.172	32.08
357.384	19.8
357.595	240.98
357.807	13.65
358.018	27.99
358.23	116.05
358.441	118.1
358.653	17.75
358.864	62.8
359.075	-78.51
359.287	64.85
359.498	138.58
359.709	73.04
359.921	-2.73
360.132	62.8
360.344	-12.97
360.555	-47.79
360.766	19.8
360.977	-33.45
361.189	128.34
361.4	42.32
361.611	73.04
361.823	150.87
362.034	68.95
362.245	5.46
362.456	38.23
362.667	36.18
362.879	-2.73
363.09	152.91
363.301	46.42
363.512	58.71
363.723	19.8
363.935	-49.83
364.146	204.11
364.357	32.08
364.568	79.19
364.779	-25.26
364.99	154.96
365.201	-64.17
365.412	138.58
365.623	-189.1
365.834	83.28
366.045	120.15
366.256	48.47
366.467	89.43
366.678	30.04
366.889	62.8
367.1	23.89
367.311	134.48
367.522	60.76
367.733	71
367.944	30.04
368.155	89.43
368.366	138.58
368.577	148.82
368.788	197.97
368.999	-0.68
369.209	134.48
369.42	245.07
369.631	234.83
369.842	130.39
370.053	19.8
370.264	120.15
370.474	-0.68
370.685	118.1
370.896	-0.68
371.107	152.91
371.317	71
371.528	-29.35
371.739	150.87
371.95	34.13
372.16	152.91
372.371	58.71
372.582	87.38
372.792	138.58
373.003	107.86
373.214	105.81
373.424	73.04
373.635	17.75
373.846	124.24
374.056	25.94
374.267	120.15
374.477	124.24
374.688	-4.78
374.898	101.72
375.109	44.37
375.319	62.8
375.53	163.15
375.74	81.24
375.951	71
376.161	134.48
376.372	169.3
376.582	99.67
376.793	79.19
377.003	1.37
377.214	46.42
377.424	58.71
377.635	38.23
377.845	9.56
378.055	140.63
378.266	27.99
378.476	73.04
378.686	46.42
378.897	103.76
379.107	183.63
379.317	36.18
379.528	36.18
379.738	134.48
379.948	-10.92
380.158	191.83
380.369	91.48
380.579	42.32
380.789	-6.83
380.999	56.66
381.21	148.82
381.42	208.21
381.63	99.67
381.84	105.81
382.05	128.34
382.261	114
382.471	175.44
382.681	-72.36
382.891	204.11
383.101	40.28
383.311	-0.68
383.521	23.89
383.731	97.62
383.941	64.85
384.151	114
384.361	48.47
384.571	38.23
384.781	87.38
384.991	183.63
385.201	185.68
385.411	109.91
385.621	120.15
385.831	114
386.041	13.65
386.251	58.71
386.461	148.82
386.671	23.89
386.881	122.2
387.091	-51.88
387.301	62.8
387.511	66.9
387.72	71
387.93	144.72
388.14	-23.21
388.35	40.28
388.56	142.68
388.769	175.44
388.979	116.05
389.189	7.51
389.399	58.71
389.609	-47.79
389.818	144.72
390.028	15.7
390.238	75.09
390.447	32.08
390.657	118.1
390.867	13.65
391.076	-98.99
391.286	71
391.496	34.13
391.705	-29.35
391.915	171.35
392.125	114
392.334	-10.92
392.544	128.34
392.753	83.28
392.963	-12.97
393.172	83.28
393.382	-10.92
393.591	232.79
393.801	21.85
394.01	142.68
394.22	103.76
394.429	75.09
394.639	81.24
394.848	54.61
395.058	3.41
395.267	40.28
395.477	30.04
395.686	122.2
395.895	214.35
396.105	120.15
396.314	111.96
396.524	42.32
396.733	-2.73
396.942	126.29
397.152	71
397.361	126.29
397.57	85.33
397.78	1.37
397.989	206.16
398.198	154.96
398.407	68.95
398.617	48.47
398.826	34.13
399.035	36.18
399.244	107.86
399.453	107.86
399.663	32.08
399.872	52.56
400.081	34.13
400.29	130.39
400.499	-53.93
400.708	126.29
400.917	1.37
401.127	68.95
401.336	36.18
401.545	142.68
401.754	126.29
401.963	95.57
402.172	68.95
402.381	-55.98
402.59	36.18
402.799	1.37
403.008	122.2
403.217	130.39
403.426	177.49
403.635	-2.73
403.844	9.56
404.053	-10.92
404.262	13.65
404.471	103.76
404.68	60.76
404.888	44.37
405.097	7.51
405.306	56.66
405.515	150.87
405.724	-0.68
405.933	128.34
406.142	71
406.35	79.19
406.559	23.89
406.768	77.14
406.977	118.1
407.185	130.39
407.394	89.43
407.603	15.7
407.812	42.32
408.02	144.72
408.229	13.65
408.438	111.96
408.646	-47.79
408.855	19.8
409.064	126.29
409.272	38.23
409.481	144.72
409.69	7.51
409.898	30.04
410.107	95.57
410.315	81.24
410.524	-27.31
410.733	99.67
410.941	38.23
411.15	120.15
411.358	146.77
411.567	87.38
411.775	34.13
411.984	79.19
412.192	126.29
412.401	-10.92
412.609	150.87
412.818	167.25
413.026	148.82
413.234	7.51
413.443	58.71
413.651	34.13
413.86	36.18
414.068	202.07
414.276	210.26
414.485	36.18
414.693	183.63
414.901	120.15
415.11	87.38
415.318	40.28
415.526	85.33
415.734	148.82
415.943	118.1
416.151	144.72
416.359	124.24
416.567	91.48
416.776	66.9
416.984	95.57
417.192	234.83
417.4	77.14
417.608	21.85
417.817	-51.88
418.025	179.54
418.233	210.26
418.441	30.04
418.649	77.14
418.857	60.76
419.065	144.72
419.273	97.62
419.481	122.2
419.689	75.09
419.897	32.08
420.105	7.51
420.313	167.25
420.521	208.21
420.729	163.15
420.937	17.75
421.145	-21.16
421.353	114
421.561	204.11
421.769	114
421.977	-0.68
422.185	116.05
422.393	91.48
422.601	152.91
422.809	77.14
423.017	77.14
423.224	103.76
423.432	118.1
423.64	91.48
423.848	134.48
424.056	79.19
424.263	140.63
424.471	23.89
424.679	140.63
424.887	1.37
425.094	144.72
425.302	152.91
425.51	38.23
425.718	148.82
425.925	101.72
426.133	62.8
426.341	249.17
426.548	62.8
426.756	23.89
426.964	148.82
427.171	27.99
427.379	111.96
427.586	171.35
427.794	50.52
428.001	83.28
428.209	101.72
428.417	200.02
428.624	200.02
428.832	105.81
429.039	73.04
429.247	54.61
429.454	263.51
429.662	277.84
429.869	91.48
430.076	177.49
430.284	181.59
430.491	267.6
430.699	130.39
430.906	222.55
431.114	126.29
431.321	154.96
431.528	150.87
431.736	134.48
431.943	146.77
432.15	146.77
432.358	222.55
432.565	259.41
432.772	142.68
432.979	273.75
433.187	200.02
433.394	261.46
433.601	212.31
433.808	228.69
434.016	357.71
434.223	240.98
434.43	251.22
434.637	286.03
434.844	331.09
435.052	277.84
435.259	253.27
435.466	304.46
435.673	345.42
435.88	308.56
436.087	404.82
436.294	382.29
436.501	380.24
436.708	306.51
436.915	365.9
437.122	402.77
437.329	314.7
437.537	402.77
437.743	427.34
437.95	509.26
438.157	361.81
438.364	472.4
438.571	417.1
438.778	558.41
438.985	582.99
439.192	511.31
439.399	505.17
439.606	521.55
439.813	640.33
440.02	666.96
440.227	798.03
440.433	718.15
440.64	632.14
440.847	564.56
441.054	691.53
441.261	847.18
441.467	714.06
441.674	623.95
441.881	871.75
442.088	730.44
442.294	830.79
442.501	955.72
442.708	855.37
442.914	955.72
443.121	1035.59
443.328	1017.16
443.534	1037.64
443.741	1105.22
443.948	871.75
444.154	1113.41
444.361	1283.39
444.568	1156.42
444.774	1226.05
444.981	1080.64
445.187	1383.74
445.394	1459.52
445.6	1287.49
445.807	1449.28
446.013	1520.96
446.22	1320.26
446.426	1518.91
446.633	1725.75
446.839	1844.54
447.046	1553.73
447.252	1832.25
447.459	1908.02
447.665	1828.15
447.871	2123.06
448.078	2151.73
448.284	2172.21
448.491	2198.84
448.697	2338.1
448.903	2432.3
449.11	2532.65
449.316	2284.85
449.522	2735.4
449.728	2782.51
449.935	2839.85
450.141	2934.06
450.347	3220.77
450.553	3142.95
450.76	3163.43
450.966	3226.92
451.172	3427.62
451.378	3536.16
451.584	3722.52
451.791	4035.86
451.997	3935.51
452.203	4191.51
452.409	4363.54
452.615	4601.1
452.821	4381.97
453.027	4435.22
453.233	5127.43
453.44	4977.93
453.646	5076.23
453.852	5217.54
454.058	5491.97
454.264	5510.4
454.47	6128.89
454.676	6212.85
454.882	6710.51
455.088	6276.34
455.294	6700.27
455.5	7046.38
455.705	7415.01
455.911	7763.17
456.117	7761.12
456.323	8209.62
456.529	8051.93
456.735	8799.44
456.941	9016.52
457.147	9311.43
457.352	9710.79
457.558	9843.9
457.764	10652.85
457.97	10753.2
458.176	11084.97
458.381	11652.26
458.587	11695.27
458.793	12575.89
458.999	12293.27
459.204	14226.56
459.41	14675.06
459.616	14523.51
459.821	15467.63
460.027	16010.34
460.233	16698.45
460.438	16575.58
460.644	17626.18
460.85	17728.58
461.055	18588.73
461.261	19356.72
461.466	18983.99
461.672	19207.22
461.878	21715.98
462.083	21546
462.289	21724.17
462.494	22930.42
462.7	23204.85
462.905	23161.84
463.111	25209.81
463.316	26260.42
463.522	26547.14
463.727	27737.01
463.932	28773.28
464.138	29834.13
464.343	30661.51
464.549	30944.13
464.754	32951.13
464.959	34003.79
465.165	34526.02
465.37	34376.52
465.575	34556.74
465.781	36723.49
465.986	37573.4
466.191	36954.91
466.397	37366.56
466.602	36829.99
466.807	38581
467.012	39279.36
467.218	39824.12
467.423	40241.9
467.628	41089.76
467.833	42781.38
468.038	42359.5
468.244	41609.95
468.449	43850.42
468.654	43141.83
468.859	42844.87
469.064	42654.41
469.269	41835.22
469.474	42255.06
469.679	43154.11
469.885	42242.77
470.09	42937.03
470.295	42830.54
470.5	41726.68
470.705	41851.61
470.91	41390.81
471.115	40499.95
471.32	41691.87
471.525	41024.23
471.73	39584.51
471.935	39658.23
472.139	37839.64
472.344	38189.84
472.549	37745.43
472.754	37047.07
472.959	36571.94
473.164	35390.27
473.369	34376.52
473.574	35629.88
473.778	34779.97
473.983	34118.48
474.188	33336.15
474.393	32107.37
474.598	32082.8
474.802	31294.33
475.007	30815.1
475.212	30546.82
475.417	29088.67
475.621	29076.38
475.826	28642.21
476.031	27939.75
476.235	27630.51
476.44	27278.26
476.645	26565.57
476.849	26198.98
477.054	25705.42
477.259	25215.96
477.463	25549.78
477.668	24765.4
477.872	24890.33
478.077	23833.58
478.282	23055.35
478.486	22989.81
478.691	23129.08
478.895	22893.56
479.1	22336.51
479.304	22332.42
479.509	21758.99
479.713	21912.58
479.918	21271.57
480.122	21023.76
480.326	21122.07
480.531	20868.12
480.735	20735
480.94	20182.05
481.144	20935.7
481.348	19909.67
481.553	20118.56
481.757	19569.71
481.961	19754.02
482.166	19915.81
482.37	19584.04
482.574	19072.05
482.778	19135.54
482.983	19399.73
483.187	18754.62
483.391	19119.15
483.595	18754.62
483.8	18138.18
484.004	18441.28
484.208	18500.67
484.412	17943.62
484.616	17982.53
484.821	17710.15
485.025	17269.84
485.229	17230.93
485.433	17196.11
485.637	16983.12
485.841	16497.75
486.045	16147.55
486.249	16344.16
486.453	15666.28
486.657	15699.05
486.861	15432.81
487.065	15228.01
487.269	15164.53
487.473	14652.53
487.677	14826.61
487.881	14435.45
488.085	14019.71
488.289	14214.27
488.493	13431.94
488.697	13466.76
488.901	13020.3
489.105	12897.42
489.309	12502.17
489.512	12289.18
489.716	12182.68
489.92	11969.69
490.124	12014.75
490.328	11760.8
490.531	11535.53
490.735	11150.51
490.939	10974.38
491.143	10773.68
491.346	10605.75
491.55	10613.94
491.754	10190.01
491.958	10450.1
492.161	10065.08
492.365	9886.91
492.569	9682.11
492.772	9704.64
492.976	9606.34
493.18	9323.72
493.383	9495.75
493.587	9264.33
493.79	9014.48
493.994	8889.55
494.197	8746.19
494.401	8727.76
494.605	8680.66
494.808	8633.55
495.012	8629.46
495.215	8391.89
495.419	8357.08
495.622	8363.22
495.825	8269.02
496.029	8189.14
496.232	8262.87
496.436	7965.92
496.639	8482
496.843	8088.79
497.046	8072.41
497.249	8262.87
497.453	8076.51
497.656	8096.99
497.859	8148.19
498.063	8348.89
498.266	8205.53
498.469	8099.03
498.673	8156.38
498.876	8230.1
499.079	8314.07
499.282	8189.14
499.485	8592.59
499.689	8377.56
499.892	8570.07
500.095	8336.6
500.298	8615.12
500.501	8320.21
500.705	8805.58
500.908	8764.62
501.111	8903.89
501.314	9051.34
501.517	9018.57
501.72	9428.17
501.923	9065.67
502.126	9245.9
502.329	9307.34
502.532	9553.09
502.735	9505.99
502.938	9895.1
503.141	9845.95
503.344	9966.78
503.547	9866.43
503.75	10149.05
503.953	10241.21
504.156	10398.9
504.359	10566.84
504.562	10740.91
504.765	11046.06
504.968	11074.73
505.17	11328.68
505.373	11349.16
505.576	11705.51
505.779	11732.13
505.982	11885.73
506.185	12274.84
506.387	12221.59
506.59	12598.42
506.793	12852.37
506.996	13016.21
507.198	13429.9
507.401	13585.54
507.604	13855.87
507.807	14146.69
508.009	14597.24
508.212	14529.66
508.415	14722.16
508.617	15146.09
508.82	15516.78
509.022	15678.57
509.225	16059.49
509.428	16391.26
509.63	16643.16
509.833	16792.66
510.035	17704.01
510.238	17849.41
510.44	18005.06
510.643	18711.61
510.845	19074.1
511.048	19280.94
511.25	19915.81
511.453	20157.47
511.655	20980.76
511.858	21353.49
512.06	21865.48
512.262	22006.79
512.465	22363.14
512.667	22930.42
512.87	23731.18
513.072	24257.51
513.274	24832.99
513.477	25285.59
513.679	25707.47
513.881	26313.67
514.084	27341.75
514.286	27292.6
514.488	28175.27
514.69	29107.1
514.893	29574.03
515.095	29942.67
515.297	30430.08
515.499	30653.31
515.701	31978.35
515.904	32303.98
516.106	33381.21
516.308	33807.19
516.51	34724.68
516.712	35052.35
516.914	35486.52
517.116	36348.71
517.318	37073.7
517.52	37628.7
517.722	38073.1
517.925	38957.83
518.127	40114.93
518.329	40409.84
518.531	40405.74
518.733	41779.93
518.935	42449.61
519.136	43213.51
519.338	43915.96
519.54	44526.25
519.742	44950.18
519.944	45421.22
520.146	46932.62
520.348	46635.66
520.55	47026.82
520.752	47954.55
520.954	48937.58
521.155	48839.28
521.357	49783.39
521.559	50027.1
521.761	51063.37
521.963	51290.69
522.164	51718.72
522.366	51665.47
522.568	52675.12
522.77	52791.86
522.971	53834.27
523.173	53334.57
523.375	53500.45
523.576	53703.2
523.778	54082.08
523.98	54862.35
524.181	55280.14
524.383	54743.57
524.584	55607.81
524.786	55616
524.988	55335.43
525.189	55478.79
525.391	55398.92
525.592	55636.48
525.794	55958.02
525.995	55804.42
526.197	55679.49
526.398	55755.27
526.6	55650.82
526.801	55427.59
527.003	55255.56
527.204	55120.4
527.406	55302.67
527.607	54901.26
527.808	54925.84
528.01	53819.94
528.211	53774.88
528.412	54352.41
528.614	53445.16
528.815	53336.62
529.016	53381.67
529.218	52408.89
529.419	51946.04
529.62	50897.48
529.822	50793.04
530.023	50485.84
530.224	50227.8
530.425	49867.36
530.626	48829.04
530.828	48196.21
531.029	48884.33
531.23	47510.14
531.431	47168.13
531.632	46928.52
531.833	46283.41
532.035	45628.06
532.236	45470.37
532.437	44894.89
532.638	43551.42
532.839	43786.94
533.04	43182.79
533.241	42070.74
533.442	42445.52
533.643	41544.41
533.844	40739.56
534.045	40108.79
534.246	39537.4
534.447	39598.84
534.648	38744.84
534.849	38683.4
535.05	37219.1
535.251	37280.54
535.451	36657.96
535.652	36221.74
535.853	35568.44
536.054	35334.97
536.255	34874.18
536.456	34073.42
536.657	34526.02
536.857	33205.08
537.058	32865.12
537.259	32586.6
537.46	32455.53
537.66	31705.97
537.861	31132.54
538.062	30690.18
538.263	30346.12
538.463	29660.05
538.664	29748.11
538.865	29410.2
539.065	29264.79
539.266	28496.8
539.466	28451.75
539.667	27536.31
539.868	28156.84
540.068	27200.44
540.269	26850.24
540.469	26866.62
540.67	26166.21
540.87	26098.63
541.071	25396.18
541.271	25447.38
541.472	25031.64
541.672	24912.86
541.873	24419.3
542.073	23958.5
542.274	23972.84
542.474	23585.77
542.675	23620.59
542.875	23374.83
543.075	22881.27
543.276	22619.13
543.476	22305.79
543.676	22348.8
543.877	22041.6
544.077	21810.18
544.277	21480.46
544.478	21234.71
544.678	21060.63
544.878	20571.16
545.078	20345.89
545.279	20055.08
545.479	19768.36
545.679	19502.12
545.879	19270.7
546.079	19393.58
546.28	18797.62
546.48	18420.8
546.68	18617.4
546.88	18275.39
547.08	18322.49
547.28	18150.46
547.48	17564.75
547.68	17777.73
547.88	17173.58
548.081	17366.09
548.281	16999.51
548.481	16538.71
548.681	16688.21
548.881	16182.37
549.081	16116.83
549.28	15635.56
549.48	15402.09
549.68	15512.68
549.88	15563.88
550.08	14640.25
550.28	14863.47
550.48	14713.97
550.68	14654.58
550.88	14322.81
551.08	13819.01
551.279	13896.83
551.479	13444.23
551.679	13466.76
551.879	13229.2
552.079	13235.34
552.278	12711.06
552.478	12815.51
552.678	12303.51
552.878	12530.84
553.077	11938.98
553.277	11697.31
553.477	11705.51
553.676	11578.53
553.876	11562.15
554.076	11072.68
554.275	11048.11
554.475	10484.92
554.674	10706.1
554.874	10644.66
555.074	10304.7
555.273	10394.81
555.473	10079.42
555.672	9852.1
555.872	9546.95
556.071	9460.93
556.271	9231.56
556.47	9305.29
556.67	8940.75
556.869	8987.85
557.068	8641.75
557.268	8533.2
557.467	8412.37
557.667	8330.45
557.866	8031.45
558.065	8000.73
558.265	7861.47
558.464	7804.13
558.663	7746.78
558.863	7486.69
559.062	7662.82
559.261	7177.45
559.461	7392.48
559.66	6964.46
559.859	6690.03
560.058	6806.77
560.258	6814.96
560.457	6685.94
560.656	6755.57
560.855	6388.98
561.054	6614.26
561.253	6208.76
561.453	6057.21
561.652	6057.21
561.851	6016.25
562.05	5797.12
562.249	5610.75
562.448	5627.14
562.647	5532.93
562.846	5440.77
563.045	5512.45
563.244	5348.61
563.443	5428.48
563.642	5336.32
563.841	5266.69
564.04	5158.15
564.239	5111.05
564.438	4830.48
564.637	4986.12
564.836	4791.56
565.035	4637.97
565.234	4664.59
565.432	4646.16
565.631	4506.9
565.83	4304.15
566.029	4214.04
566.228	4281.62
566.427	4371.73
566.625	4168.98
566.824	4234.52
567.023	4015.38
567.222	3888.41
567.42	3880.22
567.619	3976.47
567.818	3814.68
568.016	3931.42
568.215	3671.33
568.414	3722.52
568.612	3767.58
568.811	3491.1
569.01	3650.85
569.208	3368.23
569.407	3484.96
569.605	3276.07
569.804	3339.55
570.002	3390.75
570.201	3233.06
570.4	3200.29
570.598	3054.89
570.797	3075.37
570.995	2968.87
571.193	3093.8
571.392	3003.69
571.59	2749.74
571.789	3009.83
571.987	2884.91
572.186	2897.19
572.384	2612.53
572.582	2755.88
572.781	2813.23
572.979	2465.07
573.177	2579.76
573.376	2561.33
573.574	2706.73
573.772	2469.17
573.971	2336.05
574.169	2311.47
574.367	2374.96
574.565	2278.71
574.763	2331.95
574.962	2274.61
575.16	2215.22
575.358	2207.03
575.556	2262.32
575.754	2127.16
575.952	1979.7
576.151	2118.96
576.349	2080.05
576.547	1764.67
576.745	1985.85
576.943	1869.11
577.141	1836.35
577.339	1682.75
577.537	1764.67
577.735	1856.82
577.933	1776.95
578.131	1658.17
578.329	1740.09
578.527	1627.45
578.725	1715.52
578.923	1461.57
579.121	1703.23
579.319	1518.91
579.516	1408.32
579.714	1684.8
579.912	1594.68
580.11	1473.85
580.308	1475.9
580.506	1316.16
580.704	1287.49
580.901	1344.83
581.099	1447.23
581.297	1332.55
581.495	1297.73
581.692	1305.92
581.89	1393.98
582.088	1269.06
582.285	1287.49
582.483	1226.05
582.681	1203.52
582.878	1187.14
583.076	1207.62
583.274	1217.86
583.471	1314.11
583.669	1213.76
583.866	1084.74
584.064	1043.78
584.262	998.73
584.459	1027.4
584.657	1035.59
584.854	1047.88
585.052	1080.64
585.249	1121.6
585.447	1101.12
585.644	931.14
585.841	1150.28
586.039	1068.36
586.236	1068.36
586.434	974.15
586.631	939.34
586.828	822.6
587.026	873.8
587.223	718.15
587.42	787.79
587.618	927.05
587.815	929.1
588.012	890.18
588.21	771.4
588.407	804.17
588.604	916.81
588.801	804.17
588.999	765.26
589.196	875.85
589.393	730.44
589.59	855.37
589.787	865.61
589.984	759.11
590.182	783.69
590.379	742.73
590.576	781.64
590.773	859.46
590.97	716.11
591.167	826.7
591.364	687.43
591.561	595.28
591.758	871.75
591.955	763.21
592.152	734.54
592.349	685.39
592.546	687.43
592.743	730.44
592.94	681.29
593.137	734.54
593.334	818.5
593.531	806.22
593.727	677.19
593.924	734.54
594.121	701.77
594.318	648.52
594.515	800.07
594.712	836.94
594.908	867.66
595.105	736.59
595.302	826.7
595.499	787.79
595.696	943.43
595.892	765.26
596.089	884.04
596.286	689.48
596.482	898.38
596.679	791.88
596.876	793.93
597.072	898.38
597.269	906.57
597.466	892.23
597.662	922.95
597.859	902.47
598.055	1045.83
598.252	1084.74
598.448	1164.61
598.645	1183.04
598.841	1062.21
599.038	1357.12
599.234	1363.26
599.431	1185.09
599.627	1387.84
599.824	1406.27
600.02	1404.22
600.217	1426.75
600.413	1543.49
600.609	1635.64
600.806	1879.35
601.002	1695.04
601.198	1840.44
601.395	1985.85
601.591	1869.11
601.787	2045.24
601.984	2176.31
602.18	2252.08
602.376	2241.84
602.572	2352.43
602.769	2477.36
602.965	2536.75
603.161	2651.44
603.357	2786.6
603.553	2680.11
603.75	2852.14
603.946	2985.26
604.142	2981.16
604.338	3204.39
604.534	3245.35
604.73	3341.6
604.926	3370.27
605.122	3489.06
605.318	3646.75
605.514	3833.11
605.71	3925.27
605.906	4013.34
606.102	4105.49
606.298	4216.09
606.494	4398.35
606.69	4646.16
606.886	4711.69
607.082	4691.21
607.278	4865.29
607.474	5106.95
607.67	5156.1
607.866	5119.24
608.062	5508.35
608.257	5537.02
608.453	5553.41
608.649	5870.84
608.845	6087.93
609.041	6073.59
609.236	6315.25
609.432	6636.78
609.628	6790.38
609.824	6878.44
610.019	7009.51
610.215	7312.61
610.411	7511.27
610.606	7630.05
610.802	7660.77
610.998	8033.5
611.193	8312.02
611.389	8223.96
611.584	8635.6
611.78	8557.78
611.976	9153.74
612.171	9647.3
612.367	9702.59
612.562	10050.75
612.758	10185.91
612.953	10065.08
613.149	10454.2
613.344	10867.89
613.539	11080.88
613.735	11513
613.93	11814.05
614.126	11981.98
614.321	12479.64
614.517	12719.25
614.712	13302.92
614.907	13341.83
615.103	13806.72
615.298	13786.24
615.493	14507.13
615.688	14793.84
615.884	15371.37
616.079	15410.28
616.274	16229.47
616.47	16086.11
616.665	16757.85
616.86	17212.49
617.055	17544.27
617.25	17843.27
617.445	18762.81
617.641	18574.39
617.836	19178.54
618.031	19778.6
618.226	20601.88
618.421	20755.48
618.616	21363.73
618.811	21699.59
619.006	22086.66
619.201	22404.1
619.396	23360.5
619.591	23270.39
619.786	24214.5
619.981	24206.31
620.176	25408.47
620.371	25557.97
620.566	26207.17
620.761	26837.95
620.956	27630.51
621.151	27644.85
621.346	28556.19
621.541	28562.34
621.735	29883.28
621.93	29678.48
622.125	30858.11
622.32	30851.97
622.515	31683.44
622.709	31886.19
622.904	32488.29
623.099	33006.43
623.294	33813.33
623.488	34329.42
623.683	34696
623.878	35048.25
624.072	36385.58
624.267	36518.7
624.462	37477.15
624.656	37217.05
624.851	38155.02
625.046	38361.87
625.24	39129.86
625.435	39611.13
625.629	40100.59
625.824	40745.7
626.018	41052.9
626.213	40882.92
626.407	42146.51
626.602	41857.75
626.796	42826.44
626.991	43330.24
627.185	43305.66
627.38	43764.41
627.574	44194.48
627.768	44239.54
627.963	44358.32
628.157	44143.28
628.352	44704.43
628.546	44124.85
628.74	44767.91
628.935	44245.68
629.129	44446.38
629.323	43598.52
629.517	43999.93
629.712	43434.69
629.906	43154.11
630.1	42414.8
630.294	42580.68
630.489	41657.05
630.683	41640.67
630.877	40266.48
631.071	39877.36
631.265	39418.62
631.459	38800.13
631.653	37458.71
631.848	37075.74
632.042	36223.79
632.236	35353.4
632.43	33831.76
632.624	33561.43
632.818	32574.31
633.012	31359.86
633.206	30276.49
633.4	29662.1
633.594	28081.06
633.788	27540.4
633.982	26375.11
634.176	25467.86
634.369	24515.55
634.563	23833.58
634.757	22537.21
634.951	22096.9
635.145	20980.76
635.339	20227.1
635.533	19592.23
635.726	18783.29
635.92	17738.82
636.114	17333.32
636.308	16350.3
636.501	15909.99
636.695	15361.13
636.889	14441.59
637.083	13747.33
637.276	13321.35
637.47	12471.45
637.664	12102.81
637.857	11787.43
638.051	11250.86
638.244	10880.18
638.438	10470.58
638.632	10165.43
638.825	9512.13
639.019	9145.55
639.212	8746.19
639.406	8484.05
639.599	8088.79
639.793	7871.71
639.986	7574.75
640.18	7333.09
640.373	7060.71
640.567	6759.66
640.76	6597.87
640.954	6173.94
641.147	5909.76
641.34	5729.53
641.534	5616.9
641.727	5465.35
641.92	5033.22
642.114	4920.59
642.307	4549.9
642.5	4521.23
642.694	4289.81
642.887	4285.72
643.08	4283.67
643.273	4048.15
643.467	3806.49
643.66	3439.9
643.853	3394.85
644.046	3392.8
644.239	3343.65
644.432	2999.59
644.626	2907.43
644.819	2884.91
645.012	2802.99
645.205	2645.29
645.398	2710.83
645.591	2495.79
645.784	2385.2
645.977	2161.97
646.17	2168.12
646.363	2057.53
646.556	1994.04
646.749	1746.23
646.942	1819.96
647.135	1951.03
647.328	1713.47
647.521	1672.51
647.714	1549.63
647.907	1594.68
648.099	1500.48
648.292	1516.86
648.485	1330.5
648.678	1228.1
648.871	1213.76
649.064	1353.02
649.256	1195.33
649.449	1092.93
649.642	1127.75
649.835	1056.07
650.027	988.49
650.22	1031.49
650.413	984.39
650.605	984.39
650.798	861.51
650.991	935.24
651.183	779.59
651.376	795.98
651.568	916.81
651.761	742.73
651.954	855.37
652.146	722.25
652.339	800.07
652.531	693.58
652.724	619.85
652.916	599.37
653.109	388.43
653.301	689.48
653.494	597.32
653.686	511.31
653.879	611.66
654.071	601.42
654.263	533.84
654.456	415.05
654.648	537.93
654.84	474.45
655.033	521.55
655.225	537.93
655.417	322.9
655.61	501.07
655.802	525.65
655.994	488.78
656.186	296.27
656.379	505.17
656.571	376.14
656.763	275.79
656.955	267.6
657.148	312.66
657.34	417.1
657.532	365.9
657.724	292.18
657.916	306.51
658.108	421.2
658.3	376.14
658.492	320.85
658.684	263.51
658.876	296.27
659.068	216.4
659.26	255.31
659.452	271.7
659.644	318.8
659.836	349.52
660.028	300.37
660.22	220.5
660.412	283.99
660.604	259.41
660.796	234.83
660.988	314.7
661.18	181.59
661.372	275.79
661.563	197.97
661.755	263.51
661.947	154.96
662.139	187.73
662.331	245.07
662.522	245.07
662.714	148.82
662.906	120.15
663.097	253.27
663.289	195.92
663.481	101.72
663.673	195.92
663.864	253.27
664.056	222.55
664.247	124.24
664.439	324.94
664.631	240.98
664.822	142.68
665.014	148.82
665.205	85.33
665.397	144.72
665.588	66.9
665.78	185.68
665.971	240.98
666.163	62.8
666.354	206.16
666.546	124.24
666.737	140.63
666.929	204.11
667.12	120.15
667.311	185.68
667.503	146.77
667.694	126.29
667.885	152.91
668.077	189.78
668.268	13.65
668.459	58.71
668.651	167.25
668.842	220.5
669.033	122.2
669.224	89.43
669.416	275.79
669.607	120.15
669.798	124.24
669.989	161.11
670.18	103.76
670.371	224.59
670.563	91.48
670.754	224.59
670.945	240.98
671.136	175.44
671.327	99.67
671.518	189.78
671.709	193.87
671.9	167.25
672.091	283.99
672.282	243.03
672.473	103.76
672.664	79.19
672.855	185.68
673.046	222.55
673.237	181.59
673.428	202.07
673.619	193.87
673.809	103.76
674	245.07
674.191	200.02
674.382	204.11
674.573	140.63
674.764	142.68
674.954	193.87
675.145	42.32
675.336	58.71
675.527	163.15
675.717	134.48
675.908	118.1
676.099	142.68
676.289	152.91
676.48	93.52
676.671	146.77
676.861	79.19
677.052	185.68
677.243	144.72
677.433	97.62
677.624	193.87
677.814	189.78
678.005	77.14
678.195	222.55
678.386	91.48
678.576	116.05
678.767	111.96
678.957	138.58
679.148	216.4
679.338	304.46
679.529	218.45
679.719	171.35
679.909	331.09
680.1	298.32
680.29	173.39
680.481	116.05
680.671	257.36
680.861	251.22
681.052	206.16
681.242	122.2
681.432	169.3
681.622	259.41
681.813	169.3
682.003	157.01
682.193	58.71
682.383	222.55
682.573	177.49
682.764	140.63
682.954	187.73
683.144	185.68
683.334	177.49
683.524	226.64
683.714	226.64
683.904	283.99
684.094	218.45
684.284	167.25
684.474	220.5
684.664	263.51
684.854	165.2
685.044	214.35
685.234	286.03
685.424	255.31
685.614	152.91
685.804	304.46
685.994	224.59
686.184	228.69
686.374	236.88
686.564	179.54
686.753	185.68
686.943	179.54
687.133	173.39
687.323	195.92
687.513	269.65
687.702	267.6
687.892	253.27
688.082	232.79
688.272	337.23
688.461	202.07
688.651	249.17
688.841	216.4
689.03	179.54
689.22	245.07
689.41	216.4
689.599	212.31
689.789	226.64
689.979	222.55
690.168	193.87
690.358	238.93
690.547	249.17
690.737	171.35
690.926	238.93
691.116	191.83
691.305	298.32
691.495	279.89
691.684	107.86
691.874	234.83
692.063	126.29
692.252	216.4
692.442	281.94
692.631	99.67
692.82	179.54
693.01	173.39
693.199	150.87
693.388	304.46
693.578	173.39
693.767	183.63
693.956	277.84
694.146	173.39
694.335	236.88
694.524	245.07
694.713	226.64
694.902	171.35
695.092	165.2
695.281	288.08
695.47	238.93
695.659	197.97
695.848	167.25
696.037	175.44
696.226	251.22
696.415	148.82
696.604	361.81
696.793	251.22
696.982	132.44
697.171	312.66
697.36	146.77
697.549	230.74
697.738	75.09
697.927	214.35
698.116	132.44
698.305	238.93
698.494	230.74
698.683	126.29
698.872	290.13
699.061	142.68
699.25	77.14
699.438	243.03
699.627	216.4
699.816	380.24
700.005	138.58
700.193	167.25
700.382	210.26
700.571	204.11
700.76	197.97
700.948	236.88
701.137	279.89
701.326	218.45
701.514	122.2
701.703	181.59
701.892	238.93
702.08	337.23
702.269	138.58
702.457	195.92
702.646	208.21
702.834	224.59
703.023	275.79
703.212	277.84
703.4	169.3
703.589	142.68
703.777	204.11
703.965	140.63
704.154	150.87
704.342	120.15
704.531	146.77
704.719	247.12
704.907	249.17
705.096	44.37
705.284	38.23
705.472	165.2
705.661	173.39
705.849	187.73
706.037	306.51
706.226	234.83
706.414	216.4
706.602	107.86
706.79	243.03
706.979	136.53
707.167	103.76
707.355	81.24
707.543	159.06
707.731	298.32
707.919	245.07
708.107	136.53
708.296	83.28
708.484	62.8
708.672	234.83
708.86	191.83
709.048	173.39
709.236	116.05
709.424	183.63
709.612	228.69
709.8	157.01
709.988	144.72
710.176	259.41
710.364	216.4
710.551	181.59
710.739	134.48
710.927	157.01
711.115	163.15
711.303	267.6
711.491	279.89
711.679	109.91
711.866	324.94
712.054	191.83
712.242	265.55
712.43	234.83
712.617	140.63
712.805	322.9
712.993	150.87
713.181	91.48
713.368	232.79
713.556	146.77
713.744	132.44
713.931	380.24
714.119	253.27
714.306	234.83
714.494	132.44
714.682	224.59
714.869	142.68
715.057	140.63
715.244	214.35
715.432	271.7
715.619	195.92
715.807	247.12
715.994	122.2
716.182	275.79
716.369	238.93
716.556	232.79
716.744	132.44
716.931	161.11
717.119	169.3
717.306	243.03
717.493	208.21
717.681	150.87
717.868	214.35
718.055	298.32
718.242	195.92
718.43	230.74
718.617	243.03
718.804	253.27
718.991	308.56
719.179	226.64
719.366	245.07
719.553	179.54
719.74	308.56
719.927	202.07
720.114	220.5
720.301	161.11
720.488	183.63
720.676	138.58
720.863	261.46
721.05	341.33
721.237	165.2
721.424	288.08
721.611	206.16
721.798	99.67
721.985	185.68
722.172	165.2
722.358	183.63
722.545	230.74
722.732	187.73
722.919	290.13
723.106	191.83
723.293	243.03
723.48	157.01
723.667	206.16
723.853	267.6
724.04	316.75
724.227	251.22
724.414	183.63
724.6	263.51
724.787	298.32
724.974	370
725.161	193.87
725.347	243.03
725.534	230.74
725.72	275.79
725.907	281.94
726.094	273.75
726.28	171.35
726.467	212.31
726.653	62.8
726.84	304.46
727.027	343.38
727.213	165.2
727.4	308.56
727.586	200.02
727.773	234.83
727.959	236.88
728.145	283.99
728.332	269.65
728.518	224.59
728.705	259.41
728.891	257.36
729.077	232.79
729.264	173.39
729.45	232.79
729.636	316.75
729.823	181.59
730.009	326.99
730.195	230.74
730.382	251.22
730.568	99.67
730.754	240.98
730.94	210.26
731.126	208.21
731.313	238.93
731.499	165.2
731.685	238.93
731.871	294.22
732.057	200.02
732.243	308.56
732.429	333.14
732.615	300.37
732.801	316.75
732.987	191.83
733.173	240.98
733.359	120.15
733.545	124.24
733.731	212.31
733.917	367.95
734.103	324.94
734.289	267.6
734.475	226.64
734.661	392.53
734.847	273.75
735.033	234.83
735.219	322.9
735.404	181.59
735.59	238.93
735.776	150.87
735.962	230.74
736.148	243.03
736.333	292.18
736.519	181.59
736.705	224.59
736.89	200.02
737.076	238.93
737.262	142.68
737.447	116.05
737.633	253.27
737.819	279.89
738.004	277.84
738.19	304.46
738.375	326.99
738.561	286.03
738.747	255.31
738.932	220.5
739.118	361.81
739.303	294.22
739.489	220.5
739.674	214.35
739.859	138.58
740.045	271.7
740.23	286.03
740.416	103.76
740.601	271.7
740.786	302.42
740.972	263.51
741.157	226.64
741.342	122.2
741.528	179.54
741.713	386.38
741.898	263.51
742.084	216.4
742.269	167.25
742.454	265.55
742.639	329.04
742.824	216.4
743.01	400.72
743.195	322.9
743.38	189.78
743.565	206.16
743.75	273.75
743.935	236.88
744.12	253.27
744.305	163.15
744.49	249.17
744.675	220.5
744.86	173.39
745.045	374.1
745.23	265.55
745.415	189.78
745.6	292.18
745.785	189.78
745.97	367.95
746.155	312.66
746.34	296.27
746.525	224.59
746.71	273.75
746.895	185.68
747.079	189.78
747.264	179.54
747.449	320.85
747.634	269.65
747.819	216.4
748.003	238.93
748.188	79.19
748.373	263.51
748.557	216.4
748.742	220.5
748.927	245.07
749.111	255.31
749.296	157.01
749.481	267.6
749.665	275.79
749.85	128.34
750.034	159.06
750.219	191.83
750.404	247.12
750.588	183.63
750.773	142.68
750.957	240.98
751.141	173.39
751.326	218.45
751.51	146.77
751.695	140.63
751.879	191.83
752.064	304.46
752.248	154.96
752.432	288.08
752.617	216.4
752.801	236.88
752.985	189.78
753.17	214.35
753.354	177.49
753.538	212.31
753.722	142.68
753.907	177.49
754.091	50.52
754.275	232.79
754.459	83.28
754.643	87.38
754.828	169.3
755.012	189.78
755.196	124.24
755.38	197.97
755.564	105.81
755.748	202.07
755.932	175.44
756.116	230.74
756.3	245.07
756.484	107.86
756.668	222.55
756.852	30.04
757.036	87.38
757.22	124.24
757.404	120.15
757.588	73.04
757.772	195.92
757.956	146.77
758.14	261.46
758.323	77.14
758.507	146.77
758.691	173.39
758.875	202.07
759.059	191.83
759.242	46.42
759.426	138.58
759.61	122.2
759.794	146.77
759.977	183.63
760.161	357.71
760.345	218.45
760.528	232.79
760.712	128.34
760.895	146.77
761.079	144.72
761.263	136.53
761.446	132.44
761.63	134.48
761.813	189.78
761.997	42.32
762.18	93.52
762.364	238.93
762.547	11.61
762.731	148.82
762.914	132.44
763.098	19.8
763.281	93.52
763.464	107.86
763.648	222.55
763.831	30.04
764.015	116.05
764.198	179.54
764.381	-15.02
764.564	148.82
764.748	101.72
764.931	169.3
765.114	52.56
765.297	189.78
765.481	-6.83
765.664	81.24
765.847	134.48
766.03	150.87
766.213	-17.07
766.397	93.52
766.58	-6.83
766.763	163.15
766.946	62.8
767.129	56.66
767.312	62.8
767.495	79.19
767.678	25.94
767.861	95.57
768.044	73.04
768.227	91.48
768.41	124.24
768.593	118.1
768.776	75.09
768.959	62.8
769.142	165.2
769.324	144.72
769.507	42.32
769.69	62.8
769.873	87.38
770.056	271.7
770.239	56.66
770.421	165.2
770.604	181.59
770.787	36.18
770.97	97.62
771.152	1.37
771.335	132.44
771.518	40.28
771.7	214.35
771.883	154.96
772.066	87.38
772.248	91.48
772.431	148.82
772.613	165.2
772.796	132.44
772.978	124.24
773.161	187.73
773.343	48.47
773.526	13.65
773.708	-64.17
773.891	11.61
774.073	124.24
774.256	79.19
774.438	255.31
774.621	-43.69
774.803	85.33
774.985	114
775.168	23.89
775.35	5.46
775.532	167.25
775.715	40.28
775.897	75.09
776.079	120.15
776.261	118.1
776.444	97.62
776.626	-12.97
776.808	64.85
776.99	-82.6
777.173	30.04
777.355	15.7
777.537	101.72
777.719	99.67
777.901	1.37
778.083	62.8
778.265	-33.45
778.447	118.1
778.629	-10.92
778.811	89.43
778.993	173.39
779.175	107.86
779.357	150.87
779.539	40.28
779.721	77.14
779.903	130.39
780.085	54.61
780.267	40.28
780.449	44.37
780.631	146.77
780.812	114
780.994	56.66
781.176	42.32
781.358	77.14
781.54	46.42
781.721	136.53
781.903	56.66
782.085	19.8
782.267	152.91
782.448	-90.79
782.63	32.08
782.812	36.18
782.993	85.33
783.175	77.14
783.357	73.04
783.538	126.29
783.72	-4.78
783.901	60.76
784.083	101.72
784.264	36.18
784.446	-80.55
784.627	17.75
784.809	13.65
784.99	17.75
785.172	116.05
785.353	52.56
785.535	85.33
785.716	-49.83
785.897	-39.59
786.079	83.28
786.26	89.43
786.441	150.87
786.623	-76.46
786.804	-27.31
786.985	-10.92
787.167	95.57
787.348	42.32
787.529	-8.87
787.71	132.44
787.891	52.56
788.073	7.51
788.254	17.75
788.435	54.61
788.616	60.76
788.797	11.61
788.978	3.41
789.159	30.04
789.34	25.94
789.522	27.99
789.703	-12.97
789.884	114
790.065	38.23
790.246	120.15
790.427	42.32
790.607	189.78
790.788	97.62
790.969	27.99
791.15	122.2
791.331	25.94
791.512	-0.68
791.693	-53.93
791.874	5.46
792.054	122.2
792.235	62.8
792.416	-33.45
792.597	50.52
792.778	27.99
792.958	93.52
793.139	54.61
793.32	40.28
793.5	-64.17
793.681	126.29
793.862	114
794.042	97.62
794.223	-55.98
794.404	-15.02
794.584	-55.98
794.765	46.42
794.945	-27.31
795.126	32.08
795.306	73.04
795.487	68.95
795.667	34.13
795.848	9.56
796.028	-45.74
796.209	-74.41
796.389	40.28
796.57	-43.69
796.75	17.75
796.93	25.94
797.111	32.08
797.291	42.32
797.471	44.37
797.652	-70.31
797.832	-31.4
798.012	124.24
798.192	25.94
798.373	-103.08
798.553	25.94
798.733	97.62
798.913	-72.36
799.093	5.46
799.274	66.9
799.454	66.9
799.634	202.07
799.814	101.72
799.994	103.76
800.174	-0.68
800.354	60.76
800.534	-103.08
800.714	60.76
800.894	-43.69
801.074	-78.51
801.254	21.85
801.434	93.52
801.614	44.37
801.794	-10.92
801.974	1873.21
802.154	-66.22
802.334	97.62
802.514	34.13
802.693	23.89
802.873	-55.98
803.053	181.59
803.233	-27.31
803.413	25.94
803.592	-39.59
803.772	-60.07
803.952	-21.16
804.131	-76.46
804.311	89.43
804.491	122.2
804.67	17.75
804.85	17.75
805.03	66.9
805.209	25.94
805.389	-25.26
805.568	-25.26
805.748	-53.93
805.928	30.04
806.107	118.1
806.287	25.94
806.466	38.23
806.646	48.47
806.825	-88.75
807.004	-55.98
807.184	-0.68
807.363	46.42
807.543	58.71
807.722	-70.31
807.901	95.57
808.081	136.53
808.26	-49.83
808.439	-0.68
808.619	30.04
808.798	36.18
808.977	-53.93
809.156	142.68
809.336	-72.36
809.515	75.09
809.694	-78.51
809.873	-82.6
810.052	30.04
810.231	81.24
810.411	11.61
810.59	83.28
810.769	58.71
810.948	126.29
811.127	-84.65
811.306	1.37
811.485	-10.92
811.664	157.01
811.843	11.61
812.022	81.24
812.201	-33.45
812.38	-33.45
812.559	-23.21
812.737	128.34
812.916	-90.79
813.095	-72.36
813.274	-19.11
813.453	38.23
813.632	21.85
813.811	50.52
813.989	-25.26
814.168	38.23
814.347	-90.79
814.526	-27.31
814.704	154.96
814.883	60.76
815.062	-10.92
815.24	32.08
815.419	-17.07
815.598	48.47
815.776	-80.55
815.955	38.23
816.133	-121.51
816.312	54.61
816.49	11.61
816.669	40.28
816.847	-51.88
817.026	15.7
817.204	-6.83
817.383	23.89
817.561	-141.99
817.74	99.67
817.918	93.52
818.097	-39.59
818.275	-64.17
818.453	19.8
818.632	-49.83
818.81	-78.51
818.988	-6.83
819.167	-19.11
819.345	-74.41
819.523	-39.59
819.701	52.56
819.879	42.32
820.058	27.99
820.236	25.94
820.414	-15.02
820.592	7.51
820.77	3.41
820.948	-25.26
821.127	36.18
821.305	-2.73
821.483	-127.66
821.661	46.42
821.839	-21.16
822.017	-6.83
822.195	-23.21
822.373	79.19
822.551	17.75
822.729	107.86
822.907	-15.02
823.085	-27.31
823.262	-51.88
823.44	-4.78
823.618	-37.55
823.796	44.37
823.974	-76.46
824.152	-51.88
824.329	60.76
824.507	13.65
824.685	120.15
824.863	9.56
825.04	9.56
825.218	23.89
825.396	50.52
825.574	58.71
825.751	81.24
825.929	30.04
826.107	-47.79
826.284	68.95
826.462	34.13
826.639	-62.12
826.817	-115.37
826.994	3.41
827.172	-92.84
827.349	116.05
827.527	38.23
827.704	7.51
827.882	122.2
828.059	68.95
828.237	-82.6
828.414	62.8
828.591	-117.42
828.769	-6.83
828.946	-39.59
829.124	124.24
829.301	83.28
829.478	-17.07
829.655	50.52
829.833	-45.74
830.01	-76.46
830.187	-12.97
830.364	13.65
830.542	-80.55
830.719	81.24
830.896	66.9
831.073	-10.92
831.25	75.09
831.427	97.62
831.604	27.99
831.782	-15.02
831.959	83.28
832.136	-33.45
832.313	36.18
832.49	25.94
832.667	-8.87
832.844	-66.22
833.021	81.24
833.198	-10.92
833.374	-8.87
833.551	27.99
833.728	9.56
833.905	103.76
834.082	-92.84
834.259	77.14
834.436	75.09
834.612	-45.74
834.789	101.72
834.966	48.47
835.143	40.28
835.319	-78.51
835.496	48.47
835.673	148.82
835.85	83.28
836.026	50.52
836.203	-23.21
836.38	-33.45
836.556	-92.84
836.733	-17.07
836.909	150.87
837.086	-60.07
837.262	-76.46
837.439	11.61
837.616	-25.26
837.792	36.18
837.968	19.8
838.145	-88.75
838.321	-31.4
838.498	17.75
838.674	140.63
838.851	-64.17
839.027	44.37
839.203	-19.11
839.38	30.04
839.556	-53.93
839.732	134.48
839.909	-12.97
840.085	81.24
840.261	3.41
840.437	1.37
840.614	5.46
840.79	103.76
840.966	36.18
841.142	7.51
841.318	-72.36
841.494	91.48
841.671	50.52
841.847	-101.03
842.023	-29.35
842.199	-8.87
842.375	75.09
842.551	-80.55
842.727	-58.03
842.903	154.96
843.079	-60.07
843.255	97.62
843.431	34.13
843.607	27.99
843.783	-164.52
843.959	77.14
844.134	-39.59
844.31	50.52
844.486	25.94
844.662	7.51
844.838	-2.73
845.013	-2.73
845.189	71
845.365	19.8
845.541	48.47
845.716	-31.4
845.892	42.32
846.068	-53.93
846.244	-39.59
846.419	-23.21
846.595	-17.07
846.77	-35.5
846.946	62.8
847.122	11.61
847.297	11.61
847.473	183.63
847.648	-55.98
847.824	-27.31
847.999	-105.13
848.175	1.37
848.35	50.52
848.526	66.9
848.701	25.94
848.876	38.23
849.052	107.86
849.227	-47.79
849.403	-78.51
849.578	54.61
849.753	-12.97
849.929	75.09
850.104	-66.22
850.279	-25.26
850.454	38.23
850.63	34.13
850.805	-21.16
850.98	17.75
851.155	42.32
851.33	34.13
851.505	-103.08
851.681	204.11
851.856	46.42
852.031	38.23
852.206	44.37
852.381	-76.46
852.556	-12.97
852.731	25.94
852.906	13.65
853.081	40.28
853.256	58.71
853.431	-25.26
853.606	-58.03
853.781	-60.07
853.956	-105.13
854.131	-2.73
854.305	-88.75
854.48	-0.68
854.655	-10.92
854.83	-23.21
855.005	-35.5
855.18	17.75
855.354	64.85
855.529	23.89
855.704	-88.75
855.879	38.23
856.053	-15.02
856.228	-8.87
856.403	-78.51
856.577	-12.97
856.752	-115.37
856.926	-6.83
857.101	68.95
857.276	-64.17
857.45	30.04
857.625	97.62
857.799	71
857.974	52.56
858.148	-60.07
858.323	42.32
858.497	17.75
858.672	-35.5
858.846	-60.07
859.02	73.04
859.195	-45.74
859.369	-39.59
859.543	9.56
859.718	23.89
859.892	-47.79
860.066	46.42
860.241	-68.27
860.415	-53.93
860.589	5.46
860.763	64.85
860.938	-94.89
861.112	-8.87
861.286	-17.07
861.46	75.09
861.634	-15.02
861.808	97.62
861.982	-8.87
862.157	-19.11
862.331	-39.59
862.505	-82.6
862.679	-98.99
862.853	34.13
863.027	-31.4
863.201	169.3
863.375	-45.74
863.549	13.65
863.722	7.51
863.896	64.85
864.07	-51.88
864.244	-6.83
864.418	120.15
864.592	9.56
864.766	15.7
864.939	36.18
865.113	3.41
865.287	103.76
865.461	-29.35
865.634	85.33
865.808	-19.11
865.982	-55.98
866.156	-62.12
866.329	-62.12
866.503	-17.07
866.676	97.62
866.85	19.8
867.024	13.65
867.197	105.81
867.371	23.89
867.544	38.23
867.718	-68.27
867.891	60.76
868.065	-64.17
868.238	54.61
868.412	85.33
868.585	42.32
868.759	-27.31
868.932	-0.68
869.105	-92.84
869.279	50.52
869.452	-96.94
869.625	116.05
869.799	-33.45
869.972	-21.16
870.145	-125.61
870.319	124.24
870.492	-39.59
870.665	-2.73
870.838	-21.16
871.011	-113.32
871.185	-6.83
871.358	19.8
871.531	79.19
871.704	-39.59
871.877	-25.26
872.05	-19.11
872.223	-8.87
872.396	52.56
872.569	66.9
872.742	-35.5
872.915	-41.64
873.088	-6.83
873.261	-35.5
873.434	118.1
873.607	-27.31
873.78	42.32
873.953	-45.74
874.126	-31.4
874.299	163.15
874.471	-4.78
874.644	-8.87
874.817	5.46
874.99	105.81
875.163	50.52
875.335	15.7
875.508	-12.97
875.681	116.05
875.853	-33.45
876.026	13.65
876.199	44.37
876.371	52.56
876.544	3.41
876.717	-64.17
876.889	-43.69
877.062	101.72
877.234	-31.4
877.407	-15.02
877.579	5.46
877.752	34.13
877.924	105.81
878.097	5.46
878.269	62.8
878.442	-6.83
878.614	122.2
878.786	36.18
878.959	1.37
879.131	19.8
879.303	-123.56
879.476	-45.74
879.648	89.43
879.82	-55.98
879.993	-31.4
880.165	11.61
880.337	-6.83
880.509	5.46
880.681	-154.28
880.854	-62.12
881.026	85.33
881.198	200.02
881.37	-6.83
881.542	30.04
881.714	-33.45
881.886	-39.59
882.058	3.41
882.23	21.85
882.402	-76.46
882.574	60.76
882.746	30.04
882.918	105.81
883.09	58.71
883.262	-49.83
883.434	-6.83
883.606	-80.55
883.778	23.89
883.95	148.82
884.122	-45.74
884.293	42.32
884.465	23.89
884.637	105.81
884.809	-6.83
884.98	60.76
885.152	122.2
885.324	58.71
885.496	-86.7
885.667	-29.35
885.839	21.85
886.011	50.52
886.182	-10.92
886.354	161.11
886.525	-4.78
886.697	-6.83
886.869	-78.51
887.04	-17.07
887.212	79.19
887.383	144.72
887.555	34.13
887.726	-66.22
887.897	17.75
888.069	-6.83
888.24	91.48
888.412	1.37
888.583	-27.31
888.754	-39.59
888.926	-76.46
889.097	-19.11
889.268	-4.78
889.44	3.41
889.611	-55.98
889.782	-86.7
889.953	-10.92
890.125	99.67
890.296	-94.89
890.467	13.65
890.638	-58.03
890.809	-43.69
890.98	-33.45
891.151	-55.98
891.323	97.62
891.494	17.75
891.665	-25.26
891.836	11.61
892.007	56.66
892.178	38.23
892.349	-23.21
892.52	-29.35
892.691	-17.07
892.862	23.89
893.032	-41.64
893.203	7.51
893.374	30.04
893.545	81.24
893.716	-4.78
893.887	48.47
894.057	-15.02
894.228	15.7
894.399	9.56
894.57	89.43
894.74	-17.07
894.911	9.56
895.082	-35.5
895.253	25.94
895.423	-2.73
895.594	87.38
895.764	42.32
895.935	-72.36
896.106	-27.31
896.276	-74.41
896.447	32.08
896.617	-82.6
896.788	-23.21
896.958	-55.98
897.129	-33.45
897.299	9.56
897.47	95.57
897.64	64.85
897.81	13.65
897.981	19.8
898.151	19.8
898.322	-37.55
898.492	64.85
898.662	-41.64
898.832	-96.94
899.003	-66.22
899.173	71
899.343	-49.83
899.513	-6.83
