Data from USB4F104151__7__10-41-17-289.txt Node

Date: Wed Feb 26 10:41:17 EST 2025
User: louis
Spectrometer: USB4F10415
Trigger mode: 4
Integration Time (sec): 1.000000E-1
Scans to average: 1
Electric dark correction enabled: true
Nonlinearity correction enabled: false
Boxcar width: 0
XAxis mode: Wavelengths
Number of Pixels in Spectrum: 3648
>>>>>Begin Spectral Data<<<<<
178.204	-388.43
178.424	-388.43
178.644	-388.43
178.864	-359.76
179.084	-398.67
179.304	-7.51
179.524	-23.89
179.744	-5.46
179.964	-19.8
180.184	12.97
180.404	127.66
180.624	-34.13
180.844	51.88
181.064	-66.9
181.283	47.79
181.503	-99.67
181.723	17.07
181.943	-66.9
182.163	139.94
182.383	8.87
182.602	35.5
182.822	166.57
183.042	105.13
183.262	-40.28
183.482	43.69
183.701	51.88
183.921	4.78
184.141	4.78
184.361	82.6
184.58	72.36
184.8	60.07
185.02	-1.37
185.239	68.27
185.459	84.65
185.679	139.94
185.898	-95.57
186.118	23.21
186.338	39.59
186.557	152.23
186.777	-15.7
186.997	4.78
187.216	25.26
187.436	131.75
187.655	94.89
187.875	115.37
188.095	-17.75
188.314	107.18
188.534	166.57
188.753	2.73
188.973	107.18
189.192	127.66
189.412	109.22
189.631	-40.28
189.851	133.8
190.07	139.94
190.29	-68.95
190.509	66.22
190.729	55.98
190.948	195.24
191.168	258.73
191.387	86.7
191.607	17.07
191.826	39.59
192.045	37.55
192.265	4.78
192.484	84.65
192.704	27.31
192.923	-17.75
193.142	160.42
193.362	68.27
193.581	129.7
193.8	41.64
194.02	127.66
194.239	74.41
194.458	78.51
194.678	82.6
194.897	76.46
195.116	101.03
195.335	129.7
195.555	74.41
195.774	80.55
195.993	107.18
196.212	6.83
196.432	-5.46
196.651	23.21
196.87	21.16
197.089	275.11
197.308	101.03
197.528	51.88
197.747	-50.52
197.966	70.31
198.185	174.76
198.404	-5.46
198.623	152.23
198.842	88.75
199.062	86.7
199.281	76.46
199.5	64.17
199.719	31.4
199.938	8.87
200.157	150.18
200.376	94.89
200.595	162.47
200.814	86.7
201.033	12.97
201.252	133.8
201.471	66.22
201.69	101.03
201.909	64.17
202.128	64.17
202.347	187.05
202.566	19.11
202.785	15.02
203.004	-40.28
203.223	242.34
203.442	-3.41
203.661	-48.47
203.879	92.84
204.098	123.56
204.317	86.7
204.536	33.45
204.755	74.41
204.974	133.8
205.193	19.11
205.411	127.66
205.63	125.61
205.849	37.55
206.068	60.07
206.287	-52.56
206.505	76.46
206.724	-64.85
206.943	37.55
207.162	4.78
207.381	187.05
207.599	62.12
207.818	109.22
208.037	21.16
208.255	105.13
208.474	51.88
208.693	25.26
208.911	23.21
209.13	98.99
209.349	78.51
209.567	154.28
209.786	88.75
210.005	98.99
210.223	96.94
210.442	-97.62
210.661	60.07
210.879	64.17
211.098	12.97
211.316	45.74
211.535	39.59
211.753	64.17
211.972	103.08
212.191	66.22
212.409	4.78
212.628	172.71
212.846	12.97
213.065	82.6
213.283	78.51
213.502	31.4
213.72	-5.46
213.938	10.92
214.157	47.79
214.375	127.66
214.594	66.22
214.812	96.94
215.031	60.07
215.249	64.17
215.467	25.26
215.686	-9.56
215.904	189.1
216.122	53.93
216.341	170.66
216.559	17.07
216.778	53.93
216.996	141.99
217.214	21.16
217.432	88.75
217.651	-11.61
217.869	64.17
218.087	25.26
218.306	6.83
218.524	-5.46
218.742	12.97
218.96	82.6
219.179	25.26
219.397	23.21
219.615	295.59
219.833	45.74
220.051	12.97
220.27	88.75
220.488	131.75
220.706	195.24
220.924	-66.9
221.142	-36.18
221.36	115.37
221.578	51.88
221.796	21.16
222.015	-25.94
222.233	43.69
222.451	205.48
222.669	-40.28
222.887	96.94
223.105	-25.94
223.323	-34.13
223.541	-42.32
223.759	53.93
223.977	72.36
224.195	209.58
224.413	129.7
224.631	131.75
224.849	25.26
225.067	168.62
225.285	27.31
225.503	-83.28
225.721	-83.28
225.939	55.98
226.157	58.03
226.375	260.77
226.592	-25.94
226.81	4.78
227.028	154.28
227.246	109.22
227.464	148.14
227.682	66.22
227.9	117.42
228.117	-15.7
228.335	133.8
228.553	137.9
228.771	70.31
228.989	70.31
229.206	129.7
229.424	33.45
229.642	-50.52
229.86	-15.7
230.077	66.22
230.295	47.79
230.513	19.11
230.731	35.5
230.948	172.71
231.166	125.61
231.384	-7.51
231.601	6.83
231.819	193.19
232.037	-9.56
232.254	-23.89
232.472	-1.37
232.689	33.45
232.907	107.18
233.125	33.45
233.342	-15.7
233.56	12.97
233.777	39.59
233.995	33.45
234.213	41.64
234.43	82.6
234.648	8.87
234.865	25.26
235.083	98.99
235.3	53.93
235.518	72.36
235.735	70.31
235.953	123.56
236.17	60.07
236.388	76.46
236.605	45.74
236.822	105.13
237.04	156.33
237.257	62.12
237.475	6.83
237.692	37.55
237.909	141.99
238.127	39.59
238.344	66.22
238.562	12.97
238.779	-21.85
238.996	-30.04
239.214	53.93
239.431	74.41
239.648	51.88
239.865	141.99
240.083	76.46
240.3	-21.85
240.517	37.55
240.735	133.8
240.952	111.27
241.169	86.7
241.386	80.55
241.603	4.78
241.821	-36.18
242.038	127.66
242.255	146.09
242.472	-36.18
242.689	160.42
242.907	133.8
243.124	10.92
243.341	43.69
243.558	-5.46
243.775	-3.41
243.992	2.73
244.209	39.59
244.426	162.47
244.643	105.13
244.86	74.41
245.078	51.88
245.295	103.08
245.512	-62.8
245.729	12.97
245.946	84.65
246.163	98.99
246.38	55.98
246.597	78.51
246.814	45.74
247.031	15.02
247.248	58.03
247.464	111.27
247.681	4.78
247.898	-7.51
248.115	170.66
248.332	19.11
248.549	170.66
248.766	211.62
248.983	84.65
249.2	96.94
249.417	68.27
249.633	-64.85
249.85	123.56
250.067	-42.32
250.284	-3.41
250.501	127.66
250.717	64.17
250.934	-58.71
251.151	21.16
251.368	80.55
251.585	17.07
251.801	19.11
252.018	-95.57
252.235	119.46
252.451	-34.13
252.668	21.16
252.885	170.66
253.102	19.11
253.318	33.45
253.535	-5.46
253.752	-7.51
253.968	15.02
254.185	-13.65
254.401	31.4
254.618	29.35
254.835	8.87
255.051	137.9
255.268	125.61
255.484	64.17
255.701	15.02
255.917	29.35
256.134	41.64
256.351	49.83
256.567	-52.56
256.784	96.94
257	-58.71
257.217	111.27
257.433	70.31
257.65	96.94
257.866	189.1
258.082	4.78
258.299	-7.51
258.515	137.9
258.732	64.17
258.948	-13.65
259.165	160.42
259.381	-27.99
259.597	78.51
259.814	43.69
260.03	76.46
260.246	15.02
260.463	113.32
260.679	174.76
260.895	66.22
261.112	33.45
261.328	53.93
261.544	-1.37
261.761	176.81
261.977	-27.99
262.193	33.45
262.409	111.27
262.626	19.11
262.842	88.75
263.058	-109.91
263.274	80.55
263.49	64.17
263.707	80.55
263.923	80.55
264.139	-46.42
264.355	27.31
264.571	107.18
264.787	60.07
265.004	133.8
265.22	68.27
265.436	72.36
265.652	76.46
265.868	66.22
266.084	-58.71
266.3	29.35
266.516	-99.67
266.732	-7.51
266.948	4.78
267.164	90.79
267.38	146.09
267.596	72.36
267.812	133.8
268.028	49.83
268.244	88.75
268.46	37.55
268.676	-40.28
268.892	107.18
269.108	2.73
269.324	-23.89
269.54	0.68
269.756	33.45
269.972	-42.32
270.188	12.97
270.403	58.03
270.619	92.84
270.835	96.94
271.051	68.27
271.267	-5.46
271.483	-52.56
271.698	146.09
271.914	29.35
272.13	90.79
272.346	60.07
272.562	58.03
272.777	76.46
272.993	-30.04
273.209	55.98
273.425	-5.46
273.64	-40.28
273.856	141.99
274.072	-44.37
274.287	6.83
274.503	82.6
274.719	43.69
274.934	33.45
275.15	-91.48
275.366	121.51
275.581	8.87
275.797	-7.51
276.012	80.55
276.228	137.9
276.444	58.03
276.659	141.99
276.875	-56.66
277.09	-34.13
277.306	12.97
277.521	78.51
277.737	70.31
277.952	103.08
278.168	60.07
278.383	33.45
278.599	80.55
278.814	82.6
279.03	21.16
279.245	72.36
279.461	6.83
279.676	109.22
279.892	-17.75
280.107	17.07
280.322	-7.51
280.538	58.03
280.753	33.45
280.969	94.89
281.184	2.73
281.399	119.46
281.615	103.08
281.83	31.4
282.045	-15.7
282.26	37.55
282.476	62.12
282.691	94.89
282.906	82.6
283.122	60.07
283.337	92.84
283.552	92.84
283.767	31.4
283.983	144.04
284.198	37.55
284.413	39.59
284.628	-77.14
284.843	68.27
285.058	133.8
285.274	8.87
285.489	17.07
285.704	107.18
285.919	-11.61
286.134	62.12
286.349	33.45
286.564	-13.65
286.779	248.49
286.995	39.59
287.21	-64.85
287.425	76.46
287.64	0.68
287.855	45.74
288.07	-44.37
288.285	146.09
288.5	107.18
288.715	92.84
288.93	-13.65
289.145	-38.23
289.36	90.79
289.575	33.45
289.79	94.89
290.004	72.36
290.219	129.7
290.434	-30.04
290.649	88.75
290.864	37.55
291.079	17.07
291.294	33.45
291.509	21.16
291.724	62.12
291.938	31.4
292.153	88.75
292.368	31.4
292.583	15.02
292.798	127.66
293.012	41.64
293.227	58.03
293.442	17.07
293.657	187.05
293.871	113.32
294.086	121.51
294.301	162.47
294.516	84.65
294.73	25.26
294.945	-62.8
295.16	84.65
295.374	119.46
295.589	37.55
295.804	12.97
296.018	-17.75
296.233	64.17
296.447	8.87
296.662	-13.65
296.877	146.09
297.091	37.55
297.306	64.17
297.52	94.89
297.735	68.27
297.949	64.17
298.164	90.79
298.378	101.03
298.593	-3.41
298.807	51.88
299.022	45.74
299.236	182.95
299.451	78.51
299.665	109.22
299.88	82.6
300.094	58.03
300.309	72.36
300.523	0.68
300.737	60.07
300.952	27.31
301.166	105.13
301.381	-17.75
301.595	53.93
301.809	53.93
302.024	86.7
302.238	10.92
302.452	199.34
302.667	111.27
302.881	189.1
303.095	51.88
303.309	152.23
303.524	-34.13
303.738	84.65
303.952	66.22
304.166	115.37
304.381	-77.14
304.595	260.77
304.809	-13.65
305.023	80.55
305.237	-38.23
305.452	-19.8
305.666	146.09
305.88	166.57
306.094	191.14
306.308	170.66
306.522	137.9
306.736	123.56
306.95	68.27
307.164	49.83
307.379	4.78
307.593	121.51
307.807	160.42
308.021	70.31
308.235	84.65
308.449	-34.13
308.663	4.78
308.877	244.39
309.091	84.65
309.305	37.55
309.519	-66.9
309.733	160.42
309.947	-7.51
310.161	103.08
310.374	125.61
310.588	129.7
310.802	-11.61
311.016	-3.41
311.23	103.08
311.444	-11.61
311.658	15.02
311.872	139.94
312.085	107.18
312.299	39.59
312.513	125.61
312.727	119.46
312.941	-11.61
313.154	53.93
313.368	33.45
313.582	15.02
313.796	53.93
314.009	47.79
314.223	109.22
314.437	139.94
314.651	111.27
314.864	19.11
315.078	84.65
315.292	-68.95
315.505	15.02
315.719	60.07
315.933	78.51
316.146	2.73
316.36	-48.47
316.573	115.37
316.787	55.98
317.001	45.74
317.214	-1.37
317.428	70.31
317.641	10.92
317.855	-19.8
318.068	-5.46
318.282	45.74
318.495	199.34
318.709	60.07
318.922	60.07
319.136	154.28
319.349	154.28
319.563	-32.08
319.776	113.32
319.99	53.93
320.203	176.81
320.417	119.46
320.63	78.51
320.843	248.49
321.057	70.31
321.27	115.37
321.483	101.03
321.697	162.47
321.91	27.31
322.124	117.42
322.337	121.51
322.55	-23.89
322.763	12.97
322.977	105.13
323.19	39.59
323.403	45.74
323.617	23.21
323.83	117.42
324.043	82.6
324.256	51.88
324.469	-9.56
324.683	82.6
324.896	-7.51
325.109	78.51
325.322	10.92
325.535	164.52
325.748	82.6
325.962	12.97
326.175	105.13
326.388	152.23
326.601	121.51
326.814	-3.41
327.027	2.73
327.24	135.85
327.453	-66.9
327.666	94.89
327.879	152.23
328.092	58.03
328.305	107.18
328.518	39.59
328.731	23.21
328.944	78.51
329.157	125.61
329.37	-25.94
329.583	141.99
329.796	115.37
330.009	-21.85
330.222	55.98
330.435	68.27
330.648	39.59
330.861	115.37
331.073	78.51
331.286	133.8
331.499	19.11
331.712	-38.23
331.925	103.08
332.138	88.75
332.35	127.66
332.563	-19.8
332.776	109.22
332.989	33.45
333.202	37.55
333.414	58.03
333.627	12.97
333.84	-23.89
334.053	68.27
334.265	12.97
334.478	58.03
334.691	62.12
334.903	98.99
335.116	-40.28
335.329	-1.37
335.541	101.03
335.754	150.18
335.966	53.93
336.179	29.35
336.392	60.07
336.604	66.22
336.817	176.81
337.029	58.03
337.242	4.78
337.454	86.7
337.667	121.51
337.88	162.47
338.092	19.11
338.305	92.84
338.517	-15.7
338.729	107.18
338.942	107.18
339.154	-56.66
339.367	43.69
339.579	60.07
339.792	-5.46
340.004	101.03
340.217	68.27
340.429	82.6
340.641	-1.37
340.854	23.21
341.066	4.78
341.278	70.31
341.491	131.75
341.703	78.51
341.915	74.41
342.128	180.9
342.34	96.94
342.552	15.02
342.764	15.02
342.977	80.55
343.189	78.51
343.401	64.17
343.613	17.07
343.826	41.64
344.038	86.7
344.25	101.03
344.462	-52.56
344.674	166.57
344.886	10.92
345.099	2.73
345.311	105.13
345.523	-17.75
345.735	-46.42
345.947	60.07
346.159	64.17
346.371	15.02
346.583	2.73
346.795	217.77
347.007	-11.61
347.219	170.66
347.431	47.79
347.643	119.46
347.855	12.97
348.067	174.76
348.279	-44.37
348.491	4.78
348.703	66.22
348.915	98.99
349.127	-3.41
349.339	-15.7
349.551	-83.28
349.763	109.22
349.975	58.03
350.187	129.7
350.399	168.62
350.61	117.42
350.822	-62.8
351.034	60.07
351.246	144.04
351.458	80.55
351.669	172.71
351.881	117.42
352.093	135.85
352.305	72.36
352.517	51.88
352.728	125.61
352.94	88.75
353.152	111.27
353.363	-9.56
353.575	156.33
353.787	144.04
353.999	105.13
354.21	191.14
354.422	-116.05
354.633	-5.46
354.845	-17.75
355.057	55.98
355.268	27.31
355.48	62.12
355.692	29.35
355.903	82.6
356.115	-21.85
356.326	-32.08
356.538	131.75
356.749	80.55
356.961	111.27
357.172	29.35
357.384	-36.18
357.595	250.53
357.807	35.5
358.018	12.97
358.23	25.26
358.441	152.23
358.653	-7.51
358.864	-19.8
359.075	0.68
359.287	117.42
359.498	76.46
359.709	23.21
359.921	29.35
360.132	60.07
360.344	70.31
360.555	19.11
360.766	88.75
360.977	70.31
361.189	154.28
361.4	35.5
361.611	23.21
361.823	160.42
362.034	70.31
362.245	-3.41
362.456	0.68
362.667	90.79
362.879	-27.99
363.09	53.93
363.301	55.98
363.512	115.37
363.723	-48.47
363.935	-11.61
364.146	135.85
364.357	15.02
364.568	19.11
364.779	17.07
364.99	174.76
365.201	-5.46
365.412	78.51
365.623	-44.37
365.834	123.56
366.045	6.83
366.256	84.65
366.467	158.38
366.678	27.31
366.889	76.46
367.1	-34.13
367.311	55.98
367.522	-23.89
367.733	21.16
367.944	78.51
368.155	72.36
368.366	82.6
368.577	72.36
368.788	129.7
368.999	35.5
369.209	74.41
369.42	185
369.631	244.39
369.842	137.9
370.053	2.73
370.264	121.51
370.474	-17.75
370.685	74.41
370.896	105.13
371.107	109.22
371.317	115.37
371.528	68.27
371.739	232.1
371.95	53.93
372.16	68.27
372.371	12.97
372.582	8.87
372.792	33.45
373.003	45.74
373.214	15.02
373.424	64.17
373.635	37.55
373.846	144.04
374.056	23.21
374.267	41.64
374.477	144.04
374.688	17.07
374.898	-9.56
375.109	84.65
375.319	96.94
375.53	146.09
375.74	90.79
375.951	41.64
376.161	98.99
376.372	92.84
376.582	-38.23
376.793	152.23
377.003	-30.04
377.214	10.92
377.424	121.51
377.635	80.55
377.845	-17.75
378.055	86.7
378.266	8.87
378.476	10.92
378.686	66.22
378.897	115.37
379.107	115.37
379.317	121.51
379.528	23.21
379.738	88.75
379.948	-83.28
380.158	191.14
380.369	17.07
380.579	90.79
380.789	98.99
380.999	119.46
381.21	144.04
381.42	113.32
381.63	-23.89
381.84	144.04
382.05	21.16
382.261	64.17
382.471	131.75
382.681	-21.85
382.891	160.42
383.101	64.17
383.311	43.69
383.521	-1.37
383.731	88.75
383.941	115.37
384.151	113.32
384.361	86.7
384.571	103.08
384.781	121.51
384.991	189.1
385.201	205.48
385.411	103.08
385.621	64.17
385.831	70.31
386.041	66.22
386.251	55.98
386.461	90.79
386.671	92.84
386.881	-30.04
387.091	37.55
387.301	139.94
387.511	27.31
387.72	121.51
387.93	133.8
388.14	-13.65
388.35	70.31
388.56	107.18
388.769	154.28
388.979	51.88
389.189	-62.8
389.399	62.12
389.609	117.42
389.818	55.98
390.028	33.45
390.238	58.03
390.447	37.55
390.657	51.88
390.867	-17.75
391.076	-9.56
391.286	117.42
391.496	-3.41
391.705	-1.37
391.915	70.31
392.125	121.51
392.334	-46.42
392.544	135.85
392.753	96.94
392.963	-1.37
393.172	64.17
393.382	78.51
393.591	154.28
393.801	31.4
394.01	119.46
394.22	94.89
394.429	23.21
394.639	47.79
394.848	78.51
395.058	150.18
395.267	27.31
395.477	86.7
395.686	12.97
395.895	170.66
396.105	228.01
396.314	90.79
396.524	92.84
396.733	101.03
396.942	62.12
397.152	45.74
397.361	129.7
397.57	74.41
397.78	37.55
397.989	51.88
398.198	195.24
398.407	55.98
398.617	41.64
398.826	68.27
399.035	55.98
399.244	111.27
399.453	96.94
399.663	80.55
399.872	139.94
400.081	15.02
400.29	105.13
400.499	-50.52
400.708	133.8
400.917	29.35
401.127	58.03
401.336	111.27
401.545	180.9
401.754	144.04
401.963	109.22
402.172	10.92
402.381	25.26
402.59	74.41
402.799	4.78
403.008	156.33
403.217	64.17
403.426	141.99
403.635	-17.75
403.844	47.79
404.053	33.45
404.262	35.5
404.471	219.82
404.68	98.99
404.888	62.12
405.097	68.27
405.306	86.7
405.515	117.42
405.724	23.21
405.933	113.32
406.142	109.22
406.35	185
406.559	92.84
406.768	72.36
406.977	174.76
407.185	76.46
407.394	47.79
407.603	-36.18
407.812	107.18
408.02	150.18
408.229	29.35
408.438	29.35
408.646	15.02
408.855	127.66
409.064	62.12
409.272	12.97
409.481	64.17
409.69	29.35
409.898	-7.51
410.107	64.17
410.315	129.7
410.524	2.73
410.733	86.7
410.941	-3.41
411.15	49.83
411.358	78.51
411.567	193.19
411.775	27.31
411.984	96.94
412.192	172.71
412.401	41.64
412.609	152.23
412.818	195.24
413.026	90.79
413.234	2.73
413.443	53.93
413.651	21.16
413.86	19.11
414.068	121.51
414.276	172.71
414.485	19.11
414.693	195.24
414.901	176.81
415.11	129.7
415.318	58.03
415.526	51.88
415.734	152.23
415.943	96.94
416.151	189.1
416.359	62.12
416.567	111.27
416.776	82.6
416.984	107.18
417.192	230.06
417.4	-58.71
417.608	8.87
417.817	15.02
418.025	117.42
418.233	178.86
418.441	55.98
418.649	39.59
418.857	15.02
419.065	180.9
419.273	35.5
419.481	121.51
419.689	-7.51
419.897	105.13
420.105	29.35
420.313	139.94
420.521	168.62
420.729	213.67
420.937	10.92
421.145	-9.56
421.353	33.45
421.561	199.34
421.769	111.27
421.977	12.97
422.185	68.27
422.393	45.74
422.601	113.32
422.809	21.16
423.017	6.83
423.224	53.93
423.432	154.28
423.64	62.12
423.848	133.8
424.056	0.68
424.263	68.27
424.471	78.51
424.679	215.72
424.887	-68.95
425.094	172.71
425.302	70.31
425.51	51.88
425.718	162.47
425.925	113.32
426.133	10.92
426.341	158.38
426.548	86.7
426.756	60.07
426.964	109.22
427.171	80.55
427.379	88.75
427.586	90.79
427.794	27.31
428.001	148.14
428.209	119.46
428.417	266.92
428.624	146.09
428.832	101.03
429.039	51.88
429.247	160.42
429.454	125.61
429.662	244.39
429.869	131.75
430.076	137.9
430.284	205.48
430.491	158.38
430.699	123.56
430.906	246.44
431.114	154.28
431.321	109.22
431.528	82.6
431.736	170.66
431.943	162.47
432.15	137.9
432.358	215.72
432.565	213.67
432.772	70.31
432.979	121.51
433.187	144.04
433.394	271.01
433.601	172.71
433.808	174.76
434.016	309.93
434.223	271.01
434.43	225.96
434.637	254.63
434.844	275.11
435.052	275.11
435.259	277.16
435.466	228.01
435.673	207.53
435.88	291.49
436.087	281.25
436.294	371.36
436.501	332.45
436.708	256.68
436.915	344.74
437.122	344.74
437.329	271.01
437.537	330.41
437.743	346.79
437.95	414.37
438.157	432.8
438.364	348.84
438.571	443.04
438.778	428.71
438.985	412.32
439.192	492.2
439.399	490.15
439.606	453.28
439.813	565.92
440.02	623.27
440.227	627.36
440.433	547.49
440.64	570.02
440.847	441
441.054	547.49
441.261	647.84
441.467	570.02
441.674	537.25
441.881	688.8
442.088	570.02
442.294	715.42
442.501	744.1
442.708	699.04
442.914	731.81
443.121	762.53
443.328	801.44
443.534	864.93
443.741	862.88
443.948	778.91
444.154	926.36
444.361	1170.07
444.568	959.13
444.774	959.13
444.981	965.28
445.187	1075.87
445.394	1104.54
445.6	1010.33
445.807	1213.08
446.013	1200.79
446.22	1082.01
446.426	1311.38
446.633	1325.72
446.839	1548.95
447.046	1393.3
447.252	1507.99
447.459	1477.27
447.665	1514.13
447.871	1782.42
448.078	1776.27
448.284	1858.19
448.491	1936.01
448.697	1981.07
448.903	2056.84
449.11	2083.47
449.316	2009.74
449.522	2192.01
449.728	2443.91
449.935	2419.33
450.141	2372.23
450.347	2529.92
450.553	2529.92
450.76	2609.79
450.966	2693.76
451.172	2755.2
451.378	3056.25
451.584	3023.48
451.791	3289.72
451.997	3201.66
452.203	3349.11
452.409	3490.42
452.615	3752.56
452.821	3611.25
453.027	3625.59
453.233	4006.51
453.44	3940.97
453.646	4115.05
453.852	4344.42
454.058	4489.83
454.264	4674.15
454.47	5046.88
454.676	4985.44
454.882	5407.32
455.088	5208.67
455.294	5603.93
455.5	5843.54
455.705	6034
455.911	6105.68
456.117	6263.37
456.323	6591.05
456.529	6556.23
456.735	7119.42
456.941	7318.07
457.147	7547.45
457.352	7924.27
457.558	8024.62
457.764	8432.17
457.97	8688.17
458.176	9155.1
458.381	9505.31
458.587	9775.64
458.793	10025.49
458.999	10031.63
459.204	11397.63
459.41	11858.42
459.616	11833.85
459.821	12263.92
460.027	12872.17
460.233	13480.41
460.438	13541.85
460.644	14152.15
460.85	14440.91
461.055	15137.22
461.261	15786.43
461.466	15299.01
461.672	15718.84
461.878	17555.87
462.083	17502.62
462.289	17697.18
462.494	18549.14
462.7	18467.22
462.905	18954.63
463.111	20537.71
463.316	21412.2
463.522	21776.73
463.727	22358.36
463.932	23130.44
464.138	24011.07
464.343	24901.93
464.549	24994.09
464.754	26958.1
464.959	27549.96
465.165	28137.73
465.37	27715.84
465.575	27707.65
465.781	29683.94
465.986	30783.7
466.191	30077.15
466.397	30589.14
466.602	29774.05
466.807	31791.3
467.012	31908.04
467.218	32514.23
467.423	32690.36
467.628	33902.76
467.833	35070.1
468.038	34726.04
468.244	34068.64
468.449	35790.98
468.654	35160.21
468.859	35152.02
469.064	35252.37
469.269	34191.52
469.474	34320.54
469.679	35612.81
469.885	34447.52
470.09	35049.62
470.295	35131.54
470.5	34390.17
470.705	34943.13
470.91	33951.91
471.115	33317.04
471.32	34128.03
471.525	33290.41
471.73	32602.3
471.935	32311.49
472.139	30808.28
472.344	31453.39
472.549	31396.04
472.754	30216.41
472.959	29995.23
473.164	29239.53
473.369	28346.62
473.574	29288.68
473.778	28782.84
473.983	28385.53
474.188	27564.29
474.393	26210.59
474.598	26726.67
474.802	25753.89
475.007	25364.78
475.212	25217.32
475.417	24142.14
475.621	24305.98
475.826	23771.46
476.031	23202.12
476.235	22688.08
476.44	22722.9
476.645	21954.91
476.849	21940.57
477.054	21705.06
477.259	21166.44
477.463	21070.19
477.668	20771.18
477.872	20511.09
478.077	19908.99
478.282	19435.91
478.486	19190.15
478.691	19083.66
478.895	18915.72
479.1	18717.07
479.304	18542.99
479.509	17869.21
479.713	18198.93
479.918	17693.08
480.122	17488.29
480.326	17424.8
480.531	17682.84
480.735	17287.59
480.94	17117.61
481.144	17519.01
481.348	16343.47
481.553	16783.79
481.757	16230.83
481.961	16425.39
482.166	16374.19
482.37	16337.33
482.574	16048.57
482.778	15894.97
482.983	16204.21
483.187	15804.86
483.391	15557.05
483.595	15468.99
483.8	15137.22
484.004	15251.91
484.208	15262.15
484.412	14934.47
484.616	15114.69
484.821	14528.97
485.025	14219.73
485.229	14594.51
485.433	14092.76
485.637	14111.19
485.841	13742.55
486.045	13685.21
486.249	13763.03
486.453	13234.66
486.657	12988.9
486.861	12859.88
487.065	12648.94
487.269	12673.51
487.473	12102.13
487.677	12298.73
487.881	12292.59
488.085	11950.58
488.289	11874.81
488.493	11452.92
488.697	11317.76
488.901	11117.06
489.105	10807.81
489.309	10609.16
489.512	10588.68
489.716	10433.04
489.92	10213.9
490.124	10019.35
490.328	10088.98
490.531	9683.48
490.735	9447.96
490.939	9280.03
491.143	9073.18
491.346	9038.37
491.55	8866.34
491.754	8804.9
491.958	8673.83
492.161	8622.63
492.365	8495.66
492.569	8149.55
492.772	8059.44
492.976	8047.15
493.18	7995.95
493.383	8055.34
493.587	7860.79
493.79	7893.55
493.994	7555.64
494.197	7547.45
494.401	7696.95
494.605	7361.08
494.808	7356.99
495.012	7408.19
495.215	7197.24
495.419	7338.55
495.622	7098.94
495.825	7105.09
496.029	6859.33
496.232	7191.1
496.436	7070.27
496.639	7295.55
496.843	6933.06
497.046	6978.11
497.249	7213.63
497.453	7012.93
497.656	7012.93
497.859	7025.22
498.063	7223.87
498.266	7209.53
498.469	7154.24
498.673	7187
498.876	7123.52
499.079	7072.32
499.282	7170.62
499.485	7449.14
499.689	7350.84
499.892	7529.02
500.095	7623.22
500.298	7567.93
500.501	7338.55
500.705	7567.93
500.908	7789.11
501.111	7797.3
501.314	7852.59
501.517	7836.21
501.72	8092.21
501.923	7946.8
502.126	8118.83
502.329	8409.64
502.532	8432.17
502.735	8503.85
502.938	8690.21
503.141	8598.06
503.344	8870.44
503.547	8927.78
503.75	9005.6
503.953	9058.85
504.156	9357.85
504.359	9447.96
504.562	9435.67
504.765	9734.68
504.968	9890.32
505.17	9937.43
505.373	10029.59
505.576	10293.77
505.779	10445.32
505.982	10539.53
506.185	10773
506.387	10945.03
506.59	11170.3
506.793	11463.16
506.996	11457.02
507.198	12050.93
507.401	11846.13
507.604	12302.83
507.807	12464.62
508.009	12708.33
508.212	12966.37
508.415	13322.72
508.617	13693.4
508.82	13894.1
509.022	13763.03
509.225	14490.06
509.428	14602.7
509.63	14911.94
509.833	14905.8
510.035	16060.85
510.238	15937.98
510.44	16189.88
510.643	16665
510.845	17168.8
511.048	17154.47
511.25	17799.58
511.453	18135.45
511.655	19024.26
511.858	19097.99
512.06	19542.4
512.262	20052.34
512.465	20052.34
512.667	20771.18
512.87	21047.66
513.072	21776.73
513.274	22442.32
513.477	22980.94
513.679	23150.92
513.881	23793.98
514.084	24402.23
514.286	24877.36
514.488	25127.21
514.69	26237.21
514.893	26392.86
515.095	26878.22
515.297	27369.74
515.499	28133.63
515.701	28719.35
515.904	29405.42
516.106	29980.9
516.308	30603.48
516.51	31275.21
516.712	31635.66
516.914	32379.07
517.116	33134.77
517.318	33702.06
517.52	34322.59
517.722	34738.33
517.925	35418.25
518.127	36014.21
518.329	36923.51
518.531	37378.16
518.733	37947.5
518.935	38316.13
519.136	39080.02
519.338	40239.17
519.54	40448.07
519.742	41302.07
519.944	41781.29
520.146	42627.1
520.348	42702.88
520.55	43462.68
520.752	43356.18
520.954	44689.41
521.155	44658.69
521.357	45465.59
521.559	46225.39
521.761	47128.54
521.963	47095.77
522.164	47144.92
522.366	47699.92
522.568	48283.59
522.77	48359.37
522.971	49481.66
523.173	48721.86
523.375	50055.09
523.576	49430.46
523.778	49803.19
523.98	50173.87
524.181	50816.93
524.383	50601.89
524.584	51394.46
524.786	51085.22
524.988	50773.92
525.189	51605.4
525.391	51838.87
525.592	51589.02
525.794	51683.22
525.995	51283.87
526.197	51173.28
526.398	51396.51
526.6	51378.07
526.801	51437.47
527.003	51337.12
527.204	50589.61
527.406	51410.84
527.607	51230.62
527.808	50884.51
528.01	49631.16
528.211	49807.28
528.412	50689.96
528.614	50173.87
528.815	49911.73
529.016	49960.88
529.218	48123.85
529.419	48619.46
529.62	47749.07
529.822	47556.56
530.023	47065.05
530.224	47058.91
530.425	46462.95
530.626	45756.4
530.828	45510.64
531.029	45113.34
531.23	44593.15
531.431	44328.97
531.632	43302.93
531.833	43335.7
532.035	42412.07
532.236	42131.5
532.437	42051.62
532.638	40890.43
532.839	40869.95
533.04	40239.17
533.241	39481.42
533.442	39649.36
533.643	39098.45
533.844	38381.67
534.045	38017.13
534.246	37001.33
534.447	36941.94
534.648	36233.35
534.849	35915.91
535.05	35233.94
535.251	35002.52
535.451	34128.03
535.652	33994.92
535.853	33464.49
536.054	33192.11
536.255	32567.48
536.456	31930.56
536.657	32149.7
536.857	31264.97
537.058	30820.56
537.259	30841.04
537.46	30415.07
537.66	30015.71
537.861	29432.04
538.062	28928.24
538.263	28764.4
538.463	28244.22
538.664	27969.79
538.865	27703.56
539.065	27298.06
539.266	26951.95
539.466	26890.51
539.667	26257.69
539.868	26267.93
540.068	25299.24
540.269	25540.9
540.469	25030.96
540.67	24586.55
540.87	24846.64
541.071	23923.01
541.271	24109.37
541.472	23763.26
541.672	23470.4
541.873	22937.93
542.073	22571.35
542.274	22831.44
542.474	22272.34
542.675	22282.58
542.875	22182.23
543.075	21635.42
543.276	21490.02
543.476	21291.37
543.676	20732.27
543.877	20539.76
544.077	20445.55
544.277	20171.13
544.478	19847.55
544.678	19933.56
544.878	19511.68
545.078	19485.06
545.279	19016.07
545.479	18921.87
545.679	18710.93
545.879	18612.62
546.079	18311.57
546.28	18106.77
546.48	17637.79
546.68	17750.43
546.88	17361.31
547.08	17330.59
547.28	17058.21
547.48	16742.83
547.68	16705.96
547.88	16746.92
548.081	16234.93
548.281	16138.68
548.481	15380.93
548.681	15405.5
548.881	15595.96
549.081	15217.09
549.28	15167.94
549.48	14940.61
549.68	14549.45
549.88	14600.65
550.08	14150.1
550.28	14293.46
550.48	13967.83
550.68	13756.89
550.88	13541.85
551.08	13154.79
551.279	13259.23
551.479	12863.97
551.679	12800.49
551.879	12823.01
552.079	12407.28
552.278	12286.45
552.478	12079.6
552.678	11891.19
552.878	11905.52
553.077	11473.4
553.277	11055.62
553.477	11098.63
553.676	11065.86
553.876	10893.83
554.076	10777.09
554.275	10725.89
554.475	10097.17
554.674	10080.78
554.874	9974.29
555.074	9787.93
555.273	9775.64
555.473	9638.42
555.672	9566.74
555.872	9255.45
556.071	9021.98
556.271	9134.62
556.47	8923.68
556.67	8718.89
556.869	8450.6
557.068	8530.47
557.268	8145.45
557.467	8129.07
557.667	8063.54
557.866	7748.15
558.065	7664.18
558.265	7567.93
558.464	7443
558.663	7486.01
558.863	7211.58
559.062	7195.2
559.261	6939.2
559.461	6890.05
559.66	6728.26
559.859	6515.27
560.058	6615.62
560.258	6347.34
560.457	6568.52
560.656	6474.31
560.855	6038.09
561.054	6226.51
561.253	5884.5
561.453	5913.17
561.652	5689.94
561.851	5763.67
562.05	5532.25
562.249	5632.6
562.448	5530.2
562.647	5218.91
562.846	5302.87
563.045	5313.11
563.244	5112.41
563.443	5112.41
563.642	4872.8
563.841	4921.95
564.04	4809.31
564.239	4868.7
564.438	4543.08
564.637	4622.95
564.836	4637.28
565.035	4538.98
565.234	4491.88
565.432	4354.66
565.631	4467.3
565.83	4383.34
566.029	4207.21
566.228	4057.71
566.427	4166.25
566.625	3814
566.824	3940.97
567.023	3889.78
567.222	3822.19
567.42	3783.28
567.619	3701.36
567.818	3611.25
568.016	3680.88
568.215	3601.01
568.414	3701.36
568.612	3607.16
568.811	3467.89
569.01	3394.17
569.208	3240.57
569.407	3396.21
569.605	3248.76
569.804	3136.12
570.002	3207.8
570.201	3148.41
570.4	3146.36
570.598	3105.4
570.797	2984.57
570.995	2939.52
571.193	2806.4
571.392	2845.31
571.59	2726.53
571.789	2785.92
571.987	2820.74
572.186	2712.19
572.384	2708.1
572.582	2660.99
572.781	2577.03
572.979	2454.15
573.177	2419.33
573.376	2509.44
573.574	2460.29
573.772	2380.42
573.971	2255.5
574.169	2316.94
574.367	2302.6
574.565	2161.29
574.763	2118.28
574.962	2230.92
575.16	2192.01
575.358	2034.32
575.556	2003.6
575.754	2042.51
575.952	2036.36
576.151	1950.35
576.349	2046.6
576.547	1800.85
576.745	1839.76
576.943	1950.35
577.141	1669.78
577.339	1809.04
577.537	1749.65
577.735	1780.37
577.933	1733.26
578.131	1610.39
578.329	1870.48
578.527	1614.48
578.725	1772.18
578.923	1510.04
579.121	1563.28
579.319	1358.49
579.516	1507.99
579.714	1620.63
579.912	1432.21
580.11	1374.87
580.308	1438.36
580.506	1358.49
580.704	1292.95
580.901	1280.66
581.099	1450.64
581.297	1315.48
581.495	1251.99
581.692	1266.33
581.89	1428.12
582.088	1327.77
582.285	1276.57
582.483	1239.7
582.681	1143.45
582.878	1180.31
583.076	1153.69
583.274	1204.89
583.471	1295
583.669	987.8
583.866	1055.39
584.064	1059.48
584.262	920.22
584.459	942.75
584.657	1053.34
584.854	1122.97
585.052	981.66
585.249	1163.93
585.447	1108.63
585.644	817.82
585.841	942.75
586.039	1028.76
586.236	979.61
586.434	889.5
586.631	897.69
586.828	850.59
587.026	909.98
587.223	774.81
587.42	674.46
587.618	844.45
587.815	901.79
588.012	848.54
588.21	858.78
588.407	866.97
588.604	811.68
588.801	807.58
588.999	881.31
589.196	893.6
589.393	735.9
589.59	846.49
589.787	897.69
589.984	809.63
590.182	754.34
590.379	694.94
590.576	725.66
590.773	670.37
590.97	676.51
591.167	785.05
591.364	672.42
591.561	672.42
591.758	909.98
591.955	678.56
592.152	795.29
592.349	619.17
592.546	678.56
592.743	629.41
592.94	705.18
593.137	754.34
593.334	797.34
593.531	756.38
593.727	713.38
593.924	766.62
594.121	694.94
594.318	637.6
594.515	733.86
594.712	848.54
594.908	805.53
595.105	588.45
595.302	754.34
595.499	791.2
595.696	895.64
595.892	719.52
596.089	854.69
596.286	662.18
596.482	826.01
596.679	750.24
596.876	879.26
597.072	877.21
597.269	914.08
597.466	926.36
597.662	1002.14
597.859	907.93
598.055	1067.67
598.252	973.47
598.448	1075.87
598.645	998.04
598.841	1114.78
599.038	1243.8
599.234	1292.95
599.431	1188.5
599.627	1303.19
599.824	1237.66
600.02	1317.53
600.217	1317.53
600.413	1522.32
600.609	1462.93
600.806	1829.52
601.002	1735.31
601.198	1682.06
601.395	1841.81
601.591	1727.12
601.787	1843.85
601.984	2007.69
602.18	2034.32
602.376	1972.88
602.572	2155.15
602.769	2265.74
602.965	2259.59
603.161	2443.91
603.357	2456.2
603.553	2609.79
603.75	2667.14
603.946	2699.91
604.142	2828.93
604.338	3003
604.534	2837.12
604.73	3119.74
604.926	3140.22
605.122	3357.3
605.318	3334.78
605.514	3437.17
605.71	3541.62
605.906	3654.26
606.102	3785.33
606.298	4080.24
606.494	4026.99
606.69	4317.8
606.886	4268.65
607.082	4377.19
607.278	4379.24
607.474	4561.51
607.67	4831.84
607.866	4653.67
608.062	5042.78
608.257	5024.35
608.453	5114.46
608.649	5438.04
608.845	5470.81
609.041	5638.74
609.236	5861.97
609.432	5782.1
609.628	6373.96
609.824	6263.37
610.019	6560.33
610.215	6679.11
610.411	6853.19
610.606	7152.19
610.802	7207.48
610.998	7488.06
611.193	7612.98
611.389	7719.48
611.584	7881.27
611.78	8231.47
611.976	8163.89
612.171	8862.24
612.367	8835.62
612.562	8870.44
612.758	9210.4
612.953	9331.23
613.149	9904.66
613.344	10033.68
613.539	10291.73
613.735	10678.79
613.93	10967.56
614.126	10992.13
614.321	11536.89
614.517	11698.68
614.712	11938.29
614.907	12163.57
615.103	12659.18
615.298	12818.92
615.493	13248.99
615.688	13056.48
615.884	14217.68
616.079	14279.12
616.274	14520.78
616.47	14899.66
616.665	15165.89
616.86	15436.22
617.055	16083.38
617.25	16505.26
617.445	17146.28
617.641	16939.43
617.836	17756.57
618.031	17885.59
618.226	18563.47
618.421	18796.94
618.616	19366.28
618.811	19741.05
619.006	20402.55
619.201	20625.78
619.396	21135.72
619.591	21426.53
619.786	22165.85
619.981	22296.92
620.176	23271.75
620.371	23124.3
620.566	23826.75
620.761	24475.96
620.956	25059.63
621.151	25119.02
621.346	26237.21
621.541	26153.24
621.735	27281.67
621.93	26974.48
622.125	27779.33
622.32	27902.21
622.515	28903.67
622.709	29026.54
622.904	29704.42
623.099	30437.59
623.294	31074.51
623.488	31041.74
623.683	31979.71
623.878	31938.76
624.072	32725.18
624.267	33648.81
624.462	33650.86
624.656	34199.71
624.851	35092.63
625.046	35166.35
625.24	36003.97
625.435	36085.89
625.629	36386.94
625.824	37208.18
626.018	37920.87
626.213	37386.35
626.407	38815.83
626.602	38830.17
626.796	39489.62
626.991	39678.03
627.185	39903.31
627.38	39829.58
627.574	40505.41
627.768	40650.81
627.963	40863.8
628.157	41183.29
628.352	41252.92
628.546	40548.42
628.74	41101.37
628.935	40955.96
629.129	41252.92
629.323	40171.59
629.517	40587.33
629.712	40241.22
629.906	40378.43
630.1	39432.27
630.294	39731.28
630.489	38901.85
630.683	38856.79
630.877	37484.65
631.071	37150.84
631.265	37005.43
631.459	35842.18
631.653	34834.58
631.848	34431.13
632.042	33284.27
632.236	32954.55
632.43	32256.19
632.624	31531.21
632.818	30292.19
633.012	29155.57
633.206	28393.72
633.4	27695.36
633.594	26407.19
633.788	25696.55
633.982	24992.05
634.176	24303.93
634.369	22911.31
634.563	22423.89
634.757	21191.02
634.951	20775.28
635.145	19847.55
635.339	19136.9
635.533	18315.67
635.726	17691.04
635.92	16546.22
636.114	16200.12
636.308	15630.78
636.501	14827.98
636.695	14418.38
636.889	13615.58
637.083	13210.08
637.276	12650.99
637.47	12014.07
637.664	11631.1
637.857	11090.43
638.051	10711.56
638.244	10334.73
638.438	9855.51
638.632	9648.66
638.825	8942.11
639.019	8821.28
639.212	8421.93
639.406	8057.39
639.599	7547.45
639.793	7508.54
639.986	7223.87
640.18	6963.78
640.373	6552.13
640.567	6222.41
640.76	6142.54
640.954	5872.21
641.147	5468.76
641.34	5505.62
641.534	5245.53
641.727	5136.99
641.92	4713.06
642.114	4645.48
642.307	4543.08
642.5	4471.4
642.694	4067.95
642.887	4012.65
643.08	3850.86
643.273	3742.32
643.467	3576.44
643.66	3385.97
643.853	3336.82
644.046	3244.67
644.239	3105.4
644.432	2896.51
644.626	2679.43
644.819	2605.7
645.012	2677.38
645.205	2585.22
645.398	2525.83
645.591	2347.65
645.784	2181.77
645.977	2185.87
646.17	1956.49
646.363	1954.44
646.556	1796.75
646.749	1768.08
646.942	1737.36
647.135	1862.29
647.328	1591.95
647.521	1630.87
647.714	1585.81
647.907	1387.16
648.099	1358.49
648.292	1354.39
648.485	1360.53
648.678	1239.7
648.871	1145.5
649.064	1170.07
649.256	1067.67
649.449	1102.49
649.642	975.52
649.835	983.71
650.027	934.56
650.22	1069.72
650.413	912.03
650.605	887.45
650.798	852.64
650.991	733.86
651.183	842.4
651.376	854.69
651.568	746.14
651.761	676.51
651.954	797.34
652.146	627.36
652.339	692.9
652.531	731.81
652.724	490.15
652.916	656.03
653.109	436.9
653.301	688.8
653.494	670.37
653.686	574.11
653.879	680.61
654.071	615.07
654.263	504.48
654.456	436.9
654.648	522.91
654.84	541.35
655.033	371.36
655.225	537.25
655.417	285.35
655.61	582.31
655.802	434.85
655.994	531.11
656.186	416.42
656.379	451.24
656.571	428.71
656.763	346.79
656.955	320.17
657.148	271.01
657.34	473.76
657.532	326.31
657.724	361.13
657.916	391.84
658.108	334.5
658.3	393.89
658.492	332.45
658.684	299.69
658.876	336.55
659.068	287.4
659.26	283.3
659.452	273.06
659.644	287.4
659.836	387.75
660.028	320.17
660.22	295.59
660.412	234.15
660.604	289.45
660.796	301.73
660.988	361.13
661.18	264.87
661.372	293.54
661.563	209.58
661.755	324.26
661.947	162.47
662.139	144.04
662.331	273.06
662.522	250.53
662.714	160.42
662.906	223.91
663.097	209.58
663.289	148.14
663.481	109.22
663.673	346.79
663.864	170.66
664.056	289.45
664.247	123.56
664.439	260.77
664.631	254.63
664.822	252.58
665.014	217.77
665.205	172.71
665.397	152.23
665.588	219.82
665.78	236.2
665.971	281.25
666.163	205.48
666.354	238.25
666.546	164.52
666.737	219.82
666.929	80.55
667.12	168.62
667.311	168.62
667.503	193.19
667.694	236.2
667.885	236.2
668.077	307.88
668.268	76.46
668.459	236.2
668.651	191.14
668.842	260.77
669.033	176.81
669.224	141.99
669.416	361.13
669.607	215.72
669.798	166.57
669.989	293.54
670.18	129.7
670.371	240.29
670.563	76.46
670.754	320.17
670.945	244.39
671.136	197.29
671.327	185
671.518	295.59
671.709	330.41
671.9	242.34
672.091	375.46
672.282	209.58
672.473	244.39
672.664	80.55
672.855	336.55
673.046	289.45
673.237	279.21
673.428	234.15
673.619	320.17
673.809	236.2
674	334.5
674.191	295.59
674.382	248.49
674.573	281.25
674.764	201.38
674.954	305.83
675.145	221.86
675.336	254.63
675.527	279.21
675.717	172.71
675.908	268.97
676.099	207.53
676.289	332.45
676.48	178.86
676.671	314.02
676.861	193.19
677.052	361.13
677.243	295.59
677.433	219.82
677.624	385.7
677.814	291.49
678.005	271.01
678.195	426.66
678.386	238.25
678.576	340.65
678.767	172.71
678.957	311.97
679.148	314.02
679.338	479.91
679.529	316.07
679.719	287.4
679.909	424.61
680.1	391.84
680.29	387.75
680.481	322.21
680.671	389.8
680.861	277.16
681.052	408.23
681.242	277.16
681.432	348.84
681.622	367.27
681.813	285.35
682.003	326.31
682.193	283.3
682.383	357.03
682.573	400.04
682.764	387.75
682.954	424.61
683.144	457.38
683.334	373.41
683.524	344.74
683.714	463.52
683.904	299.69
684.094	357.03
684.284	443.04
684.474	467.62
684.664	359.08
684.854	428.71
685.044	436.9
685.234	383.65
685.424	484
685.614	346.79
685.804	586.4
685.994	459.43
686.184	375.46
686.374	430.76
686.564	393.89
686.753	379.56
686.943	256.68
687.133	375.46
687.323	416.42
687.513	385.7
687.702	516.77
687.892	342.69
688.082	514.72
688.272	484
688.461	412.32
688.651	469.67
688.841	445.09
689.03	346.79
689.22	410.28
689.41	455.33
689.599	393.89
689.789	336.55
689.979	471.72
690.168	281.25
690.358	436.9
690.547	354.98
690.737	459.43
690.926	406.18
691.116	406.18
691.305	334.5
691.495	432.8
691.684	307.88
691.874	266.92
692.063	332.45
692.252	371.36
692.442	357.03
692.631	387.75
692.82	369.32
693.01	354.98
693.199	359.08
693.388	459.43
693.578	395.94
693.767	365.22
693.956	434.85
694.146	342.69
694.335	365.22
694.524	361.13
694.713	387.75
694.902	248.49
695.092	332.45
695.281	377.51
695.47	400.04
695.659	328.36
695.848	377.51
696.037	336.55
696.226	363.17
696.415	365.22
696.604	402.08
696.793	326.31
696.982	328.36
697.171	414.37
697.36	242.34
697.549	289.45
697.738	195.24
697.927	236.2
698.116	277.16
698.305	375.46
698.494	348.84
698.683	322.21
698.872	428.71
699.061	340.65
699.25	299.69
699.438	326.31
699.627	232.1
699.816	451.24
700.005	305.83
700.193	352.93
700.382	320.17
700.571	314.02
700.76	285.35
700.948	455.33
701.137	350.89
701.326	371.36
701.514	359.08
701.703	389.8
701.892	311.97
702.08	447.14
702.269	279.21
702.457	287.4
702.646	357.03
702.834	316.07
703.023	322.21
703.212	316.07
703.4	340.65
703.589	271.01
703.777	283.3
703.965	244.39
704.154	330.41
704.342	285.35
704.531	262.82
704.719	359.08
704.907	473.76
705.096	277.16
705.284	268.97
705.472	320.17
705.661	275.11
705.849	307.88
706.037	391.84
706.226	359.08
706.414	381.6
706.602	324.26
706.79	301.73
706.979	250.53
707.167	334.5
707.355	266.92
707.543	365.22
707.731	344.74
707.919	334.5
708.107	254.63
708.296	260.77
708.484	273.06
708.672	287.4
708.86	340.65
709.048	311.97
709.236	275.11
709.424	352.93
709.612	340.65
709.8	236.2
709.988	244.39
710.176	316.07
710.364	404.13
710.551	326.31
710.739	342.69
710.927	277.16
711.115	252.58
711.303	363.17
711.491	389.8
711.679	289.45
711.866	404.13
712.054	336.55
712.242	271.01
712.43	352.93
712.617	248.49
712.805	324.26
712.993	352.93
713.181	217.77
713.368	377.51
713.556	238.25
713.744	283.3
713.931	492.2
714.119	318.12
714.306	291.49
714.494	318.12
714.682	338.6
714.869	264.87
715.057	283.3
715.244	238.25
715.432	395.94
715.619	316.07
715.807	334.5
715.994	305.83
716.182	354.98
716.369	434.85
716.556	338.6
716.744	185
716.931	260.77
717.119	420.52
717.306	326.31
717.493	334.5
717.681	320.17
717.868	236.2
718.055	391.84
718.242	291.49
718.43	354.98
718.617	346.79
718.804	234.15
718.991	410.28
719.179	414.37
719.366	406.18
719.553	449.19
719.74	277.16
719.927	299.69
720.114	381.6
720.301	316.07
720.488	324.26
720.676	301.73
720.863	422.56
721.05	514.72
721.237	397.99
721.424	365.22
721.611	354.98
721.798	254.63
721.985	338.6
722.172	404.13
722.358	332.45
722.545	426.66
722.732	350.89
722.919	428.71
723.106	330.41
723.293	299.69
723.48	410.28
723.667	363.17
723.853	361.13
724.04	367.27
724.227	395.94
724.414	336.55
724.6	414.37
724.787	410.28
724.974	524.96
725.161	365.22
725.347	211.62
725.534	340.65
725.72	400.04
725.907	445.09
726.094	436.9
726.28	326.31
726.467	271.01
726.653	273.06
726.84	434.85
727.027	494.24
727.213	328.36
727.4	348.84
727.586	404.13
727.773	377.51
727.959	348.84
728.145	338.6
728.332	381.6
728.518	395.94
728.705	326.31
728.891	377.51
729.077	400.04
729.264	324.26
729.45	285.35
729.636	338.6
729.823	320.17
730.009	406.18
730.195	494.24
730.382	420.52
730.568	336.55
730.754	445.09
730.94	326.31
731.126	400.04
731.313	430.76
731.499	432.8
731.685	416.42
731.871	395.94
732.057	363.17
732.243	471.72
732.429	395.94
732.615	543.39
732.801	461.48
732.987	369.32
733.173	383.65
733.359	299.69
733.545	543.39
733.731	397.99
733.917	463.52
734.103	361.13
734.289	459.43
734.475	309.93
734.661	567.97
734.847	432.8
735.033	451.24
735.219	475.81
735.404	330.41
735.59	354.98
735.776	391.84
735.962	402.08
736.148	555.68
736.333	486.05
736.519	430.76
736.705	404.13
736.89	369.32
737.076	412.32
737.262	393.89
737.447	334.5
737.633	346.79
737.819	545.44
738.004	465.57
738.19	375.46
738.375	395.94
738.561	475.81
738.747	408.23
738.932	352.93
739.118	512.67
739.303	457.38
739.489	342.69
739.674	418.47
739.859	285.35
740.045	453.28
740.23	479.91
740.416	314.02
740.601	432.8
740.786	438.95
740.972	375.46
741.157	414.37
741.342	359.08
741.528	357.03
741.713	426.66
741.898	340.65
742.084	479.91
742.269	375.46
742.454	455.33
742.639	484
742.824	332.45
743.01	504.48
743.195	500.39
743.38	379.56
743.565	406.18
743.75	445.09
743.935	381.6
744.12	447.14
744.305	342.69
744.49	359.08
744.675	328.36
744.86	328.36
745.045	473.76
745.23	391.84
745.415	406.18
745.6	547.49
745.785	348.84
745.97	428.71
746.155	443.04
746.34	400.04
746.525	373.41
746.71	506.53
746.895	293.54
747.079	275.11
747.264	332.45
747.449	371.36
747.634	502.43
747.819	303.78
748.003	354.98
748.188	228.01
748.373	352.93
748.557	361.13
748.742	359.08
748.927	336.55
749.111	326.31
749.296	371.36
749.481	400.04
749.665	377.51
749.85	340.65
750.034	387.75
750.219	299.69
750.404	268.97
750.588	342.69
750.773	314.02
750.957	258.73
751.141	262.82
751.326	332.45
751.51	215.72
751.695	262.82
751.879	301.73
752.064	479.91
752.248	330.41
752.432	479.91
752.617	346.79
752.801	348.84
752.985	326.31
753.17	377.51
753.354	336.55
753.538	293.54
753.722	297.64
753.907	197.29
754.091	221.86
754.275	285.35
754.459	232.1
754.643	299.69
754.828	348.84
755.012	318.12
755.196	203.43
755.38	258.73
755.564	277.16
755.748	203.43
755.932	322.21
756.116	246.44
756.3	271.01
756.484	330.41
756.668	266.92
756.852	156.33
757.036	215.72
757.22	187.05
757.404	215.72
757.588	174.76
757.772	217.77
757.956	180.9
758.14	328.36
758.323	203.43
758.507	268.97
758.691	195.24
758.875	250.53
759.059	318.12
759.242	158.38
759.426	213.67
759.61	305.83
759.794	139.94
759.977	236.2
760.161	459.43
760.345	297.64
760.528	273.06
760.712	203.43
760.895	205.48
761.079	201.38
761.263	146.09
761.446	205.48
761.63	156.33
761.813	340.65
761.997	12.97
762.18	260.77
762.364	295.59
762.547	35.5
762.731	144.04
762.914	215.72
763.098	82.6
763.281	172.71
763.464	113.32
763.648	180.9
763.831	201.38
764.015	125.61
764.198	252.58
764.381	187.05
764.564	156.33
764.748	162.47
764.931	207.53
765.114	168.62
765.297	205.48
765.481	127.66
765.664	168.62
765.847	107.18
766.03	250.53
766.213	96.94
766.397	199.34
766.58	123.56
766.763	219.82
766.946	135.85
767.129	168.62
767.312	103.08
767.495	82.6
767.678	162.47
767.861	141.99
768.044	139.94
768.227	72.36
768.41	121.51
768.593	174.76
768.776	74.41
768.959	25.26
769.142	180.9
769.324	131.75
769.507	150.18
769.69	76.46
769.873	127.66
770.056	295.59
770.239	174.76
770.421	152.23
770.604	164.52
770.787	131.75
770.97	150.18
771.152	41.64
771.335	154.28
771.518	80.55
771.7	158.38
771.883	324.26
772.066	105.13
772.248	232.1
772.431	162.47
772.613	197.29
772.796	205.48
772.978	154.28
773.161	240.29
773.343	4.78
773.526	139.94
773.708	68.27
773.891	2.73
774.073	146.09
774.256	105.13
774.438	250.53
774.621	117.42
774.803	117.42
774.985	66.22
775.168	193.19
775.35	174.76
775.532	178.86
775.715	125.61
775.897	164.52
776.079	94.89
776.261	152.23
776.444	66.22
776.626	174.76
776.808	121.51
776.99	12.97
777.173	129.7
777.355	60.07
777.537	125.61
777.719	133.8
777.901	35.5
778.083	31.4
778.265	98.99
778.447	117.42
778.629	146.09
778.811	90.79
778.993	55.98
779.175	158.38
779.357	154.28
779.539	72.36
779.721	76.46
779.903	150.18
780.085	150.18
780.267	154.28
780.449	68.27
780.631	76.46
780.812	156.33
780.994	80.55
781.176	43.69
781.358	64.17
781.54	33.45
781.721	86.7
781.903	199.34
782.085	107.18
782.267	139.94
782.448	-34.13
782.63	35.5
782.812	117.42
782.993	115.37
783.175	137.9
783.357	74.41
783.538	101.03
783.72	27.31
783.901	66.22
784.083	76.46
784.264	127.66
784.446	10.92
784.627	66.22
784.809	94.89
784.99	58.03
785.172	111.27
785.353	80.55
785.535	109.22
785.716	-21.85
785.897	86.7
786.079	12.97
786.26	41.64
786.441	41.64
786.623	-48.47
786.804	27.31
786.985	127.66
787.167	23.21
787.348	39.59
787.529	31.4
787.71	193.19
787.891	96.94
788.073	49.83
788.254	-13.65
788.435	209.58
788.616	68.27
788.797	-3.41
788.978	-19.8
789.159	43.69
789.34	137.9
789.522	74.41
789.703	66.22
789.884	137.9
790.065	111.27
790.246	125.61
790.427	76.46
790.607	197.29
790.788	137.9
790.969	4.78
791.15	53.93
791.331	23.21
791.512	60.07
791.693	88.75
791.874	51.88
792.054	154.28
792.235	94.89
792.416	10.92
792.597	0.68
792.778	51.88
792.958	55.98
793.139	109.22
793.32	43.69
793.5	-13.65
793.681	160.42
793.862	88.75
794.042	78.51
794.223	27.31
794.404	39.59
794.584	-73.04
794.765	19.11
794.945	86.7
795.126	43.69
795.306	123.56
795.487	78.51
795.667	62.12
795.848	-19.8
796.028	-3.41
796.209	70.31
796.389	162.47
796.57	39.59
796.75	-42.32
796.93	8.87
797.111	31.4
797.291	-71
797.471	197.29
797.652	-5.46
797.832	4.78
798.012	29.35
798.192	-32.08
798.373	-71
798.553	37.55
798.733	82.6
798.913	41.64
799.093	-13.65
799.274	45.74
799.454	86.7
799.634	35.5
799.814	45.74
799.994	96.94
800.174	68.27
800.354	15.02
800.534	-1.37
800.714	105.13
800.894	-9.56
801.074	-7.51
801.254	6.83
801.434	187.05
801.614	-42.32
801.794	-15.7
801.974	1741.46
802.154	17.07
802.334	152.23
802.514	-34.13
802.693	-38.23
802.873	-15.7
803.053	66.22
803.233	141.99
803.413	12.97
803.592	-19.8
803.772	8.87
803.952	123.56
804.131	35.5
804.311	101.03
804.491	137.9
804.67	-21.85
804.85	-15.7
805.03	107.18
805.209	121.51
805.389	-25.94
805.568	17.07
805.748	35.5
805.928	35.5
806.107	107.18
806.287	74.41
806.466	62.12
806.646	-44.37
806.825	19.11
807.004	37.55
807.184	-13.65
807.363	105.13
807.543	58.03
807.722	-38.23
807.901	78.51
808.081	53.93
808.26	-71
808.439	-9.56
808.619	4.78
808.798	55.98
808.977	64.17
809.156	123.56
809.336	62.12
809.515	49.83
809.694	-11.61
809.873	58.03
810.052	51.88
810.231	148.14
810.411	80.55
810.59	25.26
810.769	6.83
810.948	92.84
811.127	-95.57
811.306	64.17
811.485	23.21
811.664	193.19
811.843	41.64
812.022	2.73
812.201	29.35
812.38	29.35
812.559	-27.99
812.737	60.07
812.916	-34.13
813.095	-9.56
813.274	15.02
813.453	62.12
813.632	74.41
813.811	70.31
813.989	-83.28
814.168	39.59
814.347	-40.28
814.526	35.5
814.704	164.52
814.883	113.32
815.062	-42.32
815.24	146.09
815.419	-30.04
815.598	19.11
815.776	-89.43
815.955	43.69
816.133	-48.47
816.312	10.92
816.49	-25.94
816.669	29.35
816.847	-17.75
817.026	-13.65
817.204	41.64
817.383	-48.47
817.561	-46.42
817.74	62.12
817.918	107.18
818.097	33.45
818.275	-25.94
818.453	64.17
818.632	70.31
818.81	-25.94
818.988	19.11
819.167	-38.23
819.345	23.21
819.523	-60.76
819.701	31.4
819.879	78.51
820.058	39.59
820.236	15.02
820.414	39.59
820.592	19.11
820.77	78.51
820.948	37.55
821.127	-21.85
821.305	21.16
821.483	-38.23
821.661	78.51
821.839	-17.75
822.017	-64.85
822.195	-13.65
822.373	115.37
822.551	25.26
822.729	109.22
822.907	37.55
823.085	4.78
823.262	64.17
823.44	60.07
823.618	-9.56
823.796	66.22
823.974	-1.37
824.152	-95.57
824.329	-11.61
824.507	31.4
824.685	-21.85
824.863	-25.94
825.04	53.93
825.218	23.21
825.396	-7.51
825.574	33.45
825.751	74.41
825.929	27.31
826.107	-66.9
826.284	8.87
826.462	-30.04
826.639	-83.28
826.817	-48.47
826.994	47.79
827.172	-13.65
827.349	68.27
827.527	-9.56
827.704	23.21
827.882	55.98
828.059	27.31
828.237	0.68
828.414	12.97
828.591	-75.09
828.769	31.4
828.946	-25.94
829.124	45.74
829.301	60.07
829.478	17.07
829.655	78.51
829.833	-60.76
830.01	-71
830.187	74.41
830.364	33.45
830.542	39.59
830.719	135.85
830.896	33.45
831.073	39.59
831.25	43.69
831.427	47.79
831.604	-9.56
831.782	-56.66
831.959	8.87
832.136	-3.41
832.313	96.94
832.49	-71
832.667	33.45
832.844	51.88
833.021	115.37
833.198	17.07
833.374	78.51
833.551	-38.23
833.728	-75.09
833.905	60.07
834.082	-163.15
834.259	94.89
834.436	90.79
834.612	-27.99
834.789	-23.89
834.966	-56.66
835.143	-46.42
835.319	-11.61
835.496	90.79
835.673	31.4
835.85	70.31
836.026	107.18
836.203	66.22
836.38	17.07
836.556	-3.41
836.733	-85.33
836.909	182.95
837.086	15.02
837.262	-58.71
837.439	41.64
837.616	-44.37
837.792	-79.19
837.968	-25.94
838.145	-118.1
838.321	45.74
838.498	84.65
838.674	51.88
838.851	86.7
839.027	31.4
839.203	43.69
839.38	62.12
839.556	-23.89
839.732	115.37
839.909	-42.32
840.085	53.93
840.261	-91.48
840.437	49.83
840.614	51.88
840.79	96.94
840.966	27.31
841.142	51.88
841.318	-75.09
841.494	49.83
841.671	125.61
841.847	19.11
842.023	-15.7
842.199	55.98
842.375	76.46
842.551	-124.24
842.727	-52.56
842.903	139.94
843.079	-52.56
843.255	-13.65
843.431	29.35
843.607	76.46
843.783	-54.61
843.959	70.31
844.134	-46.42
844.31	80.55
844.486	-17.75
844.662	-1.37
844.838	-9.56
845.013	37.55
845.189	60.07
845.365	-1.37
845.541	0.68
845.716	41.64
845.892	129.7
846.068	-11.61
846.244	33.45
846.419	15.02
846.595	-109.91
846.77	-122.2
846.946	98.99
847.122	-68.95
847.297	-46.42
847.473	111.27
847.648	-68.95
847.824	53.93
847.999	-56.66
848.175	35.5
848.35	39.59
848.526	135.85
848.701	105.13
848.876	62.12
849.052	182.95
849.227	-36.18
849.403	-32.08
849.578	70.31
849.753	-32.08
849.929	88.75
850.104	-77.14
850.279	37.55
850.454	55.98
850.63	109.22
850.805	-1.37
850.98	12.97
851.155	-9.56
851.33	60.07
851.505	-87.38
851.681	160.42
851.856	-21.85
852.031	55.98
852.206	-25.94
852.381	-118.1
852.556	12.97
852.731	92.84
852.906	127.66
853.081	90.79
853.256	150.18
853.431	66.22
853.606	-83.28
853.781	-93.52
853.956	-138.58
854.131	47.79
854.305	-107.86
854.48	51.88
854.655	-66.9
854.83	-93.52
855.005	60.07
855.18	39.59
855.354	6.83
855.529	21.16
855.704	8.87
855.879	60.07
856.053	-83.28
856.228	41.64
856.403	-95.57
856.577	72.36
856.752	-42.32
856.926	88.75
857.101	33.45
857.276	-25.94
857.45	-36.18
857.625	23.21
857.799	-40.28
857.974	35.5
858.148	-52.56
858.323	43.69
858.497	2.73
858.672	-25.94
858.846	-44.37
859.02	119.46
859.195	-60.76
859.369	-34.13
859.543	-52.56
859.718	29.35
859.892	49.83
860.066	15.02
860.241	19.11
860.415	25.26
860.589	-19.8
860.763	31.4
860.938	-7.51
861.112	84.65
861.286	-9.56
861.46	78.51
861.634	-5.46
861.808	111.27
861.982	-36.18
862.157	-68.95
862.331	12.97
862.505	21.16
862.679	-75.09
862.853	-11.61
863.027	-48.47
863.201	113.32
863.375	-60.76
863.549	6.83
863.722	33.45
863.896	35.5
864.07	-40.28
864.244	-36.18
864.418	37.55
864.592	15.02
864.766	39.59
864.939	-11.61
865.113	-27.99
865.287	96.94
865.461	-83.28
865.634	29.35
865.808	-56.66
865.982	-36.18
866.156	-48.47
866.329	-99.67
866.503	33.45
866.676	72.36
866.85	80.55
867.024	-68.95
867.197	-13.65
867.371	101.03
867.544	-9.56
867.718	-109.91
867.891	82.6
868.065	-79.19
868.238	-3.41
868.412	86.7
868.585	39.59
868.759	-48.47
868.932	-25.94
869.105	-130.39
869.279	-19.8
869.452	-32.08
869.625	43.69
869.799	-15.7
869.972	-25.94
870.145	-60.76
870.319	141.99
870.492	64.17
870.665	-25.94
870.838	-9.56
871.011	-126.29
871.185	45.74
871.358	0.68
871.531	47.79
871.704	-19.8
871.877	10.92
872.05	60.07
872.223	-85.33
872.396	-27.99
872.569	6.83
872.742	-124.24
872.915	-21.85
873.088	-19.8
873.261	-50.52
873.434	62.12
873.607	43.69
873.78	107.18
873.953	-68.95
874.126	10.92
874.299	-15.7
874.471	-15.7
874.644	33.45
874.817	119.46
874.99	180.9
875.163	-40.28
875.335	43.69
875.508	-48.47
875.681	66.22
875.853	-75.09
876.026	8.87
876.199	53.93
876.371	-64.85
876.544	-17.75
876.717	25.26
876.889	25.26
877.062	23.21
877.234	-48.47
877.407	-48.47
877.579	76.46
877.752	12.97
877.924	74.41
878.097	62.12
878.269	-11.61
878.442	33.45
878.614	47.79
878.786	-3.41
878.959	33.45
879.131	-7.51
879.303	-62.8
879.476	-11.61
879.648	82.6
879.82	21.16
879.993	-48.47
880.165	-3.41
880.337	-27.99
880.509	23.21
880.681	-124.24
880.854	2.73
881.026	70.31
881.198	105.13
881.37	10.92
881.542	-54.61
881.714	-17.75
881.886	-64.85
882.058	12.97
882.23	10.92
882.402	-34.13
882.574	68.27
882.746	80.55
882.918	119.46
883.09	4.78
883.262	33.45
883.434	55.98
883.606	-85.33
883.778	-9.56
883.95	139.94
884.122	-58.71
884.293	47.79
884.465	-15.7
884.637	23.21
884.809	-38.23
884.98	58.03
885.152	70.31
885.324	8.87
885.496	-83.28
885.667	-68.95
885.839	-60.76
886.011	133.8
886.182	27.31
886.354	47.79
886.525	-19.8
886.697	-32.08
886.869	-109.91
887.04	-122.2
887.212	123.56
887.383	148.14
887.555	2.73
887.726	-30.04
887.897	8.87
888.069	31.4
888.24	64.17
888.412	-71
888.583	12.97
888.754	-15.7
888.926	-91.48
889.097	-11.61
889.268	-111.96
889.44	-48.47
889.611	-105.81
889.782	-87.38
889.953	-58.71
890.125	35.5
890.296	8.87
890.467	-44.37
890.638	-34.13
890.809	-1.37
890.98	45.74
891.151	64.17
891.323	115.37
891.494	4.78
891.665	-58.71
891.836	33.45
892.007	-25.94
892.178	0.68
892.349	49.83
892.52	-25.94
892.691	15.02
892.862	-23.89
893.032	-68.95
893.203	2.73
893.374	-71
893.545	141.99
893.716	-73.04
893.887	166.57
894.057	-38.23
894.228	-17.75
894.399	-25.94
894.57	64.17
894.74	-13.65
894.911	64.17
895.082	51.88
895.253	-5.46
895.423	-66.9
895.594	80.55
895.764	43.69
895.935	-30.04
896.106	47.79
896.276	-44.37
896.447	-27.99
896.617	-46.42
896.788	-34.13
896.958	-19.8
897.129	4.78
897.299	-40.28
897.47	96.94
897.64	74.41
897.81	-13.65
897.981	12.97
898.151	-111.96
898.322	19.11
898.492	62.12
898.662	-42.32
898.832	43.69
899.003	-11.61
899.173	45.74
899.343	-30.04
899.513	-62.8
