Data from USB4F104151__39__10-42-49-580.txt Node

Date: Wed Feb 26 10:42:49 EST 2025
User: louis
Spectrometer: USB4F10415
Trigger mode: 4
Integration Time (sec): 1.000000E-1
Scans to average: 1
Electric dark correction enabled: true
Nonlinearity correction enabled: false
Boxcar width: 0
XAxis mode: Wavelengths
Number of Pixels in Spectrum: 3648
>>>>>Begin Spectral Data<<<<<
178.204	-394.92
178.424	-394.92
178.644	-394.92
178.864	-411.3
179.084	-431.78
179.304	29.01
179.524	-22.19
179.744	0.34
179.964	20.82
180.184	-50.86
180.404	18.77
180.624	-1.71
180.844	47.44
181.064	-50.86
181.283	8.53
181.503	-22.19
181.723	22.87
181.943	6.49
182.163	158.03
182.383	-26.28
182.602	12.63
182.822	74.07
183.042	80.21
183.262	-40.62
183.482	-32.43
183.701	31.06
183.921	-34.47
184.141	22.87
184.361	86.36
184.58	88.4
184.8	63.83
185.02	-34.47
185.239	84.31
185.459	51.54
185.679	201.04
185.898	-118.44
186.118	57.68
186.338	-26.28
186.557	49.49
186.777	12.63
186.997	-30.38
187.216	26.96
187.436	196.95
187.655	29.01
187.875	90.45
188.095	-52.91
188.314	123.22
188.534	131.41
188.753	-20.14
188.973	104.79
189.192	221.52
189.412	63.83
189.631	67.92
189.851	49.49
190.07	112.98
190.29	-65.19
190.509	20.82
190.729	45.4
190.948	104.79
191.168	213.33
191.387	61.78
191.607	-22.19
191.826	137.56
192.045	43.35
192.265	-69.29
192.484	74.07
192.704	20.82
192.923	-73.39
193.142	160.08
193.362	133.46
193.581	168.27
193.8	112.98
194.02	98.64
194.239	55.64
194.458	72.02
194.678	72.02
194.897	37.2
195.116	78.16
195.335	100.69
195.555	67.92
195.774	31.06
195.993	98.64
196.212	69.97
196.432	-34.47
196.651	-9.9
196.87	-1.71
197.089	213.33
197.308	35.16
197.528	35.16
197.747	-75.43
197.966	100.69
198.185	123.22
198.404	12.63
198.623	49.49
198.842	221.52
199.062	61.78
199.281	166.23
199.5	26.96
199.719	100.69
199.938	-16.04
200.157	29.01
200.376	160.08
200.595	131.41
200.814	59.73
201.033	-7.85
201.252	117.08
201.471	-7.85
201.69	51.54
201.909	51.54
202.128	129.36
202.347	117.08
202.566	-79.53
202.785	-54.95
203.004	24.92
203.223	264.53
203.442	18.77
203.661	-9.9
203.879	88.4
204.098	108.88
204.317	-77.48
204.536	133.46
204.755	69.97
204.974	63.83
205.193	-7.85
205.411	155.99
205.63	78.16
205.849	59.73
206.068	51.54
206.287	51.54
206.505	98.64
206.724	16.73
206.943	59.73
207.162	-93.87
207.381	78.16
207.599	14.68
207.818	43.35
208.037	-1.71
208.255	69.97
208.474	37.2
208.693	98.64
208.911	43.35
209.13	45.4
209.349	51.54
209.567	72.02
209.786	65.88
210.005	127.32
210.223	33.11
210.442	-130.73
210.661	39.25
210.879	117.08
211.098	0.34
211.316	16.73
211.535	98.64
211.753	90.45
211.972	82.26
212.191	4.44
212.409	57.68
212.628	69.97
212.846	-16.04
213.065	92.5
213.283	51.54
213.502	-32.43
213.72	-5.8
213.938	16.73
214.157	-26.28
214.375	94.55
214.594	18.77
214.812	98.64
215.031	98.64
215.249	-9.9
215.467	84.31
215.686	104.79
215.904	-16.04
216.122	-16.04
216.341	129.36
216.559	96.6
216.778	119.12
216.996	74.07
217.214	59.73
217.432	65.88
217.651	-18.09
217.869	35.16
218.087	53.59
218.306	-3.75
218.524	82.26
218.742	31.06
218.96	92.5
219.179	-24.23
219.397	-9.9
219.615	172.37
219.833	131.41
220.051	-81.58
220.27	76.12
220.488	112.98
220.706	98.64
220.924	-18.09
221.142	8.53
221.36	55.64
221.578	18.77
221.796	-34.47
222.015	106.84
222.233	59.73
222.451	201.04
222.669	-79.53
222.887	41.3
223.105	16.73
223.323	59.73
223.541	-61.1
223.759	155.99
223.977	135.51
224.195	153.94
224.413	-9.9
224.631	-7.85
224.849	123.22
225.067	215.38
225.285	0.34
225.503	72.02
225.721	-75.43
225.939	18.77
226.157	55.64
226.375	221.52
226.592	-16.04
226.81	51.54
227.028	82.26
227.246	139.6
227.464	63.83
227.682	72.02
227.9	26.96
228.117	119.12
228.335	127.32
228.553	-3.75
228.771	-54.95
228.989	12.63
229.206	158.03
229.424	41.3
229.642	8.53
229.86	14.68
230.077	74.07
230.295	-5.8
230.513	194.9
230.731	59.73
230.948	201.04
231.166	90.45
231.384	14.68
231.601	10.58
231.819	94.55
232.037	24.92
232.254	-3.75
232.472	49.49
232.689	-48.81
232.907	69.97
233.125	-97.96
233.342	-3.75
233.56	35.16
233.777	100.69
233.995	45.4
234.213	80.21
234.43	74.07
234.648	24.92
234.865	-30.38
235.083	94.55
235.3	117.08
235.518	24.92
235.735	143.7
235.953	18.77
236.17	53.59
236.388	63.83
236.605	16.73
236.822	43.35
237.04	153.94
237.257	67.92
237.475	-77.48
237.692	94.55
237.909	80.21
238.127	45.4
238.344	10.58
238.562	2.39
238.779	-20.14
238.996	-63.15
239.214	76.12
239.431	61.78
239.648	45.4
239.865	158.03
240.083	90.45
240.3	2.39
240.517	-7.85
240.735	24.92
240.952	172.37
241.169	123.22
241.386	-38.57
241.603	-30.38
241.821	-1.71
242.038	100.69
242.255	127.32
242.472	-32.43
242.689	102.74
242.907	43.35
243.124	10.58
243.341	16.73
243.558	22.87
243.775	-22.19
243.992	-79.53
244.209	45.4
244.426	227.67
244.643	108.88
244.86	59.73
245.078	18.77
245.295	12.63
245.512	35.16
245.729	14.68
245.946	39.25
246.163	63.83
246.38	51.54
246.597	39.25
246.814	63.83
247.031	37.2
247.248	57.68
247.464	53.59
247.681	41.3
247.898	37.2
248.115	8.53
248.332	-16.04
248.549	131.41
248.766	190.8
248.983	186.71
249.2	104.79
249.417	121.17
249.633	-24.23
249.85	92.5
250.067	53.59
250.284	0.34
250.501	88.4
250.717	115.03
250.934	-18.09
251.151	26.96
251.368	119.12
251.585	59.73
251.801	55.64
252.018	-106.15
252.235	170.32
252.451	-32.43
252.668	-67.24
252.885	188.75
253.102	69.97
253.318	0.34
253.535	-1.71
253.752	88.4
253.968	-13.99
254.185	-40.62
254.401	35.16
254.618	80.21
254.835	-32.43
255.051	39.25
255.268	8.53
255.484	69.97
255.701	-30.38
255.917	102.74
256.134	-5.8
256.351	67.92
256.567	-26.28
256.784	43.35
257	-38.57
257.217	98.64
257.433	55.64
257.65	-36.52
257.866	201.04
258.082	-36.52
258.299	-7.85
258.515	76.12
258.732	-42.67
258.948	20.82
259.165	65.88
259.381	-67.24
259.597	94.55
259.814	61.78
260.03	-42.67
260.246	39.25
260.463	94.55
260.679	80.21
260.895	129.36
261.112	96.6
261.328	-40.62
261.544	-34.47
261.761	102.74
261.977	-3.75
262.193	-71.34
262.409	141.65
262.626	57.68
262.842	53.59
263.058	18.77
263.274	100.69
263.49	125.27
263.707	43.35
263.923	31.06
264.139	-85.67
264.355	67.92
264.571	94.55
264.787	2.39
265.004	166.23
265.22	14.68
265.436	-7.85
265.652	-18.09
265.868	84.31
266.084	2.39
266.3	31.06
266.516	-85.67
266.732	106.84
266.948	55.64
267.164	-28.33
267.38	49.49
267.596	47.44
267.812	254.29
268.028	121.17
268.244	31.06
268.46	53.59
268.676	51.54
268.892	69.97
269.108	6.49
269.324	2.39
269.54	-44.71
269.756	74.07
269.972	14.68
270.188	-20.14
270.403	-16.04
270.619	18.77
270.835	31.06
271.051	84.31
271.267	4.44
271.483	16.73
271.698	125.27
271.914	74.07
272.13	112.98
272.346	12.63
272.562	127.32
272.777	80.21
272.993	108.88
273.209	-18.09
273.425	115.03
273.64	-16.04
273.856	104.79
274.072	2.39
274.287	-67.24
274.503	94.55
274.719	98.64
274.934	33.11
275.15	-50.86
275.366	-50.86
275.581	-59.05
275.797	72.02
276.012	49.49
276.228	39.25
276.444	2.39
276.659	104.79
276.875	-18.09
277.09	6.49
277.306	53.59
277.521	117.08
277.737	6.49
277.952	82.26
278.168	26.96
278.383	51.54
278.599	51.54
278.814	39.25
279.03	12.63
279.245	168.27
279.461	39.25
279.676	149.84
279.892	-28.33
280.107	29.01
280.322	-89.77
280.538	53.59
280.753	6.49
280.969	92.5
281.184	74.07
281.399	180.56
281.615	6.49
281.83	53.59
282.045	-75.43
282.26	-118.44
282.476	31.06
282.691	110.93
282.906	69.97
283.122	-13.99
283.337	0.34
283.552	82.26
283.767	10.58
283.983	137.56
284.198	84.31
284.413	29.01
284.628	-52.91
284.843	84.31
285.058	88.4
285.274	35.16
285.489	-32.43
285.704	78.16
285.919	-16.04
286.134	-28.33
286.349	35.16
286.564	24.92
286.779	170.32
286.995	41.3
287.21	-28.33
287.425	20.82
287.64	-22.19
287.855	63.83
288.07	18.77
288.285	76.12
288.5	35.16
288.715	82.26
288.93	-7.85
289.145	-13.99
289.36	117.08
289.575	-36.52
289.79	145.75
290.004	4.44
290.219	164.18
290.434	-3.75
290.649	-44.71
290.864	-32.43
291.079	108.88
291.294	24.92
291.509	41.3
291.724	22.87
291.938	33.11
292.153	47.44
292.368	18.77
292.583	51.54
292.798	119.12
293.012	8.53
293.227	121.17
293.442	12.63
293.657	88.4
293.871	98.64
294.086	39.25
294.301	102.74
294.516	88.4
294.73	61.78
294.945	-36.52
295.16	-79.53
295.374	59.73
295.589	72.02
295.804	37.2
296.018	55.64
296.233	176.47
296.447	51.54
296.662	39.25
296.877	102.74
297.091	55.64
297.306	-1.71
297.52	47.44
297.735	74.07
297.949	143.7
298.164	10.58
298.378	145.75
298.593	-42.67
298.807	-9.9
299.022	26.96
299.236	168.27
299.451	10.58
299.665	-3.75
299.88	47.44
300.094	39.25
300.309	18.77
300.523	47.44
300.737	-26.28
300.952	80.21
301.166	0.34
301.381	24.92
301.595	4.44
301.809	-28.33
302.024	20.82
302.238	-32.43
302.452	110.93
302.667	90.45
302.881	92.5
303.095	69.97
303.309	69.97
303.524	-9.9
303.738	76.12
303.952	8.53
304.166	22.87
304.381	-106.15
304.595	119.12
304.809	55.64
305.023	57.68
305.237	20.82
305.452	18.77
305.666	67.92
305.88	72.02
306.094	143.7
306.308	39.25
306.522	137.56
306.736	72.02
306.95	139.6
307.164	-1.71
307.379	-13.99
307.593	102.74
307.807	106.84
308.021	72.02
308.235	2.39
308.449	-9.9
308.663	131.41
308.877	180.56
309.091	22.87
309.305	22.87
309.519	-106.15
309.733	131.41
309.947	-59.05
310.161	43.35
310.374	92.5
310.588	110.93
310.802	-54.95
311.016	-7.85
311.23	59.73
311.444	-69.29
311.658	72.02
311.872	129.36
312.085	166.23
312.299	127.32
312.513	110.93
312.727	43.35
312.941	-24.23
313.154	37.2
313.368	2.39
313.582	55.64
313.796	-7.85
314.009	92.5
314.223	88.4
314.437	22.87
314.651	43.35
314.864	-81.58
315.078	35.16
315.292	-75.43
315.505	29.01
315.719	39.25
315.933	55.64
316.146	-44.71
316.36	45.4
316.573	69.97
316.787	92.5
317.001	47.44
317.214	-26.28
317.428	92.5
317.641	-44.71
317.855	41.3
318.068	65.88
318.282	12.63
318.495	215.38
318.709	4.44
318.922	24.92
319.136	160.08
319.349	78.16
319.563	-9.9
319.776	72.02
319.99	10.58
320.203	145.75
320.417	24.92
320.63	131.41
320.843	166.23
321.057	65.88
321.27	112.98
321.483	39.25
321.697	121.17
321.91	74.07
322.124	106.84
322.337	47.44
322.55	-77.48
322.763	39.25
322.977	18.77
323.19	20.82
323.403	43.35
323.617	37.2
323.83	59.73
324.043	37.2
324.256	59.73
324.469	-112.3
324.683	63.83
324.896	2.39
325.109	6.49
325.322	-93.87
325.535	61.78
325.748	100.69
325.962	-11.95
326.175	59.73
326.388	26.96
326.601	72.02
326.814	18.77
327.027	35.16
327.24	143.7
327.453	-134.82
327.666	94.55
327.879	147.8
328.092	65.88
328.305	65.88
328.518	-7.85
328.731	29.01
328.944	-9.9
329.157	121.17
329.37	78.16
329.583	133.46
329.796	131.41
330.009	-73.39
330.222	96.6
330.435	2.39
330.648	49.49
330.861	0.34
331.073	61.78
331.286	133.46
331.499	69.97
331.712	4.44
331.925	108.88
332.138	69.97
332.35	90.45
332.563	31.06
332.776	65.88
332.989	45.4
333.202	-32.43
333.414	37.2
333.627	47.44
333.84	-9.9
334.053	74.07
334.265	6.49
334.478	4.44
334.691	-26.28
334.903	55.64
335.116	-42.67
335.329	-3.75
335.541	39.25
335.754	92.5
335.966	-32.43
336.179	26.96
336.392	35.16
336.604	-30.38
336.817	47.44
337.029	29.01
337.242	53.59
337.454	49.49
337.667	-16.04
337.88	180.56
338.092	59.73
338.305	10.58
338.517	-54.95
338.729	37.2
338.942	106.84
339.154	-18.09
339.367	-34.47
339.579	47.44
339.792	-93.87
340.004	22.87
340.217	100.69
340.429	39.25
340.641	8.53
340.854	41.3
341.066	-13.99
341.278	92.5
341.491	164.18
341.703	31.06
341.915	-16.04
342.128	31.06
342.34	76.12
342.552	-38.57
342.764	63.83
342.977	-32.43
343.189	119.12
343.401	45.4
343.613	-93.87
343.826	2.39
344.038	-61.1
344.25	92.5
344.462	43.35
344.674	33.11
344.886	-13.99
345.099	96.6
345.311	78.16
345.523	41.3
345.735	-97.96
345.947	47.44
346.159	14.68
346.371	59.73
346.583	-83.63
346.795	194.9
347.007	18.77
347.219	55.64
347.431	88.4
347.643	100.69
347.855	-5.8
348.067	82.26
348.279	-42.67
348.491	41.3
348.703	41.3
348.915	-26.28
349.127	-24.23
349.339	-30.38
349.551	-24.23
349.763	80.21
349.975	65.88
350.187	153.94
350.399	131.41
350.61	72.02
350.822	76.12
351.034	37.2
351.246	39.25
351.458	35.16
351.669	145.75
351.881	141.65
352.093	115.03
352.305	45.4
352.517	67.92
352.728	168.27
352.94	-9.9
353.152	20.82
353.363	16.73
353.575	98.64
353.787	153.94
353.999	67.92
354.21	190.8
354.422	-46.76
354.633	35.16
354.845	10.58
355.057	115.03
355.268	92.5
355.48	61.78
355.692	-50.86
355.903	-30.38
356.115	-1.71
356.326	2.39
356.538	135.51
356.749	67.92
356.961	76.12
357.172	61.78
357.384	-57
357.595	149.84
357.807	-75.43
358.018	63.83
358.23	78.16
358.441	131.41
358.653	-36.52
358.864	57.68
359.075	-28.33
359.287	55.64
359.498	74.07
359.709	88.4
359.921	35.16
360.132	39.25
360.344	33.11
360.555	55.64
360.766	37.2
360.977	-30.38
361.189	47.44
361.4	-50.86
361.611	76.12
361.823	119.12
362.034	0.34
362.245	-69.29
362.456	14.68
362.667	80.21
362.879	24.92
363.09	57.68
363.301	98.64
363.512	2.39
363.723	41.3
363.935	24.92
364.146	158.03
364.357	80.21
364.568	53.59
364.779	-32.43
364.99	119.12
365.201	0.34
365.412	209.23
365.623	-38.57
365.834	125.27
366.045	92.5
366.256	69.97
366.467	74.07
366.678	-5.8
366.889	63.83
367.1	22.87
367.311	127.32
367.522	-36.52
367.733	90.45
367.944	96.6
368.155	8.53
368.366	176.47
368.577	98.64
368.788	43.35
368.999	18.77
369.209	59.73
369.42	231.76
369.631	192.85
369.842	49.49
370.053	-81.58
370.264	74.07
370.474	-1.71
370.685	74.07
370.896	31.06
371.107	80.21
371.317	65.88
371.528	-22.19
371.739	33.11
371.95	26.96
372.16	65.88
372.371	-13.99
372.582	33.11
372.792	63.83
373.003	74.07
373.214	69.97
373.424	63.83
373.635	-20.14
373.846	145.75
374.056	67.92
374.267	69.97
374.477	106.84
374.688	10.58
374.898	24.92
375.109	4.44
375.319	47.44
375.53	153.94
375.74	53.59
375.951	6.49
376.161	59.73
376.372	215.38
376.582	26.96
376.793	57.68
377.003	-54.95
377.214	-11.95
377.424	8.53
377.635	4.44
377.845	29.01
378.055	178.51
378.266	-16.04
378.476	-18.09
378.686	-36.52
378.897	-24.23
379.107	63.83
379.317	16.73
379.528	-61.1
379.738	84.31
379.948	-44.71
380.158	98.64
380.369	94.55
380.579	102.74
380.789	-3.75
380.999	29.01
381.21	86.36
381.42	221.52
381.63	55.64
381.84	41.3
382.05	55.64
382.261	74.07
382.471	125.27
382.681	-26.28
382.891	92.5
383.101	18.77
383.311	-93.87
383.521	2.39
383.731	86.36
383.941	100.69
384.151	33.11
384.361	74.07
384.571	139.6
384.781	90.45
384.991	110.93
385.201	164.18
385.411	100.69
385.621	55.64
385.831	115.03
386.041	16.73
386.251	41.3
386.461	129.36
386.671	35.16
386.881	-22.19
387.091	45.4
387.301	84.31
387.511	102.74
387.72	135.51
387.93	98.64
388.14	-59.05
388.35	33.11
388.56	129.36
388.769	112.98
388.979	4.44
389.189	35.16
389.399	26.96
389.609	115.03
389.818	72.02
390.028	119.12
390.238	137.56
390.447	-11.95
390.657	96.6
390.867	2.39
391.076	-140.97
391.286	82.26
391.496	14.68
391.705	72.02
391.915	139.6
392.125	98.64
392.334	82.26
392.544	143.7
392.753	88.4
392.963	-5.8
393.172	86.36
393.382	-26.28
393.591	166.23
393.801	35.16
394.01	155.99
394.22	141.65
394.429	35.16
394.639	45.4
394.848	51.54
395.058	45.4
395.267	59.73
395.477	174.42
395.686	-13.99
395.895	178.51
396.105	194.9
396.314	65.88
396.524	84.31
396.733	-34.47
396.942	139.6
397.152	104.79
397.361	115.03
397.57	61.78
397.78	98.64
397.989	55.64
398.198	182.61
398.407	35.16
398.617	51.54
398.826	98.64
399.035	-28.33
399.244	86.36
399.453	119.12
399.663	-7.85
399.872	117.08
400.081	-1.71
400.29	133.46
400.499	-36.52
400.708	110.93
400.917	-34.47
401.127	-3.75
401.336	55.64
401.545	160.08
401.754	121.17
401.963	125.27
402.172	-3.75
402.381	-63.15
402.59	20.82
402.799	67.92
403.008	141.65
403.217	37.2
403.426	121.17
403.635	-69.29
403.844	-20.14
404.053	20.82
404.262	82.26
404.471	182.61
404.68	45.4
404.888	49.49
405.097	20.82
405.306	61.78
405.515	80.21
405.724	24.92
405.933	51.54
406.142	59.73
406.35	88.4
406.559	-9.9
406.768	94.55
406.977	170.32
407.185	26.96
407.394	49.49
407.603	-13.99
407.812	57.68
408.02	108.88
408.229	31.06
408.438	55.64
408.646	4.44
408.855	63.83
409.064	82.26
409.272	74.07
409.481	65.88
409.69	-46.76
409.898	26.96
410.107	127.32
410.315	96.6
410.524	-1.71
410.733	88.4
410.941	110.93
411.15	121.17
411.358	102.74
411.567	160.08
411.775	92.5
411.984	-48.81
412.192	133.46
412.401	31.06
412.609	131.41
412.818	133.46
413.026	106.84
413.234	4.44
413.443	49.49
413.651	47.44
413.86	4.44
414.068	207.19
414.276	151.89
414.485	-44.71
414.693	192.85
414.901	168.27
415.11	104.79
415.318	102.74
415.526	20.82
415.734	174.42
415.943	49.49
416.151	141.65
416.359	63.83
416.567	26.96
416.776	55.64
416.984	57.68
417.192	233.81
417.4	20.82
417.608	-20.14
417.817	-30.38
418.025	67.92
418.233	168.27
418.441	31.06
418.649	-5.8
418.857	63.83
419.065	153.94
419.273	37.2
419.481	53.59
419.689	92.5
419.897	24.92
420.105	-44.71
420.313	67.92
420.521	178.51
420.729	127.32
420.937	31.06
421.145	8.53
421.353	186.71
421.561	223.57
421.769	125.27
421.977	43.35
422.185	112.98
422.393	-24.23
422.601	166.23
422.809	74.07
423.017	121.17
423.224	55.64
423.432	102.74
423.64	76.12
423.848	149.84
424.056	14.68
424.263	192.85
424.471	35.16
424.679	143.7
424.887	10.58
425.094	164.18
425.302	143.7
425.51	0.34
425.718	86.36
425.925	-7.85
426.133	-22.19
426.341	151.89
426.548	72.02
426.756	57.68
426.964	98.64
427.171	-36.52
427.379	137.56
427.586	0.34
427.794	174.42
428.001	86.36
428.209	55.64
428.417	119.12
428.624	110.93
428.832	190.8
429.039	78.16
429.247	39.25
429.454	92.5
429.662	151.89
429.869	80.21
430.076	153.94
430.284	160.08
430.491	186.71
430.699	155.99
430.906	229.71
431.114	39.25
431.321	125.27
431.528	235.86
431.736	147.8
431.943	125.27
432.15	141.65
432.358	194.9
432.565	178.51
432.772	10.58
432.979	131.41
433.187	117.08
433.394	141.65
433.601	92.5
433.808	293.2
434.016	180.56
434.223	315.73
434.43	121.17
434.637	209.23
434.844	258.39
435.052	287.06
435.259	229.71
435.466	287.06
435.673	223.57
435.88	227.67
436.087	301.39
436.294	346.45
436.501	352.59
436.708	346.45
436.915	256.34
437.122	364.88
437.329	233.81
437.537	287.06
437.743	303.44
437.95	504.14
438.157	457.04
438.364	381.26
438.571	366.93
438.778	420.17
438.985	438.61
439.192	471.37
439.399	463.18
439.606	452.94
439.813	463.18
440.02	633.16
440.227	741.71
440.433	567.63
440.64	522.57
440.847	469.33
441.054	579.92
441.261	735.56
441.467	678.22
441.674	598.35
441.881	631.12
442.088	633.16
442.294	672.08
442.501	694.6
442.708	803.15
442.914	674.12
443.121	827.72
443.328	753.99
443.534	964.93
443.741	866.63
443.948	725.32
444.154	977.22
444.361	1229.12
444.568	1061.19
444.774	956.74
444.981	975.17
445.187	1186.12
445.394	1116.48
445.6	1204.55
445.807	1296.71
446.013	1276.23
446.22	1276.23
446.426	1390.91
446.633	1384.77
446.839	1620.28
447.046	1427.78
447.252	1679.68
447.459	1513.79
447.665	1669.44
447.871	1898.81
448.078	1929.53
448.284	1952.06
448.491	1950.01
448.697	2019.64
448.903	2179.38
449.11	2144.56
449.316	2150.71
449.522	2392.37
449.728	2367.79
449.935	2382.13
450.141	2494.77
450.347	2640.17
450.553	2576.69
450.76	2593.07
450.966	2867.5
451.172	2971.94
451.378	3129.64
451.584	3180.84
451.791	3387.68
451.997	3453.22
452.203	3518.75
452.409	3770.65
452.615	3887.39
452.821	3813.66
453.027	3832.09
453.233	4387.09
453.44	4188.44
453.646	4421.91
453.852	4753.68
454.058	4712.72
454.264	4894.99
454.47	5384.45
454.676	5241.09
454.882	5716.22
455.088	5298.44
455.294	5660.93
455.5	6193.4
455.705	6482.16
455.911	6568.18
456.117	6568.18
456.323	6811.89
456.529	6904.04
456.735	7647.46
456.941	7848.16
457.147	7991.52
457.352	8349.91
457.558	8593.62
457.764	9185.48
457.97	9238.73
458.176	9584.84
458.381	10043.58
458.587	10283.19
458.793	10680.5
458.999	10791.09
459.204	11909.28
459.41	12439.7
459.616	12488.85
459.821	12982.42
460.027	13389.96
460.233	14129.28
460.438	14317.69
460.644	15190.13
460.85	15181.93
461.055	15722.6
461.261	16367.71
461.466	16203.87
461.672	16607.32
461.878	18393.15
462.083	18532.41
462.289	18573.37
462.494	19509.29
462.7	19456.04
462.905	19804.2
463.111	21458.96
463.316	22736.89
463.522	22626.3
463.727	23564.27
463.932	24606.69
464.138	25450.45
464.343	26585.02
464.549	26501.06
464.754	28420
464.959	28852.13
465.165	29579.15
465.37	29730.7
465.575	29421.46
465.781	31672.18
465.986	32442.21
466.191	32143.21
466.397	32196.46
466.602	31594.36
466.807	33210.2
467.012	33845.07
467.218	34217.8
467.423	34817.86
467.628	35706.68
467.833	37420.83
468.038	36599.59
468.244	36284.2
468.449	38055.7
468.654	37105.44
468.859	36955.94
469.064	37191.45
469.269	36433.71
469.474	36642.6
469.679	37930.77
469.885	36439.85
470.09	37113.63
470.295	37500.7
470.5	36159.28
470.705	36534.06
470.91	35643.19
471.115	35333.95
471.32	36073.26
471.525	35618.61
471.73	34889.54
471.935	34537.29
472.139	33326.94
472.344	33193.82
472.549	32737.12
472.754	32266.09
472.959	31711.09
473.164	30812.03
473.369	30089.1
473.574	30867.33
473.778	30205.83
473.983	29515.67
474.188	29790.09
474.393	28276.65
474.598	28125.1
474.802	27697.07
475.007	27011
475.212	26771.39
475.417	25692.11
475.621	25513.94
475.826	25270.23
476.031	24432.61
476.235	23906.28
476.44	24229.86
476.645	23416.82
476.849	23242.74
477.054	22861.82
477.259	22347.78
477.463	22161.41
477.668	21485.58
477.872	21798.92
478.077	21000.21
478.282	20420.64
478.486	20176.93
478.691	20273.18
478.895	19984.42
479.1	19738.66
479.304	19736.62
479.509	18892.85
479.713	19109.94
479.918	18741.3
480.122	18411.58
480.326	18444.35
480.531	18561.08
480.735	18090.05
480.94	17899.59
481.144	18614.33
481.348	17547.34
481.553	17948.74
481.757	17111.12
481.961	17387.6
482.166	17389.64
482.37	17348.68
482.574	16805.97
482.778	16824.4
482.983	17004.63
483.187	16728.15
483.391	16730.2
483.595	16578.65
483.8	15960.16
484.004	16253.02
484.208	16304.22
484.412	15913.06
484.616	15947.87
484.821	15581.29
485.025	15022.19
485.229	15110.25
485.433	14917.75
485.637	14870.64
485.841	14923.89
486.045	14289.02
486.249	14250.11
486.453	13951.1
486.657	13912.19
486.861	13658.24
487.065	13082.77
487.269	13385.87
487.473	12834.96
487.677	12986.51
487.881	12910.74
488.085	12411.03
488.289	12386.46
488.493	12089.5
488.697	12036.25
488.901	11688.1
489.105	11499.69
489.309	11370.66
489.512	11172.01
489.716	10985.65
489.92	10610.87
490.124	10498.23
490.328	10526.9
490.531	10170.55
490.735	10123.45
490.939	9873.6
491.143	9656.51
491.346	9586.88
491.55	9427.14
491.754	9353.41
491.958	8900.81
492.161	9064.65
492.365	8732.88
492.569	8650.96
492.772	8628.43
492.976	8401.11
493.18	8151.26
493.383	8220.89
493.587	8276.18
493.79	8181.98
493.994	7864.54
494.197	7878.88
494.401	7872.73
494.605	7657.7
494.808	7665.89
495.012	7553.25
495.215	7631.07
495.419	7549.15
495.622	7264.49
495.825	7526.63
496.029	7395.56
496.232	7434.47
496.436	7393.51
496.639	7432.42
496.843	7141.61
497.046	7272.68
497.249	7434.47
497.453	7317.73
497.656	7127.27
497.859	7244.01
498.063	7305.45
498.266	7313.64
498.469	7149.8
498.673	7266.53
498.876	7350.5
499.079	7471.33
499.282	7319.78
499.485	7817.44
499.689	7448.8
499.892	7481.57
500.095	7309.54
500.298	7600.35
500.501	7649.5
500.705	7569.63
500.908	7739.62
501.111	7817.44
501.314	8003.8
501.517	8130.78
501.72	8038.62
501.923	7987.42
502.126	7995.61
502.329	8417.49
502.532	8431.83
502.735	8534.23
502.938	8825.04
503.141	8708.3
503.344	8702.16
503.547	8919.25
503.75	9023.69
503.953	8937.68
504.156	9281.74
504.359	9328.84
504.562	9205.96
504.765	9427.14
504.968	9652.42
505.17	9855.17
505.373	10123.45
505.576	10526.9
505.779	10256.57
505.982	10535.09
506.185	10629.3
506.387	10870.96
506.59	11059.37
506.793	11090.09
506.996	11430.05
507.198	11724.96
507.401	11888.8
507.604	11997.34
507.807	12464.28
508.009	12572.82
508.212	12767.38
508.415	13150.35
508.617	13254.8
508.82	13439.11
509.022	13838.47
509.225	14164.09
509.428	14325.88
509.63	14581.88
509.833	14887.03
510.035	15698.02
510.238	15738.98
510.44	15931.49
510.643	16289.88
510.845	16617.56
511.048	16965.71
511.25	17358.92
511.453	17762.37
511.655	18546.75
511.858	18493.5
512.06	19019.83
512.262	19458.09
512.465	19609.64
512.667	20342.81
512.87	20375.58
513.072	21110.8
513.274	21506.06
513.477	22071.3
513.679	22654.97
513.881	23183.35
514.084	23412.72
514.286	23719.92
514.488	24608.73
514.69	25253.84
514.893	25673.68
515.095	25937.87
515.297	26740.67
515.499	27228.09
515.701	27867.05
515.904	28454.82
516.106	28979.1
516.308	29327.25
516.51	30347.14
516.712	30605.19
516.914	31182.71
517.116	32006
517.318	32696.16
517.52	32851.81
517.722	33605.46
517.925	34522.95
518.127	35147.58
518.329	35989.3
518.531	35942.19
518.733	36947.75
518.935	37617.43
519.136	37930.77
519.338	38842.12
519.54	39048.96
519.742	39845.62
519.944	40421.1
520.146	41406.17
520.348	41338.59
520.55	41930.45
520.752	42272.46
520.954	43325.12
521.155	43001.54
521.357	44422.83
521.559	44555.95
521.761	45407.9
521.963	45762.2
522.164	45807.26
522.366	46159.51
522.568	46511.76
522.77	47009.42
522.971	47763.07
523.173	47683.2
523.375	48189.05
523.576	47928.95
523.778	47980.15
523.98	48959.08
524.181	49151.59
524.383	49237.61
524.584	49319.52
524.786	49313.38
524.988	49010.28
525.189	49808.99
525.391	50148.95
525.592	49905.24
525.794	50306.65
525.995	50331.22
526.197	49876.57
526.398	50064.99
526.6	49710.69
526.801	49952.35
527.003	49991.26
527.204	49542.75
527.406	49583.71
527.607	48963.18
527.808	49559.14
528.01	48309.88
528.211	48406.13
528.412	48936.55
528.614	48367.22
528.815	47935.1
529.016	47892.09
529.218	47326.85
529.419	46622.35
529.62	46395.03
529.822	46128.79
530.023	46083.73
530.224	45459.1
530.425	44920.49
530.626	44095.16
530.828	43540.16
531.029	44328.62
531.23	43138.76
531.431	42323.66
531.632	42571.47
531.833	42102.48
532.035	41496.28
532.236	40593.13
532.437	40419.05
532.638	39921.4
532.839	39714.55
533.04	39223.04
533.241	38061.84
533.442	38758.15
533.643	37609.24
533.844	37256.99
534.045	36921.12
534.246	35467.06
534.447	35858.23
534.648	35047.23
534.849	34811.71
535.05	34221.9
535.251	33838.93
535.451	33189.72
535.652	32561
535.853	32595.81
536.054	32094.06
536.255	31706.99
536.456	31106.94
536.657	31510.39
536.857	30203.78
537.058	30080.91
537.259	29753.23
537.46	29233.05
537.66	28440.48
537.861	28563.36
538.062	28194.73
538.263	27475.89
538.463	27449.27
538.664	27105.21
538.865	26511.3
539.065	26802.11
539.266	25878.47
539.466	25741.26
539.667	25423.83
539.868	25356.24
540.068	25047
540.269	24766.43
540.469	24453.09
540.67	23996.39
540.87	23799.79
541.071	23500.78
541.271	23107.57
541.472	23066.61
541.672	22648.83
541.873	22347.78
542.073	21854.22
542.274	22134.79
542.474	21696.52
542.675	21291.02
542.875	21272.59
543.075	20875.29
543.276	20441.12
543.476	20785.18
543.676	20353.05
543.877	20254.75
544.077	19820.58
544.277	19765.29
544.478	19580.97
544.678	19136.56
544.878	19150.9
545.078	18784.31
545.279	18561.08
545.479	18110.53
545.679	18092.1
545.879	18014.27
546.079	17496.14
546.28	17215.57
546.48	17190.99
546.68	17348.68
546.88	17057.87
547.08	16830.55
547.28	16382.04
547.48	16175.2
547.68	16167.01
547.88	15812.71
548.081	16072.8
548.281	15362.15
548.481	15325.29
548.681	15306.86
548.881	15120.49
549.081	14727.28
549.28	14528.63
549.48	14645.37
549.68	14252.16
549.88	14233.72
550.08	14065.79
550.28	13611.14
550.48	13490.31
550.68	13555.85
550.88	13138.06
551.08	12904.59
551.279	12753.04
551.479	12552.34
551.679	12521.62
551.879	12343.45
552.079	12095.64
552.278	11997.34
552.478	11876.51
552.678	11444.39
552.878	11356.33
553.077	11204.78
553.277	10891.44
553.477	11024.56
553.676	10586.29
553.876	10438.84
554.076	10188.99
554.275	10289.34
554.475	9689.28
554.674	10019
554.874	9744.58
555.074	9509.06
555.273	9427.14
555.473	9449.67
555.672	9097.42
555.872	9093.32
556.071	8896.72
556.271	9048.27
556.47	8511.7
556.67	8368.34
556.869	8186.07
557.068	8136.92
557.268	7813.34
557.467	7819.49
557.667	7807.2
557.866	7653.6
558.065	7639.26
558.265	7256.29
558.464	7395.56
558.663	7221.48
558.863	6992.11
559.062	6996.2
559.261	6848.75
559.461	6887.66
559.66	6631.66
559.859	6652.14
560.058	6342.9
560.258	6195.45
560.457	6189.3
560.656	6236.41
560.855	5935.35
561.054	5976.31
561.253	5785.85
561.453	5853.44
561.652	5693.69
561.851	5665.02
562.05	5529.86
562.249	5269.76
562.448	5169.41
562.647	5140.74
562.846	5128.46
563.045	5177.61
563.244	5032.2
563.443	5124.36
563.642	4815.12
563.841	4745.48
564.04	4854.03
564.239	4665.61
564.438	4565.26
564.637	4354.32
564.836	4497.68
565.035	4282.64
565.234	4395.28
565.432	4315.41
565.631	4327.7
565.83	4088.09
566.029	3946.78
566.228	3844.38
566.427	3973.4
566.625	3776.8
566.824	3959.06
567.023	3854.62
567.222	3698.97
567.42	3735.84
567.619	3744.03
567.818	3606.81
568.016	3588.38
568.215	3551.52
568.414	3420.45
568.612	3424.55
568.811	3160.36
569.01	3258.66
569.208	3125.54
569.407	3238.18
569.605	3266.85
569.804	2935.08
570.002	3129.64
570.201	2920.74
570.4	3060.01
570.598	2910.5
570.797	2998.57
570.995	2787.63
571.193	2701.61
571.392	2955.56
571.59	2550.06
571.789	2695.47
571.987	2644.27
572.186	2609.45
572.384	2453.81
572.582	2384.18
572.781	2515.25
572.979	2251.06
573.177	2287.92
573.376	2392.37
573.574	2443.57
573.772	2234.68
573.971	2193.72
574.169	2156.85
574.367	2308.4
574.565	2074.93
574.763	2173.24
574.962	2115.89
575.16	2050.36
575.358	2040.12
575.556	1962.3
575.754	1950.01
575.952	1874.23
576.151	1935.67
576.349	1907
576.547	1739.07
576.745	1870.14
576.943	1894.71
577.141	1691.96
577.339	1663.29
577.537	1749.31
577.735	1724.73
577.933	1651
578.131	1610.04
578.329	1716.54
578.527	1442.11
578.725	1564.99
578.923	1438.02
579.121	1585.47
579.319	1313.09
579.516	1470.78
579.714	1620.28
579.912	1356.1
580.11	1335.62
580.308	1399.1
580.506	1345.86
580.704	1153.35
580.901	1231.17
581.099	1276.23
581.297	1157.44
581.495	1337.66
581.692	1200.45
581.89	1384.77
582.088	1272.13
582.285	1147.2
582.483	1108.29
582.681	1163.59
582.878	1083.72
583.076	1136.96
583.274	1118.53
583.471	1145.16
583.669	969.03
583.866	954.69
584.064	966.98
584.262	985.41
584.459	883.02
584.657	919.88
584.854	1085.76
585.052	962.89
585.249	1053
585.447	905.54
585.644	756.04
585.841	977.22
586.039	930.12
586.236	921.93
586.434	901.45
586.631	837.96
586.828	815.43
587.026	807.24
587.223	745.8
587.42	817.48
587.618	850.25
587.815	958.79
588.012	753.99
588.21	790.86
588.407	827.72
588.604	895.3
588.801	631.12
588.999	729.42
589.196	717.13
589.393	686.41
589.59	645.45
589.787	747.85
589.984	739.66
590.182	739.66
590.379	631.12
590.576	721.23
590.773	737.61
590.97	651.6
591.167	721.23
591.364	766.28
591.561	649.55
591.758	741.71
591.955	778.57
592.152	688.46
592.349	586.06
592.546	559.44
592.743	610.64
592.94	612.68
593.137	620.88
593.334	743.75
593.531	760.14
593.727	772.43
593.924	657.74
594.121	555.34
594.318	713.03
594.515	717.13
594.712	770.38
594.908	878.92
595.105	584.01
595.302	659.79
595.499	764.23
595.696	895.3
595.892	731.47
596.089	807.24
596.286	694.6
596.482	901.45
596.679	815.43
596.876	751.95
597.072	893.26
597.269	803.15
597.466	823.62
597.662	883.02
597.859	831.82
598.055	938.31
598.252	969.03
598.448	1120.58
598.645	1065.29
598.841	1132.87
599.038	1173.83
599.234	1227.07
599.431	1155.4
599.627	1192.26
599.824	1218.88
600.02	1403.2
600.217	1425.73
600.413	1421.63
600.609	1435.97
600.806	1743.16
601.002	1620.28
601.198	1571.13
601.395	1749.31
601.591	1724.73
601.787	1810.75
601.984	2003.25
602.18	2021.69
602.376	1907
602.572	2177.33
602.769	2322.74
602.965	2285.87
603.161	2378.03
603.357	2556.21
603.553	2566.45
603.75	2640.17
603.946	2623.79
604.142	2732.33
604.338	2957.61
604.534	2994.47
604.73	2908.46
604.926	3115.3
605.122	3397.92
605.318	3277.09
605.514	3559.71
605.71	3463.46
605.906	3768.6
606.102	3664.16
606.298	3918.11
606.494	4049.18
606.69	4100.37
606.886	4145.43
607.082	4335.89
607.278	4448.53
607.474	4737.29
607.67	4768.01
607.866	4620.56
608.062	5124.36
608.257	5169.41
608.453	5169.41
608.649	5329.16
608.845	5437.7
609.041	5593.34
609.236	5951.74
609.432	5949.69
609.628	6000.89
609.824	6250.74
610.019	6488.31
610.215	6549.75
610.411	6920.43
610.606	7014.63
610.802	7182.57
610.998	7276.77
611.193	7530.72
611.389	7790.81
611.584	7960.8
611.78	7899.36
611.976	8276.18
612.171	8669.39
612.367	8675.54
612.562	8974.54
612.758	9126.09
612.953	9248.97
613.149	9558.21
613.344	9691.33
613.539	10129.59
613.735	10490.04
613.93	10660.02
614.126	10911.92
614.321	11370.66
614.517	11661.48
614.712	11796.64
614.907	12218.52
615.103	12433.56
615.298	12759.19
615.493	13217.93
615.688	13060.24
615.884	13770.88
616.079	13725.83
616.274	14565.5
616.47	14643.32
616.665	15128.69
616.86	15480.94
617.055	15800.42
617.25	16037.98
617.445	16959.57
617.641	16795.73
617.836	17582.15
618.031	17836.1
618.226	18280.51
618.421	18716.73
618.616	19529.77
618.811	19462.19
619.006	20326.43
619.201	20326.43
619.396	20764.7
619.591	21022.74
619.786	22448.13
619.981	22099.97
620.176	22994.93
620.371	23023.61
620.566	23662.57
620.761	24084.45
620.956	24575.97
621.151	24899.55
621.346	25634.77
621.541	25984.97
621.735	26953.66
621.93	26695.61
622.125	27359.16
622.32	27776.94
622.515	28620.7
622.709	28899.23
622.904	29521.81
623.099	29626.26
623.294	30525.32
623.488	30769.02
623.683	32014.19
623.878	31829.87
624.072	32692.07
624.267	33126.24
624.462	33865.55
624.656	34045.77
624.851	34355.02
625.046	34860.87
625.24	35663.67
625.435	35788.6
625.629	36312.88
625.824	37162.78
626.018	37170.97
626.213	37087.01
626.407	38209.29
626.602	38031.12
626.796	38979.33
626.991	39636.73
627.185	39653.11
627.38	39802.61
627.574	40201.97
627.768	40144.62
627.963	40193.78
628.157	40224.5
628.352	40851.17
628.546	40482.54
628.74	41082.59
628.935	40247.02
629.129	40744.68
629.323	40503.02
629.517	40167.15
629.712	39968.5
629.906	39855.86
630.1	39227.13
630.294	39046.91
630.489	38285.07
630.683	38385.42
630.877	37269.28
631.071	36837.16
631.265	36583.21
631.459	36085.55
631.653	34746.18
631.848	34332.49
632.042	33496.92
632.236	32923.49
632.43	31856.5
632.624	31254.39
632.818	30336.9
633.012	29290.39
633.206	28168.1
633.4	27637.68
633.594	26374.08
633.788	25788.36
633.982	24698.84
634.176	23779.31
634.369	23291.89
634.563	22157.32
634.757	21372.94
634.951	20547.61
635.145	19978.28
635.339	18948.15
635.533	18149.44
635.726	17694.79
635.92	16924.76
636.114	16011.36
636.308	15396.97
636.501	14895.22
636.695	14418.04
636.889	13512.84
637.083	12996.75
637.276	12664.98
637.47	11899.04
637.664	11557.03
637.857	11143.34
638.051	10602.68
638.244	10283.19
638.438	9785.54
638.632	9386.18
638.825	9060.56
639.019	8796.37
639.212	8280.28
639.406	8083.67
639.599	7635.17
639.793	7495.91
639.986	7180.52
640.18	6914.28
640.373	6670.58
640.567	6422.77
640.76	6068.47
640.954	5849.34
641.147	5636.35
641.34	5314.82
641.534	5310.72
641.727	5083.4
641.92	5005.58
642.114	4661.52
642.307	4612.37
642.5	4430.1
642.694	4088.09
642.887	3936.54
643.08	3856.67
643.273	3670.3
643.467	3512.61
643.66	3375.39
643.853	3232.04
644.046	3229.99
644.239	3076.39
644.432	2711.85
644.626	2754.86
644.819	2668.84
645.012	2621.74
645.205	2603.31
645.398	2443.57
645.591	2408.75
645.784	2154.8
645.977	2064.69
646.17	2097.46
646.363	2017.59
646.556	1769.79
646.749	1655.1
646.942	1851.71
647.135	1855.8
647.328	1663.29
647.521	1571.13
647.714	1442.11
647.907	1491.26
648.099	1308.99
648.292	1454.4
648.485	1347.9
648.678	1204.55
648.871	1149.25
649.064	1167.68
649.256	1042.76
649.449	1104.2
649.642	893.26
649.835	1007.94
650.027	995.65
650.22	1067.33
650.413	966.98
650.605	1020.23
650.798	784.71
650.991	751.95
651.183	827.72
651.376	713.03
651.568	688.46
651.761	680.27
651.954	751.95
652.146	575.82
652.339	733.51
652.531	704.84
652.724	577.87
652.916	516.43
653.109	536.91
653.301	756.04
653.494	637.26
653.686	557.39
653.879	629.07
654.071	604.49
654.263	491.85
654.456	381.26
654.648	528.72
654.84	547.15
655.033	416.08
655.225	573.77
655.417	373.07
655.61	506.19
655.802	555.34
655.994	463.18
656.186	352.59
656.379	416.08
656.571	448.85
656.763	352.59
656.955	366.93
657.148	377.17
657.34	420.17
657.532	342.35
657.724	334.16
657.916	352.59
658.108	328.02
658.3	377.17
658.492	272.72
658.684	264.53
658.876	317.78
659.068	211.28
659.26	198.99
659.452	186.71
659.644	264.53
659.836	317.78
660.028	252.24
660.22	250.19
660.412	188.75
660.604	274.77
660.796	227.67
660.988	287.06
661.18	260.43
661.372	307.54
661.563	248.15
661.755	272.72
661.947	233.81
662.139	223.57
662.331	158.03
662.522	160.08
662.714	137.56
662.906	143.7
663.097	141.65
663.289	135.51
663.481	61.78
663.673	162.13
663.864	196.95
664.056	211.28
664.247	106.84
664.439	217.43
664.631	237.91
664.822	256.34
665.014	190.8
665.205	215.38
665.397	164.18
665.588	158.03
665.78	158.03
665.971	235.86
666.163	127.32
666.354	215.38
666.546	80.21
666.737	84.31
666.929	153.94
667.12	135.51
667.311	151.89
667.503	196.95
667.694	139.6
667.885	207.19
668.077	198.99
668.268	61.78
668.459	180.56
668.651	205.14
668.842	188.75
669.033	74.07
669.224	74.07
669.416	323.92
669.607	141.65
669.798	98.64
669.989	246.1
670.18	143.7
670.371	176.47
670.563	76.12
670.754	162.13
670.945	207.19
671.136	205.14
671.327	88.4
671.518	190.8
671.709	278.87
671.9	174.42
672.091	280.91
672.282	172.37
672.473	106.84
672.664	168.27
672.855	133.46
673.046	201.04
673.237	221.52
673.428	121.17
673.619	162.13
673.809	106.84
674	178.51
674.191	237.91
674.382	119.12
674.573	143.7
674.764	233.81
674.954	143.7
675.145	102.74
675.336	115.03
675.527	223.57
675.717	201.04
675.908	147.8
676.099	172.37
676.289	198.99
676.48	16.73
676.671	147.8
676.861	125.27
677.052	223.57
677.243	211.28
677.433	125.27
677.624	235.86
677.814	184.66
678.005	223.57
678.195	344.4
678.386	151.89
678.576	190.8
678.767	117.08
678.957	137.56
679.148	196.95
679.338	301.39
679.529	213.33
679.719	162.13
679.909	252.24
680.1	242
680.29	205.14
680.481	100.69
680.671	248.15
680.861	198.99
681.052	258.39
681.242	145.75
681.432	246.1
681.622	291.15
681.813	135.51
682.003	194.9
682.193	182.61
682.383	225.62
682.573	217.43
682.764	235.86
682.954	211.28
683.144	301.39
683.334	239.95
683.524	258.39
683.714	258.39
683.904	309.58
684.094	221.52
684.284	164.18
684.474	366.93
684.664	266.58
684.854	309.58
685.044	198.99
685.234	217.43
685.424	293.2
685.614	266.58
685.804	371.02
685.994	297.3
686.184	235.86
686.374	309.58
686.564	164.18
686.753	223.57
686.943	94.55
687.133	203.09
687.323	198.99
687.513	276.82
687.702	203.09
687.892	151.89
688.082	215.38
688.272	254.29
688.461	262.48
688.651	332.11
688.841	303.44
689.03	158.03
689.22	207.19
689.41	276.82
689.599	332.11
689.789	231.76
689.979	309.58
690.168	264.53
690.358	260.43
690.547	256.34
690.737	239.95
690.926	209.23
691.116	211.28
691.305	244.05
691.495	268.63
691.684	139.6
691.874	231.76
692.063	174.42
692.252	274.77
692.442	266.58
692.631	141.65
692.82	219.47
693.01	246.1
693.199	215.38
693.388	211.28
693.578	184.66
693.767	250.19
693.956	256.34
694.146	201.04
694.335	274.77
694.524	227.67
694.713	311.63
694.902	192.85
695.092	248.15
695.281	268.63
695.47	209.23
695.659	117.08
695.848	186.71
696.037	88.4
696.226	227.67
696.415	237.91
696.604	317.78
696.793	287.06
696.982	291.15
697.171	274.77
697.36	151.89
697.549	221.52
697.738	133.46
697.927	160.08
698.116	151.89
698.305	293.2
698.494	217.43
698.683	153.94
698.872	332.11
699.061	61.78
699.25	176.47
699.438	170.32
699.627	164.18
699.816	289.1
700.005	182.61
700.193	164.18
700.382	174.42
700.571	313.68
700.76	207.19
700.948	246.1
701.137	250.19
701.326	225.62
701.514	213.33
701.703	239.95
701.892	231.76
702.08	305.49
702.269	293.2
702.457	137.56
702.646	190.8
702.834	194.9
703.023	262.48
703.212	282.96
703.4	219.47
703.589	166.23
703.777	201.04
703.965	217.43
704.154	182.61
704.342	186.71
704.531	139.6
704.719	233.81
704.907	237.91
705.096	129.36
705.284	125.27
705.472	192.85
705.661	270.67
705.849	221.52
706.037	332.11
706.226	254.29
706.414	262.48
706.602	186.71
706.79	219.47
706.979	178.51
707.167	153.94
707.355	135.51
707.543	227.67
707.731	233.81
707.919	256.34
708.107	225.62
708.296	98.64
708.484	209.23
708.672	219.47
708.86	139.6
709.048	198.99
709.236	141.65
709.424	282.96
709.612	219.47
709.8	186.71
709.988	221.52
710.176	309.58
710.364	211.28
710.551	231.76
710.739	184.66
710.927	268.63
711.115	137.56
711.303	272.72
711.491	276.82
711.679	168.27
711.866	297.3
712.054	252.24
712.242	176.47
712.43	237.91
712.617	213.33
712.805	274.77
712.993	209.23
713.181	117.08
713.368	198.99
713.556	188.75
713.744	217.43
713.931	358.74
714.119	225.62
714.306	213.33
714.494	168.27
714.682	211.28
714.869	106.84
715.057	198.99
715.244	145.75
715.432	260.43
715.619	151.89
715.807	182.61
715.994	129.36
716.182	151.89
716.369	285.01
716.556	221.52
716.744	168.27
716.931	86.36
717.119	237.91
717.306	250.19
717.493	227.67
717.681	174.42
717.868	160.08
718.055	217.43
718.242	160.08
718.43	248.15
718.617	223.57
718.804	225.62
718.991	307.54
719.179	201.04
719.366	227.67
719.553	280.91
719.74	262.48
719.927	198.99
720.114	270.67
720.301	203.09
720.488	108.88
720.676	192.85
720.863	317.78
721.05	407.89
721.237	307.54
721.424	266.58
721.611	219.47
721.798	61.78
721.985	127.32
722.172	239.95
722.358	239.95
722.545	246.1
722.732	235.86
722.919	321.87
723.106	201.04
723.293	178.51
723.48	272.72
723.667	137.56
723.853	342.35
724.04	280.91
724.227	334.16
724.414	282.96
724.6	231.76
724.787	338.26
724.974	436.56
725.161	272.72
725.347	268.63
725.534	219.47
725.72	278.87
725.907	235.86
726.094	321.87
726.28	237.91
726.467	178.51
726.653	160.08
726.84	420.17
727.027	407.89
727.213	272.72
727.4	356.69
727.586	280.91
727.773	319.82
727.959	244.05
728.145	266.58
728.332	311.63
728.518	276.82
728.705	282.96
728.891	295.25
729.077	295.25
729.264	198.99
729.45	252.24
729.636	276.82
729.823	307.54
730.009	340.3
730.195	278.87
730.382	244.05
730.568	207.19
730.754	252.24
730.94	213.33
731.126	272.72
731.313	307.54
731.499	242
731.685	262.48
731.871	225.62
732.057	299.34
732.243	303.44
732.429	346.45
732.615	405.84
732.801	315.73
732.987	282.96
733.173	248.15
733.359	258.39
733.545	350.54
733.731	342.35
733.917	368.98
734.103	282.96
734.289	313.68
734.475	252.24
734.661	473.42
734.847	325.97
735.033	254.29
735.219	352.59
735.404	297.3
735.59	196.95
735.776	194.9
735.962	262.48
736.148	254.29
736.333	385.36
736.519	334.16
736.705	223.57
736.89	299.34
737.076	266.58
737.262	209.23
737.447	239.95
737.633	178.51
737.819	340.3
738.004	244.05
738.19	262.48
738.375	330.06
738.561	438.61
738.747	287.06
738.932	211.28
739.118	487.76
739.303	354.64
739.489	291.15
739.674	231.76
739.859	194.9
740.045	309.58
740.23	268.63
740.416	145.75
740.601	287.06
740.786	360.78
740.972	194.9
741.157	256.34
741.342	135.51
741.528	153.94
741.713	377.17
741.898	270.67
742.084	223.57
742.269	213.33
742.454	301.39
742.639	297.3
742.824	252.24
743.01	340.3
743.195	393.55
743.38	330.06
743.565	160.08
743.75	270.67
743.935	383.31
744.12	280.91
744.305	188.75
744.49	219.47
744.675	190.8
744.86	272.72
745.045	282.96
745.23	274.77
745.415	211.28
745.6	276.82
745.785	258.39
745.97	239.95
746.155	285.01
746.34	278.87
746.525	317.78
746.71	371.02
746.895	158.03
747.079	174.42
747.264	182.61
747.449	311.63
747.634	323.92
747.819	280.91
748.003	229.71
748.188	168.27
748.373	229.71
748.557	262.48
748.742	207.19
748.927	227.67
749.111	192.85
749.296	186.71
749.481	260.43
749.665	217.43
749.85	194.9
750.034	276.82
750.219	235.86
750.404	205.14
750.588	242
750.773	145.75
750.957	213.33
751.141	256.34
751.326	246.1
751.51	102.74
751.695	121.17
751.879	168.27
752.064	303.44
752.248	231.76
752.432	311.63
752.617	170.32
752.801	252.24
752.985	192.85
753.17	317.78
753.354	205.14
753.538	147.8
753.722	149.84
753.907	121.17
754.091	209.23
754.275	219.47
754.459	100.69
754.643	174.42
754.828	196.95
755.012	244.05
755.196	133.46
755.38	225.62
755.564	153.94
755.748	192.85
755.932	235.86
756.116	215.38
756.3	229.71
756.484	176.47
756.668	227.67
756.852	61.78
757.036	182.61
757.22	182.61
757.404	112.98
757.588	88.4
757.772	223.57
757.956	184.66
758.14	289.1
758.323	69.97
758.507	203.09
758.691	104.79
758.875	203.09
759.059	252.24
759.242	94.55
759.426	129.36
759.61	186.71
759.794	141.65
759.977	237.91
760.161	465.23
760.345	207.19
760.528	252.24
760.712	194.9
760.895	119.12
761.079	176.47
761.263	61.78
761.446	61.78
761.63	129.36
761.813	186.71
761.997	96.6
762.18	94.55
762.364	209.23
762.547	8.53
762.731	147.8
762.914	67.92
763.098	82.26
763.281	137.56
763.464	135.51
763.648	151.89
763.831	155.99
764.015	106.84
764.198	221.52
764.381	162.13
764.564	45.4
764.748	121.17
764.931	158.03
765.114	110.93
765.297	190.8
765.481	49.49
765.664	86.36
765.847	121.17
766.03	231.76
766.213	84.31
766.397	31.06
766.58	-30.38
766.763	158.03
766.946	143.7
767.129	74.07
767.312	24.92
767.495	131.41
767.678	74.07
767.861	127.32
768.044	86.36
768.227	104.79
768.41	35.16
768.593	104.79
768.776	139.6
768.959	141.65
769.142	151.89
769.324	74.07
769.507	98.64
769.69	55.64
769.873	143.7
770.056	332.11
770.239	76.12
770.421	223.57
770.604	170.32
770.787	37.2
770.97	100.69
771.152	41.3
771.335	121.17
771.518	47.44
771.7	119.12
771.883	168.27
772.066	76.12
772.248	102.74
772.431	190.8
772.613	194.9
772.796	-20.14
772.978	168.27
773.161	102.74
773.343	47.44
773.526	88.4
773.708	-83.63
773.891	43.35
774.073	92.5
774.256	39.25
774.438	192.85
774.621	16.73
774.803	160.08
774.985	41.3
775.168	88.4
775.35	67.92
775.532	110.93
775.715	4.44
775.897	125.27
776.079	88.4
776.261	63.83
776.444	-44.71
776.626	82.26
776.808	108.88
776.99	-48.81
777.173	141.65
777.355	-3.75
777.537	96.6
777.719	129.36
777.901	80.21
778.083	-9.9
778.265	-16.04
778.447	127.32
778.629	2.39
778.811	24.92
778.993	22.87
779.175	170.32
779.357	43.35
779.539	-1.71
779.721	82.26
779.903	41.3
780.085	59.73
780.267	65.88
780.449	41.3
780.631	65.88
780.812	57.68
780.994	55.64
781.176	69.97
781.358	4.44
781.54	-44.71
781.721	35.16
781.903	59.73
782.085	-69.29
782.267	90.45
782.448	-44.71
782.63	22.87
782.812	-5.8
782.993	55.64
783.175	125.27
783.357	24.92
783.538	51.54
783.72	-24.23
783.901	61.78
784.083	80.21
784.264	-5.8
784.446	-54.95
784.627	-67.24
784.809	65.88
784.99	37.2
785.172	-3.75
785.353	35.16
785.535	82.26
785.716	31.06
785.897	-30.38
786.079	-18.09
786.26	14.68
786.441	86.36
786.623	-30.38
786.804	-11.95
786.985	51.54
787.167	29.01
787.348	-5.8
787.529	-30.38
787.71	145.75
787.891	14.68
788.073	-34.47
788.254	-59.05
788.435	149.84
788.616	41.3
788.797	-30.38
788.978	-30.38
789.159	37.2
789.34	90.45
789.522	49.49
789.703	-63.15
789.884	16.73
790.065	45.4
790.246	149.84
790.427	10.58
790.607	201.04
790.788	47.44
790.969	-42.67
791.15	74.07
791.331	-30.38
791.512	-3.75
791.693	0.34
791.874	-83.63
792.054	219.47
792.235	125.27
792.416	-16.04
792.597	-26.28
792.778	26.96
792.958	59.73
793.139	145.75
793.32	33.11
793.5	-93.87
793.681	94.55
793.862	26.96
794.042	39.25
794.223	-50.86
794.404	-52.91
794.584	-69.29
794.765	29.01
794.945	-5.8
795.126	-40.62
795.306	151.89
795.487	-40.62
795.667	45.4
795.848	20.82
796.028	16.73
796.209	2.39
796.389	123.22
796.57	37.2
796.75	22.87
796.93	26.96
797.111	24.92
797.291	-30.38
797.471	43.35
797.652	-65.19
797.832	-30.38
798.012	37.2
798.192	-40.62
798.373	-75.43
798.553	14.68
798.733	123.22
798.913	-24.23
799.093	82.26
799.274	84.31
799.454	22.87
799.634	100.69
799.814	0.34
799.994	55.64
800.174	-1.71
800.354	41.3
800.534	-106.15
800.714	92.5
800.894	-30.38
801.074	-63.15
801.254	-13.99
801.434	16.73
801.614	20.82
801.794	-26.28
801.974	1810.75
802.154	-46.76
802.334	67.92
802.514	37.2
802.693	24.92
802.873	-50.86
803.053	209.23
803.233	33.11
803.413	-44.71
803.592	-59.05
803.772	4.44
803.952	47.44
804.131	-69.29
804.311	35.16
804.491	112.98
804.67	-61.1
804.85	-75.43
805.03	49.49
805.209	45.4
805.389	18.77
805.568	-67.24
805.748	57.68
805.928	-1.71
806.107	51.54
806.287	45.4
806.466	65.88
806.646	2.39
806.825	-50.86
807.004	-9.9
807.184	-18.09
807.363	59.73
807.543	20.82
807.722	2.39
807.901	45.4
808.081	18.77
808.26	-104.11
808.439	-16.04
808.619	53.59
808.798	-18.09
808.977	33.11
809.156	92.5
809.336	108.88
809.515	67.92
809.694	-95.91
809.873	-40.62
810.052	110.93
810.231	102.74
810.411	37.2
810.59	47.44
810.769	67.92
810.948	33.11
811.127	-138.92
811.306	-5.8
811.485	18.77
811.664	121.17
811.843	-11.95
812.022	-50.86
812.201	18.77
812.38	-3.75
812.559	-26.28
812.737	51.54
812.916	-13.99
813.095	16.73
813.274	26.96
813.453	16.73
813.632	72.02
813.811	43.35
813.989	-83.63
814.168	-38.57
814.347	-85.67
814.526	-28.33
814.704	88.4
814.883	104.79
815.062	-143.02
815.24	51.54
815.419	-50.86
815.598	-36.52
815.776	-106.15
815.955	-20.14
816.133	-65.19
816.312	29.01
816.49	-3.75
816.669	-38.57
816.847	-26.28
817.026	20.82
817.204	-77.48
817.383	-44.71
817.561	-73.39
817.74	-52.91
817.918	82.26
818.097	-40.62
818.275	12.63
818.453	76.12
818.632	18.77
818.81	-44.71
818.988	-63.15
819.167	-9.9
819.345	-1.71
819.523	-3.75
819.701	55.64
819.879	121.17
820.058	-18.09
820.236	10.58
820.414	-24.23
820.592	-79.53
820.77	-24.23
820.948	-75.43
821.127	49.49
821.305	-24.23
821.483	-54.95
821.661	80.21
821.839	74.07
822.017	4.44
822.195	-57
822.373	76.12
822.551	-20.14
822.729	-36.52
822.907	-77.48
823.085	49.49
823.262	33.11
823.44	-71.34
823.618	2.39
823.796	39.25
823.974	4.44
824.152	-32.43
824.329	35.16
824.507	12.63
824.685	53.59
824.863	29.01
825.04	-11.95
825.218	-32.43
825.396	-20.14
825.574	-26.28
825.751	-32.43
825.929	80.21
826.107	10.58
826.284	59.73
826.462	-11.95
826.639	-36.52
826.817	-118.44
826.994	8.53
827.172	4.44
827.349	147.8
827.527	2.39
827.704	24.92
827.882	63.83
828.059	35.16
828.237	-7.85
828.414	2.39
828.591	-140.97
828.769	14.68
828.946	-34.47
829.124	90.45
829.301	65.88
829.478	-32.43
829.655	29.01
829.833	4.44
830.01	-77.48
830.187	53.59
830.364	31.06
830.542	-75.43
830.719	102.74
830.896	-61.1
831.073	10.58
831.25	49.49
831.427	76.12
831.604	-28.33
831.782	22.87
831.959	35.16
832.136	-5.8
832.313	-16.04
832.49	-1.71
832.667	0.34
832.844	-1.71
833.021	65.88
833.198	96.6
833.374	35.16
833.551	6.49
833.728	-63.15
833.905	76.12
834.082	-126.63
834.259	41.3
834.436	65.88
834.612	-24.23
834.789	102.74
834.966	-9.9
835.143	-13.99
835.319	-134.82
835.496	76.12
835.673	0.34
835.85	20.82
836.026	22.87
836.203	84.31
836.38	12.63
836.556	55.64
836.733	-57
836.909	65.88
837.086	-93.87
837.262	-65.19
837.439	39.25
837.616	-20.14
837.792	-5.8
837.968	-20.14
838.145	-100.01
838.321	-20.14
838.498	8.53
838.674	55.64
838.851	63.83
839.027	-18.09
839.203	-32.43
839.38	92.5
839.556	-124.58
839.732	88.4
839.909	47.44
840.085	24.92
840.261	-61.1
840.437	115.03
840.614	53.59
840.79	47.44
840.966	88.4
841.142	78.16
841.318	-81.58
841.494	65.88
841.671	61.78
841.847	-75.43
842.023	-75.43
842.199	-9.9
842.375	96.6
842.551	-118.44
842.727	-83.63
842.903	121.17
843.079	-118.44
843.255	112.98
843.431	-24.23
843.607	121.17
843.783	-179.88
843.959	80.21
844.134	22.87
844.31	88.4
844.486	-16.04
844.662	-36.52
844.838	-50.86
845.013	-13.99
845.189	80.21
845.365	-42.67
845.541	-50.86
845.716	-61.1
845.892	26.96
846.068	-65.19
846.244	-57
846.419	0.34
846.595	-69.29
846.77	-100.01
846.946	61.78
847.122	-81.58
847.297	-36.52
847.473	137.56
847.648	-110.25
847.824	-63.15
847.999	-190.12
848.175	10.58
848.35	96.6
848.526	61.78
848.701	51.54
848.876	69.97
849.052	74.07
849.227	0.34
849.403	-9.9
849.578	0.34
849.753	12.63
849.929	26.96
850.104	-54.95
850.279	-18.09
850.454	8.53
850.63	29.01
850.805	43.35
850.98	-1.71
851.155	-9.9
851.33	22.87
851.505	-87.72
851.681	104.79
851.856	0.34
852.031	16.73
852.206	98.64
852.381	-22.19
852.556	12.63
852.731	47.44
852.906	76.12
853.081	-1.71
853.256	55.64
853.431	-85.67
853.606	-83.63
853.781	-9.9
853.956	-153.26
854.131	-24.23
854.305	-3.75
854.48	-34.47
854.655	-16.04
854.83	-22.19
855.005	12.63
855.18	-20.14
855.354	-3.75
855.529	10.58
855.704	-83.63
855.879	8.53
856.053	-104.11
856.228	33.11
856.403	-128.68
856.577	-24.23
856.752	-77.48
856.926	72.02
857.101	-32.43
857.276	-65.19
857.45	53.59
857.625	69.97
857.799	-1.71
857.974	-38.57
858.148	-112.3
858.323	20.82
858.497	-28.33
858.672	-108.2
858.846	-16.04
859.02	45.4
859.195	-97.96
859.369	-89.77
859.543	-32.43
859.718	8.53
859.892	-46.76
860.066	61.78
860.241	-65.19
860.415	-91.82
860.589	4.44
860.763	-16.04
860.938	-71.34
861.112	6.49
861.286	-22.19
861.46	51.54
861.634	-5.8
861.808	94.55
861.982	-147.11
862.157	-22.19
862.331	-46.76
862.505	-87.72
862.679	-63.15
862.853	-36.52
863.027	-100.01
863.201	72.02
863.375	-1.71
863.549	26.96
863.722	2.39
863.896	92.5
864.07	-54.95
864.244	6.49
864.418	92.5
864.592	2.39
864.766	18.77
864.939	84.31
865.113	-28.33
865.287	106.84
865.461	-108.2
865.634	29.01
865.808	29.01
865.982	-95.91
866.156	-40.62
866.329	-149.16
866.503	65.88
866.676	80.21
866.85	4.44
867.024	-50.86
867.197	115.03
867.371	104.79
867.544	4.44
867.718	-40.62
867.891	82.26
868.065	-97.96
868.238	2.39
868.412	86.36
868.585	-9.9
868.759	-57
868.932	-28.33
869.105	-75.43
869.279	-63.15
869.452	-38.57
869.625	61.78
869.799	-67.24
869.972	-87.72
870.145	-116.39
870.319	16.73
870.492	-50.86
870.665	-46.76
870.838	-110.25
871.011	-91.82
871.185	-69.29
871.358	-59.05
871.531	57.68
871.704	-57
871.877	31.06
872.05	-32.43
872.223	-100.01
872.396	-65.19
872.569	117.08
872.742	-116.39
872.915	16.73
873.088	-81.58
873.261	-67.24
873.434	-71.34
873.607	14.68
873.78	80.21
873.953	-95.91
874.126	2.39
874.299	51.54
874.471	-24.23
874.644	8.53
874.817	6.49
874.99	221.52
875.163	0.34
875.335	-63.15
875.508	-87.72
875.681	84.31
875.853	-44.71
876.026	39.25
876.199	-5.8
876.371	31.06
876.544	-30.38
876.717	31.06
876.889	-44.71
877.062	-24.23
877.234	-83.63
877.407	-57
877.579	-48.81
877.752	31.06
877.924	39.25
878.097	49.49
878.269	65.88
878.442	26.96
878.614	2.39
878.786	14.68
878.959	-22.19
879.131	4.44
879.303	-159.4
879.476	41.3
879.648	39.25
879.82	-30.38
879.993	-22.19
880.165	-61.1
880.337	-116.39
880.509	-71.34
880.681	-130.73
880.854	20.82
881.026	119.12
881.198	225.62
881.37	-93.87
881.542	-48.81
881.714	-18.09
881.886	-3.75
882.058	-1.71
882.23	37.2
882.402	-69.29
882.574	2.39
882.746	-13.99
882.918	4.44
883.09	37.2
883.262	0.34
883.434	-26.28
883.606	-61.1
883.778	-57
883.95	121.17
884.122	4.44
884.293	131.41
884.465	14.68
884.637	26.96
884.809	-61.1
884.98	22.87
885.152	43.35
885.324	24.92
885.496	-59.05
885.667	-28.33
885.839	-26.28
886.011	51.54
886.182	16.73
886.354	143.7
886.525	67.92
886.697	-20.14
886.869	-24.23
887.04	-16.04
887.212	0.34
887.383	141.65
887.555	29.01
887.726	-48.81
887.897	-52.91
888.069	-73.39
888.24	96.6
888.412	-36.52
888.583	55.64
888.754	-54.95
888.926	-97.96
889.097	-30.38
889.268	-143.02
889.44	37.2
889.611	-104.11
889.782	-30.38
889.953	37.2
890.125	127.32
890.296	-32.43
890.467	-34.47
890.638	-48.81
890.809	29.01
890.98	-5.8
891.151	-5.8
891.323	2.39
891.494	8.53
891.665	-26.28
891.836	-5.8
892.007	6.49
892.178	61.78
892.349	-48.81
892.52	-85.67
892.691	10.58
892.862	-52.91
893.032	-118.44
893.203	61.78
893.374	57.68
893.545	41.3
893.716	-30.38
893.887	110.93
894.057	51.54
894.228	-5.8
894.399	-42.67
894.57	141.65
894.74	-11.95
894.911	47.44
895.082	-63.15
895.253	-73.39
895.423	-5.8
895.594	-11.95
895.764	4.44
895.935	-48.81
896.106	10.58
896.276	-81.58
896.447	41.3
896.617	39.25
896.788	-73.39
896.958	-97.96
897.129	-36.52
897.299	-57
897.47	49.49
897.64	100.69
897.81	-63.15
897.981	51.54
898.151	-73.39
898.322	-18.09
898.492	37.2
898.662	-32.43
898.832	-67.24
899.003	-44.71
899.173	35.16
899.343	-89.77
899.513	-114.34
