Data from USB4F104151__23__10-42-01-485.txt Node

Date: Wed Feb 26 10:42:01 EST 2025
User: louis
Spectrometer: USB4F10415
Trigger mode: 4
Integration Time (sec): 1.000000E-1
Scans to average: 1
Electric dark correction enabled: true
Nonlinearity correction enabled: false
Boxcar width: 0
XAxis mode: Wavelengths
Number of Pixels in Spectrum: 3648
>>>>>Begin Spectral Data<<<<<
178.204	-455.84
178.424	-455.84
178.644	-455.84
178.864	-314.53
179.084	-406.69
179.304	-68.78
179.524	-48.3
179.744	-21.67
179.964	84.82
180.184	47.96
180.404	11.09
180.624	-23.72
180.844	21.33
181.064	-1.19
181.283	56.15
181.503	-93.35
181.723	35.67
181.943	-48.3
182.163	203.6
182.383	-29.87
182.602	60.24
182.822	158.55
183.042	107.35
183.262	-58.54
183.482	33.62
183.701	45.91
183.921	13.14
184.141	-72.87
184.361	62.29
184.58	93.01
184.8	66.39
185.02	4.95
185.239	101.2
185.459	31.57
185.679	133.97
185.898	-50.35
186.118	58.2
186.338	62.29
186.557	162.64
186.777	17.24
186.997	60.24
187.216	23.38
187.436	201.55
187.655	86.87
187.875	136.02
188.095	41.81
188.314	138.07
188.534	201.55
188.753	-58.54
188.973	107.35
189.192	193.36
189.412	25.43
189.631	23.38
189.851	29.52
190.07	136.02
190.29	-23.72
190.509	17.24
190.729	43.86
190.948	109.4
191.168	275.28
191.387	25.43
191.607	23.38
191.826	72.53
192.045	25.43
192.265	19.29
192.484	64.34
192.704	27.48
192.923	-50.35
193.142	213.84
193.362	154.45
193.581	117.59
193.8	60.24
194.02	62.29
194.239	19.29
194.458	90.96
194.678	-5.29
194.897	-23.72
195.116	70.48
195.335	43.86
195.555	47.96
195.774	-23.72
195.993	86.87
196.212	60.24
196.432	-50.35
196.651	11.09
196.87	39.76
197.089	250.71
197.308	52.05
197.528	58.2
197.747	29.52
197.966	-23.72
198.185	146.26
198.404	19.29
198.623	95.06
198.842	158.55
199.062	47.96
199.281	82.77
199.5	78.68
199.719	43.86
199.938	-7.34
200.157	133.97
200.376	97.11
200.595	80.72
200.814	66.39
201.033	17.24
201.252	174.93
201.471	21.33
201.69	64.34
201.909	11.09
202.128	113.49
202.347	107.35
202.566	60.24
202.785	-21.67
203.004	9.05
203.223	213.84
203.442	88.92
203.661	-19.63
203.879	70.48
204.098	164.69
204.317	-21.67
204.536	109.4
204.755	86.87
204.974	115.54
205.193	15.19
205.411	172.88
205.63	131.92
205.849	25.43
206.068	25.43
206.287	-21.67
206.505	211.79
206.724	41.81
206.943	9.05
207.162	21.33
207.381	76.63
207.599	21.33
207.818	66.39
208.037	-36.01
208.255	115.54
208.474	129.88
208.693	52.05
208.911	99.16
209.13	74.58
209.349	60.24
209.567	86.87
209.786	131.92
210.005	115.54
210.223	90.96
210.442	-58.54
210.661	13.14
210.879	142.16
211.098	19.29
211.316	-19.63
211.535	146.26
211.753	23.38
211.972	29.52
212.191	-11.43
212.409	54.1
212.628	119.64
212.846	-29.87
213.065	52.05
213.283	125.78
213.502	-38.06
213.72	109.4
213.938	33.62
214.157	80.72
214.375	82.77
214.594	27.48
214.812	25.43
215.031	47.96
215.249	99.16
215.467	107.35
215.686	64.34
215.904	64.34
216.122	88.92
216.341	172.88
216.559	99.16
216.778	52.05
216.996	195.41
217.214	99.16
217.432	4.95
217.651	11.09
217.869	25.43
218.087	95.06
218.306	9.05
218.524	117.59
218.742	93.01
218.96	50
219.179	74.58
219.397	37.72
219.615	256.85
219.833	185.17
220.051	-7.34
220.27	174.93
220.488	136.02
220.706	97.11
220.924	-13.48
221.142	-36.01
221.36	9.05
221.578	97.11
221.796	64.34
222.015	70.48
222.233	29.52
222.451	230.23
222.669	-42.15
222.887	76.63
223.105	31.57
223.323	62.29
223.541	-7.34
223.759	146.26
223.977	105.3
224.195	162.64
224.413	37.72
224.631	66.39
224.849	70.48
225.067	299.86
225.285	54.1
225.503	97.11
225.721	-54.44
225.939	123.73
226.157	35.67
226.375	238.42
226.592	4.95
226.81	-25.77
227.028	90.96
227.246	168.79
227.464	109.4
227.682	54.1
227.9	156.5
228.117	74.58
228.335	117.59
228.553	62.29
228.771	95.06
228.989	66.39
229.206	86.87
229.424	-11.43
229.642	37.72
229.86	-31.91
230.077	193.36
230.295	162.64
230.513	109.4
230.731	68.44
230.948	197.46
231.166	162.64
231.384	19.29
231.601	2.9
231.819	205.65
232.037	-11.43
232.254	-44.2
232.472	-3.24
232.689	33.62
232.907	127.83
233.125	50
233.342	-46.25
233.56	-58.54
233.777	17.24
233.995	82.77
234.213	27.48
234.43	62.29
234.648	78.68
234.865	43.86
235.083	119.64
235.3	31.57
235.518	113.49
235.735	189.27
235.953	68.44
236.17	35.67
236.388	13.14
236.605	52.05
236.822	113.49
237.04	172.88
237.257	93.01
237.475	-15.53
237.692	84.82
237.909	52.05
238.127	78.68
238.344	52.05
238.562	41.81
238.779	-36.01
238.996	68.44
239.214	129.88
239.431	72.53
239.648	2.9
239.865	93.01
240.083	99.16
240.3	-19.63
240.517	70.48
240.735	-1.19
240.952	133.97
241.169	56.15
241.386	95.06
241.603	70.48
241.821	-91.31
242.038	152.4
242.255	90.96
242.472	21.33
242.689	103.25
242.907	31.57
243.124	27.48
243.341	86.87
243.558	21.33
243.775	15.19
243.992	0.85
244.209	64.34
244.426	142.16
244.643	103.25
244.86	31.57
245.078	138.07
245.295	33.62
245.512	25.43
245.729	-38.06
245.946	152.4
246.163	99.16
246.38	37.72
246.597	47.96
246.814	35.67
247.031	140.12
247.248	125.78
247.464	121.68
247.681	101.2
247.898	88.92
248.115	133.97
248.332	52.05
248.549	160.59
248.766	174.93
248.983	78.68
249.2	115.54
249.417	131.92
249.633	-21.67
249.85	117.59
250.067	-23.72
250.284	111.44
250.501	101.2
250.717	162.64
250.934	54.1
251.151	84.82
251.368	64.34
251.585	31.57
251.801	29.52
252.018	-58.54
252.235	176.98
252.451	21.33
252.668	66.39
252.885	133.97
253.102	76.63
253.318	17.24
253.535	-40.11
253.752	27.48
253.968	39.76
254.185	-42.15
254.401	68.44
254.618	93.01
254.835	21.33
255.051	121.68
255.268	82.77
255.484	33.62
255.701	113.49
255.917	172.88
256.134	4.95
256.351	33.62
256.567	-23.72
256.784	68.44
257	-9.39
257.217	62.29
257.433	136.02
257.65	47.96
257.866	154.45
258.082	-40.11
258.299	17.24
258.515	45.91
258.732	4.95
258.948	21.33
259.165	72.53
259.381	-46.25
259.597	41.81
259.814	88.92
260.03	50
260.246	60.24
260.463	154.45
260.679	115.54
260.895	25.43
261.112	68.44
261.328	-3.24
261.544	-60.59
261.761	168.79
261.977	54.1
262.193	41.81
262.409	162.64
262.626	11.09
262.842	160.59
263.058	-31.91
263.274	105.3
263.49	131.92
263.707	164.69
263.923	7
264.139	-25.77
264.355	60.24
264.571	156.5
264.787	138.07
265.004	144.21
265.22	31.57
265.436	9.05
265.652	41.81
265.868	123.73
266.084	0.85
266.3	72.53
266.516	9.05
266.732	142.16
266.948	39.76
267.164	158.55
267.38	176.98
267.596	129.88
267.812	222.03
268.028	66.39
268.244	-11.43
268.46	95.06
268.676	0.85
268.892	-3.24
269.108	35.67
269.324	29.52
269.54	76.63
269.756	68.44
269.972	-56.49
270.188	131.92
270.403	17.24
270.619	4.95
270.835	152.4
271.051	101.2
271.267	29.52
271.483	-3.24
271.698	66.39
271.914	129.88
272.13	43.86
272.346	-23.72
272.562	101.2
272.777	133.97
272.993	58.2
273.209	-48.3
273.425	66.39
273.64	-107.69
273.856	103.25
274.072	43.86
274.287	93.01
274.503	76.63
274.719	156.5
274.934	0.85
275.15	-44.2
275.366	31.57
275.581	41.81
275.797	45.91
276.012	105.3
276.228	70.48
276.444	37.72
276.659	179.03
276.875	35.67
277.09	62.29
277.306	19.29
277.521	103.25
277.737	54.1
277.952	119.64
278.168	27.48
278.383	129.88
278.599	84.82
278.814	31.57
279.03	127.83
279.245	215.89
279.461	7
279.676	117.59
279.892	-40.11
280.107	-3.24
280.322	-105.64
280.538	144.21
280.753	11.09
280.969	117.59
281.184	13.14
281.399	138.07
281.615	64.34
281.83	23.38
282.045	-17.58
282.26	31.57
282.476	56.15
282.691	131.92
282.906	93.01
283.122	84.82
283.337	-68.78
283.552	101.2
283.767	-3.24
283.983	111.44
284.198	88.92
284.413	95.06
284.628	-31.91
284.843	35.67
285.058	144.21
285.274	11.09
285.489	-48.3
285.704	84.82
285.919	54.1
286.134	17.24
286.349	56.15
286.564	-7.34
286.779	174.93
286.995	-1.19
287.21	-50.35
287.425	119.64
287.64	-13.48
287.855	129.88
288.07	27.48
288.285	66.39
288.5	119.64
288.715	164.69
288.93	15.19
289.145	35.67
289.36	27.48
289.575	62.29
289.79	174.93
290.004	66.39
290.219	82.77
290.434	-5.29
290.649	-17.58
290.864	39.76
291.079	60.24
291.294	101.2
291.509	17.24
291.724	-40.11
291.938	60.24
292.153	117.59
292.368	58.2
292.583	45.91
292.798	35.67
293.012	144.21
293.227	33.62
293.442	17.24
293.657	152.4
293.871	172.88
294.086	70.48
294.301	123.73
294.516	129.88
294.73	111.44
294.945	-44.2
295.16	50
295.374	119.64
295.589	152.4
295.804	41.81
296.018	99.16
296.233	117.59
296.447	174.93
296.662	62.29
296.877	150.36
297.091	101.2
297.306	37.72
297.52	-44.2
297.735	121.68
297.949	93.01
298.164	70.48
298.378	82.77
298.593	60.24
298.807	41.81
299.022	101.2
299.236	99.16
299.451	52.05
299.665	2.9
299.88	74.58
300.094	2.9
300.309	78.68
300.523	82.77
300.737	33.62
300.952	54.1
301.166	43.86
301.381	-76.97
301.595	-13.48
301.809	78.68
302.024	19.29
302.238	39.76
302.452	160.59
302.667	13.14
302.881	166.74
303.095	54.1
303.309	17.24
303.524	33.62
303.738	37.72
303.952	13.14
304.166	64.34
304.381	11.09
304.595	150.36
304.809	70.48
305.023	107.35
305.237	-60.59
305.452	33.62
305.666	168.79
305.88	95.06
306.094	138.07
306.308	78.68
306.522	103.25
306.736	109.4
306.95	119.64
307.164	93.01
307.379	-11.43
307.593	222.03
307.807	146.26
308.021	76.63
308.235	31.57
308.449	-13.48
308.663	9.05
308.877	201.55
309.091	54.1
309.305	99.16
309.519	-107.69
309.733	162.64
309.947	4.95
310.161	76.63
310.374	105.3
310.588	142.16
310.802	-74.92
311.016	0.85
311.23	78.68
311.444	47.96
311.658	70.48
311.872	150.36
312.085	164.69
312.299	172.88
312.513	160.59
312.727	107.35
312.941	-11.43
313.154	56.15
313.368	84.82
313.582	82.77
313.796	144.21
314.009	86.87
314.223	158.55
314.437	54.1
314.651	88.92
314.864	64.34
315.078	-76.97
315.292	-1.19
315.505	47.96
315.719	54.1
315.933	95.06
316.146	37.72
316.36	-13.48
316.573	107.35
316.787	95.06
317.001	127.83
317.214	9.05
317.428	156.5
317.641	-52.39
317.855	64.34
318.068	66.39
318.282	82.77
318.495	240.47
318.709	142.16
318.922	-31.91
319.136	150.36
319.349	113.49
319.563	13.14
319.776	74.58
319.99	-85.16
320.203	133.97
320.417	39.76
320.63	74.58
320.843	150.36
321.057	35.67
321.27	50
321.483	37.72
321.697	158.55
321.91	76.63
322.124	107.35
322.337	103.25
322.55	50
322.763	107.35
322.977	37.72
323.19	15.19
323.403	166.74
323.617	107.35
323.83	162.64
324.043	-5.29
324.256	58.2
324.469	-11.43
324.683	193.36
324.896	74.58
325.109	4.95
325.322	-62.63
325.535	90.96
325.748	115.54
325.962	-15.53
326.175	117.59
326.388	76.63
326.601	142.16
326.814	82.77
327.027	103.25
327.24	93.01
327.453	-48.3
327.666	88.92
327.879	152.4
328.092	129.88
328.305	107.35
328.518	60.24
328.731	66.39
328.944	133.97
329.157	80.72
329.37	74.58
329.583	123.73
329.796	230.23
330.009	39.76
330.222	54.1
330.435	144.21
330.648	93.01
330.861	131.92
331.073	-3.24
331.286	119.64
331.499	86.87
331.712	11.09
331.925	25.43
332.138	115.54
332.35	78.68
332.563	52.05
332.776	168.79
332.989	39.76
333.202	74.58
333.414	-23.72
333.627	4.95
333.84	15.19
334.053	47.96
334.265	-74.92
334.478	-50.35
334.691	52.05
334.903	109.4
335.116	-58.54
335.329	45.91
335.541	62.29
335.754	66.39
335.966	7
336.179	70.48
336.392	-33.96
336.604	54.1
336.817	70.48
337.029	74.58
337.242	58.2
337.454	133.97
337.667	76.63
337.88	140.12
338.092	107.35
338.305	117.59
338.517	-76.97
338.729	144.21
338.942	148.31
339.154	-19.63
339.367	9.05
339.579	115.54
339.792	27.48
340.004	88.92
340.217	95.06
340.429	148.31
340.641	-29.87
340.854	0.85
341.066	93.01
341.278	168.79
341.491	170.83
341.703	58.2
341.915	-33.96
342.128	136.02
342.34	119.64
342.552	-13.48
342.764	90.96
342.977	66.39
343.189	131.92
343.401	52.05
343.613	-60.59
343.826	43.86
344.038	33.62
344.25	82.77
344.462	13.14
344.674	95.06
344.886	43.86
345.099	76.63
345.311	45.91
345.523	17.24
345.735	23.38
345.947	64.34
346.159	64.34
346.371	-1.19
346.583	-11.43
346.795	150.36
347.007	50
347.219	43.86
347.431	101.2
347.643	170.83
347.855	13.14
348.067	142.16
348.279	-15.53
348.491	70.48
348.703	80.72
348.915	-25.77
349.127	11.09
349.339	82.77
349.551	-7.34
349.763	113.49
349.975	39.76
350.187	103.25
350.399	119.64
350.61	82.77
350.822	9.05
351.034	125.78
351.246	80.72
351.458	50
351.669	140.12
351.881	119.64
352.093	125.78
352.305	111.44
352.517	82.77
352.728	144.21
352.94	78.68
353.152	123.73
353.363	-27.82
353.575	148.31
353.787	187.22
353.999	60.24
354.21	226.13
354.422	-36.01
354.633	52.05
354.845	117.59
355.057	31.57
355.268	64.34
355.48	86.87
355.692	-29.87
355.903	84.82
356.115	-23.72
356.326	-40.11
356.538	113.49
356.749	185.17
356.961	113.49
357.172	72.53
357.384	-3.24
357.595	158.55
357.807	-31.91
358.018	60.24
358.23	39.76
358.441	183.12
358.653	111.44
358.864	17.24
359.075	-48.3
359.287	47.96
359.498	160.59
359.709	136.02
359.921	52.05
360.132	47.96
360.344	43.86
360.555	58.2
360.766	146.26
360.977	103.25
361.189	88.92
361.4	72.53
361.611	127.83
361.823	107.35
362.034	97.11
362.245	-7.34
362.456	58.2
362.667	115.54
362.879	13.14
363.09	148.31
363.301	17.24
363.512	90.96
363.723	9.05
363.935	0.85
364.146	31.57
364.357	9.05
364.568	99.16
364.779	-38.06
364.99	226.13
365.201	62.29
365.412	123.73
365.623	-1.19
365.834	68.44
366.045	27.48
366.256	66.39
366.467	142.16
366.678	107.35
366.889	27.48
367.1	131.92
367.311	140.12
367.522	31.57
367.733	68.44
367.944	125.78
368.155	-21.67
368.366	148.31
368.577	62.29
368.788	52.05
368.999	31.57
369.209	131.92
369.42	156.5
369.631	256.85
369.842	82.77
370.053	47.96
370.264	68.44
370.474	50
370.685	93.01
370.896	25.43
371.107	111.44
371.317	131.92
371.528	80.72
371.739	111.44
371.95	119.64
372.16	70.48
372.371	-23.72
372.582	45.91
372.792	74.58
373.003	66.39
373.214	35.67
373.424	125.78
373.635	7
373.846	97.11
374.056	15.19
374.267	127.83
374.477	31.57
374.688	-29.87
374.898	41.81
375.109	-15.53
375.319	39.76
375.53	191.31
375.74	113.49
375.951	2.9
376.161	129.88
376.372	179.03
376.582	-19.63
376.793	136.02
377.003	33.62
377.214	50
377.424	45.91
377.635	129.88
377.845	17.24
378.055	176.98
378.266	-40.11
378.476	43.86
378.686	152.4
378.897	105.3
379.107	103.25
379.317	84.82
379.528	13.14
379.738	176.98
379.948	-27.82
380.158	93.01
380.369	4.95
380.579	146.26
380.789	99.16
380.999	15.19
381.21	119.64
381.42	187.22
381.63	21.33
381.84	111.44
382.05	93.01
382.261	101.2
382.471	215.89
382.681	-9.39
382.891	160.59
383.101	111.44
383.311	-15.53
383.521	11.09
383.731	146.26
383.941	117.59
384.151	90.96
384.361	-13.48
384.571	105.3
384.781	109.4
384.991	170.83
385.201	193.36
385.411	203.6
385.621	90.96
385.831	107.35
386.041	95.06
386.251	58.2
386.461	185.17
386.671	27.48
386.881	74.58
387.091	68.44
387.301	115.54
387.511	62.29
387.72	152.4
387.93	125.78
388.14	-58.54
388.35	82.77
388.56	129.88
388.769	160.59
388.979	39.76
389.189	-7.34
389.399	82.77
389.609	39.76
389.818	84.82
390.028	95.06
390.238	154.45
390.447	-27.82
390.657	56.15
390.867	58.2
391.076	-64.68
391.286	4.95
391.496	35.67
391.705	43.86
391.915	133.97
392.125	146.26
392.334	43.86
392.544	176.98
392.753	90.96
392.963	47.96
393.172	174.93
393.382	95.06
393.591	232.27
393.801	29.52
394.01	232.27
394.22	86.87
394.429	66.39
394.639	66.39
394.848	131.92
395.058	62.29
395.267	131.92
395.477	74.58
395.686	78.68
395.895	181.07
396.105	260.95
396.314	150.36
396.524	11.09
396.733	52.05
396.942	170.83
397.152	70.48
397.361	146.26
397.57	78.68
397.78	121.68
397.989	90.96
398.198	226.13
398.407	21.33
398.617	33.62
398.826	115.54
399.035	-56.49
399.244	138.07
399.453	80.72
399.663	86.87
399.872	160.59
400.081	21.33
400.29	191.31
400.499	25.43
400.708	76.63
400.917	37.72
401.127	-29.87
401.336	47.96
401.545	242.51
401.754	158.55
401.963	138.07
402.172	76.63
402.381	33.62
402.59	31.57
402.799	80.72
403.008	215.89
403.217	93.01
403.426	84.82
403.635	0.85
403.844	113.49
404.053	29.52
404.262	82.77
404.471	189.27
404.68	74.58
404.888	23.38
405.097	144.21
405.306	97.11
405.515	140.12
405.724	88.92
405.933	144.21
406.142	146.26
406.35	148.31
406.559	0.85
406.768	88.92
406.977	156.5
407.185	148.31
407.394	66.39
407.603	-15.53
407.812	62.29
408.02	166.74
408.229	25.43
408.438	185.17
408.646	-29.87
408.855	70.48
409.064	125.78
409.272	72.53
409.481	47.96
409.69	19.29
409.898	-19.63
410.107	109.4
410.315	115.54
410.524	35.67
410.733	74.58
410.941	158.55
411.15	121.68
411.358	129.88
411.567	183.12
411.775	109.4
411.984	37.72
412.192	103.25
412.401	31.57
412.609	181.07
412.818	201.55
413.026	93.01
413.234	64.34
413.443	25.43
413.651	-60.59
413.86	58.2
414.068	189.27
414.276	174.93
414.485	35.67
414.693	219.99
414.901	168.79
415.11	142.16
415.318	68.44
415.526	86.87
415.734	103.25
415.943	17.24
416.151	154.45
416.359	68.44
416.567	125.78
416.776	88.92
416.984	123.73
417.192	136.02
417.4	97.11
417.608	62.29
417.817	56.15
418.025	181.07
418.233	170.83
418.441	45.91
418.649	-7.34
418.857	121.68
419.065	76.63
419.273	62.29
419.481	133.97
419.689	25.43
419.897	15.19
420.105	43.86
420.313	236.37
420.521	187.22
420.729	222.03
420.937	-17.58
421.145	2.9
421.353	150.36
421.561	248.66
421.769	158.55
421.977	0.85
422.185	84.82
422.393	66.39
422.601	138.07
422.809	150.36
423.017	107.35
423.224	174.93
423.432	211.79
423.64	113.49
423.848	250.71
424.056	27.48
424.263	248.66
424.471	111.44
424.679	215.89
424.887	4.95
425.094	195.41
425.302	109.4
425.51	68.44
425.718	125.78
425.925	90.96
426.133	45.91
426.341	240.47
426.548	119.64
426.756	88.92
426.964	84.82
427.171	117.59
427.379	111.44
427.586	82.77
427.794	166.74
428.001	133.97
428.209	101.2
428.417	185.17
428.624	174.93
428.832	168.79
429.039	172.88
429.247	80.72
429.454	174.93
429.662	211.79
429.869	187.22
430.076	185.17
430.284	183.12
430.491	265.04
430.699	279.38
430.906	250.71
431.114	156.5
431.321	222.03
431.528	187.22
431.736	174.93
431.943	222.03
432.15	224.08
432.358	312.14
432.565	301.9
432.772	105.3
432.979	312.14
433.187	164.69
433.394	265.04
433.601	136.02
433.808	254.8
434.016	369.49
434.223	303.95
434.43	330.58
434.637	277.33
434.844	357.2
435.052	250.71
435.259	330.58
435.466	377.68
435.673	392.02
435.88	355.15
436.087	328.53
436.294	336.72
436.501	451.41
436.708	312.14
436.915	420.69
437.122	467.79
437.329	301.9
437.537	365.39
437.743	443.21
437.95	531.28
438.157	451.41
438.364	490.32
438.571	533.33
438.778	551.76
438.985	559.95
439.192	623.44
439.399	551.76
439.606	518.99
439.813	633.68
440.02	725.83
440.227	865.1
440.433	645.96
440.64	691.02
440.847	641.87
441.054	715.59
441.261	840.52
441.467	758.6
441.674	746.31
441.881	912.2
442.088	774.99
442.294	889.67
442.501	947.01
442.708	936.78
442.914	940.87
443.121	1043.27
443.328	1051.46
443.534	1102.66
443.741	1180.48
443.948	1022.79
444.154	1168.2
444.361	1313.6
444.568	1243.97
444.774	1289.03
444.981	1284.93
445.187	1381.18
445.394	1471.29
445.6	1577.79
445.807	1637.18
446.013	1583.93
446.22	1571.65
446.426	1637.18
446.633	1760.06
446.839	2014.01
447.046	1839.93
447.252	2059.06
447.459	2026.29
447.665	2016.05
447.871	2186.04
448.078	2329.39
448.284	2200.37
448.491	2470.7
448.697	2378.55
448.903	2562.86
449.11	2714.41
449.316	2634.54
449.522	2945.83
449.728	3076.9
449.935	2945.83
450.141	3050.28
450.347	3300.13
450.553	3347.23
450.76	3304.23
450.966	3429.15
451.172	3640.09
451.378	3808.03
451.584	4031.26
451.791	4297.49
451.997	4264.72
452.203	4379.41
452.409	4567.82
452.615	4842.25
452.821	4664.08
453.027	4784.91
453.233	5415.68
453.44	5063.43
453.646	5587.71
453.852	5421.83
454.058	5851.9
454.264	6050.55
454.47	6451.95
454.676	6238.97
454.882	7004.91
455.088	6810.35
455.294	7377.64
455.5	7596.77
455.705	7856.86
455.911	7858.91
456.117	8123.1
456.323	8463.06
456.529	8565.46
456.735	9294.54
456.941	9448.13
457.147	9929.41
457.352	9958.08
457.558	10578.61
457.764	10963.63
457.97	11426.47
458.176	11909.79
458.381	12380.82
458.587	12788.37
458.793	13021.84
458.999	13269.64
459.204	14936.69
459.41	15338.09
459.616	15014.51
459.821	15927.91
460.027	16671.32
460.233	17513.03
460.438	17330.76
460.644	18580.03
460.85	18633.27
461.055	19311.15
461.261	20410.91
461.466	20025.89
461.672	20517.4
461.878	22858.23
462.083	22675.96
462.289	23179.76
462.494	24273.38
462.7	23919.08
462.905	24461.79
463.111	26386.88
463.316	27877.8
463.522	28096.94
463.727	29069.72
463.932	30509.44
464.138	31185.27
464.343	32522.6
464.549	32545.12
464.754	34822.47
464.959	35879.22
465.165	36526.38
465.37	35952.94
465.575	35995.95
465.781	38525.19
465.986	40138.99
466.191	38824.2
466.397	39471.36
466.602	38793.48
466.807	41036
467.012	41103.59
467.218	42541.26
467.423	42082.52
467.628	43403.46
467.833	45820.06
468.038	44947.62
468.244	44343.47
468.449	46311.57
468.654	45670.56
468.859	45496.48
469.064	45263.01
469.269	44384.43
469.474	44644.52
469.679	46026.9
469.885	44751.02
470.09	45439.14
470.295	45392.03
470.5	44185.78
470.705	44697.77
470.91	44034.23
471.115	43116.74
471.32	43849.91
471.525	43690.17
471.73	42414.29
471.935	42111.19
472.139	40298.73
472.344	40677.61
472.549	40210.67
472.754	39860.47
472.959	38979.84
473.164	37357.85
473.369	37026.08
473.574	37832.98
473.778	37093.66
473.983	36702.5
474.188	35932.47
474.393	34003.28
474.598	34107.72
474.802	33454.42
475.007	32932.19
475.212	32975.2
475.417	31879.53
475.621	30810.5
475.826	30935.42
476.031	30034.32
476.235	29436.31
476.44	29297.05
476.645	28617.12
476.849	28346.79
477.054	27984.3
477.259	27283.89
477.463	27195.83
477.668	26505.66
477.872	26487.23
478.077	25977.29
478.282	24943.06
478.486	24902.11
478.691	24644.06
478.895	24492.51
479.1	24361.44
479.304	24170.98
479.509	23269.87
479.713	23593.45
479.918	23169.52
480.122	22602.24
480.326	22702.59
480.531	22706.68
480.735	22428.16
480.94	21930.5
481.144	22512.13
481.348	21748.23
481.553	21758.47
481.757	21465.61
481.961	21410.32
482.166	21551.63
482.37	20863.51
482.574	20652.57
482.778	20726.3
482.983	20789.78
483.187	20582.94
483.391	20292.13
483.595	19788.33
483.8	19669.55
484.004	19817
484.208	19792.42
484.412	19522.09
484.616	19253.81
484.821	18973.24
485.025	18707
485.229	18741.82
485.433	18209.34
485.637	18287.17
485.841	17961.54
486.045	17707.59
486.249	17730.12
486.453	17052.24
486.657	17048.15
486.861	16683.61
487.065	16075.36
487.269	16443.99
487.473	15637.09
487.677	15919.71
487.881	15886.95
488.085	15219.31
488.289	15295.08
488.493	14604.92
488.697	14633.59
488.901	14338.68
489.105	13728.39
489.309	13795.97
489.512	13795.97
489.716	13611.65
489.92	13032.08
490.124	12989.07
490.328	12763.79
490.531	12346.01
490.735	12333.72
490.939	12018.33
491.143	11666.08
491.346	11451.05
491.55	11551.4
491.754	11027.12
491.958	11440.81
492.161	11051.69
492.365	10916.53
492.569	10568.37
492.772	10662.58
492.976	10289.85
493.18	10197.69
493.383	10478.26
493.587	9906.88
493.79	10091.2
493.994	9710.27
494.197	9704.13
494.401	9491.14
494.605	9441.99
494.808	9331.4
495.012	9648.83
495.215	9409.22
495.419	9343.69
495.622	9280.2
495.825	9284.3
496.029	8952.52
496.232	9177.8
496.436	8809.17
496.639	9132.75
496.843	8944.33
497.046	8991.44
497.249	9013.96
497.453	8950.48
497.656	9026.25
497.859	9089.74
498.063	9046.73
498.266	9206.47
498.469	8944.33
498.673	9104.07
498.876	9272.01
499.079	9333.45
499.282	9173.71
499.485	9575.11
499.689	9372.36
499.892	9519.81
500.095	9353.93
500.298	9634.5
500.501	9482.95
500.705	9704.13
500.908	9693.89
501.111	9657.03
501.314	9693.89
501.517	9863.87
501.72	10150.59
501.923	10209.98
502.126	10322.62
502.329	10523.32
502.532	10570.42
502.735	10644.15
502.938	11004.59
503.141	10838.7
503.344	10877.62
503.547	11147.95
503.75	11483.81
503.953	11428.52
504.156	11739.81
504.359	11840.16
504.562	11860.64
504.765	12249.75
504.968	12540.57
505.17	12669.59
505.373	12651.16
505.576	12950.16
505.779	13042.32
505.982	13099.66
506.185	13720.2
506.387	13507.21
506.59	13879.94
506.793	14428.79
506.996	14467.7
507.198	15131.25
507.401	15116.91
507.604	15247.98
507.807	15950.43
508.009	15921.76
508.212	16243.29
508.415	16644.7
508.617	16835.16
508.82	16998.99
509.022	17300.05
509.225	18004.55
509.428	18029.12
509.63	18563.64
509.833	18659.9
510.035	19870.25
510.238	19698.22
510.44	20173.35
510.643	20662.81
510.845	20980.25
511.048	21408.27
511.25	22067.72
511.453	22094.34
511.655	23486.96
511.858	23523.82
512.06	24044.01
512.262	24584.67
512.465	24895.96
512.667	25639.37
512.87	26012.1
513.072	26476.99
513.274	27341.24
513.477	27806.13
513.679	28809.63
513.881	29362.58
514.084	29899.15
514.286	30181.77
514.488	30802.3
514.69	31891.82
514.893	32274.79
515.095	33018.21
515.297	33728.85
515.499	34330.95
515.701	35344.7
515.904	36098.35
516.106	36852
516.308	37339.42
516.51	38146.32
516.712	38756.61
516.914	39344.38
517.116	40734.95
517.318	40993
517.52	41789.66
517.722	42176.72
517.925	43442.37
518.127	43970.74
518.329	44644.52
518.531	44636.33
518.733	45842.59
518.935	46782.6
519.136	46983.3
519.338	48001.14
519.54	48556.14
519.742	49776.73
519.944	50059.35
520.146	50868.3
520.348	51759.17
520.55	52041.79
520.752	52688.95
520.954	53536.8
521.155	53626.92
521.357	54798.35
521.559	55265.29
521.761	56213.5
521.963	56236.03
522.164	56911.86
522.366	56897.52
522.568	58056.67
522.77	57696.23
522.971	59125.71
523.173	58615.77
523.375	59127.76
523.576	59279.31
523.778	59074.51
523.98	59865.03
524.181	60110.78
524.383	60024.77
524.584	60725.17
524.786	60829.62
524.988	60436.41
525.189	61116.34
525.391	60999.6
525.592	61409.2
525.794	61216.69
525.995	61216.69
526.197	61114.29
526.398	60786.61
526.6	60835.77
526.801	60995.51
527.003	60526.52
527.204	60495.8
527.406	60452.79
527.607	59948.99
527.808	59938.75
528.01	58763.22
528.211	59500.49
528.412	59750.34
528.614	58922.96
528.815	58634.2
529.016	58656.73
529.218	57286.64
529.419	57268.2
529.62	56856.56
529.822	55986.18
530.023	56094.72
530.224	55187.47
530.425	54927.38
530.626	53530.66
530.828	53221.42
531.029	53569.57
531.23	52437.05
531.431	51974.2
531.632	51638.34
531.833	51365.96
532.035	50309.21
532.236	49834.08
532.437	49158.25
532.638	48705.65
532.839	48101.5
533.04	47775.87
533.241	46616.72
533.442	47161.48
533.643	45992.09
533.844	45349.03
534.045	44740.78
534.246	43835.58
534.447	43698.36
534.648	42692.81
534.849	42543.31
535.05	41662.68
535.251	41087.2
535.451	40554.73
535.652	40167.66
535.853	39801.08
536.054	39366.91
536.255	38846.72
536.456	37949.71
536.657	38160.66
536.857	36997.41
537.058	36407.59
537.259	36124.97
537.46	35764.53
537.66	35184.96
537.861	34550.09
538.062	34232.65
538.263	33450.33
538.463	33386.84
538.664	33372.5
538.865	32450.92
539.065	32678.24
539.266	31609.2
539.466	31574.39
539.667	30986.62
539.868	30957.95
540.068	30402.95
540.269	30159.24
540.469	29835.66
540.67	29206.94
540.87	28723.62
541.071	28604.83
541.271	28023.21
541.472	28176.81
541.672	27347.38
541.873	27144.63
542.073	26726.85
542.274	26685.89
542.474	26429.89
542.675	25819.6
542.875	26077.64
543.075	25625.04
543.276	24967.64
543.476	25201.11
543.676	24566.24
543.877	24820.19
544.077	24175.08
544.277	24062.44
544.478	23570.93
544.678	23572.97
544.878	22954.49
545.078	22852.09
545.279	22739.45
545.479	22016.52
545.679	22069.76
545.879	21725.71
546.079	21379.6
546.28	21332.5
546.48	20929.05
546.68	20806.17
546.88	20757.02
547.08	20374.05
547.28	20109.86
547.48	19929.64
547.68	19661.35
547.88	19280.43
548.081	19288.62
548.281	18981.43
548.481	18465.34
548.681	18639.42
548.881	18313.79
549.081	17846.85
549.28	17660.49
549.48	17422.92
549.68	17293.9
549.88	17136.21
550.08	16591.45
550.28	16716.37
550.48	16421.47
550.68	16040.54
550.88	15653.48
551.08	15381.1
551.279	15639.14
551.479	15026.8
551.679	14916.21
551.879	14756.47
552.079	14666.36
552.278	14330.49
552.478	14244.48
552.678	13884.03
552.878	13898.37
553.077	13339.27
553.277	13232.78
553.477	13331.08
553.676	12892.82
553.876	12855.95
554.076	12679.83
554.275	12413.59
554.475	12276.38
554.674	12092.06
554.874	11664.04
555.074	11442.85
555.273	11465.38
555.473	11141.8
555.672	11025.07
555.872	10670.77
556.071	10744.5
556.271	10719.92
556.47	10449.59
556.67	10015.42
556.869	10177.21
557.068	10050.24
557.268	9695.94
557.467	9530.05
557.667	9601.73
557.866	9294.54
558.065	8927.95
558.265	9054.92
558.464	8674
558.663	8776.4
558.863	8712.91
559.062	8442.58
559.261	8157.91
559.461	8319.7
559.66	7844.57
559.859	7801.57
560.058	7723.74
560.258	7637.73
560.457	7568.1
560.656	7250.66
560.855	7275.24
561.054	7334.63
561.253	6974.19
561.453	7004.91
561.652	6890.22
561.851	6759.15
562.05	6595.31
562.249	6562.55
562.448	6376.18
562.647	6159.1
562.846	6263.54
563.045	6073.08
563.244	6064.89
563.443	6171.38
563.642	5911.29
563.841	5696.25
564.04	5661.44
564.239	5649.15
564.438	5462.79
564.637	5399.3
564.836	5567.23
565.035	5247.75
565.234	5274.37
565.432	5188.36
565.631	5036.81
565.83	5208.84
566.029	4868.88
566.228	4858.64
566.427	4848.4
566.625	4516.62
566.824	4647.69
567.023	4666.13
567.222	4578.06
567.42	4469.52
567.619	4408.08
567.818	4348.69
568.016	4381.46
568.215	4291.35
568.414	4096.79
568.612	4117.27
568.811	4172.57
569.01	4049.69
569.208	3928.86
569.407	3896.09
569.605	3781.4
569.804	3656.48
570.002	3644.19
570.201	3629.85
570.4	3629.85
570.598	3445.54
570.797	3396.39
570.995	3435.3
571.193	3560.22
571.392	3396.39
571.59	3158.82
571.789	3300.13
571.987	3328.8
572.186	3324.71
572.384	3115.81
572.582	3175.2
572.781	3158.82
572.979	2888.49
573.177	2874.15
573.376	2868.01
573.574	2937.64
573.772	2810.67
573.971	2788.14
574.169	2622.25
574.367	2773.8
574.565	2605.87
574.763	2538.29
574.962	2585.39
575.16	2612.01
575.358	2538.29
575.556	2558.77
575.754	2507.57
575.952	2343.73
576.151	2339.63
576.349	2380.59
576.547	2167.6
576.745	2227
576.943	2308.91
577.141	2227
577.339	2116.41
577.537	2046.77
577.735	2075.45
577.933	1958.71
578.131	2032.44
578.329	2130.74
578.527	1897.27
578.725	1956.66
578.923	1762.11
579.121	1917.75
579.319	1747.77
579.516	1786.68
579.714	1987.38
579.912	1764.15
580.11	1657.66
580.308	1731.39
580.506	1651.52
580.704	1534.78
580.901	1567.55
581.099	1702.72
581.297	1545.02
581.495	1669.95
581.692	1526.59
581.89	1647.42
582.088	1545.02
582.285	1530.69
582.483	1399.62
582.681	1385.28
582.878	1385.28
583.076	1344.32
583.274	1385.28
583.471	1520.45
583.669	1280.83
583.866	1231.68
584.064	1264.45
584.262	1166.15
584.459	1282.88
584.657	1319.75
584.854	1168.2
585.052	1198.92
585.249	1151.81
585.447	1106.76
585.644	1039.17
585.841	1203.01
586.039	1155.91
586.236	1155.91
586.434	1108.8
586.631	1024.84
586.828	1094.47
587.026	1041.22
587.223	944.97
587.42	1002.31
587.618	1002.31
587.815	1053.51
588.012	1053.51
588.21	873.29
588.407	1014.6
588.604	1086.28
588.801	893.77
588.999	963.4
589.196	969.54
589.393	873.29
589.59	885.58
589.787	951.11
589.984	840.52
590.182	963.4
590.379	824.14
590.576	951.11
590.773	928.58
590.97	852.81
591.167	873.29
591.364	930.63
591.561	854.86
591.758	985.93
591.955	856.9
592.152	740.17
592.349	738.12
592.546	762.7
592.743	770.89
592.94	793.42
593.137	848.71
593.334	889.67
593.531	957.25
593.727	795.47
593.924	824.14
594.121	803.66
594.318	740.17
594.515	897.86
594.712	1010.5
594.908	990.02
595.105	772.94
595.302	844.62
595.499	897.86
595.696	1145.67
595.892	928.58
596.089	947.01
596.286	867.14
596.482	1069.89
596.679	992.07
596.876	992.07
597.072	1096.52
597.269	1028.93
597.466	1067.85
597.662	1084.23
597.859	1098.56
598.055	1160
598.252	1198.92
598.448	1305.41
598.645	1307.46
598.841	1295.17
599.038	1473.34
599.234	1504.06
599.431	1588.03
599.627	1604.41
599.824	1667.9
600.02	1573.69
600.217	1674.04
600.413	1874.74
600.609	1727.29
600.806	2198.32
601.002	2057.01
601.198	1950.52
601.395	2022.2
601.591	2214.71
601.787	2366.26
601.984	2384.69
602.18	2468.66
602.376	2489.14
602.572	2704.17
602.769	2747.18
602.965	2726.7
603.161	2917.16
603.357	3072.81
603.553	3146.53
603.75	3103.53
603.946	3418.91
604.142	3388.19
604.338	3629.85
604.534	3605.28
604.73	3855.13
604.926	3873.56
605.122	4127.51
605.318	4092.69
605.514	4289.3
605.71	4455.19
605.906	4535.06
606.102	4647.69
606.298	4811.53
606.494	5001.99
606.69	5231.37
606.886	5139.21
607.082	5333.76
607.278	5448.45
607.474	5778.17
607.67	5845.76
607.866	5913.34
608.062	6234.87
608.257	6423.28
608.453	6515.44
608.649	6701.81
608.845	6804.21
609.041	6992.62
609.236	7246.57
609.432	7559.91
609.628	7660.26
609.824	7949.02
610.019	8063.71
610.215	8301.27
610.411	8532.69
610.606	8800.98
610.802	9001.68
610.998	9114.31
611.193	9618.11
611.389	9472.71
611.584	9761.47
611.78	10207.93
611.976	10271.42
612.171	10623.67
612.367	11053.74
612.562	11340.46
612.758	11283.11
612.953	11430.57
613.149	12221.08
613.344	12219.03
613.539	12901.01
613.735	13021.84
613.93	13300.36
614.126	13335.18
614.321	14371.45
614.517	14551.67
614.712	14897.78
614.907	15211.12
615.103	15850.08
615.298	15940.19
615.493	16544.34
615.688	16665.18
615.884	17441.36
616.079	17353.29
616.274	18072.13
616.47	18364.99
616.665	19071.54
616.86	19474.99
617.055	20073
617.25	20398.62
617.445	21236.24
617.641	21385.74
617.836	21651.98
618.031	22301.19
618.226	23079.41
618.421	23368.18
618.616	24465.89
618.811	24508.9
619.006	25434.58
619.201	25602.51
619.396	26421.7
619.591	26681.79
619.786	27822.51
619.981	27828.65
620.176	28623.26
620.371	29073.82
620.566	29854.09
620.761	30132.62
620.956	31142.27
621.151	31181.18
621.346	32538.98
621.541	32379.24
621.735	34083.15
621.93	33575.25
622.125	34621.77
622.32	34787.65
622.515	35815.73
622.709	36202.8
622.904	37062.94
623.099	37683.48
623.294	38480.14
623.488	38953.22
623.683	39960.82
623.878	39704.82
624.072	40759.53
624.267	41453.79
624.462	42064.08
624.656	42381.52
624.851	42997.96
625.046	43602.11
625.24	44497.07
625.435	44734.63
625.629	45537.44
625.824	45934.74
626.018	46860.43
626.213	46491.79
626.407	47675.52
626.602	48115.83
626.796	48687.21
626.991	49193.06
627.185	49133.67
627.38	49786.97
627.574	49944.67
627.768	50055.26
627.963	50550.87
628.157	50260.05
628.352	50849.87
628.546	50255.96
628.74	51185.74
628.935	50559.06
629.129	50778.19
629.323	50473.04
629.517	49979.48
629.712	50075.74
629.906	49629.28
630.1	48851.05
630.294	49027.18
630.489	48195.7
630.683	48072.82
630.877	46604.43
631.071	46274.71
631.265	45549.73
631.459	44806.31
631.653	43299.01
631.848	42725.58
632.042	41201.89
632.236	41124.07
632.43	39686.39
632.624	38613.26
632.818	37533.98
633.012	36495.66
633.206	35307.83
633.4	34464.07
633.594	32741.73
633.788	32094.57
633.982	31066.49
634.176	30153.1
634.369	28617.12
634.563	27654.58
634.757	26708.41
634.951	25903.56
635.145	24609.25
635.339	23546.35
635.533	22800.89
635.726	21996.04
635.92	20709.91
636.114	20412.96
636.308	19196.46
636.501	18709.05
636.695	17853
636.889	16800.34
637.083	16396.89
637.276	15891.04
637.47	15096.43
637.664	14529.14
637.857	14123.65
638.051	13425.29
638.244	12806.8
638.438	12346.01
638.632	11901.6
638.825	11195.05
639.019	10894
639.212	10261.18
639.406	10212.03
639.599	9652.93
639.793	9265.86
639.986	8862.41
640.18	8493.78
640.373	8172.25
640.567	8024.79
640.76	7635.68
640.954	7420.64
641.147	7099.11
641.34	6951.66
641.534	6357.75
641.727	6329.08
641.92	6040.31
642.114	5845.76
642.307	5604.1
642.5	5653.25
642.694	5243.65
642.887	4924.17
643.08	4891.4
643.273	4746
643.467	4551.44
643.66	4109.08
643.853	4078.36
644.046	3926.81
644.239	3781.4
644.432	3560.22
644.626	3586.85
644.819	3492.64
645.012	3318.56
645.205	3177.25
645.398	3062.57
645.591	2814.76
645.784	2734.89
645.977	2470.7
646.17	2609.97
646.363	2456.37
646.556	2351.92
646.749	2337.59
646.942	2255.67
647.135	2104.12
647.328	2042.68
647.521	1985.34
647.714	1856.31
647.907	1819.45
648.099	1704.76
648.292	1735.48
648.485	1555.26
648.678	1504.06
648.871	1508.16
649.064	1581.89
649.256	1403.71
649.449	1293.12
649.642	1274.69
649.835	1250.11
650.027	1121.09
650.22	1231.68
650.413	1088.32
650.605	1149.76
650.798	1030.98
650.991	1039.17
651.183	1000.26
651.376	1006.41
651.568	998.21
651.761	877.38
651.954	951.11
652.146	858.95
652.339	912.2
652.531	861
652.724	822.09
652.916	748.36
653.109	711.5
653.301	848.71
653.494	811.85
653.686	602.96
653.879	713.55
654.071	742.22
654.263	500.56
654.456	512.85
654.648	746.31
654.84	588.62
655.033	453.45
655.225	652.11
655.417	451.41
655.61	635.72
655.802	602.96
655.994	637.77
656.186	414.54
656.379	625.48
656.571	396.11
656.763	420.69
656.955	412.5
657.148	418.64
657.34	580.43
657.532	355.15
657.724	373.58
657.916	404.3
658.108	439.12
658.3	480.08
658.492	389.97
658.684	246.61
658.876	383.82
659.068	258.9
659.26	281.43
659.452	365.39
659.644	295.76
659.836	410.45
660.028	281.43
660.22	271.19
660.412	193.36
660.604	365.39
660.796	308.05
660.988	412.5
661.18	281.43
661.372	291.66
661.563	244.56
661.755	262.99
661.947	185.17
662.139	224.08
662.331	320.34
662.522	238.42
662.714	215.89
662.906	166.74
663.097	187.22
663.289	207.7
663.481	119.64
663.673	295.76
663.864	203.6
664.056	383.82
664.247	168.79
664.439	306
664.631	271.19
664.822	353.1
665.014	228.18
665.205	201.55
665.397	193.36
665.588	148.31
665.78	224.08
665.971	230.23
666.163	97.11
666.354	260.95
666.546	133.97
666.737	156.5
666.929	197.46
667.12	119.64
667.311	185.17
667.503	164.69
667.694	246.61
667.885	246.61
668.077	207.7
668.268	60.24
668.459	215.89
668.651	199.51
668.842	224.08
669.033	99.16
669.224	152.4
669.416	351.06
669.607	107.35
669.798	197.46
669.989	252.75
670.18	156.5
670.371	238.42
670.563	90.96
670.754	254.8
670.945	260.95
671.136	267.09
671.327	228.18
671.518	213.84
671.709	338.77
671.9	215.89
672.091	273.23
672.282	203.6
672.473	256.85
672.664	117.59
672.855	201.55
673.046	176.98
673.237	320.34
673.428	162.64
673.619	258.9
673.809	203.6
674	312.14
674.191	269.14
674.382	150.36
674.573	166.74
674.764	207.7
674.954	187.22
675.145	107.35
675.336	174.93
675.527	209.75
675.717	197.46
675.908	119.64
676.099	123.73
676.289	293.71
676.48	82.77
676.671	215.89
676.861	172.88
677.052	213.84
677.243	181.07
677.433	181.07
677.624	295.76
677.814	187.22
678.005	254.8
678.195	353.1
678.386	148.31
678.576	172.88
678.767	156.5
678.957	185.17
679.148	295.76
679.338	355.15
679.529	205.65
679.719	207.7
679.909	320.34
680.1	291.66
680.29	328.53
680.481	105.3
680.671	369.49
680.861	240.47
681.052	332.62
681.242	205.65
681.432	291.66
681.622	334.67
681.813	197.46
682.003	179.03
682.193	187.22
682.383	295.76
682.573	265.04
682.764	213.84
682.954	271.19
683.144	226.13
683.334	267.09
683.524	224.08
683.714	301.9
683.904	312.14
684.094	260.95
684.284	275.28
684.474	439.12
684.664	416.59
684.854	306
685.044	244.56
685.234	267.09
685.424	328.53
685.614	262.99
685.804	404.3
685.994	230.23
686.184	254.8
686.374	336.72
686.564	324.43
686.753	291.66
686.943	238.42
687.133	287.57
687.323	240.47
687.513	299.86
687.702	379.73
687.892	291.66
688.082	344.91
688.272	332.62
688.461	324.43
688.651	432.97
688.841	365.39
689.03	187.22
689.22	267.09
689.41	299.86
689.599	318.29
689.789	306
689.979	357.2
690.168	273.23
690.358	295.76
690.547	240.47
690.737	289.62
690.926	355.15
691.116	355.15
691.305	387.92
691.495	420.69
691.684	197.46
691.874	301.9
692.063	209.75
692.252	332.62
692.442	332.62
692.631	240.47
692.82	361.3
693.01	281.43
693.199	222.03
693.388	349.01
693.578	283.47
693.767	314.19
693.956	328.53
694.146	254.8
694.335	369.49
694.524	322.38
694.713	332.62
694.902	267.09
695.092	205.65
695.281	301.9
695.47	267.09
695.659	209.75
695.848	232.27
696.037	185.17
696.226	217.94
696.415	336.72
696.604	291.66
696.793	310.1
696.982	228.18
697.171	408.4
697.36	242.51
697.549	287.57
697.738	66.39
697.927	226.13
698.116	185.17
698.305	250.71
698.494	297.81
698.683	211.79
698.872	461.65
699.061	230.23
699.25	291.66
699.438	295.76
699.627	183.12
699.816	320.34
700.005	230.23
700.193	174.93
700.382	219.99
700.571	279.38
700.76	338.77
700.948	289.62
701.137	316.24
701.326	287.57
701.514	201.55
701.703	283.47
701.892	248.66
702.08	392.02
702.269	217.94
702.457	133.97
702.646	181.07
702.834	265.04
703.023	303.95
703.212	383.82
703.4	260.95
703.589	176.98
703.777	191.31
703.965	197.46
704.154	183.12
704.342	189.27
704.531	115.54
704.719	320.34
704.907	299.86
705.096	201.55
705.284	154.45
705.472	217.94
705.661	238.42
705.849	314.19
706.037	285.52
706.226	277.33
706.414	312.14
706.602	191.31
706.79	267.09
706.979	240.47
707.167	209.75
707.355	86.87
707.543	363.34
707.731	258.9
707.919	254.8
708.107	205.65
708.296	254.8
708.484	174.93
708.672	285.52
708.86	287.57
709.048	265.04
709.236	150.36
709.424	248.66
709.612	295.76
709.8	226.13
709.988	297.81
710.176	324.43
710.364	326.48
710.551	213.84
710.739	334.67
710.927	226.13
711.115	222.03
711.303	273.23
711.491	269.14
711.679	228.18
711.866	322.38
712.054	209.75
712.242	209.75
712.43	336.72
712.617	166.74
712.805	328.53
712.993	289.62
713.181	113.49
713.368	342.86
713.556	242.51
713.744	238.42
713.931	357.2
714.119	256.85
714.306	187.22
714.494	207.7
714.682	234.32
714.869	234.32
715.057	211.79
715.244	199.51
715.432	301.9
715.619	181.07
715.807	230.23
715.994	242.51
716.182	283.47
716.369	318.29
716.556	260.95
716.744	195.41
716.931	207.7
717.119	217.94
717.306	195.41
717.493	293.71
717.681	215.89
717.868	179.03
718.055	308.05
718.242	322.38
718.43	367.44
718.617	267.09
718.804	273.23
718.991	336.72
719.179	265.04
719.366	217.94
719.553	306
719.74	246.61
719.927	242.51
720.114	283.47
720.301	172.88
720.488	181.07
720.676	328.53
720.863	385.87
721.05	379.73
721.237	277.33
721.424	291.66
721.611	324.43
721.798	219.99
721.985	205.65
722.172	271.19
722.358	205.65
722.545	353.1
722.732	219.99
722.919	297.81
723.106	332.62
723.293	240.47
723.48	271.19
723.667	250.71
723.853	334.67
724.04	291.66
724.227	310.1
724.414	293.71
724.6	367.44
724.787	361.3
724.974	424.78
725.161	301.9
725.347	236.37
725.534	267.09
725.72	324.43
725.907	418.64
726.094	369.49
726.28	219.99
726.467	271.19
726.653	217.94
726.84	445.26
727.027	314.19
727.213	271.19
727.4	346.96
727.586	295.76
727.773	312.14
727.959	295.76
728.145	303.95
728.332	375.63
728.518	273.23
728.705	365.39
728.891	285.52
729.077	355.15
729.264	230.23
729.45	271.19
729.636	443.21
729.823	279.38
730.009	320.34
730.195	287.57
730.382	301.9
730.568	219.99
730.754	367.44
730.94	226.13
731.126	269.14
731.313	463.69
731.499	291.66
731.685	357.2
731.871	346.96
732.057	303.95
732.243	385.87
732.429	443.21
732.615	516.94
732.801	375.63
732.987	310.1
733.173	291.66
733.359	269.14
733.545	293.71
733.731	244.56
733.917	295.76
734.103	365.39
734.289	357.2
734.475	314.19
734.661	451.41
734.847	287.57
735.033	365.39
735.219	277.33
735.404	324.43
735.59	299.86
735.776	353.1
735.962	332.62
736.148	398.16
736.333	455.5
736.519	365.39
736.705	320.34
736.89	295.76
737.076	303.95
737.262	303.95
737.447	277.33
737.633	361.3
737.819	375.63
738.004	314.19
738.19	258.9
738.375	340.82
738.561	377.68
738.747	316.24
738.932	195.41
739.118	445.26
739.303	408.4
739.489	355.15
739.674	277.33
739.859	248.66
740.045	381.78
740.23	242.51
740.416	234.32
740.601	271.19
740.786	295.76
740.972	301.9
741.157	281.43
741.342	197.46
741.528	308.05
741.713	404.3
741.898	363.34
742.084	252.75
742.269	318.29
742.454	336.72
742.639	414.54
742.824	277.33
743.01	373.58
743.195	441.17
743.38	293.71
743.565	269.14
743.75	324.43
743.935	389.97
744.12	422.73
744.305	181.07
744.49	316.24
744.675	250.71
744.86	230.23
745.045	326.48
745.23	308.05
745.415	265.04
745.6	369.49
745.785	334.67
745.97	355.15
746.155	332.62
746.34	418.64
746.525	295.76
746.71	424.78
746.895	238.42
747.079	238.42
747.264	254.8
747.449	234.32
747.634	338.77
747.819	357.2
748.003	314.19
748.188	185.17
748.373	340.82
748.557	281.43
748.742	295.76
748.927	271.19
749.111	252.75
749.296	211.79
749.481	250.71
749.665	213.84
749.85	303.95
750.034	320.34
750.219	246.61
750.404	244.56
750.588	279.38
750.773	236.37
750.957	275.28
751.141	254.8
751.326	346.96
751.51	164.69
751.695	269.14
751.879	242.51
752.064	326.48
752.248	179.03
752.432	375.63
752.617	359.25
752.801	330.58
752.985	260.95
753.17	289.62
753.354	293.71
753.538	203.6
753.722	170.83
753.907	146.26
754.091	90.96
754.275	215.89
754.459	211.79
754.643	115.54
754.828	213.84
755.012	303.95
755.196	156.5
755.38	248.66
755.564	156.5
755.748	211.79
755.932	291.66
756.116	312.14
756.3	299.86
756.484	234.32
756.668	297.81
756.852	76.63
757.036	109.4
757.22	189.27
757.404	158.55
757.588	265.04
757.772	236.37
757.956	265.04
758.14	279.38
758.323	174.93
758.507	187.22
758.691	203.6
758.875	213.84
759.059	242.51
759.242	156.5
759.426	187.22
759.61	236.37
759.794	129.88
759.977	179.03
760.161	340.82
760.345	242.51
760.528	254.8
760.712	179.03
760.895	176.98
761.079	125.78
761.263	56.15
761.446	113.49
761.63	232.27
761.813	262.99
761.997	123.73
762.18	187.22
762.364	219.99
762.547	136.02
762.731	228.18
762.914	181.07
763.098	105.3
763.281	99.16
763.464	117.59
763.648	156.5
763.831	150.36
764.015	105.3
764.198	228.18
764.381	154.45
764.564	172.88
764.748	117.59
764.931	136.02
765.114	152.4
765.297	201.55
765.481	60.24
765.664	211.79
765.847	129.88
766.03	242.51
766.213	189.27
766.397	168.79
766.58	43.86
766.763	168.79
766.946	125.78
767.129	129.88
767.312	144.21
767.495	99.16
767.678	107.35
767.861	166.74
768.044	172.88
768.227	117.59
768.41	97.11
768.593	181.07
768.776	203.6
768.959	29.52
769.142	127.83
769.324	64.34
769.507	97.11
769.69	78.68
769.873	97.11
770.056	316.24
770.239	127.83
770.421	201.55
770.604	219.99
770.787	129.88
770.97	76.63
771.152	62.29
771.335	121.68
771.518	27.48
771.7	172.88
771.883	146.26
772.066	133.97
772.248	136.02
772.431	219.99
772.613	201.55
772.796	82.77
772.978	172.88
773.161	230.23
773.343	88.92
773.526	56.15
773.708	54.1
773.891	70.48
774.073	121.68
774.256	-46.25
774.438	183.12
774.621	84.82
774.803	168.79
774.985	-11.43
775.168	117.59
775.35	99.16
775.532	174.93
775.715	68.44
775.897	101.2
776.079	74.58
776.261	123.73
776.444	148.31
776.626	13.14
776.808	60.24
776.99	-15.53
777.173	181.07
777.355	76.63
777.537	80.72
777.719	93.01
777.901	58.2
778.083	62.29
778.265	-17.58
778.447	103.25
778.629	41.81
778.811	37.72
778.993	111.44
779.175	131.92
779.357	133.97
779.539	-60.59
779.721	107.35
779.903	185.17
780.085	27.48
780.267	136.02
780.449	78.68
780.631	156.5
780.812	127.83
780.994	107.35
781.176	113.49
781.358	113.49
781.54	9.05
781.721	125.78
781.903	150.36
782.085	66.39
782.267	189.27
782.448	56.15
782.63	90.96
782.812	129.88
782.993	37.72
783.175	170.83
783.357	41.81
783.538	117.59
783.72	-15.53
783.901	176.98
784.083	39.76
784.264	99.16
784.446	25.43
784.627	-15.53
784.809	109.4
784.99	58.2
785.172	111.44
785.353	39.76
785.535	41.81
785.716	15.19
785.897	33.62
786.079	60.24
786.26	29.52
786.441	58.2
786.623	-54.44
786.804	60.24
786.985	136.02
787.167	86.87
787.348	86.87
787.529	99.16
787.71	185.17
787.891	27.48
788.073	39.76
788.254	-13.48
788.435	195.41
788.616	72.53
788.797	-33.96
788.978	70.48
789.159	-33.96
789.34	86.87
789.522	72.53
789.703	54.1
789.884	88.92
790.065	103.25
790.246	162.64
790.427	37.72
790.607	158.55
790.788	203.6
790.969	-31.91
791.15	107.35
791.331	-11.43
791.512	50
791.693	29.52
791.874	23.38
792.054	176.98
792.235	129.88
792.416	-17.58
792.597	11.09
792.778	140.12
792.958	11.09
793.139	52.05
793.32	58.2
793.5	39.76
793.681	58.2
793.862	109.4
794.042	52.05
794.223	35.67
794.404	21.33
794.584	-3.24
794.765	37.72
794.945	86.87
795.126	-19.63
795.306	162.64
795.487	70.48
795.667	25.43
795.848	11.09
796.028	88.92
796.209	-3.24
796.389	93.01
796.57	37.72
796.75	19.29
796.93	-9.39
797.111	21.33
797.291	0.85
797.471	78.68
797.652	-31.91
797.832	-13.48
798.012	176.98
798.192	17.24
798.373	-15.53
798.553	-23.72
798.733	78.68
798.913	-42.15
799.093	-68.78
799.274	56.15
799.454	86.87
799.634	101.2
799.814	113.49
799.994	115.54
800.174	25.43
800.354	84.82
800.534	-3.24
800.714	136.02
800.894	-72.87
801.074	-27.82
801.254	-27.82
801.434	105.3
801.614	58.2
801.794	-66.73
801.974	1917.75
802.154	-29.87
802.334	86.87
802.514	-93.35
802.693	35.67
802.873	56.15
803.053	138.07
803.233	23.38
803.413	50
803.592	-11.43
803.772	39.76
803.952	70.48
804.131	88.92
804.311	33.62
804.491	52.05
804.67	-132.26
804.85	-85.16
805.03	131.92
805.209	70.48
805.389	-36.01
805.568	68.44
805.748	56.15
805.928	58.2
806.107	174.93
806.287	39.76
806.466	13.14
806.646	-5.29
806.825	64.34
807.004	41.81
807.184	66.39
807.363	62.29
807.543	52.05
807.722	-38.06
807.901	88.92
808.081	95.06
808.26	-68.78
808.439	60.24
808.619	97.11
808.798	41.81
808.977	62.29
809.156	123.73
809.336	68.44
809.515	101.2
809.694	-15.53
809.873	60.24
810.052	50
810.231	203.6
810.411	80.72
810.59	52.05
810.769	15.19
810.948	84.82
811.127	-60.59
811.306	-66.73
811.485	21.33
811.664	152.4
811.843	56.15
812.022	9.05
812.201	52.05
812.38	31.57
812.559	-23.72
812.737	58.2
812.916	-64.68
813.095	-89.26
813.274	101.2
813.453	60.24
813.632	-1.19
813.811	170.83
813.989	-44.2
814.168	9.05
814.347	0.85
814.526	-11.43
814.704	127.83
814.883	129.88
815.062	-5.29
815.24	19.29
815.419	-29.87
815.598	37.72
815.776	-93.35
815.955	-89.26
816.133	-97.45
816.312	33.62
816.49	-11.43
816.669	33.62
816.847	27.48
817.026	82.77
817.204	47.96
817.383	4.95
817.561	-40.11
817.74	11.09
817.918	39.76
818.097	-29.87
818.275	-13.48
818.453	74.58
818.632	15.19
818.81	29.52
818.988	31.57
819.167	-1.19
819.345	-56.49
819.523	-95.4
819.701	-15.53
819.879	35.67
820.058	-33.96
820.236	7
820.414	11.09
820.592	-44.2
820.77	25.43
820.948	-56.49
821.127	-68.78
821.305	66.39
821.483	-31.91
821.661	109.4
821.839	-17.58
822.017	-27.82
822.195	-87.21
822.373	74.58
822.551	4.95
822.729	9.05
822.907	4.95
823.085	129.88
823.262	70.48
823.44	58.2
823.618	7
823.796	-23.72
823.974	-25.77
824.152	-58.54
824.329	13.14
824.507	76.63
824.685	9.05
824.863	7
825.04	62.29
825.218	27.48
825.396	146.26
825.574	62.29
825.751	64.34
825.929	54.1
826.107	-91.31
826.284	-19.63
826.462	62.29
826.639	-19.63
826.817	-79.02
826.994	43.86
827.172	-76.97
827.349	119.64
827.527	74.58
827.704	86.87
827.882	39.76
828.059	25.43
828.237	-105.64
828.414	129.88
828.591	-29.87
828.769	-25.77
828.946	-31.91
829.124	121.68
829.301	150.36
829.478	15.19
829.655	39.76
829.833	19.29
830.01	-91.31
830.187	166.74
830.364	7
830.542	21.33
830.719	113.49
830.896	15.19
831.073	93.01
831.25	64.34
831.427	86.87
831.604	19.29
831.782	-38.06
831.959	68.44
832.136	-72.87
832.313	37.72
832.49	-62.63
832.667	84.82
832.844	-76.97
833.021	158.55
833.198	23.38
833.374	50
833.551	47.96
833.728	-31.91
833.905	76.63
834.082	-64.68
834.259	-3.24
834.436	123.73
834.612	-54.44
834.789	84.82
834.966	31.57
835.143	17.24
835.319	-68.78
835.496	119.64
835.673	4.95
835.85	156.5
836.026	47.96
836.203	78.68
836.38	-33.96
836.556	-74.92
836.733	45.91
836.909	88.92
837.086	-15.53
837.262	-89.26
837.439	43.86
837.616	-21.67
837.792	43.86
837.968	43.86
838.145	-81.07
838.321	70.48
838.498	60.24
838.674	101.2
838.851	7
839.027	33.62
839.203	52.05
839.38	78.68
839.556	-44.2
839.732	62.29
839.909	-83.11
840.085	93.01
840.261	-60.59
840.437	39.76
840.614	-60.59
840.79	82.77
840.966	84.82
841.142	-3.24
841.318	-60.59
841.494	35.67
841.671	78.68
841.847	-60.59
842.023	-66.73
842.199	27.48
842.375	119.64
842.551	-99.5
842.727	-64.68
842.903	156.5
843.079	-9.39
843.255	115.54
843.431	-42.15
843.607	64.34
843.783	-158.89
843.959	107.35
844.134	-54.44
844.31	185.17
844.486	-44.2
844.662	-64.68
844.838	39.76
845.013	113.49
845.189	54.1
845.365	21.33
845.541	41.81
845.716	74.58
845.892	56.15
846.068	80.72
846.244	-13.48
846.419	41.81
846.595	-66.73
846.77	-58.54
846.946	52.05
847.122	43.86
847.297	-42.15
847.473	74.58
847.648	29.52
847.824	-9.39
847.999	-93.35
848.175	-11.43
848.35	37.72
848.526	86.87
848.701	19.29
848.876	43.86
849.052	-1.19
849.227	15.19
849.403	70.48
849.578	-1.19
849.753	29.52
849.929	84.82
850.104	-31.91
850.279	45.91
850.454	-3.24
850.63	47.96
850.805	33.62
850.98	74.58
851.155	2.9
851.33	13.14
851.505	-19.63
851.681	121.68
851.856	-46.25
852.031	17.24
852.206	123.73
852.381	-27.82
852.556	-72.87
852.731	-21.67
852.906	109.4
853.081	76.63
853.256	172.88
853.431	-25.77
853.606	-38.06
853.781	23.38
853.956	-107.69
854.131	35.67
854.305	19.29
854.48	2.9
854.655	-89.26
854.83	-29.87
855.005	-42.15
855.18	23.38
855.354	-48.3
855.529	4.95
855.704	-44.2
855.879	-33.96
856.053	-56.49
856.228	-27.82
856.403	-52.39
856.577	70.48
856.752	-107.69
856.926	4.95
857.101	19.29
857.276	-44.2
857.45	7
857.625	101.2
857.799	17.24
857.974	37.72
858.148	-101.55
858.323	21.33
858.497	-54.44
858.672	-62.63
858.846	-9.39
859.02	95.06
859.195	-81.07
859.369	-11.43
859.543	-60.59
859.718	29.52
859.892	60.24
860.066	13.14
860.241	-62.63
860.415	-44.2
860.589	13.14
860.763	-40.11
860.938	-27.82
861.112	62.29
861.286	-21.67
861.46	17.24
861.634	7
861.808	105.3
861.982	-11.43
862.157	-60.59
862.331	-31.91
862.505	-56.49
862.679	-56.49
862.853	41.81
863.027	43.86
863.201	152.4
863.375	39.76
863.549	4.95
863.722	68.44
863.896	50
864.07	-66.73
864.244	-17.58
864.418	39.76
864.592	39.76
864.766	52.05
864.939	33.62
865.113	-72.87
865.287	4.95
865.461	2.9
865.634	29.52
865.808	25.43
865.982	-85.16
866.156	-62.63
866.329	-48.3
866.503	119.64
866.676	99.16
866.85	47.96
867.024	-109.74
867.197	95.06
867.371	78.68
867.544	4.95
867.718	-70.83
867.891	97.11
868.065	-124.07
868.238	-17.58
868.412	76.63
868.585	103.25
868.759	-31.91
868.932	-13.48
869.105	-74.92
869.279	-23.72
869.452	-11.43
869.625	39.76
869.799	-1.19
869.972	-103.59
870.145	-19.63
870.319	50
870.492	-25.77
870.665	-38.06
870.838	-33.96
871.011	-109.74
871.185	-72.87
871.358	-3.24
871.531	84.82
871.704	-9.39
871.877	15.19
872.05	19.29
872.223	-87.21
872.396	58.2
872.569	54.1
872.742	-126.12
872.915	78.68
873.088	-5.29
873.261	-50.35
873.434	62.29
873.607	-93.35
873.78	66.39
873.953	-64.68
874.126	25.43
874.299	-27.82
874.471	2.9
874.644	21.33
874.817	33.62
874.99	148.31
875.163	2.9
875.335	72.53
875.508	-15.53
875.681	201.55
875.853	-38.06
876.026	-1.19
876.199	99.16
876.371	4.95
876.544	2.9
876.717	-21.67
876.889	9.05
877.062	-5.29
877.234	-46.25
877.407	11.09
877.579	45.91
877.752	-1.19
877.924	17.24
878.097	-11.43
878.269	25.43
878.442	17.24
878.614	58.2
878.786	23.38
878.959	-5.29
879.131	-3.24
879.303	-99.5
879.476	-56.49
879.648	90.96
879.82	25.43
879.993	82.77
880.165	56.15
880.337	-58.54
880.509	-3.24
880.681	-93.35
880.854	-29.87
881.026	29.52
881.198	136.02
881.37	-25.77
881.542	23.38
881.714	4.95
881.886	-74.92
882.058	27.48
882.23	41.81
882.402	39.76
882.574	47.96
882.746	88.92
882.918	93.01
883.09	60.24
883.262	45.91
883.434	-1.19
883.606	-46.25
883.778	25.43
883.95	140.12
884.122	-83.11
884.293	109.4
884.465	43.86
884.637	101.2
884.809	-113.83
884.98	70.48
885.152	9.05
885.324	29.52
885.496	-11.43
885.667	19.29
885.839	29.52
886.011	158.55
886.182	39.76
886.354	37.72
886.525	88.92
886.697	21.33
886.869	-36.01
887.04	-5.29
887.212	84.82
887.383	136.02
887.555	21.33
887.726	-27.82
887.897	13.14
888.069	2.9
888.24	47.96
888.412	35.67
888.583	37.72
888.754	-31.91
888.926	-83.11
889.097	-38.06
889.268	-46.25
889.44	43.86
889.611	-42.15
889.782	-93.35
889.953	-119.98
890.125	95.06
890.296	-31.91
890.467	-23.72
890.638	-85.16
890.809	-5.29
890.98	-13.48
891.151	21.33
891.323	129.88
891.494	27.48
891.665	58.2
891.836	86.87
892.007	-31.91
892.178	23.38
892.349	7
892.52	-58.54
892.691	-25.77
892.862	50
893.032	-87.21
893.203	0.85
893.374	50
893.545	111.44
893.716	-21.67
893.887	158.55
894.057	-3.24
894.228	-58.54
894.399	-40.11
894.57	60.24
894.74	0.85
894.911	23.38
895.082	-48.3
895.253	-70.83
895.423	-44.2
895.594	70.48
895.764	2.9
895.935	-111.78
896.106	70.48
896.276	-103.59
896.447	-17.58
896.617	-38.06
896.788	25.43
896.958	-3.24
897.129	-89.26
897.299	-15.53
897.47	80.72
897.64	43.86
897.81	52.05
897.981	4.95
898.151	-9.39
898.322	-1.19
898.492	0.85
898.662	-19.63
898.832	-31.91
899.003	-68.78
899.173	88.92
899.343	-52.39
899.513	-17.58
