Data from USB4F104151__101__10-45-25-063.txt Node

Date: Wed Feb 26 10:45:25 EST 2025
User: louis
Spectrometer: USB4F10415
Trigger mode: 4
Integration Time (sec): 1.000000E-1
Scans to average: 1
Electric dark correction enabled: true
Nonlinearity correction enabled: false
Boxcar width: 0
XAxis mode: Wavelengths
Number of Pixels in Spectrum: 3648
>>>>>Begin Spectral Data<<<<<
178.204	-358.57
178.424	-358.57
178.644	-358.57
178.864	-358.57
179.084	-426.15
179.304	79.7
179.524	-59.56
179.744	-18.6
179.964	91.99
180.184	57.17
180.404	-4.27
180.624	-73.9
180.844	16.21
181.064	-65.71
181.283	3.93
181.503	-39.08
181.723	12.12
181.943	-125.1
182.163	124.76
182.383	3.93
182.602	96.08
182.822	173.91
183.042	85.84
183.262	8.02
183.482	51.03
183.701	18.26
183.921	59.22
184.141	-26.79
184.361	94.04
184.58	118.61
184.8	75.6
185.02	48.98
185.239	87.89
185.459	112.47
185.679	116.56
185.898	-47.27
186.118	69.46
186.338	14.17
186.557	102.23
186.777	-10.41
186.997	104.28
187.216	71.51
187.436	151.38
187.655	126.8
187.875	165.71
188.095	114.52
188.314	155.47
188.534	110.42
188.753	-28.84
188.973	89.94
189.192	135
189.412	36.69
189.631	53.08
189.851	36.69
190.07	200.53
190.29	36.69
190.509	5.97
190.729	53.08
190.948	126.8
191.168	268.11
191.387	91.99
191.607	42.84
191.826	67.41
192.045	110.42
192.265	-2.22
192.484	85.84
192.704	67.41
192.923	-34.99
193.142	319.31
193.362	91.99
193.581	165.71
193.8	71.51
194.02	141.14
194.239	-0.17
194.458	100.18
194.678	69.46
194.897	-49.32
195.116	155.47
195.335	34.64
195.555	67.41
195.774	26.45
195.993	147.28
196.212	30.55
196.432	51.03
196.651	34.64
196.87	73.56
197.089	190.29
197.308	87.89
197.528	42.84
197.747	-45.23
197.966	118.61
198.185	143.19
198.404	-8.36
198.623	98.13
198.842	100.18
199.062	91.99
199.281	145.24
199.5	89.94
199.719	28.5
199.938	104.28
200.157	104.28
200.376	102.23
200.595	106.32
200.814	104.28
201.033	-14.51
201.252	100.18
201.471	126.8
201.69	55.12
201.909	87.89
202.128	32.6
202.347	91.99
202.566	79.7
202.785	-18.6
203.004	36.69
203.223	266.07
203.442	116.56
203.661	-10.41
203.879	77.65
204.098	204.63
204.317	-6.31
204.536	171.86
204.755	71.51
204.974	94.04
205.193	-6.31
205.411	159.57
205.63	147.28
205.849	48.98
206.068	59.22
206.287	-18.6
206.505	239.44
206.724	-12.46
206.943	-59.56
207.162	36.69
207.381	30.55
207.599	-8.36
207.818	69.46
208.037	57.17
208.255	81.75
208.474	42.84
208.693	98.13
208.911	-6.31
209.13	112.47
209.349	81.75
209.567	61.27
209.786	110.42
210.005	100.18
210.223	53.08
210.442	-69.8
210.661	-18.6
210.879	59.22
211.098	-16.55
211.316	51.03
211.535	98.13
211.753	118.61
211.972	151.38
212.191	-39.08
212.409	38.74
212.628	81.75
212.846	20.31
213.065	83.8
213.283	124.76
213.502	89.94
213.72	40.79
213.938	114.52
214.157	-10.41
214.375	96.08
214.594	51.03
214.812	155.47
215.031	16.21
215.249	89.94
215.467	100.18
215.686	71.51
215.904	61.27
216.122	100.18
216.341	204.63
216.559	53.08
216.778	112.47
216.996	77.65
217.214	-65.71
217.432	63.32
217.651	-22.7
217.869	71.51
218.087	46.93
218.306	18.26
218.524	42.84
218.742	89.94
218.96	98.13
219.179	20.31
219.397	-20.65
219.615	200.53
219.833	130.9
220.051	-80.04
220.27	57.17
220.488	130.9
220.706	102.23
220.924	42.84
221.142	-69.8
221.36	22.36
221.578	40.79
221.796	24.4
222.015	67.41
222.233	73.56
222.451	130.9
222.669	-55.47
222.887	83.8
223.105	-39.08
223.323	46.93
223.541	-12.46
223.759	28.5
223.977	91.99
224.195	137.04
224.413	100.18
224.631	-34.99
224.849	77.65
225.067	233.3
225.285	71.51
225.503	85.84
225.721	-84.14
225.939	61.27
226.157	151.38
226.375	284.5
226.592	24.4
226.81	38.74
227.028	139.09
227.246	94.04
227.464	110.42
227.682	161.62
227.9	89.94
228.117	40.79
228.335	182.1
228.553	135
228.771	122.71
228.989	-34.99
229.206	116.56
229.424	12.12
229.642	59.22
229.86	-30.89
230.077	165.71
230.295	44.88
230.513	212.82
230.731	42.84
230.948	200.53
231.166	149.33
231.384	24.4
231.601	34.64
231.819	247.63
232.037	-20.65
232.254	-26.79
232.472	8.02
232.689	55.12
232.907	106.32
233.125	24.4
233.342	-41.13
233.56	10.07
233.777	-43.18
233.995	59.22
234.213	137.04
234.43	102.23
234.648	71.51
234.865	3.93
235.083	171.86
235.3	139.09
235.518	63.32
235.735	118.61
235.953	110.42
236.17	46.93
236.388	-14.51
236.605	24.4
236.822	83.8
237.04	145.24
237.257	89.94
237.475	-6.31
237.692	83.8
237.909	51.03
238.127	96.08
238.344	28.5
238.562	5.97
238.779	24.4
238.996	-84.14
239.214	59.22
239.431	51.03
239.648	-59.56
239.865	118.61
240.083	51.03
240.3	87.89
240.517	-51.37
240.735	83.8
240.952	175.95
241.169	149.33
241.386	149.33
241.603	139.09
241.821	12.12
242.038	12.12
242.255	77.65
242.472	20.31
242.689	71.51
242.907	124.76
243.124	67.41
243.341	85.84
243.558	-18.6
243.775	-39.08
243.992	-37.03
244.209	120.66
244.426	210.77
244.643	100.18
244.86	42.84
245.078	137.04
245.295	26.45
245.512	10.07
245.729	65.36
245.946	67.41
246.163	44.88
246.38	1.88
246.597	36.69
246.814	55.12
247.031	16.21
247.248	34.64
247.464	75.6
247.681	89.94
247.898	171.86
248.115	116.56
248.332	24.4
248.549	139.09
248.766	231.25
248.983	40.79
249.2	53.08
249.417	157.52
249.633	-32.94
249.85	61.27
250.067	30.55
250.284	53.08
250.501	40.79
250.717	36.69
250.934	-53.42
251.151	116.56
251.368	44.88
251.585	137.04
251.801	26.45
252.018	-28.84
252.235	112.47
252.451	-80.04
252.668	59.22
252.885	143.19
253.102	22.36
253.318	-28.84
253.535	-2.22
253.752	65.36
253.968	57.17
254.185	-34.99
254.401	65.36
254.618	67.41
254.835	-12.46
255.051	83.8
255.268	83.8
255.484	14.17
255.701	3.93
255.917	55.12
256.134	-26.79
256.351	40.79
256.567	-4.27
256.784	94.04
257	3.93
257.217	153.43
257.433	81.75
257.65	87.89
257.866	100.18
258.082	10.07
258.299	-20.65
258.515	73.56
258.732	40.79
258.948	-12.46
259.165	40.79
259.381	-61.61
259.597	137.04
259.814	77.65
260.03	-6.31
260.246	16.21
260.463	106.32
260.679	163.67
260.895	40.79
261.112	135
261.328	22.36
261.544	-24.75
261.761	137.04
261.977	-2.22
262.193	-37.03
262.409	94.04
262.626	42.84
262.842	59.22
263.058	10.07
263.274	139.09
263.49	3.93
263.707	137.04
263.923	102.23
264.139	-28.84
264.355	22.36
264.571	108.37
264.787	112.47
265.004	147.28
265.22	114.52
265.436	-14.51
265.652	22.36
265.868	110.42
266.084	22.36
266.3	87.89
266.516	18.26
266.732	73.56
266.948	-22.7
267.164	67.41
267.38	114.52
267.596	18.26
267.812	96.08
268.028	30.55
268.244	-59.56
268.46	65.36
268.676	1.88
268.892	44.88
269.108	26.45
269.324	-10.41
269.54	-2.22
269.756	81.75
269.972	-45.23
270.188	42.84
270.403	-61.61
270.619	65.36
270.835	161.62
271.051	57.17
271.267	30.55
271.483	-82.09
271.698	122.71
271.914	14.17
272.13	75.6
272.346	51.03
272.562	77.65
272.777	104.28
272.993	75.6
273.209	1.88
273.425	59.22
273.64	-75.95
273.856	124.76
274.072	8.02
274.287	-47.27
274.503	122.71
274.719	104.28
274.934	32.6
275.15	-65.71
275.366	38.74
275.581	100.18
275.797	12.12
276.012	85.84
276.228	3.93
276.444	65.36
276.659	163.67
276.875	3.93
277.09	24.4
277.306	16.21
277.521	73.56
277.737	48.98
277.952	141.14
278.168	59.22
278.383	44.88
278.599	46.93
278.814	114.52
279.03	42.84
279.245	167.76
279.461	12.12
279.676	100.18
279.892	-92.33
280.107	-8.36
280.322	-10.41
280.538	32.6
280.753	100.18
280.969	91.99
281.184	18.26
281.399	178
281.615	96.08
281.83	151.38
282.045	-45.23
282.26	32.6
282.476	100.18
282.691	137.04
282.906	106.32
283.122	96.08
283.337	-34.99
283.552	16.21
283.767	34.64
283.983	83.8
284.198	46.93
284.413	126.8
284.628	5.97
284.843	57.17
285.058	55.12
285.274	-16.55
285.489	16.21
285.704	22.36
285.919	-45.23
286.134	8.02
286.349	1.88
286.564	-0.17
286.779	180.05
286.995	38.74
287.21	-34.99
287.425	75.6
287.64	36.69
287.855	77.65
288.07	30.55
288.285	85.84
288.5	65.36
288.715	141.14
288.93	5.97
289.145	110.42
289.36	114.52
289.575	-4.27
289.79	124.76
290.004	-98.47
290.219	110.42
290.434	-96.43
290.649	65.36
290.864	5.97
291.079	-10.41
291.294	40.79
291.509	143.19
291.724	30.55
291.938	26.45
292.153	36.69
292.368	-69.8
292.583	112.47
292.798	83.8
293.012	63.32
293.227	147.28
293.442	-22.7
293.657	126.8
293.871	128.85
294.086	122.71
294.301	132.95
294.516	114.52
294.73	38.74
294.945	-49.32
295.16	24.4
295.374	155.47
295.589	91.99
295.804	-6.31
296.018	20.31
296.233	94.04
296.447	149.33
296.662	59.22
296.877	98.13
297.091	94.04
297.306	69.46
297.52	-6.31
297.735	79.7
297.949	46.93
298.164	94.04
298.378	77.65
298.593	-37.03
298.807	20.31
299.022	55.12
299.236	229.2
299.451	-24.75
299.665	65.36
299.88	-32.94
300.094	81.75
300.309	42.84
300.523	96.08
300.737	10.07
300.952	63.32
301.166	132.95
301.381	-16.55
301.595	22.36
301.809	18.26
302.024	73.56
302.238	-47.27
302.452	130.9
302.667	114.52
302.881	110.42
303.095	122.71
303.309	59.22
303.524	40.79
303.738	40.79
303.952	-32.94
304.166	38.74
304.381	-49.32
304.595	143.19
304.809	20.31
305.023	-49.32
305.237	30.55
305.452	100.18
305.666	96.08
305.88	139.09
306.094	114.52
306.308	40.79
306.522	100.18
306.736	48.98
306.95	143.19
307.164	48.98
307.379	36.69
307.593	182.1
307.807	120.66
308.021	83.8
308.235	96.08
308.449	-43.18
308.663	-22.7
308.877	210.77
309.091	36.69
309.305	94.04
309.519	-55.47
309.733	126.8
309.947	5.97
310.161	106.32
310.374	159.57
310.588	157.52
310.802	-37.03
311.016	1.88
311.23	73.56
311.444	-20.65
311.658	59.22
311.872	116.56
312.085	94.04
312.299	81.75
312.513	212.82
312.727	53.08
312.941	14.17
313.154	42.84
313.368	63.32
313.582	8.02
313.796	51.03
314.009	42.84
314.223	149.33
314.437	75.6
314.651	135
314.864	5.97
315.078	-10.41
315.292	-63.66
315.505	22.36
315.719	63.32
315.933	38.74
316.146	32.6
316.36	-45.23
316.573	102.23
316.787	22.36
317.001	51.03
317.214	-18.6
317.428	28.5
317.641	20.31
317.855	59.22
318.068	67.41
318.282	48.98
318.495	178
318.709	53.08
318.922	81.75
319.136	122.71
319.349	145.24
319.563	24.4
319.776	104.28
319.99	16.21
320.203	161.62
320.417	18.26
320.63	132.95
320.843	198.48
321.057	57.17
321.27	112.47
321.483	77.65
321.697	102.23
321.91	130.9
322.124	171.86
322.337	124.76
322.55	44.88
322.763	87.89
322.977	18.26
323.19	55.12
323.403	61.27
323.617	91.99
323.83	114.52
324.043	65.36
324.256	57.17
324.469	8.02
324.683	128.85
324.896	24.4
325.109	28.5
325.322	-121
325.535	91.99
325.748	96.08
325.962	12.12
326.175	94.04
326.388	87.89
326.601	194.39
326.814	57.17
327.027	48.98
327.24	198.48
327.453	-51.37
327.666	122.71
327.879	143.19
328.092	51.03
328.305	114.52
328.518	79.7
328.731	30.55
328.944	61.27
329.157	65.36
329.37	75.6
329.583	112.47
329.796	190.29
330.009	-14.51
330.222	110.42
330.435	102.23
330.648	48.98
330.861	22.36
331.073	16.21
331.286	110.42
331.499	12.12
331.712	34.64
331.925	57.17
332.138	38.74
332.35	118.61
332.563	-10.41
332.776	132.95
332.989	22.36
333.202	-14.51
333.414	16.21
333.627	44.88
333.84	8.02
334.053	83.8
334.265	10.07
334.478	42.84
334.691	34.64
334.903	20.31
335.116	-30.89
335.329	-6.31
335.541	75.6
335.754	233.3
335.966	-30.89
336.179	46.93
336.392	57.17
336.604	59.22
336.817	32.6
337.029	128.85
337.242	38.74
337.454	112.47
337.667	24.4
337.88	116.56
338.092	128.85
338.305	91.99
338.517	-6.31
338.729	30.55
338.942	231.25
339.154	5.97
339.367	-75.95
339.579	87.89
339.792	-30.89
340.004	87.89
340.217	44.88
340.429	77.65
340.641	-18.6
340.854	-22.7
341.066	-20.65
341.278	87.89
341.491	184.15
341.703	46.93
341.915	-4.27
342.128	73.56
342.34	87.89
342.552	-65.71
342.764	12.12
342.977	206.67
343.189	104.28
343.401	-4.27
343.613	-53.42
343.826	98.13
344.038	-47.27
344.25	28.5
344.462	42.84
344.674	114.52
344.886	61.27
345.099	28.5
345.311	94.04
345.523	26.45
345.735	-100.52
345.947	114.52
346.159	65.36
346.371	10.07
346.583	-0.17
346.795	155.47
347.007	51.03
347.219	69.46
347.431	85.84
347.643	141.14
347.855	3.93
348.067	51.03
348.279	-41.13
348.491	100.18
348.703	145.24
348.915	1.88
349.127	24.4
349.339	-2.22
349.551	14.17
349.763	141.14
349.975	51.03
350.187	132.95
350.399	163.67
350.61	42.84
350.822	-41.13
351.034	83.8
351.246	81.75
351.458	1.88
351.669	59.22
351.881	120.66
352.093	132.95
352.305	163.67
352.517	71.51
352.728	124.76
352.94	71.51
353.152	81.75
353.363	-28.84
353.575	61.27
353.787	266.07
353.999	46.93
354.21	171.86
354.422	40.79
354.633	85.84
354.845	114.52
355.057	34.64
355.268	67.41
355.48	118.61
355.692	-26.79
355.903	36.69
356.115	12.12
356.326	-18.6
356.538	216.91
356.749	26.45
356.961	114.52
357.172	-2.22
357.384	10.07
357.595	300.88
357.807	77.65
358.018	-6.31
358.23	8.02
358.441	141.14
358.653	141.14
358.864	34.64
359.075	55.12
359.287	1.88
359.498	98.13
359.709	114.52
359.921	32.6
360.132	53.08
360.344	36.69
360.555	-55.47
360.766	65.36
360.977	100.18
361.189	171.86
361.4	-6.31
361.611	104.28
361.823	167.76
362.034	167.76
362.245	-55.47
362.456	-10.41
362.667	145.24
362.879	-28.84
363.09	81.75
363.301	145.24
363.512	12.12
363.723	51.03
363.935	-10.41
364.146	65.36
364.357	94.04
364.568	67.41
364.779	-32.94
364.99	163.67
365.201	-12.46
365.412	116.56
365.623	-37.03
365.834	63.32
366.045	12.12
366.256	85.84
366.467	81.75
366.678	38.74
366.889	-6.31
367.1	5.97
367.311	163.67
367.522	12.12
367.733	96.08
367.944	98.13
368.155	-43.18
368.366	100.18
368.577	83.8
368.788	61.27
368.999	55.12
369.209	59.22
369.42	194.39
369.631	180.05
369.842	110.42
370.053	57.17
370.264	186.19
370.474	-100.52
370.685	198.48
370.896	36.69
371.107	190.29
371.317	48.98
371.528	46.93
371.739	98.13
371.95	94.04
372.16	96.08
372.371	-88.23
372.582	-14.51
372.792	85.84
373.003	55.12
373.214	112.47
373.424	132.95
373.635	-18.6
373.846	165.71
374.056	14.17
374.267	71.51
374.477	34.64
374.688	-32.94
374.898	38.74
375.109	24.4
375.319	34.64
375.53	151.38
375.74	130.9
375.951	108.37
376.161	102.23
376.372	145.24
376.582	42.84
376.793	89.94
377.003	-4.27
377.214	63.32
377.424	65.36
377.635	83.8
377.845	-2.22
378.055	128.85
378.266	-16.55
378.476	1.88
378.686	53.08
378.897	61.27
379.107	210.77
379.317	116.56
379.528	65.36
379.738	94.04
379.948	22.36
380.158	53.08
380.369	59.22
380.579	85.84
380.789	40.79
380.999	87.89
381.21	94.04
381.42	180.05
381.63	69.46
381.84	79.7
382.05	65.36
382.261	122.71
382.471	210.77
382.681	55.12
382.891	153.43
383.101	120.66
383.311	65.36
383.521	71.51
383.731	137.04
383.941	163.67
384.151	91.99
384.361	145.24
384.571	108.37
384.781	34.64
384.991	218.96
385.201	198.48
385.411	153.43
385.621	139.09
385.831	59.22
386.041	46.93
386.251	81.75
386.461	163.67
386.671	-6.31
386.881	83.8
387.091	120.66
387.301	130.9
387.511	83.8
387.72	94.04
387.93	79.7
388.14	-45.23
388.35	81.75
388.56	167.76
388.769	71.51
388.979	71.51
389.189	-53.42
389.399	51.03
389.609	157.52
389.818	122.71
390.028	36.69
390.238	85.84
390.447	51.03
390.657	-16.55
390.867	5.97
391.076	1.88
391.286	112.47
391.496	61.27
391.705	69.46
391.915	157.52
392.125	116.56
392.334	34.64
392.544	139.09
392.753	18.26
392.963	-16.55
393.172	85.84
393.382	42.84
393.591	167.76
393.801	16.21
394.01	157.52
394.22	118.61
394.429	26.45
394.639	59.22
394.848	87.89
395.058	53.08
395.267	20.31
395.477	124.76
395.686	53.08
395.895	167.76
396.105	229.2
396.314	100.18
396.524	48.98
396.733	-6.31
396.942	104.28
397.152	124.76
397.361	196.43
397.57	94.04
397.78	75.6
397.989	108.37
398.198	188.24
398.407	77.65
398.617	18.26
398.826	135
399.035	104.28
399.244	42.84
399.453	26.45
399.663	20.31
399.872	51.03
400.081	-18.6
400.29	145.24
400.499	-0.17
400.708	130.9
400.917	46.93
401.127	67.41
401.336	-12.46
401.545	196.43
401.754	188.24
401.963	91.99
402.172	116.56
402.381	1.88
402.59	-2.22
402.799	24.4
403.008	122.71
403.217	75.6
403.426	81.75
403.635	-143.53
403.844	30.55
404.053	91.99
404.262	-20.65
404.471	173.91
404.68	112.47
404.888	110.42
405.097	59.22
405.306	124.76
405.515	98.13
405.724	55.12
405.933	61.27
406.142	53.08
406.35	202.58
406.559	-6.31
406.768	120.66
406.977	157.52
407.185	141.14
407.394	61.27
407.603	-24.75
407.812	61.27
408.02	227.15
408.229	22.36
408.438	96.08
408.646	-63.66
408.855	61.27
409.064	59.22
409.272	51.03
409.481	132.95
409.69	34.64
409.898	-55.47
410.107	137.04
410.315	94.04
410.524	24.4
410.733	79.7
410.941	114.52
411.15	126.8
411.358	128.85
411.567	137.04
411.775	36.69
411.984	77.65
412.192	130.9
412.401	16.21
412.609	169.81
412.818	165.71
413.026	128.85
413.234	32.6
413.443	67.41
413.651	55.12
413.86	77.65
414.068	178
414.276	149.33
414.485	12.12
414.693	194.39
414.901	128.85
415.11	96.08
415.318	71.51
415.526	22.36
415.734	163.67
415.943	163.67
416.151	116.56
416.359	44.88
416.567	61.27
416.776	116.56
416.984	124.76
417.192	163.67
417.4	-53.42
417.608	46.93
417.817	16.21
418.025	94.04
418.233	241.49
418.441	-77.99
418.649	26.45
418.857	65.36
419.065	143.19
419.273	-0.17
419.481	63.32
419.689	83.8
419.897	32.6
420.105	-86.19
420.313	114.52
420.521	155.47
420.729	184.15
420.937	94.04
421.145	-10.41
421.353	192.34
421.561	159.57
421.769	143.19
421.977	108.37
422.185	147.28
422.393	57.17
422.601	63.32
422.809	106.32
423.017	22.36
423.224	120.66
423.432	132.95
423.64	20.31
423.848	116.56
424.056	100.18
424.263	65.36
424.471	16.21
424.679	200.53
424.887	-18.6
425.094	110.42
425.302	145.24
425.51	94.04
425.718	130.9
425.925	-0.17
426.133	57.17
426.341	223.06
426.548	55.12
426.756	61.27
426.964	149.33
427.171	55.12
427.379	38.74
427.586	155.47
427.794	94.04
428.001	180.05
428.209	91.99
428.417	268.11
428.624	87.89
428.832	122.71
429.039	141.14
429.247	110.42
429.454	63.32
429.662	270.16
429.869	137.04
430.076	118.61
430.284	212.82
430.491	237.39
430.699	145.24
430.906	296.78
431.114	122.71
431.321	169.81
431.528	128.85
431.736	231.25
431.943	216.91
432.15	186.19
432.358	257.87
432.565	251.73
432.772	28.5
432.979	288.59
433.187	208.72
433.394	227.15
433.601	112.47
433.808	282.45
434.016	253.78
434.223	268.11
434.43	276.31
434.637	216.91
434.844	323.41
435.052	143.19
435.259	296.78
435.466	300.88
435.673	343.89
435.88	259.92
436.087	296.78
436.294	358.22
436.501	313.17
436.708	239.44
436.915	388.94
437.122	411.47
437.329	321.36
437.537	313.17
437.743	393.04
437.95	415.57
438.157	436.05
438.364	526.16
438.571	343.89
438.778	507.73
438.985	431.95
439.192	499.53
439.399	522.06
439.606	513.87
439.813	583.5
440.02	706.38
440.227	700.23
440.433	667.47
440.64	595.79
440.847	489.29
441.054	651.08
441.261	784.2
441.467	667.47
441.674	661.32
441.881	726.86
442.088	624.46
442.294	851.78
442.501	911.18
442.708	937.8
442.914	771.91
443.121	939.85
443.328	952.13
443.534	1056.58
443.741	884.55
443.948	1009.48
444.154	980.81
444.361	1265.47
444.568	1124.16
444.774	1044.29
444.981	1083.2
445.187	1392.45
445.394	1267.52
445.6	1187.65
445.807	1390.4
446.013	1457.98
446.22	1353.54
446.426	1468.22
446.633	1554.24
446.839	1791.8
447.046	1576.77
447.252	1732.41
447.459	1707.84
447.665	1761.08
447.871	1912.63
448.078	2125.62
448.284	2115.38
448.491	2101.05
448.697	2152.24
448.903	2283.31
449.11	2318.13
449.316	2293.55
449.522	2527.02
449.728	2639.66
449.935	2676.52
450.141	2711.34
450.347	2942.76
450.553	2848.55
450.76	2969.38
450.966	3127.08
451.172	3170.08
451.378	3305.25
451.584	3462.94
451.791	3645.21
451.997	3798.81
452.203	3884.83
452.409	4085.53
452.615	4101.91
452.821	4093.72
453.027	4163.35
453.233	4695.82
453.44	4546.32
453.646	4792.08
453.852	4925.19
454.058	5183.24
454.264	5359.36
454.47	5662.46
454.676	5715.71
454.882	6151.93
455.088	5996.28
455.294	6266.61
455.5	6489.84
455.705	6928.11
455.911	6940.4
456.117	7149.29
456.323	7536.35
456.529	7603.94
456.735	8152.79
456.941	8234.71
457.147	8623.83
457.352	8859.34
457.558	9340.61
457.764	9756.35
457.97	10073.79
458.176	10428.09
458.381	10782.38
458.587	11142.83
458.793	11667.11
458.999	11636.39
459.204	13008.53
459.41	13254.28
459.616	13141.64
459.821	14259.84
460.027	14849.65
460.233	15337.07
460.438	15400.55
460.644	16475.74
460.85	16768.6
461.055	16993.87
461.261	17909.32
461.466	17636.94
461.672	17929.8
461.878	20262.43
462.083	19772.97
462.289	20362.78
462.494	21067.28
462.7	21177.87
462.905	21698.06
463.111	23154.16
463.316	24200.68
463.522	24896.99
463.727	25705.93
463.932	26600.9
464.138	26951.1
464.343	28376.48
464.549	28444.07
464.754	30336.39
464.959	31712.63
465.165	31831.41
465.37	31538.55
465.575	31966.57
465.781	34110.8
465.986	34895.17
466.191	34241.87
466.397	34774.34
466.602	34086.22
466.807	35908.91
467.012	36615.46
467.218	37174.56
467.423	36990.24
467.628	38186.25
467.833	40017.14
468.038	39144.7
468.244	38726.92
468.449	40615.15
468.654	39890.16
468.859	39781.62
469.064	39279.87
469.269	38755.59
469.474	39265.53
469.679	40264.94
469.885	39165.18
470.09	40068.34
470.295	39830.77
470.5	39163.14
470.705	39058.69
470.91	38264.08
471.115	37870.87
471.32	38608.14
471.525	38294.8
471.73	37201.18
471.935	36646.18
472.139	35790.13
472.344	35667.25
472.549	35360.06
472.754	34880.83
472.959	33758.55
473.164	32945.5
473.369	32523.62
473.574	32912.74
473.778	32599.4
473.983	32091.5
474.188	31599.99
474.393	30193.03
474.598	30117.26
474.802	28700.06
475.007	28915.1
475.212	28528.03
475.417	27303.35
475.621	27411.89
475.826	27063.74
476.031	26332.61
476.235	25599.44
476.44	25722.32
476.645	24950.23
476.849	24931.8
477.054	24100.33
477.259	23530.99
477.463	23645.68
477.668	23135.73
477.872	23274.99
478.077	22580.73
478.282	21794.31
478.486	21542.41
478.691	21413.39
478.895	21329.42
479.1	21233.17
479.304	20915.73
479.509	20620.83
479.713	20590.11
479.918	19777.06
480.122	19447.34
480.326	19734.06
480.531	19701.29
480.735	19457.58
480.94	18957.88
481.144	19838.5
481.348	18728.5
481.553	18869.81
481.757	18220.61
481.961	18359.87
482.166	18882.1
482.37	18232.9
482.574	17954.37
482.778	17880.64
482.983	18220.61
483.187	17581.64
483.391	17770.05
483.595	17460.81
483.8	17077.84
484.004	17106.51
484.208	17305.17
484.412	16883.28
484.616	16903.76
484.821	16619.1
485.025	16088.67
485.229	16215.65
485.433	15826.53
485.637	15810.15
485.841	15324.78
486.045	15294.06
486.249	15179.37
486.453	14732.92
486.657	14810.74
486.861	14497.4
487.065	14175.87
487.269	14194.3
487.473	13559.43
487.677	13588.1
487.881	13796.99
488.085	13192.84
488.289	12846.74
488.493	12662.42
488.697	12793.49
488.901	12422.81
489.105	12277.4
489.309	12005.02
489.512	11900.58
489.716	11603.62
489.92	11222.7
490.124	10786.48
490.328	11155.12
490.531	10710.71
490.735	10626.74
490.939	10477.24
491.143	10030.78
491.346	9938.62
491.55	9731.78
491.754	9721.54
491.958	9699.01
492.161	9158.35
492.365	9209.54
492.569	9123.53
492.772	8916.69
492.976	8902.35
493.18	8986.32
493.383	8677.07
493.587	8535.76
493.79	8369.88
493.994	8103.64
494.197	8302.29
494.401	8224.47
494.605	8156.89
494.808	8224.47
495.012	7958.24
495.215	7952.09
495.419	7802.59
495.622	7823.07
495.825	7671.52
496.029	7415.52
496.232	7808.73
496.436	7423.72
496.639	7796.45
496.843	7550.69
497.046	7448.29
497.249	7663.33
497.453	7671.52
497.656	7644.9
497.859	7421.67
498.063	7866.08
498.266	7575.27
498.469	7571.17
498.673	7497.44
498.876	7634.66
499.079	7732.96
499.282	7505.63
499.485	7837.41
499.689	7671.52
499.892	7773.92
500.095	7818.97
500.298	7855.84
500.501	7808.73
500.705	8068.83
500.908	8087.26
501.111	8183.51
501.314	8292.05
501.517	8462.04
501.72	8472.28
501.923	8386.26
502.126	8662.74
502.329	8836.81
502.532	8750.8
502.735	8679.12
502.938	9043.66
503.141	8959.69
503.344	8816.33
503.547	9144.01
503.75	9420.49
503.953	9309.9
504.156	9512.64
504.359	9641.67
504.562	9690.82
504.765	9948.86
504.968	10086.08
505.17	10321.59
505.373	10186.43
505.576	10372.79
505.779	10796.72
505.982	10612.4
506.185	11024.05
506.387	11124.4
506.59	11407.02
506.793	11554.47
506.996	11644.58
507.198	12084.89
507.401	12349.08
507.604	12332.7
507.807	12820.11
508.009	12797.59
508.212	13076.11
508.415	13487.75
508.617	13788.8
508.82	13842.05
509.022	14044.8
509.225	14683.77
509.428	14644.85
509.63	15117.93
509.833	14995.06
510.035	16004.71
510.238	15877.73
510.44	16227.93
510.643	16959.06
510.845	17137.23
511.048	17145.42
511.25	17757.77
511.453	18071.11
511.655	19101.23
511.858	18861.62
512.06	19287.6
512.262	19893.8
512.465	19648.04
512.667	20647.45
512.87	20866.58
513.072	21573.13
513.274	21935.62
513.477	22627.84
513.679	22898.17
513.881	23389.68
514.084	24108.52
514.286	24399.33
514.488	24684
514.69	25875.91
514.893	26060.23
515.095	26502.59
515.297	27114.94
515.499	27272.63
515.701	28028.33
515.904	29097.37
516.106	29466
516.308	29896.08
516.51	30524.8
516.712	31120.76
516.914	31769.97
517.116	32308.58
517.318	32808.29
517.52	33518.93
517.722	33910.1
517.925	34540.87
518.127	35405.11
518.329	35810.61
518.531	35925.3
518.733	37027.1
518.935	37526.81
519.136	37899.54
519.338	38346
519.54	39341.31
519.742	40232.18
519.944	40652.01
520.146	41477.34
520.348	41897.17
520.55	41940.18
520.752	42540.24
520.954	43308.22
521.155	43676.86
521.357	43726.01
521.559	44481.71
521.761	45417.63
521.963	45616.29
522.164	45780.12
522.366	46087.32
522.568	46900.36
522.77	46945.42
522.971	47834.24
523.173	47398.02
523.375	47903.87
523.576	47787.13
523.778	47795.32
523.98	48702.57
524.181	48847.98
524.383	48702.57
524.584	49362.02
524.786	49581.15
524.988	49044.58
525.189	49638.5
525.391	49837.15
525.592	49927.26
525.794	49871.96
525.995	49742.94
526.197	49802.33
526.398	49224.81
526.6	49323.11
526.801	48888.94
527.003	49359.97
527.204	48958.57
527.406	49218.66
527.607	48311.41
527.808	48938.09
528.01	47737.98
528.211	47807.61
528.412	48127.09
528.614	47830.14
528.815	47318.15
529.016	47332.48
529.218	46001.3
529.419	46349.46
529.62	45481.12
529.822	45061.29
530.023	44919.98
530.224	44653.74
530.425	44096.69
530.626	43506.88
530.828	42611.92
531.029	43144.39
531.23	42265.81
531.431	41612.51
531.632	41786.58
531.833	41118.95
532.035	40205.55
532.236	40086.77
532.437	39795.96
532.638	38407.44
532.839	38706.44
533.04	38423.82
533.241	37328.16
533.442	37451.03
533.643	36685.09
533.844	36318.51
534.045	36027.7
534.246	34917.7
534.447	34979.14
534.648	33940.82
534.849	33801.55
535.05	33404.25
535.251	33269.08
535.451	32122.22
535.652	31800.69
535.853	31831.41
536.054	31337.85
536.255	30512.52
536.456	30250.38
536.657	30563.71
536.857	29566.35
537.058	28999.07
537.259	28663.2
537.46	28429.73
537.66	27737.52
537.861	27792.81
538.062	26967.48
538.263	26869.18
538.463	26772.92
538.664	26160.58
538.865	25865.67
539.065	26066.38
539.266	25361.87
539.466	25163.22
539.667	24444.38
539.868	24755.68
540.068	24223.2
540.269	23913.96
540.469	23490.03
540.67	23236.08
540.87	23252.47
541.071	22779.39
541.271	22455.81
541.472	22435.33
541.672	22070.79
541.873	21622.28
542.073	21335.57
542.274	21233.17
542.474	20727.32
542.675	20909.59
542.875	20471.32
543.075	20385.31
543.276	19707.43
543.476	20123.17
543.676	19486.25
543.877	19334.7
544.077	19090.99
544.277	18998.84
544.478	18638.39
544.678	18570.81
544.878	18257.47
545.078	18089.54
545.279	17944.13
545.479	17432.14
545.679	17317.45
545.879	17411.66
546.079	17145.42
546.28	16840.28
546.48	16647.77
546.68	16639.58
546.88	16428.63
547.08	16031.33
547.28	15881.83
547.48	15713.89
547.68	15619.69
547.88	15287.92
548.081	15259.24
548.281	14722.68
548.481	14763.64
548.681	14806.64
548.881	14386.81
549.081	14186.11
549.28	14151.29
549.48	14050.94
549.68	13790.85
549.88	13563.53
550.08	13201.04
550.28	13231.76
550.48	13000.33
550.68	12926.61
550.88	12635.8
551.08	12254.87
551.279	12424.86
551.479	12064.41
551.679	12164.76
551.879	11515.56
552.079	11656.87
552.278	11429.54
552.478	11486.89
552.678	11093.68
552.878	11077.29
553.077	10722.99
553.277	10340.02
553.477	10780.34
553.676	10401.46
553.876	10079.93
554.076	9832.13
554.275	9875.13
554.475	9397.96
554.674	9604.8
554.874	9252.55
555.074	9086.67
555.273	9025.23
555.473	8974.03
555.672	8707.79
555.872	8566.48
556.071	8503
556.271	8621.78
556.47	8052.44
556.67	7929.56
556.869	7945.95
557.068	7759.58
557.268	7821.02
557.467	7720.67
557.667	7505.63
557.866	7390.95
558.065	7214.82
558.265	7083.75
558.464	6835.95
558.663	6921.96
558.863	6678.26
559.062	6754.03
559.261	6504.18
559.461	6651.63
559.66	6205.17
559.859	6196.98
560.058	6070.01
560.258	5965.56
560.457	5916.41
560.656	5986.04
560.855	5662.46
561.054	5754.62
561.253	5553.92
561.453	5670.65
561.652	5521.15
561.851	5377.8
562.05	5148.42
562.249	5142.28
562.448	5297.92
562.647	4919.05
562.846	4906.76
563.045	4960.01
563.244	4785.93
563.443	4792.08
563.642	4618
563.841	4691.73
564.04	4454.16
564.239	4511.5
564.438	4437.78
564.637	4212.5
564.836	4263.7
565.035	4247.32
565.234	4114.2
565.432	4050.71
565.631	4013.85
565.83	3985.18
566.029	3833.63
566.228	3862.3
566.427	3827.48
566.625	3692.32
566.824	3698.46
567.023	3737.37
567.222	3639.07
567.42	3510.05
567.619	3571.49
567.818	3505.95
568.016	3571.49
568.215	3346.21
568.414	3391.27
568.612	3268.39
568.811	3202.85
569.01	3065.64
569.208	3120.93
569.407	3065.64
569.605	2989.86
569.804	3002.15
570.002	3047.21
570.201	2774.83
570.4	2895.66
570.598	2799.4
570.797	2713.39
570.995	2793.26
571.193	2674.48
571.392	2764.59
571.59	2586.41
571.789	2676.52
571.987	2623.28
572.186	2649.9
572.384	2391.86
572.582	2494.26
572.781	2537.26
572.979	2322.23
573.177	2248.5
573.376	2410.29
573.574	2275.12
573.772	2279.22
573.971	2260.79
574.169	2103.09
574.367	2193.2
574.565	2092.85
574.763	2023.22
574.962	1965.88
575.16	1879.86
575.358	1926.97
575.556	1976.12
575.754	1886.01
575.952	1820.47
576.151	1810.23
576.349	1900.34
576.547	1611.58
576.745	1814.33
576.943	1779.51
577.141	1750.84
577.339	1693.5
577.537	1634.11
577.735	1632.06
577.933	1646.4
578.131	1593.15
578.329	1627.96
578.527	1593.15
578.725	1615.68
578.923	1341.25
579.121	1597.24
579.319	1324.87
579.516	1392.45
579.714	1595.2
579.912	1464.13
580.11	1244.99
580.308	1331.01
580.506	1296.19
580.704	1171.27
580.901	1361.73
581.099	1367.87
581.297	1269.57
581.495	1273.67
581.692	1234.75
581.89	1296.19
582.088	1144.64
582.285	1148.74
582.483	1169.22
582.681	1161.03
582.878	1148.74
583.076	1054.53
583.274	1060.68
583.471	1066.82
583.669	1079.11
583.866	993.09
584.064	919.37
584.262	913.22
584.459	950.09
584.657	1042.25
584.854	1029.96
585.052	925.51
585.249	956.23
585.447	958.28
585.644	851.78
585.841	960.33
586.039	999.24
586.236	976.71
586.434	925.51
586.631	919.37
586.828	769.87
587.026	749.39
587.223	821.06
587.42	827.21
587.618	835.4
587.815	853.83
588.012	782.15
588.21	661.32
588.407	847.69
588.604	980.81
588.801	667.47
588.999	679.75
589.196	868.17
589.393	675.66
589.59	618.32
589.787	751.43
589.984	726.86
590.182	745.29
590.379	642.89
590.576	743.24
590.773	735.05
590.97	771.91
591.167	720.71
591.364	689.99
591.561	620.36
591.758	730.95
591.955	745.29
592.152	712.52
592.349	739.15
592.546	739.15
592.743	601.93
592.94	730.95
593.137	702.28
593.334	718.67
593.531	710.47
593.727	726.86
593.924	726.86
594.121	638.8
594.318	712.52
594.515	710.47
594.712	825.16
594.908	767.82
595.105	730.95
595.302	741.19
595.499	755.53
595.696	763.72
595.892	769.87
596.089	841.54
596.286	753.48
596.482	874.31
596.679	857.93
596.876	755.53
597.072	882.5
597.269	802.63
597.466	857.93
597.662	845.64
597.859	868.17
598.055	997.19
598.252	1009.48
598.448	995.14
598.645	1036.1
598.841	1158.98
599.038	1228.61
599.234	1259.33
599.431	1210.18
599.627	1353.54
599.824	1343.3
600.02	1419.07
600.217	1343.3
600.413	1500.99
600.609	1466.17
600.806	1838.91
601.002	1726.27
601.198	1632.06
601.395	1877.82
601.591	1881.91
601.787	1820.47
601.984	2105.14
602.18	1933.11
602.376	1961.78
602.572	2158.39
602.769	2363.19
602.965	2199.35
603.161	2363.19
603.357	2549.55
603.553	2670.38
603.75	2606.89
603.946	2735.92
604.142	2764.59
604.338	2957.1
604.534	3059.49
604.73	3116.84
604.926	3161.89
605.122	3358.5
605.318	3512.1
605.514	3577.63
605.71	3659.55
605.906	3813.15
606.102	3856.15
606.298	4091.67
606.494	4136.73
606.69	4355.86
606.886	4445.97
607.082	4390.67
607.278	4509.46
607.474	4628.24
607.67	4837.13
607.866	5003.02
608.062	5279.49
608.257	5216.01
608.453	5318.4
608.649	5486.34
608.845	5684.99
609.041	5809.92
609.236	6086.39
609.432	6291.19
609.628	6371.06
609.824	6663.92
610.019	6559.47
610.215	6881
610.411	7157.48
610.606	7413.48
610.802	7495.39
610.998	7540.45
611.193	7968.48
611.389	7884.51
611.584	8234.71
611.78	8371.93
611.976	8574.67
612.171	9197.26
612.367	9172.68
612.562	9334.47
612.758	9711.3
612.953	9793.22
613.149	10170.04
613.344	10276.54
613.539	10679.99
613.735	11015.85
613.93	11296.42
614.126	11538.09
614.321	11830.94
614.517	12359.32
614.712	12353.18
614.907	12666.52
615.103	13115.02
615.298	13471.37
615.493	13803.14
615.688	13889.15
615.884	14517.88
616.079	14601.85
616.274	15267.44
616.47	15607.4
616.665	15879.78
616.86	16391.77
617.055	16801.36
617.25	16997.97
617.445	17716.81
617.641	17745.48
617.836	18470.46
618.031	18781.75
618.226	19611.18
618.421	19826.21
618.616	20315.68
618.811	20657.69
619.006	21157.39
619.201	21411.34
619.396	22205.95
619.591	22412.8
619.786	23373.3
619.981	23455.22
620.176	24102.37
620.371	24212.96
620.566	25277.91
620.761	25501.14
620.956	26332.61
621.151	26090.95
621.346	27325.88
621.541	27289.01
621.735	28235.17
621.93	28476.83
622.125	29074.84
622.32	29310.36
622.515	30258.57
622.709	30879.1
622.904	31354.23
623.099	31454.58
623.294	32394.6
623.488	32521.57
623.683	33617.24
623.878	33719.63
624.072	34295.11
624.267	35063.1
624.462	34989.38
624.656	35880.24
624.851	36873.51
625.046	37168.41
625.24	37745.94
625.435	37840.15
625.629	38964.48
625.824	39097.6
626.018	39597.31
626.213	39447.8
626.407	40766.7
626.602	40107.25
626.796	41458.91
626.991	41669.85
627.185	41983.19
627.38	42228.94
627.574	42556.62
627.768	42720.46
627.963	42712.27
628.157	42958.02
628.352	43687.1
628.546	43168.96
628.74	43832.5
628.935	43252.93
629.129	43648.19
629.323	42937.54
629.517	42503.37
629.712	42491.08
629.906	42648.78
630.1	42177.75
630.294	41874.65
630.489	41041.12
630.683	40944.87
630.877	39779.57
631.071	39017.73
631.265	38993.15
631.459	38018.32
631.653	36715.81
631.848	36658.47
632.042	35593.53
632.236	34827.59
632.43	33764.69
632.624	33107.29
632.818	31647.09
633.012	30684.55
633.206	29971.85
633.4	29408.66
633.594	28038.57
633.788	27770.29
633.982	26435.01
634.176	25449.94
634.369	24815.07
634.563	23416.3
634.757	22361.6
634.951	21970.44
635.145	21241.36
635.339	20373.02
635.533	19576.36
635.726	18677.3
635.92	17942.08
636.114	17040.98
636.308	16287.32
636.501	15914.59
636.695	15515.24
636.889	14515.83
637.083	14253.69
637.276	13211.28
637.47	12711.57
637.664	12299.93
637.857	11808.42
638.051	11413.16
638.244	10905.26
638.438	10604.21
638.632	10116.79
638.825	9492.16
639.019	9350.85
639.212	8785.62
639.406	8570.58
639.599	8120.03
639.793	7960.28
639.986	7472.87
640.18	7415.52
640.373	7120.62
640.567	6860.52
640.76	6375.16
640.954	6199.03
641.147	5965.56
641.34	5627.65
641.534	5560.06
641.727	5562.11
641.92	5144.33
642.114	5005.06
642.307	4775.69
642.5	4550.42
642.694	4337.43
642.887	4474.64
643.08	4095.77
643.273	3940.12
643.467	3751.71
643.66	3579.68
643.853	3499.81
644.046	3569.44
644.239	3254.05
644.432	3223.33
644.626	2869.03
644.819	2887.47
645.012	2809.64
645.205	2729.77
645.398	2697
645.591	2459.44
645.784	2377.52
645.977	2217.78
646.17	2203.44
646.363	2074.42
646.556	2045.75
646.749	2010.93
646.942	1920.82
647.135	1781.56
647.328	1728.31
647.521	1699.64
647.714	1599.29
647.907	1673.02
648.099	1470.27
648.292	1474.37
648.485	1437.5
648.678	1322.82
648.871	1279.81
649.064	1279.81
649.256	1167.17
649.449	1144.64
649.642	999.24
649.835	1054.53
650.027	997.19
650.22	1206.08
650.413	1021.77
650.605	1001.29
650.798	866.12
650.991	882.5
651.183	841.54
651.376	911.18
651.568	802.63
651.761	776.01
651.954	798.54
652.146	712.52
652.339	771.91
652.531	728.91
652.724	563.02
652.916	634.7
653.109	522.06
653.301	642.89
653.494	657.23
653.686	651.08
653.879	683.85
654.071	657.23
654.263	550.73
654.456	528.21
654.648	595.79
654.84	456.53
655.033	460.62
655.225	583.5
655.417	274.26
655.61	552.78
655.802	487.25
655.994	528.21
656.186	325.46
656.379	509.77
656.571	403.28
656.763	423.76
656.955	380.75
657.148	368.46
657.34	429.9
657.532	382.8
657.724	386.9
657.916	421.71
658.108	438.09
658.3	427.85
658.492	429.9
658.684	272.21
658.876	354.13
659.068	233.3
659.26	186.19
659.452	253.78
659.644	323.41
659.836	339.79
660.028	257.87
660.22	302.93
660.412	302.93
660.604	319.31
660.796	290.64
660.988	386.9
661.18	218.96
661.372	307.02
661.563	276.31
661.755	229.2
661.947	241.49
662.139	208.72
662.331	218.96
662.522	184.15
662.714	151.38
662.906	264.02
663.097	290.64
663.289	214.87
663.481	96.08
663.673	229.2
663.864	188.24
664.056	268.11
664.247	130.9
664.439	272.21
664.631	266.07
664.822	221.01
665.014	204.63
665.205	126.8
665.397	223.06
665.588	169.81
665.78	194.39
665.971	249.68
666.163	218.96
666.354	186.19
666.546	204.63
666.737	204.63
666.929	186.19
667.12	139.09
667.311	253.78
667.503	198.48
667.694	239.44
667.885	153.43
668.077	221.01
668.268	55.12
668.459	221.01
668.651	196.43
668.842	180.05
669.033	141.14
669.224	91.99
669.416	307.02
669.607	171.86
669.798	130.9
669.989	249.68
670.18	135
670.371	296.78
670.563	126.8
670.754	221.01
670.945	227.15
671.136	227.15
671.327	120.66
671.518	253.78
671.709	354.13
671.9	214.87
672.091	284.5
672.282	227.15
672.473	231.25
672.664	85.84
672.855	167.76
673.046	227.15
673.237	366.42
673.428	167.76
673.619	378.7
673.809	141.14
674	341.84
674.191	231.25
674.382	165.71
674.573	139.09
674.764	161.62
674.954	362.32
675.145	165.71
675.336	163.67
675.527	182.1
675.717	149.33
675.908	223.06
676.099	149.33
676.289	198.48
676.48	36.69
676.671	204.63
676.861	180.05
677.052	243.54
677.243	218.96
677.433	132.95
677.624	206.67
677.814	259.92
678.005	245.59
678.195	333.65
678.386	182.1
678.576	221.01
678.767	141.14
678.957	245.59
679.148	337.74
679.338	335.7
679.529	200.53
679.719	157.52
679.909	241.49
680.1	294.74
680.29	284.5
680.481	178
680.671	268.11
680.861	298.83
681.052	313.17
681.242	196.43
681.432	280.4
681.622	339.79
681.813	278.35
682.003	239.44
682.193	274.26
682.383	282.45
682.573	280.4
682.764	188.24
682.954	253.78
683.144	247.63
683.334	329.55
683.524	302.93
683.714	251.73
683.904	362.32
684.094	343.89
684.284	399.18
684.474	407.38
684.664	317.26
684.854	325.46
685.044	288.59
685.234	235.35
685.424	337.74
685.614	241.49
685.804	370.51
685.994	364.37
686.184	302.93
686.374	364.37
686.564	229.2
686.753	331.6
686.943	178
687.133	280.4
687.323	337.74
687.513	390.99
687.702	366.42
687.892	268.11
688.082	401.23
688.272	360.27
688.461	292.69
688.651	440.14
688.841	386.9
689.03	214.87
689.22	296.78
689.41	460.62
689.599	307.02
689.789	298.83
689.979	380.75
690.168	239.44
690.358	386.9
690.547	321.36
690.737	304.98
690.926	282.45
691.116	264.02
691.305	397.14
691.495	311.12
691.684	274.26
691.874	243.54
692.063	288.59
692.252	302.93
692.442	313.17
692.631	255.83
692.82	214.87
693.01	339.79
693.199	261.97
693.388	397.14
693.578	202.58
693.767	370.51
693.956	300.88
694.146	198.48
694.335	268.11
694.524	270.16
694.713	325.46
694.902	245.59
695.092	296.78
695.281	329.55
695.47	257.87
695.659	274.26
695.848	323.41
696.037	218.96
696.226	302.93
696.415	237.39
696.604	319.31
696.793	376.66
696.982	270.16
697.171	356.18
697.36	241.49
697.549	216.91
697.738	202.58
697.927	175.95
698.116	194.39
698.305	298.83
698.494	249.68
698.683	229.2
698.872	333.65
699.061	266.07
699.25	218.96
699.438	259.92
699.627	169.81
699.816	390.99
700.005	173.91
700.193	235.35
700.382	288.59
700.571	286.54
700.76	294.74
700.948	313.17
701.137	354.13
701.326	325.46
701.514	331.6
701.703	229.2
701.892	270.16
702.08	386.9
702.269	233.3
702.457	110.42
702.646	317.26
702.834	208.72
703.023	329.55
703.212	347.98
703.4	264.02
703.589	198.48
703.777	225.11
703.965	135
704.154	259.92
704.342	159.57
704.531	231.25
704.719	223.06
704.907	341.84
705.096	163.67
705.284	247.63
705.472	239.44
705.661	317.26
705.849	278.35
706.037	266.07
706.226	286.54
706.414	257.87
706.602	223.06
706.79	272.21
706.979	245.59
707.167	208.72
707.355	104.28
707.543	245.59
707.731	188.24
707.919	229.2
708.107	180.05
708.296	208.72
708.484	233.3
708.672	309.07
708.86	278.35
709.048	243.54
709.236	110.42
709.424	311.12
709.612	233.3
709.8	249.68
709.988	122.71
710.176	323.41
710.364	311.12
710.551	235.35
710.739	239.44
710.927	173.91
711.115	302.93
711.303	282.45
711.491	325.46
711.679	225.11
711.866	304.98
712.054	223.06
712.242	259.92
712.43	280.4
712.617	202.58
712.805	276.31
712.993	241.49
713.181	110.42
713.368	323.41
713.556	243.54
713.744	200.53
713.931	372.56
714.119	352.08
714.306	175.95
714.494	233.3
714.682	257.87
714.869	145.24
715.057	243.54
715.244	100.18
715.432	300.88
715.619	270.16
715.807	153.43
715.994	278.35
716.182	221.01
716.369	302.93
716.556	300.88
716.744	108.37
716.931	200.53
717.119	212.82
717.306	231.25
717.493	233.3
717.681	212.82
717.868	229.2
718.055	286.54
718.242	296.78
718.43	270.16
718.617	276.31
718.804	198.48
718.991	323.41
719.179	321.36
719.366	278.35
719.553	270.16
719.74	231.25
719.927	270.16
720.114	280.4
720.301	239.44
720.488	208.72
720.676	188.24
720.863	323.41
721.05	386.9
721.237	358.22
721.424	278.35
721.611	382.8
721.798	204.63
721.985	223.06
722.172	282.45
722.358	257.87
722.545	327.5
722.732	251.73
722.919	411.47
723.106	323.41
723.293	274.26
723.48	255.83
723.667	237.39
723.853	358.22
724.04	323.41
724.227	376.66
724.414	298.83
724.6	352.08
724.787	415.57
724.974	372.56
725.161	350.03
725.347	192.34
725.534	241.49
725.72	345.94
725.907	264.02
726.094	331.6
726.28	182.1
726.467	190.29
726.653	212.82
726.84	444.24
727.027	354.13
727.213	261.97
727.4	339.79
727.586	339.79
727.773	337.74
727.959	319.31
728.145	319.31
728.332	259.92
728.518	264.02
728.705	417.61
728.891	325.46
729.077	307.02
729.264	251.73
729.45	253.78
729.636	315.22
729.823	296.78
730.009	372.56
730.195	343.89
730.382	362.32
730.568	180.05
730.754	266.07
730.94	282.45
731.126	214.87
731.313	393.04
731.499	397.14
731.685	368.46
731.871	333.65
732.057	341.84
732.243	352.08
732.429	354.13
732.615	440.14
732.801	317.26
732.987	210.77
733.173	253.78
733.359	296.78
733.545	364.37
733.731	294.74
733.917	376.66
734.103	300.88
734.289	393.04
734.475	239.44
734.661	401.23
734.847	278.35
735.033	350.03
735.219	382.8
735.404	337.74
735.59	259.92
735.776	292.69
735.962	319.31
736.148	341.84
736.333	403.28
736.519	386.9
736.705	270.16
736.89	329.55
737.076	374.61
737.262	272.21
737.447	261.97
737.633	350.03
737.819	337.74
738.004	268.11
738.19	315.22
738.375	304.98
738.561	382.8
738.747	319.31
738.932	268.11
739.118	501.58
739.303	370.51
739.489	325.46
739.674	276.31
739.859	253.78
740.045	382.8
740.23	296.78
740.416	157.52
740.601	317.26
740.786	302.93
740.972	286.54
741.157	278.35
741.342	237.39
741.528	194.39
741.713	360.27
741.898	294.74
742.084	333.65
742.269	290.64
742.454	339.79
742.639	366.42
742.824	386.9
743.01	415.57
743.195	460.62
743.38	319.31
743.565	249.68
743.75	311.12
743.935	358.22
744.12	460.62
744.305	231.25
744.49	266.07
744.675	282.45
744.86	235.35
745.045	329.55
745.23	302.93
745.415	323.41
745.6	425.81
745.785	235.35
745.97	415.57
746.155	321.36
746.34	364.37
746.525	327.5
746.71	360.27
746.895	313.17
747.079	182.1
747.264	241.49
747.449	333.65
747.634	382.8
747.819	341.84
748.003	264.02
748.188	251.73
748.373	276.31
748.557	343.89
748.742	190.29
748.927	282.45
749.111	317.26
749.296	259.92
749.481	300.88
749.665	290.64
749.85	153.43
750.034	325.46
750.219	284.5
750.404	237.39
750.588	261.97
750.773	186.19
750.957	327.5
751.141	247.63
751.326	304.98
751.51	214.87
751.695	165.71
751.879	190.29
752.064	370.51
752.248	272.21
752.432	319.31
752.617	210.77
752.801	278.35
752.985	135
753.17	419.66
753.354	235.35
753.538	253.78
753.722	155.47
753.907	165.71
754.091	139.09
754.275	196.43
754.459	77.65
754.643	137.04
754.828	239.44
755.012	272.21
755.196	157.52
755.38	194.39
755.564	202.58
755.748	214.87
755.932	321.36
756.116	251.73
756.3	245.59
756.484	204.63
756.668	208.72
756.852	126.8
757.036	173.91
757.22	307.02
757.404	137.04
757.588	126.8
757.772	231.25
757.956	196.43
758.14	261.97
758.323	239.44
758.507	202.58
758.691	122.71
758.875	259.92
759.059	235.35
759.242	124.76
759.426	151.38
759.61	218.96
759.794	139.09
759.977	141.14
760.161	388.94
760.345	343.89
760.528	192.34
760.712	237.39
760.895	206.67
761.079	171.86
761.263	130.9
761.446	77.65
761.63	186.19
761.813	264.02
761.997	77.65
762.18	161.62
762.364	141.14
762.547	51.03
762.731	173.91
762.914	178
763.098	137.04
763.281	161.62
763.464	65.36
763.648	212.82
763.831	143.19
764.015	91.99
764.198	155.47
764.381	159.57
764.564	149.33
764.748	120.66
764.931	106.32
765.114	94.04
765.297	182.1
765.481	75.6
765.664	18.26
765.847	132.95
766.03	214.87
766.213	75.6
766.397	120.66
766.58	53.08
766.763	167.76
766.946	147.28
767.129	182.1
767.312	12.12
767.495	141.14
767.678	126.8
767.861	159.57
768.044	83.8
768.227	128.85
768.41	79.7
768.593	126.8
768.776	85.84
768.959	102.23
769.142	225.11
769.324	89.94
769.507	100.18
769.69	157.52
769.873	102.23
770.056	286.54
770.239	102.23
770.421	180.05
770.604	130.9
770.787	53.08
770.97	128.85
771.152	73.56
771.335	218.96
771.518	-18.6
771.7	151.38
771.883	235.35
772.066	161.62
772.248	118.61
772.431	182.1
772.613	210.77
772.796	42.84
772.978	114.52
773.161	149.33
773.343	83.8
773.526	55.12
773.708	-20.65
773.891	61.27
774.073	106.32
774.256	-0.17
774.438	175.95
774.621	5.97
774.803	75.6
774.985	32.6
775.168	165.71
775.35	89.94
775.532	106.32
775.715	114.52
775.897	102.23
776.079	73.56
776.261	77.65
776.444	98.13
776.626	48.98
776.808	100.18
776.99	-37.03
777.173	108.37
777.355	-51.37
777.537	91.99
777.719	98.13
777.901	94.04
778.083	79.7
778.265	55.12
778.447	208.72
778.629	44.88
778.811	124.76
778.993	73.56
779.175	110.42
779.357	91.99
779.539	16.21
779.721	67.41
779.903	149.33
780.085	87.89
780.267	65.36
780.449	28.5
780.631	24.4
780.812	171.86
780.994	18.26
781.176	46.93
781.358	-12.46
781.54	79.7
781.721	153.43
781.903	155.47
782.085	69.46
782.267	120.66
782.448	-4.27
782.63	-0.17
782.812	71.51
782.993	188.24
783.175	40.79
783.357	26.45
783.538	22.36
783.72	20.31
783.901	40.79
784.083	108.37
784.264	102.23
784.446	34.64
784.627	8.02
784.809	100.18
784.99	42.84
785.172	61.27
785.353	104.28
785.535	55.12
785.716	-59.56
785.897	-41.13
786.079	63.32
786.26	77.65
786.441	81.75
786.623	-28.84
786.804	96.08
786.985	38.74
787.167	51.03
787.348	67.41
787.529	63.32
787.71	214.87
787.891	120.66
788.073	42.84
788.254	1.88
788.435	114.52
788.616	87.89
788.797	16.21
788.978	59.22
789.159	-47.27
789.34	132.95
789.522	-32.94
789.703	71.51
789.884	-12.46
790.065	79.7
790.246	173.91
790.427	10.07
790.607	165.71
790.788	128.85
790.969	-55.47
791.15	-6.31
791.331	-59.56
791.512	10.07
791.693	-34.99
791.874	-26.79
792.054	161.62
792.235	87.89
792.416	-0.17
792.597	10.07
792.778	77.65
792.958	153.43
793.139	96.08
793.32	122.71
793.5	32.6
793.681	141.14
793.862	130.9
794.042	28.5
794.223	-96.43
794.404	-14.51
794.584	-61.61
794.765	61.27
794.945	-30.89
795.126	48.98
795.306	61.27
795.487	65.36
795.667	1.88
795.848	135
796.028	42.84
796.209	30.55
796.389	83.8
796.57	-28.84
796.75	-57.51
796.93	34.64
797.111	22.36
797.291	48.98
797.471	106.32
797.652	-32.94
797.832	-16.55
798.012	77.65
798.192	8.02
798.373	8.02
798.553	30.55
798.733	28.5
798.913	12.12
799.093	-12.46
799.274	40.79
799.454	139.09
799.634	85.84
799.814	48.98
799.994	98.13
800.174	16.21
800.354	42.84
800.534	-125.1
800.714	106.32
800.894	-82.09
801.074	-157.86
801.254	16.21
801.434	184.15
801.614	-10.41
801.794	-90.28
801.974	1728.31
802.154	-24.75
802.334	69.46
802.514	-0.17
802.693	18.26
802.873	-24.75
803.053	83.8
803.233	30.55
803.413	-2.22
803.592	-22.7
803.772	-59.56
803.952	42.84
804.131	18.26
804.311	110.42
804.491	96.08
804.67	48.98
804.85	8.02
805.03	116.56
805.209	124.76
805.389	71.51
805.568	10.07
805.748	-24.75
805.928	30.55
806.107	67.41
806.287	89.94
806.466	51.03
806.646	59.22
806.825	24.4
807.004	-30.89
807.184	-34.99
807.363	30.55
807.543	38.74
807.722	-41.13
807.901	114.52
808.081	169.81
808.26	-186.54
808.439	46.93
808.619	-20.65
808.798	-20.65
808.977	24.4
809.156	143.19
809.336	65.36
809.515	124.76
809.694	30.55
809.873	-39.08
810.052	79.7
810.231	155.47
810.411	40.79
810.59	75.6
810.769	28.5
810.948	44.88
811.127	-47.27
811.306	32.6
811.485	-43.18
811.664	110.42
811.843	137.04
812.022	69.46
812.201	42.84
812.38	26.45
812.559	-51.37
812.737	18.26
812.916	-86.19
813.095	-45.23
813.274	-75.95
813.453	65.36
813.632	61.27
813.811	12.12
813.989	-10.41
814.168	59.22
814.347	-34.99
814.526	-10.41
814.704	135
814.883	79.7
815.062	-55.47
815.24	3.93
815.419	-69.8
815.598	75.6
815.776	-71.85
815.955	-0.17
816.133	-94.38
816.312	51.03
816.49	-24.75
816.669	-75.95
816.847	-51.37
817.026	67.41
817.204	12.12
817.383	8.02
817.561	-75.95
817.74	30.55
817.918	-20.65
818.097	-45.23
818.275	-34.99
818.453	46.93
818.632	98.13
818.81	-30.89
818.988	-65.71
819.167	-0.17
819.345	-10.41
819.523	-34.99
819.701	-0.17
819.879	34.64
820.058	44.88
820.236	24.4
820.414	63.32
820.592	-26.79
820.77	-77.99
820.948	-37.03
821.127	-47.27
821.305	106.32
821.483	22.36
821.661	24.4
821.839	53.08
822.017	24.4
822.195	77.65
822.373	55.12
822.551	12.12
822.729	77.65
822.907	-34.99
823.085	44.88
823.262	-10.41
823.44	22.36
823.618	67.41
823.796	22.36
823.974	-100.52
824.152	-20.65
824.329	65.36
824.507	-2.22
824.685	91.99
824.863	22.36
825.04	12.12
825.218	63.32
825.396	-22.7
825.574	71.51
825.751	59.22
825.929	-8.36
826.107	-32.94
826.284	132.95
826.462	75.6
826.639	59.22
826.817	-84.14
826.994	69.46
827.172	14.17
827.349	36.69
827.527	3.93
827.704	12.12
827.882	51.03
828.059	-30.89
828.237	-49.32
828.414	57.17
828.591	-73.9
828.769	-2.22
828.946	1.88
829.124	87.89
829.301	153.43
829.478	-47.27
829.655	149.33
829.833	14.17
830.01	-151.72
830.187	-39.08
830.364	-20.65
830.542	100.18
830.719	116.56
830.896	61.27
831.073	14.17
831.25	22.36
831.427	38.74
831.604	-59.56
831.782	-26.79
831.959	-20.65
832.136	-8.36
832.313	26.45
832.49	8.02
832.667	81.75
832.844	26.45
833.021	67.41
833.198	59.22
833.374	-0.17
833.551	16.21
833.728	-8.36
833.905	157.52
834.082	-110.76
834.259	108.37
834.436	116.56
834.612	-16.55
834.789	159.57
834.966	30.55
835.143	-51.37
835.319	10.07
835.496	71.51
835.673	98.13
835.85	137.04
836.026	108.37
836.203	57.17
836.38	26.45
836.556	-0.17
836.733	46.93
836.909	106.32
837.086	96.08
837.262	-51.37
837.439	28.5
837.616	-63.66
837.792	40.79
837.968	-4.27
838.145	-141.48
838.321	61.27
838.498	81.75
838.674	44.88
838.851	67.41
839.027	-26.79
839.203	71.51
839.38	-6.31
839.556	-45.23
839.732	114.52
839.909	57.17
840.085	10.07
840.261	-57.51
840.437	-8.36
840.614	-18.6
840.79	128.85
840.966	34.64
841.142	51.03
841.318	-12.46
841.494	48.98
841.671	100.18
841.847	-53.42
842.023	-98.47
842.199	-34.99
842.375	87.89
842.551	-69.8
842.727	-0.17
842.903	94.04
843.079	-86.19
843.255	30.55
843.431	67.41
843.607	34.64
843.783	-149.67
843.959	32.6
844.134	26.45
844.31	59.22
844.486	-18.6
844.662	-90.28
844.838	8.02
845.013	61.27
845.189	44.88
845.365	-6.31
845.541	-22.7
845.716	32.6
845.892	130.9
846.068	24.4
846.244	5.97
846.419	14.17
846.595	-47.27
846.77	-12.46
846.946	87.89
847.122	1.88
847.297	10.07
847.473	147.28
847.648	-96.43
847.824	20.31
847.999	-88.23
848.175	-18.6
848.35	16.21
848.526	91.99
848.701	42.84
848.876	67.41
849.052	167.76
849.227	-96.43
849.403	-47.27
849.578	26.45
849.753	-4.27
849.929	26.45
850.104	-12.46
850.279	18.26
850.454	57.17
850.63	30.55
850.805	-51.37
850.98	-12.46
851.155	32.6
851.33	44.88
851.505	-34.99
851.681	89.94
851.856	-34.99
852.031	-6.31
852.206	18.26
852.381	-18.6
852.556	-34.99
852.731	112.47
852.906	65.36
853.081	20.31
853.256	42.84
853.431	36.69
853.606	-39.08
853.781	-71.85
853.956	-92.33
854.131	40.79
854.305	-63.66
854.48	-34.99
854.655	-12.46
854.83	-8.36
855.005	36.69
855.18	102.23
855.354	-14.51
855.529	65.36
855.704	-10.41
855.879	22.36
856.053	-55.47
856.228	-47.27
856.403	-49.32
856.577	67.41
856.752	-37.03
856.926	24.4
857.101	-14.51
857.276	-30.89
857.45	26.45
857.625	145.24
857.799	69.46
857.974	30.55
858.148	-104.62
858.323	40.79
858.497	-16.55
858.672	30.55
858.846	-63.66
859.02	132.95
859.195	-18.6
859.369	-34.99
859.543	100.18
859.718	-0.17
859.892	30.55
860.066	-10.41
860.241	30.55
860.415	-61.61
860.589	-0.17
860.763	-65.71
860.938	16.21
861.112	-37.03
861.286	-69.8
861.46	71.51
861.634	-22.7
861.808	61.27
861.982	-94.38
862.157	-123.05
862.331	22.36
862.505	-133.29
862.679	-67.75
862.853	32.6
863.027	-47.27
863.201	98.13
863.375	-43.18
863.549	67.41
863.722	102.23
863.896	55.12
864.07	-96.43
864.244	12.12
864.418	40.79
864.592	-12.46
864.766	28.5
864.939	135
865.113	-37.03
865.287	145.24
865.461	-47.27
865.634	5.97
865.808	-10.41
865.982	-59.56
866.156	-63.66
866.329	1.88
866.503	36.69
866.676	63.32
866.85	48.98
867.024	-20.65
867.197	71.51
867.371	-8.36
867.544	34.64
867.718	-67.75
867.891	91.99
868.065	-53.42
868.238	-6.31
868.412	71.51
868.585	26.45
868.759	-86.19
868.932	-61.61
869.105	-92.33
869.279	40.79
869.452	-102.57
869.625	46.93
869.799	-10.41
869.972	-59.56
870.145	28.5
870.319	79.7
870.492	55.12
870.665	-49.32
870.838	-22.7
871.011	-151.72
871.185	-14.51
871.358	-80.04
871.531	55.12
871.704	-75.95
871.877	34.64
872.05	-4.27
872.223	-37.03
872.396	44.88
872.569	59.22
872.742	-34.99
872.915	-28.84
873.088	-10.41
873.261	-24.75
873.434	79.7
873.607	-14.51
873.78	26.45
873.953	-69.8
874.126	48.98
874.299	57.17
874.471	-41.13
874.644	-2.22
874.817	137.04
874.99	83.8
875.163	-26.79
875.335	16.21
875.508	-49.32
875.681	69.46
875.853	24.4
876.026	55.12
876.199	89.94
876.371	32.6
876.544	-16.55
876.717	87.89
876.889	-26.79
877.062	53.08
877.234	-73.9
877.407	-12.46
877.579	-65.71
877.752	-0.17
877.924	85.84
878.097	108.37
878.269	-18.6
878.442	28.5
878.614	75.6
878.786	10.07
878.959	67.41
879.131	-98.47
879.303	-75.95
879.476	-65.71
879.648	55.12
879.82	28.5
879.993	-90.28
880.165	-84.14
880.337	-114.86
880.509	46.93
880.681	-43.18
880.854	-2.22
881.026	38.74
881.198	186.19
881.37	79.7
881.542	26.45
881.714	-69.8
881.886	-43.18
882.058	10.07
882.23	96.08
882.402	-39.08
882.574	14.17
882.746	59.22
882.918	120.66
883.09	-10.41
883.262	-20.65
883.434	16.21
883.606	-100.52
883.778	12.12
883.95	55.12
884.122	-77.99
884.293	120.66
884.465	1.88
884.637	81.75
884.809	-16.55
884.98	44.88
885.152	38.74
885.324	30.55
885.496	-102.57
885.667	51.03
885.839	34.64
886.011	149.33
886.182	55.12
886.354	73.56
886.525	22.36
886.697	-30.89
886.869	-39.08
887.04	-4.27
887.212	79.7
887.383	85.84
887.555	3.93
887.726	-41.13
887.897	-30.89
888.069	-16.55
888.24	69.46
888.412	-41.13
888.583	28.5
888.754	-0.17
888.926	-75.95
889.097	16.21
889.268	-112.81
889.44	83.8
889.611	-88.23
889.782	-92.33
889.953	-24.75
890.125	139.09
890.296	-24.75
890.467	-88.23
890.638	-28.84
890.809	63.32
890.98	-24.75
891.151	83.8
891.323	106.32
891.494	51.03
891.665	83.8
891.836	48.98
892.007	75.6
892.178	-10.41
892.349	81.75
892.52	-10.41
892.691	16.21
892.862	-84.14
893.032	-92.33
893.203	-22.7
893.374	-57.51
893.545	91.99
893.716	-98.47
893.887	36.69
894.057	-10.41
894.228	20.31
894.399	-24.75
894.57	55.12
894.74	8.02
894.911	-18.6
895.082	-2.22
895.253	18.26
895.423	12.12
895.594	57.17
895.764	-2.22
895.935	-55.47
896.106	3.93
896.276	-18.6
896.447	57.17
896.617	-43.18
896.788	-123.05
896.958	-39.08
897.129	-80.04
897.299	-63.66
897.47	-12.46
897.64	28.5
897.81	42.84
897.981	38.74
898.151	-47.27
898.322	61.27
898.492	77.65
898.662	-2.22
898.832	63.32
899.003	20.31
899.173	75.6
899.343	-80.04
899.513	-41.13
