Data from USB4F104151__46__10-43-16-777.txt Node

Date: Wed Feb 26 10:43:16 EST 2025
User: louis
Spectrometer: USB4F10415
Trigger mode: 4
Integration Time (sec): 1.000000E-1
Scans to average: 1
Electric dark correction enabled: true
Nonlinearity correction enabled: false
Boxcar width: 0
XAxis mode: Wavelengths
Number of Pixels in Spectrum: 3648
>>>>>Begin Spectral Data<<<<<
178.204	-417.79
178.424	-417.79
178.644	-417.79
178.864	-425.98
179.084	-331.77
179.304	12.29
179.524	10.24
179.744	-8.19
179.964	79.87
180.184	32.77
180.404	49.15
180.624	-36.86
180.844	67.58
181.064	-90.11
181.283	6.14
181.503	-65.54
181.723	-57.34
181.943	-36.86
182.163	157.69
182.383	24.58
182.602	67.58
182.822	165.89
183.042	94.21
183.262	-16.38
183.482	18.43
183.701	75.77
183.921	2.05
184.141	-2.05
184.361	120.83
184.58	59.39
184.8	51.2
185.02	-10.24
185.239	108.54
185.459	116.73
185.679	180.22
185.898	-79.87
186.118	2.05
186.338	86.01
186.557	102.4
186.777	24.58
186.997	12.29
187.216	81.92
187.436	231.42
187.655	96.25
187.875	118.78
188.095	26.62
188.314	149.5
188.534	200.7
188.753	-53.25
188.973	147.45
189.192	182.27
189.412	-30.72
189.631	26.62
189.851	178.17
190.07	149.5
190.29	-28.67
190.509	69.63
190.729	65.53
190.948	122.88
191.168	296.96
191.387	143.36
191.607	34.82
191.826	88.06
192.045	79.87
192.265	20.48
192.484	104.45
192.704	79.87
192.923	-26.62
193.142	155.65
193.362	145.41
193.581	200.7
193.8	73.73
194.02	86.01
194.239	92.16
194.458	206.84
194.678	-14.34
194.897	104.45
195.116	-26.62
195.335	4.1
195.555	86.01
195.774	49.15
195.993	145.41
196.212	26.62
196.432	-14.34
196.651	92.16
196.87	79.87
197.089	256
197.308	-20.48
197.528	104.45
197.747	-100.35
197.966	-18.43
198.185	178.17
198.404	-32.77
198.623	204.8
198.842	98.3
199.062	96.25
199.281	59.39
199.5	137.21
199.719	133.12
199.938	98.3
200.157	32.77
200.376	143.36
200.595	180.22
200.814	114.69
201.033	-118.78
201.252	92.16
201.471	112.64
201.69	32.77
201.909	59.39
202.128	90.11
202.347	135.17
202.566	-61.44
202.785	-63.49
203.004	-34.82
203.223	233.47
203.442	75.77
203.661	-75.77
203.879	110.59
204.098	161.79
204.317	-36.86
204.536	77.82
204.755	153.6
204.974	2.05
205.193	30.72
205.411	157.69
205.63	120.83
205.849	88.06
206.068	34.82
206.287	-94.21
206.505	206.84
206.724	-47.1
206.943	53.25
207.162	-14.34
207.381	92.16
207.599	32.77
207.818	16.38
208.037	-28.67
208.255	57.34
208.474	141.31
208.693	65.53
208.911	53.25
209.13	139.26
209.349	110.59
209.567	102.4
209.786	83.97
210.005	118.78
210.223	53.25
210.442	-102.4
210.661	22.53
210.879	67.58
211.098	61.44
211.316	30.72
211.535	137.21
211.753	65.53
211.972	81.92
212.191	71.68
212.409	55.3
212.628	116.73
212.846	12.29
213.065	137.21
213.283	118.78
213.502	6.14
213.72	83.97
213.938	34.82
214.157	-18.43
214.375	141.31
214.594	2.05
214.812	79.87
215.031	-6.14
215.249	100.35
215.467	53.25
215.686	73.73
215.904	120.83
216.122	73.73
216.341	182.27
216.559	28.67
216.778	65.53
216.996	122.88
217.214	36.86
217.432	12.29
217.651	-73.73
217.869	63.49
218.087	14.34
218.306	-36.86
218.524	14.34
218.742	106.49
218.96	151.55
219.179	63.49
219.397	-32.77
219.615	268.28
219.833	26.62
220.051	-32.77
220.27	67.58
220.488	94.21
220.706	124.93
220.924	-12.29
221.142	90.11
221.36	112.64
221.578	2.05
221.796	28.67
222.015	106.49
222.233	75.77
222.451	153.6
222.669	14.34
222.887	65.53
223.105	49.15
223.323	86.01
223.541	30.72
223.759	106.49
223.977	114.69
224.195	131.07
224.413	102.4
224.631	30.72
224.849	120.83
225.067	163.84
225.285	-10.24
225.503	-12.29
225.721	-45.06
225.939	90.11
226.157	133.12
226.375	231.42
226.592	30.72
226.81	71.68
227.028	143.36
227.246	83.97
227.464	112.64
227.682	137.21
227.9	92.16
228.117	106.49
228.335	92.16
228.553	28.67
228.771	55.3
228.989	163.84
229.206	112.64
229.424	51.2
229.642	36.86
229.86	-47.1
230.077	176.13
230.295	32.77
230.513	65.53
230.731	61.44
230.948	212.99
231.166	178.17
231.384	34.82
231.601	-45.06
231.819	163.84
232.037	47.1
232.254	-53.25
232.472	75.77
232.689	69.63
232.907	86.01
233.125	4.1
233.342	10.24
233.56	40.96
233.777	53.25
233.995	4.1
234.213	88.06
234.43	137.21
234.648	49.15
234.865	26.62
235.083	32.77
235.3	94.21
235.518	112.64
235.735	100.35
235.953	92.16
236.17	65.53
236.388	79.87
236.605	45.06
236.822	112.64
237.04	169.98
237.257	30.72
237.475	-45.06
237.692	47.1
237.909	116.73
238.127	24.58
238.344	133.12
238.562	73.73
238.779	-75.77
238.996	-22.53
239.214	61.44
239.431	180.22
239.648	53.25
239.865	165.89
240.083	133.12
240.3	77.82
240.517	20.48
240.735	88.06
240.952	212.99
241.169	49.15
241.386	69.63
241.603	28.67
241.821	-14.34
242.038	86.01
242.255	104.45
242.472	-6.14
242.689	51.2
242.907	30.72
243.124	69.63
243.341	100.35
243.558	-30.72
243.775	2.05
243.992	-18.43
244.209	73.73
244.426	184.32
244.643	79.87
244.86	100.35
245.078	169.98
245.295	53.25
245.512	8.19
245.729	-61.44
245.946	77.82
246.163	-8.19
246.38	4.1
246.597	108.54
246.814	94.21
247.031	75.77
247.248	14.34
247.464	129.02
247.681	51.2
247.898	116.73
248.115	38.91
248.332	20.48
248.549	145.41
248.766	165.89
248.983	110.59
249.2	59.39
249.417	75.77
249.633	24.58
249.85	28.67
250.067	57.34
250.284	65.53
250.501	18.43
250.717	83.97
250.934	-16.38
251.151	24.58
251.368	24.58
251.585	8.19
251.801	73.73
252.018	-8.19
252.235	102.4
252.451	26.62
252.668	-8.19
252.885	112.64
253.102	104.45
253.318	12.29
253.535	51.2
253.752	-18.43
253.968	47.1
254.185	10.24
254.401	100.35
254.618	75.77
254.835	38.91
255.051	180.22
255.268	96.25
255.484	73.73
255.701	79.87
255.917	71.68
256.134	20.48
256.351	-24.58
256.567	-24.58
256.784	49.15
257	-67.58
257.217	98.3
257.433	104.45
257.65	-4.1
257.866	92.16
258.082	20.48
258.299	53.25
258.515	49.15
258.732	61.44
258.948	-63.49
259.165	51.2
259.381	-8.19
259.597	133.12
259.814	47.1
260.03	59.39
260.246	55.3
260.463	118.78
260.679	145.41
260.895	30.72
261.112	45.06
261.328	26.62
261.544	12.29
261.761	188.41
261.977	-8.19
262.193	-34.82
262.409	126.97
262.626	55.3
262.842	16.38
263.058	49.15
263.274	151.55
263.49	53.25
263.707	141.31
263.923	59.39
264.139	-118.78
264.355	53.25
264.571	139.26
264.787	110.59
265.004	167.93
265.22	114.69
265.436	57.34
265.652	120.83
265.868	43.01
266.084	2.05
266.3	69.63
266.516	-12.29
266.732	67.58
266.948	77.82
267.164	57.34
267.38	88.06
267.596	77.82
267.812	223.23
268.028	124.93
268.244	-45.06
268.46	83.97
268.676	67.58
268.892	51.2
269.108	40.96
269.324	-10.24
269.54	14.34
269.756	116.73
269.972	30.72
270.188	20.48
270.403	-32.77
270.619	147.45
270.835	61.44
271.051	24.58
271.267	-12.29
271.483	10.24
271.698	106.49
271.914	110.59
272.13	38.91
272.346	12.29
272.562	32.77
272.777	131.07
272.993	18.43
273.209	43.01
273.425	118.78
273.64	14.34
273.856	182.27
274.072	18.43
274.287	22.53
274.503	45.06
274.719	151.55
274.934	34.82
275.15	-8.19
275.366	67.58
275.581	-49.15
275.797	92.16
276.012	81.92
276.228	4.1
276.444	83.97
276.659	172.03
276.875	-43.01
277.09	61.44
277.306	24.58
277.521	94.21
277.737	47.1
277.952	88.06
278.168	-40.96
278.383	71.68
278.599	88.06
278.814	108.54
279.03	8.19
279.245	96.25
279.461	165.89
279.676	63.49
279.892	6.14
280.107	-79.87
280.322	30.72
280.538	49.15
280.753	-57.34
280.969	176.13
281.184	20.48
281.399	172.03
281.615	75.77
281.83	118.78
282.045	-120.83
282.26	8.19
282.476	79.87
282.691	92.16
282.906	63.49
283.122	126.97
283.337	36.86
283.552	67.58
283.767	32.77
283.983	149.5
284.198	6.14
284.413	108.54
284.628	-18.43
284.843	83.97
285.058	69.63
285.274	20.48
285.489	28.67
285.704	149.5
285.919	-0
286.134	-0
286.349	22.53
286.564	18.43
286.779	120.83
286.995	32.77
287.21	2.05
287.425	53.25
287.64	38.91
287.855	100.35
288.07	43.01
288.285	112.64
288.5	88.06
288.715	100.35
288.93	38.91
289.145	-2.05
289.36	96.25
289.575	18.43
289.79	120.83
290.004	40.96
290.219	182.27
290.434	-36.86
290.649	30.72
290.864	120.83
291.079	-10.24
291.294	8.19
291.509	69.63
291.724	61.44
291.938	-6.14
292.153	157.69
292.368	65.53
292.583	92.16
292.798	133.12
293.012	57.34
293.227	88.06
293.442	45.06
293.657	90.11
293.871	151.55
294.086	14.34
294.301	96.25
294.516	167.93
294.73	32.77
294.945	6.14
295.16	8.19
295.374	124.93
295.589	126.97
295.804	61.44
296.018	49.15
296.233	100.35
296.447	81.92
296.662	34.82
296.877	79.87
297.091	83.97
297.306	24.58
297.52	24.58
297.735	24.58
297.949	59.39
298.164	129.02
298.378	100.35
298.593	16.38
298.807	-14.34
299.022	86.01
299.236	108.54
299.451	-24.58
299.665	88.06
299.88	92.16
300.094	38.91
300.309	-14.34
300.523	61.44
300.737	-38.91
300.952	172.03
301.166	110.59
301.381	28.67
301.595	18.43
301.809	51.2
302.024	43.01
302.238	6.14
302.452	159.74
302.667	20.48
302.881	200.7
303.095	98.3
303.309	90.11
303.524	-0
303.738	18.43
303.952	-2.05
304.166	124.93
304.381	-75.77
304.595	219.13
304.809	-16.38
305.023	38.91
305.237	-90.11
305.452	18.43
305.666	57.34
305.88	69.63
306.094	178.17
306.308	90.11
306.522	98.3
306.736	106.49
306.95	98.3
307.164	81.92
307.379	30.72
307.593	151.55
307.807	176.13
308.021	118.78
308.235	75.77
308.449	-71.68
308.663	51.2
308.877	229.37
309.091	92.16
309.305	71.68
309.519	-51.2
309.733	159.74
309.947	-26.62
310.161	51.2
310.374	108.54
310.588	108.54
310.802	2.05
311.016	-22.53
311.23	96.25
311.444	12.29
311.658	38.91
311.872	98.3
312.085	149.5
312.299	114.69
312.513	174.08
312.727	16.38
312.941	-40.96
313.154	32.77
313.368	40.96
313.582	112.64
313.796	98.3
314.009	110.59
314.223	202.75
314.437	104.45
314.651	165.89
314.864	28.67
315.078	47.1
315.292	-63.49
315.505	34.82
315.719	114.69
315.933	77.82
316.146	16.38
316.36	-65.54
316.573	155.65
316.787	124.93
317.001	45.06
317.214	-47.1
317.428	51.2
317.641	30.72
317.855	73.73
318.068	61.44
318.282	59.39
318.495	204.8
318.709	124.93
318.922	32.77
319.136	169.98
319.349	133.12
319.563	16.38
319.776	79.87
319.99	-96.25
320.203	75.77
320.417	-14.34
320.63	71.68
320.843	157.69
321.057	172.03
321.27	71.68
321.483	71.68
321.697	149.5
321.91	65.53
322.124	43.01
322.337	51.2
322.55	-55.3
322.763	57.34
322.977	-6.14
323.19	-22.53
323.403	116.73
323.617	59.39
323.83	153.6
324.043	88.06
324.256	122.88
324.469	-47.1
324.683	143.36
324.896	112.64
325.109	73.73
325.322	-55.3
325.535	112.64
325.748	104.45
325.962	32.77
326.175	145.41
326.388	100.35
326.601	186.37
326.814	-59.39
327.027	24.58
327.24	178.17
327.453	-30.72
327.666	69.63
327.879	163.84
328.092	157.69
328.305	45.06
328.518	40.96
328.731	-24.58
328.944	63.49
329.157	30.72
329.37	-0
329.583	98.3
329.796	137.21
330.009	-36.86
330.222	155.65
330.435	100.35
330.648	94.21
330.861	55.3
331.073	135.17
331.286	102.4
331.499	79.87
331.712	12.29
331.925	65.53
332.138	-18.43
332.35	98.3
332.563	-47.1
332.776	176.13
332.989	20.48
333.202	20.48
333.414	55.3
333.627	92.16
333.84	16.38
334.053	126.97
334.265	20.48
334.478	77.82
334.691	63.49
334.903	110.59
335.116	77.82
335.329	20.48
335.541	67.58
335.754	174.08
335.966	34.82
336.179	51.2
336.392	104.45
336.604	-2.05
336.817	112.64
337.029	96.25
337.242	32.77
337.454	98.3
337.667	49.15
337.88	124.93
338.092	83.97
338.305	45.06
338.517	-10.24
338.729	79.87
338.942	79.87
339.154	16.38
339.367	-4.1
339.579	155.65
339.792	-0
340.004	96.25
340.217	69.63
340.429	124.93
340.641	-28.67
340.854	-24.58
341.066	79.87
341.278	194.56
341.491	208.89
341.703	106.49
341.915	-57.34
342.128	53.25
342.34	16.38
342.552	-38.91
342.764	79.87
342.977	88.06
343.189	108.54
343.401	53.25
343.613	12.29
343.826	20.48
344.038	49.15
344.25	-2.05
344.462	24.58
344.674	47.1
344.886	79.87
345.099	147.45
345.311	77.82
345.523	-12.29
345.735	-79.87
345.947	88.06
346.159	59.39
346.371	61.44
346.583	36.86
346.795	219.13
347.007	77.82
347.219	94.21
347.431	10.24
347.643	122.88
347.855	-40.96
348.067	114.69
348.279	8.19
348.491	45.06
348.703	71.68
348.915	65.53
349.127	-12.29
349.339	32.77
349.551	49.15
349.763	51.2
349.975	-6.14
350.187	190.46
350.399	120.83
350.61	122.88
350.822	12.29
351.034	26.62
351.246	83.97
351.458	67.58
351.669	124.93
351.881	96.25
352.093	108.54
352.305	153.6
352.517	126.97
352.728	165.89
352.94	49.15
353.152	-6.14
353.363	65.53
353.575	51.2
353.787	196.6
353.999	71.68
354.21	163.84
354.422	2.05
354.633	14.34
354.845	38.91
355.057	16.38
355.268	-14.34
355.48	129.02
355.692	-22.53
355.903	53.25
356.115	34.82
356.326	-71.68
356.538	188.41
356.749	81.92
356.961	147.45
357.172	100.35
357.384	40.96
357.595	217.08
357.807	-6.14
358.018	92.16
358.23	18.43
358.441	217.08
358.653	118.78
358.864	67.58
359.075	4.1
359.287	83.97
359.498	155.65
359.709	167.93
359.921	43.01
360.132	67.58
360.344	26.62
360.555	53.25
360.766	65.53
360.977	88.06
361.189	124.93
361.4	24.58
361.611	100.35
361.823	167.93
362.034	126.97
362.245	8.19
362.456	12.29
362.667	83.97
362.879	-43.01
363.09	55.3
363.301	40.96
363.512	124.93
363.723	-57.34
363.935	-0
364.146	110.59
364.357	49.15
364.568	143.36
364.779	-83.97
364.99	131.07
365.201	79.87
365.412	165.89
365.623	-118.78
365.834	131.07
366.045	-2.05
366.256	96.25
366.467	75.77
366.678	81.92
366.889	36.86
367.1	34.82
367.311	124.93
367.522	73.73
367.733	153.6
367.944	106.49
368.155	-32.77
368.366	112.64
368.577	165.89
368.788	88.06
368.999	-67.58
369.209	47.1
369.42	301.05
369.631	245.76
369.842	135.17
370.053	71.68
370.264	157.69
370.474	-6.14
370.685	75.77
370.896	86.01
371.107	65.53
371.317	104.45
371.528	6.14
371.739	147.45
371.95	106.49
372.16	153.6
372.371	-22.53
372.582	18.43
372.792	139.26
373.003	83.97
373.214	100.35
373.424	188.41
373.635	38.91
373.846	143.36
374.056	51.2
374.267	65.53
374.477	34.82
374.688	18.43
374.898	92.16
375.109	151.55
375.319	53.25
375.53	149.5
375.74	129.02
375.951	24.58
376.161	83.97
376.372	141.31
376.582	10.24
376.793	75.77
377.003	-47.1
377.214	-8.19
377.424	81.92
377.635	126.97
377.845	49.15
378.055	77.82
378.266	-2.05
378.476	96.25
378.686	-4.1
378.897	77.82
379.107	139.26
379.317	69.63
379.528	96.25
379.738	122.88
379.948	-59.39
380.158	176.13
380.369	88.06
380.579	38.91
380.789	67.58
380.999	55.3
381.21	90.11
381.42	149.5
381.63	61.44
381.84	141.31
382.05	83.97
382.261	61.44
382.471	151.55
382.681	57.34
382.891	231.42
383.101	65.53
383.311	-14.34
383.521	-0
383.731	102.4
383.941	129.02
384.151	65.53
384.361	-12.29
384.571	55.3
384.781	100.35
384.991	124.93
385.201	165.89
385.411	120.83
385.621	65.53
385.831	79.87
386.041	73.73
386.251	-18.43
386.461	30.72
386.671	30.72
386.881	86.01
387.091	-14.34
387.301	137.21
387.511	6.14
387.72	118.78
387.93	145.41
388.14	-16.38
388.35	4.1
388.56	159.74
388.769	176.13
388.979	65.53
389.189	98.3
389.399	34.82
389.609	51.2
389.818	169.98
390.028	47.1
390.238	165.89
390.447	-10.24
390.657	114.69
390.867	63.49
391.076	-79.87
391.286	45.06
391.496	40.96
391.705	108.54
391.915	249.85
392.125	182.27
392.334	40.96
392.544	161.79
392.753	51.2
392.963	-40.96
393.172	90.11
393.382	-4.1
393.591	184.32
393.801	-16.38
394.01	174.08
394.22	38.91
394.429	57.34
394.639	18.43
394.848	90.11
395.058	100.35
395.267	79.87
395.477	157.69
395.686	139.26
395.895	196.6
396.105	196.6
396.314	61.44
396.524	14.34
396.733	38.91
396.942	161.79
397.152	38.91
397.361	122.88
397.57	106.49
397.78	-12.29
397.989	57.34
398.198	192.51
398.407	55.3
398.617	67.58
398.826	88.06
399.035	18.43
399.244	100.35
399.453	24.58
399.663	67.58
399.872	-6.14
400.081	28.67
400.29	133.12
400.499	4.1
400.708	165.89
400.917	12.29
401.127	43.01
401.336	88.06
401.545	165.89
401.754	47.1
401.963	69.63
402.172	-18.43
402.381	26.62
402.59	-14.34
402.799	57.34
403.008	143.36
403.217	88.06
403.426	106.49
403.635	-26.62
403.844	131.07
404.053	38.91
404.262	-20.48
404.471	129.02
404.68	114.69
404.888	69.63
405.097	38.91
405.306	112.64
405.515	120.83
405.724	24.58
405.933	155.65
406.142	126.97
406.35	153.6
406.559	63.49
406.768	131.07
406.977	141.31
407.185	120.83
407.394	149.5
407.603	8.19
407.812	67.58
408.02	200.7
408.229	32.77
408.438	59.39
408.646	-100.35
408.855	88.06
409.064	73.73
409.272	28.67
409.481	81.92
409.69	-65.54
409.898	-22.53
410.107	126.97
410.315	133.12
410.524	36.86
410.733	63.49
410.941	120.83
411.15	61.44
411.358	141.31
411.567	139.26
411.775	6.14
411.984	94.21
412.192	161.79
412.401	24.58
412.609	210.94
412.818	129.02
413.026	172.03
413.234	6.14
413.443	30.72
413.651	-16.38
413.86	-6.14
414.068	174.08
414.276	264.19
414.485	65.53
414.693	180.22
414.901	167.93
415.11	182.27
415.318	49.15
415.526	43.01
415.734	131.07
415.943	116.73
416.151	122.88
416.359	45.06
416.567	59.39
416.776	108.54
416.984	92.16
417.192	243.71
417.4	118.78
417.608	4.1
417.817	-4.1
418.025	75.77
418.233	235.52
418.441	36.86
418.649	73.73
418.857	77.82
419.065	194.56
419.273	90.11
419.481	92.16
419.689	126.97
419.897	38.91
420.105	14.34
420.313	159.74
420.521	141.31
420.729	133.12
420.937	77.82
421.145	-43.01
421.353	86.01
421.561	192.51
421.769	110.59
421.977	26.62
422.185	118.78
422.393	83.97
422.601	24.58
422.809	112.64
423.017	36.86
423.224	81.92
423.432	186.37
423.64	-18.43
423.848	141.31
424.056	55.3
424.263	102.4
424.471	43.01
424.679	120.83
424.887	55.3
425.094	98.3
425.302	102.4
425.51	92.16
425.718	83.97
425.925	96.25
426.133	53.25
426.341	280.57
426.548	92.16
426.756	49.15
426.964	141.31
427.171	12.29
427.379	94.21
427.586	28.67
427.794	153.6
428.001	167.93
428.209	129.02
428.417	186.37
428.624	143.36
428.832	176.13
429.039	104.45
429.247	180.22
429.454	118.78
429.662	169.98
429.869	155.65
430.076	141.31
430.284	288.76
430.491	301.05
430.699	208.89
430.906	198.65
431.114	229.37
431.321	126.97
431.528	139.26
431.736	139.26
431.943	215.04
432.15	186.37
432.358	237.56
432.565	315.39
432.772	26.62
432.979	245.76
433.187	129.02
433.394	196.6
433.601	186.37
433.808	315.39
434.016	280.57
434.223	317.44
434.43	305.15
434.637	274.43
434.844	292.86
435.052	256
435.259	337.91
435.466	290.81
435.673	325.63
435.88	331.77
436.087	380.92
436.294	395.26
436.501	342.01
436.708	319.48
436.915	346.11
437.122	419.83
437.329	335.87
437.537	464.89
437.743	372.73
437.95	448.51
438.157	458.74
438.364	382.97
438.571	511.99
438.778	491.51
438.985	536.57
439.192	612.34
439.399	468.98
439.606	497.66
439.813	555
440.02	716.79
440.227	716.79
440.433	622.58
440.64	624.63
440.847	534.52
441.054	567.29
441.261	804.85
441.467	729.08
441.674	712.69
441.881	854
442.088	696.31
442.294	919.54
442.501	935.92
442.708	944.11
442.914	813.04
443.121	954.35
443.328	968.69
443.534	1103.86
443.741	989.17
443.948	1007.6
444.154	1173.49
444.361	1347.56
444.568	1269.74
444.774	1204.21
444.981	1093.62
445.187	1474.54
445.394	1290.22
445.6	1310.7
445.807	1503.21
446.013	1431.53
446.22	1425.39
446.426	1542.12
446.633	1787.88
446.839	1859.56
447.046	1708.01
447.252	1949.67
447.459	1869.8
447.665	1841.12
447.871	2002.91
448.078	2385.88
448.284	2199.52
448.491	2265.05
448.697	2240.48
448.903	2459.61
449.11	2533.34
449.316	2570.2
449.522	2856.92
449.728	2906.07
449.935	2998.23
450.141	2922.45
450.347	3227.6
450.553	3037.14
450.76	3311.57
450.966	3430.35
451.172	3518.41
451.378	3624.9
451.584	3651.53
451.791	3811.27
451.997	4032.45
452.203	4061.12
452.409	4341.69
452.615	4454.33
452.821	4429.76
453.027	4534.2
453.233	5060.53
453.44	4796.34
453.646	5085.11
453.852	5357.49
454.058	5550
454.264	5638.06
454.47	6033.32
454.676	6051.75
454.882	6606.75
455.088	6281.12
455.294	6803.35
455.5	7110.55
455.705	7675.79
455.911	7544.72
456.117	7878.54
456.323	8015.75
456.529	8132.48
456.735	8836.99
456.941	8992.63
457.147	9406.32
457.352	9535.34
457.558	9836.39
457.764	10465.12
457.97	10835.8
458.176	10968.92
458.381	11583.31
458.587	11931.47
458.793	12320.58
458.999	12322.63
459.204	14096.17
459.41	14403.36
459.616	14233.38
459.821	15208.22
460.027	15740.69
460.233	16289.54
460.438	16563.97
460.644	17325.82
460.85	17569.52
461.055	18507.49
461.261	19091.16
461.466	18808.54
461.672	19269.34
461.878	21569.21
462.083	21368.51
462.289	21954.22
462.494	22611.62
462.7	22881.95
462.905	22918.82
463.111	24667.78
463.316	26142.32
463.522	26515.05
463.727	27569.76
463.932	28526.16
464.138	29347.39
464.343	30387.76
464.549	30524.97
464.754	32876.04
464.959	34311.67
465.165	34217.46
465.37	34174.45
465.575	34061.82
465.781	36369.88
465.986	37506.5
466.191	36726.22
466.397	37451.2
466.602	36378.07
466.807	38409.65
467.012	38985.13
467.218	39779.75
467.423	40002.97
467.628	41141.64
467.833	42767.73
468.038	41862.53
468.244	41565.57
468.449	43453.8
468.654	42708.34
468.859	42859.89
469.064	43296.11
469.269	41450.89
469.474	41973.12
469.679	43294.06
469.885	42083.71
470.09	42397.05
470.295	42761.59
470.5	41600.39
470.705	42249.6
470.91	40975.76
471.115	40279.45
471.32	41418.12
471.525	41164.17
471.73	40132
471.935	39679.39
472.139	37883.33
472.344	38311.35
472.549	37881.28
472.754	37182.92
472.959	36761.04
473.164	35413.48
473.369	34788.85
473.574	35917.28
473.778	34979.31
473.983	34487.79
474.188	33852.92
474.393	32656.91
474.598	32087.57
474.802	31247.91
475.007	31039.01
475.212	30914.09
475.417	29513.28
475.621	29150.79
475.826	29089.35
476.031	28218.96
476.235	27717.21
476.44	27897.43
476.645	27127.39
476.849	26930.79
477.054	26535.53
477.259	25642.62
477.463	25708.15
477.668	24886.92
477.872	24974.98
478.077	24424.08
478.282	23803.54
478.486	23326.36
478.691	23209.63
478.895	22994.59
479.1	22847.14
479.304	22826.66
479.509	21939.89
479.713	22185.65
479.918	21800.63
480.122	21102.27
480.326	21290.68
480.531	21384.89
480.735	21034.69
480.94	20782.79
481.144	21429.94
481.348	20227.79
481.553	20354.76
481.757	20063.95
481.961	19998.41
482.166	20248.27
482.37	19953.36
482.574	19474.13
482.778	19488.47
482.983	19699.41
483.187	19068.64
483.391	19224.28
483.595	18640.61
483.8	18513.64
484.004	18751.2
484.208	18931.42
484.412	18333.42
484.616	18054.89
484.821	17977.07
485.025	17444.6
485.229	17649.39
485.433	17049.34
485.637	17284.86
485.841	16574.21
486.045	16850.69
486.249	16453.38
486.453	16181
486.657	16148.23
486.861	15882
487.065	15292.18
487.269	15386.39
487.473	14810.91
487.677	15040.28
487.881	15005.47
488.085	14491.43
488.289	14208.81
488.493	13944.62
488.697	13915.95
488.901	13696.82
489.105	13373.24
489.309	12906.3
489.512	12926.78
489.716	12932.92
489.92	12425.03
490.124	12218.18
490.328	12068.68
490.531	11857.74
490.735	11673.42
490.939	11437.91
491.143	11151.19
491.346	11337.56
491.55	11179.86
491.754	10794.84
491.958	10588
492.161	10635.1
492.365	10223.46
492.569	10106.73
492.772	9920.36
492.976	9887.59
493.18	9604.97
493.383	9772.91
493.587	9576.3
493.79	9359.22
493.994	9172.85
494.197	8974.2
494.401	9037.69
494.605	8935.29
494.808	8990.58
495.012	8896.38
495.215	8793.98
495.419	8869.75
495.622	8660.86
495.825	8624
496.029	8523.65
496.232	8697.72
496.436	8456.06
496.639	8609.66
496.843	8339.33
497.046	8466.3
497.249	8558.46
497.453	8552.32
497.656	8445.82
497.859	8431.49
498.063	8445.82
498.266	8427.39
498.469	8382.34
498.673	8554.37
498.876	8611.71
499.079	8357.76
499.282	8646.52
499.485	8853.37
499.689	8824.7
499.892	8863.61
500.095	8755.07
500.298	8742.78
500.501	8724.35
500.705	9170.8
500.908	9066.36
501.111	9224.05
501.314	9318.26
501.517	9342.83
501.72	9308.02
501.923	9432.94
502.126	9439.09
502.329	9770.86
502.532	9830.25
502.735	9779.05
502.938	10141.54
503.141	10092.39
503.344	10200.93
503.547	10549.09
503.75	10583.9
503.953	10747.74
504.156	10706.78
504.359	11079.51
504.562	11065.18
504.765	11403.09
504.968	11370.32
505.17	11626.32
505.373	11583.31
505.576	12142.41
505.779	11958.09
505.982	12121.93
506.185	12572.48
506.387	12465.99
506.59	12924.73
506.793	13299.51
506.996	13385.52
507.198	13635.38
507.401	13854.51
507.604	14094.12
507.807	14278.44
508.009	14782.24
508.212	14911.26
508.415	15404.82
508.617	15359.77
508.82	15808.27
509.022	15933.2
509.225	16682.75
509.428	16756.48
509.63	17168.12
509.833	17487.61
510.035	18333.42
510.238	18368.23
510.44	18353.9
510.643	18921.18
510.845	19599.06
511.048	19496.66
511.25	20154.06
511.453	20819.65
511.655	21362.36
511.858	21692.08
512.06	21921.46
512.262	22560.42
512.465	22941.35
512.667	23262.88
512.87	24184.46
513.072	24727.17
513.274	25372.28
513.477	25792.12
513.679	26248.82
513.881	26476.14
514.084	27543.13
514.286	28085.84
514.488	28438.09
514.69	29548.09
514.893	29732.41
515.095	30598.7
515.297	31252
515.499	31790.62
515.701	32120.34
515.904	33011.21
516.106	33904.12
516.308	34577.9
516.51	35077.61
516.712	35519.97
516.914	36027.87
517.116	37363.14
517.318	37795.26
517.52	37977.53
517.722	38806.96
517.925	39769.51
518.127	40682.9
518.329	40865.17
518.531	41164.17
518.733	42243.45
518.935	43091.31
519.136	43279.72
519.338	44354.91
519.54	44875.09
519.742	45602.12
519.944	46163.26
520.146	46951.73
520.348	47254.83
520.55	47889.7
520.752	48385.31
520.954	49493.26
521.155	49476.88
521.357	50367.74
521.559	50453.76
521.761	51633.39
521.963	51901.67
522.164	52182.24
522.366	52223.2
522.568	52927.7
522.77	53720.27
522.971	54066.38
523.173	53976.26
523.375	54422.72
523.576	54162.63
523.778	54709.44
523.98	55215.29
524.181	55184.57
524.383	55198.9
524.584	55909.55
524.786	55254.2
524.988	55925.93
525.189	56065.19
525.391	56384.68
525.592	56265.89
525.794	56380.58
525.995	56116.39
526.197	55915.69
526.398	56188.07
526.6	55880.88
526.801	55925.93
527.003	55647.41
527.204	55506.1
527.406	55510.19
527.607	55000.25
527.808	55270.58
528.01	53628.11
528.211	53990.6
528.412	54801.6
528.614	53695.69
528.815	53275.86
529.016	53445.84
529.218	52606.17
529.419	52006.12
529.62	52010.21
529.822	51340.53
530.023	50691.32
530.224	50482.43
530.425	49859.85
530.626	48932.12
530.828	48710.94
531.029	49188.11
531.23	48012.58
531.431	47142.19
531.632	47115.57
531.833	46107.97
532.035	45608.26
532.236	45395.28
532.437	44983.63
532.638	44223.84
532.839	44086.62
533.04	43388.27
533.241	42519.93
533.442	42364.28
533.643	41598.34
533.844	41123.21
534.045	40865.17
534.246	40406.42
534.447	39978.4
534.648	38892.97
534.849	38243.77
535.05	37764.54
535.251	37432.77
535.451	37031.37
535.652	36640.21
535.853	36099.55
536.054	35632.61
536.255	35073.51
536.456	34278.9
536.657	34285.04
536.857	34139.64
537.058	33041.93
537.259	32753.16
537.46	32603.66
537.66	31815.19
537.861	31548.96
538.062	30674.48
538.263	30600.75
538.463	29959.73
538.664	29789.75
538.865	29554.24
539.065	29226.56
539.266	28526.16
539.466	28571.21
539.667	27723.35
539.868	28077.65
540.068	27534.94
540.269	27506.27
540.469	26787.43
540.67	26744.42
540.87	26529.39
541.071	25601.66
541.271	25728.63
541.472	25349.76
541.672	25142.91
541.873	24575.62
542.073	24071.82
542.274	24129.17
542.474	23637.66
542.675	23715.48
542.875	23701.14
543.075	22851.24
543.276	22535.85
543.476	22789.8
543.676	22103.73
543.877	21903.03
544.077	21980.85
544.277	21468.86
544.478	21083.84
544.678	21149.37
544.878	20588.23
545.078	20348.62
545.279	20276.94
545.479	19920.59
545.679	19826.39
545.879	19543.77
546.079	19500.76
546.28	19060.45
546.48	18962.14
546.68	18976.48
546.88	18536.17
547.08	17960.69
547.28	18175.72
547.48	17559.28
547.68	17598.2
547.88	17352.44
548.081	17420.02
548.281	17026.81
548.481	16815.87
548.681	16811.78
548.881	16230.15
549.081	16211.72
549.28	15675.15
549.48	15734.54
549.68	15607.57
549.88	15646.48
550.08	15091.48
550.28	14890.78
550.48	14878.49
550.68	14485.28
550.88	14071.59
551.08	13946.67
551.279	13961
551.479	13483.83
551.679	13614.9
551.879	13154.1
552.079	13211.45
552.278	12799.8
552.478	13020.99
552.678	12459.84
552.878	12572.48
553.077	12212.04
553.277	11599.69
553.477	11994.95
553.676	11575.12
553.876	11487.06
554.076	11190.1
554.275	11147.09
554.475	10995.54
554.674	10960.73
554.874	10714.97
555.074	10477.41
555.273	10215.27
555.473	10233.7
555.672	9832.3
555.872	9826.15
556.071	9682.8
556.271	9514.86
556.47	9205.62
556.67	9054.07
556.869	8980.34
557.068	9045.88
557.268	8828.79
557.467	8648.57
557.667	8628.09
557.866	8245.12
558.065	8185.73
558.265	8089.48
558.464	7860.1
558.663	7782.28
558.863	7667.59
559.062	7579.53
559.261	7266.19
559.461	7499.66
559.66	7182.23
559.859	6948.76
560.058	6920.09
560.258	6676.38
560.457	6723.48
560.656	6838.17
560.855	6563.74
561.054	6565.79
561.253	6422.43
561.453	6289.31
561.652	6084.52
561.851	6100.9
562.05	6027.17
562.249	5894.05
562.448	5853.09
562.647	5564.33
562.846	5646.25
563.045	5754.79
563.244	5515.18
563.443	5552.04
563.642	5314.48
563.841	5203.89
564.04	5148.59
564.239	5173.17
564.438	5058.48
564.637	4847.54
564.836	4812.73
565.035	4700.09
565.234	4652.98
565.432	4710.33
565.631	4595.64
565.83	4509.63
566.029	4517.82
566.228	4394.94
566.427	4433.85
566.625	4130.75
566.824	4214.72
567.023	4204.48
567.222	4036.55
567.42	4026.31
567.619	4018.11
567.818	4016.07
568.016	3950.53
568.215	3895.24
568.414	3768.26
568.612	3774.41
568.811	3643.34
569.01	3461.07
569.208	3522.51
569.407	3600.33
569.605	3616.71
569.804	3473.35
570.002	3289.04
570.201	3180.5
570.4	3297.23
570.598	3225.55
570.797	3145.68
570.995	3129.3
571.193	3133.39
571.392	3096.53
571.59	2914.26
571.789	3033.04
571.987	2912.21
572.186	2947.03
572.384	2764.76
572.582	2652.12
572.781	2861.01
572.979	2576.34
573.177	2596.82
573.376	2537.43
573.574	2742.23
573.772	2596.82
573.971	2498.52
574.169	2418.65
574.367	2559.96
574.565	2430.94
574.763	2279.39
574.962	2269.15
575.16	2357.21
575.358	2148.32
575.556	2283.49
575.754	2263.01
575.952	2140.13
576.151	2193.37
576.349	2209.76
576.547	1918.95
576.745	2074.59
576.943	2045.92
577.141	2050.02
577.339	1869.8
577.537	1826.79
577.735	1990.63
577.933	1767.4
578.131	1814.5
578.329	1877.99
578.527	1751.01
578.725	1771.49
578.923	1617.9
579.121	1753.06
579.319	1462.25
579.516	1617.9
579.714	1867.75
579.912	1652.71
580.11	1462.25
580.308	1521.64
580.506	1523.69
580.704	1409
580.901	1341.42
581.099	1505.26
581.297	1474.54
581.495	1462.25
581.692	1339.37
581.89	1456.11
582.088	1415.15
582.285	1363.95
582.483	1316.84
582.681	1366
582.878	1310.7
583.076	1302.51
583.274	1243.12
583.471	1224.69
583.669	1120.24
583.866	1116.14
584.064	1202.16
584.262	1124.33
584.459	1095.66
584.657	1071.09
584.854	1204.21
585.052	1009.65
585.249	1153.01
585.447	1161.2
585.644	923.63
585.841	1130.48
586.039	1118.19
586.236	1034.22
586.434	1034.22
586.631	837.62
586.828	864.24
587.026	978.93
587.223	948.21
587.42	1023.98
587.618	1017.84
587.815	1011.7
588.012	933.87
588.21	860.15
588.407	878.58
588.604	944.11
588.801	811
588.999	858.1
589.196	856.05
589.393	858.1
589.59	811
589.787	806.9
589.984	907.25
590.182	856.05
590.379	763.89
590.576	823.28
590.773	784.37
590.97	776.18
591.167	845.81
591.364	823.28
591.561	817.14
591.758	894.96
591.955	798.71
592.152	751.6
592.349	761.84
592.546	647.16
592.743	700.41
592.94	804.85
593.137	827.38
593.334	767.99
593.531	770.04
593.727	808.95
593.924	772.08
594.121	782.32
594.318	767.99
594.515	841.72
594.712	929.78
594.908	892.91
595.105	671.73
595.302	860.15
595.499	835.57
595.696	917.49
595.892	798.71
596.089	927.73
596.286	796.66
596.482	1069.04
596.679	866.29
596.876	831.48
597.072	989.17
597.269	983.02
597.466	1050.61
597.662	989.17
597.859	976.88
598.055	1066.99
598.252	1120.24
598.448	1163.25
598.645	1277.93
598.841	1222.64
599.038	1419.24
599.234	1476.59
599.431	1495.02
599.627	1304.56
599.824	1511.4
600.02	1587.18
600.217	1517.54
600.413	1634.28
600.609	1687.53
600.806	1943.52
601.002	1929.19
601.198	1939.43
601.395	2035.68
601.591	2119.65
601.787	2162.65
601.984	2342.88
602.18	2201.57
602.376	2346.97
602.572	2557.91
602.769	2703.32
602.965	2684.89
603.161	2893.78
603.357	2928.6
603.553	2971.6
603.75	2930.64
603.946	3198.93
604.142	3307.47
604.338	3510.22
604.534	3420.11
604.73	3477.45
604.926	3706.82
605.122	3880.9
605.318	3895.24
605.514	4026.31
605.71	4102.08
605.906	4294.59
606.102	4501.44
606.298	4462.52
606.494	4687.8
606.69	4835.25
606.886	4870.07
607.082	4913.08
607.278	5173.17
607.474	5261.23
607.67	5488.56
607.866	5543.85
608.062	5978.02
608.257	5967.78
608.453	5980.07
608.649	6514.59
608.845	6444.96
609.041	6481.82
609.236	7026.58
609.432	7020.44
609.628	7346.06
609.824	7362.45
610.019	7616.4
610.215	7692.17
610.411	8060.8
610.606	8265.6
610.802	8337.28
610.998	8748.92
611.193	8791.93
611.389	8925.05
611.584	9215.86
611.78	9457.52
611.976	9832.3
612.171	10139.49
612.367	10231.65
612.562	10391.39
612.758	10841.95
612.953	10927.96
613.149	11300.69
613.344	11736.91
613.539	12021.58
613.735	12361.54
613.93	12836.67
614.126	12824.38
614.321	13514.55
614.517	13653.81
614.712	13862.7
614.907	14346.02
615.103	14917.4
615.298	15177.5
615.493	15335.19
615.688	15787.79
615.884	16385.8
616.079	16201.48
616.274	17118.97
616.47	17336.06
616.665	18083.56
616.86	18560.74
617.055	18480.87
617.25	19293.91
617.445	20037.33
617.641	20117.2
617.836	20575.94
618.031	21024.45
618.226	22042.29
618.421	21900.98
618.616	22832.8
618.811	23056.03
619.006	23797.4
619.201	24096.4
619.396	24882.82
619.591	25161.34
619.786	26140.27
619.981	26111.6
620.176	26932.84
620.371	27424.35
620.566	28270.16
620.761	28388.94
620.956	29310.53
621.151	29273.67
621.346	30273.07
621.541	30598.7
621.735	31643.17
621.93	31485.47
622.125	32556.56
622.32	32671.25
622.515	33469.95
622.709	34055.67
622.904	34952.68
623.099	35177.96
623.294	36304.34
623.488	36308.44
623.683	37305.8
623.878	37580.23
624.072	38419.89
624.267	39140.78
624.462	39255.47
624.656	39794.08
624.851	41033.1
625.046	40971.66
625.24	41624.96
625.435	42245.5
625.629	42898.8
625.824	43115.89
626.018	44428.63
626.213	43746.66
626.407	44770.64
626.602	45002.07
626.796	45866.31
626.991	46486.84
627.185	46148.93
627.38	47037.75
627.574	46632.25
627.768	46931.25
627.963	47267.12
628.157	47559.98
628.352	47889.7
628.546	47250.74
628.74	47998.24
628.935	47947.04
629.129	47725.86
629.323	47107.38
629.517	46935.35
629.712	46679.35
629.906	47035.7
630.1	45911.36
630.294	45743.43
630.489	45129.04
630.683	45233.49
630.877	44031.33
631.071	43441.51
631.265	42839.41
631.459	42251.64
631.653	41123.21
631.848	40566.17
632.042	39116.2
632.236	38452.66
632.43	37195.21
632.624	36261.33
632.818	34778.61
633.012	34401.78
633.206	32933.39
633.4	32347.67
633.594	30909.99
633.788	29980.21
633.982	29017.67
634.176	28061.27
634.369	27004.52
634.563	26146.42
634.757	24923.78
634.951	24131.22
635.145	23178.91
635.339	22199.98
635.533	21370.55
635.726	20510.41
635.92	19584.73
636.114	18826.98
636.308	18114.28
636.501	17487.61
636.695	16744.19
636.889	15920.91
637.083	15374.1
637.276	14712.61
637.47	13848.36
637.664	13465.39
637.857	13281.08
638.051	12474.18
638.244	11884.36
638.438	11528.02
638.632	11024.22
638.825	10581.85
639.019	10112.87
639.212	9754.48
639.406	9488.24
639.599	9060.21
639.793	8658.81
639.986	8126.34
640.18	7921.54
640.373	7751.56
640.567	7352.21
640.76	7339.92
640.954	6879.13
641.147	6461.34
641.34	6408.09
641.534	6168.48
641.727	5928.87
641.92	5717.93
642.114	5490.6
642.307	5191.6
642.5	4978.61
642.694	4792.25
642.887	4571.07
643.08	4569.02
643.273	4216.77
643.467	4069.31
643.66	3909.57
643.853	3665.86
644.046	3674.06
644.239	3534.79
644.432	3358.67
644.626	3270.61
644.819	3012.56
645.012	3121.1
645.205	2916.31
645.398	2924.5
645.591	2715.61
645.784	2519
645.977	2443.23
646.17	2404.32
646.363	2328.54
646.556	2146.27
646.749	2121.7
646.942	2095.07
647.135	1947.62
647.328	1834.98
647.521	1875.94
647.714	1742.82
647.907	1828.84
648.099	1562.6
648.292	1644.52
648.485	1490.92
648.678	1417.19
648.871	1392.62
649.064	1427.43
649.256	1265.64
649.449	1196.01
649.642	1083.38
649.835	1177.58
650.027	1148.91
650.22	1122.29
650.413	1046.51
650.605	1054.7
650.798	903.15
650.991	942.07
651.183	919.54
651.376	919.54
651.568	917.49
651.761	804.85
651.954	835.57
652.146	761.84
652.339	788.47
652.531	776.18
652.724	702.45
652.916	702.45
653.109	538.62
653.301	733.17
653.494	675.83
653.686	536.57
653.879	659.45
654.071	636.92
654.263	581.62
654.456	507.9
654.648	493.56
654.84	679.93
655.033	507.9
655.225	579.58
655.417	303.1
655.61	565.24
655.802	546.81
655.994	505.85
656.186	378.87
656.379	411.64
656.571	274.43
656.763	385.02
656.955	403.45
657.148	454.65
657.34	475.13
657.532	356.35
657.724	303.1
657.916	491.51
658.108	407.55
658.3	393.21
658.492	391.16
658.684	346.11
658.876	362.49
659.068	282.62
659.26	296.96
659.452	284.67
659.644	243.71
659.836	407.55
660.028	262.14
660.22	233.47
660.412	225.28
660.604	206.84
660.796	342.01
660.988	374.78
661.18	227.32
661.372	264.19
661.563	235.52
661.755	202.75
661.947	253.95
662.139	247.8
662.331	198.65
662.522	296.96
662.714	190.46
662.906	141.31
663.097	292.86
663.289	118.78
663.481	139.26
663.673	159.74
663.864	219.13
664.056	276.48
664.247	155.65
664.439	268.28
664.631	237.56
664.822	270.33
665.014	176.13
665.205	155.65
665.397	143.36
665.588	274.43
665.78	260.09
665.971	260.09
666.163	176.13
666.354	174.08
666.546	157.69
666.737	172.03
666.929	100.35
667.12	135.17
667.311	217.08
667.503	143.36
667.694	217.08
667.885	178.17
668.077	159.74
668.268	83.97
668.459	178.17
668.651	174.08
668.842	178.17
669.033	114.69
669.224	-45.06
669.416	323.58
669.607	112.64
669.798	122.88
669.989	313.34
670.18	169.98
670.371	249.85
670.563	40.96
670.754	204.8
670.945	239.61
671.136	198.65
671.327	112.64
671.518	221.18
671.709	339.96
671.9	270.33
672.091	317.44
672.282	141.31
672.473	184.32
672.664	90.11
672.855	141.31
673.046	231.42
673.237	212.99
673.428	122.88
673.619	288.76
673.809	180.22
674	159.74
674.191	301.05
674.382	141.31
674.573	227.32
674.764	231.42
674.954	256
675.145	120.83
675.336	108.54
675.527	169.98
675.717	169.98
675.908	167.93
676.099	126.97
676.289	299
676.48	143.36
676.671	157.69
676.861	161.79
677.052	229.37
677.243	86.01
677.433	155.65
677.624	272.38
677.814	231.42
678.005	151.55
678.195	315.39
678.386	155.65
678.576	172.03
678.767	106.49
678.957	122.88
679.148	321.53
679.338	358.39
679.529	231.42
679.719	190.46
679.909	272.38
680.1	262.14
680.29	241.66
680.481	153.6
680.671	251.9
680.861	305.15
681.052	202.75
681.242	151.55
681.432	258.04
681.622	225.28
681.813	204.8
682.003	200.7
682.193	174.08
682.383	253.95
682.573	305.15
682.764	151.55
682.954	235.52
683.144	376.83
683.334	155.65
683.524	194.56
683.714	274.43
683.904	278.52
684.094	249.85
684.284	239.61
684.474	356.35
684.664	317.44
684.854	282.62
685.044	278.52
685.234	288.76
685.424	141.31
685.614	190.46
685.804	399.35
685.994	247.8
686.184	299
686.374	258.04
686.564	266.24
686.753	217.08
686.943	163.84
687.133	204.8
687.323	239.61
687.513	190.46
687.702	288.76
687.892	159.74
688.082	337.91
688.272	313.34
688.461	206.84
688.651	413.69
688.841	305.15
689.03	260.09
689.22	262.14
689.41	344.06
689.599	204.8
689.789	204.8
689.979	413.69
690.168	161.79
690.358	325.63
690.547	276.48
690.737	317.44
690.926	294.91
691.116	262.14
691.305	280.57
691.495	280.57
691.684	192.51
691.874	174.08
692.063	196.6
692.252	264.19
692.442	286.72
692.631	245.76
692.82	272.38
693.01	231.42
693.199	215.04
693.388	182.27
693.578	194.56
693.767	229.37
693.956	288.76
694.146	223.23
694.335	268.28
694.524	71.68
694.713	315.39
694.902	204.8
695.092	262.14
695.281	235.52
695.47	202.75
695.659	243.71
695.848	284.67
696.037	198.65
696.226	256
696.415	202.75
696.604	360.44
696.793	337.91
696.982	219.13
697.171	346.11
697.36	243.71
697.549	198.65
697.738	159.74
697.927	215.04
698.116	186.37
698.305	131.07
698.494	284.67
698.683	204.8
698.872	380.92
699.061	215.04
699.25	215.04
699.438	215.04
699.627	225.28
699.816	305.15
700.005	96.25
700.193	149.5
700.382	280.57
700.571	290.81
700.76	260.09
700.948	288.76
701.137	190.46
701.326	290.81
701.514	215.04
701.703	204.8
701.892	206.84
702.08	391.16
702.269	145.41
702.457	133.12
702.646	241.66
702.834	210.94
703.023	301.05
703.212	251.9
703.4	243.71
703.589	153.6
703.777	223.23
703.965	88.06
704.154	235.52
704.342	124.93
704.531	217.08
704.719	262.14
704.907	294.91
705.096	163.84
705.284	194.56
705.472	118.78
705.661	251.9
705.849	292.86
706.037	221.18
706.226	245.76
706.414	249.85
706.602	149.5
706.79	225.28
706.979	155.65
707.167	303.1
707.355	94.21
707.543	227.32
707.731	167.93
707.919	219.13
708.107	225.28
708.296	157.69
708.484	147.45
708.672	270.33
708.86	245.76
709.048	169.98
709.236	202.75
709.424	282.62
709.612	194.56
709.8	178.17
709.988	227.32
710.176	294.91
710.364	315.39
710.551	174.08
710.739	262.14
710.927	151.55
711.115	251.9
711.303	258.04
711.491	264.19
711.679	133.12
711.866	227.32
712.054	114.69
712.242	243.71
712.43	266.24
712.617	210.94
712.805	249.85
712.993	241.66
713.181	108.54
713.368	288.76
713.556	233.47
713.744	180.22
713.931	391.16
714.119	262.14
714.306	202.75
714.494	135.17
714.682	253.95
714.869	153.6
715.057	169.98
715.244	96.25
715.432	215.04
715.619	169.98
715.807	137.21
715.994	186.37
716.182	212.99
716.369	278.52
716.556	290.81
716.744	112.64
716.931	165.89
717.119	229.37
717.306	237.56
717.493	331.77
717.681	147.45
717.868	161.79
718.055	282.62
718.242	155.65
718.43	253.95
718.617	331.77
718.804	262.14
718.991	251.9
719.179	256
719.366	278.52
719.553	258.04
719.74	258.04
719.927	202.75
720.114	210.94
720.301	133.12
720.488	196.6
720.676	153.6
720.863	333.82
721.05	415.74
721.237	288.76
721.424	313.34
721.611	280.57
721.798	167.93
721.985	190.46
722.172	274.43
722.358	200.7
722.545	311.29
722.732	296.96
722.919	350.2
723.106	286.72
723.293	235.52
723.48	215.04
723.667	210.94
723.853	337.91
724.04	354.3
724.227	350.2
724.414	176.13
724.6	241.66
724.787	292.86
724.974	393.21
725.161	299
725.347	251.9
725.534	290.81
725.72	301.05
725.907	358.39
726.094	256
726.28	219.13
726.467	241.66
726.653	219.13
726.84	382.97
727.027	399.35
727.213	264.19
727.4	335.87
727.586	313.34
727.773	317.44
727.959	210.94
728.145	282.62
728.332	221.18
728.518	159.74
728.705	272.38
728.891	292.86
729.077	262.14
729.264	165.89
729.45	286.72
729.636	325.63
729.823	278.52
730.009	378.87
730.195	362.49
730.382	315.39
730.568	247.8
730.754	245.76
730.94	227.32
731.126	333.82
731.313	342.01
731.499	251.9
731.685	344.06
731.871	415.74
732.057	225.28
732.243	309.24
732.429	278.52
732.615	380.92
732.801	282.62
732.987	270.33
733.173	176.13
733.359	264.19
733.545	333.82
733.731	264.19
733.917	395.26
734.103	270.33
734.289	301.05
734.475	266.24
734.661	468.98
734.847	329.72
735.033	253.95
735.219	352.25
735.404	286.72
735.59	245.76
735.776	303.1
735.962	387.07
736.148	233.47
736.333	440.31
736.519	204.8
736.705	251.9
736.89	370.68
737.076	303.1
737.262	202.75
737.447	290.81
737.633	262.14
737.819	354.3
738.004	325.63
738.19	239.61
738.375	272.38
738.561	376.83
738.747	256
738.932	143.36
739.118	475.13
739.303	387.07
739.489	317.44
739.674	233.47
739.859	243.71
740.045	288.76
740.23	344.06
740.416	112.64
740.601	233.47
740.786	258.04
740.972	272.38
741.157	286.72
741.342	239.61
741.528	237.56
741.713	368.63
741.898	260.09
742.084	264.19
742.269	286.72
742.454	335.87
742.639	342.01
742.824	294.91
743.01	327.67
743.195	362.49
743.38	299
743.565	188.41
743.75	301.05
743.935	296.96
744.12	258.04
744.305	186.37
744.49	325.63
744.675	294.91
744.86	219.13
745.045	296.96
745.23	358.39
745.415	235.52
745.6	440.31
745.785	253.95
745.97	307.2
746.155	278.52
746.34	311.29
746.525	264.19
746.71	274.43
746.895	235.52
747.079	108.54
747.264	143.36
747.449	317.44
747.634	313.34
747.819	331.77
748.003	280.57
748.188	126.97
748.373	278.52
748.557	235.52
748.742	272.38
748.927	247.8
749.111	194.56
749.296	221.18
749.481	358.39
749.665	219.13
749.85	153.6
750.034	241.66
750.219	249.85
750.404	243.71
750.588	241.66
750.773	167.93
750.957	200.7
751.141	190.46
751.326	227.32
751.51	229.37
751.695	192.51
751.879	227.32
752.064	305.15
752.248	233.47
752.432	280.57
752.617	323.58
752.801	270.33
752.985	176.13
753.17	215.04
753.354	202.75
753.538	241.66
753.722	212.99
753.907	106.49
754.091	96.25
754.275	219.13
754.459	79.87
754.643	200.7
754.828	219.13
755.012	190.46
755.196	153.6
755.38	149.5
755.564	165.89
755.748	174.08
755.932	190.46
756.116	253.95
756.3	190.46
756.484	174.08
756.668	196.6
756.852	92.16
757.036	53.25
757.22	260.09
757.404	110.59
757.588	131.07
757.772	215.04
757.956	149.5
758.14	305.15
758.323	159.74
758.507	210.94
758.691	165.89
758.875	194.56
759.059	276.48
759.242	40.96
759.426	124.93
759.61	129.02
759.794	133.12
759.977	208.89
760.161	403.45
760.345	294.91
760.528	270.33
760.712	165.89
760.895	217.08
761.079	200.7
761.263	69.63
761.446	165.89
761.63	129.02
761.813	210.94
761.997	180.22
762.18	176.13
762.364	159.74
762.547	71.68
762.731	86.01
762.914	110.59
763.098	69.63
763.281	108.54
763.464	157.69
763.648	153.6
763.831	45.06
764.015	83.97
764.198	188.41
764.381	32.77
764.564	137.21
764.748	196.6
764.931	172.03
765.114	194.56
765.297	131.07
765.481	94.21
765.664	71.68
765.847	43.01
766.03	163.84
766.213	100.35
766.397	149.5
766.58	28.67
766.763	145.41
766.946	69.63
767.129	106.49
767.312	83.97
767.495	67.58
767.678	14.34
767.861	94.21
768.044	129.02
768.227	14.34
768.41	165.89
768.593	108.54
768.776	114.69
768.959	75.77
769.142	180.22
769.324	83.97
769.507	161.79
769.69	55.3
769.873	96.25
770.056	278.52
770.239	112.64
770.421	135.17
770.604	157.69
770.787	53.25
770.97	141.31
771.152	110.59
771.335	153.6
771.518	116.73
771.7	157.69
771.883	161.79
772.066	61.44
772.248	155.65
772.431	192.51
772.613	163.84
772.796	79.87
772.978	126.97
773.161	176.13
773.343	71.68
773.526	38.91
773.708	12.29
773.891	-36.86
774.073	6.14
774.256	73.73
774.438	245.76
774.621	32.77
774.803	129.02
774.985	75.77
775.168	49.15
775.35	104.45
775.532	141.31
775.715	77.82
775.897	163.84
776.079	47.1
776.261	133.12
776.444	90.11
776.626	98.3
776.808	77.82
776.99	-30.72
777.173	98.3
777.355	83.97
777.537	-30.72
777.719	102.4
777.901	61.44
778.083	32.77
778.265	69.63
778.447	-20.48
778.629	-8.19
778.811	102.4
778.993	139.26
779.175	178.17
779.357	75.77
779.539	-38.91
779.721	59.39
779.903	169.98
780.085	49.15
780.267	75.77
780.449	30.72
780.631	174.08
780.812	88.06
780.994	122.88
781.176	55.3
781.358	-14.34
781.54	122.88
781.721	112.64
781.903	116.73
782.085	51.2
782.267	161.79
782.448	2.05
782.63	14.34
782.812	81.92
782.993	34.82
783.175	71.68
783.357	92.16
783.538	38.91
783.72	22.53
783.901	59.39
784.083	106.49
784.264	94.21
784.446	16.38
784.627	14.34
784.809	88.06
784.99	-12.29
785.172	120.83
785.353	61.44
785.535	163.84
785.716	-16.38
785.897	20.48
786.079	-0
786.26	71.68
786.441	131.07
786.623	-45.06
786.804	34.82
786.985	57.34
787.167	145.41
787.348	61.44
787.529	26.62
787.71	270.33
787.891	120.83
788.073	22.53
788.254	14.34
788.435	206.84
788.616	81.92
788.797	-75.77
788.978	6.14
789.159	-10.24
789.34	59.39
789.522	24.58
789.703	16.38
789.884	126.97
790.065	135.17
790.246	159.74
790.427	40.96
790.607	135.17
790.788	71.68
790.969	30.72
791.15	69.63
791.331	55.3
791.512	26.62
791.693	-30.72
791.874	47.1
792.054	174.08
792.235	102.4
792.416	4.1
792.597	-6.14
792.778	108.54
792.958	43.01
793.139	71.68
793.32	-14.34
793.5	61.44
793.681	137.21
793.862	83.97
794.042	65.53
794.223	-114.69
794.404	22.53
794.584	53.25
794.765	-14.34
794.945	65.53
795.126	61.44
795.306	90.11
795.487	59.39
795.667	43.01
795.848	-6.14
796.028	-24.58
796.209	90.11
796.389	100.35
796.57	-18.43
796.75	-26.62
796.93	-32.77
797.111	38.91
797.291	69.63
797.471	129.02
797.652	2.05
797.832	-0
798.012	100.35
798.192	-24.58
798.373	-14.34
798.553	8.19
798.733	40.96
798.913	63.49
799.093	-4.1
799.274	86.01
799.454	106.49
799.634	67.58
799.814	28.67
799.994	104.45
800.174	26.62
800.354	61.44
800.534	-73.73
800.714	43.01
800.894	-40.96
801.074	-83.97
801.254	32.77
801.434	92.16
801.614	8.19
801.794	30.72
801.974	1916.9
802.154	-4.1
802.334	161.79
802.514	-12.29
802.693	-20.48
802.873	-40.96
803.053	110.59
803.233	59.39
803.413	51.2
803.592	77.82
803.772	-18.43
803.952	28.67
804.131	-16.38
804.311	77.82
804.491	139.26
804.67	6.14
804.85	-69.63
805.03	104.45
805.209	53.25
805.389	18.43
805.568	-36.86
805.748	-0
805.928	43.01
806.107	47.1
806.287	-18.43
806.466	139.26
806.646	67.58
806.825	-0
807.004	18.43
807.184	34.82
807.363	75.77
807.543	-0
807.722	-108.54
807.901	45.06
808.081	12.29
808.26	-102.4
808.439	43.01
808.619	40.96
808.798	-65.54
808.977	32.77
809.156	106.49
809.336	-2.05
809.515	133.12
809.694	-22.53
809.873	71.68
810.052	28.67
810.231	57.34
810.411	77.82
810.59	81.92
810.769	65.53
810.948	71.68
811.127	-204.8
811.306	4.1
811.485	-20.48
811.664	106.49
811.843	-6.14
812.022	67.58
812.201	55.3
812.38	-36.86
812.559	-20.48
812.737	6.14
812.916	-28.67
813.095	4.1
813.274	-40.96
813.453	71.68
813.632	22.53
813.811	-14.34
813.989	-86.01
814.168	-38.91
814.347	-81.92
814.526	10.24
814.704	102.4
814.883	65.53
815.062	-34.82
815.24	83.97
815.419	38.91
815.598	38.91
815.776	-88.06
815.955	16.38
816.133	-61.44
816.312	36.86
816.49	-38.91
816.669	38.91
816.847	14.34
817.026	63.49
817.204	69.63
817.383	8.19
817.561	-83.97
817.74	73.73
817.918	34.82
818.097	-2.05
818.275	12.29
818.453	104.45
818.632	102.4
818.81	-12.29
818.988	-6.14
819.167	30.72
819.345	-0
819.523	-73.73
819.701	-28.67
819.879	38.91
820.058	32.77
820.236	26.62
820.414	61.44
820.592	14.34
820.77	-12.29
820.948	-90.11
821.127	-67.58
821.305	34.82
821.483	8.19
821.661	108.54
821.839	18.43
822.017	-47.1
822.195	24.58
822.373	65.53
822.551	63.49
822.729	86.01
822.907	4.1
823.085	-4.1
823.262	30.72
823.44	-38.91
823.618	20.48
823.796	-36.86
823.974	-30.72
824.152	-55.3
824.329	26.62
824.507	49.15
824.685	65.53
824.863	-71.68
825.04	71.68
825.218	122.88
825.396	-6.14
825.574	8.19
825.751	-30.72
825.929	90.11
826.107	-26.62
826.284	-8.19
826.462	28.67
826.639	-45.06
826.817	-28.67
826.994	16.38
827.172	-45.06
827.349	129.02
827.527	75.77
827.704	-51.2
827.882	110.59
828.059	-8.19
828.237	57.34
828.414	81.92
828.591	-120.83
828.769	18.43
828.946	-51.2
829.124	24.58
829.301	137.21
829.478	6.14
829.655	77.82
829.833	55.3
830.01	-139.26
830.187	110.59
830.364	-45.06
830.542	53.25
830.719	172.03
830.896	88.06
831.073	55.3
831.25	90.11
831.427	83.97
831.604	-24.58
831.782	-16.38
831.959	-2.05
832.136	-2.05
832.313	79.87
832.49	-20.48
832.667	47.1
832.844	-10.24
833.021	190.46
833.198	30.72
833.374	49.15
833.551	22.53
833.728	-24.58
833.905	79.87
834.082	-133.12
834.259	-18.43
834.436	147.45
834.612	-2.05
834.789	59.39
834.966	83.97
835.143	28.67
835.319	-61.44
835.496	63.49
835.673	112.64
835.85	235.52
836.026	40.96
836.203	81.92
836.38	-61.44
836.556	10.24
836.733	-69.63
836.909	90.11
837.086	10.24
837.262	-161.79
837.439	-22.53
837.616	-90.11
837.792	-4.1
837.968	65.53
838.145	-40.96
838.321	-32.77
838.498	-26.62
838.674	92.16
838.851	34.82
839.027	-20.48
839.203	12.29
839.38	22.53
839.556	-12.29
839.732	145.41
839.909	57.34
840.085	100.35
840.261	-63.49
840.437	-4.1
840.614	-61.44
840.79	49.15
840.966	126.97
841.142	12.29
841.318	63.49
841.494	45.06
841.671	88.06
841.847	-18.43
842.023	-90.11
842.199	20.48
842.375	126.97
842.551	-36.86
842.727	-90.11
842.903	67.58
843.079	-106.49
843.255	114.69
843.431	-40.96
843.607	73.73
843.783	-157.69
843.959	114.69
844.134	-45.06
844.31	149.5
844.486	-32.77
844.662	-43.01
844.838	18.43
845.013	10.24
845.189	90.11
845.365	47.1
845.541	8.19
845.716	18.43
845.892	102.4
846.068	-8.19
846.244	6.14
846.419	14.34
846.595	-51.2
846.77	-12.29
846.946	-6.14
847.122	-4.1
847.297	18.43
847.473	65.53
847.648	-96.25
847.824	34.82
847.999	-102.4
848.175	6.14
848.35	49.15
848.526	69.63
848.701	75.77
848.876	34.82
849.052	96.25
849.227	34.82
849.403	77.82
849.578	65.53
849.753	-12.29
849.929	67.58
850.104	-86.01
850.279	47.1
850.454	10.24
850.63	55.3
850.805	14.34
850.98	47.1
851.155	-14.34
851.33	36.86
851.505	-71.68
851.681	102.4
851.856	-6.14
852.031	71.68
852.206	47.1
852.381	30.72
852.556	14.34
852.731	71.68
852.906	71.68
853.081	77.82
853.256	163.84
853.431	-24.58
853.606	-0
853.781	-75.77
853.956	-96.25
854.131	2.05
854.305	-2.05
854.48	61.44
854.655	-2.05
854.83	26.62
855.005	34.82
855.18	24.58
855.354	-24.58
855.529	79.87
855.704	55.3
855.879	45.06
856.053	-10.24
856.228	96.25
856.403	-43.01
856.577	-0
856.752	-77.82
856.926	-16.38
857.101	-6.14
857.276	8.19
857.45	106.49
857.625	92.16
857.799	67.58
857.974	-26.62
858.148	-49.15
858.323	153.6
858.497	8.19
858.672	20.48
858.846	40.96
859.02	98.3
859.195	-67.58
859.369	-59.39
859.543	16.38
859.718	-40.96
859.892	26.62
860.066	18.43
860.241	-43.01
860.415	12.29
860.589	-88.06
860.763	-51.2
860.938	-18.43
861.112	90.11
861.286	-14.34
861.46	53.25
861.634	18.43
861.808	-2.05
861.982	-114.69
862.157	-102.4
862.331	38.91
862.505	-59.39
862.679	-38.91
862.853	-38.91
863.027	-43.01
863.201	108.54
863.375	-8.19
863.549	114.69
863.722	-24.58
863.896	102.4
864.07	-20.48
864.244	51.2
864.418	47.1
864.592	49.15
864.766	-67.58
864.939	77.82
865.113	-61.44
865.287	75.77
865.461	-45.06
865.634	12.29
865.808	-36.86
865.982	-6.14
866.156	20.48
866.329	-14.34
866.503	8.19
866.676	155.65
866.85	14.34
867.024	34.82
867.197	32.77
867.371	16.38
867.544	20.48
867.718	-161.79
867.891	49.15
868.065	-133.12
868.238	16.38
868.412	69.63
868.585	10.24
868.759	-63.49
868.932	-20.48
869.105	-51.2
869.279	38.91
869.452	-92.16
869.625	53.25
869.799	45.06
869.972	-88.06
870.145	-49.15
870.319	106.49
870.492	14.34
870.665	-2.05
870.838	-53.25
871.011	-153.6
871.185	43.01
871.358	-10.24
871.531	49.15
871.704	-16.38
871.877	10.24
872.05	38.91
872.223	-86.01
872.396	-10.24
872.569	114.69
872.742	-34.82
872.915	79.87
873.088	-43.01
873.261	-133.12
873.434	81.92
873.607	10.24
873.78	116.73
873.953	-40.96
874.126	-12.29
874.299	26.62
874.471	10.24
874.644	14.34
874.817	36.86
874.99	102.4
875.163	-18.43
875.335	36.86
875.508	4.1
875.681	81.92
875.853	16.38
876.026	-14.34
876.199	-0
876.371	61.44
876.544	-67.58
876.717	-59.39
876.889	-22.53
877.062	47.1
877.234	8.19
877.407	-22.53
877.579	47.1
877.752	61.44
877.924	-4.1
878.097	30.72
878.269	81.92
878.442	16.38
878.614	-51.2
878.786	24.58
878.959	-8.19
879.131	-8.19
879.303	-81.92
879.476	32.77
879.648	36.86
879.82	-24.58
879.993	-0
880.165	-47.1
880.337	-38.91
880.509	-28.67
880.681	-40.96
880.854	-10.24
881.026	100.35
881.198	141.31
881.37	-26.62
881.542	-10.24
881.714	-47.1
881.886	-32.77
882.058	36.86
882.23	-49.15
882.402	-67.58
882.574	-2.05
882.746	38.91
882.918	131.07
883.09	75.77
883.262	-106.49
883.434	22.53
883.606	-32.77
883.778	-18.43
883.95	63.49
884.122	36.86
884.293	86.01
884.465	-10.24
884.637	34.82
884.809	-59.39
884.98	26.62
885.152	100.35
885.324	71.68
885.496	-26.62
885.667	-4.1
885.839	-14.34
886.011	79.87
886.182	90.11
886.354	65.53
886.525	32.77
886.697	26.62
886.869	-28.67
887.04	10.24
887.212	92.16
887.383	114.69
887.555	65.53
887.726	-16.38
887.897	-69.63
888.069	32.77
888.24	61.44
888.412	-14.34
888.583	-32.77
888.754	-106.49
888.926	-98.3
889.097	-90.11
889.268	-51.2
889.44	-6.14
889.611	-12.29
889.782	-88.06
889.953	-75.77
890.125	71.68
890.296	-110.59
890.467	-77.82
890.638	-61.44
890.809	20.48
890.98	-71.68
891.151	24.58
891.323	112.64
891.494	57.34
891.665	22.53
891.836	-40.96
892.007	20.48
892.178	86.01
892.349	-51.2
892.52	-61.44
892.691	71.68
892.862	16.38
893.032	-36.86
893.203	-40.96
893.374	8.19
893.545	77.82
893.716	2.05
893.887	112.64
894.057	-45.06
894.228	-69.63
894.399	16.38
894.57	141.31
894.74	-43.01
894.911	-47.1
895.082	-16.38
895.253	-40.96
895.423	24.58
895.594	100.35
895.764	38.91
895.935	-30.72
896.106	90.11
896.276	40.96
896.447	-4.1
896.617	-104.45
896.788	-102.4
896.958	10.24
897.129	12.29
897.299	-26.62
897.47	102.4
897.64	24.58
897.81	16.38
897.981	-34.82
898.151	6.14
898.322	88.06
898.492	40.96
898.662	-77.82
898.832	-73.73
899.003	-8.19
899.173	8.19
899.343	-96.25
899.513	30.72
