Data from USB4F104151__179__11-05-05-935.txt Node

Date: Wed Feb 26 11:05:05 EST 2025
User: louis
Spectrometer: USB4F10415
Trigger mode: 4
Integration Time (sec): 1.000000E-1
Scans to average: 1
Electric dark correction enabled: true
Nonlinearity correction enabled: false
Boxcar width: 0
XAxis mode: Wavelengths
Number of Pixels in Spectrum: 3648
>>>>>Begin Spectral Data<<<<<
178.204	-320.51
178.424	-320.51
178.644	-320.51
178.864	-443.39
179.084	-365.56
179.304	-29.7
179.524	41.98
179.744	39.94
179.964	7.17
180.184	-5.12
180.404	9.22
180.624	-39.94
180.844	56.32
181.064	-15.36
181.283	17.41
181.503	-46.08
181.723	-35.84
181.943	-123.9
182.163	209.92
182.383	-27.65
182.602	39.94
182.822	144.38
183.042	95.23
183.262	-46.08
183.482	-19.46
183.701	1.02
183.921	109.57
184.141	-44.03
184.361	60.42
184.58	54.27
184.8	74.75
185.02	-33.79
185.239	115.71
185.459	46.08
185.679	140.29
185.898	-41.98
186.118	84.99
186.338	68.61
186.557	48.13
186.777	-11.26
186.997	-31.74
187.216	80.89
187.436	211.96
187.655	52.22
187.875	105.47
188.095	23.55
188.314	171.01
188.534	113.66
188.753	-62.46
188.973	115.71
189.192	97.28
189.412	25.6
189.631	-5.12
189.851	13.31
190.07	156.67
190.29	-48.13
190.509	58.37
190.729	97.28
190.948	84.99
191.168	242.68
191.387	132.09
191.607	23.55
191.826	41.98
192.045	-48.13
192.265	-3.07
192.484	7.17
192.704	17.41
192.923	-37.89
193.142	214.01
193.362	64.51
193.581	132.09
193.8	119.81
194.02	21.5
194.239	74.75
194.458	66.56
194.678	13.31
194.897	-19.46
195.116	62.46
195.335	146.43
195.555	50.18
195.774	-13.31
195.993	60.42
196.212	41.98
196.432	21.5
196.651	-41.98
196.87	44.03
197.089	216.06
197.308	66.56
197.528	7.17
197.747	-9.22
197.966	72.7
198.185	132.09
198.404	-52.22
198.623	68.61
198.842	125.95
199.062	54.27
199.281	60.42
199.5	72.7
199.719	44.03
199.938	44.03
200.157	54.27
200.376	136.19
200.595	140.29
200.814	89.09
201.033	-31.74
201.252	128
201.471	66.56
201.69	109.57
201.909	5.12
202.128	101.37
202.347	115.71
202.566	21.5
202.785	-87.04
203.004	-13.31
203.223	257.02
203.442	60.42
203.661	19.46
203.879	58.37
204.098	95.23
204.317	-5.12
204.536	140.29
204.755	148.48
204.974	107.52
205.193	5.12
205.411	117.76
205.63	125.95
205.849	56.32
206.068	17.41
206.287	52.22
206.505	162.81
206.724	-7.17
206.943	-5.12
207.162	33.79
207.381	19.46
207.599	27.65
207.818	35.84
208.037	-117.76
208.255	39.94
208.474	37.89
208.693	7.17
208.911	87.04
209.13	80.89
209.349	84.99
209.567	70.65
209.786	76.8
210.005	156.67
210.223	72.7
210.442	-74.75
210.661	82.94
210.879	19.46
211.098	-50.18
211.316	25.6
211.535	107.52
211.753	1.02
211.972	168.96
212.191	-52.22
212.409	-50.18
212.628	39.94
212.846	74.75
213.065	66.56
213.283	130.05
213.502	44.03
213.72	35.84
213.938	-44.03
214.157	17.41
214.375	171.01
214.594	13.31
214.812	33.79
215.031	58.37
215.249	33.79
215.467	64.51
215.686	68.61
215.904	60.42
216.122	74.75
216.341	140.29
216.559	60.42
216.778	121.85
216.996	105.47
217.214	9.22
217.432	-19.46
217.651	-74.75
217.869	-50.18
218.087	48.13
218.306	9.22
218.524	23.55
218.742	5.12
218.96	48.13
219.179	-1.02
219.397	39.94
219.615	216.06
219.833	136.19
220.051	-48.13
220.27	144.38
220.488	97.28
220.706	25.6
220.924	74.75
221.142	44.03
221.36	93.18
221.578	89.09
221.796	58.37
222.015	89.09
222.233	48.13
222.451	123.9
222.669	-48.13
222.887	82.94
223.105	-1.02
223.323	1.02
223.541	-15.36
223.759	48.13
223.977	-19.46
224.195	171.01
224.413	62.46
224.631	-3.07
224.849	-29.7
225.067	220.16
225.285	13.31
225.503	21.5
225.721	-152.57
225.939	-7.17
226.157	76.8
226.375	234.49
226.592	1.02
226.81	-5.12
227.028	109.57
227.246	121.85
227.464	62.46
227.682	23.55
227.9	93.18
228.117	21.5
228.335	35.84
228.553	-23.55
228.771	44.03
228.989	37.89
229.206	21.5
229.424	15.36
229.642	54.27
229.86	-29.7
230.077	140.29
230.295	-52.22
230.513	82.94
230.731	19.46
230.948	156.67
231.166	130.05
231.384	41.98
231.601	31.74
231.819	146.43
232.037	-76.8
232.254	-128
232.472	7.17
232.689	64.51
232.907	128
233.125	54.27
233.342	-21.5
233.56	-11.26
233.777	-9.22
233.995	11.26
234.213	140.29
234.43	115.71
234.648	-5.12
234.865	5.12
235.083	101.37
235.3	-15.36
235.518	109.57
235.735	91.13
235.953	60.42
236.17	62.46
236.388	93.18
236.605	97.28
236.822	181.25
237.04	193.53
237.257	68.61
237.475	-27.65
237.692	123.9
237.909	101.37
238.127	23.55
238.344	95.23
238.562	-27.65
238.779	-44.03
238.996	-48.13
239.214	175.1
239.431	107.52
239.648	-9.22
239.865	146.43
240.083	41.98
240.3	-7.17
240.517	33.79
240.735	23.55
240.952	195.58
241.169	56.32
241.386	5.12
241.603	52.22
241.821	-37.89
242.038	-29.7
242.255	140.29
242.472	-15.36
242.689	27.65
242.907	89.09
243.124	46.08
243.341	64.51
243.558	-48.13
243.775	-15.36
243.992	-33.79
244.209	37.89
244.426	207.87
244.643	66.56
244.86	35.84
245.078	74.75
245.295	64.51
245.512	95.23
245.729	-13.31
245.946	70.65
246.163	41.98
246.38	9.22
246.597	66.56
246.814	44.03
247.031	23.55
247.248	84.99
247.464	35.84
247.681	130.05
247.898	136.19
248.115	58.37
248.332	-111.61
248.549	207.87
248.766	146.43
248.983	189.44
249.2	97.28
249.417	91.13
249.633	29.7
249.85	87.04
250.067	62.46
250.284	27.65
250.501	74.75
250.717	66.56
250.934	-21.5
251.151	-15.36
251.368	25.6
251.585	41.98
251.801	27.65
252.018	-5.12
252.235	123.9
252.451	-82.94
252.668	91.13
252.885	130.05
253.102	56.32
253.318	25.6
253.535	-3.07
253.752	-11.26
253.968	1.02
254.185	-39.94
254.401	-11.26
254.618	62.46
254.835	-11.26
255.051	54.27
255.268	89.09
255.484	64.51
255.701	-19.46
255.917	101.37
256.134	-7.17
256.351	1.02
256.567	-56.32
256.784	-5.12
257	-93.18
257.217	97.28
257.433	113.66
257.65	109.57
257.866	171.01
258.082	-130.05
258.299	-31.74
258.515	91.13
258.732	13.31
258.948	3.07
259.165	29.7
259.381	3.07
259.597	74.75
259.814	72.7
260.03	-54.27
260.246	-25.6
260.463	52.22
260.679	103.42
260.895	44.03
261.112	33.79
261.328	19.46
261.544	-41.98
261.761	144.38
261.977	-78.85
262.193	-25.6
262.409	144.38
262.626	-19.46
262.842	44.03
263.058	-21.5
263.274	50.18
263.49	70.65
263.707	31.74
263.923	27.65
264.139	-103.42
264.355	-1.02
264.571	37.89
264.787	50.18
265.004	191.49
265.22	60.42
265.436	58.37
265.652	27.65
265.868	-21.5
266.084	-70.65
266.3	-11.26
266.516	48.13
266.732	7.17
266.948	91.13
267.164	44.03
267.38	41.98
267.596	68.61
267.812	150.53
268.028	41.98
268.244	15.36
268.46	58.37
268.676	54.27
268.892	37.89
269.108	21.5
269.324	-23.55
269.54	58.37
269.756	89.09
269.972	-44.03
270.188	15.36
270.403	-101.37
270.619	41.98
270.835	66.56
271.051	91.13
271.267	48.13
271.483	-1.02
271.698	74.75
271.914	48.13
272.13	140.29
272.346	-7.17
272.562	37.89
272.777	119.81
272.993	27.65
273.209	-5.12
273.425	68.61
273.64	-9.22
273.856	138.24
274.072	-64.51
274.287	58.37
274.503	107.52
274.719	115.71
274.934	-7.17
275.15	-33.79
275.366	27.65
275.581	7.17
275.797	58.37
276.012	56.32
276.228	-113.66
276.444	-3.07
276.659	19.46
276.875	-101.37
277.09	-11.26
277.306	23.55
277.521	103.42
277.737	74.75
277.952	46.08
278.168	95.23
278.383	84.99
278.599	76.8
278.814	84.99
279.03	25.6
279.245	107.52
279.461	39.94
279.676	70.65
279.892	-23.55
280.107	21.5
280.322	-7.17
280.538	91.13
280.753	17.41
280.969	29.7
281.184	68.61
281.399	103.42
281.615	-7.17
281.83	31.74
282.045	-50.18
282.26	-1.02
282.476	21.5
282.691	84.99
282.906	76.8
283.122	23.55
283.337	-21.5
283.552	41.98
283.767	29.7
283.983	76.8
284.198	138.24
284.413	89.09
284.628	-82.94
284.843	66.56
285.058	31.74
285.274	35.84
285.489	-91.13
285.704	48.13
285.919	-13.31
286.134	-9.22
286.349	-7.17
286.564	-27.65
286.779	146.43
286.995	9.22
287.21	-87.04
287.425	66.56
287.64	-23.55
287.855	140.29
288.07	-113.66
288.285	164.86
288.5	99.33
288.715	93.18
288.93	119.81
289.145	-15.36
289.36	103.42
289.575	-99.33
289.79	117.76
290.004	-21.5
290.219	144.38
290.434	-15.36
290.649	-3.07
290.864	-41.98
291.079	-5.12
291.294	37.89
291.509	11.26
291.724	-7.17
291.938	27.65
292.153	189.44
292.368	29.7
292.583	46.08
292.798	197.63
293.012	44.03
293.227	58.37
293.442	-89.09
293.657	117.76
293.871	140.29
294.086	125.95
294.301	199.68
294.516	193.53
294.73	50.18
294.945	7.17
295.16	-35.84
295.374	72.7
295.589	130.05
295.804	-25.6
296.018	33.79
296.233	89.09
296.447	27.65
296.662	-15.36
296.877	148.48
297.091	27.65
297.306	41.98
297.52	-23.55
297.735	15.36
297.949	87.04
298.164	1.02
298.378	56.32
298.593	-15.36
298.807	-72.7
299.022	64.51
299.236	134.14
299.451	-13.31
299.665	-31.74
299.88	70.65
300.094	134.14
300.309	29.7
300.523	80.89
300.737	37.89
300.952	41.98
301.166	64.51
301.381	7.17
301.595	-48.13
301.809	37.89
302.024	-80.89
302.238	-76.8
302.452	97.28
302.667	-27.65
302.881	123.9
303.095	156.67
303.309	41.98
303.524	-9.22
303.738	-21.5
303.952	-13.31
304.166	64.51
304.381	-103.42
304.595	136.19
304.809	-3.07
305.023	121.85
305.237	1.02
305.452	60.42
305.666	103.42
305.88	58.37
306.094	93.18
306.308	66.56
306.522	156.67
306.736	29.7
306.95	142.33
307.164	121.85
307.379	-3.07
307.593	140.29
307.807	138.24
308.021	58.37
308.235	125.95
308.449	-72.7
308.663	72.7
308.877	164.86
309.091	84.99
309.305	91.13
309.519	-37.89
309.733	123.9
309.947	-50.18
310.161	113.66
310.374	89.09
310.588	138.24
310.802	-76.8
311.016	-31.74
311.23	11.26
311.444	-50.18
311.658	29.7
311.872	132.09
312.085	115.71
312.299	117.76
312.513	144.38
312.727	76.8
312.941	-91.13
313.154	25.6
313.368	41.98
313.582	80.89
313.796	74.75
314.009	17.41
314.223	209.92
314.437	76.8
314.651	109.57
314.864	-48.13
315.078	-19.46
315.292	17.41
315.505	23.55
315.719	113.66
315.933	23.55
316.146	1.02
316.36	-44.03
316.573	93.18
316.787	97.28
317.001	25.6
317.214	13.31
317.428	158.72
317.641	-62.46
317.855	48.13
318.068	74.75
318.282	-35.84
318.495	142.33
318.709	115.71
318.922	23.55
319.136	138.24
319.349	119.81
319.563	52.22
319.776	52.22
319.99	-74.75
320.203	82.94
320.417	60.42
320.63	91.13
320.843	211.96
321.057	76.8
321.27	-21.5
321.483	111.61
321.697	134.14
321.91	29.7
322.124	-21.5
322.337	82.94
322.55	17.41
322.763	-15.36
322.977	5.12
323.19	-33.79
323.403	-1.02
323.617	80.89
323.83	136.19
324.043	-46.08
324.256	93.18
324.469	1.02
324.683	138.24
324.896	-3.07
325.109	72.7
325.322	-76.8
325.535	156.67
325.748	107.52
325.962	72.7
326.175	54.27
326.388	27.65
326.601	115.71
326.814	-21.5
327.027	62.46
327.24	119.81
327.453	-48.13
327.666	64.51
327.879	166.91
328.092	89.09
328.305	54.27
328.518	-60.42
328.731	-46.08
328.944	-31.74
329.157	-23.55
329.37	29.7
329.583	162.81
329.796	76.8
330.009	11.26
330.222	142.33
330.435	109.57
330.648	76.8
330.861	31.74
331.073	80.89
331.286	66.56
331.499	3.07
331.712	23.55
331.925	78.85
332.138	76.8
332.35	134.14
332.563	-56.32
332.776	168.96
332.989	7.17
333.202	60.42
333.414	33.79
333.627	97.28
333.84	13.31
334.053	82.94
334.265	-48.13
334.478	-62.46
334.691	37.89
334.903	82.94
335.116	19.46
335.329	39.94
335.541	52.22
335.754	183.29
335.966	21.5
336.179	74.75
336.392	29.7
336.604	-62.46
336.817	109.57
337.029	72.7
337.242	39.94
337.454	130.05
337.667	70.65
337.88	168.96
338.092	50.18
338.305	25.6
338.517	-52.22
338.729	101.37
338.942	144.38
339.154	-3.07
339.367	-41.98
339.579	107.52
339.792	13.31
340.004	87.04
340.217	68.61
340.429	50.18
340.641	-52.22
340.854	27.65
341.066	37.89
341.278	113.66
341.491	238.59
341.703	31.74
341.915	-13.31
342.128	44.03
342.34	68.61
342.552	-41.98
342.764	140.29
342.977	35.84
343.189	130.05
343.401	48.13
343.613	15.36
343.826	31.74
344.038	-23.55
344.25	66.56
344.462	-39.94
344.674	99.33
344.886	-21.5
345.099	35.84
345.311	111.61
345.523	-15.36
345.735	-109.57
345.947	54.27
346.159	-7.17
346.371	33.79
346.583	111.61
346.795	175.1
347.007	-41.98
347.219	68.61
347.431	19.46
347.643	140.29
347.855	-31.74
348.067	123.9
348.279	-27.65
348.491	-46.08
348.703	97.28
348.915	-39.94
349.127	-23.55
349.339	56.32
349.551	46.08
349.763	142.33
349.975	54.27
350.187	105.47
350.399	93.18
350.61	87.04
350.822	-23.55
351.034	21.5
351.246	46.08
351.458	35.84
351.669	37.89
351.881	99.33
352.093	136.19
352.305	152.57
352.517	82.94
352.728	117.76
352.94	52.22
353.152	105.47
353.363	-23.55
353.575	93.18
353.787	80.89
353.999	78.85
354.21	123.9
354.422	1.02
354.633	109.57
354.845	89.09
355.057	29.7
355.268	29.7
355.48	66.56
355.692	-64.51
355.903	89.09
356.115	9.22
356.326	-37.89
356.538	121.85
356.749	84.99
356.961	103.42
357.172	9.22
357.384	-17.41
357.595	246.78
357.807	78.85
358.018	76.8
358.23	-5.12
358.441	201.72
358.653	58.37
358.864	29.7
359.075	-15.36
359.287	3.07
359.498	41.98
359.709	62.46
359.921	74.75
360.132	33.79
360.344	-15.36
360.555	1.02
360.766	84.99
360.977	17.41
361.189	183.29
361.4	-80.89
361.611	99.33
361.823	99.33
362.034	76.8
362.245	-95.23
362.456	13.31
362.667	46.08
362.879	46.08
363.09	15.36
363.301	25.6
363.512	60.42
363.723	7.17
363.935	50.18
364.146	76.8
364.357	-41.98
364.568	50.18
364.779	-54.27
364.99	87.04
365.201	-46.08
365.412	123.9
365.623	-89.09
365.834	37.89
366.045	68.61
366.256	91.13
366.467	117.76
366.678	68.61
366.889	29.7
367.1	41.98
367.311	74.75
367.522	31.74
367.733	17.41
367.944	74.75
368.155	50.18
368.366	123.9
368.577	117.76
368.788	78.85
368.999	-82.94
369.209	109.57
369.42	248.83
369.631	211.96
369.842	68.61
370.053	-44.03
370.264	148.48
370.474	-31.74
370.685	74.75
370.896	25.6
371.107	148.48
371.317	58.37
371.528	27.65
371.739	162.81
371.95	56.32
372.16	107.52
372.371	-31.74
372.582	41.98
372.792	95.23
373.003	72.7
373.214	95.23
373.424	58.37
373.635	-5.12
373.846	115.71
374.056	72.7
374.267	101.37
374.477	140.29
374.688	-5.12
374.898	76.8
375.109	60.42
375.319	52.22
375.53	84.99
375.74	95.23
375.951	-1.02
376.161	54.27
376.372	37.89
376.582	-68.61
376.793	58.37
377.003	21.5
377.214	-31.74
377.424	72.7
377.635	-9.22
377.845	-15.36
378.055	179.2
378.266	-37.89
378.476	3.07
378.686	46.08
378.897	72.7
379.107	144.38
379.317	56.32
379.528	41.98
379.738	128
379.948	-19.46
380.158	56.32
380.369	-13.31
380.579	64.51
380.789	21.5
380.999	46.08
381.21	87.04
381.42	240.64
381.63	-7.17
381.84	84.99
382.05	60.42
382.261	136.19
382.471	103.42
382.681	58.37
382.891	136.19
383.101	41.98
383.311	9.22
383.521	-41.98
383.731	93.18
383.941	130.05
384.151	74.75
384.361	-7.17
384.571	54.27
384.781	113.66
384.991	146.43
385.201	195.58
385.411	140.29
385.621	93.18
385.831	78.85
386.041	119.81
386.251	111.61
386.461	162.81
386.671	68.61
386.881	76.8
387.091	23.55
387.301	168.96
387.511	41.98
387.72	17.41
387.93	132.09
388.14	-46.08
388.35	-29.7
388.56	109.57
388.769	115.71
388.979	44.03
389.189	-37.89
389.399	50.18
389.609	93.18
389.818	31.74
390.028	113.66
390.238	107.52
390.447	-25.6
390.657	103.42
390.867	56.32
391.076	-29.7
391.286	-3.07
391.496	54.27
391.705	-54.27
391.915	80.89
392.125	25.6
392.334	23.55
392.544	152.57
392.753	3.07
392.963	-37.89
393.172	97.28
393.382	19.46
393.591	207.87
393.801	91.13
394.01	177.15
394.22	84.99
394.429	-11.26
394.639	48.13
394.848	25.6
395.058	60.42
395.267	-19.46
395.477	128
395.686	74.75
395.895	224.25
396.105	228.35
396.314	113.66
396.524	72.7
396.733	-17.41
396.942	134.14
397.152	82.94
397.361	111.61
397.57	37.89
397.78	46.08
397.989	31.74
398.198	209.92
398.407	66.56
398.617	9.22
398.826	33.79
399.035	48.13
399.244	105.47
399.453	60.42
399.663	1.02
399.872	68.61
400.081	-7.17
400.29	138.24
400.499	-62.46
400.708	154.62
400.917	27.65
401.127	-7.17
401.336	21.5
401.545	230.4
401.754	164.86
401.963	74.75
402.172	19.46
402.381	19.46
402.59	62.46
402.799	17.41
403.008	99.33
403.217	82.94
403.426	78.85
403.635	1.02
403.844	84.99
404.053	60.42
404.262	54.27
404.471	205.82
404.68	31.74
404.888	-5.12
405.097	87.04
405.306	29.7
405.515	76.8
405.724	-13.31
405.933	74.75
406.142	13.31
406.35	181.25
406.559	27.65
406.768	130.05
406.977	134.14
407.185	115.71
407.394	66.56
407.603	27.65
407.812	74.75
408.02	119.81
408.229	-13.31
408.438	115.71
408.646	-37.89
408.855	66.56
409.064	70.65
409.272	17.41
409.481	74.75
409.69	-74.75
409.898	-21.5
410.107	74.75
410.315	160.77
410.524	37.89
410.733	68.61
410.941	21.5
411.15	37.89
411.358	5.12
411.567	173.05
411.775	80.89
411.984	58.37
412.192	142.33
412.401	-74.75
412.609	189.44
412.818	113.66
413.026	48.13
413.234	111.61
413.443	41.98
413.651	87.04
413.86	23.55
414.068	144.38
414.276	154.62
414.485	3.07
414.693	148.48
414.901	158.72
415.11	125.95
415.318	39.94
415.526	48.13
415.734	218.11
415.943	111.61
416.151	148.48
416.359	31.74
416.567	91.13
416.776	123.9
416.984	80.89
417.192	144.38
417.4	-27.65
417.608	66.56
417.817	-46.08
418.025	121.85
418.233	128
418.441	-50.18
418.649	39.94
418.857	76.8
419.065	146.43
419.273	15.36
419.481	-7.17
419.689	72.7
419.897	74.75
420.105	25.6
420.313	156.67
420.521	115.71
420.729	158.72
420.937	1.02
421.145	3.07
421.353	128
421.561	207.87
421.769	56.32
421.977	46.08
422.185	132.09
422.393	107.52
422.601	97.28
422.809	97.28
423.017	136.19
423.224	84.99
423.432	78.85
423.64	23.55
423.848	171.01
424.056	80.89
424.263	128
424.471	1.02
424.679	119.81
424.887	13.31
425.094	248.83
425.302	33.79
425.51	68.61
425.718	177.15
425.925	109.57
426.133	7.17
426.341	189.44
426.548	13.31
426.756	-1.02
426.964	105.47
427.171	111.61
427.379	91.13
427.586	123.9
427.794	158.72
428.001	175.1
428.209	150.53
428.417	168.96
428.624	166.91
428.832	95.23
429.039	3.07
429.247	48.13
429.454	66.56
429.662	222.2
429.869	97.28
430.076	82.94
430.284	87.04
430.491	203.77
430.699	220.16
430.906	248.83
431.114	189.44
431.321	166.91
431.528	207.87
431.736	54.27
431.943	160.77
432.15	187.39
432.358	250.88
432.565	285.69
432.772	-5.12
432.979	181.25
433.187	181.25
433.394	271.36
433.601	162.81
433.808	214.01
434.016	248.83
434.223	242.68
434.43	187.39
434.637	300.03
434.844	261.12
435.052	285.69
435.259	293.88
435.466	285.69
435.673	218.11
435.88	214.01
436.087	445.43
436.294	328.7
436.501	406.52
436.708	291.84
436.915	277.5
437.122	383.99
437.329	230.4
437.537	289.79
437.743	320.51
437.95	508.92
438.157	410.62
438.364	322.56
438.571	373.75
438.778	474.1
438.985	463.86
439.192	508.92
439.399	431.1
439.606	498.68
439.813	476.15
440.02	551.93
440.227	687.09
440.433	533.5
440.64	492.54
440.847	506.87
441.054	601.08
441.261	791.54
441.467	687.09
441.674	535.54
441.881	769.01
442.088	594.93
442.294	787.44
442.501	775.16
442.708	881.65
442.914	799.73
443.121	783.35
443.328	898.03
443.534	1016.82
443.741	979.95
443.948	824.31
444.154	1043.44
444.361	1119.21
444.568	1068.02
444.774	1031.15
444.981	959.47
445.187	1151.98
445.394	1231.85
445.6	1125.36
445.807	1371.12
446.013	1315.82
446.22	1299.44
446.426	1514.47
446.633	1569.77
446.839	1684.45
447.046	1424.36
447.252	1762.28
447.459	1752.04
447.665	1700.84
447.871	1850.34
448.078	2059.23
448.284	1944.55
448.491	2094.05
448.697	2178.01
448.903	2268.13
449.11	2249.69
449.316	2296.8
449.522	2466.78
449.728	2669.53
449.935	2644.95
450.141	2784.21
450.347	2857.94
450.553	2933.72
450.76	2798.55
450.966	3089.36
451.172	3122.13
451.378	3308.49
451.584	3345.36
451.791	3509.19
451.997	3740.61
452.203	3668.94
452.409	4125.63
452.615	4258.75
452.821	3849.16
453.027	4176.83
453.233	4557.75
453.44	4432.83
453.646	4602.81
453.852	4916.15
454.058	5196.72
454.264	5092.27
454.47	5493.68
454.676	5618.6
454.882	6120.35
455.088	5856.17
455.294	6185.89
455.5	6652.83
455.705	6931.35
455.911	6861.72
456.117	7238.55
456.323	7289.74
456.529	7330.7
456.735	8133.51
456.941	8074.12
457.147	8694.65
457.352	8815.48
457.558	8940.41
457.764	9608.05
457.97	9788.27
458.176	10273.64
458.381	10902.36
458.587	11115.35
458.793	11563.86
458.999	11508.56
459.204	12950.33
459.41	13316.92
459.616	13230.9
459.821	14019.37
460.027	14691.1
460.233	15160.09
460.438	15248.15
460.644	16255.75
460.85	16134.92
461.055	17089.28
461.261	18062.06
461.466	17455.86
461.672	18060.01
461.878	19954.38
462.083	19702.48
462.289	20189.9
462.494	21172.92
462.7	21111.49
462.905	21445.3
463.111	23141.02
463.316	24384.14
463.522	24963.72
463.727	25737.85
463.932	26288.75
464.138	27282.02
464.343	28277.33
464.549	28252.75
464.754	30585.39
464.959	31670.81
465.165	31799.83
465.37	31707.68
465.575	31783.45
465.781	33853.95
465.986	34974.19
466.191	34060.79
466.397	34474.48
466.602	33440.26
466.807	35885.53
467.012	36557.27
467.218	36981.2
467.423	36954.57
467.628	38058.43
467.833	40010.14
468.038	39496.1
468.244	38644.15
468.449	40442.26
468.654	39539.11
468.859	39895.46
469.064	39719.33
469.269	38846.9
469.474	39092.65
469.679	40245.66
469.885	39229.87
470.09	39698.85
470.295	39733.67
470.5	39027.12
470.705	39076.27
470.91	38173.11
471.115	37769.66
471.32	38365.62
471.525	38216.12
471.73	37022.16
471.935	36815.31
472.139	35328.48
472.344	35711.46
472.549	35490.27
472.754	34595.31
472.959	33602.05
473.164	32432.66
473.369	32078.36
473.574	33217.03
473.778	32557.58
473.983	32160.28
474.188	31324.71
474.393	29565.5
474.598	29770.3
474.802	29078.08
475.007	28805.7
475.212	28793.42
475.417	27370.08
475.621	27007.59
475.826	26780.26
476.031	26305.13
476.235	25594.49
476.44	25633.4
476.645	24849.03
476.849	24902.28
477.054	24306.32
477.259	23558.81
477.463	23823
477.668	22776.48
477.872	23036.58
478.077	22313.64
478.282	21588.66
478.486	21596.85
478.691	21340.86
478.895	21217.98
479.1	21052.09
479.304	20927.17
479.509	20210.38
479.713	20392.65
479.918	19686.1
480.122	19569.37
480.326	19823.31
480.531	19884.75
480.735	19528.41
480.94	19190.49
481.144	19872.46
481.348	18453.22
481.553	18909.92
481.757	18215.66
481.961	18760.42
482.166	18698.98
482.37	18311.91
482.574	17998.57
482.778	17824.5
482.983	18174.7
483.187	17595.12
483.391	17748.72
483.595	17402.61
483.8	17394.42
484.004	17261.3
484.208	17152.76
484.412	17005.31
484.616	16642.82
484.821	16538.37
485.025	16210.7
485.229	16216.84
485.433	15811.34
485.637	15637.27
485.841	15391.51
486.045	15295.25
486.249	15088.41
486.453	15035.16
486.657	14746.4
486.861	14652.19
487.065	14084.91
487.269	13863.72
487.473	13556.53
487.677	13597.49
487.881	13726.51
488.085	13044.54
488.289	13019.96
488.493	12639.04
488.697	12518.21
488.901	12391.23
489.105	12022.6
489.309	11969.35
489.512	11787.08
489.716	11516.75
489.92	11303.76
490.124	10978.14
490.328	10990.42
490.531	10728.28
490.735	10640.22
490.939	10300.26
491.143	10324.83
491.346	9960.3
491.55	9898.86
491.754	9589.61
491.958	9601.9
492.161	9542.51
492.365	9141.11
492.569	9073.53
492.772	9048.95
492.976	8829.82
493.18	8627.07
493.383	8821.63
493.587	8379.26
493.79	8625.02
493.994	7955.33
494.197	8242.05
494.401	8244.1
494.605	7969.67
494.808	7959.43
495.012	7953.29
495.215	7828.36
495.419	7943.05
495.622	7504.78
495.825	7568.27
496.029	7660.43
496.232	7771.02
496.436	7457.68
496.639	7666.57
496.843	7426.96
497.046	7422.86
497.249	7699.34
497.453	7611.28
497.656	7512.97
497.859	7498.64
498.063	7646.09
498.266	7715.72
498.469	7461.77
498.673	7592.84
498.876	7744.39
499.079	7609.23
499.282	7588.75
499.485	7936.9
499.689	7740.3
499.892	7689.1
500.095	7715.72
500.298	7814.02
500.501	7834.5
500.705	8102.79
500.908	8094.6
501.111	8094.6
501.314	8332.16
501.517	8358.78
501.72	8315.78
501.923	8237.95
502.126	8465.28
502.329	8631.16
502.532	8745.85
502.735	8553.34
502.938	8803.19
503.141	8971.13
503.344	8962.94
503.547	9202.55
503.75	9298.8
503.953	9280.37
504.156	9608.05
504.359	9636.72
504.562	9608.05
504.765	9896.81
504.968	9861.99
505.17	10511.2
505.373	10038.12
505.576	10670.94
505.779	10691.42
505.982	10445.66
506.185	10935.13
506.387	10976.09
506.59	11350.87
506.793	11524.94
506.996	11844.43
507.198	12229.45
507.401	12180.29
507.604	12438.34
507.807	12692.29
508.009	12768.06
508.212	13146.94
508.415	13235
508.617	13523.76
508.82	13687.6
509.022	13861.68
509.225	14310.18
509.428	14703.39
509.63	15010.59
509.833	15221.53
510.035	15852.3
510.238	15739.66
510.44	16149.26
510.643	16720.64
510.845	17144.57
511.048	17302.26
511.25	17677.04
511.453	17838.83
511.655	18842.34
511.858	19061.47
512.06	19518.17
512.262	19688.15
512.465	19974.86
512.667	20454.09
512.87	21009.09
513.072	21420.73
513.274	22201.01
513.477	22839.97
513.679	23255.71
513.881	23540.38
514.084	24269.45
514.286	24400.52
514.488	24957.57
514.69	25787
514.893	26436.2
515.095	26503.79
515.297	27343.45
515.499	27550.3
515.701	28723.79
515.904	29170.24
516.106	29874.74
516.308	30110.26
516.51	30808.62
516.712	31318.56
516.914	32309.78
517.116	32686.61
517.318	33442.31
517.52	33950.2
517.722	33985.02
517.925	35019.24
518.127	35967.45
518.329	36409.81
518.531	36428.24
518.733	37550.53
518.935	37890.49
519.136	38721.97
519.338	39661.99
519.54	39887.26
519.742	40628.63
519.944	40804.75
520.146	41793.92
520.348	42453.37
520.55	42584.44
520.752	43057.52
520.954	44034.4
521.155	43917.67
521.357	44652.89
521.559	45283.66
521.761	45818.18
521.963	45926.72
522.164	46508.35
522.366	46909.75
522.568	47333.68
522.77	47663.4
522.971	48345.37
523.173	48109.86
523.375	48662.81
523.576	48937.24
523.778	49242.38
523.98	49430.8
524.181	49592.59
524.383	49506.57
524.584	50006.28
524.786	49969.41
524.988	50063.62
525.189	50469.12
525.391	50462.97
525.592	50495.74
525.794	50669.82
525.995	50186.5
526.197	50096.39
526.398	50358.53
526.6	50686.2
526.801	50082.05
527.003	50223.36
527.204	49867.02
527.406	49875.21
527.607	49568.01
527.808	49924.36
528.01	48748.82
528.211	48523.55
528.412	49131.79
528.614	48705.82
528.815	48187.68
529.016	48541.98
529.218	47112.5
529.419	47079.73
529.62	46651.7
529.822	46166.34
530.023	45723.97
530.224	45644.1
530.425	44970.32
530.626	44036.45
530.828	43311.47
531.029	44210.53
531.23	43082.09
531.431	42494.33
531.632	42242.43
531.833	42092.93
532.035	41826.69
532.236	40890.77
532.437	40530.33
532.638	39784.86
532.839	39537.06
533.04	39000.49
533.241	37994.94
533.442	38545.84
533.643	38070.72
533.844	36741.58
534.045	37040.59
534.246	35914.2
534.447	35754.46
534.648	34783.73
534.849	34996.71
535.05	34114.04
535.251	33911.29
535.451	33405.44
535.652	33403.39
535.853	32373.27
536.054	32217.62
536.255	31664.67
536.456	31050.28
536.657	31083.05
536.857	30341.68
537.058	29596.22
537.259	30014.01
537.46	29456.96
537.66	28672.59
537.861	28797.51
538.062	27875.93
538.263	27769.43
538.463	27243.1
538.664	27005.54
538.865	26935.91
539.065	26634.86
539.266	25838.2
539.466	25864.82
539.667	25248.38
539.868	25232
540.068	24642.18
540.269	24627.85
540.469	24570.51
540.67	23876.24
540.87	23820.95
541.071	23483.03
541.271	23437.98
541.472	23059.1
541.672	22674.09
541.873	22485.67
542.073	21785.27
542.274	21973.68
542.474	21596.85
542.675	21314.23
542.875	21099.2
543.075	20896.45
543.276	20605.64
543.476	20648.64
543.676	20390.6
543.877	20042.45
544.077	19718.87
544.277	19739.35
544.478	19186.4
544.678	19272.41
544.878	18889.44
545.078	18760.42
545.279	18307.82
545.479	18252.52
545.679	18178.79
545.879	17935.09
546.079	17857.26
546.28	17515.25
546.48	17095.42
546.68	17208.06
546.88	16851.71
547.08	16925.44
547.28	16521.99
547.48	16155.4
547.68	16302.86
547.88	15999.76
548.081	15837.97
548.281	15346.45
548.481	15225.62
548.681	15373.08
548.881	14869.28
549.081	14967.58
549.28	14453.54
549.48	14420.77
549.68	14045.99
549.88	14199.59
550.08	13622.06
550.28	13611.82
550.48	13404.98
550.68	13361.97
550.88	12950.33
551.08	12788.54
551.279	12837.69
551.479	12655.42
551.679	12411.71
551.879	12305.22
552.079	12139.33
552.278	11914.06
552.478	11709.26
552.678	11187.03
552.878	11465.55
553.077	10910.55
553.277	10842.97
553.477	10789.72
553.676	10783.58
553.876	10693.47
554.076	10253.16
554.275	9997.16
554.475	9808.75
554.674	9859.95
554.874	9683.82
555.074	9343.86
555.273	9352.05
555.473	9476.98
555.672	8821.63
555.872	8862.58
556.071	8858.49
556.271	8838.01
556.47	8493.95
556.67	8383.36
556.869	8276.87
557.068	8098.69
557.268	7953.29
557.467	7910.28
557.667	7871.37
557.866	7680.91
558.065	7404.43
558.265	7424.91
558.464	7203.73
558.663	7330.7
558.863	7052.18
559.062	6925.21
559.261	6790.04
559.461	6900.63
559.66	6554.52
559.859	6456.22
560.058	6294.43
560.258	6321.06
560.457	6114.21
560.656	6224.8
560.855	5931.94
561.054	6151.07
561.253	5802.92
561.453	5776.3
561.652	5692.33
561.851	5641.13
562.05	5512.11
562.249	5419.95
562.448	5374.89
562.647	5153.71
562.846	5094.32
563.045	5231.54
563.244	5063.6
563.443	4991.92
563.642	4844.47
563.841	4961.2
564.04	4791.22
564.239	4778.94
564.438	4686.78
564.637	4438.97
564.836	4494.27
565.035	4256.7
565.234	4281.28
565.432	4336.57
565.631	4103.11
565.83	4275.13
566.029	3959.75
566.228	3986.37
566.427	3980.23
566.625	3814.34
566.824	3877.83
567.023	3845.06
567.222	3648.46
567.42	3664.84
567.619	3550.15
567.818	3660.74
568.016	3695.56
568.215	3474.38
568.414	3625.93
568.612	3548.11
568.811	3374.03
569.01	3439.56
569.208	3206.1
569.407	3302.35
569.605	3064.79
569.804	3103.7
570.002	3185.62
570.201	3126.22
570.4	3120.08
570.598	2939.86
570.797	2923.48
570.995	2855.89
571.193	2884.56
571.392	2866.13
571.59	2630.62
571.789	2814.93
571.987	2665.43
572.186	2724.82
572.384	2495.45
572.582	2606.04
572.781	2540.51
572.979	2397.15
573.177	2474.97
573.376	2442.2
573.574	2442.2
573.772	2309.08
573.971	2268.13
574.169	2182.11
574.367	2223.07
574.565	2120.67
574.763	2278.37
574.962	2096.1
575.16	1983.46
575.358	2005.99
575.556	1948.64
575.754	2040.8
575.952	1915.87
576.151	1967.07
576.349	2001.89
576.547	1852.39
576.745	1786.85
576.943	1762.28
577.141	1813.48
577.339	1614.82
577.537	1706.98
577.735	1766.37
577.933	1721.32
578.131	1487.85
578.329	1749.99
578.527	1582.06
578.725	1670.12
578.923	1414.12
579.121	1530.86
579.319	1379.31
579.516	1465.32
579.714	1639.4
579.912	1442.79
580.11	1338.35
580.308	1270.76
580.506	1330.16
580.704	1201.13
580.901	1338.35
581.099	1360.88
581.297	1248.24
581.495	1317.87
581.692	1221.61
581.89	1336.3
582.088	1162.22
582.285	1135.6
582.483	1133.55
582.681	1258.48
582.878	1168.37
583.076	1119.21
583.274	1170.41
583.471	1209.33
583.669	1078.26
583.866	861.17
584.064	1022.96
584.262	982
584.459	936.95
584.657	1016.82
584.854	1018.86
585.052	975.86
585.249	922.61
585.447	1014.77
585.644	797.68
585.841	1010.67
586.039	936.95
586.236	906.23
586.434	898.03
586.631	812.02
586.828	822.26
587.026	889.84
587.223	734.2
587.42	781.3
587.618	848.88
587.815	967.67
588.012	691.19
588.21	758.77
588.407	820.21
588.604	834.55
588.801	775.16
588.999	787.44
589.196	803.83
589.393	656.37
589.59	715.77
589.787	728.05
589.984	752.63
590.182	711.67
590.379	642.04
590.576	703.48
590.773	740.34
590.97	736.24
591.167	652.28
591.364	721.91
591.561	601.08
591.758	830.45
591.955	797.68
592.152	625.65
592.349	627.7
592.546	639.99
592.743	646.13
592.94	627.7
593.137	775.16
593.334	777.2
593.531	746.48
593.727	771.06
593.924	672.76
594.121	705.53
594.318	809.97
594.515	750.58
594.712	908.27
594.908	938.99
595.105	590.84
595.302	721.91
595.499	785.4
595.696	945.14
595.892	707.57
596.089	887.79
596.286	824.31
596.482	895.99
596.679	824.31
596.876	855.03
597.072	979.95
597.269	945.14
597.466	982
597.662	1014.77
597.859	943.09
598.055	994.29
598.252	1115.12
598.448	984.05
598.645	1063.92
598.841	1076.21
599.038	1205.23
599.234	1362.92
599.431	1299.44
599.627	1364.97
599.824	1313.77
600.02	1401.83
600.217	1436.65
600.413	1485.8
600.609	1580.01
600.806	1891.3
601.002	1768.42
601.198	1655.78
601.395	1948.64
601.591	1942.5
601.787	1932.26
601.984	2042.85
602.18	2141.15
602.376	2155.49
602.572	2292.7
602.769	2348
602.965	2513.88
603.161	2556.89
603.357	2687.96
603.553	2708.44
603.75	2667.48
603.946	2849.75
604.142	3023.83
604.338	3046.35
604.534	3148.75
604.73	3224.53
604.926	3277.77
605.122	3488.71
605.318	3496.91
605.514	3763.14
605.71	3779.53
605.906	3883.97
606.102	4170.69
606.298	4203.46
606.494	4248.51
606.69	4426.68
606.886	4604.86
607.082	4510.65
607.278	4674.49
607.474	4844.47
607.67	5131.19
607.866	4942.77
608.062	5438.38
608.257	5479.34
608.453	5434.29
608.649	5895.08
608.845	5858.21
609.041	5970.85
609.236	6167.46
609.432	6359.97
609.628	6628.25
609.824	6814.62
610.019	6839.19
610.215	6998.93
610.411	7523.21
610.606	7562.12
610.802	7611.28
610.998	7963.53
611.193	8096.64
611.389	7992.2
611.584	8565.63
611.78	8700.8
611.976	8967.03
612.171	9145.2
612.367	9401.2
612.562	9540.46
612.758	9694.06
612.953	9900.9
613.149	10427.23
613.344	10539.87
613.539	11055.96
613.735	11193.17
613.93	11643.73
614.126	11623.25
614.321	12129.09
614.517	12397.38
614.712	12749.63
614.907	13212.47
615.103	13624.11
615.298	13687.6
615.493	14093.1
615.688	14168.87
615.884	14922.52
616.079	15213.34
616.274	15446.8
616.47	15907.6
616.665	16247.56
616.86	16585.47
617.055	16984.83
617.25	17443.57
617.445	18152.17
617.641	18217.71
617.836	18754.27
618.031	19038.94
618.226	19819.22
618.421	20404.94
618.616	20939.46
618.811	20589.25
619.006	21543.61
619.201	21881.52
619.396	22434.47
619.591	22479.53
619.786	23921.3
619.981	23806.61
620.176	24312.46
620.371	24636.04
620.566	25522.81
620.761	26174.06
620.956	26339.95
621.151	26634.86
621.346	27388.51
621.541	27601.5
621.735	28789.32
621.93	29110.85
622.125	29741.63
622.32	29475.39
622.515	30521.9
622.709	30853.67
622.904	31547.93
623.099	31732.25
623.294	32961.03
623.488	33298.95
623.683	33815.04
623.878	33780.22
624.072	34666.99
624.267	35168.74
624.462	35322.34
624.656	36102.62
624.851	36624.85
625.046	37351.88
625.24	38027.71
625.435	38195.64
625.629	38900.14
625.824	39463.33
626.018	39938.46
626.213	39567.78
626.407	40384.92
626.602	40559
626.796	41048.46
626.991	41490.82
627.185	42082.69
627.38	42445.18
627.574	42361.21
627.768	42479.99
627.963	42633.59
628.157	42592.63
628.352	43358.57
628.546	42465.66
628.74	43008.37
628.935	42387.83
629.129	43215.21
629.323	42115.45
629.517	42180.99
629.712	41941.38
629.906	41777.54
630.1	40876.43
630.294	41101.71
630.489	40319.38
630.683	39750.05
630.877	38879.66
631.071	38181.31
631.265	37671.36
631.459	36960.72
631.653	36145.62
631.848	35410.4
632.042	34396.66
632.236	33802.75
632.43	32504.34
632.624	32188.95
632.818	30669.36
633.012	29499.97
633.206	28744.27
633.4	28334.67
633.594	26882.66
633.788	26202.74
633.982	25275.01
634.176	24685.19
634.369	23456.41
634.563	22495.91
634.757	21555.9
634.951	21039.81
635.145	20132.56
635.339	19391.19
635.533	18428.65
635.726	18055.92
635.92	17017.6
636.114	16159.5
636.308	15551.25
636.501	15104.79
636.695	14807.84
636.889	13746.99
637.083	13267.77
637.276	12778.3
637.47	12086.09
637.664	11799.37
637.857	11232.08
638.051	10730.33
638.244	10460
638.438	9878.38
638.632	9597.81
638.825	8958.84
639.019	8721.27
639.212	8450.94
639.406	8164.23
639.599	7814.02
639.793	7562.12
639.986	6880.15
640.18	7093.14
640.373	6587.29
640.567	6362.01
640.76	6302.62
640.954	5882.79
641.147	5704.62
641.34	5374.89
641.534	5200.82
641.727	5252.02
641.92	4877.24
642.114	4701.11
642.307	4422.59
642.5	4398.01
642.694	4096.96
642.887	4066.24
643.08	4051.91
643.273	3804.1
643.467	3523.53
643.66	3380.17
643.853	3167.18
644.046	3171.28
644.239	3036.11
644.432	2821.08
644.626	2812.89
644.819	2675.67
645.012	2536.41
645.205	2579.42
645.398	2556.89
645.591	2411.48
645.784	2053.09
645.977	2067.42
646.17	2087.9
646.363	1913.83
646.556	1895.4
646.749	1729.51
646.942	1709.03
647.135	1657.83
647.328	1790.95
647.521	1588.2
647.714	1440.75
647.907	1485.8
648.099	1371.12
648.292	1473.51
648.485	1420.27
648.678	1272.81
648.871	1192.94
649.064	1176.56
649.256	1088.5
649.449	1057.78
649.642	973.81
649.835	990.19
650.027	873.46
650.22	959.47
650.413	908.27
650.605	900.08
650.798	832.5
650.991	783.35
651.183	777.2
651.376	771.06
651.568	855.03
651.761	703.48
651.954	699.38
652.146	639.99
652.339	697.33
652.531	695.29
652.724	615.41
652.916	541.69
653.109	470.01
653.301	723.96
653.494	662.52
653.686	553.98
653.879	623.61
654.071	568.31
654.263	541.69
654.456	416.76
654.648	504.82
654.84	553.98
655.033	418.81
655.225	603.13
655.417	326.65
655.61	517.11
655.802	414.71
655.994	506.87
656.186	338.94
656.379	441.34
656.571	379.9
656.763	330.75
656.955	349.18
657.148	343.03
657.34	523.26
657.532	326.65
657.724	371.71
657.916	314.36
658.108	367.61
658.3	310.27
658.492	410.62
658.684	246.78
658.876	318.46
659.068	130.05
659.26	205.82
659.452	140.29
659.644	345.08
659.836	394.23
660.028	310.27
660.22	173.05
660.412	267.26
660.604	236.54
660.796	224.25
660.988	334.84
661.18	183.29
661.372	273.4
661.563	166.91
661.755	195.58
661.947	56.32
662.139	220.16
662.331	195.58
662.522	230.4
662.714	173.05
662.906	117.76
663.097	189.44
663.289	121.85
663.481	23.55
663.673	175.1
663.864	99.33
664.056	232.44
664.247	115.71
664.439	234.49
664.631	160.77
664.822	158.72
665.014	105.47
665.205	175.1
665.397	80.89
665.588	68.61
665.78	132.09
665.971	224.25
666.163	78.85
666.354	216.06
666.546	70.65
666.737	128
666.929	62.46
667.12	1.02
667.311	144.38
667.503	148.48
667.694	195.58
667.885	154.62
668.077	222.2
668.268	-31.74
668.459	201.72
668.651	109.57
668.842	173.05
669.033	66.56
669.224	52.22
669.416	326.65
669.607	101.37
669.798	111.61
669.989	144.38
670.18	95.23
670.371	144.38
670.563	56.32
670.754	168.96
670.945	199.68
671.136	203.77
671.327	25.6
671.518	115.71
671.709	265.21
671.9	140.29
672.091	164.86
672.282	111.61
672.473	152.57
672.664	60.42
672.855	134.14
673.046	158.72
673.237	211.96
673.428	175.1
673.619	138.24
673.809	101.37
674	205.82
674.191	136.19
674.382	107.52
674.573	87.04
674.764	136.19
674.954	181.25
675.145	125.95
675.336	105.47
675.527	72.7
675.717	80.89
675.908	82.94
676.099	66.56
676.289	52.22
676.48	1.02
676.671	84.99
676.861	9.22
677.052	101.37
677.243	111.61
677.433	58.37
677.624	111.61
677.814	146.43
678.005	76.8
678.195	220.16
678.386	87.04
678.576	117.76
678.767	62.46
678.957	115.71
679.148	123.9
679.338	252.92
679.529	187.39
679.719	91.13
679.909	168.96
680.1	232.44
680.29	189.44
680.481	48.13
680.671	162.81
680.861	132.09
681.052	209.92
681.242	130.05
681.432	89.09
681.622	203.77
681.813	60.42
682.003	146.43
682.193	46.08
682.383	199.68
682.573	78.85
682.764	80.89
682.954	171.01
683.144	214.01
683.334	134.14
683.524	156.67
683.714	181.25
683.904	191.49
684.094	148.48
684.284	173.05
684.474	254.97
684.664	187.39
684.854	216.06
685.044	117.76
685.234	195.58
685.424	162.81
685.614	78.85
685.804	269.31
685.994	175.1
686.184	111.61
686.374	152.57
686.564	134.14
686.753	166.91
686.943	23.55
687.133	144.38
687.323	168.96
687.513	205.82
687.702	97.28
687.892	146.43
688.082	248.83
688.272	226.3
688.461	166.91
688.651	306.17
688.841	132.09
689.03	179.2
689.22	214.01
689.41	144.38
689.599	199.68
689.789	130.05
689.979	193.53
690.168	218.11
690.358	203.77
690.547	121.85
690.737	232.44
690.926	197.63
691.116	166.91
691.305	191.49
691.495	181.25
691.684	103.42
691.874	66.56
692.063	119.81
692.252	171.01
692.442	222.2
692.631	84.99
692.82	48.13
693.01	189.44
693.199	158.72
693.388	199.68
693.578	162.81
693.767	220.16
693.956	259.07
694.146	95.23
694.335	128
694.524	166.91
694.713	175.1
694.902	152.57
695.092	84.99
695.281	191.49
695.47	82.94
695.659	70.65
695.848	171.01
696.037	9.22
696.226	181.25
696.415	109.57
696.604	220.16
696.793	199.68
696.982	87.04
697.171	263.16
697.36	107.52
697.549	205.82
697.738	-27.65
697.927	113.66
698.116	101.37
698.305	302.08
698.494	113.66
698.683	107.52
698.872	277.5
699.061	91.13
699.25	177.15
699.438	179.2
699.627	91.13
699.816	334.84
700.005	31.74
700.193	113.66
700.382	328.7
700.571	113.66
700.76	80.89
700.948	164.86
701.137	179.2
701.326	242.68
701.514	-3.07
701.703	107.52
701.892	189.44
702.08	257.02
702.269	103.42
702.457	84.99
702.646	195.58
702.834	171.01
703.023	144.38
703.212	187.39
703.4	138.24
703.589	166.91
703.777	154.62
703.965	109.57
704.154	82.94
704.342	87.04
704.531	58.37
704.719	158.72
704.907	257.02
705.096	123.9
705.284	109.57
705.472	119.81
705.661	209.92
705.849	240.64
706.037	191.49
706.226	144.38
706.414	162.81
706.602	109.57
706.79	207.87
706.979	89.09
707.167	101.37
707.355	-9.22
707.543	244.73
707.731	181.25
707.919	148.48
708.107	144.38
708.296	64.51
708.484	87.04
708.672	140.29
708.86	197.63
709.048	105.47
709.236	78.85
709.424	295.93
709.612	189.44
709.8	7.17
709.988	183.29
710.176	150.53
710.364	181.25
710.551	107.52
710.739	140.29
710.927	125.95
711.115	158.72
711.303	240.64
711.491	177.15
711.679	150.53
711.866	240.64
712.054	101.37
712.242	148.48
712.43	234.49
712.617	115.71
712.805	275.45
712.993	128
713.181	56.32
713.368	216.06
713.556	74.75
713.744	48.13
713.931	285.69
714.119	168.96
714.306	168.96
714.494	93.18
714.682	168.96
714.869	74.75
715.057	222.2
715.244	-1.02
715.432	95.23
715.619	78.85
715.807	123.9
715.994	95.23
716.182	138.24
716.369	158.72
716.556	181.25
716.744	54.27
716.931	46.08
717.119	168.96
717.306	150.53
717.493	183.29
717.681	144.38
717.868	82.94
718.055	168.96
718.242	162.81
718.43	181.25
718.617	187.39
718.804	164.86
718.991	287.74
719.179	173.05
719.366	193.53
719.553	203.77
719.74	183.29
719.927	197.63
720.114	119.81
720.301	130.05
720.488	138.24
720.676	58.37
720.863	279.55
721.05	244.73
721.237	220.16
721.424	228.35
721.611	162.81
721.798	58.37
721.985	121.85
722.172	89.09
722.358	123.9
722.545	259.07
722.732	181.25
722.919	207.87
723.106	254.97
723.293	189.44
723.48	218.11
723.667	97.28
723.853	269.31
724.04	240.64
724.227	203.77
724.414	97.28
724.6	166.91
724.787	314.36
724.974	291.84
725.161	304.12
725.347	70.65
725.534	140.29
725.72	224.25
725.907	218.11
726.094	226.3
726.28	93.18
726.467	179.2
726.653	140.29
726.84	320.51
727.027	332.79
727.213	164.86
727.4	195.58
727.586	156.67
727.773	148.48
727.959	189.44
728.145	205.82
728.332	162.81
728.518	78.85
728.705	195.58
728.891	168.96
729.077	177.15
729.264	7.17
729.45	158.72
729.636	168.96
729.823	142.33
730.009	175.1
730.195	265.21
730.382	289.79
730.568	101.37
730.754	220.16
730.94	289.79
731.126	185.34
731.313	257.02
731.499	101.37
731.685	263.16
731.871	283.64
732.057	148.48
732.243	261.12
732.429	230.4
732.615	343.03
732.801	214.01
732.987	136.19
733.173	179.2
733.359	187.39
733.545	164.86
733.731	224.25
733.917	308.22
734.103	209.92
734.289	214.01
734.475	107.52
734.661	263.16
734.847	207.87
735.033	173.05
735.219	230.4
735.404	187.39
735.59	183.29
735.776	168.96
735.962	234.49
736.148	246.78
736.333	310.27
736.519	189.44
736.705	216.06
736.89	220.16
737.076	183.29
737.262	197.63
737.447	134.14
737.633	158.72
737.819	265.21
738.004	183.29
738.19	199.68
738.375	185.34
738.561	238.59
738.747	232.44
738.932	132.09
739.118	349.18
739.303	285.69
739.489	240.64
739.674	134.14
739.859	140.29
740.045	273.4
740.23	162.81
740.416	95.23
740.601	283.64
740.786	166.91
740.972	164.86
741.157	222.2
741.342	130.05
741.528	70.65
741.713	300.03
741.898	187.39
742.084	197.63
742.269	183.29
742.454	312.32
742.639	242.68
742.824	187.39
743.01	218.11
743.195	300.03
743.38	175.1
743.565	64.51
743.75	236.54
743.935	254.97
744.12	218.11
744.305	60.42
744.49	119.81
744.675	164.86
744.86	115.71
745.045	166.91
745.23	248.83
745.415	168.96
745.6	287.74
745.785	218.11
745.97	246.78
746.155	195.58
746.34	230.4
746.525	179.2
746.71	269.31
746.895	105.47
747.079	119.81
747.264	168.96
747.449	226.3
747.634	201.72
747.819	246.78
748.003	123.9
748.188	41.98
748.373	222.2
748.557	171.01
748.742	226.3
748.927	205.82
749.111	121.85
749.296	74.75
749.481	160.77
749.665	109.57
749.85	95.23
750.034	177.15
750.219	242.68
750.404	115.71
750.588	138.24
750.773	158.72
750.957	168.96
751.141	158.72
751.326	195.58
751.51	95.23
751.695	156.67
751.879	111.61
752.064	287.74
752.248	136.19
752.432	285.69
752.617	181.25
752.801	109.57
752.985	121.85
753.17	185.34
753.354	179.2
753.538	205.82
753.722	33.79
753.907	128
754.091	52.22
754.275	125.95
754.459	76.8
754.643	-5.12
754.828	138.24
755.012	140.29
755.196	78.85
755.38	164.86
755.564	91.13
755.748	185.34
755.932	211.96
756.116	232.44
756.3	199.68
756.484	166.91
756.668	166.91
756.852	29.7
757.036	101.37
757.22	113.66
757.404	82.94
757.588	13.31
757.772	66.56
757.956	95.23
758.14	310.27
758.323	68.61
758.507	103.42
758.691	99.33
758.875	168.96
759.059	144.38
759.242	99.33
759.426	130.05
759.61	91.13
759.794	58.37
759.977	171.01
760.161	318.46
760.345	224.25
760.528	166.91
760.712	109.57
760.895	130.05
761.079	119.81
761.263	-29.7
761.446	23.55
761.63	150.53
761.813	156.67
761.997	-66.56
762.18	125.95
762.364	207.87
762.547	13.31
762.731	89.09
762.914	103.42
763.098	82.94
763.281	31.74
763.464	82.94
763.648	99.33
763.831	87.04
764.015	66.56
764.198	205.82
764.381	103.42
764.564	168.96
764.748	72.7
764.931	56.32
765.114	125.95
765.297	130.05
765.481	19.46
765.664	91.13
765.847	74.75
766.03	128
766.213	33.79
766.397	87.04
766.58	-5.12
766.763	154.62
766.946	7.17
767.129	87.04
767.312	29.7
767.495	115.71
767.678	13.31
767.861	97.28
768.044	148.48
768.227	48.13
768.41	52.22
768.593	80.89
768.776	130.05
768.959	39.94
769.142	177.15
769.324	37.89
769.507	19.46
769.69	56.32
769.873	48.13
770.056	246.78
770.239	-33.79
770.421	160.77
770.604	54.27
770.787	130.05
770.97	37.89
771.152	9.22
771.335	76.8
771.518	17.41
771.7	146.43
771.883	191.49
772.066	25.6
772.248	99.33
772.431	95.23
772.613	130.05
772.796	35.84
772.978	115.71
773.161	162.81
773.343	87.04
773.526	89.09
773.708	3.07
773.891	-54.27
774.073	76.8
774.256	68.61
774.438	193.53
774.621	3.07
774.803	78.85
774.985	33.79
775.168	146.43
775.35	52.22
775.532	115.71
775.715	25.6
775.897	132.09
776.079	-39.94
776.261	35.84
776.444	107.52
776.626	138.24
776.808	48.13
776.99	-68.61
777.173	130.05
777.355	54.27
777.537	138.24
777.719	82.94
777.901	91.13
778.083	5.12
778.265	64.51
778.447	84.99
778.629	-15.36
778.811	168.96
778.993	162.81
779.175	117.76
779.357	37.89
779.539	-3.07
779.721	15.36
779.903	56.32
780.085	7.17
780.267	15.36
780.449	60.42
780.631	105.47
780.812	58.37
780.994	15.36
781.176	80.89
781.358	95.23
781.54	39.94
781.721	70.65
781.903	62.46
782.085	84.99
782.267	78.85
782.448	-11.26
782.63	-1.02
782.812	66.56
782.993	95.23
783.175	138.24
783.357	17.41
783.538	17.41
783.72	-11.26
783.901	87.04
784.083	82.94
784.264	15.36
784.446	-31.74
784.627	-48.13
784.809	95.23
784.99	-1.02
785.172	46.08
785.353	-37.89
785.535	60.42
785.716	54.27
785.897	-41.98
786.079	46.08
786.26	23.55
786.441	68.61
786.623	-33.79
786.804	11.26
786.985	44.03
787.167	105.47
787.348	29.7
787.529	-5.12
787.71	185.34
787.891	74.75
788.073	54.27
788.254	-60.42
788.435	187.39
788.616	52.22
788.797	-9.22
788.978	17.41
789.159	17.41
789.34	93.18
789.522	-31.74
789.703	9.22
789.884	13.31
790.065	177.15
790.246	183.29
790.427	35.84
790.607	97.28
790.788	74.75
790.969	-33.79
791.15	60.42
791.331	-50.18
791.512	13.31
791.693	-64.51
791.874	29.7
792.054	187.39
792.235	99.33
792.416	-35.84
792.597	-68.61
792.778	66.56
792.958	56.32
793.139	37.89
793.32	17.41
793.5	-27.65
793.681	156.67
793.862	5.12
794.042	-31.74
794.223	-138.24
794.404	17.41
794.584	-78.85
794.765	-52.22
794.945	72.7
795.126	93.18
795.306	80.89
795.487	-60.42
795.667	9.22
795.848	84.99
796.028	29.7
796.209	1.02
796.389	41.98
796.57	50.18
796.75	-25.6
796.93	9.22
797.111	-17.41
797.291	5.12
797.471	115.71
797.652	-3.07
797.832	-39.94
798.012	99.33
798.192	-44.03
798.373	-125.95
798.553	27.65
798.733	91.13
798.913	-7.17
799.093	-9.22
799.274	17.41
799.454	33.79
799.634	78.85
799.814	72.7
799.994	17.41
800.174	35.84
800.354	46.08
800.534	-44.03
800.714	41.98
800.894	-1.02
801.074	-62.46
801.254	-27.65
801.434	119.81
801.614	-46.08
801.794	-60.42
801.974	1856.48
802.154	-46.08
802.334	140.29
802.514	-39.94
802.693	87.04
802.873	-23.55
803.053	107.52
803.233	17.41
803.413	1.02
803.592	-76.8
803.772	31.74
803.952	3.07
804.131	-117.76
804.311	44.03
804.491	134.14
804.67	-48.13
804.85	-60.42
805.03	-13.31
805.209	111.61
805.389	33.79
805.568	-5.12
805.748	82.94
805.928	17.41
806.107	48.13
806.287	56.32
806.466	156.67
806.646	15.36
806.825	-25.6
807.004	15.36
807.184	48.13
807.363	27.65
807.543	-17.41
807.722	-54.27
807.901	66.56
808.081	148.48
808.26	-87.04
808.439	9.22
808.619	-37.89
808.798	-68.61
808.977	-27.65
809.156	31.74
809.336	50.18
809.515	101.37
809.694	-64.51
809.873	-103.42
810.052	78.85
810.231	89.09
810.411	-21.5
810.59	121.85
810.769	-35.84
810.948	35.84
811.127	-148.48
811.306	46.08
811.485	-15.36
811.664	148.48
811.843	19.46
812.022	-19.46
812.201	-23.55
812.38	-7.17
812.559	-54.27
812.737	-9.22
812.916	-50.18
813.095	39.94
813.274	35.84
813.453	-27.65
813.632	50.18
813.811	99.33
813.989	-181.25
814.168	52.22
814.347	-33.79
814.526	35.84
814.704	123.9
814.883	50.18
815.062	-72.7
815.24	76.8
815.419	-80.89
815.598	5.12
815.776	-107.52
815.955	-62.46
816.133	-158.72
816.312	82.94
816.49	-58.37
816.669	31.74
816.847	-52.22
817.026	82.94
817.204	23.55
817.383	21.5
817.561	-29.7
817.74	1.02
817.918	15.36
818.097	54.27
818.275	5.12
818.453	-13.31
818.632	97.28
818.81	3.07
818.988	-78.85
819.167	-31.74
819.345	-31.74
819.523	52.22
819.701	-3.07
819.879	74.75
820.058	50.18
820.236	-7.17
820.414	5.12
820.592	-21.5
820.77	17.41
820.948	-21.5
821.127	-99.33
821.305	37.89
821.483	-82.94
821.661	46.08
821.839	35.84
822.017	-52.22
822.195	7.17
822.373	64.51
822.551	39.94
822.729	74.75
822.907	-1.02
823.085	72.7
823.262	-37.89
823.44	-15.36
823.618	-95.23
823.796	9.22
823.974	37.89
824.152	-72.7
824.329	-7.17
824.507	7.17
824.685	62.46
824.863	-9.22
825.04	29.7
825.218	99.33
825.396	17.41
825.574	58.37
825.751	-3.07
825.929	39.94
826.107	-66.56
826.284	-3.07
826.462	29.7
826.639	-5.12
826.817	-82.94
826.994	15.36
827.172	-134.14
827.349	111.61
827.527	13.31
827.704	17.41
827.882	-3.07
828.059	-7.17
828.237	-41.98
828.414	50.18
828.591	-140.29
828.769	5.12
828.946	-64.51
829.124	58.37
829.301	123.9
829.478	-37.89
829.655	60.42
829.833	-50.18
830.01	-107.52
830.187	105.47
830.364	-7.17
830.542	48.13
830.719	144.38
830.896	60.42
831.073	62.46
831.25	9.22
831.427	54.27
831.604	52.22
831.782	-41.98
831.959	68.61
832.136	103.42
832.313	-5.12
832.49	-62.46
832.667	70.65
832.844	11.26
833.021	72.7
833.198	3.07
833.374	37.89
833.551	41.98
833.728	-29.7
833.905	19.46
834.082	-89.09
834.259	58.37
834.436	76.8
834.612	-103.42
834.789	25.6
834.966	115.71
835.143	-19.46
835.319	-117.76
835.496	62.46
835.673	15.36
835.85	78.85
836.026	19.46
836.203	64.51
836.38	-23.55
836.556	33.79
836.733	-74.75
836.909	41.98
837.086	-17.41
837.262	-74.75
837.439	-74.75
837.616	13.31
837.792	13.31
837.968	9.22
838.145	-115.71
838.321	-29.7
838.498	-13.31
838.674	21.5
838.851	-15.36
839.027	-1.02
839.203	7.17
839.38	-5.12
839.556	-72.7
839.732	70.65
839.909	66.56
840.085	1.02
840.261	-60.42
840.437	87.04
840.614	-21.5
840.79	44.03
840.966	52.22
841.142	89.09
841.318	-37.89
841.494	44.03
841.671	99.33
841.847	-132.09
842.023	-91.13
842.199	78.85
842.375	64.51
842.551	-113.66
842.727	-70.65
842.903	91.13
843.079	-64.51
843.255	99.33
843.431	-23.55
843.607	33.79
843.783	-115.71
843.959	23.55
844.134	-33.79
844.31	78.85
844.486	-68.61
844.662	-52.22
844.838	-11.26
845.013	-21.5
845.189	78.85
845.365	33.79
845.541	-25.6
845.716	-31.74
845.892	62.46
846.068	52.22
846.244	-52.22
846.419	-44.03
846.595	-25.6
846.77	-9.22
846.946	-41.98
847.122	5.12
847.297	-27.65
847.473	95.23
847.648	-181.25
847.824	46.08
847.999	-62.46
848.175	5.12
848.35	31.74
848.526	136.19
848.701	74.75
848.876	62.46
849.052	99.33
849.227	-44.03
849.403	1.02
849.578	11.26
849.753	-37.89
849.929	89.09
850.104	-29.7
850.279	48.13
850.454	-15.36
850.63	56.32
850.805	13.31
850.98	-52.22
851.155	-33.79
851.33	60.42
851.505	-37.89
851.681	95.23
851.856	-21.5
852.031	68.61
852.206	35.84
852.381	-84.99
852.556	-19.46
852.731	74.75
852.906	44.03
853.081	64.51
853.256	78.85
853.431	-56.32
853.606	-41.98
853.781	15.36
853.956	-119.81
854.131	50.18
854.305	-54.27
854.48	-35.84
854.655	-37.89
854.83	-84.99
855.005	-31.74
855.18	-17.41
855.354	48.13
855.529	99.33
855.704	-9.22
855.879	109.57
856.053	-105.47
856.228	-44.03
856.403	-72.7
856.577	48.13
856.752	-76.8
856.926	-39.94
857.101	68.61
857.276	-70.65
857.45	50.18
857.625	119.81
857.799	-19.46
857.974	-25.6
858.148	-60.42
858.323	23.55
858.497	-41.98
858.672	35.84
858.846	31.74
859.02	7.17
859.195	-33.79
859.369	-33.79
859.543	-3.07
859.718	-74.75
859.892	52.22
860.066	15.36
860.241	-27.65
860.415	-80.89
860.589	-39.94
860.763	-76.8
860.938	-13.31
861.112	25.6
861.286	37.89
861.46	1.02
861.634	-37.89
861.808	84.99
861.982	-21.5
862.157	-87.04
862.331	41.98
862.505	-37.89
862.679	-117.76
862.853	-52.22
863.027	-3.07
863.201	64.51
863.375	1.02
863.549	91.13
863.722	48.13
863.896	17.41
864.07	3.07
864.244	-52.22
864.418	13.31
864.592	13.31
864.766	19.46
864.939	17.41
865.113	-17.41
865.287	31.74
865.461	-56.32
865.634	58.37
865.808	-64.51
865.982	-95.23
866.156	-52.22
866.329	-70.65
866.503	50.18
866.676	37.89
866.85	13.31
867.024	-29.7
867.197	46.08
867.371	-41.98
867.544	13.31
867.718	-78.85
867.891	66.56
868.065	-82.94
868.238	-37.89
868.412	64.51
868.585	13.31
868.759	-9.22
868.932	-48.13
869.105	-107.52
869.279	21.5
869.452	-91.13
869.625	11.26
869.799	-54.27
869.972	-41.98
870.145	-50.18
870.319	142.33
870.492	-33.79
870.665	44.03
870.838	-48.13
871.011	-152.57
871.185	5.12
871.358	-39.94
871.531	-82.94
871.704	-48.13
871.877	33.79
872.05	-101.37
872.223	-64.51
872.396	21.5
872.569	1.02
872.742	-115.71
872.915	9.22
873.088	-7.17
873.261	13.31
873.434	54.27
873.607	-50.18
873.78	80.89
873.953	-115.71
874.126	-35.84
874.299	37.89
874.471	-33.79
874.644	-39.94
874.817	23.55
874.99	128
875.163	15.36
875.335	56.32
875.508	64.51
875.681	74.75
875.853	-125.95
876.026	13.31
876.199	41.98
876.371	-17.41
876.544	-11.26
876.717	9.22
876.889	-15.36
877.062	-21.5
877.234	-66.56
877.407	-82.94
877.579	46.08
877.752	-62.46
877.924	-60.42
878.097	103.42
878.269	29.7
878.442	-64.51
878.614	23.55
878.786	74.75
878.959	1.02
879.131	7.17
879.303	-64.51
879.476	1.02
879.648	50.18
879.82	29.7
879.993	-117.76
880.165	-3.07
880.337	-117.76
880.509	31.74
880.681	-121.85
880.854	52.22
881.026	41.98
881.198	222.2
881.37	19.46
881.542	9.22
881.714	11.26
881.886	-11.26
882.058	35.84
882.23	21.5
882.402	-41.98
882.574	-19.46
882.746	15.36
882.918	128
883.09	-17.41
883.262	-58.37
883.434	29.7
883.606	-66.56
883.778	-44.03
883.95	105.47
884.122	44.03
884.293	87.04
884.465	-1.02
884.637	109.57
884.809	-46.08
884.98	-3.07
885.152	50.18
885.324	58.37
885.496	-93.18
885.667	-50.18
885.839	-56.32
886.011	142.33
886.182	44.03
886.354	46.08
886.525	50.18
886.697	-27.65
886.869	-9.22
887.04	-25.6
887.212	130.05
887.383	97.28
887.555	46.08
887.726	48.13
887.897	-87.04
888.069	39.94
888.24	74.75
888.412	-64.51
888.583	44.03
888.754	-17.41
888.926	-80.89
889.097	-23.55
889.268	-101.37
889.44	-3.07
889.611	-171.01
889.782	-82.94
889.953	-76.8
890.125	111.61
890.296	-15.36
890.467	-152.57
890.638	-19.46
890.809	23.55
890.98	5.12
891.151	44.03
891.323	93.18
891.494	-11.26
891.665	64.51
891.836	-17.41
892.007	33.79
892.178	-1.02
892.349	7.17
892.52	-64.51
892.691	121.85
892.862	-70.65
893.032	-82.94
893.203	-48.13
893.374	9.22
893.545	105.47
893.716	-117.76
893.887	68.61
894.057	5.12
894.228	1.02
894.399	21.5
894.57	136.19
894.74	-33.79
894.911	74.75
895.082	25.6
895.253	-56.32
895.423	-68.61
895.594	23.55
895.764	33.79
895.935	-103.42
896.106	66.56
896.276	-89.09
896.447	9.22
896.617	-103.42
896.788	-7.17
896.958	-74.75
897.129	-54.27
897.299	-50.18
897.47	162.81
897.64	54.27
897.81	3.07
897.981	9.22
898.151	-78.85
898.322	82.94
898.492	-41.98
898.662	-80.89
898.832	-95.23
899.003	-33.79
899.173	17.41
899.343	-113.66
899.513	-68.61
