Data from USB4F104151__234__11-06-25-225.txt Node

Date: Wed Feb 26 11:06:25 EST 2025
User: louis
Spectrometer: USB4F10415
Trigger mode: 4
Integration Time (sec): 1.000000E-1
Scans to average: 1
Electric dark correction enabled: true
Nonlinearity correction enabled: false
Boxcar width: 0
XAxis mode: Wavelengths
Number of Pixels in Spectrum: 3648
>>>>>Begin Spectral Data<<<<<
178.204	-330.23
178.424	-330.23
178.644	-330.23
178.864	-367.1
179.084	-442.87
179.304	42.5
179.524	-49.66
179.744	13.82
179.964	-18.94
180.184	75.26
180.404	-2.56
180.624	5.63
180.844	-2.56
181.064	-49.66
181.283	11.78
181.503	-80.38
181.723	54.78
181.943	-117.25
182.163	155.13
182.383	-61.95
182.602	22.02
182.822	128.51
183.042	97.79
183.262	-49.66
183.482	-74.24
183.701	-0.51
183.921	54.78
184.141	-14.85
184.361	44.54
184.58	67.07
184.8	75.26
185.02	-45.57
185.239	118.27
185.459	85.5
185.679	157.18
185.898	-123.39
186.118	116.22
186.338	26.11
186.557	136.7
186.777	-80.38
186.997	13.82
187.216	-29.18
187.436	97.79
187.655	95.74
187.875	128.51
188.095	36.35
188.314	108.03
188.534	114.17
188.753	-27.14
188.973	132.61
189.192	208.38
189.412	-57.86
189.631	32.26
189.851	56.83
190.07	151.04
190.29	-55.81
190.509	22.02
190.729	42.5
190.948	73.21
191.168	253.44
191.387	177.66
191.607	71.17
191.826	128.51
192.045	75.26
192.265	32.26
192.484	54.78
192.704	19.97
192.923	-59.9
193.142	196.09
193.362	134.65
193.581	99.84
193.8	38.4
194.02	54.78
194.239	5.63
194.458	79.36
194.678	17.92
194.897	17.92
195.116	65.02
195.335	24.06
195.555	95.74
195.774	-6.66
195.993	134.65
196.212	44.54
196.432	-14.85
196.651	-23.04
196.87	34.3
197.089	220.67
197.308	81.41
197.528	46.59
197.747	-37.38
197.966	38.4
198.185	95.74
198.404	32.26
198.623	89.6
198.842	60.93
199.062	103.93
199.281	99.84
199.5	132.61
199.719	81.41
199.938	97.79
200.157	73.21
200.376	118.27
200.595	93.69
200.814	24.06
201.033	-12.8
201.252	218.62
201.471	40.45
201.69	85.5
201.909	91.65
202.128	116.22
202.347	13.82
202.566	-14.85
202.785	-39.42
203.004	-23.04
203.223	251.39
203.442	19.97
203.661	-64
203.879	75.26
204.098	108.03
204.317	-47.62
204.536	-2.56
204.755	114.17
204.974	101.89
205.193	-8.7
205.411	91.65
205.63	192
205.849	48.64
206.068	44.54
206.287	44.54
206.505	118.27
206.724	-6.66
206.943	22.02
207.162	83.45
207.381	148.99
207.599	52.74
207.818	62.98
208.037	26.11
208.255	15.87
208.474	67.07
208.693	54.78
208.911	32.26
209.13	128.51
209.349	95.74
209.567	65.02
209.786	99.84
210.005	71.17
210.223	75.26
210.442	-123.39
210.661	58.88
210.879	71.17
211.098	24.06
211.316	9.73
211.535	112.13
211.753	71.17
211.972	110.08
212.191	13.82
212.409	30.21
212.628	159.23
212.846	-2.56
213.065	73.21
213.283	144.89
213.502	48.64
213.72	60.93
213.938	13.82
214.157	60.93
214.375	77.31
214.594	30.21
214.812	118.27
215.031	32.26
215.249	30.21
215.467	60.93
215.686	140.8
215.904	87.55
216.122	81.41
216.341	192
216.559	93.69
216.778	54.78
216.996	185.85
217.214	-12.8
217.432	44.54
217.651	3.58
217.869	13.82
218.087	122.37
218.306	-20.99
218.524	13.82
218.742	99.84
218.96	155.13
219.179	79.36
219.397	-14.85
219.615	284.16
219.833	58.88
220.051	7.68
220.27	169.47
220.488	148.99
220.706	50.69
220.924	-16.9
221.142	-23.04
221.36	54.78
221.578	130.56
221.796	77.31
222.015	38.4
222.233	114.17
222.451	161.28
222.669	-6.66
222.887	77.31
223.105	-8.7
223.323	26.11
223.541	-55.81
223.759	157.18
223.977	26.11
224.195	155.13
224.413	81.41
224.631	89.6
224.849	28.16
225.067	196.09
225.285	34.3
225.503	67.07
225.721	-107.01
225.939	13.82
226.157	38.4
226.375	286.2
226.592	-16.9
226.81	71.17
227.028	108.03
227.246	142.85
227.464	97.79
227.682	155.13
227.9	116.22
228.117	99.84
228.335	101.89
228.553	73.21
228.771	26.11
228.989	95.74
229.206	118.27
229.424	42.5
229.642	17.92
229.86	-66.05
230.077	138.75
230.295	75.26
230.513	116.22
230.731	128.51
230.948	142.85
231.166	163.33
231.384	54.78
231.601	3.58
231.819	108.03
232.037	7.68
232.254	19.97
232.472	99.84
232.689	-16.9
232.907	79.36
233.125	54.78
233.342	9.73
233.56	-27.14
233.777	48.64
233.995	99.84
234.213	112.13
234.43	132.61
234.648	69.12
234.865	34.3
235.083	58.88
235.3	65.02
235.518	83.45
235.735	165.37
235.953	93.69
236.17	24.06
236.388	24.06
236.605	91.65
236.822	120.32
237.04	140.8
237.257	44.54
237.475	-39.42
237.692	99.84
237.909	17.92
238.127	34.3
238.344	46.59
238.562	19.97
238.779	50.69
238.996	-43.52
239.214	32.26
239.431	79.36
239.648	28.16
239.865	101.89
240.083	87.55
240.3	42.5
240.517	-107.01
240.735	73.21
240.952	128.51
241.169	85.5
241.386	50.69
241.603	60.93
241.821	-51.71
242.038	108.03
242.255	169.47
242.472	-51.71
242.689	97.79
242.907	95.74
243.124	65.02
243.341	58.88
243.558	-88.57
243.775	-49.66
243.992	-18.94
244.209	54.78
244.426	187.9
244.643	134.65
244.86	28.16
245.078	120.32
245.295	50.69
245.512	54.78
245.729	48.64
245.946	85.5
246.163	48.64
246.38	114.17
246.597	103.93
246.814	1.54
247.031	56.83
247.248	36.35
247.464	77.31
247.681	44.54
247.898	32.26
248.115	85.5
248.332	3.58
248.549	126.46
248.766	189.95
248.983	46.59
249.2	22.02
249.417	118.27
249.633	81.41
249.85	56.83
250.067	34.3
250.284	58.88
250.501	69.12
250.717	110.08
250.934	-23.04
251.151	-27.14
251.368	-14.85
251.585	56.83
251.801	71.17
252.018	-49.66
252.235	108.03
252.451	-27.14
252.668	17.92
252.885	134.65
253.102	58.88
253.318	-10.75
253.535	-10.75
253.752	-0.51
253.968	-6.66
254.185	-2.56
254.401	48.64
254.618	122.37
254.835	5.63
255.051	151.04
255.268	87.55
255.484	134.65
255.701	9.73
255.917	30.21
256.134	30.21
256.351	97.79
256.567	-4.61
256.784	50.69
257	-86.53
257.217	130.56
257.433	142.85
257.65	22.02
257.866	177.66
258.082	-20.99
258.299	-0.51
258.515	7.68
258.732	32.26
258.948	56.83
259.165	28.16
259.381	28.16
259.597	28.16
259.814	44.54
260.03	71.17
260.246	48.64
260.463	91.65
260.679	153.09
260.895	65.02
261.112	155.13
261.328	36.35
261.544	-27.14
261.761	161.28
261.977	13.82
262.193	73.21
262.409	110.08
262.626	56.83
262.842	22.02
263.058	56.83
263.274	120.32
263.49	34.3
263.707	116.22
263.923	91.65
264.139	-72.19
264.355	42.5
264.571	114.17
264.787	140.8
265.004	136.7
265.22	1.54
265.436	-33.28
265.652	44.54
265.868	79.36
266.084	5.63
266.3	15.87
266.516	-49.66
266.732	99.84
266.948	17.92
267.164	54.78
267.38	77.31
267.596	44.54
267.812	120.32
268.028	32.26
268.244	58.88
268.46	50.69
268.676	93.69
268.892	-16.9
269.108	-35.33
269.324	-37.38
269.54	-100.86
269.756	105.98
269.972	-23.04
270.188	69.12
270.403	-64
270.619	30.21
270.835	99.84
271.051	40.45
271.267	1.54
271.483	15.87
271.698	189.95
271.914	69.12
272.13	-14.85
272.346	-2.56
272.562	42.5
272.777	114.17
272.993	-37.38
273.209	-37.38
273.425	138.75
273.64	-78.33
273.856	93.69
274.072	-41.47
274.287	26.11
274.503	105.98
274.719	138.75
274.934	11.78
275.15	-37.38
275.366	58.88
275.581	56.83
275.797	79.36
276.012	19.97
276.228	15.87
276.444	48.64
276.659	132.61
276.875	-6.66
277.09	79.36
277.306	108.03
277.521	60.93
277.737	13.82
277.952	120.32
278.168	83.45
278.383	40.45
278.599	50.69
278.814	118.27
279.03	30.21
279.245	179.71
279.461	34.3
279.676	101.89
279.892	-33.28
280.107	-0.51
280.322	26.11
280.538	87.55
280.753	32.26
280.969	50.69
281.184	-10.75
281.399	275.96
281.615	26.11
281.83	60.93
282.045	-47.62
282.26	-10.75
282.476	11.78
282.691	15.87
282.906	-12.8
283.122	110.08
283.337	3.58
283.552	105.98
283.767	3.58
283.983	110.08
284.198	-4.61
284.413	56.83
284.628	-37.38
284.843	13.82
285.058	81.41
285.274	13.82
285.489	-43.52
285.704	79.36
285.919	3.58
286.134	11.78
286.349	50.69
286.564	48.64
286.779	105.98
286.995	40.45
287.21	-90.62
287.425	54.78
287.64	58.88
287.855	103.93
288.07	-41.47
288.285	71.17
288.5	99.84
288.715	87.55
288.93	48.64
289.145	-16.9
289.36	194.05
289.575	26.11
289.79	108.03
290.004	-27.14
290.219	32.26
290.434	38.4
290.649	48.64
290.864	7.68
291.079	56.83
291.294	50.69
291.509	103.93
291.724	3.58
291.938	38.4
292.153	126.46
292.368	46.59
292.583	71.17
292.798	81.41
293.012	13.82
293.227	69.12
293.442	-53.76
293.657	116.22
293.871	157.18
294.086	67.07
294.301	155.13
294.516	134.65
294.73	60.93
294.945	-12.8
295.16	46.59
295.374	89.6
295.589	58.88
295.804	-10.75
296.018	126.46
296.233	155.13
296.447	65.02
296.662	-20.99
296.877	79.36
297.091	151.04
297.306	85.5
297.52	87.55
297.735	7.68
297.949	-6.66
298.164	71.17
298.378	42.5
298.593	26.11
298.807	-23.04
299.022	26.11
299.236	175.61
299.451	3.58
299.665	17.92
299.88	5.63
300.094	140.8
300.309	83.45
300.523	44.54
300.737	36.35
300.952	163.33
301.166	99.84
301.381	-27.14
301.595	58.88
301.809	118.27
302.024	46.59
302.238	19.97
302.452	167.42
302.667	67.07
302.881	200.19
303.095	97.79
303.309	26.11
303.524	19.97
303.738	73.21
303.952	17.92
304.166	144.89
304.381	-57.86
304.595	146.94
304.809	44.54
305.023	48.64
305.237	19.97
305.452	46.59
305.666	85.5
305.88	112.13
306.094	48.64
306.308	79.36
306.522	56.83
306.736	30.21
306.95	73.21
307.164	79.36
307.379	3.58
307.593	91.65
307.807	110.08
308.021	175.61
308.235	67.07
308.449	-6.66
308.663	91.65
308.877	204.28
309.091	116.22
309.305	62.98
309.519	-59.9
309.733	120.32
309.947	-27.14
310.161	69.12
310.374	79.36
310.588	171.52
310.802	13.82
311.016	46.59
311.23	136.7
311.444	65.02
311.658	48.64
311.872	151.04
312.085	192
312.299	83.45
312.513	208.38
312.727	32.26
312.941	19.97
313.154	46.59
313.368	71.17
313.582	-10.75
313.796	54.78
314.009	38.4
314.223	136.7
314.437	126.46
314.651	95.74
314.864	19.97
315.078	87.55
315.292	-92.67
315.505	62.98
315.719	81.41
315.933	26.11
316.146	-25.09
316.36	-18.94
316.573	122.37
316.787	56.83
317.001	93.69
317.214	-86.53
317.428	69.12
317.641	9.73
317.855	-10.75
318.068	108.03
318.282	75.26
318.495	208.38
318.709	71.17
318.922	26.11
319.136	142.85
319.349	97.79
319.563	-43.52
319.776	157.18
319.99	-113.15
320.203	124.41
320.417	44.54
320.63	65.02
320.843	130.56
321.057	112.13
321.27	83.45
321.483	144.89
321.697	116.22
321.91	142.85
322.124	85.5
322.337	169.47
322.55	-4.61
322.763	91.65
322.977	9.73
323.19	99.84
323.403	-0.51
323.617	99.84
323.83	22.02
324.043	44.54
324.256	28.16
324.469	5.63
324.683	114.17
324.896	-27.14
325.109	46.59
325.322	-4.61
325.535	79.36
325.748	110.08
325.962	-14.85
326.175	48.64
326.388	89.6
326.601	91.65
326.814	9.73
327.027	62.98
327.24	112.13
327.453	-133.63
327.666	24.06
327.879	136.7
328.092	177.66
328.305	89.6
328.518	13.82
328.731	3.58
328.944	65.02
329.157	69.12
329.37	17.92
329.583	206.33
329.796	130.56
330.009	-74.24
330.222	24.06
330.435	42.5
330.648	26.11
330.861	112.13
331.073	19.97
331.286	103.93
331.499	56.83
331.712	-53.76
331.925	54.78
332.138	85.5
332.35	60.93
332.563	-49.66
332.776	157.18
332.989	-4.61
333.202	-18.94
333.414	13.82
333.627	93.69
333.84	-2.56
334.053	79.36
334.265	11.78
334.478	103.93
334.691	7.68
334.903	110.08
335.116	-47.62
335.329	28.16
335.541	75.26
335.754	157.18
335.966	22.02
336.179	36.35
336.392	-16.9
336.604	-76.29
336.817	120.32
337.029	67.07
337.242	73.21
337.454	48.64
337.667	91.65
337.88	120.32
338.092	136.7
338.305	103.93
338.517	46.59
338.729	77.31
338.942	206.33
339.154	-23.04
339.367	-96.77
339.579	89.6
339.792	-6.66
340.004	67.07
340.217	32.26
340.429	52.74
340.641	7.68
340.854	-55.81
341.066	-4.61
341.278	142.85
341.491	173.57
341.703	97.79
341.915	42.5
342.128	81.41
342.34	48.64
342.552	1.54
342.764	54.78
342.977	5.63
343.189	95.74
343.401	42.5
343.613	-47.62
343.826	-25.09
344.038	9.73
344.25	134.65
344.462	46.59
344.674	128.51
344.886	91.65
345.099	118.27
345.311	130.56
345.523	50.69
345.735	-12.8
345.947	120.32
346.159	89.6
346.371	30.21
346.583	-23.04
346.795	183.81
347.007	13.82
347.219	62.98
347.431	38.4
347.643	196.09
347.855	1.54
348.067	228.86
348.279	9.73
348.491	44.54
348.703	126.46
348.915	7.68
349.127	-31.23
349.339	77.31
349.551	-43.52
349.763	97.79
349.975	89.6
350.187	169.47
350.399	175.61
350.61	114.17
350.822	-45.57
351.034	108.03
351.246	73.21
351.458	56.83
351.669	38.4
351.881	40.45
352.093	122.37
352.305	136.7
352.517	81.41
352.728	89.6
352.94	44.54
353.152	108.03
353.363	-64
353.575	118.27
353.787	198.14
353.999	48.64
354.21	169.47
354.422	30.21
354.633	22.02
354.845	87.55
355.057	95.74
355.268	-49.66
355.48	183.81
355.692	26.11
355.903	9.73
356.115	-35.33
356.326	-31.23
356.538	97.79
356.749	36.35
356.961	148.99
357.172	79.36
357.384	13.82
357.595	261.63
357.807	11.78
358.018	1.54
358.23	69.12
358.441	216.57
358.653	110.08
358.864	65.02
359.075	-43.52
359.287	130.56
359.498	105.98
359.709	75.26
359.921	77.31
360.132	71.17
360.344	62.98
360.555	40.45
360.766	62.98
360.977	99.84
361.189	101.89
361.4	67.07
361.611	97.79
361.823	169.47
362.034	93.69
362.245	-139.77
362.456	54.78
362.667	116.22
362.879	-47.62
363.09	105.98
363.301	79.36
363.512	42.5
363.723	40.45
363.935	58.88
364.146	124.41
364.357	114.17
364.568	112.13
364.779	-64
364.99	210.43
365.201	1.54
365.412	173.57
365.623	-57.86
365.834	87.55
366.045	46.59
366.256	177.66
366.467	93.69
366.678	3.58
366.889	105.98
367.1	-0.51
367.311	175.61
367.522	62.98
367.733	132.61
367.944	101.89
368.155	30.21
368.366	165.37
368.577	189.95
368.788	67.07
368.999	17.92
369.209	99.84
369.42	216.57
369.631	153.09
369.842	99.84
370.053	69.12
370.264	110.08
370.474	-29.18
370.685	65.02
370.896	5.63
371.107	105.98
371.317	112.13
371.528	54.78
371.739	181.76
371.95	67.07
372.16	101.89
372.371	-2.56
372.582	36.35
372.792	36.35
373.003	69.12
373.214	62.98
373.424	44.54
373.635	26.11
373.846	220.67
374.056	-14.85
374.267	69.12
374.477	46.59
374.688	30.21
374.898	142.85
375.109	95.74
375.319	87.55
375.53	91.65
375.74	93.69
375.951	-12.8
376.161	54.78
376.372	60.93
376.582	73.21
376.793	187.9
377.003	124.41
377.214	26.11
377.424	58.88
377.635	62.98
377.845	-0.51
378.055	126.46
378.266	-43.52
378.476	71.17
378.686	24.06
378.897	99.84
379.107	196.09
379.317	134.65
379.528	26.11
379.738	128.51
379.948	44.54
380.158	71.17
380.369	77.31
380.579	103.93
380.789	130.56
380.999	99.84
381.21	136.7
381.42	230.91
381.63	73.21
381.84	114.17
382.05	48.64
382.261	161.28
382.471	222.72
382.681	-12.8
382.891	177.66
383.101	134.65
383.311	-92.67
383.521	54.78
383.731	116.22
383.941	89.6
384.151	79.36
384.361	65.02
384.571	46.59
384.781	116.22
384.991	140.8
385.201	208.38
385.411	148.99
385.621	134.65
385.831	56.83
386.041	24.06
386.251	9.73
386.461	132.61
386.671	9.73
386.881	38.4
387.091	52.74
387.301	105.98
387.511	81.41
387.72	144.89
387.93	91.65
388.14	7.68
388.35	85.5
388.56	165.37
388.769	83.45
388.979	62.98
389.189	44.54
389.399	77.31
389.609	163.33
389.818	83.45
390.028	69.12
390.238	103.93
390.447	-12.8
390.657	99.84
390.867	-23.04
391.076	-59.9
391.286	126.46
391.496	91.65
391.705	5.63
391.915	142.85
392.125	128.51
392.334	85.5
392.544	173.57
392.753	65.02
392.963	-16.9
393.172	120.32
393.382	36.35
393.591	228.86
393.801	34.3
394.01	177.66
394.22	198.14
394.429	48.64
394.639	75.26
394.848	93.69
395.058	36.35
395.267	15.87
395.477	159.23
395.686	75.26
395.895	208.38
396.105	140.8
396.314	146.94
396.524	120.32
396.733	60.93
396.942	189.95
397.152	179.71
397.361	103.93
397.57	95.74
397.78	-8.7
397.989	34.3
398.198	232.96
398.407	34.3
398.617	155.13
398.826	67.07
399.035	-14.85
399.244	124.41
399.453	50.69
399.663	95.74
399.872	67.07
400.081	24.06
400.29	157.18
400.499	24.06
400.708	101.89
400.917	11.78
401.127	40.45
401.336	9.73
401.545	177.66
401.754	105.98
401.963	-20.99
402.172	7.68
402.381	-47.62
402.59	32.26
402.799	9.73
403.008	241.15
403.217	17.92
403.426	99.84
403.635	-78.33
403.844	-27.14
404.053	-45.57
404.262	62.98
404.471	151.04
404.68	19.97
404.888	73.21
405.097	56.83
405.306	67.07
405.515	118.27
405.724	44.54
405.933	95.74
406.142	60.93
406.35	126.46
406.559	17.92
406.768	50.69
406.977	212.48
407.185	97.79
407.394	108.03
407.603	-57.86
407.812	146.94
408.02	144.89
408.229	19.97
408.438	97.79
408.646	9.73
408.855	124.41
409.064	130.56
409.272	65.02
409.481	85.5
409.69	46.59
409.898	11.78
410.107	22.02
410.315	126.46
410.524	52.74
410.733	93.69
410.941	62.98
411.15	116.22
411.358	69.12
411.567	208.38
411.775	67.07
411.984	136.7
412.192	132.61
412.401	60.93
412.609	171.52
412.818	224.76
413.026	83.45
413.234	40.45
413.443	46.59
413.651	13.82
413.86	22.02
414.068	157.18
414.276	155.13
414.485	97.79
414.693	243.2
414.901	235
415.11	75.26
415.318	144.89
415.526	56.83
415.734	157.18
415.943	122.37
416.151	114.17
416.359	85.5
416.567	89.6
416.776	65.02
416.984	108.03
417.192	128.51
417.4	-18.94
417.608	97.79
417.817	-88.57
418.025	32.26
418.233	126.46
418.441	-2.56
418.649	-23.04
418.857	118.27
419.065	198.14
419.273	28.16
419.481	71.17
419.689	75.26
419.897	-0.51
420.105	-37.38
420.313	169.47
420.521	249.34
420.729	126.46
420.937	-37.38
421.145	30.21
421.353	40.45
421.561	183.81
421.769	77.31
421.977	13.82
422.185	62.98
422.393	38.4
422.601	91.65
422.809	79.36
423.017	62.98
423.224	110.08
423.432	120.32
423.64	91.65
423.848	187.9
424.056	60.93
424.263	99.84
424.471	56.83
424.679	79.36
424.887	11.78
425.094	179.71
425.302	210.43
425.51	75.26
425.718	202.24
425.925	116.22
426.133	1.54
426.341	206.33
426.548	67.07
426.756	60.93
426.964	175.61
427.171	15.87
427.379	42.5
427.586	17.92
427.794	89.6
428.001	216.57
428.209	81.41
428.417	239.1
428.624	146.94
428.832	173.57
429.039	67.07
429.247	67.07
429.454	192
429.662	273.92
429.869	112.13
430.076	116.22
430.284	144.89
430.491	194.05
430.699	218.62
430.906	230.91
431.114	153.09
431.321	167.42
431.528	146.94
431.736	224.76
431.943	208.38
432.15	183.81
432.358	210.43
432.565	302.59
432.772	40.45
432.979	259.58
433.187	128.51
433.394	261.63
433.601	187.9
433.808	310.78
434.016	282.11
434.223	306.68
434.43	226.81
434.637	181.76
434.844	361.98
435.052	284.16
435.259	366.07
435.466	421.37
435.673	316.92
435.88	318.97
436.087	382.46
436.294	343.55
436.501	325.12
436.708	333.31
436.915	441.85
437.122	452.09
437.329	339.45
437.537	353.79
437.743	447.99
437.95	511.48
438.157	404.99
438.364	491
438.571	468.47
438.778	579.06
438.985	626.17
439.192	556.54
439.399	450.04
439.606	579.06
439.813	548.34
440.02	755.19
440.227	703.99
440.433	695.8
440.64	667.13
440.847	601.59
441.054	681.46
441.261	800.24
441.467	763.38
441.674	667.13
441.881	726.52
442.088	792.05
442.294	830.96
442.501	978.42
442.708	914.93
442.914	951.79
443.121	921.07
443.328	1025.52
443.534	1080.82
443.741	1015.28
443.948	941.55
444.154	1205.74
444.361	1248.75
444.568	1183.21
444.774	1230.32
444.981	1121.77
445.187	1381.87
445.394	1340.91
445.6	1383.91
445.807	1486.31
446.013	1490.41
446.22	1500.65
446.426	1549.8
446.633	1744.36
446.839	1891.81
447.046	1615.34
447.252	1963.49
447.459	1857
447.665	1975.78
447.871	2100.7
448.078	2258.4
448.284	2213.34
448.491	2332.12
448.697	2319.84
448.903	2584.02
449.11	2604.5
449.316	2592.22
449.522	2799.06
449.728	2758.1
449.935	2823.64
450.141	2909.65
450.347	3188.18
450.553	3208.66
450.76	3116.5
450.966	3413.45
451.172	3452.36
451.378	3589.58
451.584	3610.06
451.791	4023.75
451.997	3982.79
452.203	4101.57
452.409	4263.36
452.615	4480.44
452.821	4355.52
453.027	4427.2
453.233	5064.11
453.44	4844.98
453.646	4994.48
453.852	5316.01
454.058	5680.55
454.264	5633.45
454.47	6090.15
454.676	6006.18
454.882	6831.51
455.088	6501.79
455.294	6763.93
455.5	7148.95
455.705	7665.04
455.911	7499.15
456.117	7683.47
456.323	8230.27
456.529	8029.57
456.735	8641.92
456.941	8977.78
457.147	9487.73
457.352	9463.15
457.558	9917.8
457.764	10409.31
457.97	10855.77
458.176	11253.08
458.381	11634
458.587	11914.57
458.793	12350.79
458.999	12817.72
459.204	14142.76
459.41	14327.08
459.616	14290.21
459.821	15240.47
460.027	15881.49
460.233	16454.92
460.438	16862.46
460.644	17753.33
460.85	17904.88
461.055	18588.9
461.261	19434.71
461.466	18937.06
461.672	19350.74
461.878	21605.56
462.083	21114.05
462.289	22074.54
462.494	22463.66
462.7	22744.23
462.905	23061.66
463.111	25177.22
463.316	26346.61
463.522	26948.71
463.727	27653.21
463.932	29076.55
464.138	29656.12
464.343	30821.42
464.549	30938.15
464.754	33025.03
464.959	33977.34
465.165	34575.34
465.37	34753.52
465.575	34149.37
465.781	36643.79
465.986	37739.46
466.191	37139.4
466.397	37395.4
466.602	36639.7
466.807	38757.3
467.012	39379.88
467.218	40057.76
467.423	39916.45
467.628	41606.02
467.833	43465.58
468.038	42419.06
468.244	42120.06
468.449	43940.71
468.654	43139.95
468.859	42873.71
469.064	42847.09
469.269	42007.42
469.474	42578.81
469.679	43404.14
469.885	42384.25
470.09	43228.01
470.295	42916.72
470.5	42175.36
470.705	42183.55
470.91	41333.64
471.115	40928.14
471.32	41673.6
471.525	41335.69
471.73	40139.68
471.935	39924.64
472.139	38527.92
472.344	38376.37
472.549	38147
472.754	37413.83
472.959	36813.77
473.164	35673.06
473.369	35073
473.574	35929.05
473.778	35083.24
473.983	34540.53
474.188	34444.27
474.393	32402.45
474.598	32510.99
474.802	31435.81
475.007	31478.82
475.212	30942.25
475.417	29869.11
475.621	29310.02
475.826	29285.44
476.031	28335.18
476.235	27743.32
476.44	28126.29
476.645	26981.48
476.849	27173.99
477.054	26397.81
477.259	25738.36
477.463	25724.02
477.668	24906.88
477.872	25017.47
478.077	24237.2
478.282	23714.97
478.486	23753.88
478.691	23112.86
478.895	23102.62
479.1	22895.78
479.304	22713.51
479.509	22152.37
479.713	22430.89
479.918	21849.27
480.122	21097.66
480.326	21601.46
480.531	21490.87
480.735	21216.44
480.94	20882.63
481.144	21580.98
481.348	20415.69
481.553	20532.42
481.757	20192.46
481.961	20225.23
482.166	20557
482.37	20114.64
482.574	19700.95
482.778	19487.96
482.983	19850.45
483.187	19279.07
483.391	19381.46
483.595	19023.07
483.8	18765.03
484.004	19191
484.208	18588.9
484.412	18724.07
484.616	18382.06
484.821	18207.98
485.025	17708.27
485.229	17904.88
485.433	17315.06
485.637	17411.32
485.841	16979.2
486.045	16803.07
486.249	16545.03
486.453	16217.35
486.657	16196.87
486.861	16059.66
487.065	15404.31
487.269	15492.37
487.473	15015.19
487.677	15250.71
487.881	14959.9
488.085	14542.11
488.289	14597.41
488.493	13976.87
488.697	13890.86
488.901	13888.81
489.105	13284.66
489.309	13169.98
489.512	13403.44
489.716	12772.67
489.92	12471.62
490.124	12428.61
490.328	12483.91
490.531	11769.16
490.735	11963.72
490.939	11803.98
491.143	11115.86
491.346	11177.3
491.55	11101.53
491.754	10945.88
491.958	10743.13
492.161	10685.79
492.365	10472.8
492.569	10241.38
492.772	10108.26
492.976	10079.59
493.18	9889.13
493.383	9944.42
493.587	9760.11
493.79	9600.37
493.994	9526.64
494.197	9334.13
494.401	9239.92
494.605	9346.42
494.808	9112.95
495.012	9012.6
495.215	9149.81
495.419	9008.5
495.622	8797.56
495.825	8881.53
496.029	8867.19
496.232	8799.61
496.436	8748.41
496.639	8998.26
496.843	8695.16
497.046	8781.18
497.249	9139.57
497.453	9031.03
497.656	8924.54
497.859	8947.06
498.063	8838.52
498.266	8961.4
498.469	8940.92
498.673	8914.3
498.876	9129.33
499.079	9094.52
499.282	9198.96
499.485	9624.94
499.689	9215.35
499.892	9389.42
500.095	9059.7
500.298	9414
500.501	9383.28
500.705	9760.11
500.908	9604.46
501.111	9864.55
501.314	9917.8
501.517	10106.21
501.72	10014.06
501.923	10390.88
502.126	10126.69
502.329	10567.01
502.532	10468.7
502.735	10528.1
502.938	10825.05
503.141	11103.57
503.344	11019.61
503.547	11375.95
503.75	11314.52
503.953	11527.5
504.156	11781.45
504.359	11728.21
504.562	12070.22
504.765	12305.73
504.968	12315.97
505.17	12770.62
505.373	12682.56
505.576	13331.76
505.779	13237.56
505.982	13301.05
506.185	13569.33
506.387	13782.32
506.59	14071.08
506.793	14396.71
506.996	14472.48
507.198	15123.74
507.401	15127.83
507.604	15566.1
507.807	15994.12
508.009	16348.42
508.212	16348.42
508.415	16913.66
508.617	17034.49
508.82	17349.88
509.022	17591.54
509.225	18382.06
509.428	18799.84
509.63	18762.98
509.833	19234.01
510.035	20280.52
510.238	20069.58
510.44	20458.7
510.643	21198.01
510.845	21597.37
511.048	21849.27
511.25	22437.03
511.453	23116.96
511.655	23940.24
511.858	24159.38
512.06	24542.35
512.262	24915.08
512.465	25785.46
512.667	26514.54
512.87	26631.27
513.072	27216.99
513.274	28165.2
513.477	28804.17
513.679	29326.4
513.881	30149.68
514.084	30741.55
514.286	31265.83
514.488	31933.46
514.69	32824.33
514.893	33575.94
515.095	33975.29
515.297	34767.85
515.499	35109.86
515.701	36123.61
515.904	36922.32
516.106	37731.26
516.308	38316.98
516.51	39134.12
516.712	39498.66
516.914	40573.84
517.116	41548.68
517.318	42273.66
517.52	42879.86
517.722	43105.13
517.925	44014.43
518.127	45222.73
518.329	45828.93
518.531	45962.05
518.733	47377.2
518.935	48575.26
519.136	48671.51
519.338	49597.2
519.54	50676.47
519.742	50725.63
519.944	51368.69
520.146	52652.76
520.348	53013.21
520.55	53807.82
520.752	54170.31
520.954	55401.14
521.155	55003.83
521.357	55915.18
521.559	56855.2
521.761	57207.45
521.963	57877.13
522.164	58120.84
522.366	58477.19
522.568	58983.04
522.77	59486.84
522.971	60115.56
523.173	59773.55
523.375	60627.55
523.576	60443.24
523.778	60365.41
523.98	61315.67
524.181	61608.53
524.383	61272.67
524.584	62190.16
524.786	62003.79
524.988	61637.2
525.189	62181.96
525.391	62007.89
525.592	62427.72
525.794	62108.24
525.995	62126.67
526.197	61784.66
526.398	62110.28
526.6	62091.85
526.801	61946.45
527.003	62061.13
527.204	61686.35
527.406	61614.68
527.607	61014.62
527.808	61338.2
528.01	59804.27
528.211	60602.98
528.412	60197.48
528.614	59820.66
528.815	59103.87
529.016	59511.41
529.218	58174.09
529.419	58055.31
529.62	57408.15
529.822	56763.04
530.023	56218.28
530.224	56441.51
530.425	55188.15
530.626	54565.57
530.828	53904.07
531.029	54627.01
531.23	53312.21
531.431	52673.24
531.632	52153.06
531.833	51876.58
532.035	51233.52
532.236	50969.33
532.437	50223.87
532.638	49040.15
532.839	48595.74
533.04	48114.47
533.241	47467.31
533.442	47749.93
533.643	46271.29
533.844	45501.26
534.045	45130.58
534.246	44544.86
534.447	43967.33
534.648	43328.36
534.849	43203.44
535.05	42165.12
535.251	41655.17
535.451	41108.36
535.652	41071.5
535.853	40123.29
536.054	39736.23
536.255	39287.72
536.456	38099.9
536.657	38357.94
536.857	37452.74
537.058	37247.94
537.259	36813.77
537.46	36344.79
537.66	35920.86
537.861	35304.42
538.062	34008.06
538.263	34130.94
538.463	33465.35
538.664	33434.63
538.865	33164.29
539.065	32873.48
539.266	32343.06
539.466	32134.17
539.667	31421.47
539.868	31310.88
540.068	30497.84
540.269	30313.52
540.469	30123.06
540.67	29611.07
540.87	29248.58
541.071	28853.32
541.271	28613.71
541.472	28611.66
541.672	27808.86
541.873	27485.28
542.073	27073.63
542.274	26834.02
542.474	26610.79
542.675	26373.23
542.875	26328.17
543.075	25463.93
543.276	25351.29
543.476	25377.92
543.676	24894.6
543.877	24951.94
544.077	24587.4
544.277	24245.39
544.478	23784.6
544.678	23743.64
544.878	23231.65
545.078	23043.23
545.279	22942.88
545.479	22424.75
545.679	22521
545.879	22160.56
546.079	21869.75
546.28	21232.83
546.48	21208.25
546.68	21367.99
546.88	20653.25
547.08	20700.36
547.28	20065.49
547.48	19717.33
547.68	19838.16
547.88	19590.36
548.081	19297.5
548.281	19035.36
548.481	18707.68
548.681	18814.18
548.881	18173.16
549.081	18040.04
549.28	17851.63
549.48	17669.36
549.68	17489.14
549.88	17036.54
550.08	16801.02
550.28	16825.6
550.48	16420.1
550.68	16184.59
550.88	15928.59
551.08	15758.61
551.279	15713.55
551.479	15158.55
551.679	15238.42
551.879	14781.73
552.079	14808.35
552.278	14492.96
552.478	14331.17
552.678	14247.21
552.878	13870.38
553.077	13462.83
553.277	13126.97
553.477	13544.75
553.676	12930.36
553.876	12889.4
554.076	12588.35
554.275	12189
554.475	12025.16
554.674	12145.99
554.874	11781.45
555.074	11654.48
555.273	11408.72
555.473	10956.12
555.672	11056.47
555.872	11013.46
556.071	10765.66
556.271	10808.67
556.47	10487.14
556.67	10089.83
556.869	10151.27
557.068	9971.05
557.268	9743.72
557.467	9543.02
557.667	9461.1
557.866	9418.1
558.065	9201.01
558.265	9090.42
558.464	8797.56
558.663	8852.86
558.863	8490.37
559.062	8615.29
559.261	8297.86
559.461	8394.11
559.66	7931.27
559.859	7867.78
560.058	7787.91
560.258	7693.71
560.457	7691.66
560.656	7658.89
560.855	7191.95
561.054	7163.28
561.253	7200.15
561.453	6806.94
561.652	6819.22
561.851	6956.44
562.05	6602.14
562.249	6516.12
562.448	6501.79
562.647	6374.81
562.846	6329.76
563.045	6393.25
563.244	5952.93
563.443	6067.62
563.642	5842.34
563.841	5803.43
564.04	5772.71
564.239	5602.73
564.438	5633.45
564.637	5363.12
564.836	5428.65
565.035	5303.73
565.234	5473.71
565.432	5057.97
565.631	5164.47
565.83	4939.19
566.029	5092.79
566.228	5002.68
566.427	4902.33
566.625	4580.79
566.824	4810.17
567.023	4654.52
567.222	4607.42
567.42	4556.22
567.619	4431.29
567.818	4361.66
568.016	4500.92
568.215	4189.63
568.414	4228.54
568.612	4156.86
568.811	4099.52
569.01	4036.03
569.208	3857.86
569.407	4142.53
569.605	3929.54
569.804	3786.18
570.002	3806.66
570.201	3802.57
570.4	3823.05
570.598	3626.44
570.797	3495.37
570.995	3358.16
571.193	3458.51
571.392	3378.64
571.59	3282.38
571.789	3284.43
571.987	3263.95
572.186	3263.95
572.384	3202.51
572.582	3216.85
572.781	3259.85
572.979	2921.94
573.177	2921.94
573.376	2862.55
573.574	2983.38
573.772	2954.71
573.971	2862.55
574.169	2754.01
574.367	2651.61
574.565	2618.84
574.763	2557.4
574.962	2696.66
575.16	2536.92
575.358	2541.02
575.556	2440.67
575.754	2452.95
575.952	2268.64
576.151	2422.24
576.349	2303.45
576.547	2223.58
576.745	2328.03
576.943	2299.36
577.141	2223.58
577.339	2094.56
577.537	2115.04
577.735	2156
577.933	2063.84
578.131	1977.83
578.329	2186.72
578.527	1881.57
578.725	2035.17
578.923	1883.62
579.121	1945.06
579.319	1664.49
579.516	1783.27
579.714	1938.91
579.912	1760.74
580.11	1707.49
580.308	1564.14
580.506	1693.16
580.704	1584.62
580.901	1547.75
581.099	1852.9
581.297	1537.51
581.495	1723.88
581.692	1521.13
581.89	1658.34
582.088	1512.94
582.285	1490.41
582.483	1555.94
582.681	1459.69
582.878	1369.58
583.076	1377.77
583.274	1367.53
583.471	1637.86
583.669	1410.54
583.866	1279.47
584.064	1232.37
584.262	1183.21
584.459	1197.55
584.657	1304.04
584.854	1289.71
585.052	1215.98
585.249	1304.04
585.447	1201.65
585.644	1107.44
585.841	1172.97
586.039	1242.61
586.236	1226.22
586.434	1113.58
586.631	1031.66
586.828	990.7
587.026	1103.34
587.223	994.8
587.42	988.66
587.618	1095.15
587.815	1060.34
588.012	1013.23
588.21	986.61
588.407	1017.33
588.604	1031.66
588.801	910.83
588.999	949.75
589.196	1021.42
589.393	935.41
589.59	861.68
589.787	959.99
589.984	962.03
590.182	910.83
590.379	880.11
590.576	945.65
590.773	949.75
590.97	867.83
591.167	921.07
591.364	818.68
591.561	847.35
591.758	959.99
591.955	863.73
592.152	822.77
592.349	792.05
592.546	816.63
592.743	798.2
592.94	822.77
593.137	937.46
593.334	927.22
593.531	951.79
593.727	902.64
593.924	859.63
594.121	800.24
594.318	826.87
594.515	955.89
594.712	1021.42
594.908	1023.47
595.105	787.96
595.302	986.61
595.499	1027.57
595.696	1076.72
595.892	921.07
596.089	990.7
596.286	916.98
596.482	1013.23
596.679	931.31
596.876	1035.76
597.072	1080.82
597.269	1107.44
597.466	1074.67
597.662	1166.83
597.859	1187.31
598.055	1172.97
598.252	1302
598.448	1488.36
598.645	1375.72
598.841	1371.63
599.038	1549.8
599.234	1605.1
599.431	1613.29
599.627	1560.04
599.824	1703.4
600.02	1707.49
600.217	1857
600.413	1891.81
600.609	1881.57
600.806	2196.96
601.002	2006.5
601.198	2020.83
601.395	2289.12
601.591	2244.06
601.787	2457.05
601.984	2489.82
602.18	2690.52
602.376	2696.66
602.572	2846.16
602.769	2858.45
602.965	2885.08
603.161	3161.55
603.357	3268.05
603.553	3360.2
603.75	3329.49
603.946	3466.7
604.142	3591.63
604.338	3872.2
604.534	3829.19
604.73	3962.31
604.926	4105.67
605.122	4402.62
605.318	4312.51
605.514	4466.11
605.71	4582.84
605.906	4709.82
606.102	5002.68
606.298	5135.79
606.494	5277.1
606.69	5426.61
606.886	5432.75
607.082	5471.66
607.278	5823.91
607.474	5948.84
607.67	6188.45
607.866	6268.32
608.062	6725.02
608.257	6729.11
608.453	6909.33
608.649	7144.85
608.845	7128.47
609.041	7380.37
609.236	7779.72
609.432	7880.07
609.628	8066.44
609.824	8392.06
610.019	8465.79
610.215	8574.33
610.411	9108.85
610.606	9221.49
610.802	9481.58
610.998	9737.58
611.193	10081.64
611.389	10063.21
611.584	10517.86
611.78	10507.62
611.976	11128.15
612.171	11513.17
612.367	11791.69
612.562	11973.96
612.758	12113.22
612.953	12465.47
613.149	12973.37
613.344	13292.85
613.539	13821.23
613.735	13931.82
613.93	14507.3
614.126	14705.95
614.321	15090.97
614.517	15482.13
614.712	15742.22
614.907	16059.66
615.103	16962.81
615.298	17044.73
615.493	17659.12
615.688	17872.11
615.884	18545.89
616.079	18775.27
616.274	19674.32
616.47	19723.48
616.665	20352.2
616.86	21042.37
617.055	21355.71
617.25	22045.87
617.445	22455.47
617.641	22883.49
617.836	23737.49
618.031	23778.45
618.226	24558.73
618.421	25228.42
618.616	26143.86
618.811	26262.64
619.006	27266.14
619.201	27268.19
619.396	28128.34
619.591	28824.65
619.786	29652.03
619.981	29965.37
620.176	30780.46
620.371	30862.38
620.566	32130.07
620.761	32488.46
620.956	33606.66
621.151	33688.57
621.346	34915.31
621.541	34546.67
621.735	36494.29
621.93	36131.8
622.125	37039.05
622.32	37325.77
622.515	38548.4
622.709	39332.78
622.904	39873.44
623.099	40321.94
623.294	41173.9
623.488	41776
623.683	42320.76
623.878	42591.09
624.072	43963.23
624.267	44647.25
624.462	44931.92
624.656	45536.07
624.851	46650.17
625.046	47043.38
625.24	47721.26
625.435	48329.5
625.629	49050.39
625.824	49586.96
626.018	50373.38
626.213	50137.86
626.407	51475.18
626.602	51282.67
626.796	52517.6
626.991	52370.14
627.185	53080.79
627.38	53500.62
627.574	53480.14
627.768	53734.09
627.963	53938.89
628.157	53897.93
628.352	54784.7
628.546	53834.44
628.74	54627.01
628.935	54106.82
629.129	54319.81
629.323	53639.89
629.517	53709.52
629.712	53856.97
629.906	53408.47
630.1	52269.79
630.294	52275.94
630.489	51596.01
630.683	51299.06
630.877	49881.86
631.071	49281.81
631.265	48917.27
631.459	47428.4
631.653	46598.97
631.848	45763.4
632.042	44288.86
632.236	43885.41
632.43	42015.61
632.624	41593.73
632.818	40057.76
633.012	38726.58
633.206	37479.36
633.4	36735.95
633.594	35150.82
633.788	34012.15
633.982	32891.91
634.176	31826.97
634.369	30524.46
634.563	29459.52
634.757	28509.26
634.951	27370.59
635.145	26258.54
635.339	25506.94
635.533	24394.89
635.726	23485.59
635.92	22234.28
636.114	21560.5
636.308	20569.29
636.501	19862.74
636.695	19258.59
636.889	18097.39
637.083	17380.6
637.276	16878.85
637.47	15981.84
637.664	15457.56
637.857	14898.46
638.051	14155.05
638.244	13692.21
638.438	13114.68
638.632	12647.74
638.825	12148.04
639.019	11623.76
639.212	11154.77
639.406	10894.68
639.599	10235.24
639.793	10063.21
639.986	9426.29
640.18	9485.68
640.373	8807.8
640.567	8498.56
640.76	8183.17
640.954	7961.99
641.147	7529.87
641.34	7189.91
641.534	7019.92
641.727	6876.57
641.92	6426.01
642.114	6303.14
642.307	5977.51
642.5	5934.5
642.694	5555.63
642.887	5199.28
643.08	5215.66
643.273	5037.49
643.467	4787.64
643.66	4744.63
643.853	4384.19
644.046	4148.67
644.239	3915.2
644.432	3921.35
644.626	3763.65
644.819	3663.3
645.012	3616.2
645.205	3409.36
645.398	3306.96
645.591	3122.64
645.784	2948.56
645.977	2727.38
646.17	2741.72
646.363	2659.8
646.556	2565.59
646.749	2493.91
646.942	2438.62
647.135	2344.41
647.328	2266.59
647.521	2166.24
647.714	2096.61
647.907	2035.17
648.099	1781.22
648.292	1983.97
648.485	1865.19
648.678	1652.2
648.871	1543.66
649.064	1572.33
649.256	1478.12
649.449	1486.31
649.642	1277.42
649.835	1248.75
650.027	1226.22
650.22	1345
650.413	1224.17
650.605	1218.03
650.798	1123.82
650.991	1105.39
651.183	1060.34
651.376	1115.63
651.568	1093.1
651.761	892.4
651.954	962.03
652.146	857.59
652.339	955.89
652.531	955.89
652.724	833.01
652.916	859.63
653.109	691.7
653.301	857.59
653.494	794.1
653.686	738.8
653.879	828.92
654.071	763.38
654.263	632.31
654.456	699.89
654.648	648.69
654.84	695.8
655.033	640.5
655.225	681.46
655.417	398.84
655.61	642.55
655.802	589.3
655.994	634.36
656.186	441.85
656.379	540.15
656.571	480.76
656.763	493.05
656.955	398.84
657.148	302.59
657.34	617.97
657.532	452.09
657.724	361.98
657.916	413.18
658.108	476.66
658.3	437.75
658.492	445.95
658.684	335.35
658.876	417.27
659.068	275.96
659.26	280.06
659.452	321.02
659.644	298.49
659.836	452.09
660.028	327.16
660.22	296.44
660.412	376.31
660.604	335.35
660.796	286.2
660.988	400.89
661.18	337.4
661.372	316.92
661.563	271.87
661.755	288.25
661.947	298.49
662.139	185.85
662.331	271.87
662.522	249.34
662.714	200.19
662.906	169.47
663.097	230.91
663.289	208.38
663.481	126.46
663.673	300.54
663.864	282.11
664.056	275.96
664.247	140.8
664.439	251.39
664.631	237.05
664.822	280.06
665.014	224.76
665.205	108.03
665.397	222.72
665.588	210.43
665.78	226.81
665.971	278.01
666.163	202.24
666.354	173.57
666.546	144.89
666.737	132.61
666.929	183.81
667.12	130.56
667.311	249.34
667.503	128.51
667.694	202.24
667.885	247.29
668.077	171.52
668.268	73.21
668.459	196.09
668.651	253.44
668.842	259.58
669.033	46.59
669.224	46.59
669.416	335.35
669.607	148.99
669.798	175.61
669.989	232.96
670.18	148.99
670.371	194.05
670.563	124.41
670.754	286.2
670.945	177.66
671.136	138.75
671.327	89.6
671.518	204.28
671.709	230.91
671.9	224.76
672.091	228.86
672.282	214.52
672.473	222.72
672.664	112.13
672.855	144.89
673.046	210.43
673.237	335.35
673.428	224.76
673.619	241.15
673.809	194.05
674	275.96
674.191	241.15
674.382	192
674.573	192
674.764	177.66
674.954	318.97
675.145	185.85
675.336	177.66
675.527	235
675.717	185.85
675.908	196.09
676.099	239.1
676.289	187.9
676.48	200.19
676.671	148.99
676.861	228.86
677.052	187.9
677.243	189.95
677.433	118.27
677.624	353.79
677.814	175.61
678.005	126.46
678.195	284.16
678.386	128.51
678.576	232.96
678.767	138.75
678.957	237.05
679.148	232.96
679.338	372.22
679.529	294.4
679.719	273.92
679.909	259.58
680.1	202.24
680.29	257.53
680.481	101.89
680.671	288.25
680.861	208.38
681.052	310.78
681.242	282.11
681.432	347.64
681.622	267.77
681.813	58.88
682.003	259.58
682.193	204.28
682.383	280.06
682.573	179.71
682.764	179.71
682.954	278.01
683.144	396.79
683.334	220.67
683.524	200.19
683.714	278.01
683.904	374.27
684.094	286.2
684.284	235
684.474	376.31
684.664	380.41
684.854	366.07
685.044	267.77
685.234	290.3
685.424	302.59
685.614	232.96
685.804	445.95
685.994	253.44
686.184	288.25
686.374	304.64
686.564	333.31
686.753	230.91
686.943	249.34
687.133	214.52
687.323	235
687.513	357.88
687.702	220.67
687.892	300.54
688.082	368.12
688.272	284.16
688.461	247.29
688.651	398.84
688.841	353.79
689.03	273.92
689.22	275.96
689.41	427.51
689.599	372.22
689.789	202.24
689.979	433.66
690.168	226.81
690.358	314.88
690.547	255.48
690.737	278.01
690.926	337.4
691.116	372.22
691.305	306.68
691.495	355.83
691.684	173.57
691.874	218.62
692.063	216.57
692.252	325.12
692.442	361.98
692.631	232.96
692.82	300.54
693.01	292.35
693.199	241.15
693.388	247.29
693.578	286.2
693.767	337.4
693.956	265.72
694.146	284.16
694.335	253.44
694.524	249.34
694.713	325.12
694.902	235
695.092	173.57
695.281	325.12
695.47	312.83
695.659	239.1
695.848	327.16
696.037	204.28
696.226	316.92
696.415	228.86
696.604	402.94
696.793	273.92
696.982	230.91
697.171	347.64
697.36	169.47
697.549	200.19
697.738	144.89
697.927	218.62
698.116	239.1
698.305	284.16
698.494	243.2
698.683	161.28
698.872	415.23
699.061	224.76
699.25	267.77
699.438	165.37
699.627	255.48
699.816	253.44
700.005	79.36
700.193	232.96
700.382	257.53
700.571	323.07
700.76	308.73
700.948	321.02
701.137	280.06
701.326	284.16
701.514	210.43
701.703	329.21
701.892	261.63
702.08	400.89
702.269	261.63
702.457	249.34
702.646	251.39
702.834	206.33
703.023	294.4
703.212	261.63
703.4	253.44
703.589	218.62
703.777	292.35
703.965	114.17
704.154	196.09
704.342	163.33
704.531	171.52
704.719	155.13
704.907	278.01
705.096	151.04
705.284	183.81
705.472	192
705.661	239.1
705.849	267.77
706.037	318.97
706.226	187.9
706.414	282.11
706.602	124.41
706.79	251.39
706.979	171.52
707.167	198.14
707.355	151.04
707.543	265.72
707.731	241.15
707.919	202.24
708.107	155.13
708.296	181.76
708.484	251.39
708.672	265.72
708.86	280.06
709.048	230.91
709.236	165.37
709.424	226.81
709.612	380.41
709.8	171.52
709.988	275.96
710.176	347.64
710.364	316.92
710.551	187.9
710.739	175.61
710.927	148.99
711.115	290.3
711.303	265.72
711.491	271.87
711.679	122.37
711.866	366.07
712.054	200.19
712.242	192
712.43	261.63
712.617	232.96
712.805	257.53
712.993	237.05
713.181	226.81
713.368	271.87
713.556	232.96
713.744	136.7
713.931	398.84
714.119	288.25
714.306	245.24
714.494	202.24
714.682	220.67
714.869	218.62
715.057	210.43
715.244	167.42
715.432	173.57
715.619	224.76
715.807	122.37
715.994	101.89
716.182	230.91
716.369	271.87
716.556	210.43
716.744	171.52
716.931	210.43
717.119	249.34
717.306	230.91
717.493	267.77
717.681	226.81
717.868	212.48
718.055	292.35
718.242	226.81
718.43	249.34
718.617	259.58
718.804	243.2
718.991	318.97
719.179	261.63
719.366	261.63
719.553	192
719.74	218.62
719.927	157.18
720.114	292.35
720.301	167.42
720.488	175.61
720.676	259.58
720.863	357.88
721.05	423.42
721.237	243.2
721.424	298.49
721.611	232.96
721.798	128.51
721.985	212.48
722.172	232.96
722.358	296.44
722.545	257.53
722.732	204.28
722.919	353.79
723.106	218.62
723.293	243.2
723.48	241.15
723.667	202.24
723.853	460.28
724.04	251.39
724.227	380.41
724.414	194.05
724.6	407.03
724.787	382.46
724.974	394.75
725.161	284.16
725.347	173.57
725.534	255.48
725.72	249.34
725.907	325.12
726.094	366.07
726.28	228.86
726.467	294.4
726.653	286.2
726.84	341.5
727.027	333.31
727.213	280.06
727.4	257.53
727.586	267.77
727.773	267.77
727.959	292.35
728.145	345.59
728.332	232.96
728.518	206.33
728.705	261.63
728.891	318.97
729.077	329.21
729.264	228.86
729.45	278.01
729.636	368.12
729.823	284.16
730.009	349.69
730.195	288.25
730.382	368.12
730.568	183.81
730.754	310.78
730.94	257.53
731.126	345.59
731.313	337.4
731.499	335.35
731.685	314.88
731.871	302.59
732.057	265.72
732.243	275.96
732.429	241.15
732.615	445.95
732.801	372.22
732.987	257.53
733.173	300.54
733.359	226.81
733.545	214.52
733.731	310.78
733.917	376.31
734.103	404.99
734.289	327.16
734.475	267.77
734.661	441.85
734.847	296.44
735.033	388.6
735.219	353.79
735.404	339.45
735.59	255.48
735.776	290.3
735.962	370.17
736.148	353.79
736.333	333.31
736.519	359.93
736.705	306.68
736.89	278.01
737.076	302.59
737.262	230.91
737.447	304.64
737.633	275.96
737.819	359.93
738.004	325.12
738.19	302.59
738.375	359.93
738.561	441.85
738.747	304.64
738.932	226.81
739.118	564.73
739.303	407.03
739.489	337.4
739.674	347.64
739.859	292.35
740.045	292.35
740.23	345.59
740.416	325.12
740.601	306.68
740.786	323.07
740.972	273.92
741.157	296.44
741.342	284.16
741.528	206.33
741.713	413.18
741.898	232.96
742.084	304.64
742.269	247.29
742.454	404.99
742.639	359.93
742.824	294.4
743.01	347.64
743.195	364.03
743.38	321.02
743.565	331.26
743.75	269.82
743.935	372.22
744.12	323.07
744.305	212.48
744.49	243.2
744.675	292.35
744.86	257.53
745.045	325.12
745.23	273.92
745.415	261.63
745.6	355.83
745.785	165.37
745.97	339.45
746.155	400.89
746.34	386.55
746.525	312.83
746.71	374.27
746.895	192
747.079	239.1
747.264	224.76
747.449	368.12
747.634	314.88
747.819	298.49
748.003	232.96
748.188	161.28
748.373	300.54
748.557	235
748.742	316.92
748.927	308.73
749.111	198.14
749.296	183.81
749.481	300.54
749.665	271.87
749.85	308.73
750.034	257.53
750.219	253.44
750.404	237.05
750.588	253.44
750.773	181.76
750.957	206.33
751.141	321.02
751.326	286.2
751.51	167.42
751.695	198.14
751.879	226.81
752.064	388.6
752.248	271.87
752.432	409.08
752.617	226.81
752.801	198.14
752.985	222.72
753.17	347.64
753.354	245.24
753.538	226.81
753.722	81.41
753.907	212.48
754.091	144.89
754.275	267.77
754.459	173.57
754.643	235
754.828	312.83
755.012	282.11
755.196	175.61
755.38	200.19
755.564	194.05
755.748	206.33
755.932	230.91
756.116	212.48
756.3	216.57
756.484	241.15
756.668	218.62
756.852	103.93
757.036	245.24
757.22	128.51
757.404	116.22
757.588	77.31
757.772	290.3
757.956	130.56
758.14	298.49
758.323	67.07
758.507	185.85
758.691	71.17
758.875	212.48
759.059	325.12
759.242	91.65
759.426	169.47
759.61	159.23
759.794	144.89
759.977	212.48
760.161	390.65
760.345	173.57
760.528	196.09
760.712	253.44
760.895	257.53
761.079	179.71
761.263	120.32
761.446	124.41
761.63	134.65
761.813	294.4
761.997	99.84
762.18	179.71
762.364	146.94
762.547	83.45
762.731	136.7
762.914	114.17
763.098	136.7
763.281	138.75
763.464	87.55
763.648	124.41
763.831	142.85
764.015	128.51
764.198	169.47
764.381	97.79
764.564	171.52
764.748	181.76
764.931	183.81
765.114	132.61
765.297	179.71
765.481	89.6
765.664	101.89
765.847	159.23
766.03	288.25
766.213	48.64
766.397	210.43
766.58	26.11
766.763	212.48
766.946	75.26
767.129	153.09
767.312	120.32
767.495	65.02
767.678	79.36
767.861	153.09
768.044	91.65
768.227	87.55
768.41	159.23
768.593	151.04
768.776	148.99
768.959	93.69
769.142	157.18
769.324	124.41
769.507	56.83
769.69	85.5
769.873	91.65
770.056	269.82
770.239	85.5
770.421	116.22
770.604	173.57
770.787	126.46
770.97	198.14
771.152	11.78
771.335	105.98
771.518	58.88
771.7	187.9
771.883	249.34
772.066	50.69
772.248	159.23
772.431	187.9
772.613	114.17
772.796	46.59
772.978	101.89
773.161	181.76
773.343	30.21
773.526	7.68
773.708	-29.18
773.891	5.63
774.073	101.89
774.256	77.31
774.438	165.37
774.621	79.36
774.803	97.79
774.985	108.03
775.168	69.12
775.35	134.65
775.532	144.89
775.715	93.69
775.897	85.5
776.079	50.69
776.261	75.26
776.444	110.08
776.626	54.78
776.808	85.5
776.99	-55.81
777.173	60.93
777.355	130.56
777.537	146.94
777.719	83.45
777.901	73.21
778.083	15.87
778.265	58.88
778.447	177.66
778.629	62.98
778.811	93.69
778.993	87.55
779.175	128.51
779.357	89.6
779.539	-12.8
779.721	54.78
779.903	153.09
780.085	54.78
780.267	79.36
780.449	38.4
780.631	151.04
780.812	196.09
780.994	97.79
781.176	58.88
781.358	65.02
781.54	58.88
781.721	128.51
781.903	116.22
782.085	11.78
782.267	255.48
782.448	3.58
782.63	79.36
782.812	71.17
782.993	101.89
783.175	108.03
783.357	54.78
783.538	81.41
783.72	52.74
783.901	5.63
784.083	81.41
784.264	118.27
784.446	-29.18
784.627	-33.28
784.809	138.75
784.99	44.54
785.172	85.5
785.353	89.6
785.535	89.6
785.716	38.4
785.897	-12.8
786.079	75.26
786.26	73.21
786.441	116.22
786.623	-57.86
786.804	38.4
786.985	67.07
787.167	114.17
787.348	54.78
787.529	89.6
787.71	167.42
787.891	126.46
788.073	44.54
788.254	-33.28
788.435	232.96
788.616	26.11
788.797	52.74
788.978	-8.7
789.159	-61.95
789.34	50.69
789.522	71.17
789.703	22.02
789.884	128.51
790.065	60.93
790.246	108.03
790.427	34.3
790.607	181.76
790.788	105.98
790.969	-37.38
791.15	89.6
791.331	30.21
791.512	17.92
791.693	-33.28
791.874	36.35
792.054	175.61
792.235	118.27
792.416	-72.19
792.597	5.63
792.778	26.11
792.958	67.07
793.139	54.78
793.32	36.35
793.5	-45.57
793.681	179.71
793.862	67.07
794.042	103.93
794.223	-29.18
794.404	17.92
794.584	-104.96
794.765	22.02
794.945	-14.85
795.126	46.59
795.306	105.98
795.487	-0.51
795.667	-20.99
795.848	99.84
796.028	-47.62
796.209	-16.9
796.389	91.65
796.57	-29.18
796.75	-59.9
796.93	1.54
797.111	-70.14
797.291	81.41
797.471	13.82
797.652	60.93
797.832	-61.95
798.012	40.45
798.192	13.82
798.373	3.58
798.553	-10.75
798.733	87.55
798.913	-74.24
799.093	-72.19
799.274	30.21
799.454	101.89
799.634	118.27
799.814	122.37
799.994	24.06
800.174	101.89
800.354	11.78
800.534	-76.29
800.714	36.35
800.894	-8.7
801.074	-16.9
801.254	-53.76
801.434	99.84
801.614	-27.14
801.794	46.59
801.974	1881.57
802.154	-27.14
802.334	214.52
802.514	-16.9
802.693	22.02
802.873	44.54
803.053	95.74
803.233	22.02
803.413	28.16
803.592	-14.85
803.772	-76.29
803.952	108.03
804.131	-41.47
804.311	73.21
804.491	67.07
804.67	-33.28
804.85	42.5
805.03	56.83
805.209	167.42
805.389	-29.18
805.568	-72.19
805.748	36.35
805.928	48.64
806.107	30.21
806.287	11.78
806.466	112.13
806.646	26.11
806.825	-10.75
807.004	-35.33
807.184	42.5
807.363	79.36
807.543	65.02
807.722	-96.77
807.901	67.07
808.081	50.69
808.26	-55.81
808.439	38.4
808.619	-2.56
808.798	-25.09
808.977	13.82
809.156	40.45
809.336	26.11
809.515	32.26
809.694	-6.66
809.873	-37.38
810.052	46.59
810.231	114.17
810.411	97.79
810.59	60.93
810.769	67.07
810.948	114.17
811.127	-102.91
811.306	-80.38
811.485	9.73
811.664	120.32
811.843	54.78
812.022	42.5
812.201	-16.9
812.38	48.64
812.559	-0.51
812.737	48.64
812.916	-96.77
813.095	-12.8
813.274	89.6
813.453	19.97
813.632	48.64
813.811	120.32
813.989	-23.04
814.168	60.93
814.347	-23.04
814.526	-25.09
814.704	144.89
814.883	81.41
815.062	-104.96
815.24	124.41
815.419	-33.28
815.598	60.93
815.776	-109.05
815.955	7.68
816.133	-111.1
816.312	62.98
816.49	-74.24
816.669	44.54
816.847	24.06
817.026	67.07
817.204	62.98
817.383	60.93
817.561	-16.9
817.74	-6.66
817.918	65.02
818.097	-20.99
818.275	-18.94
818.453	48.64
818.632	54.78
818.81	-10.75
818.988	-41.47
819.167	-12.8
819.345	-45.57
819.523	-70.14
819.701	42.5
819.879	73.21
820.058	44.54
820.236	44.54
820.414	40.45
820.592	-68.09
820.77	13.82
820.948	-82.43
821.127	5.63
821.305	50.69
821.483	-35.33
821.661	89.6
821.839	42.5
822.017	-59.9
822.195	-31.23
822.373	140.8
822.551	5.63
822.729	36.35
822.907	-10.75
823.085	79.36
823.262	5.63
823.44	-23.04
823.618	-4.61
823.796	-6.66
823.974	28.16
824.152	-70.14
824.329	-12.8
824.507	-27.14
824.685	67.07
824.863	-14.85
825.04	77.31
825.218	99.84
825.396	26.11
825.574	-6.66
825.751	30.21
825.929	42.5
826.107	-51.71
826.284	1.54
826.462	83.45
826.639	-80.38
826.817	-86.53
826.994	3.58
827.172	-27.14
827.349	142.85
827.527	112.13
827.704	-4.61
827.882	91.65
828.059	-4.61
828.237	-20.99
828.414	24.06
828.591	-160.25
828.769	62.98
828.946	-61.95
829.124	34.3
829.301	108.03
829.478	-20.99
829.655	108.03
829.833	-2.56
830.01	-180.73
830.187	81.41
830.364	19.97
830.542	28.16
830.719	79.36
830.896	11.78
831.073	32.26
831.25	36.35
831.427	95.74
831.604	-16.9
831.782	38.4
831.959	71.17
832.136	-23.04
832.313	46.59
832.49	-53.76
832.667	-6.66
832.844	-64
833.021	38.4
833.198	46.59
833.374	-6.66
833.551	-0.51
833.728	-31.23
833.905	48.64
834.082	-125.44
834.259	40.45
834.436	52.74
834.612	30.21
834.789	-16.9
834.966	30.21
835.143	62.98
835.319	3.58
835.496	62.98
835.673	50.69
835.85	-8.7
836.026	-12.8
836.203	15.87
836.38	26.11
836.556	52.74
836.733	-86.53
836.909	99.84
837.086	58.88
837.262	-104.96
837.439	-33.28
837.616	-68.09
837.792	-4.61
837.968	-4.61
838.145	-100.86
838.321	60.93
838.498	54.78
838.674	-8.7
838.851	22.02
839.027	-27.14
839.203	73.21
839.38	44.54
839.556	-92.67
839.732	105.98
839.909	99.84
840.085	99.84
840.261	-43.52
840.437	-49.66
840.614	-113.15
840.79	124.41
840.966	67.07
841.142	-4.61
841.318	22.02
841.494	-16.9
841.671	81.41
841.847	-107.01
842.023	-12.8
842.199	32.26
842.375	114.17
842.551	-145.92
842.727	-76.29
842.903	183.81
843.079	-6.66
843.255	153.09
843.431	58.88
843.607	58.88
843.783	-121.34
843.959	87.55
844.134	-55.81
844.31	93.69
844.486	-61.95
844.662	-84.48
844.838	9.73
845.013	30.21
845.189	52.74
845.365	46.59
845.541	-14.85
845.716	19.97
845.892	73.21
846.068	-41.47
846.244	11.78
846.419	34.3
846.595	-43.52
846.77	-47.62
846.946	105.98
847.122	36.35
847.297	-0.51
847.473	202.24
847.648	-33.28
847.824	40.45
847.999	-80.38
848.175	-76.29
848.35	54.78
848.526	132.61
848.701	52.74
848.876	38.4
849.052	146.94
849.227	42.5
849.403	30.21
849.578	52.74
849.753	-23.04
849.929	93.69
850.104	-96.77
850.279	-31.23
850.454	-4.61
850.63	89.6
850.805	26.11
850.98	73.21
851.155	-8.7
851.33	38.4
851.505	22.02
851.681	103.93
851.856	-109.05
852.031	-23.04
852.206	81.41
852.381	46.59
852.556	15.87
852.731	11.78
852.906	93.69
853.081	60.93
853.256	87.55
853.431	42.5
853.606	-12.8
853.781	19.97
853.956	-119.29
854.131	50.69
854.305	-94.72
854.48	32.26
854.655	-41.47
854.83	-59.9
855.005	54.78
855.18	-51.71
855.354	91.65
855.529	-10.75
855.704	-14.85
855.879	13.82
856.053	-6.66
856.228	83.45
856.403	-76.29
856.577	44.54
856.752	-18.94
856.926	7.68
857.101	11.78
857.276	-18.94
857.45	-10.75
857.625	95.74
857.799	42.5
857.974	-41.47
858.148	-100.86
858.323	36.35
858.497	-4.61
858.672	-74.24
858.846	-76.29
859.02	69.12
859.195	-53.76
859.369	36.35
859.543	36.35
859.718	11.78
859.892	13.82
860.066	7.68
860.241	-100.86
860.415	-49.66
860.589	22.02
860.763	-35.33
860.938	-2.56
861.112	50.69
861.286	5.63
861.46	9.73
861.634	17.92
861.808	95.74
861.982	-72.19
862.157	-31.23
862.331	-84.48
862.505	-6.66
862.679	-86.53
862.853	-39.42
863.027	22.02
863.201	153.09
863.375	-45.57
863.549	-23.04
863.722	-43.52
863.896	69.12
864.07	26.11
864.244	-10.75
864.418	79.36
864.592	7.68
864.766	112.13
864.939	34.3
865.113	-31.23
865.287	93.69
865.461	-49.66
865.634	-41.47
865.808	-16.9
865.982	19.97
866.156	-53.76
866.329	-25.09
866.503	-2.56
866.676	153.09
866.85	19.97
867.024	-2.56
867.197	42.5
867.371	73.21
867.544	9.73
867.718	-152.06
867.891	87.55
868.065	-86.53
868.238	-25.09
868.412	62.98
868.585	-14.85
868.759	-70.14
868.932	1.54
869.105	-57.86
869.279	-33.28
869.452	-27.14
869.625	34.3
869.799	-43.52
869.972	-64
870.145	3.58
870.319	91.65
870.492	-25.09
870.665	-16.9
870.838	-39.42
871.011	-113.15
871.185	-68.09
871.358	24.06
871.531	17.92
871.704	-55.81
871.877	-37.38
872.05	13.82
872.223	-53.76
872.396	-2.56
872.569	62.98
872.742	-47.62
872.915	54.78
873.088	-43.52
873.261	-53.76
873.434	13.82
873.607	-12.8
873.78	65.02
873.953	-53.76
874.126	26.11
874.299	52.74
874.471	-6.66
874.644	-4.61
874.817	81.41
874.99	73.21
875.163	-76.29
875.335	3.58
875.508	-66.05
875.681	-16.9
875.853	-33.28
876.026	-33.28
876.199	83.45
876.371	26.11
876.544	-10.75
876.717	19.97
876.889	-0.51
877.062	79.36
877.234	-43.52
877.407	3.58
877.579	60.93
877.752	-43.52
877.924	83.45
878.097	34.3
878.269	13.82
878.442	1.54
878.614	1.54
878.786	3.58
878.959	28.16
879.131	42.5
879.303	-121.34
879.476	17.92
879.648	73.21
879.82	-8.7
879.993	-57.86
880.165	-2.56
880.337	-84.48
880.509	81.41
880.681	-100.86
880.854	-80.38
881.026	22.02
881.198	183.81
881.37	67.07
881.542	9.73
881.714	28.16
881.886	-33.28
882.058	62.98
882.23	-51.71
882.402	46.59
882.574	62.98
882.746	-23.04
882.918	60.93
883.09	40.45
883.262	58.88
883.434	30.21
883.606	-37.38
883.778	30.21
883.95	165.37
884.122	-29.18
884.293	122.37
884.465	-25.09
884.637	32.26
884.809	-41.47
884.98	62.98
885.152	58.88
885.324	34.3
885.496	-96.77
885.667	-39.42
885.839	-10.75
886.011	144.89
886.182	-18.94
886.354	62.98
886.525	58.88
886.697	44.54
886.869	-117.25
887.04	3.58
887.212	97.79
887.383	101.89
887.555	99.84
887.726	-57.86
887.897	-37.38
888.069	26.11
888.24	124.41
888.412	-23.04
888.583	-41.47
888.754	-59.9
888.926	-150.01
889.097	-20.99
889.268	-90.62
889.44	-41.47
889.611	-64
889.782	-123.39
889.953	-39.42
890.125	148.99
890.296	-76.29
890.467	-43.52
890.638	24.06
890.809	-53.76
890.98	-25.09
891.151	85.5
891.323	75.26
891.494	48.64
891.665	5.63
891.836	54.78
892.007	5.63
892.178	48.64
892.349	-10.75
892.52	-61.95
892.691	13.82
892.862	-74.24
893.032	-160.25
893.203	-41.47
893.374	46.59
893.545	54.78
893.716	-66.05
893.887	116.22
894.057	-64
894.228	42.5
894.399	-16.9
894.57	85.5
894.74	-53.76
894.911	52.74
895.082	-27.14
895.253	-61.95
895.423	-12.8
895.594	87.55
895.764	19.97
895.935	-168.45
896.106	69.12
896.276	-111.1
896.447	-6.66
896.617	-12.8
896.788	-41.47
896.958	-14.85
897.129	-35.33
897.299	-39.42
897.47	67.07
897.64	28.16
897.81	-20.99
897.981	69.12
898.151	-2.56
898.322	52.74
898.492	60.93
898.662	-59.9
898.832	-41.47
899.003	-55.81
899.173	42.5
899.343	-70.14
899.513	-33.28
