Data from USB4F104151__170__11-04-54-235.txt Node

Date: Wed Feb 26 11:04:54 EST 2025
User: louis
Spectrometer: USB4F10415
Trigger mode: 4
Integration Time (sec): 1.000000E-1
Scans to average: 1
Electric dark correction enabled: true
Nonlinearity correction enabled: false
Boxcar width: 0
XAxis mode: Wavelengths
Number of Pixels in Spectrum: 3648
>>>>>Begin Spectral Data<<<<<
178.204	-371.71
178.424	-371.71
178.644	-371.71
178.864	-416.76
179.084	-343.03
179.304	-9.22
179.524	11.26
179.744	46.08
179.964	27.65
180.184	82.94
180.404	17.41
180.624	3.07
180.844	-44.03
181.064	-89.09
181.283	-35.84
181.503	-70.65
181.723	60.42
181.943	-193.53
182.163	128
182.383	-13.31
182.602	82.94
182.822	101.37
183.042	21.5
183.262	-25.6
183.482	25.6
183.701	58.37
183.921	101.37
184.141	-3.07
184.361	150.53
184.58	66.56
184.8	70.65
185.02	-9.22
185.239	142.33
185.459	101.37
185.679	191.49
185.898	-35.84
186.118	-17.41
186.338	7.17
186.557	117.76
186.777	23.55
186.997	11.26
187.216	41.98
187.436	103.42
187.655	50.18
187.875	50.18
188.095	25.6
188.314	87.04
188.534	125.95
188.753	15.36
188.973	209.92
189.192	74.75
189.412	15.36
189.631	31.74
189.851	80.89
190.07	267.26
190.29	-44.03
190.509	-15.36
190.729	-15.36
190.948	171.01
191.168	218.11
191.387	52.22
191.607	80.89
191.826	93.18
192.045	-80.89
192.265	-17.41
192.484	50.18
192.704	19.46
192.923	19.46
193.142	136.19
193.362	93.18
193.581	181.25
193.8	50.18
194.02	97.28
194.239	1.02
194.458	70.65
194.678	-23.55
194.897	-19.46
195.116	13.31
195.335	66.56
195.555	91.13
195.774	1.02
195.993	115.71
196.212	64.51
196.432	35.84
196.651	-89.09
196.87	21.5
197.089	234.49
197.308	113.66
197.528	84.99
197.747	-70.65
197.966	66.56
198.185	158.72
198.404	-54.27
198.623	117.76
198.842	82.94
199.062	117.76
199.281	109.57
199.5	48.13
199.719	17.41
199.938	52.22
200.157	107.52
200.376	103.42
200.595	56.32
200.814	33.79
201.033	11.26
201.252	177.15
201.471	15.36
201.69	125.95
201.909	27.65
202.128	99.33
202.347	9.22
202.566	125.95
202.785	-27.65
203.004	1.02
203.223	211.96
203.442	23.55
203.661	-23.55
203.879	117.76
204.098	152.57
204.317	-74.75
204.536	84.99
204.755	66.56
204.974	56.32
205.193	-37.89
205.411	113.66
205.63	123.9
205.849	93.18
206.068	60.42
206.287	-35.84
206.505	117.76
206.724	46.08
206.943	-23.55
207.162	35.84
207.381	93.18
207.599	35.84
207.818	27.65
208.037	9.22
208.255	17.41
208.474	7.17
208.693	70.65
208.911	23.55
209.13	41.98
209.349	37.89
209.567	62.46
209.786	48.13
210.005	113.66
210.223	5.12
210.442	-97.28
210.661	91.13
210.879	82.94
211.098	3.07
211.316	68.61
211.535	80.89
211.753	-9.22
211.972	50.18
212.191	-9.22
212.409	-13.31
212.628	64.51
212.846	-48.13
213.065	56.32
213.283	158.72
213.502	-37.89
213.72	50.18
213.938	25.6
214.157	-27.65
214.375	158.72
214.594	113.66
214.812	68.61
215.031	19.46
215.249	-78.85
215.467	66.56
215.686	84.99
215.904	91.13
216.122	132.09
216.341	121.85
216.559	-39.94
216.778	80.89
216.996	179.2
217.214	76.8
217.432	23.55
217.651	-56.32
217.869	-25.6
218.087	68.61
218.306	39.94
218.524	66.56
218.742	-41.98
218.96	101.37
219.179	107.52
219.397	-41.98
219.615	263.16
219.833	136.19
220.051	-46.08
220.27	62.46
220.488	128
220.706	156.67
220.924	66.56
221.142	-13.31
221.36	21.5
221.578	103.42
221.796	87.04
222.015	7.17
222.233	115.71
222.451	148.48
222.669	-68.61
222.887	25.6
223.105	39.94
223.323	23.55
223.541	15.36
223.759	78.85
223.977	62.46
224.195	199.68
224.413	97.28
224.631	23.55
224.849	87.04
225.067	195.58
225.285	17.41
225.503	82.94
225.721	-128
225.939	70.65
226.157	3.07
226.375	220.16
226.592	-39.94
226.81	54.27
227.028	115.71
227.246	154.62
227.464	87.04
227.682	103.42
227.9	68.61
228.117	15.36
228.335	78.85
228.553	9.22
228.771	-17.41
228.989	17.41
229.206	119.81
229.424	-35.84
229.642	-1.02
229.86	-107.52
230.077	156.67
230.295	-5.12
230.513	70.65
230.731	80.89
230.948	72.7
231.166	166.91
231.384	119.81
231.601	-9.22
231.819	197.63
232.037	-41.98
232.254	-60.42
232.472	-7.17
232.689	35.84
232.907	191.49
233.125	-17.41
233.342	-9.22
233.56	25.6
233.777	68.61
233.995	-7.17
234.213	125.95
234.43	9.22
234.648	-17.41
234.865	-33.79
235.083	19.46
235.3	87.04
235.518	84.99
235.735	121.85
235.953	123.9
236.17	68.61
236.388	9.22
236.605	64.51
236.822	130.05
237.04	134.14
237.257	76.8
237.475	-95.23
237.692	109.57
237.909	78.85
238.127	19.46
238.344	93.18
238.562	23.55
238.779	-27.65
238.996	21.5
239.214	-72.7
239.431	95.23
239.648	19.46
239.865	109.57
240.083	52.22
240.3	70.65
240.517	-17.41
240.735	33.79
240.952	128
241.169	52.22
241.386	128
241.603	3.07
241.821	76.8
242.038	121.85
242.255	152.57
242.472	-70.65
242.689	-46.08
242.907	154.62
243.124	29.7
243.341	19.46
243.558	5.12
243.775	-56.32
243.992	-29.7
244.209	-1.02
244.426	144.38
244.643	15.36
244.86	-41.98
245.078	91.13
245.295	39.94
245.512	17.41
245.729	39.94
245.946	27.65
246.163	-33.79
246.38	3.07
246.597	56.32
246.814	-5.12
247.031	134.14
247.248	-58.37
247.464	15.36
247.681	-17.41
247.898	58.37
248.115	60.42
248.332	-31.74
248.549	138.24
248.766	109.57
248.983	103.42
249.2	87.04
249.417	48.13
249.633	52.22
249.85	138.24
250.067	142.33
250.284	84.99
250.501	119.81
250.717	140.29
250.934	-21.5
251.151	97.28
251.368	21.5
251.585	76.8
251.801	123.9
252.018	-56.32
252.235	166.91
252.451	-95.23
252.668	72.7
252.885	125.95
253.102	35.84
253.318	66.56
253.535	-3.07
253.752	-74.75
253.968	60.42
254.185	-58.37
254.401	9.22
254.618	19.46
254.835	11.26
255.051	109.57
255.268	115.71
255.484	31.74
255.701	7.17
255.917	9.22
256.134	31.74
256.351	-15.36
256.567	-7.17
256.784	84.99
257	-29.7
257.217	113.66
257.433	105.47
257.65	27.65
257.866	125.95
258.082	1.02
258.299	-33.79
258.515	44.03
258.732	-21.5
258.948	-66.56
259.165	66.56
259.381	-44.03
259.597	37.89
259.814	58.37
260.03	1.02
260.246	7.17
260.463	132.09
260.679	58.37
260.895	101.37
261.112	56.32
261.328	66.56
261.544	9.22
261.761	89.09
261.977	-52.22
262.193	-5.12
262.409	93.18
262.626	19.46
262.842	15.36
263.058	-7.17
263.274	39.94
263.49	-29.7
263.707	189.44
263.923	62.46
264.139	-13.31
264.355	19.46
264.571	152.57
264.787	21.5
265.004	99.33
265.22	7.17
265.436	-31.74
265.652	-17.41
265.868	50.18
266.084	-15.36
266.3	-15.36
266.516	-27.65
266.732	62.46
266.948	-11.26
267.164	74.75
267.38	72.7
267.596	37.89
267.812	164.86
268.028	58.37
268.244	7.17
268.46	74.75
268.676	-3.07
268.892	123.9
269.108	-17.41
269.324	13.31
269.54	-25.6
269.756	109.57
269.972	-19.46
270.188	56.32
270.403	-56.32
270.619	50.18
270.835	68.61
271.051	31.74
271.267	15.36
271.483	37.89
271.698	101.37
271.914	74.75
272.13	-17.41
272.346	-33.79
272.562	-19.46
272.777	78.85
272.993	-48.13
273.209	-23.55
273.425	80.89
273.64	-54.27
273.856	99.33
274.072	-64.51
274.287	35.84
274.503	142.33
274.719	74.75
274.934	-1.02
275.15	-66.56
275.366	25.6
275.581	-46.08
275.797	-9.22
276.012	158.72
276.228	46.08
276.444	87.04
276.659	181.25
276.875	-27.65
277.09	-29.7
277.306	17.41
277.521	58.37
277.737	82.94
277.952	48.13
278.168	52.22
278.383	95.23
278.599	41.98
278.814	109.57
279.03	-19.46
279.245	156.67
279.461	76.8
279.676	41.98
279.892	-13.31
280.107	-72.7
280.322	115.71
280.538	150.53
280.753	-7.17
280.969	-7.17
281.184	166.91
281.399	156.67
281.615	74.75
281.83	56.32
282.045	-97.28
282.26	-21.5
282.476	-1.02
282.691	82.94
282.906	60.42
283.122	-5.12
283.337	31.74
283.552	66.56
283.767	-1.02
283.983	76.8
284.198	41.98
284.413	44.03
284.628	1.02
284.843	70.65
285.058	52.22
285.274	-19.46
285.489	-27.65
285.704	117.76
285.919	35.84
286.134	23.55
286.349	111.61
286.564	44.03
286.779	152.57
286.995	-3.07
287.21	-48.13
287.425	119.81
287.64	19.46
287.855	50.18
288.07	-62.46
288.285	130.05
288.5	113.66
288.715	11.26
288.93	46.08
289.145	-89.09
289.36	132.09
289.575	3.07
289.79	189.44
290.004	-9.22
290.219	134.14
290.434	-29.7
290.649	33.79
290.864	3.07
291.079	37.89
291.294	25.6
291.509	64.51
291.724	-5.12
291.938	-1.02
292.153	-21.5
292.368	-97.28
292.583	-7.17
292.798	99.33
293.012	119.81
293.227	97.28
293.442	27.65
293.657	50.18
293.871	117.76
294.086	70.65
294.301	146.43
294.516	144.38
294.73	48.13
294.945	-23.55
295.16	54.27
295.374	95.23
295.589	125.95
295.804	-64.51
296.018	97.28
296.233	142.33
296.447	41.98
296.662	-7.17
296.877	164.86
297.091	62.46
297.306	64.51
297.52	21.5
297.735	76.8
297.949	62.46
298.164	17.41
298.378	56.32
298.593	64.51
298.807	-66.56
299.022	76.8
299.236	37.89
299.451	-48.13
299.665	11.26
299.88	52.22
300.094	33.79
300.309	11.26
300.523	48.13
300.737	9.22
300.952	123.9
301.166	-15.36
301.381	-9.22
301.595	93.18
301.809	35.84
302.024	74.75
302.238	-27.65
302.452	130.05
302.667	50.18
302.881	144.38
303.095	138.24
303.309	60.42
303.524	41.98
303.738	-39.94
303.952	-35.84
304.166	15.36
304.381	-56.32
304.595	128
304.809	9.22
305.023	9.22
305.237	21.5
305.452	-15.36
305.666	72.7
305.88	64.51
306.094	31.74
306.308	95.23
306.522	87.04
306.736	91.13
306.95	78.85
307.164	41.98
307.379	78.85
307.593	134.14
307.807	146.43
308.021	27.65
308.235	78.85
308.449	-103.42
308.663	50.18
308.877	187.39
309.091	-39.94
309.305	33.79
309.519	-111.61
309.733	54.27
309.947	-31.74
310.161	5.12
310.374	-9.22
310.588	197.63
310.802	7.17
311.016	1.02
311.23	109.57
311.444	-5.12
311.658	-11.26
311.872	123.9
312.085	128
312.299	134.14
312.513	138.24
312.727	134.14
312.941	-56.32
313.154	13.31
313.368	31.74
313.582	41.98
313.796	76.8
314.009	-1.02
314.223	128
314.437	119.81
314.651	60.42
314.864	1.02
315.078	31.74
315.292	-21.5
315.505	-5.12
315.719	87.04
315.933	87.04
316.146	-33.79
316.36	-87.04
316.573	33.79
316.787	35.84
317.001	74.75
317.214	25.6
317.428	-15.36
317.641	-46.08
317.855	27.65
318.068	1.02
318.282	50.18
318.495	136.19
318.709	72.7
318.922	-39.94
319.136	109.57
319.349	66.56
319.563	-50.18
319.776	95.23
319.99	-31.74
320.203	99.33
320.417	13.31
320.63	91.13
320.843	78.85
321.057	11.26
321.27	-48.13
321.483	72.7
321.697	195.58
321.91	-48.13
322.124	23.55
322.337	60.42
322.55	13.31
322.763	5.12
322.977	-17.41
323.19	-21.5
323.403	-17.41
323.617	15.36
323.83	95.23
324.043	-31.74
324.256	82.94
324.469	-58.37
324.683	179.2
324.896	19.46
325.109	23.55
325.322	-84.99
325.535	89.09
325.748	97.28
325.962	-15.36
326.175	15.36
326.388	93.18
326.601	128
326.814	33.79
327.027	68.61
327.24	125.95
327.453	-109.57
327.666	89.09
327.879	130.05
328.092	37.89
328.305	29.7
328.518	-44.03
328.731	7.17
328.944	7.17
329.157	87.04
329.37	109.57
329.583	177.15
329.796	209.92
330.009	-11.26
330.222	117.76
330.435	68.61
330.648	33.79
330.861	62.46
331.073	87.04
331.286	48.13
331.499	-17.41
331.712	-44.03
331.925	60.42
332.138	44.03
332.35	142.33
332.563	-68.61
332.776	109.57
332.989	-23.55
333.202	84.99
333.414	-7.17
333.627	72.7
333.84	31.74
334.053	91.13
334.265	-1.02
334.478	35.84
334.691	58.37
334.903	15.36
335.116	91.13
335.329	31.74
335.541	29.7
335.754	121.85
335.966	11.26
336.179	1.02
336.392	64.51
336.604	105.47
336.817	164.86
337.029	93.18
337.242	-7.17
337.454	33.79
337.667	-17.41
337.88	95.23
338.092	68.61
338.305	52.22
338.517	64.51
338.729	150.53
338.942	121.85
339.154	-7.17
339.367	-15.36
339.579	25.6
339.792	50.18
340.004	52.22
340.217	-33.79
340.429	62.46
340.641	-1.02
340.854	-56.32
341.066	3.07
341.278	121.85
341.491	195.58
341.703	15.36
341.915	-41.98
342.128	52.22
342.34	113.66
342.552	31.74
342.764	5.12
342.977	39.94
343.189	-5.12
343.401	-7.17
343.613	70.65
343.826	-52.22
344.038	-93.18
344.25	64.51
344.462	-31.74
344.674	64.51
344.886	91.13
345.099	115.71
345.311	160.77
345.523	3.07
345.735	-3.07
345.947	76.8
346.159	-27.65
346.371	-54.27
346.583	-29.7
346.795	99.33
347.007	31.74
347.219	128
347.431	1.02
347.643	119.81
347.855	-21.5
348.067	91.13
348.279	31.74
348.491	54.27
348.703	54.27
348.915	9.22
349.127	-1.02
349.339	-9.22
349.551	70.65
349.763	68.61
349.975	5.12
350.187	84.99
350.399	84.99
350.61	156.67
350.822	27.65
351.034	-9.22
351.246	150.53
351.458	156.67
351.669	101.37
351.881	95.23
352.093	35.84
352.305	107.52
352.517	-3.07
352.728	99.33
352.94	66.56
353.152	74.75
353.363	-23.55
353.575	64.51
353.787	207.87
353.999	23.55
354.21	130.05
354.422	-109.57
354.633	-27.65
354.845	27.65
355.057	-41.98
355.268	76.8
355.48	125.95
355.692	-15.36
355.903	5.12
356.115	-3.07
356.326	-91.13
356.538	171.01
356.749	78.85
356.961	74.75
357.172	25.6
357.384	-44.03
357.595	244.73
357.807	-5.12
358.018	-9.22
358.23	44.03
358.441	181.25
358.653	113.66
358.864	21.5
359.075	5.12
359.287	138.24
359.498	-11.26
359.709	52.22
359.921	93.18
360.132	-9.22
360.344	37.89
360.555	23.55
360.766	-5.12
360.977	37.89
361.189	97.28
361.4	93.18
361.611	68.61
361.823	21.5
362.034	29.7
362.245	-62.46
362.456	9.22
362.667	99.33
362.879	-39.94
363.09	9.22
363.301	50.18
363.512	74.75
363.723	-58.37
363.935	1.02
364.146	158.72
364.357	64.51
364.568	68.61
364.779	-29.7
364.99	125.95
365.201	54.27
365.412	82.94
365.623	-87.04
365.834	95.23
366.045	9.22
366.256	48.13
366.467	115.71
366.678	41.98
366.889	89.09
367.1	35.84
367.311	187.39
367.522	3.07
367.733	56.32
367.944	25.6
368.155	54.27
368.366	140.29
368.577	130.05
368.788	56.32
368.999	-50.18
369.209	121.85
369.42	115.71
369.631	240.64
369.842	70.65
370.053	-9.22
370.264	91.13
370.474	-80.89
370.685	56.32
370.896	50.18
371.107	119.81
371.317	80.89
371.528	101.37
371.739	136.19
371.95	84.99
372.16	56.32
372.371	-19.46
372.582	64.51
372.792	84.99
373.003	-5.12
373.214	76.8
373.424	125.95
373.635	-76.8
373.846	158.72
374.056	37.89
374.267	95.23
374.477	33.79
374.688	-5.12
374.898	17.41
375.109	62.46
375.319	48.13
375.53	82.94
375.74	97.28
375.951	-5.12
376.161	17.41
376.372	74.75
376.582	-21.5
376.793	-29.7
377.003	-25.6
377.214	-21.5
377.424	97.28
377.635	-41.98
377.845	-80.89
378.055	199.68
378.266	-11.26
378.476	-9.22
378.686	66.56
378.897	-25.6
379.107	121.85
379.317	103.42
379.528	27.65
379.738	76.8
379.948	-27.65
380.158	31.74
380.369	39.94
380.579	7.17
380.789	-21.5
380.999	91.13
381.21	3.07
381.42	220.16
381.63	-1.02
381.84	70.65
382.05	113.66
382.261	156.67
382.471	113.66
382.681	52.22
382.891	150.53
383.101	21.5
383.311	-91.13
383.521	-7.17
383.731	80.89
383.941	132.09
384.151	48.13
384.361	95.23
384.571	29.7
384.781	-17.41
384.991	203.77
385.201	87.04
385.411	70.65
385.621	50.18
385.831	109.57
386.041	31.74
386.251	-39.94
386.461	175.1
386.671	3.07
386.881	87.04
387.091	84.99
387.301	87.04
387.511	62.46
387.72	144.38
387.93	99.33
388.14	-48.13
388.35	50.18
388.56	3.07
388.769	216.06
388.979	48.13
389.189	-58.37
389.399	68.61
389.609	46.08
389.818	140.29
390.028	39.94
390.238	56.32
390.447	5.12
390.657	35.84
390.867	39.94
391.076	-142.33
391.286	76.8
391.496	58.37
391.705	66.56
391.915	78.85
392.125	89.09
392.334	-13.31
392.544	162.81
392.753	41.98
392.963	-99.33
393.172	52.22
393.382	7.17
393.591	171.01
393.801	21.5
394.01	277.5
394.22	125.95
394.429	54.27
394.639	39.94
394.848	70.65
395.058	23.55
395.267	5.12
395.477	109.57
395.686	93.18
395.895	158.72
396.105	117.76
396.314	109.57
396.524	41.98
396.733	66.56
396.942	103.42
397.152	101.37
397.361	93.18
397.57	95.23
397.78	7.17
397.989	111.61
398.198	216.06
398.407	-1.02
398.617	3.07
398.826	54.27
399.035	-5.12
399.244	52.22
399.453	46.08
399.663	74.75
399.872	132.09
400.081	-29.7
400.29	166.91
400.499	-37.89
400.708	142.33
400.917	13.31
401.127	27.65
401.336	17.41
401.545	246.78
401.754	144.38
401.963	27.65
402.172	-9.22
402.381	-91.13
402.59	-15.36
402.799	64.51
403.008	66.56
403.217	5.12
403.426	60.42
403.635	-54.27
403.844	76.8
404.053	-23.55
404.262	-37.89
404.471	132.09
404.68	72.7
404.888	1.02
405.097	80.89
405.306	39.94
405.515	107.52
405.724	11.26
405.933	107.52
406.142	46.08
406.35	142.33
406.559	-54.27
406.768	41.98
406.977	130.05
407.185	72.7
407.394	64.51
407.603	-35.84
407.812	177.15
408.02	168.96
408.229	58.37
408.438	72.7
408.646	-13.31
408.855	62.46
409.064	31.74
409.272	29.7
409.481	50.18
409.69	-9.22
409.898	-54.27
410.107	5.12
410.315	87.04
410.524	21.5
410.733	56.32
410.941	68.61
411.15	117.76
411.358	156.67
411.567	193.53
411.775	27.65
411.984	21.5
412.192	117.76
412.401	-33.79
412.609	205.82
412.818	154.62
413.026	103.42
413.234	41.98
413.443	48.13
413.651	74.75
413.86	62.46
414.068	68.61
414.276	211.96
414.485	91.13
414.693	232.44
414.901	199.68
415.11	171.01
415.318	142.33
415.526	82.94
415.734	138.24
415.943	37.89
416.151	117.76
416.359	60.42
416.567	11.26
416.776	150.53
416.984	101.37
417.192	193.53
417.4	-52.22
417.608	93.18
417.817	-9.22
418.025	58.37
418.233	144.38
418.441	-44.03
418.649	23.55
418.857	37.89
419.065	195.58
419.273	48.13
419.481	9.22
419.689	152.57
419.897	84.99
420.105	-9.22
420.313	87.04
420.521	95.23
420.729	160.77
420.937	76.8
421.145	9.22
421.353	168.96
421.561	136.19
421.769	50.18
421.977	39.94
422.185	160.77
422.393	56.32
422.601	117.76
422.809	91.13
423.017	37.89
423.224	41.98
423.432	140.29
423.64	-5.12
423.848	107.52
424.056	-23.55
424.263	146.43
424.471	64.51
424.679	140.29
424.887	-39.94
425.094	109.57
425.302	125.95
425.51	-35.84
425.718	113.66
425.925	41.98
426.133	-44.03
426.341	250.88
426.548	-44.03
426.756	-27.65
426.964	138.24
427.171	23.55
427.379	87.04
427.586	123.9
427.794	101.37
428.001	140.29
428.209	82.94
428.417	164.86
428.624	203.77
428.832	175.1
429.039	68.61
429.247	66.56
429.454	125.95
429.662	211.96
429.869	175.1
430.076	58.37
430.284	171.01
430.491	230.4
430.699	111.61
430.906	150.53
431.114	230.4
431.321	187.39
431.528	160.77
431.736	123.9
431.943	123.9
432.15	228.35
432.358	173.05
432.565	261.12
432.772	-3.07
432.979	228.35
433.187	121.85
433.394	197.63
433.601	152.57
433.808	146.43
434.016	269.31
434.223	236.54
434.43	134.14
434.637	267.26
434.844	240.64
435.052	230.4
435.259	279.55
435.466	300.03
435.673	283.64
435.88	306.17
436.087	373.75
436.294	308.22
436.501	314.36
436.708	273.4
436.915	297.98
437.122	263.16
437.329	175.1
437.537	252.92
437.743	435.19
437.95	400.38
438.157	441.34
438.364	349.18
438.571	373.75
438.778	424.95
438.985	457.72
439.192	416.76
439.399	424.95
439.606	467.96
439.813	560.12
440.02	629.75
440.227	656.37
440.433	590.84
440.64	533.5
440.847	490.49
441.054	578.55
441.261	689.14
441.467	576.5
441.674	568.31
441.881	668.66
442.088	574.46
442.294	793.59
442.501	744.44
442.708	758.77
442.914	785.4
443.121	846.84
443.328	773.11
443.534	861.17
443.741	887.79
443.948	793.59
444.154	943.09
444.361	1123.31
444.568	928.75
444.774	887.79
444.981	961.52
445.187	1242.09
445.394	1115.12
445.6	1031.15
445.807	1358.83
446.013	1244.14
446.22	1254.38
446.426	1340.4
446.633	1360.88
446.839	1666.02
447.046	1264.62
447.252	1539.05
447.459	1688.55
447.665	1649.64
447.871	1784.8
448.078	1913.83
448.284	1911.78
448.491	1975.27
448.697	1952.74
448.903	2108.38
449.11	2108.38
449.316	2098.14
449.522	2282.46
449.728	2382.81
449.935	2438.11
450.141	2493.4
450.347	2667.48
450.553	2677.72
450.76	2730.97
450.966	2950.1
451.172	3044.31
451.378	3062.74
451.584	3212.24
451.791	3433.42
451.997	3623.88
452.203	3634.12
452.409	3693.51
452.615	3955.65
452.821	3720.14
453.027	3800.01
453.233	4285.37
453.44	4244.42
453.646	4357.05
453.852	4545.47
454.058	4817.85
454.264	4783.03
454.47	5266.35
454.676	5229.49
454.882	5784.49
455.088	5559.21
455.294	5794.73
455.5	6202.27
455.705	6570.91
455.911	6392.73
456.117	6833.05
456.323	6992.79
456.529	6972.31
456.735	7627.66
456.941	7877.51
457.147	8143.75
457.352	8321.92
457.558	8452.99
457.764	9040.76
457.97	9354.1
458.176	9679.72
458.381	10191.72
458.587	10226.53
458.793	10728.28
458.999	10867.55
459.204	12061.51
459.41	12538.69
459.616	12563.26
459.821	13153.08
460.027	13777.71
460.233	14385.96
460.438	14545.7
460.644	15145.75
460.85	15131.42
461.055	15897.36
461.261	16685.83
461.466	16392.97
461.672	16745.22
461.878	18862.82
462.083	18610.92
462.289	18977.5
462.494	19946.19
462.7	19833.55
462.905	20177.61
463.111	21752.5
463.316	22913.7
463.522	23382.68
463.727	23974.55
463.932	25156.22
464.138	25551.48
464.343	26577.51
464.549	26931.81
464.754	28748.36
464.959	29479.49
465.165	30028.34
465.37	30122.55
465.575	30089.78
465.781	32023.06
465.986	32854.54
466.191	32352.79
466.397	32643.6
466.602	32082.45
466.807	33804.8
467.012	33958.39
467.218	34814.44
467.423	34968.04
467.628	35899.87
467.833	37595.59
468.038	36854.22
468.244	36102.62
468.449	38117.82
468.654	37335.49
468.859	37644.74
469.064	37061.07
469.269	36501.97
469.474	36997.58
469.679	37544.39
469.885	36362.71
470.09	37272.01
470.295	37382.6
470.5	36755.92
470.705	36688.34
470.91	35787.23
471.115	35373.54
471.32	36139.48
471.525	35727.84
471.73	34634.22
471.935	34331.12
472.139	33038.86
472.344	33268.23
472.549	33466.88
472.754	32621.07
472.959	31803.93
473.164	30542.38
473.369	30431.79
473.574	30962.22
473.778	30394.93
473.983	29645.37
474.188	29272.64
474.393	28187.22
474.598	27771.48
474.802	27339.36
475.007	26948.2
475.212	26712.68
475.417	26004.08
475.621	24844.93
475.826	25229.95
476.031	24449.67
476.235	23945.87
476.44	24005.27
476.645	23526.04
476.849	23192.22
477.054	22684.33
477.259	22358.7
477.463	22459.05
477.668	21729.97
477.872	21562.04
478.077	20996.8
478.282	20355.79
478.486	20062.93
478.691	19978.96
478.895	19956.43
479.1	19677.91
479.304	19653.33
479.509	18875.1
479.713	18942.69
479.918	18414.31
480.122	18522.85
480.326	18324.2
480.531	18195.18
480.735	18281.19
480.94	17820.4
481.144	18557.67
481.348	17595.12
481.553	17881.84
481.757	17097.47
481.961	17236.73
482.166	17132.28
482.37	16864
482.574	16585.47
482.778	16806.66
482.983	16855.81
483.187	16397.06
483.391	16294.66
483.595	16050.96
483.8	15840.01
484.004	16108.3
484.208	15942.41
484.412	15913.74
484.616	15655.7
484.821	15332.12
485.025	15242.01
485.229	15106.84
485.433	15000.35
485.637	14764.83
485.841	14488.35
486.045	14304.04
486.249	14332.71
486.453	13982.51
486.657	13878.06
486.861	13435.7
487.065	13255.48
487.269	13169.46
487.473	12581.7
487.677	12755.77
487.881	12792.64
488.085	12307.27
488.289	12129.09
488.493	11795.28
488.697	11883.34
488.901	11430.74
489.105	11301.72
489.309	11055.96
489.512	10865.5
489.716	10941.27
489.92	10359.65
490.124	10380.13
490.328	10404.71
490.531	10015.59
490.735	10103.65
490.939	9534.32
491.143	9417.58
491.346	9159.54
491.55	9360.24
491.754	9118.58
491.958	8981.37
492.161	8684.41
492.365	8663.93
492.569	8481.66
492.772	8530.81
492.976	8215.43
493.18	8086.4
493.383	8041.35
493.587	7918.47
493.79	8174.47
493.994	7879.56
494.197	7603.08
494.401	7687.05
494.605	7459.73
494.808	7650.19
495.012	7476.11
495.215	7469.97
495.419	7508.88
495.622	7367.57
495.825	7283.6
496.029	6976.41
496.232	7375.76
496.436	6976.41
496.639	7142.29
496.843	7035.8
497.046	7035.8
497.249	7113.62
497.453	7103.38
497.656	7183.25
497.859	7109.52
498.063	7228.31
498.266	7400.34
498.469	7054.23
498.673	7338.9
498.876	7312.27
499.079	7250.83
499.282	7328.66
499.485	7512.97
499.689	7340.94
499.892	7476.11
500.095	7515.02
500.298	7484.3
500.501	7263.12
500.705	7635.85
500.908	7734.15
501.111	7539.6
501.314	7912.33
501.517	7945.09
501.72	7893.9
501.923	7914.38
502.126	8121.22
502.329	8326.02
502.532	8223.62
502.735	8514.43
502.938	8608.64
503.141	8588.16
503.344	8473.47
503.547	8817.53
503.75	8831.87
503.953	9042.81
504.156	9110.39
504.359	9325.43
504.562	9284.47
504.765	9599.85
504.968	9708.4
505.17	9755.5
505.373	10101.61
505.576	10187.62
505.779	10171.24
505.982	10257.25
506.185	10562.4
506.387	10867.55
506.59	10861.4
506.793	11115.35
506.996	11250.52
507.198	11696.97
507.401	11889.48
507.604	12094.28
507.807	12243.78
508.009	12473.15
508.212	12677.95
508.415	12888.89
508.617	13167.42
508.82	13531.95
509.022	13531.95
509.225	14269.22
509.428	14361.38
509.63	14687.01
509.833	14695.2
510.035	15489.81
510.238	15639.31
510.44	15717.14
510.643	16249.61
510.845	16804.61
511.048	16605.95
511.25	17242.87
511.453	17509.11
511.655	18555.62
511.858	18733.79
512.06	19180.25
512.262	19208.92
512.465	19516.12
512.667	20251.34
512.87	20622.02
513.072	21115.58
513.274	21828.27
513.477	22094.51
513.679	22409.9
513.881	22827.68
514.084	23548.57
514.286	23962.26
514.488	24638.09
514.69	25459.32
514.893	25414.27
515.095	26139.25
515.297	26929.77
515.499	26952.29
515.701	27763.29
515.904	28402.25
516.106	29162.05
516.308	29489.73
516.51	30419.5
516.712	30599.73
516.914	31547.93
517.116	32010.78
517.318	32588.3
517.52	32907.79
517.722	33800.7
517.925	34138.62
518.127	35078.63
518.329	35398.12
518.531	35727.84
518.733	37243.34
518.935	37122.51
519.136	37822.91
519.338	38482.36
519.54	39018.92
519.742	39719.33
519.944	40219.03
520.146	40888.72
520.348	41312.65
520.55	41949.57
520.752	42156.41
520.954	43121.01
521.155	43272.56
521.357	44204.38
521.559	44673.37
521.761	45674.82
521.963	45285.71
522.164	45656.39
522.366	45762.89
522.568	46577.98
522.77	47128.88
522.971	47636.78
523.173	47370.54
523.375	48060.71
523.576	47448.36
523.778	47907.11
523.98	48787.74
524.181	49000.72
524.383	48910.61
524.584	49199.38
524.786	49221.9
524.988	48640.28
525.189	49563.92
525.391	49674.51
525.592	49463.57
525.794	49934.6
525.995	49119.51
526.197	49352.97
526.398	49525
526.6	49545.48
526.801	48986.39
527.003	49674.51
527.204	48668.95
527.406	48906.52
527.607	48890.13
527.808	48947.48
528.01	47431.98
528.211	48142.63
528.412	48267.55
528.614	47376.69
528.815	47188.27
529.016	47612.2
529.218	46342.46
529.419	46133.57
529.62	45719.88
529.822	44806.48
530.023	44749.14
530.224	44536.15
530.425	44288.35
530.626	43381.1
530.828	42701.17
531.029	43237.74
531.23	42576.25
531.431	41658.76
531.632	41431.43
531.833	41161.1
532.035	40569.24
532.236	40540.57
532.437	39911.84
532.638	39086.51
532.839	38797.74
533.04	38425.01
533.241	37466.56
533.442	37638.59
533.643	36749.78
533.844	36389.33
534.045	36274.65
534.246	35275.24
534.447	35004.91
534.648	34474.48
534.849	34259.45
535.05	33477.12
535.251	32799.24
535.451	32717.32
535.652	32533.01
535.853	31629.85
536.054	31654.43
536.255	31046.18
536.456	30376.5
536.657	30327.35
536.857	29669.95
537.058	29282.88
537.259	29133.38
537.46	28697.16
537.66	28424.78
537.861	27877.97
538.062	27525.72
538.263	27083.36
538.463	26606.19
538.664	26544.75
538.865	26020.47
539.065	26430.06
539.266	25219.71
539.466	25295.49
539.667	24552.07
539.868	24674.95
540.068	24283.79
540.269	23667.35
540.469	23659.16
540.67	23374.49
540.87	23401.11
541.071	22899.36
541.271	22850.21
541.472	22543.02
541.672	22241.96
541.873	21861.04
542.073	21103.29
542.274	21682.87
542.474	21342.91
542.675	20724.42
542.875	20863.68
543.075	20386.5
543.276	19899.09
543.476	20333.26
543.676	19548.89
543.877	19606.23
544.077	19544.79
544.277	19186.4
544.478	18907.87
544.678	18639.59
544.878	18334.44
545.078	18299.62
545.279	18039.53
545.479	17822.45
545.679	17744.63
545.879	17593.08
546.079	17343.22
546.28	17019.64
546.48	16835.33
546.68	16802.56
546.88	16407.3
547.08	16378.63
547.28	16010
547.48	16083.72
547.68	16001.8
547.88	15706.9
548.081	15481.62
548.281	15117.08
548.481	14811.93
548.681	14746.4
548.881	14566.18
549.081	14414.63
549.28	14146.34
549.48	14009.13
549.68	13925.16
549.88	13925.16
550.08	13396.79
550.28	13361.97
550.48	13161.27
550.68	13232.95
550.88	12710.72
551.08	12237.64
551.279	12510.02
551.479	12149.57
551.679	12243.78
551.879	11684.69
552.079	11731.79
552.278	11426.64
552.478	11305.81
552.678	11213.65
552.878	11203.41
553.077	10593.12
553.277	10609.5
553.477	10572.64
553.676	10292.07
553.876	10242.92
554.076	10158.95
554.275	10011.5
554.475	9624.43
554.674	9560.94
554.874	9399.15
555.074	9180.02
555.273	8889.21
555.473	8952.7
555.672	8676.22
555.872	8725.37
556.071	8610.68
556.271	8481.66
556.47	8180.61
556.67	8182.66
556.869	8117.12
557.068	7768.97
557.268	7697.29
557.467	7613.32
557.667	7654.28
557.866	7334.8
558.065	7246.74
558.265	7117.72
558.464	6947.73
558.663	7134.1
558.863	6939.54
559.062	6822.81
559.261	6517.66
559.461	6671.26
559.66	6319.01
559.859	6198.18
560.058	6208.42
560.258	5913.51
560.457	5933.99
560.656	6079.4
560.855	5702.57
561.054	5823.4
561.253	5708.71
561.453	5632.94
561.652	5432.24
561.851	5473.2
562.05	5241.78
562.249	5065.65
562.448	5194.67
562.647	4955.06
562.846	5063.6
563.045	5010.36
563.244	4748.22
563.443	4748.22
563.642	4621.24
563.841	4668.34
564.04	4527.03
564.239	4479.93
564.438	4465.6
564.637	4254.66
564.836	4256.7
565.035	4215.74
565.234	4162.5
565.432	4019.14
565.631	4154.3
565.83	3992.52
566.029	3896.26
566.228	3826.63
566.427	3816.39
566.625	3722.18
566.824	3757
567.023	3638.22
567.222	3613.64
567.42	3570.63
567.619	3527.63
567.818	3501
568.016	3593.16
568.215	3320.78
568.414	3566.54
568.612	3285.97
568.811	3140.56
569.01	3075.03
569.208	2999.25
569.407	3079.12
569.605	3091.41
569.804	2995.15
570.002	3029.97
570.201	2874.32
570.4	2974.67
570.598	2800.6
570.797	2724.82
570.995	2634.71
571.193	2681.82
571.392	2651.1
571.59	2509.79
571.789	2737.11
571.987	2577.37
572.186	2667.48
572.384	2546.65
572.582	2368.48
572.781	2450.39
572.979	2333.66
573.177	2202.59
573.376	2343.9
573.574	2249.69
573.772	2278.37
573.971	2048.99
574.169	2034.66
574.367	2130.91
574.565	2077.66
574.763	2069.47
574.962	2085.86
575.16	1917.92
575.358	2034.66
575.556	1895.4
575.754	1973.22
575.952	1891.3
576.151	1936.35
576.349	1842.15
576.547	1704.93
576.745	1715.17
576.943	1702.89
577.141	1711.08
577.339	1606.63
577.537	1653.73
577.735	1713.13
577.933	1674.21
578.131	1539.05
578.329	1682.41
578.527	1506.28
578.725	1545.19
578.923	1414.12
579.121	1606.63
579.319	1254.38
579.516	1397.74
579.714	1731.56
579.912	1422.31
580.11	1272.81
580.308	1268.72
580.506	1262.57
580.704	1231.85
580.901	1205.23
581.099	1448.94
581.297	1207.28
581.495	1289.2
581.692	1250.28
581.89	1180.65
582.088	1135.6
582.285	1166.32
582.483	1057.78
582.681	963.57
582.878	1008.62
583.076	1041.39
583.274	1063.92
583.471	1121.26
583.669	973.81
583.866	994.29
584.064	934.9
584.262	820.21
584.459	902.13
584.657	941.04
584.854	953.33
585.052	959.47
585.249	959.47
585.447	855.03
585.644	777.2
585.841	910.32
586.039	816.12
586.236	1004.53
586.434	844.79
586.631	830.45
586.828	758.77
587.026	812.02
587.223	715.77
587.42	721.91
587.618	789.49
587.815	883.7
588.012	773.11
588.21	707.57
588.407	748.53
588.604	789.49
588.801	639.99
588.999	687.09
589.196	752.63
589.393	750.58
589.59	805.88
589.787	631.8
589.984	668.66
590.182	701.43
590.379	603.13
590.576	699.38
590.773	617.46
590.97	734.2
591.167	623.61
591.364	623.61
591.561	605.17
591.758	769.01
591.955	721.91
592.152	711.67
592.349	627.7
592.546	623.61
592.743	562.17
592.94	592.89
593.137	764.92
593.334	719.86
593.531	717.81
593.727	697.33
593.924	685.05
594.121	650.23
594.318	572.41
594.515	705.53
594.712	703.48
594.908	801.78
595.105	564.22
595.302	742.39
595.499	613.37
595.696	816.12
595.892	693.24
596.089	840.69
596.286	756.72
596.482	945.14
596.679	820.21
596.876	809.97
597.072	852.98
597.269	857.07
597.466	824.31
597.662	904.18
597.859	846.84
598.055	932.85
598.252	906.23
598.448	1098.74
598.645	1100.78
598.841	1102.83
599.038	1229.81
599.234	1192.94
599.431	1151.98
599.627	1137.65
599.824	1268.72
600.02	1215.47
600.217	1369.07
600.413	1438.7
600.609	1430.51
600.806	1786.85
601.002	1520.62
601.198	1614.82
601.395	1801.19
601.591	1821.67
601.787	1930.21
601.984	1954.79
602.18	2048.99
602.376	1995.75
602.572	2161.63
602.769	2255.84
602.965	2364.38
603.161	2448.35
603.357	2513.88
603.553	2700.25
603.75	2591.7
603.946	2673.62
604.142	2661.34
604.338	2952.15
604.534	2997.2
604.73	3068.88
604.926	3079.12
605.122	3302.35
605.318	3224.53
605.514	3556.3
605.71	3611.59
605.906	3791.81
606.102	3666.89
606.298	3918.79
606.494	3924.93
606.69	4348.86
606.886	4332.48
607.082	4164.54
607.278	4348.86
607.474	4588.47
607.67	4721.59
607.866	4744.12
608.062	5043.12
608.257	5053.36
608.453	5174.19
608.649	5440.43
608.845	5438.38
609.041	5596.07
609.236	5993.38
609.432	6069.16
609.628	6161.31
609.824	6417.31
610.019	6486.94
610.215	6687.64
610.411	6753.18
610.606	7052.18
610.802	7119.76
610.998	7451.53
611.193	7766.92
611.389	7664.52
611.584	8045.45
611.78	8008.58
611.976	8217.47
612.171	8694.65
612.367	8735.61
612.562	9098.1
612.758	9210.74
612.953	9311.09
613.149	9894.76
613.344	9999.21
613.539	10437.47
613.735	10576.73
613.93	10785.63
614.126	10947.42
614.321	11539.28
614.517	11459.41
614.712	11930.44
614.907	12317.51
615.103	12546.88
615.298	12849.98
615.493	12985.15
615.688	13278.01
615.884	14166.82
616.079	13912.88
616.274	14721.82
616.47	14975.77
616.665	15274.77
616.86	15538.96
617.055	16175.88
617.25	16417.54
617.445	16915.2
617.641	17042.17
617.836	17625.84
618.031	17617.65
618.226	18596.58
618.421	18866.91
618.616	19397.34
618.811	19729.11
619.006	20511.43
619.201	20529.86
619.396	21136.06
619.591	21021.38
619.786	22055.6
619.981	22440.62
620.176	23130.78
620.371	23288.48
620.566	24076.94
620.761	24175.25
620.956	25172.61
621.151	25205.38
621.346	25991.8
621.541	26342
621.735	27026.02
621.93	27284.06
622.125	27812.44
622.32	27632.22
622.515	28676.68
622.709	29518.4
622.904	30034.49
623.099	29968.95
623.294	30888.49
623.488	31259.17
623.683	31879.71
623.878	32225.81
624.072	32834.06
624.267	33454.59
624.462	34054.65
624.656	34073.08
624.851	34931.18
625.046	35183.08
625.24	35815.9
625.435	35848.67
625.629	36628.95
625.824	37282.25
626.018	37585.35
626.213	37716.42
626.407	38627.76
626.602	38474.16
626.796	39276.97
626.991	39369.13
627.185	39715.23
627.38	40167.84
627.574	39735.71
627.768	40442.26
627.963	40032.67
628.157	40196.51
628.352	41171.34
628.546	40475.03
628.74	40909.2
628.935	40300.95
629.129	40993.17
629.323	40110.49
629.517	40034.72
629.712	39745.95
629.906	39891.36
630.1	39033.26
630.294	38584.76
630.489	37994.94
630.683	37781.95
630.877	36737.49
631.071	36227.54
631.265	35670.5
631.459	34998.76
631.653	34243.06
631.848	33378.82
632.042	32711.18
632.236	32113.17
632.43	30810.67
632.624	30433.84
632.818	29149.76
633.012	28381.77
633.206	27372.13
633.4	26380.91
633.594	25657.98
633.788	24775.3
633.982	23896.72
634.176	23497.37
634.369	22192.81
634.563	21484.22
634.757	20409.03
634.951	19722.96
635.145	19012.32
635.339	18496.23
635.533	17550.07
635.726	16591.62
635.92	16167.69
636.114	15411.99
636.308	14801.69
636.501	14289.7
636.695	13761.33
636.889	13099.83
637.083	12608.32
637.276	12036.94
637.47	11418.45
637.664	11094.87
637.857	10601.31
638.051	10273.64
638.244	9851.75
638.438	9485.17
638.632	9165.68
638.825	8647.55
639.019	8414.08
639.212	7842.7
639.406	7803.78
639.599	7392.14
639.793	7125.91
639.986	6722.46
640.18	6720.41
640.373	6429.6
640.567	5940.13
640.76	6079.4
640.954	5548.97
641.147	5360.56
641.34	5168.05
641.534	5049.27
641.727	4996.02
641.92	4740.02
642.114	4410.3
642.307	4348.86
642.5	4182.98
642.694	3732.42
642.887	3945.41
643.08	3791.81
643.273	3648.46
643.467	3335.12
643.66	3300.3
643.853	3027.92
644.046	2941.91
644.239	2993.11
644.432	2833.36
644.626	2640.86
644.819	2606.04
645.012	2595.8
645.205	2464.73
645.398	2421.72
645.591	2186.21
645.784	2184.16
645.977	2075.62
646.17	1901.54
646.363	1936.35
646.556	1838.05
646.749	1817.57
646.942	1762.28
647.135	1706.98
647.328	1582.06
647.521	1651.69
647.714	1354.73
647.907	1588.2
648.099	1350.64
648.292	1330.16
648.485	1178.61
648.678	1151.98
648.871	1115.12
649.064	1104.88
649.256	1043.44
649.449	955.38
649.642	1084.4
649.835	1047.54
650.027	951.28
650.22	994.29
650.413	875.51
650.605	850.93
650.798	754.68
650.991	840.69
651.183	769.01
651.376	771.06
651.568	740.34
651.761	680.95
651.954	592.89
652.146	594.93
652.339	717.81
652.531	623.61
652.724	510.97
652.916	551.93
653.109	482.3
653.301	658.42
653.494	560.12
653.686	584.7
653.879	556.02
654.071	564.22
654.263	422.91
654.456	412.67
654.648	529.4
654.84	494.58
655.033	416.76
655.225	525.3
655.417	277.5
655.61	558.07
655.802	424.95
655.994	549.88
656.186	336.89
656.379	439.29
656.571	304.12
656.763	275.45
656.955	355.32
657.148	306.17
657.34	478.2
657.532	261.12
657.724	293.88
657.916	273.4
658.108	371.71
658.3	312.32
658.492	324.6
658.684	248.83
658.876	297.98
659.068	150.53
659.26	181.25
659.452	205.82
659.644	265.21
659.836	381.95
660.028	291.84
660.22	171.01
660.412	203.77
660.604	250.88
660.796	240.64
660.988	293.88
661.18	271.36
661.372	269.31
661.563	234.49
661.755	222.2
661.947	152.57
662.139	109.57
662.331	113.66
662.522	191.49
662.714	166.91
662.906	158.72
663.097	156.67
663.289	140.29
663.481	-7.17
663.673	183.29
663.864	201.72
664.056	228.35
664.247	119.81
664.439	257.02
664.631	185.34
664.822	201.72
665.014	195.58
665.205	97.28
665.397	103.42
665.588	246.78
665.78	156.67
665.971	179.2
666.163	132.09
666.354	195.58
666.546	60.42
666.737	134.14
666.929	35.84
667.12	87.04
667.311	91.13
667.503	76.8
667.694	240.64
667.885	179.2
668.077	191.49
668.268	5.12
668.459	95.23
668.651	203.77
668.842	211.96
669.033	-3.07
669.224	58.37
669.416	228.35
669.607	60.42
669.798	103.42
669.989	240.64
670.18	95.23
670.371	166.91
670.563	76.8
670.754	197.63
670.945	185.34
671.136	199.68
671.327	84.99
671.518	205.82
671.709	275.45
671.9	265.21
672.091	205.82
672.282	156.67
672.473	113.66
672.664	13.31
672.855	54.27
673.046	146.43
673.237	70.65
673.428	111.61
673.619	228.35
673.809	152.57
674	175.1
674.191	218.11
674.382	103.42
674.573	185.34
674.764	150.53
674.954	220.16
675.145	70.65
675.336	33.79
675.527	54.27
675.717	197.63
675.908	46.08
676.099	134.14
676.289	119.81
676.48	9.22
676.671	119.81
676.861	95.23
677.052	103.42
677.243	128
677.433	33.79
677.624	162.81
677.814	138.24
678.005	9.22
678.195	224.25
678.386	121.85
678.576	150.53
678.767	15.36
678.957	82.94
679.148	166.91
679.338	228.35
679.529	121.85
679.719	109.57
679.909	203.77
680.1	191.49
680.29	203.77
680.481	111.61
680.671	181.25
680.861	154.62
681.052	220.16
681.242	13.31
681.432	146.43
681.622	125.95
681.813	123.9
682.003	150.53
682.193	72.7
682.383	136.19
682.573	128
682.764	132.09
682.954	148.48
683.144	248.83
683.334	80.89
683.524	164.86
683.714	119.81
683.904	177.15
684.094	152.57
684.284	171.01
684.474	201.72
684.664	236.54
684.854	91.13
685.044	148.48
685.234	148.48
685.424	173.05
685.614	168.96
685.804	254.97
685.994	171.01
686.184	183.29
686.374	191.49
686.564	136.19
686.753	166.91
686.943	84.99
687.133	187.39
687.323	93.18
687.513	199.68
687.702	148.48
687.892	107.52
688.082	218.11
688.272	248.83
688.461	162.81
688.651	318.46
688.841	214.01
689.03	111.61
689.22	91.13
689.41	152.57
689.599	216.06
689.789	138.24
689.979	254.97
690.168	132.09
690.358	191.49
690.547	111.61
690.737	216.06
690.926	160.77
691.116	162.81
691.305	291.84
691.495	201.72
691.684	101.37
691.874	128
692.063	136.19
692.252	199.68
692.442	162.81
692.631	76.8
692.82	123.9
693.01	173.05
693.199	142.33
693.388	244.73
693.578	125.95
693.767	142.33
693.956	134.14
694.146	66.56
694.335	130.05
694.524	152.57
694.713	195.58
694.902	220.16
695.092	152.57
695.281	136.19
695.47	91.13
695.659	117.76
695.848	226.3
696.037	80.89
696.226	240.64
696.415	97.28
696.604	228.35
696.793	254.97
696.982	171.01
697.171	314.36
697.36	99.33
697.549	224.25
697.738	125.95
697.927	142.33
698.116	125.95
698.305	191.49
698.494	183.29
698.683	173.05
698.872	173.05
699.061	175.1
699.25	171.01
699.438	191.49
699.627	91.13
699.816	369.66
700.005	156.67
700.193	134.14
700.382	156.67
700.571	140.29
700.76	152.57
700.948	228.35
701.137	211.96
701.326	244.73
701.514	119.81
701.703	193.53
701.892	146.43
702.08	386.04
702.269	205.82
702.457	84.99
702.646	189.44
702.834	72.7
703.023	148.48
703.212	244.73
703.4	146.43
703.589	107.52
703.777	123.9
703.965	136.19
704.154	80.89
704.342	158.72
704.531	168.96
704.719	205.82
704.907	240.64
705.096	66.56
705.284	62.46
705.472	181.25
705.661	193.53
705.849	216.06
706.037	209.92
706.226	156.67
706.414	189.44
706.602	89.09
706.79	220.16
706.979	117.76
707.167	171.01
707.355	121.85
707.543	220.16
707.731	117.76
707.919	123.9
708.107	105.47
708.296	119.81
708.484	130.05
708.672	168.96
708.86	181.25
709.048	146.43
709.236	101.37
709.424	250.88
709.612	230.4
709.8	3.07
709.988	146.43
710.176	220.16
710.364	261.12
710.551	175.1
710.739	105.47
710.927	58.37
711.115	130.05
711.303	267.26
711.491	222.2
711.679	91.13
711.866	218.11
712.054	166.91
712.242	189.44
712.43	283.64
712.617	164.86
712.805	261.12
712.993	132.09
713.181	99.33
713.368	234.49
713.556	191.49
713.744	140.29
713.931	328.7
714.119	144.38
714.306	177.15
714.494	144.38
714.682	142.33
714.869	58.37
715.057	148.48
715.244	60.42
715.432	142.33
715.619	130.05
715.807	150.53
715.994	105.47
716.182	171.01
716.369	273.4
716.556	199.68
716.744	93.18
716.931	82.94
717.119	191.49
717.306	130.05
717.493	183.29
717.681	109.57
717.868	33.79
718.055	150.53
718.242	113.66
718.43	322.56
718.617	254.97
718.804	148.48
718.991	234.49
719.179	162.81
719.366	214.01
719.553	279.55
719.74	214.01
719.927	130.05
720.114	134.14
720.301	95.23
720.488	119.81
720.676	107.52
720.863	226.3
721.05	314.36
721.237	119.81
721.424	228.35
721.611	228.35
721.798	76.8
721.985	76.8
722.172	226.3
722.358	238.59
722.545	271.36
722.732	209.92
722.919	214.01
723.106	250.88
723.293	164.86
723.48	226.3
723.667	111.61
723.853	248.83
724.04	283.64
724.227	158.72
724.414	181.25
724.6	224.25
724.787	308.22
724.974	267.26
725.161	134.14
725.347	35.84
725.534	148.48
725.72	216.06
725.907	232.44
726.094	302.08
726.28	140.29
726.467	287.74
726.653	136.19
726.84	166.91
727.027	351.23
727.213	195.58
727.4	205.82
727.586	166.91
727.773	226.3
727.959	234.49
728.145	236.54
728.332	259.07
728.518	185.34
728.705	277.5
728.891	248.83
729.077	238.59
729.264	134.14
729.45	80.89
729.636	306.17
729.823	224.25
730.009	214.01
730.195	195.58
730.382	291.84
730.568	146.43
730.754	134.14
730.94	259.07
731.126	189.44
731.313	263.16
731.499	234.49
731.685	257.02
731.871	308.22
732.057	171.01
732.243	216.06
732.429	254.97
732.615	302.08
732.801	242.68
732.987	205.82
733.173	150.53
733.359	142.33
733.545	230.4
733.731	197.63
733.917	349.18
734.103	259.07
734.289	191.49
734.475	154.62
734.661	302.08
734.847	244.73
735.033	277.5
735.219	285.69
735.404	257.02
735.59	144.38
735.776	214.01
735.962	160.77
736.148	283.64
736.333	252.92
736.519	211.96
736.705	152.57
736.89	224.25
737.076	269.31
737.262	175.1
737.447	211.96
737.633	209.92
737.819	248.83
738.004	160.77
738.19	244.73
738.375	156.67
738.561	312.32
738.747	173.05
738.932	181.25
739.118	394.23
739.303	238.59
739.489	218.11
739.674	130.05
739.859	68.61
740.045	302.08
740.23	201.72
740.416	173.05
740.601	240.64
740.786	334.84
740.972	132.09
741.157	181.25
741.342	134.14
741.528	123.9
741.713	306.17
741.898	164.86
742.084	224.25
742.269	134.14
742.454	222.2
742.639	273.4
742.824	150.53
743.01	306.17
743.195	320.51
743.38	203.77
743.565	216.06
743.75	152.57
743.935	246.78
744.12	328.7
744.305	160.77
744.49	218.11
744.675	195.58
744.86	179.2
745.045	394.23
745.23	171.01
745.415	158.72
745.6	240.64
745.785	166.91
745.97	308.22
746.155	234.49
746.34	304.12
746.525	234.49
746.71	318.46
746.895	152.57
747.079	199.68
747.264	224.25
747.449	287.74
747.634	193.53
747.819	171.01
748.003	160.77
748.188	158.72
748.373	142.33
748.557	242.68
748.742	275.45
748.927	156.67
749.111	156.67
749.296	226.3
749.481	216.06
749.665	140.29
749.85	115.71
750.034	269.31
750.219	207.87
750.404	148.48
750.588	248.83
750.773	87.04
750.957	214.01
751.141	177.15
751.326	199.68
751.51	78.85
751.695	162.81
751.879	171.01
752.064	357.37
752.248	230.4
752.432	275.45
752.617	175.1
752.801	211.96
752.985	148.48
753.17	265.21
753.354	234.49
753.538	232.44
753.722	111.61
753.907	160.77
754.091	78.85
754.275	246.78
754.459	113.66
754.643	68.61
754.828	152.57
755.012	162.81
755.196	91.13
755.38	99.33
755.564	74.75
755.748	158.72
755.932	220.16
756.116	162.81
756.3	234.49
756.484	58.37
756.668	148.48
756.852	7.17
757.036	76.8
757.22	125.95
757.404	132.09
757.588	35.84
757.772	150.53
757.956	91.13
758.14	257.02
758.323	146.43
758.507	224.25
758.691	128
758.875	193.53
759.059	271.36
759.242	54.27
759.426	132.09
759.61	119.81
759.794	58.37
759.977	107.52
760.161	326.65
760.345	199.68
760.528	123.9
760.712	136.19
760.895	138.24
761.079	125.95
761.263	29.7
761.446	-3.07
761.63	62.46
761.813	207.87
761.997	1.02
762.18	181.25
762.364	203.77
762.547	-62.46
762.731	68.61
762.914	95.23
763.098	72.7
763.281	58.37
763.464	17.41
763.648	146.43
763.831	39.94
764.015	-82.94
764.198	138.24
764.381	87.04
764.564	66.56
764.748	105.47
764.931	152.57
765.114	58.37
765.297	128
765.481	-17.41
765.664	74.75
765.847	25.6
766.03	136.19
766.213	29.7
766.397	105.47
766.58	-27.65
766.763	181.25
766.946	89.09
767.129	52.22
767.312	31.74
767.495	87.04
767.678	11.26
767.861	107.52
768.044	84.99
768.227	121.85
768.41	41.98
768.593	33.79
768.776	158.72
768.959	64.51
769.142	89.09
769.324	66.56
769.507	29.7
769.69	58.37
769.873	93.18
770.056	257.02
770.239	103.42
770.421	80.89
770.604	56.32
770.787	84.99
770.97	87.04
771.152	-39.94
771.335	121.85
771.518	-27.65
771.7	173.05
771.883	254.97
772.066	21.5
772.248	142.33
772.431	179.2
772.613	164.86
772.796	48.13
772.978	44.03
773.161	199.68
773.343	27.65
773.526	5.12
773.708	-54.27
773.891	21.5
774.073	48.13
774.256	23.55
774.438	146.43
774.621	117.76
774.803	82.94
774.985	25.6
775.168	-25.6
775.35	78.85
775.532	175.1
775.715	11.26
775.897	64.51
776.079	74.75
776.261	41.98
776.444	105.47
776.626	46.08
776.808	17.41
776.99	-3.07
777.173	87.04
777.355	113.66
777.537	62.46
777.719	60.42
777.901	-17.41
778.083	-19.46
778.265	-41.98
778.447	148.48
778.629	41.98
778.811	54.27
778.993	66.56
779.175	87.04
779.357	87.04
779.539	7.17
779.721	-21.5
779.903	66.56
780.085	56.32
780.267	44.03
780.449	54.27
780.631	46.08
780.812	91.13
780.994	23.55
781.176	74.75
781.358	37.89
781.54	37.89
781.721	50.18
781.903	130.05
782.085	19.46
782.267	119.81
782.448	-29.7
782.63	-33.79
782.812	37.89
782.993	107.52
783.175	62.46
783.357	13.31
783.538	117.76
783.72	-9.22
783.901	107.52
784.083	107.52
784.264	35.84
784.446	-109.57
784.627	-35.84
784.809	111.61
784.99	1.02
785.172	138.24
785.353	76.8
785.535	-5.12
785.716	46.08
785.897	-89.09
786.079	76.8
786.26	60.42
786.441	93.18
786.623	11.26
786.804	11.26
786.985	1.02
787.167	48.13
787.348	25.6
787.529	27.65
787.71	119.81
787.891	23.55
788.073	27.65
788.254	-109.57
788.435	46.08
788.616	17.41
788.797	-44.03
788.978	52.22
789.159	-89.09
789.34	72.7
789.522	103.42
789.703	-31.74
789.884	35.84
790.065	109.57
790.246	99.33
790.427	7.17
790.607	130.05
790.788	72.7
790.969	-1.02
791.15	74.75
791.331	-1.02
791.512	1.02
791.693	-5.12
791.874	-3.07
792.054	152.57
792.235	19.46
792.416	7.17
792.597	-44.03
792.778	56.32
792.958	-9.22
793.139	7.17
793.32	15.36
793.5	13.31
793.681	27.65
793.862	15.36
794.042	72.7
794.223	-39.94
794.404	56.32
794.584	-117.76
794.765	39.94
794.945	46.08
795.126	3.07
795.306	76.8
795.487	82.94
795.667	-64.51
795.848	31.74
796.028	13.31
796.209	9.22
796.389	-15.36
796.57	93.18
796.75	31.74
796.93	25.6
797.111	-109.57
797.291	-15.36
797.471	95.23
797.652	-60.42
797.832	-25.6
798.012	31.74
798.192	-64.51
798.373	-39.94
798.553	52.22
798.733	9.22
798.913	-58.37
799.093	-70.65
799.274	-31.74
799.454	11.26
799.634	60.42
799.814	89.09
799.994	44.03
800.174	-35.84
800.354	-9.22
800.534	-70.65
800.714	23.55
800.894	-58.37
801.074	-54.27
801.254	1.02
801.434	84.99
801.614	-54.27
801.794	-84.99
801.974	2003.94
802.154	-21.5
802.334	56.32
802.514	19.46
802.693	3.07
802.873	7.17
803.053	142.33
803.233	7.17
803.413	58.37
803.592	-97.28
803.772	-66.56
803.952	3.07
804.131	-80.89
804.311	-3.07
804.491	80.89
804.67	-21.5
804.85	-64.51
805.03	64.51
805.209	33.79
805.389	-19.46
805.568	-91.13
805.748	-25.6
805.928	60.42
806.107	62.46
806.287	-13.31
806.466	113.66
806.646	41.98
806.825	-27.65
807.004	-68.61
807.184	9.22
807.363	74.75
807.543	56.32
807.722	-64.51
807.901	91.13
808.081	107.52
808.26	-134.14
808.439	33.79
808.619	-13.31
808.798	1.02
808.977	58.37
809.156	9.22
809.336	29.7
809.515	58.37
809.694	-52.22
809.873	-5.12
810.052	15.36
810.231	148.48
810.411	-41.98
810.59	66.56
810.769	66.56
810.948	46.08
811.127	-84.99
811.306	9.22
811.485	-105.47
811.664	97.28
811.843	48.13
812.022	-58.37
812.201	-7.17
812.38	-1.02
812.559	-109.57
812.737	1.02
812.916	-62.46
813.095	23.55
813.274	17.41
813.453	29.7
813.632	101.37
813.811	72.7
813.989	-119.81
814.168	7.17
814.347	-29.7
814.526	-37.89
814.704	109.57
814.883	64.51
815.062	-121.85
815.24	25.6
815.419	9.22
815.598	-56.32
815.776	-125.95
815.955	41.98
816.133	-128
816.312	-5.12
816.49	-68.61
816.669	39.94
816.847	29.7
817.026	11.26
817.204	-29.7
817.383	29.7
817.561	-29.7
817.74	-37.89
817.918	33.79
818.097	-101.37
818.275	-41.98
818.453	-21.5
818.632	3.07
818.81	-11.26
818.988	-23.55
819.167	-35.84
819.345	25.6
819.523	-97.28
819.701	89.09
819.879	56.32
820.058	60.42
820.236	-27.65
820.414	17.41
820.592	-39.94
820.77	-44.03
820.948	19.46
821.127	3.07
821.305	140.29
821.483	-76.8
821.661	93.18
821.839	60.42
822.017	-46.08
822.195	-37.89
822.373	-15.36
822.551	35.84
822.729	15.36
822.907	-11.26
823.085	60.42
823.262	11.26
823.44	-7.17
823.618	-17.41
823.796	-29.7
823.974	-1.02
824.152	-70.65
824.329	-25.6
824.507	-23.55
824.685	119.81
824.863	-72.7
825.04	-17.41
825.218	33.79
825.396	-9.22
825.574	-15.36
825.751	62.46
825.929	44.03
826.107	-52.22
826.284	-54.27
826.462	64.51
826.639	-107.52
826.817	-103.42
826.994	3.07
827.172	-70.65
827.349	84.99
827.527	3.07
827.704	33.79
827.882	80.89
828.059	13.31
828.237	-3.07
828.414	105.47
828.591	-91.13
828.769	-44.03
828.946	-64.51
829.124	46.08
829.301	99.33
829.478	-44.03
829.655	95.23
829.833	3.07
830.01	-103.42
830.187	15.36
830.364	54.27
830.542	-72.7
830.719	121.85
830.896	-56.32
831.073	54.27
831.25	41.98
831.427	33.79
831.604	-21.5
831.782	-56.32
831.959	1.02
832.136	-29.7
832.313	-25.6
832.49	-17.41
832.667	11.26
832.844	-17.41
833.021	117.76
833.198	-39.94
833.374	-5.12
833.551	29.7
833.728	56.32
833.905	64.51
834.082	-123.9
834.259	-25.6
834.436	107.52
834.612	-5.12
834.789	107.52
834.966	-52.22
835.143	-33.79
835.319	-99.33
835.496	87.04
835.673	-5.12
835.85	33.79
836.026	70.65
836.203	84.99
836.38	5.12
836.556	-70.65
836.733	-48.13
836.909	171.01
837.086	-54.27
837.262	-48.13
837.439	-7.17
837.616	-68.61
837.792	39.94
837.968	1.02
838.145	-125.95
838.321	-41.98
838.498	33.79
838.674	37.89
838.851	29.7
839.027	-31.74
839.203	11.26
839.38	44.03
839.556	-11.26
839.732	58.37
839.909	-11.26
840.085	-21.5
840.261	-89.09
840.437	-62.46
840.614	-9.22
840.79	54.27
840.966	13.31
841.142	-70.65
841.318	-29.7
841.494	107.52
841.671	80.89
841.847	-29.7
842.023	-41.98
842.199	56.32
842.375	-3.07
842.551	-54.27
842.727	-91.13
842.903	95.23
843.079	-66.56
843.255	84.99
843.431	-19.46
843.607	27.65
843.783	-91.13
843.959	107.52
844.134	-121.85
844.31	25.6
844.486	-66.56
844.662	-41.98
844.838	21.5
845.013	50.18
845.189	97.28
845.365	7.17
845.541	1.02
845.716	9.22
845.892	87.04
846.068	17.41
846.244	-52.22
846.419	52.22
846.595	-50.18
846.77	-97.28
846.946	-64.51
847.122	-144.38
847.297	9.22
847.473	156.67
847.648	-95.23
847.824	-19.46
847.999	-115.71
848.175	-7.17
848.35	5.12
848.526	68.61
848.701	74.75
848.876	52.22
849.052	64.51
849.227	-13.31
849.403	1.02
849.578	-23.55
849.753	66.56
849.929	-44.03
850.104	-132.09
850.279	-33.79
850.454	48.13
850.63	64.51
850.805	11.26
850.98	-7.17
851.155	-15.36
851.33	-7.17
851.505	-7.17
851.681	60.42
851.856	-41.98
852.031	19.46
852.206	41.98
852.381	-7.17
852.556	-50.18
852.731	11.26
852.906	1.02
853.081	-60.42
853.256	78.85
853.431	-35.84
853.606	17.41
853.781	-111.61
853.956	-185.34
854.131	13.31
854.305	-54.27
854.48	5.12
854.655	-50.18
854.83	-5.12
855.005	23.55
855.18	-19.46
855.354	1.02
855.529	-60.42
855.704	25.6
855.879	-9.22
856.053	-37.89
856.228	48.13
856.403	-54.27
856.577	-5.12
856.752	-95.23
856.926	-41.98
857.101	-17.41
857.276	-50.18
857.45	52.22
857.625	46.08
857.799	52.22
857.974	-68.61
858.148	-62.46
858.323	-60.42
858.497	7.17
858.672	-19.46
858.846	-44.03
859.02	48.13
859.195	-80.89
859.369	19.46
859.543	50.18
859.718	9.22
859.892	31.74
860.066	-23.55
860.241	-125.95
860.415	-9.22
860.589	52.22
860.763	-31.74
860.938	-64.51
861.112	17.41
861.286	-74.75
861.46	23.55
861.634	-9.22
861.808	84.99
861.982	-103.42
862.157	-107.52
862.331	-66.56
862.505	-103.42
862.679	-93.18
862.853	-33.79
863.027	72.7
863.201	128
863.375	-52.22
863.549	27.65
863.722	39.94
863.896	115.71
864.07	-99.33
864.244	9.22
864.418	41.98
864.592	-80.89
864.766	66.56
864.939	7.17
865.113	-78.85
865.287	58.37
865.461	-97.28
865.634	52.22
865.808	17.41
865.982	7.17
866.156	-50.18
866.329	-62.46
866.503	9.22
866.676	101.37
866.85	-21.5
867.024	-80.89
867.197	48.13
867.371	-37.89
867.544	-33.79
867.718	-48.13
867.891	84.99
868.065	-115.71
868.238	-29.7
868.412	68.61
868.585	-44.03
868.759	-48.13
868.932	-50.18
869.105	-60.42
869.279	15.36
869.452	-134.14
869.625	33.79
869.799	19.46
869.972	-119.81
870.145	44.03
870.319	105.47
870.492	-76.8
870.665	-27.65
870.838	-99.33
871.011	-97.28
871.185	-58.37
871.358	-82.94
871.531	99.33
871.704	-35.84
871.877	-5.12
872.05	-7.17
872.223	-7.17
872.396	105.47
872.569	27.65
872.742	-87.04
872.915	35.84
873.088	-87.04
873.261	-11.26
873.434	52.22
873.607	-52.22
873.78	15.36
873.953	-164.86
874.126	58.37
874.299	-11.26
874.471	-31.74
874.644	-37.89
874.817	44.03
874.99	89.09
875.163	-70.65
875.335	7.17
875.508	-15.36
875.681	72.7
875.853	-70.65
876.026	19.46
876.199	-48.13
876.371	-29.7
876.544	-101.37
876.717	-50.18
876.889	-84.99
877.062	99.33
877.234	-138.24
877.407	-64.51
877.579	-54.27
877.752	84.99
877.924	56.32
878.097	-1.02
878.269	29.7
878.442	-3.07
878.614	-13.31
878.786	21.5
878.959	-62.46
879.131	84.99
879.303	-123.9
879.476	13.31
879.648	76.8
879.82	29.7
879.993	-158.72
880.165	-41.98
880.337	-56.32
880.509	60.42
880.681	-93.18
880.854	-54.27
881.026	56.32
881.198	125.95
881.37	7.17
881.542	-58.37
881.714	13.31
881.886	-44.03
882.058	-87.04
882.23	3.07
882.402	-41.98
882.574	15.36
882.746	5.12
882.918	173.05
883.09	58.37
883.262	44.03
883.434	33.79
883.606	-123.9
883.778	-7.17
883.95	158.72
884.122	-37.89
884.293	64.51
884.465	17.41
884.637	-29.7
884.809	-5.12
884.98	-3.07
885.152	87.04
885.324	70.65
885.496	27.65
885.667	-19.46
885.839	-56.32
886.011	52.22
886.182	64.51
886.354	46.08
886.525	-1.02
886.697	-29.7
886.869	-84.99
887.04	-93.18
887.212	95.23
887.383	119.81
887.555	-21.5
887.726	-7.17
887.897	-76.8
888.069	-23.55
888.24	146.43
888.412	-39.94
888.583	-25.6
888.754	-46.08
888.926	-101.37
889.097	-62.46
889.268	-156.67
889.44	21.5
889.611	-130.05
889.782	-33.79
889.953	-72.7
890.125	111.61
890.296	-25.6
890.467	-39.94
890.638	-93.18
890.809	-5.12
890.98	-72.7
891.151	76.8
891.323	89.09
891.494	-62.46
891.665	5.12
891.836	-46.08
892.007	9.22
892.178	-60.42
892.349	-89.09
892.52	-70.65
892.691	-1.02
892.862	-44.03
893.032	-11.26
893.203	-58.37
893.374	31.74
893.545	33.79
893.716	-31.74
893.887	99.33
894.057	-41.98
894.228	-9.22
894.399	-52.22
894.57	48.13
894.74	-82.94
894.911	84.99
895.082	-5.12
895.253	-62.46
895.423	-7.17
895.594	9.22
895.764	19.46
895.935	-56.32
896.106	33.79
896.276	-5.12
896.447	60.42
896.617	-52.22
896.788	-76.8
896.958	-48.13
897.129	-93.18
897.299	-60.42
897.47	119.81
897.64	9.22
897.81	-21.5
897.981	-5.12
898.151	-31.74
898.322	21.5
898.492	76.8
898.662	-146.43
898.832	-80.89
899.003	-39.94
899.173	-5.12
899.343	-29.7
899.513	-25.6
