Data from USB4F104151__292__11-21-12-128.txt Node

Date: Wed Feb 26 11:21:12 EST 2025
User: louis
Spectrometer: USB4F10415
Trigger mode: 4
Integration Time (sec): 1.000000E-1
Scans to average: 1
Electric dark correction enabled: true
Nonlinearity correction enabled: false
Boxcar width: 0
XAxis mode: Wavelengths
Number of Pixels in Spectrum: 3648
>>>>>Begin Spectral Data<<<<<
178.204	-400.89
178.424	-400.89
178.644	-400.89
178.864	-415.23
179.084	-435.71
179.304	-40.45
179.524	-58.88
179.744	59.9
179.964	18.94
180.184	23.04
180.404	61.95
180.624	-34.3
180.844	37.38
181.064	-69.12
181.283	-17.92
181.503	-13.82
181.723	33.28
181.943	-177.66
182.163	186.88
182.383	35.33
182.602	35.33
182.822	158.21
183.042	107.01
183.262	-73.21
183.482	-15.87
183.701	-5.63
183.921	70.14
184.141	-46.59
184.361	119.29
184.58	55.81
184.8	104.96
185.02	16.9
185.239	-3.58
185.459	55.81
185.679	66.05
185.898	-83.45
186.118	80.38
186.338	76.29
186.557	43.52
186.777	-58.88
186.997	-17.92
187.216	-1.54
187.436	176.64
187.655	-7.68
187.875	80.38
188.095	41.47
188.314	98.81
188.534	162.3
188.753	-24.06
188.973	123.39
189.192	104.96
189.412	47.62
189.631	37.38
189.851	143.87
190.07	150.01
190.29	-50.69
190.509	-24.06
190.729	37.38
190.948	123.39
191.168	281.08
191.387	37.38
191.607	-13.82
191.826	6.66
192.045	55.81
192.265	-1.54
192.484	8.7
192.704	-60.93
192.923	10.75
193.142	190.97
193.362	45.57
193.581	111.1
193.8	45.57
194.02	27.14
194.239	55.81
194.458	53.76
194.678	-22.02
194.897	25.09
195.116	-1.54
195.335	166.4
195.555	64
195.774	-54.78
195.993	123.39
196.212	-54.78
196.432	-46.59
196.651	-73.21
196.87	84.48
197.089	205.31
197.308	-19.97
197.528	0.51
197.747	-13.82
197.966	66.05
198.185	90.62
198.404	-81.41
198.623	70.14
198.842	33.28
199.062	94.72
199.281	168.45
199.5	53.76
199.719	74.24
199.938	150.01
200.157	-19.97
200.376	133.63
200.595	141.82
200.814	109.05
201.033	-36.35
201.252	168.45
201.471	6.66
201.69	66.05
201.909	27.14
202.128	49.66
202.347	49.66
202.566	-19.97
202.785	-46.59
203.004	33.28
203.223	195.07
203.442	80.38
203.661	-9.73
203.879	115.2
204.098	107.01
204.317	-34.3
204.536	86.53
204.755	-17.92
204.974	143.87
205.193	20.99
205.411	195.07
205.63	53.76
205.849	18.94
206.068	-32.26
206.287	-11.78
206.505	98.81
206.724	37.38
206.943	4.61
207.162	-1.54
207.381	47.62
207.599	-22.02
207.818	33.28
208.037	-87.55
208.255	-5.63
208.474	76.29
208.693	59.9
208.911	10.75
209.13	109.05
209.349	70.14
209.567	25.09
209.786	12.8
210.005	37.38
210.223	14.85
210.442	-120.32
210.661	-15.87
210.879	53.76
211.098	-56.83
211.316	61.95
211.535	66.05
211.753	6.66
211.972	29.18
212.191	-52.74
212.409	-54.78
212.628	207.36
212.846	-101.89
213.065	72.19
213.283	154.11
213.502	-36.35
213.72	10.75
213.938	-5.63
214.157	-26.11
214.375	215.55
214.594	6.66
214.812	49.66
215.031	-1.54
215.249	119.29
215.467	41.47
215.686	37.38
215.904	4.61
216.122	-11.78
216.341	45.57
216.559	8.7
216.778	94.72
216.996	57.86
217.214	41.47
217.432	10.75
217.651	-65.02
217.869	14.85
218.087	-65.02
218.306	-17.92
218.524	-3.58
218.742	20.99
218.96	80.38
219.179	51.71
219.397	61.95
219.615	209.4
219.833	84.48
220.051	-58.88
220.27	64
220.488	72.19
220.706	59.9
220.924	-114.17
221.142	-32.26
221.36	27.14
221.578	-1.54
221.796	-46.59
222.015	39.42
222.233	33.28
222.451	131.58
222.669	57.86
222.887	94.72
223.105	6.66
223.323	-7.68
223.541	-30.21
223.759	2.56
223.977	14.85
224.195	178.69
224.413	49.66
224.631	47.62
224.849	49.66
225.067	174.59
225.285	-44.54
225.503	51.71
225.721	-42.5
225.939	78.33
226.157	31.23
226.375	219.64
226.592	-60.93
226.81	10.75
227.028	150.01
227.246	47.62
227.464	47.62
227.682	68.09
227.9	43.52
228.117	-48.64
228.335	68.09
228.553	8.7
228.771	49.66
228.989	107.01
229.206	66.05
229.424	6.66
229.642	-1.54
229.86	-58.88
230.077	82.43
230.295	51.71
230.513	104.96
230.731	143.87
230.948	104.96
231.166	27.14
231.384	47.62
231.601	-1.54
231.819	209.4
232.037	4.61
232.254	-5.63
232.472	-9.73
232.689	6.66
232.907	98.81
233.125	12.8
233.342	-28.16
233.56	37.38
233.777	-62.98
233.995	49.66
234.213	102.91
234.43	12.8
234.648	49.66
234.865	10.75
235.083	92.67
235.3	70.14
235.518	96.77
235.735	125.44
235.953	86.53
236.17	125.44
236.388	14.85
236.605	-19.97
236.822	92.67
237.04	64
237.257	35.33
237.475	-56.83
237.692	92.67
237.909	14.85
238.127	25.09
238.344	16.9
238.562	104.96
238.779	-87.55
238.996	-7.68
239.214	-13.82
239.431	-13.82
239.648	-1.54
239.865	86.53
240.083	33.28
240.3	4.61
240.517	-5.63
240.735	76.29
240.952	113.15
241.169	2.56
241.386	33.28
241.603	51.71
241.821	-28.16
242.038	-19.97
242.255	117.25
242.472	-36.35
242.689	31.23
242.907	90.62
243.124	66.05
243.341	35.33
243.558	-9.73
243.775	-40.45
243.992	-62.98
244.209	113.15
244.426	168.45
244.643	35.33
244.86	-11.78
245.078	162.3
245.295	55.81
245.512	25.09
245.729	0.51
245.946	27.14
246.163	14.85
246.38	-19.97
246.597	57.86
246.814	94.72
247.031	129.53
247.248	84.48
247.464	41.47
247.681	74.24
247.898	39.42
248.115	61.95
248.332	-97.79
248.549	197.12
248.766	178.69
248.983	137.73
249.2	125.44
249.417	80.38
249.633	-26.11
249.85	64
250.067	-7.68
250.284	35.33
250.501	57.86
250.717	131.58
250.934	-48.64
251.151	18.94
251.368	107.01
251.585	82.43
251.801	12.8
252.018	-32.26
252.235	107.01
252.451	39.42
252.668	-36.35
252.885	133.63
253.102	80.38
253.318	-50.69
253.535	-26.11
253.752	6.66
253.968	57.86
254.185	-24.06
254.401	16.9
254.618	-1.54
254.835	-75.26
255.051	90.62
255.268	33.28
255.484	78.33
255.701	14.85
255.917	80.38
256.134	6.66
256.351	0.51
256.567	-65.02
256.784	27.14
257	-58.88
257.217	78.33
257.433	86.53
257.65	47.62
257.866	82.43
258.082	-60.93
258.299	-71.17
258.515	90.62
258.732	2.56
258.948	-46.59
259.165	84.48
259.381	-42.5
259.597	98.81
259.814	20.99
260.03	61.95
260.246	-56.83
260.463	125.44
260.679	104.96
260.895	39.42
261.112	102.91
261.328	-1.54
261.544	-44.54
261.761	125.44
261.977	-62.98
262.193	-30.21
262.409	119.29
262.626	-19.97
262.842	-11.78
263.058	-81.41
263.274	113.15
263.49	66.05
263.707	55.81
263.923	53.76
264.139	-48.64
264.355	123.39
264.571	84.48
264.787	41.47
265.004	74.24
265.22	6.66
265.436	-30.21
265.652	20.99
265.868	25.09
266.084	43.52
266.3	4.61
266.516	16.9
266.732	39.42
266.948	43.52
267.164	-85.5
267.38	107.01
267.596	51.71
267.812	168.45
268.028	29.18
268.244	70.14
268.46	33.28
268.676	72.19
268.892	61.95
269.108	27.14
269.324	-69.12
269.54	-9.73
269.756	117.25
269.972	-40.45
270.188	-69.12
270.403	-99.84
270.619	-48.64
270.835	68.09
271.051	66.05
271.267	-62.98
271.483	-54.78
271.698	137.73
271.914	49.66
272.13	18.94
272.346	-42.5
272.562	57.86
272.777	59.9
272.993	-54.78
273.209	27.14
273.425	107.01
273.64	-17.92
273.856	88.57
274.072	-54.78
274.287	-87.55
274.503	39.42
274.719	131.58
274.934	2.56
275.15	-114.17
275.366	55.81
275.581	23.04
275.797	6.66
276.012	72.19
276.228	-83.45
276.444	100.86
276.659	25.09
276.875	-19.97
277.09	39.42
277.306	-19.97
277.521	104.96
277.737	-44.54
277.952	98.81
278.168	35.33
278.383	25.09
278.599	84.48
278.814	25.09
279.03	66.05
279.245	150.01
279.461	68.09
279.676	55.81
279.892	-5.63
280.107	-5.63
280.322	-87.55
280.538	43.52
280.753	-46.59
280.969	12.8
281.184	47.62
281.399	135.68
281.615	-40.45
281.83	12.8
282.045	-71.17
282.26	-124.41
282.476	59.9
282.691	53.76
282.906	121.34
283.122	27.14
283.337	-48.64
283.552	74.24
283.767	-112.13
283.983	55.81
284.198	8.7
284.413	90.62
284.628	-62.98
284.843	74.24
285.058	61.95
285.274	-26.11
285.489	47.62
285.704	129.53
285.919	94.72
286.134	-32.26
286.349	10.75
286.564	59.9
286.779	143.87
286.995	-60.93
287.21	2.56
287.425	35.33
287.64	-44.54
287.855	82.43
288.07	-73.21
288.285	104.96
288.5	86.53
288.715	86.53
288.93	41.47
289.145	-22.02
289.36	158.21
289.575	-40.45
289.79	41.47
290.004	-38.4
290.219	78.33
290.434	-44.54
290.649	51.71
290.864	76.29
291.079	51.71
291.294	78.33
291.509	66.05
291.724	-3.58
291.938	-24.06
292.153	80.38
292.368	37.38
292.583	45.57
292.798	102.91
293.012	80.38
293.227	45.57
293.442	6.66
293.657	88.57
293.871	72.19
294.086	72.19
294.301	78.33
294.516	129.53
294.73	23.04
294.945	-71.17
295.16	-73.21
295.374	76.29
295.589	98.81
295.804	37.38
296.018	-9.73
296.233	86.53
296.447	61.95
296.662	-30.21
296.877	209.4
297.091	68.09
297.306	51.71
297.52	8.7
297.735	92.67
297.949	96.77
298.164	47.62
298.378	74.24
298.593	-126.46
298.807	-17.92
299.022	14.85
299.236	133.63
299.451	-9.73
299.665	33.28
299.88	12.8
300.094	-5.63
300.309	31.23
300.523	6.66
300.737	-56.83
300.952	123.39
301.166	-7.68
301.381	-89.6
301.595	25.09
301.809	35.33
302.024	39.42
302.238	-34.3
302.452	27.14
302.667	-42.5
302.881	115.2
303.095	152.06
303.309	39.42
303.524	10.75
303.738	64
303.952	-34.3
304.166	23.04
304.381	-87.55
304.595	160.25
304.809	-24.06
305.023	14.85
305.237	-22.02
305.452	14.85
305.666	10.75
305.88	61.95
306.094	125.44
306.308	20.99
306.522	47.62
306.736	74.24
306.95	33.28
307.164	2.56
307.379	25.09
307.593	129.53
307.807	86.53
308.021	70.14
308.235	39.42
308.449	-34.3
308.663	-30.21
308.877	233.98
309.091	47.62
309.305	10.75
309.519	-110.08
309.733	147.97
309.947	-3.58
310.161	66.05
310.374	31.23
310.588	82.43
310.802	-3.58
311.016	37.38
311.23	51.71
311.444	-17.92
311.658	43.52
311.872	217.6
312.085	90.62
312.299	190.97
312.513	107.01
312.727	47.62
312.941	-36.35
313.154	53.76
313.368	39.42
313.582	10.75
313.796	20.99
314.009	-28.16
314.223	92.67
314.437	64
314.651	113.15
314.864	-69.12
315.078	-17.92
315.292	-91.65
315.505	27.14
315.719	78.33
315.933	45.57
316.146	-28.16
316.36	-58.88
316.573	109.05
316.787	70.14
317.001	80.38
317.214	-7.68
317.428	111.1
317.641	-40.45
317.855	-9.73
318.068	90.62
318.282	100.86
318.495	227.84
318.709	53.76
318.922	23.04
319.136	117.25
319.349	104.96
319.563	-3.58
319.776	31.23
319.99	-58.88
320.203	131.58
320.417	-19.97
320.63	72.19
320.843	176.64
321.057	43.52
321.27	-24.06
321.483	53.76
321.697	55.81
321.91	18.94
322.124	47.62
322.337	107.01
322.55	-73.21
322.763	-7.68
322.977	45.57
323.19	-54.78
323.403	-28.16
323.617	92.67
323.83	119.29
324.043	-46.59
324.256	137.73
324.469	-91.65
324.683	117.25
324.896	43.52
325.109	41.47
325.322	-85.5
325.535	125.44
325.748	39.42
325.962	-36.35
326.175	16.9
326.388	98.81
326.601	164.35
326.814	41.47
327.027	-30.21
327.24	102.91
327.453	-151.04
327.666	72.19
327.879	184.83
328.092	51.71
328.305	59.9
328.518	0.51
328.731	-87.55
328.944	-3.58
329.157	90.62
329.37	-11.78
329.583	154.11
329.796	154.11
330.009	-81.41
330.222	98.81
330.435	94.72
330.648	43.52
330.861	16.9
331.073	35.33
331.286	72.19
331.499	37.38
331.712	31.23
331.925	55.81
332.138	-15.87
332.35	123.39
332.563	-15.87
332.776	94.72
332.989	-30.21
333.202	16.9
333.414	-1.54
333.627	12.8
333.84	20.99
334.053	61.95
334.265	-30.21
334.478	-11.78
334.691	55.81
334.903	12.8
335.116	-13.82
335.329	78.33
335.541	61.95
335.754	119.29
335.966	-60.93
336.179	35.33
336.392	-17.92
336.604	43.52
336.817	180.73
337.029	51.71
337.242	55.81
337.454	59.9
337.667	29.18
337.88	51.71
338.092	35.33
338.305	96.77
338.517	-9.73
338.729	61.95
338.942	90.62
339.154	45.57
339.367	-36.35
339.579	53.76
339.792	-48.64
340.004	57.86
340.217	27.14
340.429	68.09
340.641	-17.92
340.854	-28.16
341.066	8.7
341.278	113.15
341.491	152.06
341.703	8.7
341.915	-3.58
342.128	162.3
342.34	53.76
342.552	-38.4
342.764	45.57
342.977	39.42
343.189	90.62
343.401	37.38
343.613	-40.45
343.826	49.66
344.038	-36.35
344.25	20.99
344.462	-19.97
344.674	76.29
344.886	-50.69
345.099	37.38
345.311	117.25
345.523	-50.69
345.735	-79.36
345.947	6.66
346.159	35.33
346.371	-13.82
346.583	-15.87
346.795	184.83
347.007	29.18
347.219	-36.35
347.431	47.62
347.643	190.97
347.855	31.23
348.067	137.73
348.279	-97.79
348.491	98.81
348.703	70.14
348.915	53.76
349.127	-44.54
349.339	-11.78
349.551	47.62
349.763	84.48
349.975	74.24
350.187	174.59
350.399	119.29
350.61	113.15
350.822	-24.06
351.034	53.76
351.246	-22.02
351.458	55.81
351.669	102.91
351.881	96.77
352.093	152.06
352.305	92.67
352.517	107.01
352.728	94.72
352.94	41.47
353.152	6.66
353.363	4.61
353.575	66.05
353.787	205.31
353.999	107.01
354.21	145.92
354.422	-11.78
354.633	35.33
354.845	-56.83
355.057	47.62
355.268	-24.06
355.48	94.72
355.692	-52.74
355.903	18.94
356.115	-65.02
356.326	-50.69
356.538	82.43
356.749	76.29
356.961	90.62
357.172	-7.68
357.384	-9.73
357.595	176.64
357.807	27.14
358.018	61.95
358.23	59.9
358.441	113.15
358.653	41.47
358.864	41.47
359.075	10.75
359.287	104.96
359.498	98.81
359.709	35.33
359.921	61.95
360.132	-24.06
360.344	61.95
360.555	45.57
360.766	68.09
360.977	14.85
361.189	131.58
361.4	-32.26
361.611	131.58
361.823	64
362.034	-26.11
362.245	-5.63
362.456	14.85
362.667	111.1
362.879	-93.69
363.09	94.72
363.301	127.49
363.512	0.51
363.723	43.52
363.935	-15.87
364.146	66.05
364.357	2.56
364.568	59.9
364.779	-75.26
364.99	162.3
365.201	20.99
365.412	104.96
365.623	-73.21
365.834	84.48
366.045	20.99
366.256	117.25
366.467	135.68
366.678	66.05
366.889	98.81
367.1	-22.02
367.311	113.15
367.522	29.18
367.733	113.15
367.944	27.14
368.155	35.33
368.366	125.44
368.577	74.24
368.788	61.95
368.999	-9.73
369.209	55.81
369.42	178.69
369.631	221.69
369.842	119.29
370.053	66.05
370.264	160.25
370.474	-15.87
370.685	31.23
370.896	-71.17
371.107	96.77
371.317	96.77
371.528	-44.54
371.739	88.57
371.95	113.15
372.16	107.01
372.371	-11.78
372.582	-50.69
372.792	27.14
373.003	18.94
373.214	51.71
373.424	107.01
373.635	-11.78
373.846	90.62
374.056	80.38
374.267	14.85
374.477	16.9
374.688	6.66
374.898	133.63
375.109	31.23
375.319	20.99
375.53	129.53
375.74	141.82
375.951	-36.35
376.161	127.49
376.372	158.21
376.582	-40.45
376.793	66.05
377.003	14.85
377.214	-9.73
377.424	109.05
377.635	20.99
377.845	18.94
378.055	152.06
378.266	-7.68
378.476	78.33
378.686	92.67
378.897	-26.11
379.107	170.49
379.317	111.1
379.528	-26.11
379.738	43.52
379.948	-48.64
380.158	107.01
380.369	-1.54
380.579	43.52
380.789	-30.21
380.999	76.29
381.21	78.33
381.42	160.25
381.63	4.61
381.84	25.09
382.05	88.57
382.261	123.39
382.471	94.72
382.681	-1.54
382.891	119.29
383.101	68.09
383.311	27.14
383.521	-28.16
383.731	92.67
383.941	109.05
384.151	74.24
384.361	2.56
384.571	57.86
384.781	45.57
384.991	127.49
385.201	190.97
385.411	43.52
385.621	80.38
385.831	141.82
386.041	64
386.251	43.52
386.461	158.21
386.671	76.29
386.881	98.81
387.091	45.57
387.301	84.48
387.511	96.77
387.72	107.01
387.93	90.62
388.14	-52.74
388.35	37.38
388.56	113.15
388.769	72.19
388.979	39.42
389.189	76.29
389.399	16.9
389.609	-5.63
389.818	41.47
390.028	84.48
390.238	29.18
390.447	14.85
390.657	109.05
390.867	49.66
391.076	-89.6
391.286	35.33
391.496	45.57
391.705	45.57
391.915	80.38
392.125	201.21
392.334	10.75
392.544	113.15
392.753	-11.78
392.963	-44.54
393.172	78.33
393.382	4.61
393.591	170.49
393.801	16.9
394.01	152.06
394.22	76.29
394.429	12.8
394.639	2.56
394.848	86.53
395.058	57.86
395.267	0.51
395.477	137.73
395.686	84.48
395.895	137.73
396.105	84.48
396.314	55.81
396.524	88.57
396.733	14.85
396.942	137.73
397.152	64
397.361	135.68
397.57	43.52
397.78	94.72
397.989	129.53
398.198	184.83
398.407	86.53
398.617	14.85
398.826	64
399.035	-9.73
399.244	158.21
399.453	94.72
399.663	80.38
399.872	96.77
400.081	-54.78
400.29	127.49
400.499	-9.73
400.708	127.49
400.917	-65.02
401.127	94.72
401.336	-34.3
401.545	100.86
401.754	96.77
401.963	147.97
402.172	10.75
402.381	-108.03
402.59	-3.58
402.799	33.28
403.008	113.15
403.217	92.67
403.426	137.73
403.635	-87.55
403.844	41.47
404.053	41.47
404.262	43.52
404.471	129.53
404.68	29.18
404.888	-1.54
405.097	14.85
405.306	70.14
405.515	145.92
405.724	51.71
405.933	76.29
406.142	80.38
406.35	143.87
406.559	92.67
406.768	-7.68
406.977	264.7
407.185	66.05
407.394	137.73
407.603	-44.54
407.812	104.96
408.02	150.01
408.229	0.51
408.438	80.38
408.646	-83.45
408.855	94.72
409.064	113.15
409.272	-19.97
409.481	104.96
409.69	-7.68
409.898	-56.83
410.107	123.39
410.315	72.19
410.524	-46.59
410.733	25.09
410.941	37.38
411.15	119.29
411.358	141.82
411.567	115.2
411.775	64
411.984	70.14
412.192	76.29
412.401	-7.68
412.609	217.6
412.818	119.29
413.026	74.24
413.234	-28.16
413.443	14.85
413.651	-81.41
413.86	37.38
414.068	158.21
414.276	195.07
414.485	-32.26
414.693	139.77
414.901	119.29
415.11	90.62
415.318	72.19
415.526	6.66
415.734	117.25
415.943	78.33
416.151	131.58
416.359	51.71
416.567	74.24
416.776	141.82
416.984	141.82
417.192	227.84
417.4	-54.78
417.608	61.95
417.817	-42.5
418.025	66.05
418.233	225.79
418.441	43.52
418.649	-67.07
418.857	64
419.065	92.67
419.273	82.43
419.481	94.72
419.689	37.38
419.897	10.75
420.105	-56.83
420.313	96.77
420.521	162.3
420.729	141.82
420.937	10.75
421.145	-13.82
421.353	141.82
421.561	184.83
421.769	139.77
421.977	43.52
422.185	113.15
422.393	45.57
422.601	160.25
422.809	88.57
423.017	90.62
423.224	88.57
423.432	107.01
423.64	20.99
423.848	113.15
424.056	-19.97
424.263	135.68
424.471	86.53
424.679	88.57
424.887	0.51
425.094	160.25
425.302	64
425.51	107.01
425.718	121.34
425.925	59.9
426.133	74.24
426.341	186.88
426.548	72.19
426.756	78.33
426.964	102.91
427.171	-44.54
427.379	37.38
427.586	145.92
427.794	94.72
428.001	123.39
428.209	14.85
428.417	117.25
428.624	133.63
428.832	127.49
429.039	-3.58
429.247	119.29
429.454	139.77
429.662	176.64
429.869	102.91
430.076	156.16
430.284	209.4
430.491	203.26
430.699	152.06
430.906	211.45
431.114	174.59
431.321	133.63
431.528	131.58
431.736	236.03
431.943	135.68
432.15	195.07
432.358	164.35
432.565	424.44
432.772	2.56
432.979	207.36
433.187	68.09
433.394	276.99
433.601	166.4
433.808	252.41
434.016	254.46
434.223	291.32
434.43	233.98
434.637	272.89
434.844	328.19
435.052	305.66
435.259	336.38
435.466	309.76
435.673	305.66
435.88	283.13
436.087	377.34
436.294	375.29
436.501	455.16
436.708	328.19
436.915	418.3
437.122	385.53
437.329	367.1
437.537	332.28
437.743	385.53
437.95	446.97
438.157	408.06
438.364	412.15
438.571	543.22
438.778	539.13
438.985	539.13
439.192	520.7
439.399	547.32
439.606	596.47
439.813	594.42
440.02	674.29
440.227	721.4
440.433	612.85
440.64	598.52
440.847	571.9
441.054	578.04
441.261	819.7
441.467	752.12
441.674	772.6
441.881	907.76
442.088	838.13
442.294	963.06
442.501	991.73
442.708	1006.06
442.914	885.23
443.121	1036.78
443.328	1116.65
443.534	1108.46
443.741	1108.46
443.948	1006.06
444.154	1141.23
444.361	1360.36
444.568	1223.15
444.774	1268.2
444.981	1239.53
445.187	1522.15
445.394	1448.43
445.6	1419.75
445.807	1696.23
446.013	1577.45
446.22	1522.15
446.426	1751.53
446.633	1792.48
446.839	1952.23
447.046	1765.86
447.252	2189.79
447.459	1995.23
447.665	2021.86
447.871	2179.55
448.078	2464.22
448.284	2324.96
448.491	2503.13
448.697	2697.69
448.903	2613.72
449.11	2693.59
449.316	2714.07
449.522	2963.92
449.728	3015.12
449.935	3154.38
450.141	3043.79
450.347	3412.43
450.553	3320.27
450.76	3387.85
450.966	3619.27
451.172	3740.1
451.378	3819.97
451.584	3946.95
451.791	4245.95
451.997	4434.36
452.203	4518.33
452.409	4819.38
452.615	4768.18
452.821	4794.81
453.027	4782.52
453.233	5523.88
453.44	5171.63
453.646	5560.75
453.852	5843.37
454.058	6074.79
454.264	6121.89
454.47	6705.56
454.676	6793.62
454.882	7303.57
455.088	6734.23
455.294	7242.13
455.5	7868.81
455.705	8243.59
455.911	8395.14
456.117	8419.71
456.323	8788.35
456.529	8714.62
456.735	9740.65
456.941	9884.01
457.147	10115.43
457.352	10443.1
457.558	10774.88
457.764	11446.61
457.97	11747.66
458.176	12056.9
458.381	12773.69
458.587	12990.78
458.793	13629.74
458.999	13793.58
459.204	15169.82
459.41	15855.89
459.616	15565.07
459.821	16558.34
460.027	17481.97
460.233	18039.02
460.438	17838.32
460.644	19357.91
460.85	19222.75
461.055	20121.8
461.261	20947.14
461.466	20621.51
461.672	21274.81
461.878	23629.98
462.083	23511.19
462.289	23765.14
462.494	24721.54
462.7	24864.9
462.905	25254.01
463.111	27545.69
463.316	28319.82
463.522	29151.3
463.727	30136.37
463.932	31014.95
464.138	32045.08
464.343	33286.15
464.549	33624.06
464.754	36167.64
464.959	36917.2
465.165	37392.33
465.37	36827.09
465.575	37676.99
465.781	39829.41
465.986	41271.18
466.191	40394.65
466.397	40511.38
466.602	39833.5
466.807	42188.67
467.012	43050.86
467.218	43405.16
467.423	43571.05
467.628	44676.95
467.833	47195.95
468.038	46626.62
468.244	45487.95
468.449	47554.35
468.654	46845.75
468.859	46657.34
469.064	46905.14
469.269	46210.88
469.474	46034.75
469.679	47488.81
469.885	46124.86
470.09	46931.76
470.295	47095.6
470.5	46288.7
470.705	46518.07
470.91	44875.6
471.115	44504.92
471.32	45143.89
471.525	45391.69
471.73	43704.17
471.935	43372.39
472.139	41584.52
472.344	41889.66
472.549	41609.09
472.754	41082.77
472.959	40001.44
473.164	38862.77
473.369	38430.65
473.574	39169.96
473.778	38418.36
473.983	37771.2
474.188	37302.21
474.393	35528.67
474.598	35483.62
474.802	34707.44
475.007	34033.66
475.212	33890.3
475.417	32372.75
475.621	31899.67
475.826	31887.39
476.031	31201.32
476.235	30459.95
476.44	30619.69
476.645	29880.38
476.849	29362.24
477.054	28973.13
477.259	28151.89
477.463	28233.81
477.668	27512.92
477.872	27562.08
478.077	26871.91
478.282	25993.33
478.486	25774.2
478.691	25387.13
478.895	25088.13
479.1	24909.96
479.304	24950.92
479.509	24055.95
479.713	24447.11
479.918	24002.71
480.122	23386.27
480.326	23568.54
480.531	23363.74
480.735	23201.95
480.94	22753.44
481.144	23574.68
481.348	22200.49
481.553	22562.98
481.757	21840.05
481.961	22204.59
482.166	22323.37
482.37	21950.64
482.574	21364.92
482.778	21039.29
482.983	21446.84
483.187	21108.93
483.391	21125.31
483.595	20822.21
483.8	20246.73
484.004	20345.03
484.208	20695.24
484.412	20271.31
484.616	19630.29
484.821	19699.92
485.025	19194.08
485.229	19511.51
485.433	18897.12
485.637	18966.75
485.841	18665.7
486.045	18387.18
486.249	18159.85
486.453	17584.37
486.657	17713.39
486.861	17455.35
487.065	16713.98
487.269	16802.05
487.473	16335.11
487.677	16673.03
487.881	16419.08
488.085	15843.6
488.289	15778.06
488.493	15253.78
488.697	15104.28
488.901	15061.27
489.105	14324.01
489.309	14545.19
489.512	14240.04
489.716	13975.85
489.92	13465.91
490.124	13373.75
490.328	13326.64
490.531	12939.58
490.735	12618.05
490.939	12339.52
491.143	12314.95
491.346	11811.15
491.55	11905.35
491.754	11759.95
491.958	11442.51
492.161	11266.39
492.365	11350.35
492.569	10903.9
492.772	10729.82
492.976	10715.48
493.18	10645.85
493.383	10455.39
493.587	10314.08
493.79	10281.32
493.994	9795.95
494.197	9933.16
494.401	9724.27
494.605	9687.4
494.808	9638.25
495.012	9539.95
495.215	9544.05
495.419	9431.41
495.622	9253.23
495.825	9070.97
496.029	9159.03
496.232	9232.76
496.436	9148.79
496.639	9329.01
496.843	9189.75
497.046	8974.71
497.249	9208.18
497.453	9175.41
497.656	9097.59
497.859	9214.32
498.063	9103.73
498.266	9298.29
498.469	9138.55
498.673	9185.65
498.876	9335.15
499.079	9111.92
499.282	9337.2
499.485	9548.14
499.689	9314.67
499.892	9675.12
500.095	9380.21
500.298	9701.74
500.501	9453.94
500.705	9705.84
500.908	9888.11
501.111	9699.69
501.314	9912.68
501.517	10221.92
501.72	10203.49
501.923	10113.38
502.126	10348.9
502.329	10770.78
502.532	10287.46
502.735	10471.78
502.938	10578.27
503.141	10811.74
503.344	10664.29
503.547	10983.77
503.75	11100.5
503.953	11405.65
504.156	11366.74
504.359	11721.04
504.562	11964.75
504.765	12104.01
504.968	12280.13
505.17	12298.56
505.373	12650.81
505.576	12906.81
505.779	12712.25
505.982	13127.99
506.185	13449.52
506.387	13404.47
506.59	13979.95
506.793	13916.46
506.996	14240.04
507.198	14643.49
507.401	14815.52
507.604	15135
507.807	15440.15
508.009	15544.59
508.212	16238.86
508.415	16169.23
508.617	16560.39
508.82	16933.12
509.022	16888.06
509.225	17436.92
509.428	18008.3
509.63	18471.14
509.833	18540.77
510.035	19206.36
510.238	19153.12
510.44	19714.26
510.643	20332.75
510.845	20832.45
511.048	21137.6
511.25	21385.4
511.453	21850.29
511.655	23038.11
511.858	23003.3
512.06	23453.85
512.262	24232.08
512.465	24293.52
512.667	24780.93
512.87	25151.62
513.072	25849.97
513.274	26910.82
513.477	27248.74
513.679	27783.26
513.881	28309.58
514.084	28899.4
514.286	29689.91
514.488	30220.34
514.69	31447.07
514.893	31961.11
515.095	32282.64
515.297	32747.53
515.499	33558.53
515.701	34490.35
515.904	34979.82
516.106	35893.21
516.308	36085.72
516.51	37265.35
516.712	37564.35
516.914	38590.39
517.116	39133.1
517.318	39987.1
517.52	40417.18
517.722	40984.46
517.925	41781.12
518.127	42674.04
518.329	43634.53
518.531	43702.12
518.733	44730.2
518.935	45459.27
519.136	45721.41
519.338	46788.41
519.54	47566.63
519.742	48254.75
519.944	49032.98
520.146	49610.51
520.348	50233.09
520.55	50779.9
520.752	51103.48
520.954	52326.11
521.155	51867.37
521.357	53225.17
521.559	53532.37
521.761	54554.3
521.963	55021.24
522.164	55062.2
522.366	55461.55
522.568	56342.18
522.77	56546.98
522.971	57157.27
523.173	57104.02
523.375	57421.46
523.576	57601.68
523.778	57339.54
523.98	58433.16
524.181	58596.99
524.383	58353.29
524.584	58826.37
524.786	58742.4
524.988	58832.51
525.189	59080.31
525.391	59528.82
525.592	59491.96
525.794	59338.36
525.995	59131.51
526.197	59502.2
526.398	58998.4
526.6	58951.29
526.801	59289.21
527.003	59149.95
527.204	58949.24
527.406	58945.15
527.607	58498.69
527.808	58635.91
528.01	57077.4
528.211	57601.68
528.412	57888.4
528.614	57558.67
528.815	56503.97
529.016	56678.05
529.218	55684.78
529.419	56057.51
529.62	54689.47
529.822	53913.29
530.023	53845.71
530.224	54011.59
530.425	53167.83
530.626	52391.65
530.828	51674.86
531.029	52137.7
531.23	51068.66
531.431	50429.69
531.632	49983.24
531.833	50056.96
532.035	48781.08
532.236	48377.63
532.437	48406.3
532.638	46829.37
532.839	46855.99
533.04	46565.18
533.241	45264.72
533.442	45401.93
533.643	44339.04
533.844	43759.46
534.045	43681.64
534.246	42760.05
534.447	42409.85
534.648	41719.68
534.849	41365.38
535.05	40361.88
535.251	39692.19
535.451	39350.18
535.652	39245.74
535.853	38129.59
536.054	38320.06
536.255	37793.73
536.456	36751.31
536.657	36886.48
536.857	36028.38
537.058	35645.41
537.259	35223.53
537.46	34428.91
537.66	34363.38
537.861	33595.39
538.062	32983.05
538.263	32753.68
538.463	32380.95
538.664	32075.8
538.865	31467.55
539.065	31672.35
539.266	30531.63
539.466	30441.52
539.667	30216.24
539.868	30134.32
540.068	29401.15
540.269	29053
540.469	28772.42
540.67	28260.43
540.87	28282.96
541.071	27451.49
541.271	27494.49
541.472	27095.14
541.672	26820.71
541.873	26380.4
542.073	25948.28
542.274	26329.2
542.474	25499.77
542.675	25137.28
542.875	25124.99
543.075	24813.7
543.276	24172.69
543.476	24299.66
543.676	23879.83
543.877	23763.09
544.077	23580.82
544.277	22952.1
544.478	22950.05
544.678	22765.73
544.878	22214.83
545.078	22376.62
545.279	21725.36
545.479	21465.27
545.679	21571.77
545.879	21420.22
546.079	20811.97
546.28	20500.68
546.48	20480.2
546.68	20412.62
546.88	19945.68
547.08	19720.4
547.28	19310.81
547.48	19022.05
547.68	19179.74
547.88	18819.3
548.081	18501.86
548.281	18258.15
548.481	18008.3
548.681	18129.13
548.881	17895.66
549.081	17318.14
549.28	16931.07
549.48	16607.49
549.68	16584.96
549.88	16912.64
550.08	16380.17
550.28	16052.49
550.48	15935.76
550.68	15708.43
550.88	15233.3
551.08	14983.45
551.279	15239.45
551.479	14471.46
551.679	14663.97
551.879	14229.8
552.079	14164.26
552.278	13773.1
552.478	13848.88
552.678	13549.87
552.878	13441.33
553.077	13087.03
553.277	12898.62
553.477	12777.79
553.676	12507.46
553.876	12470.59
554.076	12175.69
554.275	11968.84
554.475	11667.79
554.674	11729.23
554.874	11333.97
555.074	11221.33
555.273	11280.72
555.473	10877.27
555.672	10572.13
555.872	10428.77
556.071	10469.73
556.271	10604.89
556.47	10066.28
556.67	9793.9
556.869	9881.96
557.068	9644.4
557.268	9417.07
557.467	9226.61
557.667	9054.58
557.866	8862.07
558.065	8782.2
558.265	8464.77
558.464	8362.37
558.663	8413.57
558.863	8210.82
559.062	8249.73
559.261	7872.9
559.461	8081.8
559.66	7651.72
559.859	7633.29
560.058	7319.95
560.258	7199.12
560.457	7246.23
560.656	7201.17
560.855	6908.31
561.054	7010.71
561.253	6797.72
561.453	6635.93
561.652	6750.62
561.851	6597.02
562.05	6492.57
562.249	6363.55
562.448	6369.69
562.647	6109.6
562.846	6058.4
563.045	5949.86
563.244	5865.89
563.443	5919.14
563.642	5738.92
563.841	5671.34
564.04	5525.93
564.239	5384.62
564.438	5405.1
564.637	5202.35
564.836	5173.68
565.035	5050.8
565.234	4977.08
565.432	5046.71
565.631	5063.09
565.83	4764.09
566.029	4805.05
566.228	4645.31
566.427	4843.96
566.625	4516.28
566.824	4463.04
567.023	4639.16
567.222	4440.51
567.42	4395.45
567.619	4204.99
567.818	4286.91
568.016	4395.45
568.215	4141.5
568.414	4188.61
568.612	4061.63
568.811	3920.32
569.01	3756.49
569.208	3789.25
569.407	3967.43
569.605	3711.43
569.804	3723.72
570.002	3684.81
570.201	3449.29
570.4	3475.91
570.598	3406.28
570.797	3463.63
570.995	3199.44
571.193	3289.55
571.392	3267.02
571.59	3217.87
571.789	3160.53
571.987	3135.95
572.186	3287.5
572.384	2984.4
572.582	3088.85
572.781	3027.41
572.979	2795.99
573.177	2839
573.376	2703.83
573.574	2742.74
573.772	2769.37
573.971	2652.63
574.169	2601.43
574.367	2562.52
574.565	2394.59
574.763	2458.07
574.962	2421.21
575.16	2294.24
575.358	2361.82
575.556	2320.86
575.754	2320.86
575.952	2294.24
576.151	2320.86
576.349	2232.8
576.547	2079.2
576.745	2226.65
576.943	2114.02
577.141	2060.77
577.339	1964.51
577.537	2109.92
577.735	2105.82
577.933	1960.42
578.131	1915.36
578.329	2015.71
578.527	1890.79
578.725	1913.31
578.923	1735.14
579.121	1831.4
579.319	1653.22
579.516	1726.95
579.714	1831.4
579.912	1786.34
580.11	1577.45
580.308	1747.43
580.506	1528.3
580.704	1413.61
580.901	1530.34
581.099	1640.93
581.297	1516.01
581.495	1485.29
581.692	1559.02
581.89	1546.73
582.088	1452.52
582.285	1411.56
582.483	1278.44
582.681	1362.41
582.878	1333.74
583.076	1401.32
583.274	1217.01
583.471	1470.95
583.669	1182.19
583.866	1149.42
584.064	1200.62
584.262	1106.42
584.459	1139.18
584.657	1227.25
584.854	1219.05
585.052	1122.8
585.249	1225.2
585.447	1161.71
585.644	1004.02
585.841	1137.13
586.039	1071.6
586.236	1202.67
586.434	1067.5
586.631	1026.54
586.828	1024.5
587.026	930.29
587.223	987.63
587.42	899.57
587.618	987.63
587.815	1067.5
588.012	926.19
588.21	877.04
588.407	989.68
588.604	1026.54
588.801	895.47
588.999	889.33
589.196	961.01
589.393	793.08
589.59	864.75
589.787	956.91
589.984	936.43
590.182	741.88
590.379	723.44
590.576	877.04
590.773	809.46
590.97	768.5
591.167	915.95
591.364	797.17
591.561	770.55
591.758	874.99
591.955	829.94
592.152	764.4
592.349	760.31
592.546	737.78
592.743	762.36
592.94	707.06
593.137	817.65
593.334	844.28
593.531	879.09
593.727	834.04
593.924	838.13
594.121	805.36
594.318	817.65
594.515	958.96
594.712	926.19
594.908	862.71
595.105	766.45
595.302	862.71
595.499	848.37
595.696	985.58
595.892	819.7
596.089	973.3
596.286	786.93
596.482	1065.46
596.679	983.54
596.876	987.63
597.072	991.73
597.269	1010.16
597.466	1139.18
597.662	1073.65
597.859	1184.24
598.055	1235.44
598.252	1190.38
598.448	1270.25
598.645	1315.31
598.841	1225.2
599.038	1528.3
599.234	1489.39
599.431	1485.29
599.627	1536.49
599.824	1569.26
600.02	1569.26
600.217	1706.47
600.413	1669.61
600.609	1804.77
600.806	2132.45
601.002	1978.85
601.198	2046.43
601.395	2114.02
601.591	2204.13
601.787	2357.72
601.984	2470.36
602.18	2552.28
602.376	2544.09
602.572	2648.54
602.769	2755.03
602.965	2673.11
603.161	3019.22
603.357	3144.14
603.553	3385.8
603.75	3197.39
603.946	3332.56
604.142	3586.51
604.338	3809.73
604.534	3688.9
604.73	3776.97
604.926	3918.28
605.122	4209.09
605.318	4016.58
605.514	4458.94
605.71	4413.88
605.906	4700.6
606.102	4759.99
606.298	5222.83
606.494	5136.82
606.69	5398.96
606.886	5425.58
607.082	5532.08
607.278	5462.44
607.474	5849.51
607.67	5980.58
607.866	6019.49
608.062	6465.95
608.257	6592.92
608.453	6547.87
608.649	6961.56
608.845	7037.33
609.041	7272.85
609.236	7489.93
609.432	7807.37
609.628	7836.04
609.824	8100.23
610.019	8276.35
610.215	8581.5
610.411	8997.24
610.606	8976.76
610.802	9113.97
610.998	9460.08
611.193	9863.53
611.389	9918.82
611.584	10338.66
611.78	10346.85
611.976	10625.37
612.171	11223.38
612.367	11485.52
612.562	11630.93
612.758	11667.79
612.953	12011.85
613.149	12503.36
613.344	12777.79
613.539	13359.41
613.735	13603.12
613.93	14131.5
614.126	14174.5
614.321	14786.85
614.517	15237.4
614.712	15718.67
614.907	15751.44
615.103	16517.38
615.298	16398.6
615.493	17182.97
615.688	17262.84
615.884	18125.04
616.079	18223.34
616.274	18974.94
616.47	19243.23
616.665	19833.04
616.86	20230.35
617.055	20449.48
617.25	21416.12
617.445	21993.65
617.641	22286.51
617.836	22945.95
618.031	23238.81
618.226	23974.03
618.421	24391.82
618.616	25415.8
618.811	25483.39
619.006	26505.32
619.201	26460.27
619.396	27578.46
619.591	27557.98
619.786	28633.16
619.981	29227.07
620.176	29939.77
620.371	30124.08
620.566	31322.15
620.761	31303.71
620.956	32628.75
621.151	32970.76
621.346	33787.9
621.541	33789.95
621.735	35071.98
621.93	35162.09
622.125	36356.05
622.32	36532.18
622.515	37478.34
622.709	37668.8
622.904	38739.89
623.099	39354.28
623.294	40152.99
623.488	40464.28
623.683	41318.28
623.878	41787.27
624.072	42766.2
624.267	43368.3
624.462	43906.91
624.656	44683.09
624.851	45576.01
625.046	45819.72
625.24	46649.14
625.435	46901.04
625.629	48070.43
625.824	48187.17
626.018	49014.55
626.213	48443.16
626.407	50257.67
626.602	50239.23
626.796	51066.61
626.991	52111.08
627.185	51855.08
627.38	52201.19
627.574	52559.58
627.768	53047
627.963	52750.04
628.157	52883.16
628.352	53771.98
628.546	53268.18
628.74	54249.16
628.935	53235.41
629.129	53870.28
629.323	52866.78
629.517	53157.59
629.712	52913.88
629.906	52827.87
630.1	51822.31
630.294	51828.46
630.489	50863.86
630.683	50822.9
630.877	49731.34
631.071	48830.23
631.265	48652.06
631.459	47648.55
631.653	46315.33
631.848	45539.15
632.042	44119.9
632.236	43984.74
632.43	42407.8
632.624	41510.79
632.818	39894.94
633.012	38840.24
633.206	37873.6
633.4	36896.72
633.594	35205.09
633.788	34371.57
633.982	33361.92
634.176	32122.9
634.369	30652.46
634.563	29612.09
634.757	28504.14
634.951	27738.2
635.145	26759.27
635.339	25534.59
635.533	24219.79
635.726	23572.63
635.92	22427.82
636.114	21557.43
636.308	20793.54
636.501	20031.69
636.695	19290.33
636.889	18677.99
637.083	17684.72
637.276	16933.12
637.47	16146.7
637.664	15448.34
637.857	15102.23
638.051	14563.62
638.244	13709.61
638.438	13238.58
638.632	13015.35
638.825	12144.97
639.019	11592.02
639.212	11037.02
639.406	10842.46
639.599	10334.56
639.793	9857.39
639.986	9689.45
640.18	9197.94
640.373	8950.14
640.567	8505.73
640.76	8395.14
640.954	8096.13
641.147	7512.46
641.34	7297.42
641.534	7338.38
641.727	6912.41
641.92	6402.46
642.114	6371.74
642.307	6119.84
642.5	5851.56
642.694	5554.6
642.887	5398.96
643.08	5210.54
643.273	4940.21
643.467	4794.81
643.66	4667.83
643.853	4309.44
644.046	4350.4
644.239	4069.83
644.432	3873.22
644.626	3568.07
644.819	3684.81
645.012	3533.26
645.205	3420.62
645.398	3344.84
645.591	2988.5
645.784	2943.44
645.977	2877.91
646.17	2802.13
646.363	2640.34
646.556	2429.4
646.749	2408.92
646.942	2384.35
647.135	2400.73
647.328	2099.68
647.521	2044.38
647.714	2066.91
647.907	1964.51
648.099	1802.72
648.292	1982.95
648.485	1796.58
648.678	1718.76
648.871	1651.17
649.064	1589.74
649.256	1436.14
649.449	1362.41
649.642	1411.56
649.835	1245.68
650.027	1196.53
650.22	1296.88
650.413	1165.81
650.605	1307.12
650.798	1096.18
650.991	1085.94
651.183	1077.74
651.376	936.43
651.568	991.73
651.761	893.43
651.954	909.81
652.146	899.57
652.339	926.19
652.531	956.91
652.724	815.6
652.916	623.09
653.109	645.62
653.301	778.74
653.494	907.76
653.686	754.16
653.879	766.45
654.071	768.5
654.263	639.48
654.456	621.05
654.648	651.77
654.84	659.96
655.033	520.7
655.225	672.25
655.417	504.31
655.61	702.97
655.802	567.8
655.994	668.15
656.186	426.49
656.379	518.65
656.571	401.91
656.763	420.35
656.955	340.47
657.148	434.68
657.34	461.3
657.532	418.3
657.724	442.87
657.916	379.39
658.108	403.96
658.3	348.67
658.492	412.15
658.684	264.7
658.876	338.43
659.068	287.23
659.26	238.08
659.452	264.7
659.644	272.89
659.836	532.98
660.028	330.23
660.22	262.65
660.412	367.1
660.604	274.94
660.796	315.9
660.988	328.19
661.18	229.88
661.372	295.42
661.563	219.64
661.755	268.8
661.947	225.79
662.139	264.7
662.331	272.89
662.522	223.74
662.714	182.78
662.906	184.83
663.097	203.26
663.289	205.31
663.481	90.62
663.673	197.12
663.864	254.46
664.056	283.13
664.247	215.55
664.439	289.28
664.631	231.93
664.822	238.08
665.014	225.79
665.205	143.87
665.397	188.93
665.588	197.12
665.78	160.25
665.971	178.69
666.163	135.68
666.354	240.12
666.546	127.49
666.737	268.8
666.929	186.88
667.12	59.9
667.311	154.11
667.503	92.67
667.694	211.45
667.885	176.64
668.077	164.35
668.268	92.67
668.459	178.69
668.651	102.91
668.842	168.45
669.033	125.44
669.224	94.72
669.416	254.46
669.607	119.29
669.798	139.77
669.989	293.37
670.18	117.25
670.371	238.08
670.563	121.34
670.754	248.32
670.945	172.54
671.136	215.55
671.327	102.91
671.518	223.74
671.709	244.22
671.9	182.78
672.091	211.45
672.282	176.64
672.473	190.97
672.664	96.77
672.855	113.15
673.046	133.63
673.237	219.64
673.428	197.12
673.619	236.03
673.809	111.1
674	227.84
674.191	209.4
674.382	170.49
674.573	139.77
674.764	203.26
674.954	182.78
675.145	195.07
675.336	51.71
675.527	203.26
675.717	20.99
675.908	119.29
676.099	152.06
676.289	182.78
676.48	64
676.671	182.78
676.861	154.11
677.052	170.49
677.243	125.44
677.433	61.95
677.624	176.64
677.814	227.84
678.005	209.4
678.195	283.13
678.386	238.08
678.576	129.53
678.767	84.48
678.957	154.11
679.148	236.03
679.338	203.26
679.529	213.5
679.719	217.6
679.909	248.32
680.1	240.12
680.29	293.37
680.481	186.88
680.671	281.08
680.861	260.6
681.052	276.99
681.242	221.69
681.432	231.93
681.622	231.93
681.813	166.4
682.003	197.12
682.193	195.07
682.383	182.78
682.573	225.79
682.764	174.59
682.954	297.47
683.144	244.22
683.334	190.97
683.524	242.17
683.714	264.7
683.904	215.55
684.094	283.13
684.284	176.64
684.474	360.95
684.664	289.28
684.854	258.56
685.044	221.69
685.234	270.84
685.424	291.32
685.614	199.16
685.804	322.04
685.994	256.51
686.184	244.22
686.374	242.17
686.564	315.9
686.753	322.04
686.943	178.69
687.133	301.56
687.323	256.51
687.513	276.99
687.702	170.49
687.892	150.01
688.082	326.14
688.272	254.46
688.461	205.31
688.651	424.44
688.841	315.9
689.03	260.6
689.22	180.73
689.41	311.8
689.599	252.41
689.789	213.5
689.979	317.95
690.168	272.89
690.358	238.08
690.547	252.41
690.737	190.97
690.926	221.69
691.116	242.17
691.305	332.28
691.495	262.65
691.684	193.02
691.874	221.69
692.063	260.6
692.252	244.22
692.442	254.46
692.631	260.6
692.82	219.64
693.01	133.63
693.199	188.93
693.388	250.36
693.578	201.21
693.767	276.99
693.956	217.6
694.146	219.64
694.335	254.46
694.524	211.45
694.713	264.7
694.902	188.93
695.092	145.92
695.281	233.98
695.47	188.93
695.659	213.5
695.848	270.84
696.037	86.53
696.226	289.28
696.415	113.15
696.604	295.42
696.793	229.88
696.982	178.69
697.171	291.32
697.36	164.35
697.549	186.88
697.738	115.2
697.927	166.4
698.116	137.73
698.305	215.55
698.494	219.64
698.683	178.69
698.872	307.71
699.061	147.97
699.25	141.82
699.438	178.69
699.627	172.54
699.816	309.76
700.005	49.66
700.193	231.93
700.382	233.98
700.571	197.12
700.76	297.47
700.948	281.08
701.137	223.74
701.326	252.41
701.514	168.45
701.703	281.08
701.892	223.74
702.08	342.52
702.269	199.16
702.457	158.21
702.646	229.88
702.834	195.07
703.023	264.7
703.212	317.95
703.4	170.49
703.589	166.4
703.777	221.69
703.965	193.02
704.154	145.92
704.342	207.36
704.531	145.92
704.719	258.56
704.907	266.75
705.096	123.39
705.284	109.05
705.472	205.31
705.661	260.6
705.849	231.93
706.037	346.62
706.226	252.41
706.414	215.55
706.602	152.06
706.79	211.45
706.979	94.72
707.167	213.5
707.355	80.38
707.543	279.04
707.731	225.79
707.919	227.84
708.107	190.97
708.296	129.53
708.484	182.78
708.672	260.6
708.86	248.32
709.048	182.78
709.236	158.21
709.424	201.21
709.612	283.13
709.8	111.1
709.988	180.73
710.176	260.6
710.364	311.8
710.551	193.02
710.739	225.79
710.927	123.39
711.115	199.16
711.303	281.08
711.491	276.99
711.679	162.3
711.866	270.84
712.054	172.54
712.242	219.64
712.43	313.85
712.617	211.45
712.805	276.99
712.993	205.31
713.181	121.34
713.368	281.08
713.556	150.01
713.744	182.78
713.931	336.38
714.119	295.42
714.306	162.3
714.494	211.45
714.682	279.04
714.869	182.78
715.057	158.21
715.244	158.21
715.432	205.31
715.619	207.36
715.807	176.64
715.994	231.93
716.182	174.59
716.369	389.63
716.556	270.84
716.744	86.53
716.931	178.69
717.119	320
717.306	176.64
717.493	291.32
717.681	102.91
717.868	145.92
718.055	238.08
718.242	217.6
718.43	268.8
718.617	276.99
718.804	201.21
718.991	246.27
719.179	231.93
719.366	258.56
719.553	225.79
719.74	168.45
719.927	199.16
720.114	299.52
720.301	66.05
720.488	147.97
720.676	203.26
720.863	334.33
721.05	426.49
721.237	254.46
721.424	293.37
721.611	219.64
721.798	170.49
721.985	197.12
722.172	295.42
722.358	178.69
722.545	326.14
722.732	297.47
722.919	336.38
723.106	279.04
723.293	229.88
723.48	227.84
723.667	205.31
723.853	227.84
724.04	291.32
724.227	309.76
724.414	145.92
724.6	252.41
724.787	381.43
724.974	424.44
725.161	317.95
725.347	219.64
725.534	227.84
725.72	252.41
725.907	338.43
726.094	334.33
726.28	193.02
726.467	201.21
726.653	172.54
726.84	330.23
727.027	379.39
727.213	301.56
727.4	348.67
727.586	305.66
727.773	227.84
727.959	262.65
728.145	209.4
728.332	301.56
728.518	180.73
728.705	336.38
728.891	205.31
729.077	240.12
729.264	160.25
729.45	238.08
729.636	315.9
729.823	324.09
730.009	332.28
730.195	244.22
730.382	397.82
730.568	246.27
730.754	240.12
730.94	207.36
731.126	307.71
731.313	236.03
731.499	254.46
731.685	213.5
731.871	373.24
732.057	209.4
732.243	317.95
732.429	311.8
732.615	440.83
732.801	352.76
732.987	262.65
733.173	293.37
733.359	258.56
733.545	246.27
733.731	201.21
733.917	365.05
734.103	240.12
734.289	363
734.475	205.31
734.661	293.37
734.847	330.23
735.033	317.95
735.219	299.52
735.404	225.79
735.59	172.54
735.776	168.45
735.962	358.91
736.148	385.53
736.333	371.19
736.519	301.56
736.705	248.32
736.89	307.71
737.076	283.13
737.262	190.97
737.447	207.36
737.633	246.27
737.819	373.24
738.004	246.27
738.19	299.52
738.375	260.6
738.561	467.45
738.747	295.42
738.932	172.54
739.118	494.07
739.303	377.34
739.489	381.43
739.674	221.69
739.859	223.74
740.045	395.77
740.23	367.1
740.416	190.97
740.601	272.89
740.786	303.61
740.972	240.12
741.157	225.79
741.342	156.16
741.528	274.94
741.713	293.37
741.898	281.08
742.084	281.08
742.269	272.89
742.454	334.33
742.639	268.8
742.824	348.67
743.01	350.71
743.195	455.16
743.38	236.03
743.565	244.22
743.75	354.81
743.935	336.38
744.12	346.62
744.305	215.55
744.49	221.69
744.675	268.8
744.86	293.37
745.045	340.47
745.23	227.84
745.415	244.22
745.6	365.05
745.785	195.07
745.97	348.67
746.155	291.32
746.34	305.66
746.525	297.47
746.71	377.34
746.895	129.53
747.079	172.54
747.264	238.08
747.449	303.61
747.634	377.34
747.819	164.35
748.003	201.21
748.188	139.77
748.373	274.94
748.557	270.84
748.742	215.55
748.927	166.4
749.111	223.74
749.296	244.22
749.481	254.46
749.665	240.12
749.85	227.84
750.034	295.42
750.219	287.23
750.404	195.07
750.588	289.28
750.773	109.05
750.957	227.84
751.141	123.39
751.326	242.17
751.51	221.69
751.695	240.12
751.879	225.79
752.064	360.95
752.248	223.74
752.432	391.67
752.617	262.65
752.801	307.71
752.985	211.45
753.17	291.32
753.354	268.8
753.538	326.14
753.722	215.55
753.907	119.29
754.091	104.96
754.275	215.55
754.459	45.57
754.643	70.14
754.828	209.4
755.012	190.97
755.196	137.73
755.38	205.31
755.564	125.44
755.748	209.4
755.932	195.07
756.116	223.74
756.3	311.8
756.484	111.1
756.668	231.93
756.852	10.75
757.036	150.01
757.22	231.93
757.404	184.83
757.588	102.91
757.772	231.93
757.956	172.54
758.14	301.56
758.323	53.76
758.507	252.41
758.691	137.73
758.875	238.08
759.059	270.84
759.242	119.29
759.426	193.02
759.61	129.53
759.794	113.15
759.977	152.06
760.161	360.95
760.345	289.28
760.528	246.27
760.712	68.09
760.895	152.06
761.079	182.78
761.263	104.96
761.446	135.68
761.63	129.53
761.813	346.62
761.997	35.33
762.18	184.83
762.364	182.78
762.547	74.24
762.731	-22.02
762.914	201.21
763.098	92.67
763.281	135.68
763.464	70.14
763.648	176.64
763.831	88.57
764.015	35.33
764.198	213.5
764.381	64
764.564	131.58
764.748	49.66
764.931	59.9
765.114	162.3
765.297	127.49
765.481	57.86
765.664	145.92
765.847	29.18
766.03	164.35
766.213	94.72
766.397	143.87
766.58	-13.82
766.763	178.69
766.946	59.9
767.129	129.53
767.312	51.71
767.495	84.48
767.678	57.86
767.861	113.15
768.044	59.9
768.227	104.96
768.41	96.77
768.593	145.92
768.776	147.97
768.959	35.33
769.142	178.69
769.324	20.99
769.507	102.91
769.69	68.09
769.873	102.91
770.056	276.99
770.239	131.58
770.421	188.93
770.604	188.93
770.787	104.96
770.97	84.48
771.152	-30.21
771.335	113.15
771.518	78.33
771.7	156.16
771.883	190.97
772.066	43.52
772.248	-5.63
772.431	137.73
772.613	145.92
772.796	141.82
772.978	109.05
773.161	139.77
773.343	20.99
773.526	-30.21
773.708	-40.45
773.891	31.23
774.073	-22.02
774.256	35.33
774.438	145.92
774.621	-26.11
774.803	90.62
774.985	68.09
775.168	127.49
775.35	84.48
775.532	86.53
775.715	10.75
775.897	55.81
776.079	76.29
776.261	131.58
776.444	88.57
776.626	92.67
776.808	33.28
776.99	-3.58
777.173	82.43
777.355	-17.92
777.537	80.38
777.719	47.62
777.901	-13.82
778.083	14.85
778.265	-50.69
778.447	23.04
778.629	37.38
778.811	10.75
778.993	119.29
779.175	121.34
779.357	104.96
779.539	-17.92
779.721	45.57
779.903	70.14
780.085	90.62
780.267	80.38
780.449	31.23
780.631	16.9
780.812	98.81
780.994	-13.82
781.176	-24.06
781.358	16.9
781.54	-1.54
781.721	76.29
781.903	152.06
782.085	37.38
782.267	147.97
782.448	-73.21
782.63	18.94
782.812	20.99
782.993	25.09
783.175	90.62
783.357	35.33
783.538	35.33
783.72	-34.3
783.901	-9.73
784.083	43.52
784.264	88.57
784.446	-110.08
784.627	-81.41
784.809	115.2
784.99	-5.63
785.172	92.67
785.353	2.56
785.535	59.9
785.716	6.66
785.897	27.14
786.079	-1.54
786.26	47.62
786.441	39.42
786.623	-65.02
786.804	-24.06
786.985	78.33
787.167	25.09
787.348	4.61
787.529	88.57
787.71	213.5
787.891	35.33
788.073	33.28
788.254	-50.69
788.435	78.33
788.616	-48.64
788.797	-26.11
788.978	47.62
789.159	-52.74
789.34	98.81
789.522	129.53
789.703	-17.92
789.884	61.95
790.065	-19.97
790.246	156.16
790.427	0.51
790.607	121.34
790.788	123.39
790.969	45.57
791.15	80.38
791.331	12.8
791.512	-48.64
791.693	16.9
791.874	16.9
792.054	143.87
792.235	115.2
792.416	-32.26
792.597	-11.78
792.778	74.24
792.958	107.01
793.139	8.7
793.32	35.33
793.5	53.76
793.681	137.73
793.862	59.9
794.042	-9.73
794.223	-73.21
794.404	-36.35
794.584	-75.26
794.765	-19.97
794.945	33.28
795.126	92.67
795.306	92.67
795.487	-54.78
795.667	8.7
795.848	2.56
796.028	0.51
796.209	96.77
796.389	29.18
796.57	39.42
796.75	-50.69
796.93	18.94
797.111	-7.68
797.291	-28.16
797.471	64
797.652	14.85
797.832	-73.21
798.012	25.09
798.192	-58.88
798.373	-28.16
798.553	23.04
798.733	-28.16
798.913	-110.08
799.093	-19.97
799.274	8.7
799.454	86.53
799.634	88.57
799.814	96.77
799.994	64
800.174	90.62
800.354	-3.58
800.534	-153.09
800.714	18.94
800.894	-1.54
801.074	-34.3
801.254	14.85
801.434	76.29
801.614	-30.21
801.794	-81.41
801.974	1855.97
802.154	6.66
802.334	84.48
802.514	-40.45
802.693	2.56
802.873	-1.54
803.053	100.86
803.233	43.52
803.413	-3.58
803.592	-34.3
803.772	23.04
803.952	-1.54
804.131	-44.54
804.311	70.14
804.491	61.95
804.67	-67.07
804.85	-71.17
805.03	2.56
805.209	113.15
805.389	0.51
805.568	-58.88
805.748	-30.21
805.928	59.9
806.107	-11.78
806.287	12.8
806.466	-32.26
806.646	10.75
806.825	8.7
807.004	4.61
807.184	41.47
807.363	37.38
807.543	-5.63
807.722	-69.12
807.901	20.99
808.081	27.14
808.26	-120.32
808.439	-28.16
808.619	27.14
808.798	-7.68
808.977	33.28
809.156	-5.63
809.336	2.56
809.515	127.49
809.694	-7.68
809.873	-81.41
810.052	88.57
810.231	92.67
810.411	47.62
810.59	10.75
810.769	-54.78
810.948	53.76
811.127	-122.37
811.306	-112.13
811.485	-32.26
811.664	76.29
811.843	43.52
812.022	-73.21
812.201	-32.26
812.38	-11.78
812.559	49.66
812.737	-7.68
812.916	-83.45
813.095	-83.45
813.274	-5.63
813.453	47.62
813.632	14.85
813.811	10.75
813.989	-46.59
814.168	-85.5
814.347	-34.3
814.526	45.57
814.704	29.18
814.883	57.86
815.062	-58.88
815.24	102.91
815.419	-56.83
815.598	57.86
815.776	-71.17
815.955	16.9
816.133	-144.89
816.312	-38.4
816.49	-73.21
816.669	70.14
816.847	14.85
817.026	-22.02
817.204	-71.17
817.383	51.71
817.561	-140.8
817.74	127.49
817.918	102.91
818.097	-26.11
818.275	-24.06
818.453	31.23
818.632	57.86
818.81	20.99
818.988	-75.26
819.167	-73.21
819.345	31.23
819.523	-81.41
819.701	18.94
819.879	14.85
820.058	23.04
820.236	-13.82
820.414	43.52
820.592	-9.73
820.77	-73.21
820.948	-67.07
821.127	-83.45
821.305	-19.97
821.483	-77.31
821.661	29.18
821.839	31.23
822.017	-128.51
822.195	-46.59
822.373	125.44
822.551	25.09
822.729	43.52
822.907	-52.74
823.085	-15.87
823.262	16.9
823.44	-116.22
823.618	-22.02
823.796	-5.63
823.974	-5.63
824.152	-112.13
824.329	-62.98
824.507	12.8
824.685	37.38
824.863	-1.54
825.04	31.23
825.218	74.24
825.396	-9.73
825.574	-28.16
825.751	25.09
825.929	29.18
826.107	-40.45
826.284	49.66
826.462	-19.97
826.639	-87.55
826.817	-40.45
826.994	-11.78
827.172	-38.4
827.349	117.25
827.527	41.47
827.704	29.18
827.882	-11.78
828.059	2.56
828.237	-75.26
828.414	49.66
828.591	-81.41
828.769	-30.21
828.946	-19.97
829.124	131.58
829.301	51.71
829.478	-99.84
829.655	-11.78
829.833	74.24
830.01	-157.18
830.187	92.67
830.364	-28.16
830.542	-65.02
830.719	145.92
830.896	31.23
831.073	16.9
831.25	16.9
831.427	57.86
831.604	35.33
831.782	-50.69
831.959	-30.21
832.136	-105.98
832.313	61.95
832.49	-116.22
832.667	57.86
832.844	-75.26
833.021	119.29
833.198	90.62
833.374	-1.54
833.551	-30.21
833.728	-38.4
833.905	0.51
834.082	-120.32
834.259	-54.78
834.436	31.23
834.612	-99.84
834.789	84.48
834.966	4.61
835.143	27.14
835.319	-46.59
835.496	49.66
835.673	-26.11
835.85	88.57
836.026	-62.98
836.203	10.75
836.38	-44.54
836.556	-97.79
836.733	2.56
836.909	68.09
837.086	-42.5
837.262	-46.59
837.439	-91.65
837.616	-28.16
837.792	-46.59
837.968	-38.4
838.145	-99.84
838.321	53.76
838.498	-11.78
838.674	100.86
838.851	64
839.027	-30.21
839.203	43.52
839.38	-17.92
839.556	-124.41
839.732	4.61
839.909	20.99
840.085	25.09
840.261	-71.17
840.437	14.85
840.614	-60.93
840.79	0.51
840.966	4.61
841.142	6.66
841.318	-97.79
841.494	76.29
841.671	68.09
841.847	-5.63
842.023	-15.87
842.199	68.09
842.375	123.39
842.551	-138.75
842.727	-52.74
842.903	133.63
843.079	-79.36
843.255	64
843.431	8.7
843.607	86.53
843.783	-146.94
843.959	39.42
844.134	-7.68
844.31	43.52
844.486	-124.41
844.662	-48.64
844.838	-15.87
845.013	6.66
845.189	20.99
845.365	35.33
845.541	-22.02
845.716	16.9
845.892	16.9
846.068	-151.04
846.244	-36.35
846.419	-71.17
846.595	-65.02
846.77	-136.7
846.946	82.43
847.122	-81.41
847.297	-56.83
847.473	166.4
847.648	-30.21
847.824	109.05
847.999	-155.13
848.175	-83.45
848.35	-13.82
848.526	98.81
848.701	-17.92
848.876	-36.35
849.052	90.62
849.227	-13.82
849.403	20.99
849.578	8.7
849.753	-9.73
849.929	14.85
850.104	-11.78
850.279	-15.87
850.454	8.7
850.63	68.09
850.805	37.38
850.98	31.23
851.155	-9.73
851.33	47.62
851.505	-138.75
851.681	172.54
851.856	-85.5
852.031	14.85
852.206	47.62
852.381	-71.17
852.556	-93.69
852.731	-28.16
852.906	-7.68
853.081	61.95
853.256	12.8
853.431	-83.45
853.606	-38.4
853.781	4.61
853.956	-124.41
854.131	-44.54
854.305	-46.59
854.48	-79.36
854.655	-58.88
854.83	-58.88
855.005	-5.63
855.18	29.18
855.354	-9.73
855.529	-79.36
855.704	-95.74
855.879	23.04
856.053	-93.69
856.228	-26.11
856.403	-34.3
856.577	61.95
856.752	-85.5
856.926	-89.6
857.101	90.62
857.276	-120.32
857.45	-52.74
857.625	27.14
857.799	37.38
857.974	-75.26
858.148	-167.42
858.323	18.94
858.497	-50.69
858.672	12.8
858.846	-85.5
859.02	121.34
859.195	-153.09
859.369	-81.41
859.543	-79.36
859.718	-50.69
859.892	90.62
860.066	29.18
860.241	-22.02
860.415	-42.5
860.589	45.57
860.763	-3.58
860.938	16.9
861.112	29.18
861.286	-75.26
861.46	-42.5
861.634	-24.06
861.808	49.66
861.982	-30.21
862.157	-130.56
862.331	-46.59
862.505	-83.45
862.679	-114.17
862.853	-87.55
863.027	-22.02
863.201	90.62
863.375	-112.13
863.549	2.56
863.722	12.8
863.896	84.48
864.07	-105.98
864.244	-52.74
864.418	-15.87
864.592	16.9
864.766	-30.21
864.939	-7.68
865.113	-58.88
865.287	129.53
865.461	-97.79
865.634	39.42
865.808	25.09
865.982	-19.97
866.156	-62.98
866.329	-122.37
866.503	-11.78
866.676	64
866.85	59.9
867.024	-15.87
867.197	49.66
867.371	-15.87
867.544	33.28
867.718	-136.7
867.891	84.48
868.065	-148.99
868.238	-73.21
868.412	53.76
868.585	-50.69
868.759	-105.98
868.932	-5.63
869.105	-108.03
869.279	-93.69
869.452	-46.59
869.625	-44.54
869.799	-112.13
869.972	-89.6
870.145	-1.54
870.319	43.52
870.492	-56.83
870.665	-71.17
870.838	-26.11
871.011	-171.52
871.185	-46.59
871.358	-58.88
871.531	-22.02
871.704	-105.98
871.877	-77.31
872.05	-130.56
872.223	-40.45
872.396	66.05
872.569	64
872.742	-67.07
872.915	-60.93
873.088	-91.65
873.261	-28.16
873.434	55.81
873.607	-26.11
873.78	107.01
873.953	-67.07
874.126	-1.54
874.299	-7.68
874.471	-101.89
874.644	-40.45
874.817	25.09
874.99	160.25
875.163	-60.93
875.335	39.42
875.508	-48.64
875.681	51.71
875.853	-7.68
876.026	16.9
876.199	37.38
876.371	6.66
876.544	66.05
876.717	-3.58
876.889	39.42
877.062	70.14
877.234	-114.17
877.407	-1.54
877.579	-13.82
877.752	-7.68
877.924	-65.02
878.097	-38.4
878.269	41.47
878.442	23.04
878.614	-32.26
878.786	-7.68
878.959	33.28
879.131	6.66
879.303	-110.08
879.476	-9.73
879.648	10.75
879.82	-75.26
879.993	-120.32
880.165	0.51
880.337	-62.98
880.509	-54.78
880.681	-138.75
880.854	2.56
881.026	-1.54
881.198	123.39
881.37	-22.02
881.542	-17.92
881.714	-83.45
881.886	-67.07
882.058	41.47
882.23	6.66
882.402	-34.3
882.574	6.66
882.746	-24.06
882.918	0.51
883.09	57.86
883.262	55.81
883.434	-3.58
883.606	-79.36
883.778	-1.54
883.95	92.67
884.122	-28.16
884.293	31.23
884.465	64
884.637	-54.78
884.809	-79.36
884.98	20.99
885.152	-19.97
885.324	-44.54
885.496	-75.26
885.667	-52.74
885.839	-83.45
886.011	102.91
886.182	115.2
886.354	20.99
886.525	-48.64
886.697	-52.74
886.869	-99.84
887.04	-36.35
887.212	51.71
887.383	127.49
887.555	-9.73
887.726	0.51
887.897	-13.82
888.069	45.57
888.24	-19.97
888.412	37.38
888.583	-34.3
888.754	-36.35
888.926	-177.66
889.097	-120.32
889.268	-89.6
889.44	0.51
889.611	-83.45
889.782	-13.82
889.953	-105.98
890.125	92.67
890.296	-95.74
890.467	-103.93
890.638	-69.12
890.809	10.75
890.98	-99.84
891.151	-19.97
891.323	84.48
891.494	-22.02
891.665	-32.26
891.836	-17.92
892.007	-81.41
892.178	64
892.349	-26.11
892.52	-58.88
892.691	0.51
892.862	-114.17
893.032	-91.65
893.203	-22.02
893.374	35.33
893.545	104.96
893.716	-38.4
893.887	-26.11
894.057	-42.5
894.228	-34.3
894.399	16.9
894.57	-19.97
894.74	-34.3
894.911	72.19
895.082	-24.06
895.253	-95.74
895.423	-36.35
895.594	2.56
895.764	18.94
895.935	-126.46
896.106	25.09
896.276	4.61
896.447	-34.3
896.617	-36.35
896.788	-181.76
896.958	-87.55
897.129	-7.68
897.299	-34.3
897.47	47.62
897.64	78.33
897.81	-67.07
897.981	29.18
898.151	-67.07
898.322	-19.97
898.492	8.7
898.662	-171.52
898.832	-22.02
899.003	-56.83
899.173	-50.69
899.343	-42.5
899.513	-32.26
