Data from USB4F104151__37__10-42-35-982.txt Node

Date: Wed Feb 26 10:42:35 EST 2025
User: louis
Spectrometer: USB4F10415
Trigger mode: 4
Integration Time (sec): 1.000000E-1
Scans to average: 1
Electric dark correction enabled: true
Nonlinearity correction enabled: false
Boxcar width: 0
XAxis mode: Wavelengths
Number of Pixels in Spectrum: 3648
>>>>>Begin Spectral Data<<<<<
178.204	-364.03
178.424	-364.03
178.644	-364.03
178.864	-355.83
179.084	-415.23
179.304	-7.68
179.524	-19.97
179.744	10.75
179.964	61.95
180.184	33.28
180.404	-54.78
180.624	20.99
180.844	55.81
181.064	-114.17
181.283	-44.54
181.503	-26.11
181.723	84.48
181.943	-60.93
182.163	135.68
182.383	25.09
182.602	78.33
182.822	160.25
183.042	47.62
183.262	-50.69
183.482	-32.26
183.701	-5.63
183.921	37.38
184.141	-36.35
184.361	43.52
184.58	53.76
184.8	29.18
185.02	88.57
185.239	193.02
185.459	117.25
185.679	72.19
185.898	-44.54
186.118	84.48
186.338	43.52
186.557	94.72
186.777	0.51
186.997	14.85
187.216	47.62
187.436	188.93
187.655	23.04
187.875	98.81
188.095	12.8
188.314	102.91
188.534	170.49
188.753	-7.68
188.973	178.69
189.192	158.21
189.412	-5.63
189.631	57.86
189.851	107.01
190.07	164.35
190.29	-87.55
190.509	-42.5
190.729	57.86
190.948	135.68
191.168	326.14
191.387	107.01
191.607	4.61
191.826	29.18
192.045	113.15
192.265	-36.35
192.484	78.33
192.704	70.14
192.923	-5.63
193.142	184.83
193.362	82.43
193.581	127.49
193.8	41.47
194.02	150.01
194.239	53.76
194.458	164.35
194.678	10.75
194.897	6.66
195.116	107.01
195.335	31.23
195.555	61.95
195.774	-19.97
195.993	145.92
196.212	33.28
196.432	-13.82
196.651	55.81
196.87	92.67
197.089	279.04
197.308	70.14
197.528	31.23
197.747	-42.5
197.966	94.72
198.185	190.97
198.404	-1.54
198.623	133.63
198.842	90.62
199.062	109.05
199.281	141.82
199.5	66.05
199.719	72.19
199.938	61.95
200.157	57.86
200.376	145.92
200.595	209.4
200.814	45.57
201.033	39.42
201.252	170.49
201.471	152.06
201.69	107.01
201.909	35.33
202.128	117.25
202.347	78.33
202.566	37.38
202.785	0.51
203.004	-15.87
203.223	205.31
203.442	29.18
203.661	8.7
203.879	64
204.098	156.16
204.317	-24.06
204.536	143.87
204.755	102.91
204.974	82.43
205.193	66.05
205.411	131.58
205.63	119.29
205.849	43.52
206.068	117.25
206.287	10.75
206.505	162.3
206.724	64
206.943	35.33
207.162	43.52
207.381	53.76
207.599	37.38
207.818	35.33
208.037	6.66
208.255	55.81
208.474	80.38
208.693	123.39
208.911	49.66
209.13	182.78
209.349	82.43
209.567	156.16
209.786	109.05
210.005	90.62
210.223	20.99
210.442	-71.17
210.661	31.23
210.879	72.19
211.098	18.94
211.316	4.61
211.535	70.14
211.753	88.57
211.972	88.57
212.191	10.75
212.409	66.05
212.628	145.92
212.846	41.47
213.065	43.52
213.283	180.73
213.502	33.28
213.72	10.75
213.938	115.2
214.157	-13.82
214.375	168.45
214.594	-46.59
214.812	160.25
215.031	51.71
215.249	47.62
215.467	45.57
215.686	51.71
215.904	72.19
216.122	117.25
216.341	213.5
216.559	113.15
216.778	90.62
216.996	107.01
217.214	27.14
217.432	45.57
217.651	-97.79
217.869	23.04
218.087	39.42
218.306	61.95
218.524	84.48
218.742	80.38
218.96	74.24
219.179	-32.26
219.397	68.09
219.615	217.6
219.833	70.14
220.051	-9.73
220.27	121.34
220.488	113.15
220.706	115.2
220.924	-5.63
221.142	68.09
221.36	49.66
221.578	96.77
221.796	43.52
222.015	145.92
222.233	90.62
222.451	188.93
222.669	2.56
222.887	96.77
223.105	-13.82
223.323	59.9
223.541	-28.16
223.759	53.76
223.977	37.38
224.195	221.69
224.413	80.38
224.631	29.18
224.849	123.39
225.067	182.78
225.285	18.94
225.503	64
225.721	-81.41
225.939	111.1
226.157	117.25
226.375	258.56
226.592	-28.16
226.81	10.75
227.028	113.15
227.246	137.73
227.464	-1.54
227.682	131.58
227.9	152.06
228.117	59.9
228.335	102.91
228.553	100.86
228.771	82.43
228.989	25.09
229.206	76.29
229.424	47.62
229.642	51.71
229.86	35.33
230.077	121.34
230.295	86.53
230.513	147.97
230.731	78.33
230.948	190.97
231.166	117.25
231.384	35.33
231.601	55.81
231.819	131.58
232.037	6.66
232.254	49.66
232.472	12.8
232.689	96.77
232.907	111.1
233.125	12.8
233.342	57.86
233.56	35.33
233.777	-15.87
233.995	100.86
234.213	45.57
234.43	145.92
234.648	-5.63
234.865	-17.92
235.083	55.81
235.3	74.24
235.518	119.29
235.735	80.38
235.953	195.07
236.17	20.99
236.388	23.04
236.605	-3.58
236.822	133.63
237.04	96.77
237.257	51.71
237.475	78.33
237.692	37.38
237.909	66.05
238.127	-24.06
238.344	131.58
238.562	10.75
238.779	-5.63
238.996	29.18
239.214	37.38
239.431	129.53
239.648	-22.02
239.865	78.33
240.083	59.9
240.3	-3.58
240.517	-30.21
240.735	18.94
240.952	174.59
241.169	23.04
241.386	74.24
241.603	84.48
241.821	29.18
242.038	98.81
242.255	90.62
242.472	-40.45
242.689	125.44
242.907	82.43
243.124	102.91
243.341	-11.78
243.558	88.57
243.775	-1.54
243.992	-62.98
244.209	66.05
244.426	150.01
244.643	78.33
244.86	55.81
245.078	100.86
245.295	25.09
245.512	59.9
245.729	-5.63
245.946	152.06
246.163	92.67
246.38	-13.82
246.597	94.72
246.814	96.77
247.031	20.99
247.248	31.23
247.464	41.47
247.681	102.91
247.898	80.38
248.115	152.06
248.332	-67.07
248.549	131.58
248.766	74.24
248.983	84.48
249.2	94.72
249.417	72.19
249.633	25.09
249.85	94.72
250.067	109.05
250.284	49.66
250.501	27.14
250.717	139.77
250.934	10.75
251.151	14.85
251.368	74.24
251.585	74.24
251.801	41.47
252.018	8.7
252.235	158.21
252.451	-26.11
252.668	20.99
252.885	166.4
253.102	-5.63
253.318	88.57
253.535	94.72
253.752	-24.06
253.968	55.81
254.185	8.7
254.401	107.01
254.618	53.76
254.835	31.23
255.051	104.96
255.268	53.76
255.484	41.47
255.701	59.9
255.917	53.76
256.134	-26.11
256.351	-44.54
256.567	-22.02
256.784	111.1
257	-32.26
257.217	107.01
257.433	119.29
257.65	51.71
257.866	166.4
258.082	-38.4
258.299	-22.02
258.515	84.48
258.732	29.18
258.948	53.76
259.165	31.23
259.381	-42.5
259.597	64
259.814	-11.78
260.03	39.42
260.246	51.71
260.463	150.01
260.679	221.69
260.895	74.24
261.112	133.63
261.328	68.09
261.544	-3.58
261.761	195.07
261.977	98.81
262.193	53.76
262.409	92.67
262.626	33.28
262.842	25.09
263.058	45.57
263.274	137.73
263.49	-3.58
263.707	76.29
263.923	109.05
264.139	-62.98
264.355	104.96
264.571	43.52
264.787	-1.54
265.004	135.68
265.22	-7.68
265.436	10.75
265.652	92.67
265.868	20.99
266.084	16.9
266.3	25.09
266.516	-7.68
266.732	135.68
266.948	74.24
267.164	98.81
267.38	59.9
267.596	127.49
267.812	141.82
268.028	135.68
268.244	29.18
268.46	135.68
268.676	49.66
268.892	37.38
269.108	20.99
269.324	-62.98
269.54	-28.16
269.756	135.68
269.972	4.61
270.188	-9.73
270.403	80.38
270.619	20.99
270.835	195.07
271.051	-28.16
271.267	8.7
271.483	-50.69
271.698	133.63
271.914	125.44
272.13	-7.68
272.346	57.86
272.562	29.18
272.777	137.73
272.993	84.48
273.209	47.62
273.425	127.49
273.64	-60.93
273.856	172.54
274.072	14.85
274.287	10.75
274.503	174.59
274.719	133.63
274.934	92.67
275.15	-28.16
275.366	59.9
275.581	16.9
275.797	18.94
276.012	133.63
276.228	20.99
276.444	66.05
276.659	160.25
276.875	-7.68
277.09	70.14
277.306	104.96
277.521	113.15
277.737	135.68
277.952	139.77
278.168	70.14
278.383	92.67
278.599	16.9
278.814	23.04
279.03	90.62
279.245	168.45
279.461	25.09
279.676	168.45
279.892	53.76
280.107	23.04
280.322	-3.58
280.538	125.44
280.753	51.71
280.969	18.94
281.184	35.33
281.399	256.51
281.615	104.96
281.83	121.34
282.045	-28.16
282.26	-40.45
282.476	115.2
282.691	125.44
282.906	76.29
283.122	37.38
283.337	-17.92
283.552	82.43
283.767	86.53
283.983	172.54
284.198	74.24
284.413	162.3
284.628	59.9
284.843	139.77
285.058	80.38
285.274	53.76
285.489	14.85
285.704	84.48
285.919	35.33
286.134	49.66
286.349	49.66
286.564	72.19
286.779	145.92
286.995	-28.16
287.21	-62.98
287.425	100.86
287.64	14.85
287.855	129.53
288.07	-42.5
288.285	90.62
288.5	141.82
288.715	94.72
288.93	74.24
289.145	4.61
289.36	127.49
289.575	18.94
289.79	78.33
290.004	45.57
290.219	43.52
290.434	29.18
290.649	47.62
290.864	53.76
291.079	29.18
291.294	45.57
291.509	131.58
291.724	61.95
291.938	98.81
292.153	14.85
292.368	37.38
292.583	119.29
292.798	127.49
293.012	141.82
293.227	170.49
293.442	23.04
293.657	66.05
293.871	160.25
294.086	94.72
294.301	154.11
294.516	96.77
294.73	39.42
294.945	-75.26
295.16	57.86
295.374	141.82
295.589	158.21
295.804	-1.54
296.018	16.9
296.233	119.29
296.447	72.19
296.662	4.61
296.877	137.73
297.091	90.62
297.306	6.66
297.52	80.38
297.735	18.94
297.949	41.47
298.164	135.68
298.378	61.95
298.593	20.99
298.807	4.61
299.022	16.9
299.236	113.15
299.451	14.85
299.665	-11.78
299.88	82.43
300.094	164.35
300.309	4.61
300.523	121.34
300.737	27.14
300.952	57.86
301.166	74.24
301.381	-11.78
301.595	39.42
301.809	90.62
302.024	55.81
302.238	-71.17
302.452	143.87
302.667	94.72
302.881	113.15
303.095	162.3
303.309	53.76
303.524	-69.12
303.738	31.23
303.952	-17.92
304.166	47.62
304.381	-67.07
304.595	164.35
304.809	27.14
305.023	145.92
305.237	-32.26
305.452	45.57
305.666	57.86
305.88	92.67
306.094	156.16
306.308	78.33
306.522	94.72
306.736	86.53
306.95	164.35
307.164	43.52
307.379	8.7
307.593	127.49
307.807	121.34
308.021	31.23
308.235	94.72
308.449	-77.31
308.663	82.43
308.877	246.27
309.091	98.81
309.305	119.29
309.519	-67.07
309.733	115.2
309.947	-40.45
310.161	92.67
310.374	133.63
310.588	143.87
310.802	84.48
311.016	20.99
311.23	66.05
311.444	-34.3
311.658	43.52
311.872	102.91
312.085	135.68
312.299	74.24
312.513	176.64
312.727	8.7
312.941	-17.92
313.154	121.34
313.368	74.24
313.582	90.62
313.796	96.77
314.009	29.18
314.223	121.34
314.437	49.66
314.651	111.1
314.864	72.19
315.078	41.47
315.292	51.71
315.505	41.47
315.719	100.86
315.933	90.62
316.146	18.94
316.36	-54.78
316.573	129.53
316.787	61.95
317.001	86.53
317.214	33.28
317.428	104.96
317.641	-77.31
317.855	64
318.068	139.77
318.282	180.73
318.495	225.79
318.709	0.51
318.922	20.99
319.136	207.36
319.349	115.2
319.563	47.62
319.776	90.62
319.99	-7.68
320.203	125.44
320.417	4.61
320.63	168.45
320.843	266.75
321.057	66.05
321.27	92.67
321.483	78.33
321.697	113.15
321.91	90.62
322.124	107.01
322.337	80.38
322.55	-9.73
322.763	102.91
322.977	18.94
323.19	-11.78
323.403	68.09
323.617	98.81
323.83	43.52
324.043	123.39
324.256	109.05
324.469	-40.45
324.683	180.73
324.896	51.71
325.109	51.71
325.322	-48.64
325.535	119.29
325.748	211.45
325.962	-11.78
326.175	137.73
326.388	135.68
326.601	141.82
326.814	100.86
327.027	98.81
327.24	238.08
327.453	-38.4
327.666	57.86
327.879	168.45
328.092	78.33
328.305	74.24
328.518	88.57
328.731	23.04
328.944	82.43
329.157	82.43
329.37	115.2
329.583	180.73
329.796	172.54
330.009	-67.07
330.222	121.34
330.435	117.25
330.648	45.57
330.861	100.86
331.073	164.35
331.286	82.43
331.499	45.57
331.712	18.94
331.925	90.62
332.138	47.62
332.35	49.66
332.563	43.52
332.776	117.25
332.989	-11.78
333.202	18.94
333.414	53.76
333.627	51.71
333.84	-3.58
334.053	127.49
334.265	55.81
334.478	61.95
334.691	-17.92
334.903	59.9
335.116	53.76
335.329	31.23
335.541	119.29
335.754	201.21
335.966	-34.3
336.179	31.23
336.392	102.91
336.604	20.99
336.817	121.34
337.029	76.29
337.242	53.76
337.454	74.24
337.667	-7.68
337.88	139.77
338.092	66.05
338.305	141.82
338.517	25.09
338.729	109.05
338.942	141.82
339.154	72.19
339.367	16.9
339.579	92.67
339.792	-26.11
340.004	143.87
340.217	12.8
340.429	88.57
340.641	74.24
340.854	-62.98
341.066	47.62
341.278	113.15
341.491	143.87
341.703	80.38
341.915	78.33
342.128	107.01
342.34	111.1
342.552	18.94
342.764	80.38
342.977	12.8
343.189	74.24
343.401	43.52
343.613	-19.97
343.826	68.09
344.038	49.66
344.25	78.33
344.462	-24.06
344.674	59.9
344.886	80.38
345.099	68.09
345.311	29.18
345.523	0.51
345.735	-32.26
345.947	88.57
346.159	51.71
346.371	49.66
346.583	4.61
346.795	182.78
347.007	123.39
347.219	57.86
347.431	4.61
347.643	117.25
347.855	-9.73
348.067	133.63
348.279	-89.6
348.491	123.39
348.703	109.05
348.915	25.09
349.127	-44.54
349.339	115.2
349.551	-28.16
349.763	51.71
349.975	31.23
350.187	102.91
350.399	115.2
350.61	84.48
350.822	18.94
351.034	94.72
351.246	115.2
351.458	86.53
351.669	117.25
351.881	90.62
352.093	172.54
352.305	100.86
352.517	125.44
352.728	129.53
352.94	2.56
353.152	96.77
353.363	57.86
353.575	100.86
353.787	174.59
353.999	76.29
354.21	160.25
354.422	-75.26
354.633	55.81
354.845	-79.36
355.057	94.72
355.268	70.14
355.48	156.16
355.692	-9.73
355.903	86.53
356.115	96.77
356.326	-42.5
356.538	184.83
356.749	107.01
356.961	137.73
357.172	88.57
357.384	-42.5
357.595	244.22
357.807	109.05
358.018	33.28
358.23	-11.78
358.441	238.08
358.653	219.64
358.864	57.86
359.075	20.99
359.287	113.15
359.498	127.49
359.709	131.58
359.921	53.76
360.132	98.81
360.344	119.29
360.555	25.09
360.766	47.62
360.977	12.8
361.189	74.24
361.4	51.71
361.611	182.78
361.823	250.36
362.034	20.99
362.245	-38.4
362.456	76.29
362.667	115.2
362.879	-38.4
363.09	121.34
363.301	107.01
363.512	107.01
363.723	12.8
363.935	18.94
364.146	92.67
364.357	80.38
364.568	82.43
364.779	-52.74
364.99	162.3
365.201	27.14
365.412	141.82
365.623	-48.64
365.834	152.06
366.045	61.95
366.256	111.1
366.467	152.06
366.678	35.33
366.889	86.53
367.1	55.81
367.311	72.19
367.522	43.52
367.733	133.63
367.944	86.53
368.155	68.09
368.366	121.34
368.577	135.68
368.788	168.45
368.999	-26.11
369.209	66.05
369.42	227.84
369.631	190.97
369.842	84.48
370.053	88.57
370.264	96.77
370.474	-26.11
370.685	98.81
370.896	59.9
371.107	160.25
371.317	74.24
371.528	74.24
371.739	174.59
371.95	90.62
372.16	143.87
372.371	10.75
372.582	25.09
372.792	84.48
373.003	111.1
373.214	145.92
373.424	154.11
373.635	31.23
373.846	215.55
374.056	37.38
374.267	-28.16
374.477	64
374.688	4.61
374.898	37.38
375.109	127.49
375.319	53.76
375.53	35.33
375.74	170.49
375.951	-5.63
376.161	49.66
376.372	147.97
376.582	94.72
376.793	96.77
377.003	107.01
377.214	-7.68
377.424	57.86
377.635	-5.63
377.845	76.29
378.055	195.07
378.266	-34.3
378.476	166.4
378.686	139.77
378.897	107.01
379.107	43.52
379.317	84.48
379.528	23.04
379.738	76.29
379.948	-19.97
380.158	45.57
380.369	94.72
380.579	131.58
380.789	51.71
380.999	129.53
381.21	113.15
381.42	193.02
381.63	123.39
381.84	145.92
382.05	16.9
382.261	119.29
382.471	209.4
382.681	-56.83
382.891	184.83
383.101	104.96
383.311	-67.07
383.521	43.52
383.731	164.35
383.941	109.05
384.151	78.33
384.361	51.71
384.571	96.77
384.781	78.33
384.991	178.69
385.201	184.83
385.411	45.57
385.621	39.42
385.831	104.96
386.041	66.05
386.251	57.86
386.461	86.53
386.671	72.19
386.881	145.92
387.091	117.25
387.301	147.97
387.511	86.53
387.72	64
387.93	57.86
388.14	-40.45
388.35	88.57
388.56	145.92
388.769	145.92
388.979	115.2
389.189	14.85
389.399	121.34
389.609	61.95
389.818	109.05
390.028	39.42
390.238	86.53
390.447	-5.63
390.657	131.58
390.867	61.95
391.076	-40.45
391.286	-24.06
391.496	47.62
391.705	10.75
391.915	156.16
392.125	156.16
392.334	41.47
392.544	197.12
392.753	90.62
392.963	6.66
393.172	20.99
393.382	82.43
393.591	172.54
393.801	57.86
394.01	141.82
394.22	64
394.429	45.57
394.639	127.49
394.848	131.58
395.058	53.76
395.267	70.14
395.477	129.53
395.686	68.09
395.895	276.99
396.105	281.08
396.314	72.19
396.524	37.38
396.733	59.9
396.942	113.15
397.152	125.44
397.361	201.21
397.57	53.76
397.78	33.28
397.989	33.28
398.198	215.55
398.407	133.63
398.617	49.66
398.826	68.09
399.035	37.38
399.244	70.14
399.453	104.96
399.663	25.09
399.872	107.01
400.081	23.04
400.29	158.21
400.499	68.09
400.708	158.21
400.917	64
401.127	72.19
401.336	-28.16
401.545	219.64
401.754	100.86
401.963	180.73
402.172	39.42
402.381	4.61
402.59	6.66
402.799	-7.68
403.008	180.73
403.217	53.76
403.426	78.33
403.635	-5.63
403.844	74.24
404.053	64
404.262	82.43
404.471	137.73
404.68	111.1
404.888	96.77
405.097	92.67
405.306	94.72
405.515	80.38
405.724	-3.58
405.933	160.25
406.142	68.09
406.35	195.07
406.559	-5.63
406.768	121.34
406.977	201.21
407.185	104.96
407.394	64
407.603	-24.06
407.812	156.16
408.02	137.73
408.229	39.42
408.438	137.73
408.646	-11.78
408.855	70.14
409.064	125.44
409.272	72.19
409.481	82.43
409.69	53.76
409.898	-32.26
410.107	135.68
410.315	137.73
410.524	23.04
410.733	96.77
410.941	117.25
411.15	119.29
411.358	133.63
411.567	164.35
411.775	10.75
411.984	96.77
412.192	86.53
412.401	33.28
412.609	166.4
412.818	123.39
413.026	137.73
413.234	57.86
413.443	137.73
413.651	43.52
413.86	119.29
414.068	193.02
414.276	205.31
414.485	176.64
414.693	168.45
414.901	207.36
415.11	94.72
415.318	84.48
415.526	104.96
415.734	90.62
415.943	119.29
416.151	135.68
416.359	57.86
416.567	39.42
416.776	57.86
416.984	180.73
417.192	203.26
417.4	70.14
417.608	96.77
417.817	10.75
418.025	188.93
418.233	215.55
418.441	-52.74
418.649	-11.78
418.857	141.82
419.065	162.3
419.273	76.29
419.481	98.81
419.689	47.62
419.897	41.47
420.105	-65.02
420.313	143.87
420.521	229.88
420.729	80.38
420.937	6.66
421.145	49.66
421.353	135.68
421.561	201.21
421.769	90.62
421.977	64
422.185	193.02
422.393	33.28
422.601	145.92
422.809	172.54
423.017	107.01
423.224	176.64
423.432	152.06
423.64	127.49
423.848	178.69
424.056	12.8
424.263	168.45
424.471	43.52
424.679	168.45
424.887	55.81
425.094	244.22
425.302	111.1
425.51	78.33
425.718	123.39
425.925	61.95
426.133	121.34
426.341	238.08
426.548	94.72
426.756	82.43
426.964	88.57
427.171	35.33
427.379	98.81
427.586	135.68
427.794	174.59
428.001	207.36
428.209	158.21
428.417	264.7
428.624	133.63
428.832	100.86
429.039	150.01
429.247	102.91
429.454	199.16
429.662	197.12
429.869	127.49
430.076	240.12
430.284	182.78
430.491	264.7
430.699	229.88
430.906	221.69
431.114	131.58
431.321	180.73
431.528	137.73
431.736	178.69
431.943	240.12
432.15	119.29
432.358	238.08
432.565	268.8
432.772	14.85
432.979	240.12
433.187	168.45
433.394	336.38
433.601	238.08
433.808	291.32
434.016	317.95
434.223	340.47
434.43	223.74
434.637	352.76
434.844	383.48
435.052	270.84
435.259	338.43
435.466	401.91
435.673	311.8
435.88	383.48
436.087	365.05
436.294	403.96
436.501	360.95
436.708	283.13
436.915	395.77
437.122	350.71
437.329	371.19
437.537	471.54
437.743	428.54
437.95	559.61
438.157	467.45
438.364	410.11
438.571	532.98
438.778	565.75
438.985	575.99
439.192	633.33
439.399	537.08
439.606	659.96
439.813	651.77
440.02	797.17
440.227	805.36
440.433	686.58
440.64	678.39
440.847	698.87
441.054	754.16
441.261	879.09
441.467	774.64
441.674	801.27
441.881	932.34
442.088	836.08
442.294	1020.4
442.501	1030.64
442.708	1030.64
442.914	1071.6
443.121	1065.46
443.328	1143.28
443.534	1223.15
443.741	1227.25
443.948	1090.03
444.154	1286.64
444.361	1544.68
444.568	1270.25
444.774	1393.13
444.981	1313.26
445.187	1583.59
445.394	1438.19
445.6	1425.9
445.807	1612.26
446.013	1614.31
446.22	1618.41
446.426	1849.83
446.633	1866.21
446.839	2105.82
447.046	1849.83
447.252	2116.06
447.459	2150.88
447.665	2191.84
447.871	2220.51
448.078	2529.75
448.284	2466.27
448.491	2666.97
448.697	2617.82
448.903	2849.24
449.11	2730.45
449.316	2785.75
449.522	3138
449.728	3064.27
449.935	3277.26
450.141	3146.19
450.347	3563.98
450.553	3559.88
450.76	3543.5
450.966	3873.22
451.172	3938.76
451.378	4067.78
451.584	4172.22
451.791	4424.12
451.997	4547
452.203	4600.25
452.409	4899.25
452.615	5136.82
452.821	4848.05
453.027	5095.86
453.233	5753.26
453.44	5415.34
453.646	5736.87
453.852	6113.7
454.058	6218.15
454.264	6410.65
454.47	6742.43
454.676	7074.2
454.882	7403.92
455.088	7178.64
455.294	7448.97
455.5	8130.95
455.705	8653.18
455.911	8409.47
456.117	8933.75
456.323	8888.7
456.529	8874.36
456.735	9732.46
456.941	10217.83
457.147	10527.07
457.352	10764.64
457.558	11030.87
457.764	11786.57
457.97	12056.9
458.176	12712.25
458.381	13044.02
458.587	13164.86
458.793	13873.45
458.999	14094.63
459.204	16089.35
459.41	16296.2
459.616	16238.86
459.821	17268.98
460.027	17953.01
460.233	18370.79
460.438	18628.84
460.644	19896.53
460.85	20136.14
461.055	20869.31
461.261	21754.04
461.466	21446.84
461.672	21915.83
461.878	24385.68
462.083	24156.3
462.289	24643.72
462.494	25530.49
462.7	25954.42
462.905	26124.4
463.111	28414.03
463.316	29681.72
463.522	30287.92
463.727	31129.64
463.932	32143.38
464.138	33345.54
464.343	34680.81
464.549	34826.22
464.754	37062.6
464.959	38375.35
465.165	38981.55
465.37	38873.01
465.575	38721.46
465.781	41213.84
465.986	42604.41
466.191	41891.71
466.397	42461.05
466.602	41353.1
466.807	43370.35
467.012	44519.26
467.218	45256.53
467.423	45244.24
467.628	46178.11
467.833	48549.66
468.038	47722.28
468.244	46817.08
468.449	49229.58
468.654	48056.1
468.859	47900.45
469.064	48592.67
469.269	47232.82
469.474	47882.02
469.679	49295.12
469.885	47163.18
470.09	48623.39
470.295	48508.7
470.5	47683.37
470.705	47941.41
470.91	46290.75
471.115	45956.93
471.32	46645.05
471.525	46475.07
471.73	45197.13
471.935	45068.11
472.139	43153.26
472.344	43448.17
472.549	43276.14
472.754	42739.57
472.959	41514.89
473.164	40157.08
473.369	39223.21
473.574	40572.82
473.778	39864.22
473.983	39229.35
474.188	38389.69
474.393	36849.61
474.598	36833.23
474.802	35872.73
475.007	35284.97
475.212	34621.42
475.417	33454.08
475.621	33376.26
475.826	33067.02
476.031	31920.15
476.235	31289.38
476.44	31447.07
476.645	30748.71
476.849	30380.08
477.054	29585.47
477.259	29245.51
477.463	29009.99
477.668	28139.6
477.872	28371.02
478.077	27523.16
478.282	27191.39
478.486	26552.43
478.691	26376.3
478.895	26263.66
479.1	25759.86
479.304	25897.08
479.509	25100.42
479.713	25366.65
479.918	24641.67
480.122	24166.54
480.326	24326.28
480.531	24455.31
480.735	24248.46
480.94	23578.78
481.144	24117.39
481.348	22876.32
481.553	23126.18
481.757	22286.51
481.961	22747.3
482.166	22956.19
482.37	22433.96
482.574	22050.99
482.778	21964.98
482.983	22413.48
483.187	21502.14
483.391	21649.59
483.595	21274.81
483.8	21131.45
484.004	21074.11
484.208	21291.2
484.412	20830.4
484.616	20453.58
484.821	20385.99
485.025	19810.51
485.229	19994.83
485.433	19712.21
485.637	19259.61
485.841	19065.05
486.045	18770.15
486.249	18612.45
486.453	18342.12
486.657	18346.22
486.861	17764.59
487.065	17324.28
487.269	17348.86
487.473	16691.46
487.677	16976.12
487.881	16709.89
488.085	16068.87
488.289	16042.25
488.493	15661.33
488.697	15644.95
488.901	15376.66
489.105	15012.12
489.309	14698.78
489.512	14559.52
489.716	14082.35
489.92	14141.74
490.124	13680.94
490.328	13971.75
490.531	13242.68
490.735	13046.07
490.939	12765.5
491.143	12181.83
491.346	12290.37
491.55	12308.8
491.754	11989.32
491.958	11938.12
492.161	11581.78
492.365	11561.3
492.569	11219.28
492.772	11071.83
492.976	10899.8
493.18	10680.67
493.383	10662.24
493.587	10434.91
493.79	10451.3
493.994	10037.61
494.197	10281.32
494.401	9963.88
494.605	10068.33
494.808	9908.58
495.012	9818.47
495.215	9812.33
495.419	9924.97
495.622	9437.55
495.825	9419.12
496.029	9535.85
496.232	9478.51
496.436	9263.47
496.639	9365.87
496.843	9093.49
497.046	9329.01
497.249	9486.7
497.453	9101.69
497.656	9226.61
497.859	9339.25
498.063	9496.94
498.266	9494.9
498.469	9308.53
498.673	9335.15
498.876	9531.76
499.079	9372.02
499.282	9537.9
499.485	9763.18
499.689	9542
499.892	9591.15
500.095	9724.27
500.298	9789.8
500.501	9501.04
500.705	9795.95
500.908	9984.36
501.111	9998.7
501.314	10144.1
501.517	10252.64
501.72	10240.36
501.923	10404.19
502.126	10445.15
502.329	10705.24
502.532	10864.99
502.735	10754.4
502.938	11022.68
503.141	11268.44
503.344	11209.04
503.547	11358.55
503.75	11583.82
503.953	11649.36
504.156	11862.35
504.359	11950.41
504.562	11739.47
504.765	12446.02
504.968	12529.98
505.17	12732.73
505.373	12683.58
505.576	12841.28
505.779	13029.69
505.982	13300.02
506.185	13668.66
506.387	13689.14
506.59	14231.85
506.793	14285.09
506.996	14491.94
507.198	14977.31
507.401	14969.12
507.604	15264.02
507.807	15823.12
508.009	15960.33
508.212	16060.68
508.415	16429.32
508.617	16857.34
508.82	16908.54
509.022	17182.97
509.225	17844.46
509.428	18122.99
509.63	18620.64
509.833	18749.67
510.035	19523.8
510.238	19534.04
510.44	19898.58
510.643	20639.94
510.845	21131.45
511.048	21295.29
511.25	21852.34
511.453	21926.07
511.655	23300.25
511.858	23509.15
512.06	23781.53
512.262	24244.37
512.465	24705.16
512.667	25659.51
512.87	25958.52
513.072	26384.49
513.274	27125.86
513.477	27947.09
513.679	28407.89
513.881	29163.59
514.084	29765.69
514.286	30179.38
514.488	30801.96
514.69	31717.4
514.893	32112.66
515.095	32712.72
515.297	33650.69
515.499	34336.76
515.701	34854.89
515.904	35612.64
516.106	36192.22
516.308	37259.21
516.51	37711.81
516.712	37992.38
516.914	39124.91
517.116	40318.87
517.318	40544.15
517.52	41158.54
517.722	41824.13
517.925	42758
518.127	43499.37
518.329	43896.67
518.531	44336.99
518.733	45457.23
518.935	46333.76
519.136	46743.35
519.338	47322.93
519.54	48422.69
519.742	49336.08
519.944	49526.54
520.146	50185.99
520.348	50652.92
520.55	51347.18
520.752	51932.9
520.954	52881.11
521.155	52688.6
521.357	53812.94
521.559	54470.34
521.761	55350.96
521.963	55330.48
522.164	55869.1
522.366	56571.55
522.568	56848.03
522.77	57147.03
522.971	58164.87
523.173	57792.14
523.375	58599.04
523.576	58107.53
523.778	58873.47
523.98	59111.03
524.181	59344.5
524.383	59496.05
524.584	60384.87
524.786	59799.15
524.988	59555.44
525.189	60163.69
525.391	60057.2
525.592	60505.7
525.794	60358.25
525.995	60206.7
526.197	59770.48
526.398	59795.06
526.6	59942.51
526.801	60163.69
527.003	59940.46
527.204	59747.95
527.406	59698.8
527.607	58998.4
527.808	59696.75
528.01	57894.54
528.211	58570.37
528.412	58510.98
528.614	58363.53
528.815	57697.94
529.016	57435.8
529.218	56510.11
529.419	56366.76
529.62	55860.91
529.822	55273.14
530.023	55015.1
530.224	54453.95
530.425	53731.02
530.626	53057.24
530.828	52709.08
531.029	52616.93
531.23	51408.62
531.431	51103.48
531.632	50966.26
531.833	50243.33
532.035	49731.34
532.236	49063.7
532.437	48936.73
532.638	48058.15
532.839	47251.25
533.04	47140.66
533.241	45829.96
533.442	45885.25
533.643	44961.62
533.844	44783.44
534.045	44236.64
534.246	43102.06
534.447	42899.31
534.648	42434.42
534.849	41779.07
535.05	40949.65
535.251	40710.03
535.451	40081.31
535.652	39673.76
535.853	38873.01
536.054	38422.45
536.255	38434.74
536.456	37365.7
536.657	37447.62
536.857	36585.43
537.058	35919.84
537.259	35616.74
537.46	35094.5
537.66	34514.93
537.861	34326.52
538.062	33716.22
538.263	33175.56
538.463	32921.61
538.664	32538.64
538.865	32524.3
539.065	31856.67
539.266	31434.78
539.466	31426.59
539.667	30249.01
539.868	30378.03
540.068	29915.19
540.269	29544.51
540.469	29601.85
540.67	28811.34
540.87	28573.77
541.071	28127.31
541.271	28037.2
541.472	27482.2
541.672	27250.78
541.873	26921.06
542.073	26343.53
542.274	26521.71
542.474	26122.35
542.675	25546.87
542.875	25710.71
543.075	25049.22
543.276	24817.8
543.476	24776.84
543.676	24256.65
543.877	23851.16
544.077	23994.51
544.277	23605.4
544.478	23316.64
544.678	23029.92
544.878	22958.24
545.078	22468.78
545.279	22276.27
545.479	22079.66
545.679	21905.59
545.879	21641.4
546.079	21467.32
546.28	21147.84
546.48	20422.86
546.68	20840.64
546.88	20263.11
547.08	20070.61
547.28	19796.18
547.48	19359.96
547.68	19572.95
547.88	19263.71
548.081	19085.53
548.281	18890.98
548.481	18440.42
548.681	18415.85
548.881	17901.81
549.081	17803.5
549.28	17303.8
549.48	17619.19
549.68	17258.74
549.88	16969.98
550.08	16490.76
550.28	16531.72
550.48	16265.48
550.68	15984.91
550.88	15558.93
551.08	15603.99
551.279	15454.48
551.479	14958.88
551.679	15032.6
551.879	14604.58
552.079	14424.36
552.278	14356.77
552.478	14203.18
552.678	13771.05
552.878	13621.55
553.077	13408.56
553.277	13087.03
553.477	13181.24
553.676	13015.35
553.876	12685.63
554.076	12587.33
554.275	12273.99
554.475	11907.4
554.674	11979.08
554.874	11614.54
555.074	11424.08
555.273	11356.5
555.473	11063.64
555.672	11047.26
555.872	10834.27
556.071	10647.9
556.271	10445.15
556.47	10129.77
556.67	10154.34
556.869	9929.06
557.068	9797.99
557.268	9714.03
557.467	9503.09
557.667	9410.93
557.866	9490.8
558.065	8753.53
558.265	8851.83
558.464	8601.98
558.663	8864.12
558.863	8542.59
559.062	8440.19
559.261	8128.9
559.461	8063.36
559.66	7967.11
559.859	7842.18
560.058	7745.93
560.258	7563.66
560.457	7498.13
560.656	7455.12
560.855	7111.06
561.054	7190.93
561.253	7078.29
561.453	6863.26
561.652	6744.47
561.851	6791.58
562.05	6508.96
562.249	6310.3
562.448	6525.34
562.647	6181.28
562.846	6175.14
563.045	6228.38
563.244	5978.53
563.443	6193.57
563.642	5937.57
563.841	5851.56
564.04	5777.83
564.239	5493.16
564.438	5706.15
564.637	5433.77
564.836	5312.94
565.035	5235.12
565.234	5190.06
565.432	5228.98
565.631	5128.63
565.83	5210.54
566.029	4936.12
566.228	4872.63
566.427	4790.71
566.625	4669.88
566.824	4547
567.023	4479.42
567.222	4379.07
567.42	4434.36
567.619	4270.53
567.818	4544.95
568.016	4403.64
568.215	4198.85
568.414	4186.56
568.612	4108.74
568.811	4078.02
569.01	3832.26
569.208	3813.83
569.407	3957.19
569.605	3832.26
569.804	3699.14
570.002	3865.03
570.201	3451.34
570.4	3617.22
570.598	3568.07
570.797	3539.4
570.995	3240.4
571.193	3334.61
571.392	3242.45
571.59	3215.82
571.789	3310.03
571.987	3262.93
572.186	3209.68
572.384	3047.89
572.582	3105.23
572.781	3226.06
572.979	2806.23
573.177	2965.97
573.376	2914.77
573.574	2937.3
573.772	2836.95
573.971	2605.53
574.169	2472.41
574.367	2804.18
574.565	2617.82
574.763	2492.89
574.962	2576.86
575.16	2572.76
575.358	2443.74
575.556	2435.55
575.754	2365.92
575.952	2273.76
576.151	2421.21
576.349	2290.14
576.547	2232.8
576.745	2290.14
576.943	2189.79
577.141	1964.51
577.339	2019.81
577.537	2134.5
577.735	2111.97
577.933	2021.86
578.131	1939.94
578.329	2062.82
578.527	1872.36
578.725	1939.94
578.923	1862.12
579.121	1974.75
579.319	1761.77
579.516	1853.92
579.714	1896.93
579.912	1765.86
580.11	1675.75
580.308	1722.85
580.506	1688.04
580.704	1468.91
580.901	1522.15
581.099	1806.82
581.297	1602.02
581.495	1546.73
581.692	1475.05
581.89	1528.3
582.088	1473
582.285	1579.5
582.483	1403.37
582.681	1399.27
582.878	1370.6
583.076	1485.29
583.274	1270.25
583.471	1513.96
583.669	1323.5
583.866	1217.01
584.064	1247.72
584.262	1100.27
584.459	1214.96
584.657	1257.96
584.854	1274.35
585.052	1235.44
585.249	1358.32
585.447	1155.57
585.644	1018.35
585.841	1202.67
586.039	1145.33
586.236	1163.76
586.434	1174
586.631	1047.02
586.828	1090.03
587.026	979.44
587.223	1028.59
587.42	913.91
587.618	1112.56
587.815	1012.21
588.012	985.58
588.21	924.15
588.407	1040.88
588.604	1106.42
588.801	965.11
588.999	952.82
589.196	987.63
589.393	860.66
589.59	942.58
589.787	827.89
589.984	909.81
590.182	905.71
590.379	864.75
590.576	928.24
590.773	840.18
590.97	874.99
591.167	829.94
591.364	860.66
591.561	836.08
591.758	897.52
591.955	801.27
592.152	881.14
592.349	831.99
592.546	756.21
592.743	819.7
592.94	772.6
593.137	860.66
593.334	936.43
593.531	850.42
593.727	831.99
593.924	913.91
594.121	844.28
594.318	866.8
594.515	866.8
594.712	885.23
594.908	911.86
595.105	760.31
595.302	922.1
595.499	887.28
595.696	1059.31
595.892	911.86
596.089	1044.98
596.286	997.87
596.482	1110.51
596.679	1065.46
596.876	938.48
597.072	1028.59
597.269	1069.55
597.466	1073.65
597.662	973.3
597.859	1120.75
598.055	1231.34
598.252	1257.96
598.448	1419.75
598.645	1399.27
598.841	1452.52
599.038	1575.4
599.234	1528.3
599.431	1622.5
599.627	1550.82
599.824	1724.9
600.02	1804.77
600.217	1849.83
600.413	1808.87
600.609	1812.96
600.806	2238.94
601.002	2048.48
601.198	2015.71
601.395	2200.03
601.591	2380.25
601.787	2279.9
601.984	2501.08
602.18	2517.47
602.376	2560.47
602.572	2867.67
602.769	2957.78
602.965	2949.59
603.161	3041.75
603.357	3193.3
603.553	3330.51
603.75	3441.1
603.946	3430.86
604.142	3480.01
604.338	3654.09
604.534	3615.18
604.73	3977.67
604.926	4061.63
605.122	4342.21
605.318	4323.77
605.514	4354.49
605.71	4667.83
605.906	4678.07
606.102	4956.6
606.298	5077.43
606.494	5257.65
606.69	5460.4
606.886	5566.89
607.082	5624.23
607.278	5968.29
607.474	5904.81
607.67	6179.23
607.866	6191.52
608.062	6547.87
608.257	6687.13
608.453	6773.14
608.649	7164.31
608.845	7031.19
609.041	7211.41
609.236	7502.22
609.432	7713.16
609.628	8210.82
609.824	8247.68
610.019	8475.01
610.215	8716.67
610.411	9105.78
610.606	9286
610.802	9560.43
610.998	9703.79
611.193	9941.35
611.389	9970.02
611.584	10426.72
611.78	10729.82
611.976	11016.54
612.171	11401.55
612.367	11708.75
612.562	12040.52
612.758	11985.23
612.953	12253.51
613.149	12683.58
613.344	12908.86
613.539	13553.97
613.735	14035.24
613.93	14334.25
614.126	14614.82
614.321	14995.74
614.517	15298.84
614.712	15919.37
614.907	16240.9
615.103	16607.49
615.298	16716.03
615.493	17410.29
615.688	17770.74
615.884	18675.94
616.079	18643.17
616.274	18993.37
616.47	19718.36
616.665	20306.12
616.86	20467.91
617.055	21340.35
617.25	21620.92
617.445	22333.61
617.641	22565.03
617.836	23314.59
618.031	23781.53
618.226	24397.96
618.421	25184.38
618.616	25997.43
618.811	25917.56
619.006	27175.01
619.201	27283.55
619.396	28125.27
619.591	28182.61
619.786	29352
619.981	29251.65
620.176	30507.05
620.371	30947.37
620.566	32012.31
620.761	32313.36
620.956	33372.16
621.151	33449.99
621.346	34369.52
621.541	34586.61
621.735	35903.45
621.93	36024.28
622.125	36863.95
622.32	36771.79
622.515	37894.08
622.709	38999.98
622.904	39800.74
623.099	40028.06
623.294	41082.77
623.488	41289.61
623.683	42352.51
623.878	42690.42
624.072	43872.1
624.267	44498.78
624.462	45143.89
624.656	45315.92
624.851	46587.71
625.046	46991.15
625.24	47718.18
625.435	48301.85
625.629	48965.4
625.824	48819.99
626.018	50140.93
626.213	49821.45
626.407	51271.41
626.602	51078.9
626.796	52303.59
626.991	53130.97
627.185	53413.58
627.38	52946.65
627.574	53782.22
627.768	53774.03
627.963	54208.2
628.157	53872.33
628.352	54636.22
628.546	53991.11
628.74	54847.16
628.935	54015.69
629.129	54808.25
629.323	53991.11
629.517	53845.71
629.712	53671.63
629.906	53419.73
630.1	52829.91
630.294	52725.47
630.489	52102.88
630.683	51801.83
630.877	50140.93
631.071	49614.6
631.265	49399.57
631.459	48090.91
631.653	47372.08
631.848	46100.29
632.042	45209.42
632.236	44619.61
632.43	42821.49
632.624	41920.38
632.818	41088.91
633.012	39176.11
633.206	38008.76
633.4	37611.46
633.594	35596.26
633.788	34975.72
633.982	33947.64
634.176	32725
634.369	31518.75
634.563	29739.07
634.757	28606.54
634.951	27938.9
635.145	27039.84
635.339	25723
635.533	24785.03
635.726	23742.61
635.92	22780.07
636.114	21831.86
636.308	20627.65
636.501	20254.92
636.695	19560.66
636.889	18497.77
637.083	18094.32
637.276	16986.36
637.47	16365.83
637.664	15915.28
637.857	15489.3
638.051	14721.31
638.244	13787.44
638.438	13363.51
638.632	12986.68
638.825	12353.86
639.019	11979.08
639.212	11340.11
639.406	11133.27
639.599	10547.55
639.793	10262.88
639.986	9830.76
640.18	9625.97
640.373	8878.46
640.567	8722.81
640.76	8233.35
640.954	8034.69
641.147	7877
641.34	7229.84
641.534	7186.83
641.727	6795.67
641.92	6785.43
642.114	6384.03
642.307	6238.62
642.5	5902.76
642.694	5683.63
642.887	5634.47
643.08	5136.82
643.273	5069.23
643.467	4995.51
643.66	4661.69
643.853	4524.47
644.046	4364.73
644.239	4270.53
644.432	3996.1
644.626	3770.82
644.819	3637.7
645.012	3637.7
645.205	3713.48
645.398	3342.8
645.591	3140.05
645.784	2968.02
645.977	2984.4
646.17	2851.28
646.363	2601.43
646.556	2597.34
646.749	2441.69
646.942	2568.66
647.135	2367.96
647.328	2347.48
647.521	2222.56
647.714	2068.96
647.907	2081.25
648.099	1913.31
648.292	1944.03
648.485	1898.98
648.678	1712.61
648.871	1731.05
649.064	1573.35
649.256	1507.82
649.449	1552.87
649.642	1321.45
649.835	1337.84
650.027	1319.4
650.22	1505.77
650.413	1307.12
650.605	1272.3
650.798	1118.7
650.991	1260.01
651.183	1147.37
651.376	1077.74
651.568	1032.69
651.761	975.35
651.954	1018.35
652.146	944.63
652.339	874.99
652.531	967.15
652.724	743.92
652.916	829.94
653.109	623.09
653.301	893.43
653.494	836.08
653.686	723.44
653.879	801.27
654.071	805.36
654.263	664.05
654.456	621.05
654.648	766.45
654.84	723.44
655.033	596.47
655.225	690.68
655.417	469.5
655.61	674.29
655.802	621.05
655.994	573.94
656.186	430.59
656.379	600.57
656.571	510.46
656.763	424.44
656.955	537.08
657.148	434.68
657.34	553.46
657.532	436.73
657.724	492.02
657.916	498.17
658.108	508.41
658.3	532.98
658.492	375.29
658.684	375.29
658.876	381.43
659.068	299.52
659.26	320
659.452	340.47
659.644	391.67
659.836	510.46
660.028	379.39
660.22	317.95
660.412	365.05
660.604	238.08
660.796	254.46
660.988	416.25
661.18	350.71
661.372	365.05
661.563	322.04
661.755	340.47
661.947	233.98
662.139	174.59
662.331	297.47
662.522	279.04
662.714	217.6
662.906	178.69
663.097	274.94
663.289	240.12
663.481	168.45
663.673	264.7
663.864	219.64
664.056	293.37
664.247	162.3
664.439	315.9
664.631	211.45
664.822	283.13
665.014	285.18
665.205	174.59
665.397	266.75
665.588	276.99
665.78	168.45
665.971	244.22
666.163	225.79
666.354	193.02
666.546	231.93
666.737	193.02
666.929	141.82
667.12	184.83
667.311	211.45
667.503	242.17
667.694	152.06
667.885	264.7
668.077	279.04
668.268	201.21
668.459	145.92
668.651	162.3
668.842	195.07
669.033	166.4
669.224	49.66
669.416	332.28
669.607	178.69
669.798	145.92
669.989	211.45
670.18	207.36
670.371	184.83
670.563	143.87
670.754	233.98
670.945	236.03
671.136	209.4
671.327	100.86
671.518	244.22
671.709	299.52
671.9	164.35
672.091	283.13
672.282	145.92
672.473	145.92
672.664	74.24
672.855	285.18
673.046	168.45
673.237	238.08
673.428	172.54
673.619	160.25
673.809	166.4
674	229.88
674.191	246.27
674.382	215.55
674.573	238.08
674.764	145.92
674.954	377.34
675.145	236.03
675.336	193.02
675.527	152.06
675.717	227.84
675.908	188.93
676.099	137.73
676.289	190.97
676.48	68.09
676.671	221.69
676.861	178.69
677.052	283.13
677.243	201.21
677.433	102.91
677.624	231.93
677.814	231.93
678.005	188.93
678.195	297.47
678.386	184.83
678.576	182.78
678.767	143.87
678.957	166.4
679.148	299.52
679.338	401.91
679.529	221.69
679.719	233.98
679.909	240.12
680.1	279.04
680.29	274.94
680.481	129.53
680.671	276.99
680.861	260.6
681.052	246.27
681.242	215.55
681.432	248.32
681.622	270.84
681.813	113.15
682.003	213.5
682.193	217.6
682.383	152.06
682.573	199.16
682.764	184.83
682.954	252.41
683.144	324.09
683.334	217.6
683.524	193.02
683.714	205.31
683.904	258.56
684.094	240.12
684.284	238.08
684.474	338.43
684.664	242.17
684.854	326.14
685.044	283.13
685.234	203.26
685.424	199.16
685.614	221.69
685.804	324.09
685.994	213.5
686.184	291.32
686.374	244.22
686.564	324.09
686.753	248.32
686.943	246.27
687.133	207.36
687.323	274.94
687.513	285.18
687.702	311.8
687.892	238.08
688.082	320
688.272	309.76
688.461	274.94
688.651	432.63
688.841	276.99
689.03	229.88
689.22	233.98
689.41	324.09
689.599	340.47
689.789	215.55
689.979	393.72
690.168	225.79
690.358	266.75
690.547	272.89
690.737	266.75
690.926	236.03
691.116	182.78
691.305	326.14
691.495	311.8
691.684	154.11
691.874	240.12
692.063	272.89
692.252	317.95
692.442	270.84
692.631	178.69
692.82	254.46
693.01	246.27
693.199	246.27
693.388	242.17
693.578	182.78
693.767	303.61
693.956	268.8
694.146	229.88
694.335	311.8
694.524	205.31
694.713	213.5
694.902	201.21
695.092	252.41
695.281	272.89
695.47	219.64
695.659	240.12
695.848	193.02
696.037	248.32
696.226	244.22
696.415	193.02
696.604	252.41
696.793	211.45
696.982	229.88
697.171	305.66
697.36	205.31
697.549	274.94
697.738	102.91
697.927	219.64
698.116	221.69
698.305	264.7
698.494	279.04
698.683	240.12
698.872	334.33
699.061	215.55
699.25	254.46
699.438	248.32
699.627	160.25
699.816	264.7
700.005	143.87
700.193	193.02
700.382	229.88
700.571	358.91
700.76	315.9
700.948	270.84
701.137	270.84
701.326	250.36
701.514	219.64
701.703	264.7
701.892	219.64
702.08	371.19
702.269	201.21
702.457	121.34
702.646	203.26
702.834	184.83
703.023	233.98
703.212	217.6
703.4	246.27
703.589	139.77
703.777	221.69
703.965	170.49
704.154	182.78
704.342	190.97
704.531	240.12
704.719	172.54
704.907	287.23
705.096	96.77
705.284	98.81
705.472	176.64
705.661	236.03
705.849	446.97
706.037	344.57
706.226	272.89
706.414	229.88
706.602	178.69
706.79	238.08
706.979	203.26
707.167	223.74
707.355	164.35
707.543	229.88
707.731	270.84
707.919	281.08
708.107	207.36
708.296	152.06
708.484	201.21
708.672	324.09
708.86	248.32
709.048	262.65
709.236	154.11
709.424	272.89
709.612	274.94
709.8	178.69
709.988	256.51
710.176	219.64
710.364	354.81
710.551	274.94
710.739	176.64
710.927	262.65
711.115	211.45
711.303	305.66
711.491	240.12
711.679	262.65
711.866	287.23
712.054	111.1
712.242	291.32
712.43	305.66
712.617	166.4
712.805	303.61
712.993	229.88
713.181	184.83
713.368	233.98
713.556	215.55
713.744	270.84
713.931	369.15
714.119	307.71
714.306	160.25
714.494	201.21
714.682	244.22
714.869	113.15
715.057	160.25
715.244	41.47
715.432	350.71
715.619	111.1
715.807	197.12
715.994	238.08
716.182	291.32
716.369	303.61
716.556	293.37
716.744	186.88
716.931	121.34
717.119	274.94
717.306	266.75
717.493	270.84
717.681	219.64
717.868	227.84
718.055	342.52
718.242	307.71
718.43	205.31
718.617	324.09
718.804	295.42
718.991	270.84
719.179	307.71
719.366	272.89
719.553	301.56
719.74	295.42
719.927	238.08
720.114	336.38
720.301	213.5
720.488	107.01
720.676	190.97
720.863	270.84
721.05	403.96
721.237	231.93
721.424	340.47
721.611	240.12
721.798	125.44
721.985	295.42
722.172	211.45
722.358	274.94
722.545	313.85
722.732	258.56
722.919	358.91
723.106	311.8
723.293	252.41
723.48	266.75
723.667	287.23
723.853	387.58
724.04	254.46
724.227	338.43
724.414	283.13
724.6	274.94
724.787	352.76
724.974	426.49
725.161	266.75
725.347	254.46
725.534	283.13
725.72	240.12
725.907	356.86
726.094	375.29
726.28	184.83
726.467	291.32
726.653	158.21
726.84	270.84
727.027	336.38
727.213	252.41
727.4	313.85
727.586	297.47
727.773	150.01
727.959	307.71
728.145	326.14
728.332	238.08
728.518	213.5
728.705	281.08
728.891	297.47
729.077	209.4
729.264	227.84
729.45	250.36
729.636	369.15
729.823	279.04
730.009	324.09
730.195	379.39
730.382	305.66
730.568	201.21
730.754	367.1
730.94	219.64
731.126	223.74
731.313	336.38
731.499	360.95
731.685	373.24
731.871	320
732.057	338.43
732.243	293.37
732.429	309.76
732.615	477.69
732.801	379.39
732.987	260.6
733.173	326.14
733.359	340.47
733.545	338.43
733.731	303.61
733.917	426.49
734.103	365.05
734.289	293.37
734.475	256.51
734.661	416.25
734.847	301.56
735.033	254.46
735.219	383.48
735.404	283.13
735.59	274.94
735.776	309.76
735.962	348.67
736.148	369.15
736.333	518.65
736.519	264.7
736.705	336.38
736.89	289.28
737.076	328.19
737.262	227.84
737.447	289.28
737.633	281.08
737.819	401.91
738.004	328.19
738.19	227.84
738.375	328.19
738.561	309.76
738.747	326.14
738.932	332.28
739.118	502.26
739.303	342.52
739.489	291.32
739.674	260.6
739.859	307.71
740.045	248.32
740.23	352.76
740.416	123.39
740.601	285.18
740.786	213.5
740.972	225.79
741.157	260.6
741.342	209.4
741.528	246.27
741.713	342.52
741.898	330.23
742.084	299.52
742.269	334.33
742.454	369.15
742.639	375.29
742.824	291.32
743.01	375.29
743.195	500.22
743.38	264.7
743.565	369.15
743.75	322.04
743.935	389.63
744.12	371.19
744.305	250.36
744.49	219.64
744.675	250.36
744.86	205.31
745.045	313.85
745.23	233.98
745.415	295.42
745.6	401.91
745.785	190.97
745.97	354.81
746.155	264.7
746.34	379.39
746.525	313.85
746.71	322.04
746.895	227.84
747.079	236.03
747.264	369.15
747.449	279.04
747.634	397.82
747.819	324.09
748.003	295.42
748.188	260.6
748.373	244.22
748.557	258.56
748.742	289.28
748.927	301.56
749.111	270.84
749.296	272.89
749.481	328.19
749.665	315.9
749.85	152.06
750.034	213.5
750.219	365.05
750.404	223.74
750.588	279.04
750.773	205.31
750.957	246.27
751.141	236.03
751.326	242.17
751.51	199.16
751.695	262.65
751.879	246.27
752.064	272.89
752.248	244.22
752.432	348.67
752.617	365.05
752.801	356.86
752.985	111.1
753.17	301.56
753.354	279.04
753.538	168.45
753.722	186.88
753.907	193.02
754.091	88.57
754.275	217.6
754.459	158.21
754.643	158.21
754.828	260.6
755.012	287.23
755.196	209.4
755.38	152.06
755.564	217.6
755.748	109.05
755.932	188.93
756.116	270.84
756.3	109.05
756.484	119.29
756.668	289.28
756.852	109.05
757.036	154.11
757.22	104.96
757.404	107.01
757.588	209.4
757.772	178.69
757.956	158.21
758.14	324.09
758.323	168.45
758.507	240.12
758.691	125.44
758.875	205.31
759.059	274.94
759.242	172.54
759.426	127.49
759.61	178.69
759.794	115.2
759.977	197.12
760.161	346.62
760.345	379.39
760.528	209.4
760.712	145.92
760.895	209.4
761.079	233.98
761.263	96.77
761.446	170.49
761.63	221.69
761.813	334.33
761.997	82.43
762.18	119.29
762.364	166.4
762.547	125.44
762.731	182.78
762.914	156.16
763.098	227.84
763.281	143.87
763.464	94.72
763.648	156.16
763.831	94.72
764.015	129.53
764.198	186.88
764.381	100.86
764.564	127.49
764.748	231.93
764.931	152.06
765.114	88.57
765.297	197.12
765.481	86.53
765.664	84.48
765.847	154.11
766.03	143.87
766.213	68.09
766.397	123.39
766.58	94.72
766.763	137.73
766.946	113.15
767.129	98.81
767.312	133.63
767.495	154.11
767.678	90.62
767.861	121.34
768.044	125.44
768.227	82.43
768.41	123.39
768.593	141.82
768.776	152.06
768.959	45.57
769.142	180.73
769.324	68.09
769.507	102.91
769.69	109.05
769.873	82.43
770.056	317.95
770.239	82.43
770.421	182.78
770.604	107.01
770.787	135.68
770.97	145.92
771.152	141.82
771.335	166.4
771.518	109.05
771.7	170.49
771.883	219.64
772.066	127.49
772.248	98.81
772.431	168.45
772.613	154.11
772.796	12.8
772.978	82.43
773.161	182.78
773.343	98.81
773.526	57.86
773.708	-46.59
773.891	18.94
774.073	92.67
774.256	96.77
774.438	217.6
774.621	55.81
774.803	100.86
774.985	29.18
775.168	158.21
775.35	-42.5
775.532	186.88
775.715	51.71
775.897	129.53
776.079	98.81
776.261	43.52
776.444	55.81
776.626	78.33
776.808	92.67
776.99	64
777.173	90.62
777.355	16.9
777.537	47.62
777.719	133.63
777.901	-3.58
778.083	0.51
778.265	16.9
778.447	102.91
778.629	66.05
778.811	41.47
778.993	84.48
779.175	172.54
779.357	113.15
779.539	16.9
779.721	88.57
779.903	133.63
780.085	53.76
780.267	84.48
780.449	12.8
780.631	107.01
780.812	111.1
780.994	61.95
781.176	184.83
781.358	29.18
781.54	74.24
781.721	88.57
781.903	166.4
782.085	61.95
782.267	190.97
782.448	-15.87
782.63	49.66
782.812	18.94
782.993	125.44
783.175	113.15
783.357	61.95
783.538	168.45
783.72	-7.68
783.901	80.38
784.083	90.62
784.264	35.33
784.446	-1.54
784.627	27.14
784.809	68.09
784.99	8.7
785.172	96.77
785.353	90.62
785.535	33.28
785.716	-60.93
785.897	43.52
786.079	57.86
786.26	115.2
786.441	78.33
786.623	4.61
786.804	129.53
786.985	80.38
787.167	92.67
787.348	49.66
787.529	94.72
787.71	215.55
787.891	94.72
788.073	78.33
788.254	-9.73
788.435	248.32
788.616	59.9
788.797	20.99
788.978	20.99
789.159	-11.78
789.34	92.67
789.522	6.66
789.703	23.04
789.884	57.86
790.065	6.66
790.246	190.97
790.427	86.53
790.607	102.91
790.788	172.54
790.969	12.8
791.15	104.96
791.331	31.23
791.512	-38.4
791.693	-13.82
791.874	53.76
792.054	180.73
792.235	102.91
792.416	-32.26
792.597	-17.92
792.778	233.98
792.958	0.51
793.139	92.67
793.32	33.28
793.5	6.66
793.681	90.62
793.862	152.06
794.042	-42.5
794.223	-50.69
794.404	109.05
794.584	-1.54
794.765	55.81
794.945	10.75
795.126	72.19
795.306	170.49
795.487	27.14
795.667	76.29
795.848	14.85
796.028	37.38
796.209	18.94
796.389	68.09
796.57	14.85
796.75	-9.73
796.93	41.47
797.111	2.56
797.291	51.71
797.471	166.4
797.652	-13.82
797.832	-44.54
798.012	55.81
798.192	4.61
798.373	-56.83
798.553	8.7
798.733	88.57
798.913	-44.54
799.093	-3.58
799.274	37.38
799.454	143.87
799.634	100.86
799.814	94.72
799.994	61.95
800.174	16.9
800.354	70.14
800.534	-11.78
800.714	96.77
800.894	-42.5
801.074	-13.82
801.254	-73.21
801.434	170.49
801.614	-19.97
801.794	35.33
801.974	1704.42
802.154	2.56
802.334	139.77
802.514	-19.97
802.693	16.9
802.873	-26.11
803.053	160.25
803.233	141.82
803.413	29.18
803.592	55.81
803.772	-1.54
803.952	23.04
804.131	-30.21
804.311	78.33
804.491	86.53
804.67	-30.21
804.85	-17.92
805.03	84.48
805.209	-1.54
805.389	-77.31
805.568	-44.54
805.748	39.42
805.928	8.7
806.107	61.95
806.287	104.96
806.466	-19.97
806.646	59.9
806.825	16.9
807.004	20.99
807.184	84.48
807.363	139.77
807.543	16.9
807.722	-44.54
807.901	86.53
808.081	96.77
808.26	-38.4
808.439	39.42
808.619	-24.06
808.798	4.61
808.977	55.81
809.156	109.05
809.336	86.53
809.515	59.9
809.694	-3.58
809.873	-17.92
810.052	104.96
810.231	76.29
810.411	107.01
810.59	86.53
810.769	-52.74
810.948	86.53
811.127	-65.02
811.306	-48.64
811.485	2.56
811.664	100.86
811.843	4.61
812.022	0.51
812.201	-34.3
812.38	2.56
812.559	-5.63
812.737	74.24
812.916	-26.11
813.095	-73.21
813.274	-24.06
813.453	35.33
813.632	16.9
813.811	107.01
813.989	-69.12
814.168	88.57
814.347	-7.68
814.526	-17.92
814.704	94.72
814.883	125.44
815.062	-54.78
815.24	78.33
815.419	-42.5
815.598	51.71
815.776	-40.45
815.955	23.04
816.133	-77.31
816.312	92.67
816.49	-28.16
816.669	20.99
816.847	-38.4
817.026	12.8
817.204	0.51
817.383	68.09
817.561	2.56
817.74	20.99
817.918	-9.73
818.097	29.18
818.275	-81.41
818.453	98.81
818.632	74.24
818.81	88.57
818.988	20.99
819.167	-3.58
819.345	-17.92
819.523	12.8
819.701	-17.92
819.879	82.43
820.058	39.42
820.236	41.47
820.414	6.66
820.592	4.61
820.77	-46.59
820.948	4.61
821.127	-7.68
821.305	39.42
821.483	-95.74
821.661	172.54
821.839	18.94
822.017	8.7
822.195	-46.59
822.373	166.4
822.551	90.62
822.729	78.33
822.907	-22.02
823.085	82.43
823.262	72.19
823.44	-24.06
823.618	-38.4
823.796	16.9
823.974	-60.93
824.152	16.9
824.329	-1.54
824.507	47.62
824.685	61.95
824.863	12.8
825.04	12.8
825.218	66.05
825.396	74.24
825.574	82.43
825.751	-19.97
825.929	16.9
826.107	-17.92
826.284	86.53
826.462	70.14
826.639	-60.93
826.817	-38.4
826.994	47.62
827.172	-3.58
827.349	53.76
827.527	20.99
827.704	10.75
827.882	121.34
828.059	18.94
828.237	25.09
828.414	14.85
828.591	-30.21
828.769	8.7
828.946	-58.88
829.124	47.62
829.301	147.97
829.478	25.09
829.655	74.24
829.833	12.8
830.01	-97.79
830.187	-24.06
830.364	14.85
830.542	4.61
830.719	98.81
830.896	2.56
831.073	45.57
831.25	37.38
831.427	18.94
831.604	-38.4
831.782	-52.74
831.959	129.53
832.136	-40.45
832.313	12.8
832.49	14.85
832.667	8.7
832.844	-7.68
833.021	72.19
833.198	37.38
833.374	-30.21
833.551	137.73
833.728	8.7
833.905	68.09
834.082	-67.07
834.259	88.57
834.436	98.81
834.612	-87.55
834.789	98.81
834.966	4.61
835.143	133.63
835.319	-60.93
835.496	70.14
835.673	57.86
835.85	20.99
836.026	4.61
836.203	59.9
836.38	-32.26
836.556	12.8
836.733	-13.82
836.909	111.1
837.086	-13.82
837.262	-42.5
837.439	-32.26
837.616	8.7
837.792	-32.26
837.968	-17.92
838.145	-103.93
838.321	33.28
838.498	31.23
838.674	61.95
838.851	61.95
839.027	35.33
839.203	-34.3
839.38	78.33
839.556	-69.12
839.732	31.23
839.909	-13.82
840.085	61.95
840.261	-32.26
840.437	-3.58
840.614	59.9
840.79	115.2
840.966	14.85
841.142	-11.78
841.318	-54.78
841.494	59.9
841.671	127.49
841.847	-71.17
842.023	-85.5
842.199	104.96
842.375	90.62
842.551	-99.84
842.727	-17.92
842.903	168.45
843.079	-40.45
843.255	61.95
843.431	-30.21
843.607	61.95
843.783	-114.17
843.959	66.05
844.134	-60.93
844.31	10.75
844.486	-26.11
844.662	-56.83
844.838	64
845.013	20.99
845.189	51.71
845.365	-9.73
845.541	-38.4
845.716	-54.78
845.892	57.86
846.068	-38.4
846.244	-42.5
846.419	0.51
846.595	2.56
846.77	-54.78
846.946	-17.92
847.122	-36.35
847.297	-5.63
847.473	131.58
847.648	-22.02
847.824	-3.58
847.999	-130.56
848.175	-11.78
848.35	78.33
848.526	35.33
848.701	55.81
848.876	35.33
849.052	98.81
849.227	20.99
849.403	-42.5
849.578	-42.5
849.753	43.52
849.929	45.57
850.104	-95.74
850.279	16.9
850.454	18.94
850.63	76.29
850.805	10.75
850.98	-32.26
851.155	-9.73
851.33	23.04
851.505	-110.08
851.681	123.39
851.856	14.85
852.031	8.7
852.206	6.66
852.381	-11.78
852.556	-9.73
852.731	25.09
852.906	84.48
853.081	145.92
853.256	104.96
853.431	33.28
853.606	-48.64
853.781	-40.45
853.956	-110.08
854.131	14.85
854.305	-34.3
854.48	-112.13
854.655	0.51
854.83	16.9
855.005	-24.06
855.18	47.62
855.354	35.33
855.529	-26.11
855.704	-67.07
855.879	14.85
856.053	-71.17
856.228	55.81
856.403	-32.26
856.577	131.58
856.752	-28.16
856.926	12.8
857.101	-28.16
857.276	-28.16
857.45	61.95
857.625	49.66
857.799	20.99
857.974	-15.87
858.148	-108.03
858.323	53.76
858.497	8.7
858.672	0.51
858.846	-58.88
859.02	72.19
859.195	-65.02
859.369	-1.54
859.543	51.71
859.718	-24.06
859.892	88.57
860.066	76.29
860.241	-28.16
860.415	61.95
860.589	-32.26
860.763	33.28
860.938	100.86
861.112	78.33
861.286	-9.73
861.46	25.09
861.634	51.71
861.808	68.09
861.982	-9.73
862.157	-50.69
862.331	-1.54
862.505	-73.21
862.679	-60.93
862.853	-1.54
863.027	-9.73
863.201	156.16
863.375	-7.68
863.549	41.47
863.722	55.81
863.896	74.24
864.07	-17.92
864.244	10.75
864.418	86.53
864.592	0.51
864.766	45.57
864.939	100.86
865.113	-15.87
865.287	53.76
865.461	-54.78
865.634	-1.54
865.808	-3.58
865.982	18.94
866.156	-83.45
866.329	-75.26
866.503	51.71
866.676	39.42
866.85	-50.69
867.024	-91.65
867.197	49.66
867.371	23.04
867.544	35.33
867.718	-77.31
867.891	37.38
868.065	-52.74
868.238	-26.11
868.412	57.86
868.585	27.14
868.759	-46.59
868.932	-46.59
869.105	-52.74
869.279	35.33
869.452	-19.97
869.625	25.09
869.799	18.94
869.972	-7.68
870.145	-17.92
870.319	37.38
870.492	-40.45
870.665	-38.4
870.838	-9.73
871.011	-120.32
871.185	-69.12
871.358	14.85
871.531	4.61
871.704	-17.92
871.877	55.81
872.05	-62.98
872.223	-65.02
872.396	53.76
872.569	78.33
872.742	-60.93
872.915	66.05
873.088	29.18
873.261	-9.73
873.434	23.04
873.607	-38.4
873.78	59.9
873.953	-112.13
874.126	53.76
874.299	29.18
874.471	20.99
874.644	41.47
874.817	68.09
874.99	150.01
875.163	2.56
875.335	57.86
875.508	82.43
875.681	41.47
875.853	-44.54
876.026	-40.45
876.199	133.63
876.371	78.33
876.544	90.62
876.717	31.23
876.889	-17.92
877.062	90.62
877.234	-73.21
877.407	-34.3
877.579	-65.02
877.752	-65.02
877.924	127.49
878.097	92.67
878.269	-46.59
878.442	45.57
878.614	20.99
878.786	49.66
878.959	16.9
879.131	68.09
879.303	-69.12
879.476	12.8
879.648	49.66
879.82	-46.59
879.993	-69.12
880.165	39.42
880.337	-19.97
880.509	-9.73
880.681	-108.03
880.854	-5.63
881.026	111.1
881.198	156.16
881.37	31.23
881.542	31.23
881.714	16.9
881.886	33.28
882.058	12.8
882.23	8.7
882.402	0.51
882.574	25.09
882.746	76.29
882.918	100.86
883.09	0.51
883.262	-17.92
883.434	57.86
883.606	-126.46
883.778	-46.59
883.95	125.44
884.122	-34.3
884.293	41.47
884.465	-60.93
884.637	145.92
884.809	-77.31
884.98	18.94
885.152	113.15
885.324	90.62
885.496	8.7
885.667	27.14
885.839	-15.87
886.011	49.66
886.182	98.81
886.354	45.57
886.525	61.95
886.697	29.18
886.869	-77.31
887.04	0.51
887.212	188.93
887.383	190.97
887.555	31.23
887.726	-7.68
887.897	-42.5
888.069	33.28
888.24	31.23
888.412	16.9
888.583	-1.54
888.754	-36.35
888.926	-75.26
889.097	25.09
889.268	-101.89
889.44	-15.87
889.611	6.66
889.782	-58.88
889.953	-34.3
890.125	100.86
890.296	-36.35
890.467	-52.74
890.638	-32.26
890.809	-22.02
890.98	0.51
891.151	25.09
891.323	90.62
891.494	20.99
891.665	4.61
891.836	82.43
892.007	23.04
892.178	45.57
892.349	82.43
892.52	-32.26
892.691	6.66
892.862	-22.02
893.032	-65.02
893.203	-46.59
893.374	68.09
893.545	123.39
893.716	-30.21
893.887	84.48
894.057	-15.87
894.228	16.9
894.399	6.66
894.57	68.09
894.74	18.94
894.911	37.38
895.082	57.86
895.253	-62.98
895.423	8.7
895.594	66.05
895.764	4.61
895.935	-19.97
896.106	74.24
896.276	-13.82
896.447	51.71
896.617	-38.4
896.788	-32.26
896.958	6.66
897.129	39.42
897.299	-67.07
897.47	96.77
897.64	92.67
897.81	-7.68
897.981	-24.06
898.151	-26.11
898.322	20.99
898.492	18.94
898.662	-124.41
898.832	0.51
899.003	-50.69
899.173	25.09
899.343	-5.63
899.513	-81.41
