Data from USB4F104151__238__11-06-31-124.txt Node

Date: Wed Feb 26 11:06:31 EST 2025
User: louis
Spectrometer: USB4F10415
Trigger mode: 4
Integration Time (sec): 1.000000E-1
Scans to average: 1
Electric dark correction enabled: true
Nonlinearity correction enabled: false
Boxcar width: 0
XAxis mode: Wavelengths
Number of Pixels in Spectrum: 3648
>>>>>Begin Spectral Data<<<<<
178.204	-414.71
178.424	-414.71
178.644	-414.71
178.864	-408.57
179.084	-402.43
179.304	13.31
179.524	-41.98
179.744	41.98
179.964	25.6
180.184	-31.74
180.404	39.94
180.624	-76.8
180.844	-19.46
181.064	-9.22
181.283	9.22
181.503	-84.99
181.723	134.14
181.943	-123.9
182.163	214.01
182.383	-58.37
182.602	37.89
182.822	140.29
183.042	99.33
183.262	21.5
183.482	35.84
183.701	17.41
183.921	-25.6
184.141	-1.02
184.361	84.99
184.58	64.51
184.8	56.32
185.02	-62.46
185.239	25.6
185.459	76.8
185.679	64.51
185.898	-23.55
186.118	119.81
186.338	80.89
186.557	132.09
186.777	-89.09
186.997	-17.41
187.216	21.5
187.436	252.92
187.655	17.41
187.875	101.37
188.095	17.41
188.314	95.23
188.534	134.14
188.753	-35.84
188.973	166.91
189.192	265.21
189.412	13.31
189.631	56.32
189.851	70.65
190.07	179.2
190.29	-9.22
190.509	-17.41
190.729	1.02
190.948	203.77
191.168	240.64
191.387	82.94
191.607	39.94
191.826	107.52
192.045	3.07
192.265	78.85
192.484	107.52
192.704	37.89
192.923	-31.74
193.142	181.25
193.362	74.75
193.581	201.72
193.8	115.71
194.02	95.23
194.239	-3.07
194.458	48.13
194.678	82.94
194.897	56.32
195.116	70.65
195.335	128
195.555	44.03
195.774	44.03
195.993	33.79
196.212	5.12
196.432	-68.61
196.651	-35.84
196.87	1.02
197.089	214.01
197.308	7.17
197.528	156.67
197.747	-80.89
197.966	64.51
198.185	201.72
198.404	5.12
198.623	93.18
198.842	115.71
199.062	181.25
199.281	103.42
199.5	39.94
199.719	60.42
199.938	111.61
200.157	54.27
200.376	189.44
200.595	109.57
200.814	39.94
201.033	5.12
201.252	183.29
201.471	74.75
201.69	93.18
201.909	37.89
202.128	-17.41
202.347	25.6
202.566	-1.02
202.785	-76.8
203.004	-5.12
203.223	277.5
203.442	125.95
203.661	7.17
203.879	35.84
204.098	181.25
204.317	50.18
204.536	117.76
204.755	107.52
204.974	146.43
205.193	-17.41
205.411	105.47
205.63	152.57
205.849	164.86
206.068	48.13
206.287	-41.98
206.505	119.81
206.724	-41.98
206.943	-41.98
207.162	-21.5
207.381	74.75
207.599	52.22
207.818	44.03
208.037	-7.17
208.255	87.04
208.474	-17.41
208.693	31.74
208.911	19.46
209.13	142.33
209.349	95.23
209.567	87.04
209.786	82.94
210.005	107.52
210.223	35.84
210.442	-56.32
210.661	44.03
210.879	140.29
211.098	89.09
211.316	54.27
211.535	35.84
211.753	78.85
211.972	80.89
212.191	-39.94
212.409	87.04
212.628	56.32
212.846	27.65
213.065	37.89
213.283	56.32
213.502	138.24
213.72	89.09
213.938	72.7
214.157	25.6
214.375	80.89
214.594	82.94
214.812	87.04
215.031	54.27
215.249	105.47
215.467	109.57
215.686	11.26
215.904	113.66
216.122	23.55
216.341	162.81
216.559	58.37
216.778	89.09
216.996	156.67
217.214	25.6
217.432	-5.12
217.651	-72.7
217.869	95.23
218.087	82.94
218.306	-23.55
218.524	72.7
218.742	25.6
218.96	121.85
219.179	-19.46
219.397	29.7
219.615	261.12
219.833	107.52
220.051	-41.98
220.27	-9.22
220.488	203.77
220.706	11.26
220.924	17.41
221.142	-33.79
221.36	21.5
221.578	78.85
221.796	13.31
222.015	15.36
222.233	80.89
222.451	226.3
222.669	-54.27
222.887	60.42
223.105	13.31
223.323	74.75
223.541	-29.7
223.759	68.61
223.977	-39.94
224.195	156.67
224.413	82.94
224.631	76.8
224.849	105.47
225.067	211.96
225.285	9.22
225.503	-25.6
225.721	-29.7
225.939	3.07
226.157	97.28
226.375	277.5
226.592	23.55
226.81	125.95
227.028	93.18
227.246	121.85
227.464	91.13
227.682	82.94
227.9	95.23
228.117	70.65
228.335	35.84
228.553	109.57
228.771	11.26
228.989	27.65
229.206	117.76
229.424	39.94
229.642	101.37
229.86	-25.6
230.077	185.34
230.295	-11.26
230.513	54.27
230.731	84.99
230.948	105.47
231.166	160.77
231.384	-1.02
231.601	11.26
231.819	171.01
232.037	70.65
232.254	-3.07
232.472	82.94
232.689	78.85
232.907	136.19
233.125	-54.27
233.342	-33.79
233.56	9.22
233.777	39.94
233.995	5.12
234.213	68.61
234.43	68.61
234.648	50.18
234.865	46.08
235.083	60.42
235.3	134.14
235.518	50.18
235.735	117.76
235.953	82.94
236.17	70.65
236.388	-44.03
236.605	68.61
236.822	66.56
237.04	185.34
237.257	80.89
237.475	29.7
237.692	29.7
237.909	60.42
238.127	37.89
238.344	68.61
238.562	52.22
238.779	21.5
238.996	-41.98
239.214	48.13
239.431	87.04
239.648	19.46
239.865	66.56
240.083	80.89
240.3	60.42
240.517	64.51
240.735	48.13
240.952	68.61
241.169	82.94
241.386	50.18
241.603	-13.31
241.821	-23.55
242.038	123.9
242.255	144.38
242.472	-50.18
242.689	97.28
242.907	54.27
243.124	13.31
243.341	97.28
243.558	-11.26
243.775	1.02
243.992	-33.79
244.209	48.13
244.426	117.76
244.643	66.56
244.86	3.07
245.078	113.66
245.295	35.84
245.512	17.41
245.729	-27.65
245.946	74.75
246.163	9.22
246.38	111.61
246.597	64.51
246.814	-54.27
247.031	52.22
247.248	31.74
247.464	111.61
247.681	60.42
247.898	89.09
248.115	101.37
248.332	27.65
248.549	109.57
248.766	193.53
248.983	93.18
249.2	197.63
249.417	130.05
249.633	29.7
249.85	64.51
250.067	62.46
250.284	46.08
250.501	82.94
250.717	76.8
250.934	-29.7
251.151	19.46
251.368	80.89
251.585	89.09
251.801	58.37
252.018	-52.22
252.235	109.57
252.451	29.7
252.668	103.42
252.885	125.95
253.102	68.61
253.318	5.12
253.535	68.61
253.752	-52.22
253.968	46.08
254.185	-95.23
254.401	-17.41
254.618	82.94
254.835	-27.65
255.051	148.48
255.268	109.57
255.484	64.51
255.701	-37.89
255.917	115.71
256.134	-27.65
256.351	60.42
256.567	-76.8
256.784	-23.55
257	-50.18
257.217	140.29
257.433	78.85
257.65	37.89
257.866	128
258.082	-9.22
258.299	-25.6
258.515	7.17
258.732	1.02
258.948	39.94
259.165	87.04
259.381	-25.6
259.597	140.29
259.814	74.75
260.03	74.75
260.246	-44.03
260.463	162.81
260.679	130.05
260.895	35.84
261.112	19.46
261.328	27.65
261.544	46.08
261.761	152.57
261.977	-19.46
262.193	52.22
262.409	97.28
262.626	60.42
262.842	44.03
263.058	1.02
263.274	136.19
263.49	130.05
263.707	33.79
263.923	138.24
264.139	-44.03
264.355	29.7
264.571	171.01
264.787	125.95
265.004	134.14
265.22	29.7
265.436	-105.47
265.652	41.98
265.868	101.37
266.084	-44.03
266.3	31.74
266.516	7.17
266.732	60.42
266.948	48.13
267.164	33.79
267.38	95.23
267.596	87.04
267.812	195.58
268.028	82.94
268.244	-27.65
268.46	95.23
268.676	68.61
268.892	74.75
269.108	-37.89
269.324	-11.26
269.54	21.5
269.756	74.75
269.972	-39.94
270.188	-5.12
270.403	-27.65
270.619	50.18
270.835	123.9
271.051	17.41
271.267	-29.7
271.483	62.46
271.698	134.14
271.914	107.52
272.13	66.56
272.346	56.32
272.562	15.36
272.777	105.47
272.993	25.6
273.209	48.13
273.425	84.99
273.64	-119.81
273.856	113.66
274.072	23.55
274.287	48.13
274.503	113.66
274.719	109.57
274.934	23.55
275.15	-76.8
275.366	119.81
275.581	-54.27
275.797	56.32
276.012	7.17
276.228	-3.07
276.444	27.65
276.659	177.15
276.875	44.03
277.09	66.56
277.306	-7.17
277.521	93.18
277.737	35.84
277.952	132.09
278.168	58.37
278.383	1.02
278.599	111.61
278.814	125.95
279.03	-9.22
279.245	115.71
279.461	48.13
279.676	80.89
279.892	-17.41
280.107	58.37
280.322	-1.02
280.538	60.42
280.753	5.12
280.969	136.19
281.184	91.13
281.399	82.94
281.615	44.03
281.83	33.79
282.045	-56.32
282.26	25.6
282.476	33.79
282.691	132.09
282.906	74.75
283.122	5.12
283.337	99.33
283.552	87.04
283.767	19.46
283.983	144.38
284.198	-29.7
284.413	39.94
284.628	-64.51
284.843	117.76
285.058	89.09
285.274	15.36
285.489	-11.26
285.704	162.81
285.919	-33.79
286.134	19.46
286.349	25.6
286.564	-31.74
286.779	162.81
286.995	74.75
287.21	-9.22
287.425	103.42
287.64	68.61
287.855	21.5
288.07	-111.61
288.285	97.28
288.5	87.04
288.715	121.85
288.93	-31.74
289.145	-29.7
289.36	101.37
289.575	23.55
289.79	119.81
290.004	25.6
290.219	91.13
290.434	-50.18
290.649	-76.8
290.864	15.36
291.079	-29.7
291.294	44.03
291.509	119.81
291.724	54.27
291.938	46.08
292.153	95.23
292.368	-13.31
292.583	101.37
292.798	56.32
293.012	66.56
293.227	105.47
293.442	9.22
293.657	97.28
293.871	222.2
294.086	33.79
294.301	220.16
294.516	119.81
294.73	82.94
294.945	-19.46
295.16	52.22
295.374	68.61
295.589	140.29
295.804	-13.31
296.018	78.85
296.233	125.95
296.447	52.22
296.662	5.12
296.877	123.9
297.091	54.27
297.306	15.36
297.52	-5.12
297.735	58.37
297.949	11.26
298.164	31.74
298.378	29.7
298.593	-9.22
298.807	-11.26
299.022	125.95
299.236	146.43
299.451	13.31
299.665	89.09
299.88	119.81
300.094	154.62
300.309	41.98
300.523	101.37
300.737	50.18
300.952	82.94
301.166	33.79
301.381	9.22
301.595	-39.94
301.809	54.27
302.024	56.32
302.238	-9.22
302.452	158.72
302.667	58.37
302.881	146.43
303.095	111.61
303.309	58.37
303.524	50.18
303.738	7.17
303.952	-58.37
304.166	25.6
304.381	-193.53
304.595	216.06
304.809	33.79
305.023	107.52
305.237	37.89
305.452	93.18
305.666	52.22
305.88	41.98
306.094	87.04
306.308	95.23
306.522	56.32
306.736	95.23
306.95	156.67
307.164	23.55
307.379	3.07
307.593	171.01
307.807	144.38
308.021	107.52
308.235	7.17
308.449	-1.02
308.663	60.42
308.877	179.2
309.091	-9.22
309.305	66.56
309.519	-80.89
309.733	162.81
309.947	-52.22
310.161	111.61
310.374	74.75
310.588	-27.65
310.802	-27.65
311.016	33.79
311.23	89.09
311.444	1.02
311.658	-13.31
311.872	99.33
312.085	160.77
312.299	189.44
312.513	115.71
312.727	5.12
312.941	-9.22
313.154	109.57
313.368	68.61
313.582	56.32
313.796	-3.07
314.009	62.46
314.223	117.76
314.437	21.5
314.651	103.42
314.864	15.36
315.078	7.17
315.292	-25.6
315.505	-19.46
315.719	93.18
315.933	15.36
316.146	52.22
316.36	-5.12
316.573	107.52
316.787	164.86
317.001	117.76
317.214	-56.32
317.428	19.46
317.641	37.89
317.855	33.79
318.068	93.18
318.282	-7.17
318.495	171.01
318.709	64.51
318.922	7.17
319.136	197.63
319.349	80.89
319.563	11.26
319.776	37.89
319.99	-103.42
320.203	109.57
320.417	27.65
320.63	46.08
320.843	203.77
321.057	156.67
321.27	35.84
321.483	87.04
321.697	156.67
321.91	41.98
322.124	121.85
322.337	19.46
322.55	84.99
322.763	76.8
322.977	5.12
323.19	-11.26
323.403	-19.46
323.617	39.94
323.83	29.7
324.043	-9.22
324.256	41.98
324.469	-52.22
324.683	125.95
324.896	-9.22
325.109	48.13
325.322	31.74
325.535	130.05
325.748	113.66
325.962	54.27
326.175	35.84
326.388	58.37
326.601	134.14
326.814	82.94
327.027	82.94
327.24	203.77
327.453	-128
327.666	107.52
327.879	214.01
328.092	84.99
328.305	50.18
328.518	54.27
328.731	-17.41
328.944	46.08
329.157	60.42
329.37	-5.12
329.583	150.53
329.796	136.19
330.009	-66.56
330.222	109.57
330.435	3.07
330.648	89.09
330.861	35.84
331.073	19.46
331.286	115.71
331.499	117.76
331.712	23.55
331.925	13.31
332.138	-27.65
332.35	78.85
332.563	35.84
332.776	144.38
332.989	-66.56
333.202	-11.26
333.414	58.37
333.627	44.03
333.84	5.12
334.053	29.7
334.265	37.89
334.478	-15.36
334.691	29.7
334.903	109.57
335.116	-64.51
335.329	-1.02
335.541	89.09
335.754	136.19
335.966	105.47
336.179	11.26
336.392	33.79
336.604	101.37
336.817	109.57
337.029	62.46
337.242	-7.17
337.454	95.23
337.667	15.36
337.88	166.91
338.092	27.65
338.305	136.19
338.517	-25.6
338.729	134.14
338.942	128
339.154	-74.75
339.367	-3.07
339.579	125.95
339.792	-9.22
340.004	89.09
340.217	17.41
340.429	58.37
340.641	41.98
340.854	-37.89
341.066	33.79
341.278	142.33
341.491	181.25
341.703	33.79
341.915	-1.02
342.128	148.48
342.34	39.94
342.552	-35.84
342.764	136.19
342.977	-11.26
343.189	25.6
343.401	109.57
343.613	3.07
343.826	54.27
344.038	19.46
344.25	7.17
344.462	84.99
344.674	74.75
344.886	-3.07
345.099	121.85
345.311	48.13
345.523	-15.36
345.735	-171.01
345.947	1.02
346.159	56.32
346.371	19.46
346.583	-35.84
346.795	191.49
347.007	-3.07
347.219	109.57
347.431	89.09
347.643	101.37
347.855	17.41
348.067	144.38
348.279	-52.22
348.491	-9.22
348.703	152.57
348.915	35.84
349.127	-44.03
349.339	62.46
349.551	17.41
349.763	152.57
349.975	115.71
350.187	115.71
350.399	179.2
350.61	54.27
350.822	23.55
351.034	62.46
351.246	33.79
351.458	138.24
351.669	15.36
351.881	130.05
352.093	177.15
352.305	101.37
352.517	50.18
352.728	179.2
352.94	13.31
353.152	58.37
353.363	107.52
353.575	37.89
353.787	152.57
353.999	134.14
354.21	150.53
354.422	37.89
354.633	23.55
354.845	89.09
355.057	128
355.268	76.8
355.48	95.23
355.692	1.02
355.903	-9.22
356.115	-15.36
356.326	-54.27
356.538	105.47
356.749	146.43
356.961	134.14
357.172	140.29
357.384	-31.74
357.595	336.89
357.807	27.65
358.018	-48.13
358.23	23.55
358.441	132.09
358.653	72.7
358.864	76.8
359.075	-27.65
359.287	87.04
359.498	146.43
359.709	91.13
359.921	50.18
360.132	27.65
360.344	-3.07
360.555	-7.17
360.766	80.89
360.977	-56.32
361.189	125.95
361.4	37.89
361.611	156.67
361.823	97.28
362.034	70.65
362.245	-19.46
362.456	7.17
362.667	54.27
362.879	-3.07
363.09	128
363.301	78.85
363.512	91.13
363.723	5.12
363.935	-29.7
364.146	91.13
364.357	156.67
364.568	117.76
364.779	23.55
364.99	160.77
365.201	-35.84
365.412	123.9
365.623	-64.51
365.834	109.57
366.045	70.65
366.256	54.27
366.467	138.24
366.678	-48.13
366.889	-15.36
367.1	5.12
367.311	41.98
367.522	-3.07
367.733	74.75
367.944	64.51
368.155	-101.37
368.366	78.85
368.577	197.63
368.788	117.76
368.999	17.41
369.209	41.98
369.42	257.02
369.631	115.71
369.842	144.38
370.053	7.17
370.264	89.09
370.474	-41.98
370.685	21.5
370.896	-15.36
371.107	179.2
371.317	78.85
371.528	76.8
371.739	166.91
371.95	-5.12
372.16	105.47
372.371	-3.07
372.582	46.08
372.792	107.52
373.003	117.76
373.214	80.89
373.424	95.23
373.635	23.55
373.846	138.24
374.056	29.7
374.267	48.13
374.477	58.37
374.688	-31.74
374.898	103.42
375.109	-9.22
375.319	93.18
375.53	76.8
375.74	91.13
375.951	66.56
376.161	105.47
376.372	99.33
376.582	52.22
376.793	111.61
377.003	70.65
377.214	9.22
377.424	82.94
377.635	-21.5
377.845	23.55
378.055	246.78
378.266	-78.85
378.476	50.18
378.686	82.94
378.897	78.85
379.107	162.81
379.317	54.27
379.528	54.27
379.738	66.56
379.948	-1.02
380.158	121.85
380.369	140.29
380.579	191.49
380.789	64.51
380.999	144.38
381.21	125.95
381.42	148.48
381.63	29.7
381.84	128
382.05	70.65
382.261	68.61
382.471	125.95
382.681	-23.55
382.891	240.64
383.101	87.04
383.311	-15.36
383.521	1.02
383.731	162.81
383.941	119.81
384.151	78.85
384.361	21.5
384.571	54.27
384.781	109.57
384.991	195.58
385.201	171.01
385.411	56.32
385.621	72.7
385.831	17.41
386.041	31.74
386.251	56.32
386.461	117.76
386.671	-29.7
386.881	84.99
387.091	35.84
387.301	201.72
387.511	9.22
387.72	76.8
387.93	132.09
388.14	-3.07
388.35	-5.12
388.56	105.47
388.769	130.05
388.979	27.65
389.189	29.7
389.399	84.99
389.609	-11.26
389.818	160.77
390.028	80.89
390.238	101.37
390.447	35.84
390.657	97.28
390.867	-50.18
391.076	-54.27
391.286	84.99
391.496	46.08
391.705	54.27
391.915	152.57
392.125	109.57
392.334	25.6
392.544	91.13
392.753	72.7
392.963	-23.55
393.172	128
393.382	11.26
393.591	187.39
393.801	-23.55
394.01	199.68
394.22	150.53
394.429	62.46
394.639	50.18
394.848	54.27
395.058	7.17
395.267	33.79
395.477	128
395.686	123.9
395.895	232.44
396.105	242.68
396.314	60.42
396.524	23.55
396.733	-13.31
396.942	140.29
397.152	91.13
397.361	117.76
397.57	66.56
397.78	140.29
397.989	109.57
398.198	273.4
398.407	39.94
398.617	31.74
398.826	66.56
399.035	17.41
399.244	72.7
399.453	93.18
399.663	27.65
399.872	70.65
400.081	-54.27
400.29	146.43
400.499	33.79
400.708	152.57
400.917	-7.17
401.127	-48.13
401.336	21.5
401.545	261.12
401.754	136.19
401.963	117.76
402.172	11.26
402.381	-23.55
402.59	54.27
402.799	15.36
403.008	166.91
403.217	50.18
403.426	95.23
403.635	-82.94
403.844	15.36
404.053	9.22
404.262	13.31
404.471	191.49
404.68	89.09
404.888	97.28
405.097	62.46
405.306	60.42
405.515	136.19
405.724	1.02
405.933	93.18
406.142	144.38
406.35	123.9
406.559	33.79
406.768	62.46
406.977	156.67
407.185	93.18
407.394	74.75
407.603	-7.17
407.812	50.18
408.02	158.72
408.229	123.9
408.438	60.42
408.646	-19.46
408.855	52.22
409.064	162.81
409.272	-17.41
409.481	115.71
409.69	11.26
409.898	31.74
410.107	21.5
410.315	111.61
410.524	-15.36
410.733	152.57
410.941	39.94
411.15	138.24
411.358	117.76
411.567	224.25
411.775	119.81
411.984	119.81
412.192	144.38
412.401	33.79
412.609	173.05
412.818	123.9
413.026	84.99
413.234	50.18
413.443	50.18
413.651	-13.31
413.86	146.43
414.068	193.53
414.276	166.91
414.485	7.17
414.693	146.43
414.901	164.86
415.11	84.99
415.318	117.76
415.526	76.8
415.734	150.53
415.943	66.56
416.151	162.81
416.359	41.98
416.567	177.15
416.776	136.19
416.984	84.99
417.192	154.62
417.4	-25.6
417.608	-41.98
417.817	5.12
418.025	164.86
418.233	189.44
418.441	-17.41
418.649	21.5
418.857	93.18
419.065	222.2
419.273	97.28
419.481	74.75
419.689	58.37
419.897	78.85
420.105	-29.7
420.313	46.08
420.521	187.39
420.729	95.23
420.937	-5.12
421.145	-3.07
421.353	119.81
421.561	93.18
421.769	58.37
421.977	46.08
422.185	107.52
422.393	97.28
422.601	162.81
422.809	101.37
423.017	46.08
423.224	103.42
423.432	70.65
423.64	115.71
423.848	138.24
424.056	5.12
424.263	123.9
424.471	37.89
424.679	197.63
424.887	46.08
425.094	175.1
425.302	136.19
425.51	21.5
425.718	121.85
425.925	105.47
426.133	-1.02
426.341	160.77
426.548	39.94
426.756	76.8
426.964	119.81
427.171	3.07
427.379	64.51
427.586	50.18
427.794	58.37
428.001	177.15
428.209	134.14
428.417	148.48
428.624	150.53
428.832	201.72
429.039	148.48
429.247	168.96
429.454	140.29
429.662	252.92
429.869	84.99
430.076	128
430.284	119.81
430.491	228.35
430.699	158.72
430.906	236.54
431.114	191.49
431.321	138.24
431.528	113.66
431.736	107.52
431.943	152.57
432.15	207.87
432.358	175.1
432.565	267.26
432.772	82.94
432.979	293.88
433.187	144.38
433.394	261.12
433.601	162.81
433.808	273.4
434.016	248.83
434.223	189.44
434.43	230.4
434.637	304.12
434.844	283.64
435.052	289.79
435.259	220.16
435.466	349.18
435.673	326.65
435.88	365.56
436.087	363.51
436.294	398.33
436.501	418.81
436.708	330.75
436.915	377.85
437.122	455.67
437.329	312.32
437.537	363.51
437.743	386.04
437.95	553.98
438.157	517.11
438.364	496.63
438.571	400.38
438.778	463.86
438.985	498.68
439.192	621.56
439.399	447.48
439.606	599.03
439.813	510.97
440.02	715.77
440.227	713.72
440.433	644.09
440.64	652.28
440.847	611.32
441.054	709.62
441.261	873.46
441.467	719.86
441.674	693.24
441.881	797.68
442.088	758.77
442.294	906.23
442.501	920.56
442.708	982
442.914	961.52
443.121	1039.34
443.328	1070.06
443.534	1018.86
443.741	1008.62
443.948	965.62
444.154	1225.71
444.361	1301.48
444.568	1197.04
444.774	1190.89
444.981	1254.38
445.187	1399.79
445.394	1346.54
445.6	1344.49
445.807	1479.66
446.013	1571.82
446.22	1453.03
446.426	1717.22
446.633	1766.37
446.839	1983.46
447.046	1682.41
447.252	2008.03
447.459	1889.25
447.665	1876.96
447.871	2081.76
448.078	2350.04
448.284	2274.27
448.491	2304.99
448.697	2456.54
448.903	2628.57
449.11	2560.98
449.316	2550.75
449.522	2761.69
449.728	2968.53
449.935	3091.41
450.141	2946
450.347	3310.54
450.553	3236.81
450.76	3322.83
450.966	3484.62
451.172	3580.87
451.378	3818.44
451.584	3892.16
451.791	4000.71
451.997	4201.41
452.203	4260.8
452.409	4490.17
452.615	4664.25
452.821	4586.43
453.027	4715.45
453.233	5325.74
453.44	5102.51
453.646	5299.12
453.852	5518.25
454.058	5761.96
454.264	6024.1
454.47	6237.09
454.676	6280.1
454.882	6716.31
455.088	6667.16
455.294	7054.23
455.5	7459.73
455.705	7746.44
455.911	7762.83
456.117	8158.08
456.323	8391.55
456.529	8352.64
456.735	9026.42
456.941	9382.77
457.147	9694.06
457.352	9982.82
457.558	10287.97
457.764	10957.66
457.97	11211.6
458.176	11639.63
458.381	12186.44
458.587	12430.15
458.793	12950.33
458.999	13011.77
459.204	14578.47
459.41	15074.07
459.616	14908.19
459.821	16038.67
460.027	16784.13
460.233	17289.98
460.438	17449.72
460.644	18506.47
460.85	18463.46
461.055	19348.18
461.261	20159.18
461.466	19966.67
461.672	20232.91
461.878	22522.54
462.083	22151.85
462.289	22870.69
462.494	23767.7
462.7	23974.55
462.905	24091.28
463.111	26192.5
463.316	27273.82
463.522	28115.54
463.727	28832.33
463.932	30210.61
464.138	31226.4
464.343	32123.41
464.549	31971.86
464.754	34728.43
464.959	35670.5
465.165	36153.82
465.37	36182.49
465.575	36098.52
465.781	38433.21
465.986	39526.82
466.191	38685.11
466.397	39537.06
466.602	38205.88
466.807	40405.4
467.012	41085.33
467.218	41884.03
467.423	41838.98
467.628	43034.99
467.833	45242.7
468.038	44595.54
468.244	43506.02
468.449	45932.87
468.654	44603.74
468.859	45263.18
469.064	44960.08
469.269	44179.81
469.474	44126.56
469.679	46045.51
469.885	44304.73
470.09	45289.8
470.295	45226.32
470.5	44403.03
470.705	44239.2
470.91	43266.41
471.115	42787.19
471.32	43817.32
471.525	43071.85
471.73	41994.62
471.935	41642.37
472.139	39821.73
472.344	40247.71
472.549	40053.15
472.754	39338.41
472.959	38128.06
473.164	36919.76
473.369	36524.5
473.574	37667.27
473.778	36876.75
473.983	35998.17
474.188	35289.57
474.393	33729.02
474.598	33847.8
474.802	33100.29
475.007	32533.01
475.212	32522.77
475.417	30992.94
475.621	30882.34
475.826	30804.52
476.031	29813.31
476.235	29024.84
476.44	29188.67
476.645	28580.43
476.849	28133.97
477.054	27849.3
477.259	27132.51
477.463	26569.32
477.668	26167.92
477.872	26094.19
478.077	25459.32
478.282	24738.44
478.486	24664.71
478.691	24386.19
478.895	23933.59
479.1	23913.11
479.304	23859.86
479.509	22938.27
479.713	23315.1
479.918	22731.43
480.122	22440.62
480.326	22641.32
480.531	22540.97
480.735	22164.14
480.94	21881.52
481.144	22405.8
481.348	21267.13
481.553	21535.42
481.757	21000.9
481.961	21242.56
482.166	21347
482.37	20925.12
482.574	20382.41
482.778	20699.84
482.983	20841.15
483.187	20378.31
483.391	20280.01
483.595	19837.65
483.8	19311.32
484.004	19387.1
484.208	19819.22
484.412	19452.63
484.616	19110.62
484.821	18832.1
485.025	18422.5
485.229	18647.78
485.433	18160.36
485.637	17910.51
485.841	17715.95
486.045	17601.27
486.249	17230.59
486.453	17132.28
486.657	16694.02
486.861	16777.98
487.065	15692.56
487.269	16089.87
487.473	15428.37
487.677	15887.12
487.881	15737.62
488.085	15229.72
488.289	14848.8
488.493	14367.52
488.697	14545.7
488.901	14379.81
489.105	13765.42
489.309	13556.53
489.512	13411.12
489.716	13169.46
489.92	12704.57
490.124	12589.89
490.328	12839.74
490.531	12264.26
490.735	12104.52
490.939	11912.01
491.143	11463.51
491.346	11594.58
491.55	11602.77
491.754	11146.07
491.958	10988.38
492.161	10765.15
492.365	10586.97
492.569	10316.64
492.772	10222.44
492.976	10171.24
493.18	9974.63
493.383	10103.65
493.587	9941.86
493.79	9823.08
493.994	9522.03
494.197	9380.72
494.401	9286.51
494.605	9235.32
494.808	9304.95
495.012	9208.69
495.215	9175.92
495.419	9132.92
495.622	8960.89
495.825	8868.73
496.029	8895.35
496.232	8907.64
496.436	8833.91
496.639	8919.93
496.843	8631.16
497.046	8885.11
497.249	8805.24
497.453	8633.21
497.656	8663.93
497.859	8833.91
498.063	8942.46
498.266	8835.96
498.469	8725.37
498.673	8690.56
498.876	8983.41
499.079	8846.2
499.282	8778.62
499.485	9137.01
499.689	8991.61
499.892	9091.96
500.095	9026.42
500.298	9063.29
500.501	8946.55
500.705	9122.68
500.908	9360.24
501.111	9417.58
501.314	9470.83
501.517	9702.25
501.72	9796.46
501.923	9685.87
502.126	9771.88
502.329	10074.98
502.532	10011.5
502.735	10070.89
502.938	10402.66
503.141	10382.18
503.344	10466.14
503.547	10730.33
503.75	10716
503.953	10730.33
504.156	11086.68
504.359	10980.18
504.562	11209.56
504.765	11357.01
504.968	11723.6
505.17	11985.74
505.373	12110.66
505.576	12510.02
505.779	12526.4
505.982	12561.22
506.185	12835.64
506.387	13210.42
506.59	13427.51
506.793	13456.18
506.996	13564.72
507.198	14095.14
507.401	14275.37
507.604	14510.88
507.807	14943
508.009	15045.4
508.212	15614.74
508.415	15682.32
508.617	15993.61
508.82	16177.93
509.022	16134.92
509.225	16802.56
509.428	17236.73
509.63	17537.78
509.833	17818.35
510.035	18633.44
510.238	18588.39
510.44	19188.44
510.643	19651.28
510.845	19796.69
511.048	20179.66
511.25	20875.97
511.453	21242.56
511.655	22284.97
511.858	22139.57
512.06	22506.15
512.262	23173.79
512.465	23468.7
512.667	23997.07
512.87	24572.55
513.072	24834.69
513.274	25856.63
513.477	26114.67
513.679	26927.72
513.881	27589.21
514.084	28265.04
514.286	28844.62
514.488	29088.32
514.69	30163.51
514.893	30540.33
515.095	31199.78
515.297	32053.78
515.499	32213.52
515.701	33133.06
515.904	34021.88
516.106	34662.9
516.308	35391.97
516.51	36211.16
516.712	36291.03
516.914	37147.08
517.116	38164.92
517.318	38816.18
517.52	39520.68
517.722	39598.5
517.925	40333.72
518.127	41763.2
518.329	41924.99
518.531	42523
518.733	43415.91
518.935	44407.13
519.136	44611.93
519.338	45525.32
519.54	46049.6
519.742	46975.28
519.944	47175.98
520.146	48046.37
520.348	48699.67
520.55	48961.81
520.752	50063.62
520.954	50819.32
521.155	51077.36
521.357	51599.6
521.559	52263.14
521.761	52881.63
521.963	53082.33
522.164	53717.2
522.366	53821.64
522.568	54870.2
522.77	54788.28
522.971	55697.58
523.173	55314.61
523.375	55820.46
523.576	55711.92
523.778	55687.34
523.98	56899.74
524.181	57190.55
524.383	56735.9
524.584	57579.67
524.786	57170.07
524.988	57069.72
525.189	57919.63
525.391	57673.87
525.592	57776.27
525.794	57931.92
525.995	57475.22
526.197	57602.19
526.398	57395.35
526.6	57411.73
526.801	57489.55
527.003	57180.31
527.204	56740
527.406	56998.04
527.607	56408.23
527.808	56952.99
528.01	55623.86
528.211	55799.98
528.412	56314.02
528.614	55257.27
528.815	55081.14
529.016	55134.39
529.218	54010.06
529.419	53981.38
529.62	53305.55
529.822	52596.96
530.023	52461.79
530.224	52013.29
530.425	51364.08
530.626	50551.04
530.828	49967.37
531.029	50342.14
531.23	49434.89
531.431	49008.92
531.632	48435.48
531.833	48242.98
532.035	47335.73
532.236	46743.86
532.437	46747.96
532.638	45392.2
532.839	45244.75
533.04	44939.6
533.241	43768.16
533.442	44388.7
533.643	42928.5
533.844	42238.33
534.045	42197.37
534.246	40862.1
534.447	40530.33
534.648	40016.29
534.849	39516.58
535.05	39477.67
535.251	38144.44
535.451	38357.43
535.652	38027.71
535.853	37001.68
536.054	36774.35
536.255	35871.2
536.456	35377.64
536.657	35379.68
536.857	34503.15
537.058	34093.56
537.259	33731.07
537.46	33595.9
537.66	32545.3
537.861	32320.02
538.062	32119.32
538.263	31601.18
538.463	31377.95
538.664	30726.7
538.865	30501.42
539.065	30476.85
539.266	29319.74
539.466	29620.8
539.667	28865.1
539.868	29069.89
540.068	28469.84
540.269	27560.54
540.469	27748.95
540.67	27415.13
540.87	26876.52
541.071	26665.58
541.271	26471.02
541.472	26057.33
541.672	25598.59
541.873	25197.18
542.073	25045.63
542.274	25125.5
542.474	24414.86
542.675	24238.73
542.875	24349.32
543.075	23773.85
543.276	23370.4
543.476	23511.71
543.676	22801.06
543.877	22786.72
544.077	22487.72
544.277	22457
544.478	22022.83
544.678	21961.39
544.878	21467.83
545.078	21510.84
545.279	20843.2
545.479	20648.64
545.679	20585.16
545.879	20302.54
546.079	20032.21
546.28	19833.55
546.48	19743.44
546.68	19393.24
546.88	19333.85
547.08	18854.62
547.28	18647.78
547.48	18203.37
547.68	18434.79
547.88	17861.36
548.081	17791.73
548.281	17476.34
548.481	17402.61
548.681	17144.57
548.881	16947.97
549.081	16661.25
549.28	16569.09
549.48	16124.68
549.68	15833.87
549.88	15917.84
550.08	15190.81
550.28	15405.84
550.48	15313.69
550.68	15110.94
550.88	14621.47
551.08	14377.76
551.279	14545.7
551.479	14058.28
551.679	14025.51
551.879	13837.1
552.079	13542.19
552.278	13331.25
552.478	13427.51
552.678	12813.12
552.878	12921.66
553.077	12548.93
553.277	12272.45
553.477	12550.98
553.676	12014.41
553.876	11778.89
554.076	11709.26
554.275	11488.08
554.475	11293.52
554.674	11234.13
554.874	10935.13
555.074	10531.68
555.273	10615.65
555.473	10404.71
555.672	10105.7
555.872	10212.2
556.071	10021.74
556.271	9991.02
556.47	9589.61
556.67	9263.99
556.869	9401.2
557.068	9180.02
557.268	8934.26
557.467	8821.63
557.667	8856.44
557.866	8553.34
558.065	8211.33
558.265	8246.15
558.464	8151.94
558.663	8158.08
558.863	7832.46
559.062	7977.86
559.261	7545.74
559.461	7715.72
559.66	7412.62
559.859	7189.39
560.058	7185.3
560.258	7064.47
560.457	6972.31
560.656	7011.22
560.855	6675.35
561.054	6626.2
561.253	6601.63
561.453	6501.28
561.652	6495.13
561.851	6353.82
562.05	6157.22
562.249	5960.61
562.448	6185.89
562.647	5843.88
562.846	5729.19
563.045	5669.8
563.244	5594.03
563.443	5673.9
563.642	5440.43
563.841	5485.48
564.04	5342.13
564.239	5417.9
564.438	4983.73
564.637	5016.5
564.836	4953.01
565.035	4805.56
565.234	4942.77
565.432	4860.85
565.631	4889.53
565.83	4815.8
566.029	4457.4
566.228	4441.02
566.427	4504.51
566.625	4219.84
566.824	4516.8
567.023	4293.57
567.222	4107.2
567.42	4225.98
567.619	4303.81
567.818	4115.39
568.016	4060.1
568.215	3857.35
568.414	3988.42
568.612	3947.46
568.811	3795.91
569.01	3777.48
569.208	3441.61
569.407	3718.09
569.605	3619.78
569.804	3552.2
570.002	3451.85
570.201	3341.26
570.4	3261.39
570.598	3357.64
570.797	3224.53
570.995	3187.66
571.193	3187.66
571.392	3109.84
571.59	3072.98
571.789	3066.83
571.987	3134.42
572.186	3077.07
572.384	2855.89
572.582	2882.52
572.781	2925.52
572.979	2630.62
573.177	2649.05
573.376	2710.49
573.574	2728.92
573.772	2712.53
573.971	2505.69
574.169	2483.16
574.367	2403.29
574.565	2581.46
574.763	2399.2
574.962	2503.64
575.16	2325.47
575.358	2233.31
575.556	2391
575.754	2233.31
575.952	2249.69
576.151	2192.35
576.349	2259.93
576.547	2081.76
576.745	2184.16
576.943	1989.6
577.141	1950.69
577.339	2018.27
577.537	2055.14
577.735	1936.35
577.933	1965.03
578.131	1713.13
578.329	1965.03
578.527	1893.35
578.725	1850.34
578.923	1645.54
579.121	1889.25
579.319	1674.21
579.516	1739.75
579.714	1829.86
579.912	1647.59
580.11	1522.66
580.308	1500.14
580.506	1539.05
580.704	1453.03
580.901	1455.08
581.099	1614.82
581.297	1422.31
581.495	1465.32
581.692	1430.51
581.89	1569.77
582.088	1467.37
582.285	1309.68
582.483	1301.48
582.681	1340.4
582.878	1350.64
583.076	1223.66
583.274	1264.62
583.471	1342.44
583.669	1219.57
583.866	1129.45
584.064	1270.76
584.262	1166.32
584.459	1135.6
584.657	1160.17
584.854	1248.24
585.052	1076.21
585.249	1154.03
585.447	1113.07
585.644	1076.21
585.841	1139.69
586.039	1027.06
586.236	1125.36
586.434	1000.43
586.631	922.61
586.828	863.22
587.026	984.05
587.223	846.84
587.42	893.94
587.618	844.79
587.815	1016.82
588.012	941.04
588.21	873.46
588.407	986.1
588.604	924.66
588.801	889.84
588.999	898.03
589.196	971.76
589.393	752.63
589.59	904.18
589.787	822.26
589.984	912.37
590.182	934.9
590.379	732.15
590.576	789.49
590.773	744.44
590.97	795.64
591.167	809.97
591.364	850.93
591.561	781.3
591.758	836.6
591.955	719.86
592.152	750.58
592.349	769.01
592.546	773.11
592.743	754.68
592.94	852.98
593.137	799.73
593.334	889.84
593.531	820.21
593.727	824.31
593.924	787.44
594.121	803.83
594.318	701.43
594.515	840.69
594.712	982
594.908	959.47
595.105	809.97
595.302	842.74
595.499	824.31
595.696	1047.54
595.892	726
596.089	1000.43
596.286	891.89
596.482	998.38
596.679	1039.34
596.876	918.51
597.072	1137.65
597.269	1070.06
597.466	1106.93
597.662	1018.86
597.859	1121.26
598.055	1137.65
598.252	1270.76
598.448	1238
598.645	1420.27
598.841	1506.28
599.038	1534.95
599.234	1537
599.431	1551.34
599.627	1543.14
599.824	1598.44
600.02	1639.4
600.217	1596.39
600.413	1741.8
600.609	1749.99
600.806	2110.43
601.002	1999.84
601.198	2022.37
601.395	2155.49
601.591	2288.61
601.787	2288.61
601.984	2425.82
602.18	2411.48
602.376	2526.17
602.572	2667.48
602.769	2802.65
602.965	2849.75
603.161	2984.91
603.357	3087.31
603.553	3161.04
603.75	3093.46
603.946	3359.69
604.142	3421.13
604.338	3701.7
604.534	3775.43
604.73	3802.05
604.926	3945.41
605.122	4223.94
605.318	4180.93
605.514	4379.58
605.71	4383.68
605.906	4621.24
606.102	4709.3
606.298	4885.43
606.494	5055.41
606.69	5143.47
606.886	5362.61
607.082	5340.08
607.278	5792.68
607.474	5743.53
607.67	5913.51
607.866	5923.75
608.062	6339.49
608.257	6411.17
608.453	6693.79
608.649	6861.72
608.845	6970.26
609.041	7177.11
609.236	7484.3
609.432	7539.6
609.628	7977.86
609.824	7938.95
610.019	8135.56
610.215	8498.05
610.411	8704.89
610.606	9091.96
610.802	8983.41
610.998	9450.35
611.193	9681.77
611.389	9743.21
611.584	10353.51
611.78	10113.89
611.976	10695.52
612.171	11092.82
612.367	11240.28
612.562	11660.11
612.758	11594.58
612.953	12079.94
613.149	12659.52
613.344	12651.33
613.539	13191.99
613.735	13290.29
613.93	13843.24
614.126	13959.98
614.321	14775.07
614.517	14981.92
614.712	15246.1
614.907	15768.34
615.103	16098.06
615.298	16110.35
615.493	17023.74
615.688	17160.95
615.884	18160.36
616.079	18178.79
616.274	18590.44
616.47	18905.82
616.665	19540.69
616.86	20107.98
617.055	20609.73
617.25	20994.75
617.445	21975.73
617.641	21910.19
617.836	22870.69
618.031	23036.58
618.226	23898.77
618.421	24031.89
618.616	24949.38
618.811	25158.27
619.006	26108.53
619.201	26509.93
619.396	27218.53
619.591	27490.91
619.786	28549.71
619.981	28707.4
620.176	29653.56
620.371	29649.47
620.566	30560.81
620.761	31248.93
620.956	32557.58
621.151	32684.56
621.346	33008.14
621.541	33718.78
621.735	34914.8
621.93	34632.18
622.125	35879.39
622.32	36151.77
622.515	36907.47
622.709	37341.64
622.904	38400.44
623.099	39221.67
623.294	40016.29
623.488	40008.09
623.683	41384.33
623.878	41210.25
624.072	42398.07
624.267	42977.65
624.462	43622.76
624.656	43755.88
624.851	44736.85
625.046	45039.95
625.24	46369.08
625.435	46514.49
625.629	47241.52
625.824	47905.06
626.018	48724.25
626.213	48111.91
626.407	49352.97
626.602	49412.37
626.796	50735.35
626.991	50917.62
627.185	51034.36
627.38	51398.9
627.574	51429.62
627.768	51790.06
627.963	52377.82
628.157	52459.74
628.352	52893.91
628.546	52422.88
628.74	52818.14
628.935	52353.25
629.129	52431.07
629.323	52111.59
629.517	52197.6
629.712	51767.53
629.906	51511.53
630.1	50376.96
630.294	50940.15
630.489	49731.85
630.683	49496.33
630.877	48302.37
631.071	47513.9
631.265	47100.21
631.459	46068.03
631.653	45058.38
631.848	44144.99
632.042	43229.55
632.236	42342.78
632.43	40878.48
632.624	40450.45
632.818	38603.19
633.012	37185.99
633.206	36452.82
633.4	35684.83
633.594	34181.62
633.788	32807.44
633.982	32150.04
634.176	30802.47
634.369	29526.59
634.563	28971.59
634.757	27320.93
634.951	26796.65
635.145	25533.05
635.339	24410.76
635.533	23261.85
635.726	22631.08
635.92	21496.5
636.114	21160.64
636.308	19839.7
636.501	19421.91
636.695	18307.82
636.889	17511.16
637.083	17079.04
637.276	16392.97
637.47	15610.64
637.664	14990.11
637.857	14535.46
638.051	13900.59
638.244	13136.7
638.438	12643.14
638.632	12319.56
638.825	11617.1
639.019	11098.97
639.212	10961.75
639.406	10490.72
639.599	10183.52
639.793	9780.07
639.986	9044.85
640.18	8917.88
640.373	8686.46
640.567	8215.43
640.76	7963.53
640.954	7609.23
641.147	7320.46
641.34	6917.01
641.534	6878.1
641.727	6732.7
641.92	6374.3
642.114	6011.81
642.307	5919.65
642.5	5594.03
642.694	5295.02
642.887	5075.89
643.08	5262.26
643.273	4998.07
643.467	4635.58
643.66	4598.71
643.853	4303.81
644.046	4127.68
644.239	3931.08
644.432	3851.21
644.626	3554.25
644.819	3562.44
645.012	3369.93
645.205	3343.31
645.398	3126.22
645.591	3052.5
645.784	2880.47
645.977	2679.77
646.17	2710.49
646.363	2587.61
646.556	2513.88
646.749	2399.2
646.942	2358.24
647.135	2251.74
647.328	2159.58
647.521	2108.38
647.714	1917.92
647.907	1938.4
648.099	1790.95
648.292	1866.72
648.485	1702.89
648.678	1633.26
648.871	1551.34
649.064	1559.53
649.256	1336.3
649.449	1379.31
649.642	1295.34
649.835	1307.63
650.027	1170.41
650.22	1313.77
650.413	1188.85
650.605	1266.67
650.798	1027.06
650.991	1059.82
651.183	1049.58
651.376	1068.02
651.568	957.43
651.761	951.28
651.954	982
652.146	900.08
652.339	891.89
652.531	936.95
652.724	742.39
652.916	670.71
653.109	656.37
653.301	801.78
653.494	793.59
653.686	676.85
653.879	730.1
654.071	656.37
654.263	586.74
654.456	629.75
654.648	644.09
654.84	642.04
655.033	570.36
655.225	658.42
655.417	416.76
655.61	713.72
655.802	599.03
655.994	584.7
656.186	390.14
656.379	558.07
656.571	429.05
656.763	445.43
656.955	388.09
657.148	484.34
657.34	533.5
657.532	457.72
657.724	340.99
657.916	396.28
658.108	533.5
658.3	347.13
658.492	496.63
658.684	263.16
658.876	470.01
659.068	287.74
659.26	279.55
659.452	218.11
659.644	338.94
659.836	418.81
660.028	287.74
660.22	222.2
660.412	297.98
660.604	330.75
660.796	287.74
660.988	386.04
661.18	279.55
661.372	289.79
661.563	254.97
661.755	324.6
661.947	197.63
662.139	197.63
662.331	187.39
662.522	304.12
662.714	265.21
662.906	224.25
663.097	259.07
663.289	246.78
663.481	179.2
663.673	269.31
663.864	183.29
664.056	295.93
664.247	197.63
664.439	355.32
664.631	236.54
664.822	259.07
665.014	142.33
665.205	125.95
665.397	191.49
665.588	158.72
665.78	230.4
665.971	340.99
666.163	150.53
666.354	193.53
666.546	177.15
666.737	164.86
666.929	179.2
667.12	115.71
667.311	214.01
667.503	132.09
667.694	168.96
667.885	257.02
668.077	156.67
668.268	84.99
668.459	295.93
668.651	185.34
668.842	115.71
669.033	113.66
669.224	64.51
669.416	328.7
669.607	191.49
669.798	84.99
669.989	242.68
670.18	220.16
670.371	236.54
670.563	5.12
670.754	248.83
670.945	195.58
671.136	119.81
671.327	66.56
671.518	287.74
671.709	283.64
671.9	205.82
672.091	291.84
672.282	154.62
672.473	195.58
672.664	121.85
672.855	183.29
673.046	234.49
673.237	181.25
673.428	166.91
673.619	269.31
673.809	168.96
674	244.73
674.191	211.96
674.382	177.15
674.573	156.67
674.764	148.48
674.954	293.88
675.145	82.94
675.336	179.2
675.527	203.77
675.717	240.64
675.908	162.81
676.099	128
676.289	214.01
676.48	29.7
676.671	242.68
676.861	128
677.052	209.92
677.243	168.96
677.433	144.38
677.624	283.64
677.814	252.92
678.005	144.38
678.195	261.12
678.386	103.42
678.576	261.12
678.767	125.95
678.957	242.68
679.148	246.78
679.338	252.92
679.529	261.12
679.719	222.2
679.909	179.2
680.1	295.93
680.29	304.12
680.481	263.16
680.671	314.36
680.861	263.16
681.052	297.98
681.242	201.72
681.432	226.3
681.622	287.74
681.813	72.7
682.003	252.92
682.193	136.19
682.383	279.55
682.573	199.68
682.764	187.39
682.954	257.02
683.144	330.75
683.334	324.6
683.524	265.21
683.714	248.83
683.904	310.27
684.094	318.46
684.284	343.03
684.474	316.41
684.664	310.27
684.854	310.27
685.044	187.39
685.234	195.58
685.424	234.49
685.614	250.88
685.804	353.27
685.994	263.16
686.184	259.07
686.374	326.65
686.564	273.4
686.753	195.58
686.943	222.2
687.133	252.92
687.323	240.64
687.513	254.97
687.702	265.21
687.892	289.79
688.082	310.27
688.272	359.42
688.461	302.08
688.651	396.28
688.841	371.71
689.03	222.2
689.22	209.92
689.41	277.5
689.599	343.03
689.789	273.4
689.979	343.03
690.168	201.72
690.358	295.93
690.547	336.89
690.737	259.07
690.926	345.08
691.116	259.07
691.305	332.79
691.495	324.6
691.684	220.16
691.874	195.58
692.063	267.26
692.252	295.93
692.442	295.93
692.631	230.4
692.82	240.64
693.01	281.6
693.199	252.92
693.388	308.22
693.578	306.17
693.767	343.03
693.956	326.65
694.146	226.3
694.335	244.73
694.524	201.72
694.713	340.99
694.902	171.01
695.092	250.88
695.281	295.93
695.47	265.21
695.659	158.72
695.848	263.16
696.037	171.01
696.226	336.89
696.415	347.13
696.604	326.65
696.793	246.78
696.982	136.19
697.171	347.13
697.36	140.29
697.549	295.93
697.738	54.27
697.927	154.62
698.116	242.68
698.305	197.63
698.494	246.78
698.683	203.77
698.872	367.61
699.061	232.44
699.25	273.4
699.438	220.16
699.627	209.92
699.816	363.51
700.005	136.19
700.193	189.44
700.382	336.89
700.571	246.78
700.76	226.3
700.948	322.56
701.137	340.99
701.326	314.36
701.514	183.29
701.703	236.54
701.892	199.68
702.08	463.86
702.269	224.25
702.457	195.58
702.646	252.92
702.834	191.49
703.023	338.94
703.212	320.51
703.4	214.01
703.589	207.87
703.777	246.78
703.965	195.58
704.154	187.39
704.342	144.38
704.531	336.89
704.719	183.29
704.907	365.56
705.096	146.43
705.284	211.96
705.472	248.83
705.661	211.96
705.849	271.36
706.037	295.93
706.226	250.88
706.414	248.83
706.602	197.63
706.79	271.36
706.979	214.01
707.167	234.49
707.355	142.33
707.543	267.26
707.731	222.2
707.919	261.12
708.107	189.44
708.296	134.14
708.484	203.77
708.672	271.36
708.86	250.88
709.048	187.39
709.236	111.61
709.424	273.4
709.612	195.58
709.8	183.29
709.988	289.79
710.176	242.68
710.364	230.4
710.551	197.63
710.739	246.78
710.927	189.44
711.115	154.62
711.303	246.78
711.491	285.69
711.679	220.16
711.866	300.03
712.054	185.34
712.242	263.16
712.43	349.18
712.617	189.44
712.805	336.89
712.993	232.44
713.181	130.05
713.368	291.84
713.556	201.72
713.744	148.48
713.931	343.03
714.119	160.77
714.306	203.77
714.494	222.2
714.682	228.35
714.869	132.09
715.057	152.57
715.244	119.81
715.432	310.27
715.619	232.44
715.807	222.2
715.994	230.4
716.182	238.59
716.369	277.5
716.556	361.47
716.744	117.76
716.931	130.05
717.119	369.66
717.306	199.68
717.493	279.55
717.681	265.21
717.868	199.68
718.055	275.45
718.242	302.08
718.43	252.92
718.617	326.65
718.804	240.64
718.991	267.26
719.179	285.69
719.366	261.12
719.553	312.32
719.74	289.79
719.927	236.54
720.114	207.87
720.301	214.01
720.488	187.39
720.676	191.49
720.863	332.79
721.05	390.14
721.237	279.55
721.424	240.64
721.611	252.92
721.798	136.19
721.985	185.34
722.172	244.73
722.358	277.5
722.545	252.92
722.732	414.71
722.919	257.02
723.106	263.16
723.293	351.23
723.48	252.92
723.667	201.72
723.853	293.88
724.04	300.03
724.227	347.13
724.414	271.36
724.6	345.08
724.787	383.99
724.974	406.52
725.161	261.12
725.347	222.2
725.534	211.96
725.72	379.9
725.907	297.98
726.094	316.41
726.28	291.84
726.467	306.17
726.653	173.05
726.84	383.99
727.027	392.19
727.213	336.89
727.4	250.88
727.586	334.84
727.773	224.25
727.959	295.93
728.145	281.6
728.332	230.4
728.518	179.2
728.705	377.85
728.891	267.26
729.077	273.4
729.264	257.02
729.45	273.4
729.636	388.09
729.823	242.68
730.009	386.04
730.195	345.08
730.382	314.36
730.568	257.02
730.754	304.12
730.94	242.68
731.126	320.51
731.313	400.38
731.499	343.03
731.685	383.99
731.871	295.93
732.057	242.68
732.243	369.66
732.429	338.94
732.615	392.19
732.801	377.85
732.987	252.92
733.173	336.89
733.359	232.44
733.545	336.89
733.731	199.68
733.917	392.19
734.103	349.18
734.289	283.64
734.475	271.36
734.661	467.96
734.847	297.98
735.033	328.7
735.219	412.67
735.404	320.51
735.59	279.55
735.776	308.22
735.962	343.03
736.148	363.51
736.333	320.51
736.519	326.65
736.705	304.12
736.89	314.36
737.076	340.99
737.262	289.79
737.447	230.4
737.633	289.79
737.819	377.85
738.004	289.79
738.19	363.51
738.375	361.47
738.561	314.36
738.747	310.27
738.932	279.55
739.118	439.29
739.303	465.91
739.489	467.96
739.674	293.88
739.859	295.93
740.045	349.18
740.23	394.23
740.416	72.7
740.601	283.64
740.786	261.12
740.972	171.01
741.157	330.75
741.342	244.73
741.528	250.88
741.713	398.33
741.898	285.69
742.084	338.94
742.269	351.23
742.454	340.99
742.639	410.62
742.824	265.21
743.01	447.48
743.195	396.28
743.38	273.4
743.565	308.22
743.75	320.51
743.935	369.66
744.12	386.04
744.305	173.05
744.49	230.4
744.675	261.12
744.86	238.59
745.045	214.01
745.23	271.36
745.415	279.55
745.6	453.63
745.785	252.92
745.97	386.04
746.155	228.35
746.34	396.28
746.525	263.16
746.71	392.19
746.895	158.72
747.079	211.96
747.264	254.97
747.449	267.26
747.634	306.17
747.819	302.08
748.003	195.58
748.188	205.82
748.373	261.12
748.557	277.5
748.742	363.51
748.927	263.16
749.111	220.16
749.296	269.31
749.481	392.19
749.665	302.08
749.85	244.73
750.034	328.7
750.219	259.07
750.404	173.05
750.588	185.34
750.773	230.4
750.957	197.63
751.141	244.73
751.326	306.17
751.51	132.09
751.695	205.82
751.879	214.01
752.064	359.42
752.248	228.35
752.432	314.36
752.617	287.74
752.801	383.99
752.985	171.01
753.17	318.46
753.354	230.4
753.538	175.1
753.722	162.81
753.907	179.2
754.091	154.62
754.275	300.03
754.459	115.71
754.643	115.71
754.828	293.88
755.012	336.89
755.196	82.94
755.38	203.77
755.564	263.16
755.748	189.44
755.932	246.78
756.116	275.45
756.3	226.3
756.484	254.97
756.668	164.86
756.852	-9.22
757.036	234.49
757.22	214.01
757.404	175.1
757.588	136.19
757.772	197.63
757.956	211.96
758.14	263.16
758.323	193.53
758.507	269.31
758.691	158.72
758.875	289.79
759.059	269.31
759.242	132.09
759.426	171.01
759.61	168.96
759.794	48.13
759.977	181.25
760.161	336.89
760.345	261.12
760.528	310.27
760.712	218.11
760.895	218.11
761.079	125.95
761.263	152.57
761.446	97.28
761.63	156.67
761.813	230.4
761.997	148.48
762.18	101.37
762.364	244.73
762.547	80.89
762.731	74.75
762.914	191.49
763.098	76.8
763.281	125.95
763.464	140.29
763.648	175.1
763.831	132.09
764.015	119.81
764.198	185.34
764.381	111.61
764.564	72.7
764.748	113.66
764.931	187.39
765.114	119.81
765.297	232.44
765.481	121.85
765.664	150.53
765.847	123.9
766.03	257.02
766.213	99.33
766.397	244.73
766.58	50.18
766.763	144.38
766.946	80.89
767.129	99.33
767.312	72.7
767.495	181.25
767.678	87.04
767.861	111.61
768.044	142.33
768.227	97.28
768.41	101.37
768.593	93.18
768.776	109.57
768.959	82.94
769.142	259.07
769.324	173.05
769.507	109.57
769.69	119.81
769.873	89.09
770.056	297.98
770.239	191.49
770.421	181.25
770.604	203.77
770.787	115.71
770.97	152.57
771.152	119.81
771.335	175.1
771.518	101.37
771.7	148.48
771.883	248.83
772.066	111.61
772.248	138.24
772.431	134.14
772.613	146.43
772.796	78.85
772.978	181.25
773.161	175.1
773.343	72.7
773.526	48.13
773.708	-1.02
773.891	41.98
774.073	87.04
774.256	29.7
774.438	197.63
774.621	82.94
774.803	179.2
774.985	80.89
775.168	113.66
775.35	62.46
775.532	82.94
775.715	60.42
775.897	113.66
776.079	48.13
776.261	-37.89
776.444	80.89
776.626	58.37
776.808	64.51
776.99	52.22
777.173	76.8
777.355	72.7
777.537	64.51
777.719	99.33
777.901	27.65
778.083	117.76
778.265	54.27
778.447	130.05
778.629	13.31
778.811	97.28
778.993	62.46
779.175	103.42
779.357	91.13
779.539	-60.42
779.721	109.57
779.903	123.9
780.085	35.84
780.267	111.61
780.449	136.19
780.631	111.61
780.812	99.33
780.994	9.22
781.176	-17.41
781.358	15.36
781.54	82.94
781.721	99.33
781.903	121.85
782.085	82.94
782.267	230.4
782.448	3.07
782.63	17.41
782.812	105.47
782.993	58.37
783.175	91.13
783.357	41.98
783.538	60.42
783.72	35.84
783.901	5.12
784.083	41.98
784.264	97.28
784.446	-23.55
784.627	7.17
784.809	109.57
784.99	-15.36
785.172	99.33
785.353	37.89
785.535	78.85
785.716	64.51
785.897	48.13
786.079	44.03
786.26	27.65
786.441	103.42
786.623	-3.07
786.804	82.94
786.985	56.32
787.167	31.74
787.348	52.22
787.529	5.12
787.71	175.1
787.891	82.94
788.073	37.89
788.254	-87.04
788.435	123.9
788.616	56.32
788.797	-66.56
788.978	13.31
789.159	-39.94
789.34	62.46
789.522	74.75
789.703	-58.37
789.884	80.89
790.065	68.61
790.246	197.63
790.427	-17.41
790.607	27.65
790.788	93.18
790.969	9.22
791.15	138.24
791.331	48.13
791.512	54.27
791.693	-7.17
791.874	9.22
792.054	152.57
792.235	130.05
792.416	-3.07
792.597	-5.12
792.778	21.5
792.958	58.37
793.139	37.89
793.32	19.46
793.5	-3.07
793.681	113.66
793.862	76.8
794.042	74.75
794.223	-80.89
794.404	17.41
794.584	-101.37
794.765	56.32
794.945	113.66
795.126	3.07
795.306	84.99
795.487	-33.79
795.667	29.7
795.848	-13.31
796.028	-13.31
796.209	19.46
796.389	91.13
796.57	-1.02
796.75	-1.02
796.93	5.12
797.111	-35.84
797.291	1.02
797.471	66.56
797.652	15.36
797.832	-27.65
798.012	72.7
798.192	9.22
798.373	-101.37
798.553	-9.22
798.733	56.32
798.913	23.55
799.093	-7.17
799.274	52.22
799.454	115.71
799.634	58.37
799.814	66.56
799.994	97.28
800.174	68.61
800.354	25.6
800.534	-70.65
800.714	87.04
800.894	-64.51
801.074	-44.03
801.254	-48.13
801.434	121.85
801.614	-66.56
801.794	-15.36
801.974	1838.05
802.154	-27.65
802.334	97.28
802.514	-13.31
802.693	-15.36
802.873	-60.42
803.053	105.47
803.233	33.79
803.413	-5.12
803.592	13.31
803.772	-58.37
803.952	3.07
804.131	-80.89
804.311	93.18
804.491	111.61
804.67	-50.18
804.85	-1.02
805.03	152.57
805.209	72.7
805.389	-3.07
805.568	-5.12
805.748	-17.41
805.928	-23.55
806.107	97.28
806.287	99.33
806.466	84.99
806.646	19.46
806.825	-21.5
807.004	-11.26
807.184	72.7
807.363	11.26
807.543	9.22
807.722	-50.18
807.901	160.77
808.081	56.32
808.26	-121.85
808.439	-15.36
808.619	11.26
808.798	9.22
808.977	-37.89
809.156	58.37
809.336	33.79
809.515	130.05
809.694	-68.61
809.873	-54.27
810.052	31.74
810.231	136.19
810.411	23.55
810.59	37.89
810.769	60.42
810.948	95.23
811.127	-113.66
811.306	-50.18
811.485	29.7
811.664	91.13
811.843	27.65
812.022	-23.55
812.201	13.31
812.38	-58.37
812.559	-17.41
812.737	101.37
812.916	-80.89
813.095	-17.41
813.274	46.08
813.453	44.03
813.632	21.5
813.811	103.42
813.989	-72.7
814.168	3.07
814.347	-29.7
814.526	-60.42
814.704	107.52
814.883	130.05
815.062	-52.22
815.24	56.32
815.419	-25.6
815.598	68.61
815.776	-37.89
815.955	-54.27
816.133	-72.7
816.312	68.61
816.49	-52.22
816.669	33.79
816.847	13.31
817.026	-13.31
817.204	41.98
817.383	-31.74
817.561	-15.36
817.74	54.27
817.918	87.04
818.097	-39.94
818.275	-33.79
818.453	60.42
818.632	103.42
818.81	-15.36
818.988	13.31
819.167	-95.23
819.345	9.22
819.523	-91.13
819.701	62.46
819.879	78.85
820.058	93.18
820.236	52.22
820.414	39.94
820.592	-23.55
820.77	19.46
820.948	-64.51
821.127	-21.5
821.305	-31.74
821.483	-35.84
821.661	54.27
821.839	-5.12
822.017	-21.5
822.195	-3.07
822.373	60.42
822.551	27.65
822.729	66.56
822.907	35.84
823.085	56.32
823.262	54.27
823.44	-31.74
823.618	5.12
823.796	-41.98
823.974	-7.17
824.152	39.94
824.329	-29.7
824.507	78.85
824.685	44.03
824.863	78.85
825.04	-74.75
825.218	-3.07
825.396	60.42
825.574	-37.89
825.751	-3.07
825.929	11.26
826.107	-19.46
826.284	-39.94
826.462	101.37
826.639	-60.42
826.817	-15.36
826.994	-15.36
827.172	-46.08
827.349	168.96
827.527	33.79
827.704	107.52
827.882	37.89
828.059	1.02
828.237	-15.36
828.414	39.94
828.591	-164.86
828.769	-11.26
828.946	-93.18
829.124	113.66
829.301	146.43
829.478	-29.7
829.655	-11.26
829.833	-31.74
830.01	-103.42
830.187	48.13
830.364	7.17
830.542	-21.5
830.719	123.9
830.896	101.37
831.073	1.02
831.25	-15.36
831.427	48.13
831.604	60.42
831.782	29.7
831.959	-7.17
832.136	60.42
832.313	29.7
832.49	-15.36
832.667	19.46
832.844	-84.99
833.021	117.76
833.198	72.7
833.374	138.24
833.551	13.31
833.728	29.7
833.905	115.71
834.082	-82.94
834.259	-9.22
834.436	99.33
834.612	-41.98
834.789	29.7
834.966	-5.12
835.143	74.75
835.319	-27.65
835.496	54.27
835.673	54.27
835.85	60.42
836.026	82.94
836.203	80.89
836.38	-15.36
836.556	-17.41
836.733	-39.94
836.909	140.29
837.086	-25.6
837.262	-68.61
837.439	-29.7
837.616	-52.22
837.792	13.31
837.968	25.6
838.145	-105.47
838.321	1.02
838.498	76.8
838.674	48.13
838.851	25.6
839.027	9.22
839.203	52.22
839.38	29.7
839.556	60.42
839.732	78.85
839.909	-31.74
840.085	132.09
840.261	-15.36
840.437	52.22
840.614	31.74
840.79	103.42
840.966	37.89
841.142	99.33
841.318	-27.65
841.494	39.94
841.671	177.15
841.847	-84.99
842.023	-27.65
842.199	-27.65
842.375	132.09
842.551	-91.13
842.727	-78.85
842.903	146.43
843.079	-52.22
843.255	128
843.431	-19.46
843.607	41.98
843.783	-132.09
843.959	-3.07
844.134	-117.76
844.31	115.71
844.486	-9.22
844.662	-56.32
844.838	-11.26
845.013	1.02
845.189	111.61
845.365	-21.5
845.541	-11.26
845.716	-87.04
845.892	105.47
846.068	-19.46
846.244	-11.26
846.419	-3.07
846.595	-87.04
846.77	-95.23
846.946	46.08
847.122	1.02
847.297	7.17
847.473	119.81
847.648	-72.7
847.824	21.5
847.999	-56.32
848.175	31.74
848.35	68.61
848.526	74.75
848.701	62.46
848.876	-5.12
849.052	62.46
849.227	-5.12
849.403	1.02
849.578	-9.22
849.753	35.84
849.929	-29.7
850.104	-136.19
850.279	-107.52
850.454	-11.26
850.63	60.42
850.805	41.98
850.98	-7.17
851.155	-31.74
851.33	89.09
851.505	-72.7
851.681	113.66
851.856	-48.13
852.031	95.23
852.206	-27.65
852.381	-56.32
852.556	-23.55
852.731	-35.84
852.906	-5.12
853.081	7.17
853.256	93.18
853.431	-7.17
853.606	-39.94
853.781	31.74
853.956	-134.14
854.131	109.57
854.305	9.22
854.48	-62.46
854.655	-72.7
854.83	-58.37
855.005	-3.07
855.18	-31.74
855.354	9.22
855.529	-62.46
855.704	3.07
855.879	19.46
856.053	-76.8
856.228	44.03
856.403	-52.22
856.577	-15.36
856.752	-130.05
856.926	48.13
857.101	-50.18
857.276	-50.18
857.45	-64.51
857.625	58.37
857.799	1.02
857.974	-29.7
858.148	-125.95
858.323	82.94
858.497	7.17
858.672	-50.18
858.846	-25.6
859.02	-27.65
859.195	-144.38
859.369	-78.85
859.543	-11.26
859.718	27.65
859.892	23.55
860.066	97.28
860.241	-44.03
860.415	-70.65
860.589	19.46
860.763	3.07
860.938	-95.23
861.112	44.03
861.286	-46.08
861.46	-33.79
861.634	13.31
861.808	58.37
861.982	-91.13
862.157	7.17
862.331	15.36
862.505	-103.42
862.679	-66.56
862.853	25.6
863.027	-46.08
863.201	52.22
863.375	-7.17
863.549	44.03
863.722	-1.02
863.896	119.81
864.07	-35.84
864.244	-27.65
864.418	132.09
864.592	-5.12
864.766	31.74
864.939	-41.98
865.113	46.08
865.287	84.99
865.461	-5.12
865.634	13.31
865.808	-21.5
865.982	-35.84
866.156	-56.32
866.329	-62.46
866.503	-52.22
866.676	52.22
866.85	-48.13
867.024	-54.27
867.197	123.9
867.371	76.8
867.544	-1.02
867.718	-144.38
867.891	87.04
868.065	-54.27
868.238	3.07
868.412	23.55
868.585	44.03
868.759	-23.55
868.932	-58.37
869.105	-46.08
869.279	21.5
869.452	-80.89
869.625	93.18
869.799	5.12
869.972	-37.89
870.145	-17.41
870.319	148.48
870.492	1.02
870.665	-19.46
870.838	-89.09
871.011	-109.57
871.185	-33.79
871.358	-48.13
871.531	66.56
871.704	3.07
871.877	35.84
872.05	21.5
872.223	-117.76
872.396	117.76
872.569	48.13
872.742	-66.56
872.915	89.09
873.088	-15.36
873.261	-35.84
873.434	74.75
873.607	-66.56
873.78	1.02
873.953	-97.28
874.126	-39.94
874.299	-41.98
874.471	-48.13
874.644	-9.22
874.817	103.42
874.99	99.33
875.163	-62.46
875.335	9.22
875.508	-33.79
875.681	111.61
875.853	-80.89
876.026	3.07
876.199	37.89
876.371	29.7
876.544	-66.56
876.717	-21.5
876.889	11.26
877.062	1.02
877.234	-82.94
877.407	-52.22
877.579	-11.26
877.752	-7.17
877.924	76.8
878.097	-31.74
878.269	3.07
878.442	48.13
878.614	33.79
878.786	15.36
878.959	15.36
879.131	29.7
879.303	-140.29
879.476	-3.07
879.648	27.65
879.82	-89.09
879.993	-46.08
880.165	-19.46
880.337	-19.46
880.509	7.17
880.681	-58.37
880.854	-21.5
881.026	-52.22
881.198	89.09
881.37	33.79
881.542	-1.02
881.714	-37.89
881.886	-41.98
882.058	-56.32
882.23	15.36
882.402	31.74
882.574	80.89
882.746	-1.02
882.918	60.42
883.09	66.56
883.262	54.27
883.434	84.99
883.606	-44.03
883.778	-76.8
883.95	111.61
884.122	-9.22
884.293	70.65
884.465	3.07
884.637	50.18
884.809	5.12
884.98	1.02
885.152	39.94
885.324	29.7
885.496	-123.9
885.667	-37.89
885.839	5.12
886.011	1.02
886.182	13.31
886.354	121.85
886.525	46.08
886.697	3.07
886.869	-44.03
887.04	29.7
887.212	117.76
887.383	166.91
887.555	-80.89
887.726	-37.89
887.897	-89.09
888.069	9.22
888.24	107.52
888.412	25.6
888.583	-3.07
888.754	37.89
888.926	-138.24
889.097	-9.22
889.268	-95.23
889.44	-5.12
889.611	-91.13
889.782	-119.81
889.953	-76.8
890.125	62.46
890.296	-84.99
890.467	68.61
890.638	-11.26
890.809	33.79
890.98	-56.32
891.151	31.74
891.323	84.99
891.494	-54.27
891.665	68.61
891.836	-5.12
892.007	15.36
892.178	125.95
892.349	-48.13
892.52	-52.22
892.691	-82.94
892.862	-25.6
893.032	-162.81
893.203	-15.36
893.374	17.41
893.545	11.26
893.716	-23.55
893.887	132.09
894.057	-82.94
894.228	-66.56
894.399	-50.18
894.57	35.84
894.74	-52.22
894.911	17.41
895.082	13.31
895.253	-33.79
895.423	-35.84
895.594	41.98
895.764	87.04
895.935	15.36
896.106	-15.36
896.276	-91.13
896.447	7.17
896.617	-84.99
896.788	-62.46
896.958	-13.31
897.129	-56.32
897.299	-76.8
897.47	99.33
897.64	11.26
897.81	-56.32
897.981	52.22
898.151	9.22
898.322	113.66
898.492	25.6
898.662	-70.65
898.832	-68.61
899.003	-13.31
899.173	33.79
899.343	-70.65
899.513	-123.9
