Data from USB4F104151__51__10-43-24-177.txt Node

Date: Wed Feb 26 10:43:24 EST 2025
User: louis
Spectrometer: USB4F10415
Trigger mode: 4
Integration Time (sec): 1.000000E-1
Scans to average: 1
Electric dark correction enabled: true
Nonlinearity correction enabled: false
Boxcar width: 0
XAxis mode: Wavelengths
Number of Pixels in Spectrum: 3648
>>>>>Begin Spectral Data<<<<<
178.204	-324.6
178.424	-324.6
178.644	-324.6
178.864	-357.37
179.084	-336.89
179.304	-21.5
179.524	-1.02
179.744	-31.74
179.964	1.02
180.184	13.31
180.404	29.7
180.624	-29.7
180.844	66.56
181.064	-60.42
181.283	5.12
181.503	-23.55
181.723	52.22
181.943	-82.94
182.163	158.72
182.383	-11.26
182.602	70.65
182.822	113.66
183.042	115.71
183.262	46.08
183.482	19.46
183.701	50.18
183.921	-3.07
184.141	-5.12
184.361	91.13
184.58	-11.26
184.8	175.1
185.02	1.02
185.239	64.51
185.459	140.29
185.679	91.13
185.898	-74.75
186.118	72.7
186.338	39.94
186.557	123.9
186.777	-31.74
186.997	46.08
187.216	56.32
187.436	203.77
187.655	99.33
187.875	146.43
188.095	64.51
188.314	171.01
188.534	166.91
188.753	-5.12
188.973	128
189.192	160.77
189.412	95.23
189.631	15.36
189.851	70.65
190.07	175.1
190.29	-91.13
190.509	13.31
190.729	31.74
190.948	132.09
191.168	271.36
191.387	41.98
191.607	13.31
191.826	13.31
192.045	150.53
192.265	68.61
192.484	146.43
192.704	136.19
192.923	9.22
193.142	164.86
193.362	117.76
193.581	130.05
193.8	70.65
194.02	154.62
194.239	39.94
194.458	185.34
194.678	23.55
194.897	-29.7
195.116	13.31
195.335	107.52
195.555	142.33
195.774	25.6
195.993	144.38
196.212	41.98
196.432	54.27
196.651	46.08
196.87	44.03
197.089	240.64
197.308	78.85
197.528	62.46
197.747	27.65
197.966	76.8
198.185	236.54
198.404	-50.18
198.623	107.52
198.842	93.18
199.062	109.57
199.281	82.94
199.5	78.85
199.719	107.52
199.938	121.85
200.157	82.94
200.376	179.2
200.595	168.96
200.814	113.66
201.033	9.22
201.252	246.78
201.471	72.7
201.69	103.42
201.909	52.22
202.128	97.28
202.347	66.56
202.566	56.32
202.785	-13.31
203.004	11.26
203.223	285.69
203.442	105.47
203.661	-37.89
203.879	72.7
204.098	140.29
204.317	-39.94
204.536	119.81
204.755	91.13
204.974	152.57
205.193	29.7
205.411	80.89
205.63	115.71
205.849	113.66
206.068	13.31
206.287	-3.07
206.505	101.37
206.724	25.6
206.943	31.74
207.162	-1.02
207.381	117.76
207.599	80.89
207.818	5.12
208.037	-29.7
208.255	101.37
208.474	17.41
208.693	78.85
208.911	44.03
209.13	87.04
209.349	117.76
209.567	121.85
209.786	58.37
210.005	33.79
210.223	113.66
210.442	-44.03
210.661	84.99
210.879	76.8
211.098	-21.5
211.316	76.8
211.535	68.61
211.753	101.37
211.972	74.75
212.191	-7.17
212.409	27.65
212.628	68.61
212.846	-21.5
213.065	33.79
213.283	173.05
213.502	11.26
213.72	142.33
213.938	23.55
214.157	-11.26
214.375	138.24
214.594	93.18
214.812	68.61
215.031	97.28
215.249	35.84
215.467	107.52
215.686	72.7
215.904	76.8
216.122	160.77
216.341	103.42
216.559	107.52
216.778	74.75
216.996	230.4
217.214	-33.79
217.432	31.74
217.651	-13.31
217.869	103.42
218.087	78.85
218.306	-7.17
218.524	52.22
218.742	105.47
218.96	150.53
219.179	70.65
219.397	64.51
219.615	275.45
219.833	138.24
220.051	-52.22
220.27	142.33
220.488	119.81
220.706	164.86
220.924	19.46
221.142	25.6
221.36	-1.02
221.578	70.65
221.796	1.02
222.015	3.07
222.233	50.18
222.451	211.96
222.669	7.17
222.887	84.99
223.105	64.51
223.323	33.79
223.541	29.7
223.759	62.46
223.977	31.74
224.195	177.15
224.413	54.27
224.631	15.36
224.849	25.6
225.067	203.77
225.285	11.26
225.503	-3.07
225.721	-60.42
225.939	125.95
226.157	29.7
226.375	254.97
226.592	-15.36
226.81	-19.46
227.028	173.05
227.246	136.19
227.464	109.57
227.682	144.38
227.9	121.85
228.117	132.09
228.335	82.94
228.553	82.94
228.771	62.46
228.989	44.03
229.206	97.28
229.424	93.18
229.642	64.51
229.86	-46.08
230.077	80.89
230.295	60.42
230.513	89.09
230.731	76.8
230.948	173.05
231.166	103.42
231.384	-33.79
231.601	39.94
231.819	130.05
232.037	3.07
232.254	-48.13
232.472	44.03
232.689	39.94
232.907	80.89
233.125	25.6
233.342	44.03
233.56	-17.41
233.777	-54.27
233.995	87.04
234.213	125.95
234.43	138.24
234.648	68.61
234.865	107.52
235.083	103.42
235.3	156.67
235.518	84.99
235.735	117.76
235.953	52.22
236.17	70.65
236.388	117.76
236.605	19.46
236.822	99.33
237.04	48.13
237.257	58.37
237.475	-3.07
237.692	101.37
237.909	64.51
238.127	11.26
238.344	82.94
238.562	48.13
238.779	-11.26
238.996	5.12
239.214	35.84
239.431	132.09
239.648	13.31
239.865	97.28
240.083	146.43
240.3	25.6
240.517	3.07
240.735	68.61
240.952	207.87
241.169	115.71
241.386	103.42
241.603	3.07
241.821	-25.6
242.038	80.89
242.255	39.94
242.472	-15.36
242.689	56.32
242.907	60.42
243.124	123.9
243.341	105.47
243.558	-29.7
243.775	-21.5
243.992	-7.17
244.209	84.99
244.426	173.05
244.643	58.37
244.86	70.65
245.078	144.38
245.295	44.03
245.512	31.74
245.729	-15.36
245.946	52.22
246.163	82.94
246.38	44.03
246.597	50.18
246.814	46.08
247.031	44.03
247.248	17.41
247.464	101.37
247.681	101.37
247.898	44.03
248.115	109.57
248.332	3.07
248.549	173.05
248.766	269.31
248.983	72.7
249.2	113.66
249.417	140.29
249.633	23.55
249.85	105.47
250.067	15.36
250.284	91.13
250.501	99.33
250.717	52.22
250.934	11.26
251.151	39.94
251.368	52.22
251.585	74.75
251.801	97.28
252.018	-35.84
252.235	99.33
252.451	-37.89
252.668	9.22
252.885	144.38
253.102	46.08
253.318	103.42
253.535	48.13
253.752	37.89
253.968	21.5
254.185	-87.04
254.401	60.42
254.618	64.51
254.835	15.36
255.051	87.04
255.268	123.9
255.484	152.57
255.701	121.85
255.917	31.74
256.134	39.94
256.351	3.07
256.567	3.07
256.784	78.85
257	33.79
257.217	87.04
257.433	52.22
257.65	52.22
257.866	150.53
258.082	41.98
258.299	46.08
258.515	39.94
258.732	91.13
258.948	-3.07
259.165	78.85
259.381	5.12
259.597	54.27
259.814	80.89
260.03	-39.94
260.246	72.7
260.463	162.81
260.679	125.95
260.895	72.7
261.112	74.75
261.328	21.5
261.544	-11.26
261.761	224.25
261.977	35.84
262.193	11.26
262.409	134.14
262.626	46.08
262.842	35.84
263.058	-21.5
263.274	128
263.49	84.99
263.707	119.81
263.923	140.29
264.139	-54.27
264.355	54.27
264.571	115.71
264.787	60.42
265.004	123.9
265.22	35.84
265.436	56.32
265.652	82.94
265.868	109.57
266.084	-84.99
266.3	74.75
266.516	54.27
266.732	130.05
266.948	46.08
267.164	-3.07
267.38	146.43
267.596	60.42
267.812	125.95
268.028	23.55
268.244	-1.02
268.46	54.27
268.676	48.13
268.892	99.33
269.108	-58.37
269.324	44.03
269.54	-91.13
269.756	125.95
269.972	-58.37
270.188	60.42
270.403	-31.74
270.619	66.56
270.835	123.9
271.051	99.33
271.267	64.51
271.483	62.46
271.698	121.85
271.914	128
272.13	123.9
272.346	58.37
272.562	111.61
272.777	123.9
272.993	-21.5
273.209	9.22
273.425	35.84
273.64	7.17
273.856	78.85
274.072	9.22
274.287	-46.08
274.503	142.33
274.719	64.51
274.934	15.36
275.15	-15.36
275.366	46.08
275.581	7.17
275.797	60.42
276.012	39.94
276.228	39.94
276.444	76.8
276.659	175.1
276.875	35.84
277.09	15.36
277.306	58.37
277.521	87.04
277.737	115.71
277.952	132.09
278.168	144.38
278.383	66.56
278.599	58.37
278.814	44.03
279.03	-41.98
279.245	191.49
279.461	27.65
279.676	175.1
279.892	15.36
280.107	-29.7
280.322	-37.89
280.538	76.8
280.753	21.5
280.969	35.84
281.184	39.94
281.399	125.95
281.615	66.56
281.83	160.77
282.045	-58.37
282.26	3.07
282.476	56.32
282.691	140.29
282.906	62.46
283.122	60.42
283.337	15.36
283.552	76.8
283.767	41.98
283.983	76.8
284.198	25.6
284.413	146.43
284.628	-27.65
284.843	160.77
285.058	76.8
285.274	19.46
285.489	-33.79
285.704	70.65
285.919	-80.89
286.134	-5.12
286.349	70.65
286.564	35.84
286.779	136.19
286.995	121.85
287.21	-39.94
287.425	54.27
287.64	-21.5
287.855	119.81
288.07	-27.65
288.285	154.62
288.5	166.91
288.715	54.27
288.93	95.23
289.145	-5.12
289.36	142.33
289.575	44.03
289.79	177.15
290.004	-35.84
290.219	97.28
290.434	15.36
290.649	56.32
290.864	-15.36
291.079	21.5
291.294	134.14
291.509	48.13
291.724	25.6
291.938	54.27
292.153	99.33
292.368	60.42
292.583	60.42
292.798	148.48
293.012	103.42
293.227	54.27
293.442	-1.02
293.657	84.99
293.871	111.61
294.086	101.37
294.301	216.06
294.516	150.53
294.73	3.07
294.945	-46.08
295.16	25.6
295.374	162.81
295.589	148.48
295.804	35.84
296.018	27.65
296.233	136.19
296.447	60.42
296.662	-19.46
296.877	117.76
297.091	13.31
297.306	11.26
297.52	56.32
297.735	46.08
297.949	5.12
298.164	91.13
298.378	35.84
298.593	-23.55
298.807	37.89
299.022	103.42
299.236	156.67
299.451	68.61
299.665	35.84
299.88	93.18
300.094	136.19
300.309	39.94
300.523	107.52
300.737	44.03
300.952	152.57
301.166	66.56
301.381	64.51
301.595	11.26
301.809	115.71
302.024	11.26
302.238	-35.84
302.452	175.1
302.667	70.65
302.881	103.42
303.095	179.2
303.309	60.42
303.524	35.84
303.738	39.94
303.952	39.94
304.166	132.09
304.381	-74.75
304.595	152.57
304.809	-25.6
305.023	89.09
305.237	103.42
305.452	39.94
305.666	152.57
305.88	123.9
306.094	136.19
306.308	93.18
306.522	80.89
306.736	21.5
306.95	158.72
307.164	58.37
307.379	48.13
307.593	181.25
307.807	82.94
308.021	87.04
308.235	58.37
308.449	-54.27
308.663	-15.36
308.877	252.92
309.091	93.18
309.305	128
309.519	-68.61
309.733	134.14
309.947	-76.8
310.161	64.51
310.374	107.52
310.588	93.18
310.802	-44.03
311.016	50.18
311.23	95.23
311.444	-70.65
311.658	29.7
311.872	156.67
312.085	144.38
312.299	156.67
312.513	193.53
312.727	66.56
312.941	44.03
313.154	50.18
313.368	101.37
313.582	70.65
313.796	113.66
314.009	3.07
314.223	211.96
314.437	82.94
314.651	168.96
314.864	35.84
315.078	117.76
315.292	-72.7
315.505	74.75
315.719	111.61
315.933	140.29
316.146	-13.31
316.36	1.02
316.573	156.67
316.787	121.85
317.001	132.09
317.214	46.08
317.428	37.89
317.641	-87.04
317.855	33.79
318.068	58.37
318.282	68.61
318.495	201.72
318.709	93.18
318.922	78.85
319.136	68.61
319.349	146.43
319.563	58.37
319.776	99.33
319.99	-60.42
320.203	146.43
320.417	62.46
320.63	148.48
320.843	164.86
321.057	33.79
321.27	60.42
321.483	64.51
321.697	109.57
321.91	115.71
322.124	154.62
322.337	89.09
322.55	-54.27
322.763	23.55
322.977	25.6
323.19	-3.07
323.403	50.18
323.617	97.28
323.83	121.85
324.043	11.26
324.256	72.7
324.469	44.03
324.683	162.81
324.896	68.61
325.109	101.37
325.322	-62.46
325.535	175.1
325.748	156.67
325.962	11.26
326.175	101.37
326.388	58.37
326.601	162.81
326.814	-21.5
327.027	54.27
327.24	191.49
327.453	-35.84
327.666	54.27
327.879	84.99
328.092	60.42
328.305	130.05
328.518	56.32
328.731	-68.61
328.944	60.42
329.157	91.13
329.37	-29.7
329.583	148.48
329.796	138.24
330.009	64.51
330.222	183.29
330.435	140.29
330.648	3.07
330.861	41.98
331.073	78.85
331.286	62.46
331.499	78.85
331.712	-33.79
331.925	48.13
332.138	105.47
332.35	132.09
332.563	-13.31
332.776	211.96
332.989	29.7
333.202	91.13
333.414	58.37
333.627	39.94
333.84	21.5
334.053	89.09
334.265	29.7
334.478	-148.48
334.691	11.26
334.903	93.18
335.116	-1.02
335.329	84.99
335.541	115.71
335.754	187.39
335.966	-33.79
336.179	11.26
336.392	93.18
336.604	25.6
336.817	138.24
337.029	80.89
337.242	70.65
337.454	99.33
337.667	97.28
337.88	214.01
338.092	70.65
338.305	64.51
338.517	21.5
338.729	37.89
338.942	175.1
339.154	-7.17
339.367	-27.65
339.579	60.42
339.792	33.79
340.004	78.85
340.217	62.46
340.429	97.28
340.641	7.17
340.854	19.46
341.066	37.89
341.278	173.05
341.491	220.16
341.703	-3.07
341.915	68.61
342.128	150.53
342.34	46.08
342.552	-46.08
342.764	99.33
342.977	109.57
343.189	89.09
343.401	111.61
343.613	-64.51
343.826	23.55
344.038	1.02
344.25	84.99
344.462	9.22
344.674	64.51
344.886	109.57
345.099	109.57
345.311	152.57
345.523	54.27
345.735	-11.26
345.947	46.08
346.159	115.71
346.371	-9.22
346.583	-52.22
346.795	168.96
347.007	91.13
347.219	160.77
347.431	60.42
347.643	121.85
347.855	48.13
348.067	166.91
348.279	-33.79
348.491	80.89
348.703	142.33
348.915	68.61
349.127	-66.56
349.339	58.37
349.551	80.89
349.763	97.28
349.975	152.57
350.187	171.01
350.399	183.29
350.61	87.04
350.822	41.98
351.034	74.75
351.246	56.32
351.458	113.66
351.669	111.61
351.881	138.24
352.093	158.72
352.305	50.18
352.517	160.77
352.728	191.49
352.94	78.85
353.152	142.33
353.363	37.89
353.575	31.74
353.787	160.77
353.999	46.08
354.21	150.53
354.422	-1.02
354.633	52.22
354.845	121.85
355.057	29.7
355.268	9.22
355.48	115.71
355.692	-1.02
355.903	54.27
356.115	35.84
356.326	-5.12
356.538	220.16
356.749	93.18
356.961	183.29
357.172	-44.03
357.384	5.12
357.595	338.94
357.807	68.61
358.018	46.08
358.23	72.7
358.441	224.25
358.653	119.81
358.864	39.94
359.075	13.31
359.287	156.67
359.498	171.01
359.709	82.94
359.921	17.41
360.132	89.09
360.344	60.42
360.555	27.65
360.766	91.13
360.977	171.01
361.189	168.96
361.4	44.03
361.611	93.18
361.823	150.53
362.034	93.18
362.245	44.03
362.456	54.27
362.667	97.28
362.879	41.98
363.09	29.7
363.301	97.28
363.512	166.91
363.723	-1.02
363.935	25.6
364.146	125.95
364.357	54.27
364.568	50.18
364.779	-19.46
364.99	119.81
365.201	-1.02
365.412	93.18
365.623	-84.99
365.834	93.18
366.045	80.89
366.256	99.33
366.467	117.76
366.678	31.74
366.889	125.95
367.1	60.42
367.311	103.42
367.522	9.22
367.733	113.66
367.944	99.33
368.155	91.13
368.366	103.42
368.577	111.61
368.788	119.81
368.999	52.22
369.209	19.46
369.42	226.3
369.631	269.31
369.842	68.61
370.053	119.81
370.264	125.95
370.474	33.79
370.685	119.81
370.896	72.7
371.107	197.63
371.317	64.51
371.528	66.56
371.739	130.05
371.95	113.66
372.16	177.15
372.371	-21.5
372.582	3.07
372.792	17.41
373.003	87.04
373.214	119.81
373.424	62.46
373.635	31.74
373.846	171.01
374.056	37.89
374.267	107.52
374.477	95.23
374.688	-7.17
374.898	101.37
375.109	93.18
375.319	33.79
375.53	109.57
375.74	95.23
375.951	56.32
376.161	-7.17
376.372	179.2
376.582	35.84
376.793	195.58
377.003	72.7
377.214	87.04
377.424	74.75
377.635	70.65
377.845	62.46
378.055	115.71
378.266	35.84
378.476	29.7
378.686	64.51
378.897	134.14
379.107	117.76
379.317	166.91
379.528	46.08
379.738	109.57
379.948	66.56
380.158	164.86
380.369	64.51
380.579	119.81
380.789	31.74
380.999	166.91
381.21	93.18
381.42	273.4
381.63	41.98
381.84	97.28
382.05	41.98
382.261	175.1
382.471	166.91
382.681	7.17
382.891	152.57
383.101	-9.22
383.311	21.5
383.521	52.22
383.731	89.09
383.941	56.32
384.151	138.24
384.361	58.37
384.571	87.04
384.781	64.51
384.991	218.11
385.201	197.63
385.411	74.75
385.621	62.46
385.831	103.42
386.041	130.05
386.251	54.27
386.461	93.18
386.671	164.86
386.881	156.67
387.091	111.61
387.301	148.48
387.511	25.6
387.72	46.08
387.93	101.37
388.14	5.12
388.35	140.29
388.56	128
388.769	158.72
388.979	37.89
389.189	29.7
389.399	60.42
389.609	21.5
389.818	138.24
390.028	91.13
390.238	56.32
390.447	-48.13
390.657	35.84
390.867	-13.31
391.076	-62.46
391.286	103.42
391.496	62.46
391.705	52.22
391.915	199.68
392.125	109.57
392.334	27.65
392.544	177.15
392.753	37.89
392.963	68.61
393.172	9.22
393.382	46.08
393.591	150.53
393.801	5.12
394.01	207.87
394.22	41.98
394.429	64.51
394.639	-7.17
394.848	125.95
395.058	154.62
395.267	54.27
395.477	119.81
395.686	121.85
395.895	252.92
396.105	173.05
396.314	99.33
396.524	33.79
396.733	62.46
396.942	121.85
397.152	103.42
397.361	134.14
397.57	52.22
397.78	44.03
397.989	62.46
398.198	216.06
398.407	84.99
398.617	154.62
398.826	93.18
399.035	19.46
399.244	82.94
399.453	87.04
399.663	37.89
399.872	109.57
400.081	87.04
400.29	199.68
400.499	56.32
400.708	181.25
400.917	78.85
401.127	80.89
401.336	60.42
401.545	228.35
401.754	123.9
401.963	95.23
402.172	-17.41
402.381	-39.94
402.59	68.61
402.799	132.09
403.008	91.13
403.217	148.48
403.426	93.18
403.635	-25.6
403.844	52.22
404.053	-33.79
404.262	128
404.471	267.26
404.68	115.71
404.888	89.09
405.097	50.18
405.306	103.42
405.515	107.52
405.724	125.95
405.933	181.25
406.142	136.19
406.35	109.57
406.559	66.56
406.768	39.94
406.977	121.85
407.185	103.42
407.394	123.9
407.603	-44.03
407.812	54.27
408.02	224.25
408.229	66.56
408.438	113.66
408.646	19.46
408.855	76.8
409.064	115.71
409.272	46.08
409.481	109.57
409.69	-21.5
409.898	84.99
410.107	74.75
410.315	152.57
410.524	84.99
410.733	132.09
410.941	50.18
411.15	119.81
411.358	171.01
411.567	70.65
411.775	74.75
411.984	31.74
412.192	99.33
412.401	58.37
412.609	173.05
412.818	248.83
413.026	199.68
413.234	1.02
413.443	-17.41
413.651	23.55
413.86	37.89
414.068	160.77
414.276	177.15
414.485	72.7
414.693	162.81
414.901	220.16
415.11	70.65
415.318	48.13
415.526	46.08
415.734	173.05
415.943	142.33
416.151	181.25
416.359	39.94
416.567	123.9
416.776	84.99
416.984	91.13
417.192	222.2
417.4	17.41
417.608	130.05
417.817	-87.04
418.025	160.77
418.233	166.91
418.441	37.89
418.649	5.12
418.857	160.77
419.065	160.77
419.273	84.99
419.481	41.98
419.689	115.71
419.897	128
420.105	1.02
420.313	191.49
420.521	234.49
420.729	242.68
420.937	84.99
421.145	54.27
421.353	138.24
421.561	236.54
421.769	80.89
421.977	13.31
422.185	150.53
422.393	111.61
422.601	125.95
422.809	123.9
423.017	123.9
423.224	123.9
423.432	107.52
423.64	70.65
423.848	125.95
424.056	97.28
424.263	148.48
424.471	54.27
424.679	191.49
424.887	95.23
425.094	125.95
425.302	160.77
425.51	115.71
425.718	87.04
425.925	97.28
426.133	68.61
426.341	248.83
426.548	56.32
426.756	101.37
426.964	173.05
427.171	21.5
427.379	130.05
427.586	115.71
427.794	146.43
428.001	191.49
428.209	138.24
428.417	93.18
428.624	160.77
428.832	193.53
429.039	138.24
429.247	181.25
429.454	166.91
429.662	259.07
429.869	142.33
430.076	136.19
430.284	207.87
430.491	252.92
430.699	207.87
430.906	281.6
431.114	148.48
431.321	171.01
431.528	205.82
431.736	195.58
431.943	181.25
432.15	175.1
432.358	287.74
432.565	295.93
432.772	130.05
432.979	220.16
433.187	203.77
433.394	328.7
433.601	158.72
433.808	300.03
434.016	259.07
434.223	297.98
434.43	230.4
434.637	338.94
434.844	283.64
435.052	287.74
435.259	287.74
435.466	293.88
435.673	211.96
435.88	375.8
436.087	332.79
436.294	336.89
436.501	398.33
436.708	310.27
436.915	414.71
437.122	392.19
437.329	404.47
437.537	334.84
437.743	365.56
437.95	496.63
438.157	463.86
438.364	390.14
438.571	482.3
438.778	500.73
438.985	510.97
439.192	596.98
439.399	535.54
439.606	560.12
439.813	607.22
440.02	734.2
440.227	771.06
440.433	644.09
440.64	642.04
440.847	588.79
441.054	711.67
441.261	836.6
441.467	672.76
441.674	629.75
441.881	838.64
442.088	707.57
442.294	781.3
442.501	1014.77
442.708	934.9
442.914	875.51
443.121	949.23
443.328	984.05
443.534	1012.72
443.741	1039.34
443.948	941.04
444.154	1192.94
444.361	1262.57
444.568	1262.57
444.774	1174.51
444.981	1238
445.187	1430.51
445.394	1324.01
445.6	1334.25
445.807	1487.85
446.013	1534.95
446.22	1430.51
446.426	1645.54
446.633	1727.46
446.839	1856.48
447.046	1711.08
447.252	1907.68
447.459	1993.7
447.665	1958.88
447.871	2120.67
448.078	2292.7
448.284	2106.34
448.491	2333.66
448.697	2376.67
448.903	2606.04
449.11	2503.64
449.316	2595.8
449.522	2667.48
449.728	2892.76
449.935	2925.52
450.141	2933.72
450.347	3087.31
450.553	3068.88
450.76	3156.94
450.966	3335.12
451.172	3584.97
451.378	3677.13
451.584	3740.61
451.791	3861.45
451.997	4041.67
452.203	4246.46
452.409	4389.82
452.615	4565.95
452.821	4414.4
453.027	4285.37
453.233	4907.96
453.44	4893.62
453.646	5143.47
453.852	5346.22
454.058	5604.27
454.264	5708.71
454.47	6032.29
454.676	6237.09
454.882	6744.99
455.088	6372.25
455.294	6919.06
455.5	7187.35
455.705	7363.47
455.911	7404.43
456.117	7766.92
456.323	7885.7
456.529	8043.4
456.735	8846.2
456.941	8838.01
457.147	9290.61
457.352	9638.76
457.558	9890.67
457.764	10552.16
457.97	11021.14
458.176	11262.8
458.381	11776.84
458.587	11926.35
458.793	12626.75
458.999	12622.66
459.204	14111.53
459.41	14445.35
459.616	14607.14
459.821	15201.05
460.027	16036.62
460.233	16708.35
460.438	16466.69
460.644	17588.98
460.85	17867.5
461.055	18502.37
461.261	19485.4
461.466	18877.15
461.672	19327.71
461.878	21852.85
462.083	21422.78
462.289	21746.36
462.494	22641.32
462.7	22682.28
462.905	23315.1
463.111	25045.63
463.316	26272.37
463.522	26827.37
463.727	27546.2
463.932	28725.83
464.138	29694.52
464.343	30706.22
464.549	30800.43
464.754	33272.32
464.959	33819.13
465.165	34595.31
465.37	34300.4
465.575	34214.39
465.781	36956.62
465.986	37943.74
466.191	37188.04
466.397	38078.91
466.602	36852.17
466.807	38439.35
467.012	39915.93
467.218	40128.92
467.423	40311.19
467.628	41283.98
467.833	43420.01
468.038	42647.93
468.244	41875.84
468.449	44163.42
468.654	43127.15
468.859	43192.68
469.064	43008.37
469.269	42344.83
469.474	42267
469.679	43368.81
469.885	42404.22
470.09	43235.69
470.295	43153.77
470.5	42283.39
470.705	42623.35
470.91	41296.27
471.115	41247.11
471.32	41812.35
471.525	41357.7
471.73	40339.86
471.935	40051.1
472.139	38750.64
472.344	38652.34
472.549	38566.32
472.754	37607.87
472.959	37171.66
473.164	35586.53
473.369	35492.32
473.574	35942.88
473.778	35553.76
473.983	34925.04
474.188	34540.02
474.393	32793.1
474.598	32659.98
474.802	31857.18
475.007	31201.83
475.212	30999.08
475.417	30040.63
475.621	29751.87
475.826	29205.06
476.031	28578.38
476.235	28054.1
476.44	28027.48
476.645	27456.09
476.849	26944.1
477.054	26722.92
477.259	25973.36
477.463	26202.74
477.668	25283.2
477.872	25678.46
478.077	24470.15
478.282	23866
478.486	23704.21
478.691	23347.87
478.895	23132.83
479.1	22952.61
479.304	22964.9
479.509	21826.23
479.713	22543.02
479.918	22170.29
480.122	21564.09
480.326	21838.51
480.531	21652.15
480.735	21199.55
480.94	20992.7
481.144	21643.96
481.348	20531.91
481.553	20937.41
481.757	20021.97
481.961	20353.74
482.166	20460.23
482.37	20099.79
482.574	19722.96
482.778	19565.27
482.983	19677.91
483.187	19344.09
483.391	19284.7
483.595	19079.9
483.8	18838.24
484.004	18918.11
484.208	18748.13
484.412	18483.94
484.616	18430.69
484.821	18199.27
485.025	17486.58
485.229	17922.8
485.433	17478.39
485.637	17435.38
485.841	16810.75
486.045	16636.67
486.249	16614.15
486.453	16118.54
486.657	16343.81
486.861	16007.95
487.065	15325.97
487.269	15430.42
487.473	14932.76
487.677	15102.75
487.881	15041.31
488.085	14392.1
488.289	14238.5
488.493	13861.68
488.697	14127.91
488.901	13751.09
489.105	13228.85
489.309	12919.61
489.512	12860.22
489.716	12641.09
489.92	12387.14
490.124	12174.15
490.328	12127.05
490.531	11754.32
490.735	11561.81
490.939	11297.62
491.143	11168.6
491.346	11060.06
491.55	10910.55
491.754	10574.69
491.958	10582.88
492.161	10410.85
492.365	9988.97
492.569	10091.37
492.772	9792.36
492.976	9603.95
493.18	9626.48
493.383	9679.72
493.587	9243.51
493.79	9331.57
493.994	9042.81
494.197	9073.53
494.401	8973.18
494.605	8895.35
494.808	8944.5
495.012	8715.13
495.215	8786.81
495.419	8600.44
495.622	8629.12
495.825	8442.75
496.029	8461.18
496.232	8424.32
496.436	8252.29
496.639	8489.85
496.843	8014.73
497.046	8252.29
497.249	8481.66
497.453	8137.6
497.656	8100.74
497.859	8096.64
498.063	8217.47
498.266	8422.27
498.469	8215.43
498.673	8190.85
498.876	8153.99
499.079	8405.89
499.282	8160.13
499.485	8530.81
499.689	8397.7
499.892	8496
500.095	8706.94
500.298	8756.09
500.501	8469.37
500.705	8686.46
500.908	8739.71
501.111	8987.51
501.314	8942.46
501.517	9106.29
501.72	9159.54
501.923	9040.76
502.126	9317.23
502.329	9534.32
502.532	9552.75
502.735	9599.85
502.938	9694.06
503.141	9724.78
503.344	9886.57
503.547	9988.97
503.75	10025.83
503.953	10197.86
504.156	10505.06
504.359	10398.56
504.562	10642.27
504.765	10703.71
504.968	10947.42
505.17	11062.1
505.373	11076.44
505.576	11410.26
505.779	11481.94
505.982	11553.62
506.185	12131.14
506.387	12065.61
506.59	12452.67
506.793	12680
506.996	12546.88
507.198	13146.94
507.401	13300.53
507.604	13615.92
507.807	13673.26
508.009	14089
508.212	14328.61
508.415	14703.39
508.617	14793.5
508.82	15352.6
509.022	15192.86
509.225	15819.53
509.428	16098.06
509.63	16481.03
509.833	16646.91
510.035	17455.86
510.238	17488.63
510.44	17914.61
510.643	18467.56
510.845	18780.9
511.048	18879.2
511.25	19520.21
511.453	19778.26
511.655	20708.04
511.858	20716.23
512.06	21533.37
512.262	21592.76
512.465	21951.15
512.667	22647.46
512.87	22766.24
513.072	23632.54
513.274	24347.28
513.477	24869.51
513.679	25240.19
513.881	25416.32
514.084	26161.78
514.286	26749.54
514.488	27275.87
514.69	28338.77
514.893	28688.97
515.095	29100.61
515.297	29790.78
515.499	30130.74
515.701	31164.96
515.904	31752.73
516.106	32410.13
516.308	33004.04
516.51	34017.78
516.712	34179.57
516.914	34644.46
517.116	35721.69
517.318	36073.95
517.52	36925.9
517.722	37298.63
517.925	38027.71
518.127	39219.63
518.329	39877.02
518.531	39395.75
518.733	41140.62
518.935	41613.7
519.136	42049.92
519.338	42994.03
519.54	43524.46
519.742	44034.4
519.944	44765.52
520.146	45719.88
520.348	45885.76
520.55	46561.59
520.752	46768.44
520.954	48185.63
521.155	47913.25
521.357	48742.68
521.559	49414.41
521.761	50104.58
521.963	49836.3
522.164	51110.13
522.366	51085.56
522.568	51609.84
522.77	51921.13
522.971	52758.75
523.173	52142.31
523.375	52793.56
523.576	53102.81
523.778	53403.86
523.98	54048.97
524.181	54079.69
524.383	54177.99
524.584	54941.88
524.786	54708.41
524.988	54366.4
525.189	54499.52
525.391	55425.2
525.592	55226.55
525.794	55240.89
525.995	55453.87
526.197	54982.84
526.398	54917.31
526.6	55107.77
526.801	54565.06
527.003	54632.64
527.204	54644.93
527.406	54517.95
527.607	54298.82
527.808	53962.95
528.01	52699.36
528.211	53508.3
528.412	53938.38
528.614	52691.16
528.815	53137.62
529.016	52922.58
529.218	51695.85
529.419	51740.91
529.62	50733.31
529.822	50415.87
530.023	50227.46
530.224	49916.17
530.425	49373.45
530.626	48464.16
530.828	48015.65
531.029	48111.91
531.23	47132.98
531.431	46633.27
531.632	46522.68
531.833	46289.21
532.035	45365.58
532.236	44775.76
532.437	44507.48
532.638	43559.27
532.839	43569.51
533.04	43198.83
533.241	41896.32
533.442	42312.06
533.643	41267.59
533.844	40546.71
534.045	40632.72
534.246	39530.92
534.447	39508.39
534.648	38994.35
534.849	38275.51
535.05	37476.8
535.251	37468.61
535.451	36827.6
535.652	36069.85
535.853	35688.93
536.054	35074.54
536.255	34912.75
536.456	33726.97
536.657	33980.92
536.857	33640.96
537.058	32924.17
537.259	32817.68
537.46	32330.26
537.66	31853.08
537.861	31453.73
538.062	31033.89
538.263	30423.6
538.463	30028.34
538.664	29913.66
538.865	29532.73
539.065	29260.35
539.266	28660.3
539.466	28322.38
539.667	27619.93
539.868	27894.36
540.068	27202.14
540.269	27200.1
540.469	26833.51
540.67	26569.32
540.87	26061.43
541.071	25516.67
541.271	25383.55
541.472	25068.16
541.672	24879.75
541.873	24588.94
542.073	24070.8
542.274	24150.67
542.474	23906.96
542.675	23147.17
542.875	23427.74
543.075	23259.81
543.276	22487.72
543.476	22557.35
543.676	22309.55
543.877	22135.47
544.077	21858.99
544.277	21650.1
544.478	21193.4
544.678	21170.88
544.878	21379.77
545.078	20671.17
545.279	20486.86
545.479	19960.53
545.679	19897.04
545.879	19587.8
546.079	19589.85
546.28	19034.85
546.48	18610.92
546.68	18979.55
546.88	18467.56
547.08	18481.89
547.28	17994.48
547.48	17617.65
547.68	17840.88
547.88	17414.9
548.081	17367.8
548.281	17052.41
548.481	17001.21
548.681	16417.54
548.881	16259.85
549.081	16272.14
549.28	16089.87
549.48	15977.23
549.68	15686.42
549.88	15549.2
550.08	15231.77
550.28	15110.94
550.48	14900
550.68	14514.98
550.88	14457.64
551.08	14052.14
551.279	14187.3
551.479	13634.35
551.679	13650.74
551.879	13368.12
552.079	13089.59
552.278	12845.88
552.478	12841.79
552.678	12557.12
552.878	12553.02
553.077	12227.4
553.277	11920.2
553.477	11998.02
553.676	11758.41
553.876	11617.1
554.076	11477.84
554.275	11172.69
554.475	10998.62
554.674	10668.89
554.874	10654.56
555.074	10451.81
555.273	10406.75
555.473	10230.63
555.672	10013.54
555.872	9743.21
556.071	9601.9
556.271	9655.15
556.47	9317.23
556.67	9323.38
556.869	9098.1
557.068	8848.25
557.268	8840.06
557.467	8672.12
557.667	8655.74
557.866	8346.5
558.065	8309.63
558.265	8205.19
558.464	7752.59
558.663	8100.74
558.863	7642
559.062	7744.39
559.261	7349.14
559.461	7420.81
559.66	7072.66
559.859	6937.49
560.058	6972.31
560.258	6931.35
560.457	6941.59
560.656	6880.15
560.855	6525.85
561.054	6583.2
561.253	6376.35
561.453	6171.55
561.652	6202.27
561.851	6140.83
562.05	6007.72
562.249	5772.2
562.448	5831.59
562.647	5721
562.846	5751.72
563.045	5700.52
563.244	5561.26
563.443	5446.57
563.642	5497.77
563.841	5325.74
564.04	5204.91
564.239	5170.1
564.438	4905.91
564.637	4819.89
564.836	4838.33
565.035	4737.98
565.234	4639.67
565.432	4592.57
565.631	4555.71
565.83	4688.82
566.029	4520.89
566.228	4332.48
566.427	4406.2
566.625	4207.55
566.824	4103.11
567.023	4209.6
567.222	3953.6
567.42	4035.52
567.619	4131.78
567.818	4115.39
568.016	3998.66
568.215	3750.85
568.414	3763.14
568.612	3754.95
568.811	3668.94
569.01	3662.79
569.208	3435.47
569.407	3636.17
569.605	3451.85
569.804	3449.8
570.002	3386.32
570.201	3328.97
570.4	3412.94
570.598	3281.87
570.797	3232.72
570.995	3040.21
571.193	3019.73
571.392	3218.38
571.59	2894.8
571.789	3136.46
571.987	3001.3
572.186	2943.96
572.384	2739.16
572.582	2780.12
572.781	2878.42
572.979	2558.94
573.177	2665.43
573.376	2651.1
573.574	2511.83
573.772	2563.03
573.971	2364.38
574.169	2380.76
574.367	2485.21
574.565	2382.81
574.763	2313.18
574.962	2309.08
575.16	2362.33
575.358	2227.17
575.556	2239.45
575.754	2239.45
575.952	2132.96
576.151	2175.97
576.349	2304.99
576.547	1924.07
576.745	1944.55
576.943	1997.79
577.141	1946.59
577.339	1887.2
577.537	1907.68
577.735	1895.4
577.933	1805.28
578.131	1788.9
578.329	1823.72
578.527	1694.69
578.725	1854.44
578.923	1661.93
579.121	1842.15
579.319	1504.23
579.516	1661.93
579.714	1915.87
579.912	1651.69
580.11	1448.94
580.308	1553.38
580.506	1420.27
580.704	1410.03
580.901	1487.85
581.099	1555.43
581.297	1420.27
581.495	1303.53
581.692	1356.78
581.89	1432.55
582.088	1295.34
582.285	1319.92
582.483	1242.09
582.681	1211.37
582.878	1340.4
583.076	1289.2
583.274	1278.96
583.471	1387.5
583.669	1186.8
583.866	1115.12
584.064	1047.54
584.262	1137.65
584.459	1061.87
584.657	1119.21
584.854	1180.65
585.052	1131.5
585.249	1151.98
585.447	1035.25
585.644	932.85
585.841	1020.91
586.039	1053.68
586.236	1010.67
586.434	986.1
586.631	824.31
586.828	920.56
587.026	873.46
587.223	812.02
587.42	809.97
587.618	996.34
587.815	1018.86
588.012	916.47
588.21	906.23
588.407	914.42
588.604	918.51
588.801	893.94
588.999	799.73
589.196	936.95
589.393	814.07
589.59	840.69
589.787	922.61
589.984	852.98
590.182	822.26
590.379	777.2
590.576	701.43
590.773	723.96
590.97	721.91
591.167	824.31
591.364	785.4
591.561	693.24
591.758	824.31
591.955	867.31
592.152	789.49
592.349	646.13
592.546	826.36
592.743	611.32
592.94	695.29
593.137	809.97
593.334	707.57
593.531	764.92
593.727	861.17
593.924	775.16
594.121	705.53
594.318	795.64
594.515	840.69
594.712	900.08
594.908	818.16
595.105	627.7
595.302	928.75
595.499	857.07
595.696	1020.91
595.892	732.15
596.089	992.24
596.286	850.93
596.482	1033.2
596.679	865.27
596.876	873.46
597.072	1025.01
597.269	971.76
597.466	1000.43
597.662	955.38
597.859	1059.82
598.055	1041.39
598.252	1104.88
598.448	1129.45
598.645	1309.68
598.841	1188.85
599.038	1434.6
599.234	1360.88
599.431	1270.76
599.627	1371.12
599.824	1336.3
600.02	1461.23
600.217	1520.62
600.413	1698.79
600.609	1590.25
600.806	1971.17
601.002	1852.39
601.198	1778.66
601.395	2030.56
601.591	1911.78
601.787	2046.94
601.984	2130.91
602.18	2212.83
602.376	2190.3
602.572	2507.74
602.769	2532.31
602.965	2470.87
603.161	2560.98
603.357	2923.48
603.553	2862.04
603.75	2819.03
603.946	3021.78
604.142	3095.5
604.338	3410.89
604.534	3199.95
604.73	3421.13
604.926	3431.37
605.122	3711.94
605.318	3800.01
605.514	3808.2
605.71	3840.97
605.906	4271.04
606.102	4240.32
606.298	4348.86
606.494	4459.45
606.69	4596.67
606.886	4854.71
607.082	4846.52
607.278	4946.87
607.474	5149.62
607.67	5348.27
607.866	5313.45
608.062	5669.8
608.257	5983.14
608.453	5962.66
608.649	6226.85
608.845	6134.69
609.041	6411.17
609.236	6597.53
609.432	6744.99
609.628	6902.68
609.824	7334.8
610.019	7394.19
610.215	7347.09
610.411	7795.59
610.606	8115.08
610.802	8037.25
610.998	8285.06
611.193	8614.78
611.389	8508.29
611.584	8930.17
611.78	9100.15
611.976	9251.7
612.171	9927.53
612.367	10029.93
612.562	10232.68
612.758	10367.84
612.953	10503.01
613.149	11103.06
613.344	11150.17
613.539	11619.15
613.735	12063.56
613.93	12178.25
614.126	12444.48
614.321	12710.72
614.517	13210.42
614.712	13333.3
614.907	13931.31
615.103	14220.07
615.298	14476.07
615.493	14584.61
615.688	15074.07
615.884	15801.1
616.079	15923.98
616.274	16327.43
616.47	16579.33
616.665	17165.05
616.86	17695.47
617.055	18217.71
617.25	18318.06
617.445	18877.15
617.641	19043.04
617.836	19720.92
618.031	20036.3
618.226	20925.12
618.421	20996.8
618.616	21828.27
618.811	21840.56
619.006	22848.16
619.201	23022.24
619.396	23816.85
619.591	24126.1
619.786	25076.35
619.981	25270.91
620.176	25844.34
620.371	26090.1
620.566	26845.8
620.761	27695.71
620.956	27929.17
621.151	28295.76
621.346	29145.67
621.541	29295.17
621.735	30097.97
621.93	30458.42
622.125	31115.81
622.32	31310.37
622.515	32160.28
622.709	32641.55
622.904	33556.99
623.099	34009.59
623.294	34386.42
623.488	34980.33
623.683	35910.11
623.878	35932.64
624.072	36944.33
624.267	37366.21
624.462	38021.56
624.656	38336.95
624.851	39412.13
625.046	39526.82
625.24	40219.03
625.435	40724.88
625.629	41177.48
625.824	41738.63
626.018	42389.88
626.213	41984.38
626.407	43073.9
626.602	43002.22
626.796	44018.02
626.991	44534.1
627.185	44882.26
627.38	44794.2
627.574	45373.77
627.768	45427.02
627.963	45283.66
628.157	45836.61
628.352	45990.21
628.546	45758.79
628.74	46090.56
628.935	45855.04
629.129	46313.79
629.323	45588.81
629.517	45740.36
629.712	45527.37
629.906	45015.38
630.1	44503.38
630.294	44290.4
630.489	43614.57
630.683	43860.32
630.877	42393.98
631.071	42101.12
631.265	41709.96
631.459	40894.86
631.653	39868.83
631.848	39039.4
632.042	37859.77
632.236	37704.13
632.43	36057.56
632.624	35250.66
632.818	34521.59
633.012	33120.77
633.206	32287.25
633.4	31330.85
633.594	30024.25
633.788	29178.43
633.982	28398.16
634.176	27292.26
634.369	26325.61
634.563	25858.68
634.757	24371.85
634.951	23456.41
635.145	22532.78
635.339	21981.87
635.533	20859.59
635.726	20161.23
635.92	19043.04
636.114	18223.85
636.308	17615.6
636.501	17083.13
636.695	16456.45
636.889	15743.76
637.083	15176.47
637.276	14385.96
637.47	13773.61
637.664	13130.55
637.857	12723.01
638.051	12184.39
638.244	11830.09
638.438	11303.76
638.632	10849.11
638.825	10455.9
639.019	10175.33
639.212	9489.26
639.406	9335.67
639.599	8833.91
639.793	8608.64
639.986	8272.77
640.18	7807.88
640.373	7437.2
640.567	7308.18
640.76	6855.58
640.954	6833.05
641.147	6394.78
641.34	6230.94
641.534	6165.41
641.727	5825.45
641.92	5661.61
642.114	5356.46
642.307	5202.86
642.5	4920.24
642.694	4694.97
642.887	4510.65
643.08	4518.84
643.273	4193.22
643.467	4209.6
643.66	3800.01
643.853	3744.71
644.046	3605.45
644.239	3449.8
644.432	3294.16
644.626	3240.91
644.819	3169.23
645.012	3007.44
645.205	2921.43
645.398	2802.65
645.591	2739.16
645.784	2579.42
645.977	2374.62
646.17	2370.52
646.363	2259.93
646.556	2270.17
646.749	2044.9
646.942	1993.7
647.135	1999.84
647.328	1962.98
647.521	1901.54
647.714	1704.93
647.907	1690.6
648.099	1627.11
648.292	1690.6
648.485	1549.29
648.678	1410.03
648.871	1387.5
649.064	1258.48
649.256	1164.27
649.449	1201.13
649.642	1180.65
649.835	1141.74
650.027	1029.1
650.22	1166.32
650.413	1053.68
650.605	1088.5
650.798	943.09
650.991	967.67
651.183	951.28
651.376	895.99
651.568	961.52
651.761	779.25
651.954	877.55
652.146	771.06
652.339	789.49
652.531	895.99
652.724	726
652.916	734.2
653.109	553.98
653.301	723.96
653.494	676.85
653.686	596.98
653.879	629.75
654.071	560.12
654.263	500.73
654.456	388.09
654.648	670.71
654.84	562.17
655.033	453.63
655.225	617.46
655.417	349.18
655.61	517.11
655.802	539.64
655.994	590.84
656.186	418.81
656.379	406.52
656.571	418.81
656.763	398.33
656.955	375.8
657.148	289.79
657.34	527.35
657.532	363.51
657.724	402.43
657.916	383.99
658.108	414.71
658.3	365.56
658.492	357.37
658.684	369.66
658.876	445.43
659.068	238.59
659.26	269.31
659.452	340.99
659.644	353.27
659.836	386.04
660.028	330.75
660.22	295.93
660.412	275.45
660.604	234.49
660.796	295.93
660.988	410.62
661.18	197.63
661.372	355.32
661.563	189.44
661.755	304.12
661.947	197.63
662.139	209.92
662.331	259.07
662.522	254.97
662.714	132.09
662.906	166.91
663.097	242.68
663.289	230.4
663.481	105.47
663.673	177.15
663.864	207.87
664.056	222.2
664.247	128
664.439	332.79
664.631	226.3
664.822	211.96
665.014	171.01
665.205	138.24
665.397	146.43
665.588	230.4
665.78	218.11
665.971	193.53
666.163	115.71
666.354	218.11
666.546	152.57
666.737	162.81
666.929	156.67
667.12	156.67
667.311	193.53
667.503	166.91
667.694	242.68
667.885	281.6
668.077	242.68
668.268	68.61
668.459	220.16
668.651	103.42
668.842	185.34
669.033	60.42
669.224	93.18
669.416	324.6
669.607	181.25
669.798	54.27
669.989	281.6
670.18	64.51
670.371	181.25
670.563	74.75
670.754	179.2
670.945	195.58
671.136	224.25
671.327	121.85
671.518	140.29
671.709	304.12
671.9	154.62
672.091	232.44
672.282	168.96
672.473	193.53
672.664	-9.22
672.855	177.15
673.046	191.49
673.237	254.97
673.428	214.01
673.619	224.25
673.809	164.86
674	254.97
674.191	164.86
674.382	125.95
674.573	132.09
674.764	111.61
674.954	222.2
675.145	197.63
675.336	62.46
675.527	134.14
675.717	109.57
675.908	109.57
676.099	128
676.289	123.9
676.48	74.75
676.671	150.53
676.861	175.1
677.052	240.64
677.243	117.76
677.433	123.9
677.624	257.02
677.814	273.4
678.005	109.57
678.195	250.88
678.386	80.89
678.576	138.24
678.767	140.29
678.957	203.77
679.148	230.4
679.338	316.41
679.529	238.59
679.719	150.53
679.909	183.29
680.1	195.58
680.29	218.11
680.481	144.38
680.671	191.49
680.861	238.59
681.052	201.72
681.242	123.9
681.432	269.31
681.622	175.1
681.813	130.05
682.003	171.01
682.193	154.62
682.383	121.85
682.573	195.58
682.764	168.96
682.954	275.45
683.144	263.16
683.334	166.91
683.524	146.43
683.714	250.88
683.904	257.02
684.094	191.49
684.284	232.44
684.474	308.22
684.664	228.35
684.854	246.78
685.044	125.95
685.234	259.07
685.424	261.12
685.614	164.86
685.804	308.22
685.994	259.07
686.184	199.68
686.374	246.78
686.564	218.11
686.753	306.17
686.943	132.09
687.133	156.67
687.323	240.64
687.513	162.81
687.702	234.49
687.892	175.1
688.082	295.93
688.272	291.84
688.461	289.79
688.651	289.79
688.841	275.45
689.03	111.61
689.22	291.84
689.41	177.15
689.599	209.92
689.789	295.93
689.979	408.57
690.168	216.06
690.358	271.36
690.547	287.74
690.737	181.25
690.926	175.1
691.116	226.3
691.305	310.27
691.495	310.27
691.684	195.58
691.874	187.39
692.063	236.54
692.252	332.79
692.442	267.26
692.631	166.91
692.82	136.19
693.01	265.21
693.199	115.71
693.388	259.07
693.578	269.31
693.767	312.32
693.956	312.32
694.146	195.58
694.335	152.57
694.524	195.58
694.713	244.73
694.902	211.96
695.092	154.62
695.281	193.53
695.47	222.2
695.659	195.58
695.848	207.87
696.037	179.2
696.226	242.68
696.415	173.05
696.604	216.06
696.793	269.31
696.982	201.72
697.171	263.16
697.36	164.86
697.549	254.97
697.738	105.47
697.927	234.49
698.116	95.23
698.305	207.87
698.494	211.96
698.683	216.06
698.872	265.21
699.061	224.25
699.25	156.67
699.438	222.2
699.627	209.92
699.816	293.88
700.005	154.62
700.193	121.85
700.382	230.4
700.571	207.87
700.76	234.49
700.948	295.93
701.137	224.25
701.326	279.55
701.514	214.01
701.703	138.24
701.892	277.5
702.08	297.98
702.269	166.91
702.457	207.87
702.646	236.54
702.834	201.72
703.023	236.54
703.212	277.5
703.4	150.53
703.589	97.28
703.777	177.15
703.965	175.1
704.154	158.72
704.342	101.37
704.531	175.1
704.719	175.1
704.907	312.32
705.096	84.99
705.284	132.09
705.472	142.33
705.661	232.44
705.849	330.75
706.037	248.83
706.226	216.06
706.414	254.97
706.602	142.33
706.79	220.16
706.979	107.52
707.167	230.4
707.355	162.81
707.543	228.35
707.731	216.06
707.919	72.7
708.107	148.48
708.296	158.72
708.484	152.57
708.672	300.03
708.86	252.92
709.048	232.44
709.236	195.58
709.424	203.77
709.612	300.03
709.8	76.8
709.988	248.83
710.176	187.39
710.364	332.79
710.551	140.29
710.739	230.4
710.927	130.05
711.115	154.62
711.303	197.63
711.491	248.83
711.679	113.66
711.866	261.12
712.054	203.77
712.242	191.49
712.43	318.46
712.617	209.92
712.805	259.07
712.993	187.39
713.181	107.52
713.368	261.12
713.556	138.24
713.744	134.14
713.931	308.22
714.119	242.68
714.306	203.77
714.494	152.57
714.682	242.68
714.869	109.57
715.057	164.86
715.244	109.57
715.432	295.93
715.619	179.2
715.807	222.2
715.994	175.1
716.182	175.1
716.369	244.73
716.556	273.4
716.744	89.09
716.931	156.67
717.119	271.36
717.306	224.25
717.493	197.63
717.681	130.05
717.868	121.85
718.055	250.88
718.242	123.9
718.43	244.73
718.617	267.26
718.804	150.53
718.991	166.91
719.179	261.12
719.366	269.31
719.553	224.25
719.74	171.01
719.927	226.3
720.114	271.36
720.301	222.2
720.488	113.66
720.676	158.72
720.863	269.31
721.05	302.08
721.237	216.06
721.424	226.3
721.611	209.92
721.798	152.57
721.985	168.96
722.172	209.92
722.358	224.25
722.545	304.12
722.732	271.36
722.919	343.03
723.106	285.69
723.293	189.44
723.48	187.39
723.667	232.44
723.853	373.75
724.04	269.31
724.227	343.03
724.414	138.24
724.6	228.35
724.787	345.08
724.974	345.08
725.161	166.91
725.347	203.77
725.534	320.51
725.72	273.4
725.907	375.8
726.094	293.88
726.28	162.81
726.467	150.53
726.653	195.58
726.84	281.6
727.027	250.88
727.213	236.54
727.4	324.6
727.586	246.78
727.773	209.92
727.959	248.83
728.145	300.03
728.332	248.83
728.518	236.54
728.705	259.07
728.891	263.16
729.077	216.06
729.264	164.86
729.45	242.68
729.636	383.99
729.823	195.58
730.009	259.07
730.195	265.21
730.382	328.7
730.568	187.39
730.754	244.73
730.94	240.64
731.126	183.29
731.313	224.25
731.499	302.08
731.685	326.65
731.871	269.31
732.057	271.36
732.243	257.02
732.429	222.2
732.615	277.5
732.801	295.93
732.987	236.54
733.173	263.16
733.359	222.2
733.545	304.12
733.731	240.64
733.917	365.56
734.103	279.55
734.289	269.31
734.475	238.59
734.661	398.33
734.847	214.01
735.033	269.31
735.219	340.99
735.404	283.64
735.59	148.48
735.776	150.53
735.962	257.02
736.148	304.12
736.333	269.31
736.519	281.6
736.705	259.07
736.89	205.82
737.076	263.16
737.262	171.01
737.447	222.2
737.633	222.2
737.819	340.99
738.004	273.4
738.19	254.97
738.375	244.73
738.561	330.75
738.747	191.49
738.932	123.9
739.118	455.67
739.303	359.42
739.489	214.01
739.674	162.81
739.859	158.72
740.045	261.12
740.23	281.6
740.416	148.48
740.601	289.79
740.786	222.2
740.972	293.88
741.157	66.56
741.342	144.38
741.528	195.58
741.713	388.09
741.898	289.79
742.084	214.01
742.269	203.77
742.454	279.55
742.639	257.02
742.824	244.73
743.01	365.56
743.195	416.76
743.38	326.65
743.565	193.53
743.75	197.63
743.935	373.75
744.12	324.6
744.305	203.77
744.49	185.34
744.675	316.41
744.86	216.06
745.045	271.36
745.23	195.58
745.415	168.96
745.6	351.23
745.785	216.06
745.97	234.49
746.155	371.71
746.34	267.26
746.525	273.4
746.71	306.17
746.895	189.44
747.079	195.58
747.264	203.77
747.449	293.88
747.634	308.22
747.819	228.35
748.003	99.33
748.188	140.29
748.373	207.87
748.557	322.56
748.742	203.77
748.927	214.01
749.111	199.68
749.296	162.81
749.481	277.5
749.665	285.69
749.85	150.53
750.034	222.2
750.219	230.4
750.404	254.97
750.588	250.88
750.773	136.19
750.957	224.25
751.141	224.25
751.326	248.83
751.51	168.96
751.695	160.77
751.879	125.95
752.064	334.84
752.248	171.01
752.432	312.32
752.617	218.11
752.801	250.88
752.985	150.53
753.17	240.64
753.354	261.12
753.538	203.77
753.722	115.71
753.907	117.76
754.091	89.09
754.275	226.3
754.459	44.03
754.643	123.9
754.828	234.49
755.012	148.48
755.196	191.49
755.38	187.39
755.564	117.76
755.748	162.81
755.932	267.26
756.116	257.02
756.3	222.2
756.484	154.62
756.668	142.33
756.852	132.09
757.036	173.05
757.22	140.29
757.404	125.95
757.588	187.39
757.772	216.06
757.956	218.11
758.14	285.69
758.323	17.41
758.507	267.26
758.691	62.46
758.875	146.43
759.059	218.11
759.242	125.95
759.426	93.18
759.61	209.92
759.794	54.27
759.977	168.96
760.161	336.89
760.345	254.97
760.528	234.49
760.712	140.29
760.895	144.38
761.079	138.24
761.263	115.71
761.446	121.85
761.63	140.29
761.813	177.15
761.997	19.46
762.18	103.42
762.364	160.77
762.547	56.32
762.731	115.71
762.914	144.38
763.098	130.05
763.281	101.37
763.464	152.57
763.648	150.53
763.831	156.67
764.015	101.37
764.198	171.01
764.381	72.7
764.564	168.96
764.748	121.85
764.931	87.04
765.114	64.51
765.297	150.53
765.481	109.57
765.664	117.76
765.847	54.27
766.03	203.77
766.213	103.42
766.397	132.09
766.58	58.37
766.763	150.53
766.946	134.14
767.129	7.17
767.312	-5.12
767.495	132.09
767.678	93.18
767.861	78.85
768.044	3.07
768.227	158.72
768.41	89.09
768.593	109.57
768.776	146.43
768.959	154.62
769.142	158.72
769.324	70.65
769.507	84.99
769.69	44.03
769.873	119.81
770.056	267.26
770.239	95.23
770.421	168.96
770.604	117.76
770.787	52.22
770.97	121.85
771.152	-60.42
771.335	87.04
771.518	-9.22
771.7	191.49
771.883	291.84
772.066	58.37
772.248	50.18
772.431	191.49
772.613	152.57
772.796	93.18
772.978	171.01
773.161	146.43
773.343	35.84
773.526	23.55
773.708	-21.5
773.891	-52.22
774.073	142.33
774.256	13.31
774.438	205.82
774.621	60.42
774.803	72.7
774.985	78.85
775.168	183.29
775.35	-1.02
775.532	183.29
775.715	91.13
775.897	117.76
776.079	37.89
776.261	138.24
776.444	101.37
776.626	117.76
776.808	50.18
776.99	1.02
777.173	84.99
777.355	121.85
777.537	15.36
777.719	84.99
777.901	72.7
778.083	121.85
778.265	39.94
778.447	158.72
778.629	-19.46
778.811	46.08
778.993	144.38
779.175	97.28
779.357	46.08
779.539	-5.12
779.721	93.18
779.903	56.32
780.085	-62.46
780.267	50.18
780.449	95.23
780.631	166.91
780.812	175.1
780.994	162.81
781.176	44.03
781.358	93.18
781.54	44.03
781.721	82.94
781.903	121.85
782.085	54.27
782.267	197.63
782.448	21.5
782.63	33.79
782.812	128
782.993	101.37
783.175	173.05
783.357	25.6
783.538	50.18
783.72	-3.07
783.901	48.13
784.083	199.68
784.264	23.55
784.446	13.31
784.627	66.56
784.809	121.85
784.99	52.22
785.172	3.07
785.353	41.98
785.535	105.47
785.716	46.08
785.897	27.65
786.079	152.57
786.26	64.51
786.441	111.61
786.623	46.08
786.804	17.41
786.985	35.84
787.167	37.89
787.348	27.65
787.529	91.13
787.71	177.15
787.891	58.37
788.073	-21.5
788.254	-60.42
788.435	175.1
788.616	76.8
788.797	-50.18
788.978	-15.36
789.159	5.12
789.34	15.36
789.522	39.94
789.703	19.46
789.884	87.04
790.065	84.99
790.246	121.85
790.427	-5.12
790.607	168.96
790.788	140.29
790.969	-13.31
791.15	103.42
791.331	-17.41
791.512	33.79
791.693	15.36
791.874	15.36
792.054	193.53
792.235	125.95
792.416	23.55
792.597	11.26
792.778	115.71
792.958	142.33
793.139	89.09
793.32	54.27
793.5	-72.7
793.681	152.57
793.862	58.37
794.042	121.85
794.223	-76.8
794.404	64.51
794.584	-95.23
794.765	107.52
794.945	11.26
795.126	91.13
795.306	121.85
795.487	97.28
795.667	68.61
795.848	25.6
796.028	35.84
796.209	37.89
796.389	89.09
796.57	23.55
796.75	-35.84
796.93	37.89
797.111	-11.26
797.291	21.5
797.471	138.24
797.652	39.94
797.832	-31.74
798.012	148.48
798.192	-7.17
798.373	-76.8
798.553	58.37
798.733	109.57
798.913	3.07
799.093	25.6
799.274	3.07
799.454	60.42
799.634	91.13
799.814	70.65
799.994	107.52
800.174	82.94
800.354	17.41
800.534	-21.5
800.714	19.46
800.894	-62.46
801.074	-17.41
801.254	-56.32
801.434	35.84
801.614	60.42
801.794	-60.42
801.974	1799.14
802.154	52.22
802.334	144.38
802.514	-21.5
802.693	27.65
802.873	54.27
803.053	189.44
803.233	23.55
803.413	11.26
803.592	35.84
803.772	-37.89
803.952	33.79
804.131	-35.84
804.311	183.29
804.491	140.29
804.67	-89.09
804.85	-3.07
805.03	76.8
805.209	25.6
805.389	-27.65
805.568	72.7
805.748	52.22
805.928	19.46
806.107	80.89
806.287	105.47
806.466	-11.26
806.646	-13.31
806.825	119.81
807.004	48.13
807.184	101.37
807.363	103.42
807.543	56.32
807.722	-35.84
807.901	136.19
808.081	52.22
808.26	-91.13
808.439	87.04
808.619	44.03
808.798	82.94
808.977	13.31
809.156	136.19
809.336	82.94
809.515	11.26
809.694	-48.13
809.873	5.12
810.052	31.74
810.231	144.38
810.411	103.42
810.59	105.47
810.769	46.08
810.948	72.7
811.127	-138.24
811.306	41.98
811.485	-64.51
811.664	175.1
811.843	68.61
812.022	11.26
812.201	-25.6
812.38	27.65
812.559	-25.6
812.737	99.33
812.916	27.65
813.095	-52.22
813.274	128
813.453	33.79
813.632	48.13
813.811	89.09
813.989	-76.8
814.168	62.46
814.347	-17.41
814.526	-1.02
814.704	125.95
814.883	160.77
815.062	17.41
815.24	115.71
815.419	-78.85
815.598	21.5
815.776	-105.47
815.955	-15.36
816.133	-58.37
816.312	29.7
816.49	-19.46
816.669	-3.07
816.847	72.7
817.026	33.79
817.204	35.84
817.383	87.04
817.561	-58.37
817.74	136.19
817.918	95.23
818.097	-58.37
818.275	-15.36
818.453	50.18
818.632	101.37
818.81	50.18
818.988	17.41
819.167	5.12
819.345	87.04
819.523	-52.22
819.701	66.56
819.879	72.7
820.058	-17.41
820.236	-5.12
820.414	-9.22
820.592	52.22
820.77	-11.26
820.948	-62.46
821.127	-3.07
821.305	5.12
821.483	-31.74
821.661	23.55
821.839	-11.26
822.017	-82.94
822.195	29.7
822.373	11.26
822.551	13.31
822.729	91.13
822.907	39.94
823.085	27.65
823.262	60.42
823.44	11.26
823.618	35.84
823.796	37.89
823.974	11.26
824.152	-60.42
824.329	-41.98
824.507	-17.41
824.685	68.61
824.863	27.65
825.04	-1.02
825.218	56.32
825.396	33.79
825.574	41.98
825.751	41.98
825.929	160.77
826.107	-7.17
826.284	-19.46
826.462	84.99
826.639	-25.6
826.817	-148.48
826.994	78.85
827.172	-72.7
827.349	144.38
827.527	25.6
827.704	37.89
827.882	54.27
828.059	-7.17
828.237	-23.55
828.414	136.19
828.591	-103.42
828.769	11.26
828.946	-41.98
829.124	84.99
829.301	39.94
829.478	-7.17
829.655	33.79
829.833	64.51
830.01	-25.6
830.187	9.22
830.364	3.07
830.542	50.18
830.719	175.1
830.896	125.95
831.073	74.75
831.25	121.85
831.427	52.22
831.604	-11.26
831.782	29.7
831.959	60.42
832.136	13.31
832.313	66.56
832.49	5.12
832.667	3.07
832.844	19.46
833.021	187.39
833.198	-25.6
833.374	3.07
833.551	-29.7
833.728	-68.61
833.905	58.37
834.082	-66.56
834.259	54.27
834.436	171.01
834.612	-7.17
834.789	33.79
834.966	21.5
835.143	25.6
835.319	-60.42
835.496	64.51
835.673	74.75
835.85	99.33
836.026	56.32
836.203	48.13
836.38	-39.94
836.556	39.94
836.733	74.75
836.909	121.85
837.086	66.56
837.262	-46.08
837.439	56.32
837.616	17.41
837.792	35.84
837.968	58.37
838.145	-52.22
838.321	19.46
838.498	41.98
838.674	-27.65
838.851	25.6
839.027	-37.89
839.203	-48.13
839.38	60.42
839.556	107.52
839.732	80.89
839.909	66.56
840.085	21.5
840.261	-37.89
840.437	48.13
840.614	-78.85
840.79	50.18
840.966	128
841.142	68.61
841.318	50.18
841.494	72.7
841.671	84.99
841.847	-44.03
842.023	-50.18
842.199	109.57
842.375	142.33
842.551	-168.96
842.727	3.07
842.903	144.38
843.079	-82.94
843.255	128
843.431	-13.31
843.607	95.23
843.783	-111.61
843.959	-15.36
844.134	-13.31
844.31	95.23
844.486	-13.31
844.662	-29.7
844.838	-5.12
845.013	58.37
845.189	78.85
845.365	56.32
845.541	-29.7
845.716	66.56
845.892	80.89
846.068	48.13
846.244	41.98
846.419	89.09
846.595	62.46
846.77	-39.94
846.946	58.37
847.122	87.04
847.297	-21.5
847.473	89.09
847.648	-72.7
847.824	54.27
847.999	-177.15
848.175	46.08
848.35	60.42
848.526	37.89
848.701	111.61
848.876	181.25
849.052	158.72
849.227	-39.94
849.403	-7.17
849.578	-56.32
849.753	105.47
849.929	80.89
850.104	-11.26
850.279	-17.41
850.454	-29.7
850.63	58.37
850.805	52.22
850.98	72.7
851.155	3.07
851.33	105.47
851.505	-54.27
851.681	111.61
851.856	23.55
852.031	89.09
852.206	82.94
852.381	-109.57
852.556	52.22
852.731	27.65
852.906	134.14
853.081	37.89
853.256	99.33
853.431	-41.98
853.606	-5.12
853.781	25.6
853.956	-97.28
854.131	68.61
854.305	-46.08
854.48	-15.36
854.655	-3.07
854.83	-11.26
855.005	76.8
855.18	93.18
855.354	25.6
855.529	97.28
855.704	62.46
855.879	27.65
856.053	-5.12
856.228	97.28
856.403	-44.03
856.577	56.32
856.752	-62.46
856.926	-13.31
857.101	-15.36
857.276	-31.74
857.45	-21.5
857.625	136.19
857.799	-17.41
857.974	58.37
858.148	-80.89
858.323	52.22
858.497	60.42
858.672	-23.55
858.846	-41.98
859.02	70.65
859.195	-44.03
859.369	13.31
859.543	78.85
859.718	52.22
859.892	44.03
860.066	33.79
860.241	-1.02
860.415	-76.8
860.589	7.17
860.763	19.46
860.938	-17.41
861.112	39.94
861.286	41.98
861.46	76.8
861.634	7.17
861.808	35.84
861.982	-17.41
862.157	-97.28
862.331	41.98
862.505	-29.7
862.679	-33.79
862.853	7.17
863.027	19.46
863.201	150.53
863.375	-27.65
863.549	58.37
863.722	58.37
863.896	107.52
864.07	-52.22
864.244	44.03
864.418	93.18
864.592	31.74
864.766	27.65
864.939	13.31
865.113	-97.28
865.287	60.42
865.461	-31.74
865.634	97.28
865.808	52.22
865.982	-54.27
866.156	-9.22
866.329	-91.13
866.503	48.13
866.676	78.85
866.85	-33.79
867.024	15.36
867.197	58.37
867.371	62.46
867.544	7.17
867.718	-11.26
867.891	50.18
868.065	-37.89
868.238	56.32
868.412	56.32
868.585	33.79
868.759	-23.55
868.932	-52.22
869.105	-72.7
869.279	-29.7
869.452	-54.27
869.625	113.66
869.799	-25.6
869.972	-35.84
870.145	37.89
870.319	99.33
870.492	-97.28
870.665	-11.26
870.838	27.65
871.011	-41.98
871.185	13.31
871.358	35.84
871.531	54.27
871.704	-87.04
871.877	52.22
872.05	62.46
872.223	-80.89
872.396	78.85
872.569	-7.17
872.742	-41.98
872.915	-19.46
873.088	3.07
873.261	-64.51
873.434	134.14
873.607	60.42
873.78	78.85
873.953	-37.89
874.126	-3.07
874.299	48.13
874.471	9.22
874.644	19.46
874.817	103.42
874.99	150.53
875.163	-1.02
875.335	48.13
875.508	17.41
875.681	11.26
875.853	-68.61
876.026	74.75
876.199	103.42
876.371	72.7
876.544	-60.42
876.717	1.02
876.889	66.56
877.062	56.32
877.234	-50.18
877.407	-27.65
877.579	5.12
877.752	52.22
877.924	7.17
878.097	23.55
878.269	82.94
878.442	33.79
878.614	44.03
878.786	23.55
878.959	-17.41
879.131	17.41
879.303	-154.62
879.476	-17.41
879.648	60.42
879.82	64.51
879.993	-27.65
880.165	-91.13
880.337	-150.53
880.509	60.42
880.681	-52.22
880.854	-13.31
881.026	123.9
881.198	123.9
881.37	-46.08
881.542	91.13
881.714	-15.36
881.886	19.46
882.058	-117.76
882.23	35.84
882.402	-44.03
882.574	68.61
882.746	62.46
882.918	29.7
883.09	70.65
883.262	-95.23
883.434	80.89
883.606	-103.42
883.778	13.31
883.95	113.66
884.122	-15.36
884.293	76.8
884.465	56.32
884.637	70.65
884.809	-33.79
884.98	-19.46
885.152	29.7
885.324	95.23
885.496	-74.75
885.667	64.51
885.839	-3.07
886.011	72.7
886.182	50.18
886.354	123.9
886.525	-7.17
886.697	31.74
886.869	-64.51
887.04	-13.31
887.212	130.05
887.383	78.85
887.555	21.5
887.726	11.26
887.897	25.6
888.069	37.89
888.24	-9.22
888.412	27.65
888.583	1.02
888.754	-101.37
888.926	-95.23
889.097	19.46
889.268	-44.03
889.44	60.42
889.611	-89.09
889.782	-103.42
889.953	-80.89
890.125	103.42
890.296	-44.03
890.467	-9.22
890.638	-103.42
890.809	25.6
890.98	52.22
891.151	1.02
891.323	144.38
891.494	46.08
891.665	44.03
891.836	-1.02
892.007	33.79
892.178	13.31
892.349	37.89
892.52	-48.13
892.691	66.56
892.862	-62.46
893.032	-50.18
893.203	-68.61
893.374	-27.65
893.545	76.8
893.716	-76.8
893.887	54.27
894.057	-70.65
894.228	-27.65
894.399	-3.07
894.57	52.22
894.74	89.09
894.911	109.57
895.082	11.26
895.253	-31.74
895.423	11.26
895.594	19.46
895.764	23.55
895.935	-72.7
896.106	50.18
896.276	44.03
896.447	52.22
896.617	-60.42
896.788	-64.51
896.958	-11.26
897.129	-48.13
897.299	44.03
897.47	123.9
897.64	78.85
897.81	-17.41
897.981	1.02
898.151	41.98
898.322	21.5
898.492	-5.12
898.662	-35.84
898.832	27.65
899.003	9.22
899.173	44.03
899.343	-15.36
899.513	-3.07
