Data from USB4F104151__185__11-05-12-134.txt Node

Date: Wed Feb 26 11:05:12 EST 2025
User: louis
Spectrometer: USB4F10415
Trigger mode: 4
Integration Time (sec): 1.000000E-1
Scans to average: 1
Electric dark correction enabled: true
Nonlinearity correction enabled: false
Boxcar width: 0
XAxis mode: Wavelengths
Number of Pixels in Spectrum: 3648
>>>>>Begin Spectral Data<<<<<
178.204	-478.88
178.424	-478.88
178.644	-478.88
178.864	-401.06
179.084	-411.3
179.304	2.39
179.524	-77.48
179.744	-40.62
179.964	41.3
180.184	55.64
180.404	78.16
180.624	-40.62
180.844	14.68
181.064	-77.48
181.283	43.35
181.503	-7.85
181.723	8.53
181.943	-243.37
182.163	180.56
182.383	-44.71
182.602	-16.04
182.822	133.46
183.042	-16.04
183.262	-110.25
183.482	-3.75
183.701	-1.71
183.921	82.26
184.141	-7.85
184.361	61.78
184.58	80.21
184.8	14.68
185.02	-91.82
185.239	63.83
185.459	26.96
185.679	131.41
185.898	-67.24
186.118	-16.04
186.338	76.12
186.557	129.36
186.777	-54.95
186.997	16.73
187.216	67.92
187.436	217.43
187.655	51.54
187.875	135.51
188.095	-3.75
188.314	67.92
188.534	127.32
188.753	39.25
188.973	119.12
189.192	231.76
189.412	-59.05
189.631	14.68
189.851	49.49
190.07	164.18
190.29	-93.87
190.509	29.01
190.729	88.4
190.948	205.14
191.168	239.95
191.387	26.96
191.607	-54.95
191.826	67.92
192.045	18.77
192.265	-36.52
192.484	100.69
192.704	63.83
192.923	-81.58
193.142	145.75
193.362	158.03
193.581	117.08
193.8	121.17
194.02	155.99
194.239	35.16
194.458	29.01
194.678	29.01
194.897	-69.29
195.116	29.01
195.335	6.49
195.555	65.88
195.774	-24.23
195.993	41.3
196.212	26.96
196.432	29.01
196.651	-18.09
196.87	74.07
197.089	190.8
197.308	65.88
197.528	47.44
197.747	33.11
197.966	10.58
198.185	102.74
198.404	-24.23
198.623	100.69
198.842	129.36
199.062	102.74
199.281	84.31
199.5	67.92
199.719	57.68
199.938	96.6
200.157	80.21
200.376	110.93
200.595	145.75
200.814	-16.04
201.033	24.92
201.252	96.6
201.471	133.46
201.69	67.92
201.909	108.88
202.128	94.55
202.347	119.12
202.566	88.4
202.785	-40.62
203.004	-44.71
203.223	305.49
203.442	-11.95
203.661	-3.75
203.879	98.64
204.098	69.97
204.317	-61.1
204.536	117.08
204.755	90.45
204.974	106.84
205.193	-5.8
205.411	186.71
205.63	88.4
205.849	63.83
206.068	31.06
206.287	-124.58
206.505	94.55
206.724	49.49
206.943	-48.81
207.162	-42.67
207.381	94.55
207.599	-54.95
207.818	33.11
208.037	39.25
208.255	24.92
208.474	41.3
208.693	14.68
208.911	-26.28
209.13	53.59
209.349	51.54
209.567	16.73
209.786	29.01
210.005	119.12
210.223	63.83
210.442	-95.91
210.661	-30.38
210.879	39.25
211.098	0.34
211.316	14.68
211.535	137.56
211.753	8.53
211.972	59.73
212.191	2.39
212.409	41.3
212.628	55.64
212.846	-7.85
213.065	-22.19
213.283	53.59
213.502	-75.43
213.72	63.83
213.938	35.16
214.157	-83.63
214.375	143.7
214.594	-9.9
214.812	35.16
215.031	-7.85
215.249	45.4
215.467	-48.81
215.686	-5.8
215.904	80.21
216.122	2.39
216.341	160.08
216.559	-38.57
216.778	86.36
216.996	170.32
217.214	-34.47
217.432	-24.23
217.651	-87.72
217.869	-7.85
218.087	51.54
218.306	-7.85
218.524	84.31
218.742	-11.95
218.96	82.26
219.179	20.82
219.397	0.34
219.615	291.15
219.833	90.45
220.051	-59.05
220.27	112.98
220.488	67.92
220.706	53.59
220.924	-46.76
221.142	-1.71
221.36	20.82
221.578	123.22
221.796	26.96
222.015	24.92
222.233	55.64
222.451	151.89
222.669	-16.04
222.887	20.82
223.105	-30.38
223.323	31.06
223.541	-177.83
223.759	53.59
223.977	22.87
224.195	192.85
224.413	121.17
224.631	78.16
224.849	24.92
225.067	205.14
225.285	35.16
225.503	-22.19
225.721	-128.68
225.939	10.58
226.157	35.16
226.375	178.51
226.592	-40.62
226.81	-20.14
227.028	88.4
227.246	69.97
227.464	47.44
227.682	35.16
227.9	106.84
228.117	47.44
228.335	115.03
228.553	-38.57
228.771	-9.9
228.989	74.07
229.206	76.12
229.424	-16.04
229.642	-69.29
229.86	31.06
230.077	108.88
230.295	-22.19
230.513	86.36
230.731	112.98
230.948	260.43
231.166	119.12
231.384	-11.95
231.601	-81.58
231.819	207.19
232.037	-1.71
232.254	-71.34
232.472	10.58
232.689	4.44
232.907	90.45
233.125	14.68
233.342	-13.99
233.56	14.68
233.777	29.01
233.995	78.16
234.213	160.08
234.43	100.69
234.648	63.83
234.865	6.49
235.083	31.06
235.3	6.49
235.518	143.7
235.735	151.89
235.953	4.44
236.17	4.44
236.388	33.11
236.605	51.54
236.822	63.83
237.04	127.32
237.257	31.06
237.475	-30.38
237.692	6.49
237.909	-11.95
238.127	-1.71
238.344	110.93
238.562	14.68
238.779	-59.05
238.996	-108.2
239.214	-42.67
239.431	53.59
239.648	-1.71
239.865	104.79
240.083	86.36
240.3	-26.28
240.517	-3.75
240.735	-30.38
240.952	141.65
241.169	29.01
241.386	4.44
241.603	-1.71
241.821	-79.53
242.038	74.07
242.255	141.65
242.472	-77.48
242.689	26.96
242.907	69.97
243.124	49.49
243.341	-34.47
243.558	-79.53
243.775	-26.28
243.992	-52.91
244.209	39.25
244.426	188.75
244.643	6.49
244.86	43.35
245.078	98.64
245.295	-24.23
245.512	0.34
245.729	-57
245.946	65.88
246.163	63.83
246.38	-71.34
246.597	20.82
246.814	8.53
247.031	-59.05
247.248	63.83
247.464	98.64
247.681	4.44
247.898	-5.8
248.115	51.54
248.332	-5.8
248.549	176.47
248.766	143.7
248.983	104.79
249.2	41.3
249.417	123.22
249.633	2.39
249.85	18.77
250.067	51.54
250.284	55.64
250.501	76.12
250.717	43.35
250.934	-36.52
251.151	6.49
251.368	-16.04
251.585	49.49
251.801	20.82
252.018	-97.96
252.235	82.26
252.451	-38.57
252.668	45.4
252.885	133.46
253.102	78.16
253.318	76.12
253.535	57.68
253.752	-63.15
253.968	63.83
254.185	-57
254.401	26.96
254.618	72.02
254.835	-83.63
255.051	205.14
255.268	53.59
255.484	-9.9
255.701	29.01
255.917	63.83
256.134	-5.8
256.351	59.73
256.567	-1.71
256.784	29.01
257	-83.63
257.217	139.6
257.433	80.21
257.65	61.78
257.866	106.84
258.082	-83.63
258.299	-24.23
258.515	0.34
258.732	6.49
258.948	-112.3
259.165	53.59
259.381	-5.8
259.597	92.5
259.814	22.87
260.03	43.35
260.246	12.63
260.463	149.84
260.679	78.16
260.895	-5.8
261.112	20.82
261.328	92.5
261.544	-3.75
261.761	51.54
261.977	12.63
262.193	-16.04
262.409	104.79
262.626	-26.28
262.842	26.96
263.058	-69.29
263.274	45.4
263.49	31.06
263.707	94.55
263.923	55.64
264.139	-79.53
264.355	14.68
264.571	45.4
264.787	57.68
265.004	94.55
265.22	26.96
265.436	-16.04
265.652	8.53
265.868	100.69
266.084	-95.91
266.3	69.97
266.516	-93.87
266.732	-71.34
266.948	78.16
267.164	-34.47
267.38	29.01
267.596	39.25
267.812	145.75
268.028	145.75
268.244	59.73
268.46	80.21
268.676	-18.09
268.892	78.16
269.108	-1.71
269.324	16.73
269.54	-36.52
269.756	100.69
269.972	-77.48
270.188	-18.09
270.403	-106.15
270.619	65.88
270.835	55.64
271.051	55.64
271.267	0.34
271.483	-9.9
271.698	53.59
271.914	49.49
272.13	-28.33
272.346	-26.28
272.562	18.77
272.777	166.23
272.993	-13.99
273.209	14.68
273.425	24.92
273.64	-18.09
273.856	158.03
274.072	18.77
274.287	18.77
274.503	35.16
274.719	59.73
274.934	6.49
275.15	-28.33
275.366	61.78
275.581	-32.43
275.797	67.92
276.012	76.12
276.228	24.92
276.444	39.25
276.659	92.5
276.875	-7.85
277.09	-11.95
277.306	41.3
277.521	-20.14
277.737	31.06
277.952	84.31
278.168	18.77
278.383	-3.75
278.599	2.39
278.814	90.45
279.03	-22.19
279.245	69.97
279.461	-30.38
279.676	98.64
279.892	-16.04
280.107	-63.15
280.322	14.68
280.538	20.82
280.753	-42.67
280.969	-42.67
281.184	41.3
281.399	145.75
281.615	14.68
281.83	135.51
282.045	-67.24
282.26	-65.19
282.476	24.92
282.691	86.36
282.906	2.39
283.122	22.87
283.337	-36.52
283.552	80.21
283.767	-54.95
283.983	37.2
284.198	20.82
284.413	108.88
284.628	-69.29
284.843	74.07
285.058	102.74
285.274	-100.01
285.489	-54.95
285.704	24.92
285.919	-28.33
286.134	72.02
286.349	49.49
286.564	-26.28
286.779	153.94
286.995	-11.95
287.21	-67.24
287.425	72.02
287.64	-44.71
287.855	74.07
288.07	-63.15
288.285	67.92
288.5	131.41
288.715	47.44
288.93	26.96
289.145	-11.95
289.36	43.35
289.575	22.87
289.79	82.26
290.004	-44.71
290.219	51.54
290.434	-11.95
290.649	49.49
290.864	-61.1
291.079	-32.43
291.294	12.63
291.509	20.82
291.724	22.87
291.938	35.16
292.153	20.82
292.368	-42.67
292.583	123.22
292.798	98.64
293.012	20.82
293.227	35.16
293.442	6.49
293.657	108.88
293.871	143.7
294.086	112.98
294.301	207.19
294.516	119.12
294.73	10.58
294.945	-63.15
295.16	61.78
295.374	207.19
295.589	96.6
295.804	-93.87
296.018	8.53
296.233	137.56
296.447	-28.33
296.662	10.58
296.877	155.99
297.091	82.26
297.306	53.59
297.52	41.3
297.735	-18.09
297.949	84.31
298.164	39.25
298.378	39.25
298.593	-50.86
298.807	45.4
299.022	-11.95
299.236	139.6
299.451	-22.19
299.665	18.77
299.88	78.16
300.094	65.88
300.309	26.96
300.523	51.54
300.737	-36.52
300.952	49.49
301.166	-13.99
301.381	2.39
301.595	-54.95
301.809	20.82
302.024	6.49
302.238	-22.19
302.452	158.03
302.667	41.3
302.881	123.22
303.095	78.16
303.309	4.44
303.524	-18.09
303.738	-13.99
303.952	-83.63
304.166	119.12
304.381	-67.24
304.595	121.17
304.809	47.44
305.023	-13.99
305.237	-22.19
305.452	-1.71
305.666	24.92
305.88	82.26
306.094	67.92
306.308	-13.99
306.522	31.06
306.736	-13.99
306.95	-32.43
307.164	-36.52
307.379	41.3
307.593	112.98
307.807	47.44
308.021	90.45
308.235	41.3
308.449	-42.67
308.663	67.92
308.877	272.72
309.091	47.44
309.305	31.06
309.519	-128.68
309.733	37.2
309.947	-59.05
310.161	100.69
310.374	59.73
310.588	22.87
310.802	-57
311.016	-26.28
311.23	-1.71
311.444	-50.86
311.658	84.31
311.872	112.98
312.085	139.6
312.299	45.4
312.513	88.4
312.727	-20.14
312.941	-30.38
313.154	86.36
313.368	-40.62
313.582	14.68
313.796	110.93
314.009	-9.9
314.223	133.46
314.437	78.16
314.651	55.64
314.864	-3.75
315.078	-20.14
315.292	18.77
315.505	-9.9
315.719	53.59
315.933	80.21
316.146	0.34
316.36	-40.62
316.573	98.64
316.787	110.93
317.001	96.6
317.214	-75.43
317.428	39.25
317.641	-13.99
317.855	24.92
318.068	35.16
318.282	78.16
318.495	164.18
318.709	90.45
318.922	-5.8
319.136	104.79
319.349	74.07
319.563	-61.1
319.776	86.36
319.99	-89.77
320.203	4.44
320.417	0.34
320.63	96.6
320.843	188.75
321.057	2.39
321.27	-34.47
321.483	65.88
321.697	149.84
321.91	86.36
322.124	63.83
322.337	51.54
322.55	-34.47
322.763	29.01
322.977	33.11
323.19	-26.28
323.403	24.92
323.617	74.07
323.83	104.79
324.043	45.4
324.256	57.68
324.469	-36.52
324.683	135.51
324.896	-13.99
325.109	41.3
325.322	-112.3
325.535	88.4
325.748	57.68
325.962	10.58
326.175	65.88
326.388	-16.04
326.601	168.27
326.814	8.53
327.027	47.44
327.24	106.84
327.453	-46.76
327.666	55.64
327.879	176.47
328.092	143.7
328.305	-38.57
328.518	10.58
328.731	-30.38
328.944	-61.1
329.157	14.68
329.37	24.92
329.583	153.94
329.796	119.12
330.009	33.11
330.222	24.92
330.435	125.27
330.648	-30.38
330.861	147.8
331.073	84.31
331.286	119.12
331.499	61.78
331.712	-57
331.925	6.49
332.138	8.53
332.35	37.2
332.563	65.88
332.776	106.84
332.989	-30.38
333.202	-28.33
333.414	57.68
333.627	16.73
333.84	-79.53
334.053	2.39
334.265	-9.9
334.478	49.49
334.691	-20.14
334.903	47.44
335.116	10.58
335.329	-36.52
335.541	49.49
335.754	176.47
335.966	-24.23
336.179	6.49
336.392	14.68
336.604	63.83
336.817	53.59
337.029	49.49
337.242	57.68
337.454	72.02
337.667	-26.28
337.88	119.12
338.092	0.34
338.305	14.68
338.517	8.53
338.729	155.99
338.942	80.21
339.154	-106.15
339.367	-75.43
339.579	90.45
339.792	-40.62
340.004	207.19
340.217	-16.04
340.429	10.58
340.641	0.34
340.854	-95.91
341.066	16.73
341.278	78.16
341.491	149.84
341.703	47.44
341.915	-30.38
342.128	78.16
342.34	20.82
342.552	-16.04
342.764	37.2
342.977	47.44
343.189	33.11
343.401	74.07
343.613	-130.73
343.826	45.4
344.038	-71.34
344.25	63.83
344.462	-57
344.674	-5.8
344.886	39.25
345.099	31.06
345.311	82.26
345.523	0.34
345.735	-65.19
345.947	-20.14
346.159	98.64
346.371	53.59
346.583	-5.8
346.795	135.51
347.007	43.35
347.219	98.64
347.431	-34.47
347.643	172.37
347.855	-50.86
348.067	147.8
348.279	-3.75
348.491	106.84
348.703	112.98
348.915	37.2
349.127	-34.47
349.339	-13.99
349.551	51.54
349.763	143.7
349.975	-22.19
350.187	151.89
350.399	106.84
350.61	14.68
350.822	-46.76
351.034	-1.71
351.246	-13.99
351.458	86.36
351.669	92.5
351.881	176.47
352.093	80.21
352.305	29.01
352.517	20.82
352.728	112.98
352.94	8.53
353.152	102.74
353.363	-57
353.575	67.92
353.787	100.69
353.999	115.03
354.21	129.36
354.422	-46.76
354.633	-52.91
354.845	43.35
355.057	37.2
355.268	29.01
355.48	65.88
355.692	-95.91
355.903	-11.95
356.115	18.77
356.326	-91.82
356.538	135.51
356.749	-11.95
356.961	166.23
357.172	41.3
357.384	-38.57
357.595	203.09
357.807	-1.71
358.018	26.96
358.23	20.82
358.441	110.93
358.653	24.92
358.864	-18.09
359.075	-59.05
359.287	80.21
359.498	170.32
359.709	14.68
359.921	33.11
360.132	20.82
360.344	-24.23
360.555	-16.04
360.766	49.49
360.977	6.49
361.189	104.79
361.4	24.92
361.611	35.16
361.823	67.92
362.034	72.02
362.245	-151.21
362.456	37.2
362.667	90.45
362.879	-75.43
363.09	72.02
363.301	123.22
363.512	57.68
363.723	39.25
363.935	8.53
364.146	35.16
364.357	94.55
364.568	14.68
364.779	-13.99
364.99	90.45
365.201	-48.81
365.412	39.25
365.623	-28.33
365.834	104.79
366.045	72.02
366.256	139.6
366.467	65.88
366.678	-3.75
366.889	26.96
367.1	-1.71
367.311	65.88
367.522	10.58
367.733	51.54
367.944	49.49
368.155	14.68
368.366	69.97
368.577	90.45
368.788	90.45
368.999	-32.43
369.209	49.49
369.42	221.52
369.631	227.67
369.842	90.45
370.053	-24.23
370.264	86.36
370.474	-38.57
370.685	-1.71
370.896	18.77
371.107	121.17
371.317	33.11
371.528	26.96
371.739	63.83
371.95	55.64
372.16	74.07
372.371	-93.87
372.582	-36.52
372.792	22.87
373.003	55.64
373.214	20.82
373.424	41.3
373.635	-30.38
373.846	180.56
374.056	29.01
374.267	2.39
374.477	33.11
374.688	4.44
374.898	-28.33
375.109	24.92
375.319	51.54
375.53	121.17
375.74	117.08
375.951	-13.99
376.161	106.84
376.372	49.49
376.582	-30.38
376.793	37.2
377.003	-20.14
377.214	-93.87
377.424	29.01
377.635	69.97
377.845	53.59
378.055	158.03
378.266	-20.14
378.476	-34.47
378.686	96.6
378.897	-1.71
379.107	141.65
379.317	33.11
379.528	63.83
379.738	4.44
379.948	16.73
380.158	104.79
380.369	26.96
380.579	135.51
380.789	35.16
380.999	14.68
381.21	53.59
381.42	176.47
381.63	-11.95
381.84	20.82
382.05	76.12
382.261	86.36
382.471	10.58
382.681	-24.23
382.891	201.04
383.101	26.96
383.311	-40.62
383.521	80.21
383.731	29.01
383.941	55.64
384.151	-13.99
384.361	49.49
384.571	53.59
384.781	135.51
384.991	194.9
385.201	186.71
385.411	74.07
385.621	35.16
385.831	39.25
386.041	29.01
386.251	18.77
386.461	47.44
386.671	-9.9
386.881	-79.53
387.091	49.49
387.301	139.6
387.511	59.73
387.72	84.31
387.93	26.96
388.14	-110.25
388.35	86.36
388.56	137.56
388.769	106.84
388.979	10.58
389.189	-81.58
389.399	-77.48
389.609	69.97
389.818	123.22
390.028	82.26
390.238	104.79
390.447	26.96
390.657	51.54
390.867	20.82
391.076	-30.38
391.286	-22.19
391.496	41.3
391.705	88.4
391.915	143.7
392.125	78.16
392.334	-48.81
392.544	198.99
392.753	80.21
392.963	-16.04
393.172	51.54
393.382	-3.75
393.591	127.32
393.801	43.35
394.01	158.03
394.22	82.26
394.429	24.92
394.639	67.92
394.848	22.87
395.058	65.88
395.267	12.63
395.477	80.21
395.686	35.16
395.895	102.74
396.105	108.88
396.314	117.08
396.524	84.31
396.733	-9.9
396.942	131.41
397.152	39.25
397.361	129.36
397.57	2.39
397.78	4.44
397.989	88.4
398.198	112.98
398.407	-7.85
398.617	31.06
398.826	-48.81
399.035	31.06
399.244	151.89
399.453	51.54
399.663	-1.71
399.872	119.12
400.081	-50.86
400.29	88.4
400.499	37.2
400.708	86.36
400.917	6.49
401.127	22.87
401.336	0.34
401.545	170.32
401.754	61.78
401.963	110.93
402.172	6.49
402.381	-42.67
402.59	61.78
402.799	-11.95
403.008	59.73
403.217	72.02
403.426	76.12
403.635	-30.38
403.844	14.68
404.053	-9.9
404.262	41.3
404.471	141.65
404.68	61.78
404.888	20.82
405.097	24.92
405.306	12.63
405.515	61.78
405.724	18.77
405.933	92.5
406.142	74.07
406.35	160.08
406.559	14.68
406.768	65.88
406.977	141.65
407.185	10.58
407.394	80.21
407.603	-26.28
407.812	37.2
408.02	139.6
408.229	47.44
408.438	76.12
408.646	10.58
408.855	-112.3
409.064	31.06
409.272	22.87
409.481	88.4
409.69	-22.19
409.898	-65.19
410.107	67.92
410.315	92.5
410.524	-59.05
410.733	22.87
410.941	-18.09
411.15	115.03
411.358	90.45
411.567	151.89
411.775	-22.19
411.984	31.06
412.192	117.08
412.401	74.07
412.609	151.89
412.818	127.32
413.026	18.77
413.234	8.53
413.443	18.77
413.651	-13.99
413.86	14.68
414.068	147.8
414.276	125.27
414.485	47.44
414.693	145.75
414.901	194.9
415.11	10.58
415.318	26.96
415.526	-1.71
415.734	123.22
415.943	72.02
416.151	26.96
416.359	59.73
416.567	14.68
416.776	127.32
416.984	96.6
417.192	127.32
417.4	-46.76
417.608	43.35
417.817	-9.9
418.025	121.17
418.233	127.32
418.441	59.73
418.649	-7.85
418.857	137.56
419.065	78.16
419.273	20.82
419.481	26.96
419.689	-5.8
419.897	-124.58
420.105	-20.14
420.313	84.31
420.521	31.06
420.729	59.73
420.937	31.06
421.145	-46.76
421.353	112.98
421.561	176.47
421.769	74.07
421.977	-32.43
422.185	123.22
422.393	57.68
422.601	160.08
422.809	106.84
423.017	31.06
423.224	61.78
423.432	106.84
423.64	-7.85
423.848	104.79
424.056	6.49
424.263	115.03
424.471	0.34
424.679	160.08
424.887	59.73
425.094	33.11
425.302	82.26
425.51	-22.19
425.718	141.65
425.925	119.12
426.133	-5.8
426.341	209.23
426.548	172.37
426.756	84.31
426.964	108.88
427.171	43.35
427.379	51.54
427.586	12.63
427.794	108.88
428.001	133.46
428.209	74.07
428.417	121.17
428.624	203.09
428.832	65.88
429.039	29.01
429.247	127.32
429.454	108.88
429.662	174.42
429.869	147.8
430.076	59.73
430.284	137.56
430.491	151.89
430.699	115.03
430.906	293.2
431.114	133.46
431.321	133.46
431.528	84.31
431.736	139.6
431.943	170.32
432.15	100.69
432.358	276.82
432.565	254.29
432.772	31.06
432.979	242
433.187	90.45
433.394	223.57
433.601	31.06
433.808	135.51
434.016	184.66
434.223	29.01
434.43	231.76
434.637	223.57
434.844	262.48
435.052	225.62
435.259	264.53
435.466	272.72
435.673	219.47
435.88	151.89
436.087	301.39
436.294	362.83
436.501	323.92
436.708	194.9
436.915	201.04
437.122	280.91
437.329	180.56
437.537	270.67
437.743	334.16
437.95	409.94
438.157	303.44
438.364	328.02
438.571	266.58
438.778	401.74
438.985	434.51
439.192	385.36
439.399	334.16
439.606	346.45
439.813	457.04
440.02	532.81
440.227	575.82
440.433	579.92
440.64	491.85
440.847	420.17
441.054	534.86
441.261	629.07
441.467	592.2
441.674	528.72
441.881	645.45
442.088	524.62
442.294	710.99
442.501	825.67
442.708	686.41
442.914	747.85
443.121	778.57
443.328	811.34
443.534	842.06
443.741	885.06
443.948	756.04
444.154	829.77
444.361	1028.42
444.568	883.02
444.774	940.36
444.981	829.77
445.187	1087.81
445.394	1016.13
445.6	1046.85
445.807	1204.55
446.013	1141.06
446.22	1171.78
446.426	1364.29
446.633	1397.06
446.839	1468.73
447.046	1222.98
447.252	1534.27
447.459	1448.26
447.665	1489.21
447.871	1714.49
448.078	1816.89
448.284	1765.69
448.491	1878.33
448.697	1988.92
448.903	1990.97
449.11	2060.6
449.316	2076.98
449.522	2111.8
449.728	2222.39
449.935	2292.02
450.141	2263.35
450.347	2554.16
450.553	2412.85
450.76	2517.29
450.966	2822.44
451.172	2804.01
451.378	2967.85
451.584	2930.98
451.791	3244.32
451.997	3350.82
452.203	3344.67
452.409	3518.75
452.615	3563.81
452.821	3533.09
453.027	3651.87
453.233	4083.99
453.44	3930.39
453.646	4098.33
453.852	4290.84
454.058	4409.62
454.264	4546.83
454.47	4884.75
454.676	4897.03
454.882	5384.45
455.088	5234.95
455.294	5472.51
455.5	5918.97
455.705	6113.53
455.911	6088.95
456.117	6330.61
456.323	6533.36
456.529	6682.86
456.735	7207.14
456.941	7332.07
457.147	7645.41
457.352	7915.74
457.558	7954.65
457.764	8595.67
457.97	8749.26
458.176	9181.39
458.381	9484.48
458.587	9636.03
458.793	10281.14
458.999	10219.71
459.204	11423.91
459.41	11870.37
459.616	11780.26
459.821	12339.35
460.027	12759.19
460.233	13453.45
460.438	13422.73
460.644	14190.72
460.85	14626.93
461.055	15034.48
461.261	15689.83
461.466	15505.51
461.672	15587.43
461.878	17369.16
462.083	17389.64
462.289	17858.63
462.494	18520.12
462.7	18819.13
462.905	19030.07
463.111	20510.75
463.316	21379.09
463.522	21964.81
463.727	22532.09
463.932	23312.37
464.138	24524.77
464.343	25274.32
464.549	25036.76
464.754	26961.85
464.959	28129.19
465.165	28034.99
465.37	28295.08
465.575	28192.68
465.781	30427.01
465.986	31006.59
466.191	30496.64
466.397	30543.75
466.602	30099.34
466.807	31725.43
467.012	31981.42
467.218	33220.44
467.423	32653.16
467.628	33902.42
467.833	35362.62
468.038	34944.83
468.244	34090.83
468.449	35921.71
468.654	35338.04
468.859	35024.7
469.064	34926.4
469.269	34279.24
469.474	34590.53
469.679	35755.83
469.885	34600.77
470.09	35143.49
470.295	34934.59
470.5	34713.41
470.705	34795.33
470.91	34099.02
471.115	33304.41
471.32	33828.69
471.525	33566.55
471.73	32581.48
471.935	32612.2
472.139	31401.85
472.344	31702.9
472.549	31819.63
472.754	30752.64
472.959	29958.03
473.164	28831.65
473.369	28708.77
473.574	29407.12
473.778	28549.03
473.983	28129.19
474.188	27707.31
474.393	26326.98
474.598	26157
474.802	25429.97
475.007	25216.98
475.212	25298.9
475.417	24012.77
475.621	24057.83
475.826	23713.77
476.031	22968.31
476.235	22478.85
476.44	22843.38
476.645	22200.32
476.849	21954.57
477.054	21315.6
477.259	20912.15
477.463	21096.47
477.668	20138.02
477.872	20394.01
478.077	19970.08
478.282	19269.68
478.486	19222.58
478.691	19032.11
478.895	18778.17
479.1	18645.05
479.304	18501.69
479.509	17907.78
479.713	18047.04
479.918	17754.18
480.122	17182.8
480.326	17340.49
480.531	17150.03
480.735	17131.6
480.94	16775.25
481.144	17336.4
481.348	16672.85
481.553	16670.81
481.757	16212.06
481.961	16296.03
482.166	16048.22
482.37	16373.85
482.574	15708.26
482.778	15485.03
482.983	16115.81
483.187	15730.79
483.391	15618.15
483.595	15280.24
483.8	15018.1
484.004	15106.16
484.208	15298.67
484.412	14809.2
484.616	14940.27
484.821	14674.04
485.025	14186.62
485.229	14053.5
485.433	13908.1
485.637	13744.26
485.841	13785.22
486.045	13402.25
486.249	13496.46
486.453	13199.5
486.657	12935.31
486.861	12875.92
487.065	12363.93
487.269	12386.46
487.473	12095.64
487.677	12087.45
487.881	12097.69
488.085	11552.93
488.289	11466.92
488.493	11212.97
488.697	11272.36
488.901	11061.42
489.105	10645.68
489.309	10645.68
489.512	10393.78
489.716	10381.49
489.92	9918.65
490.124	9801.92
490.328	9912.51
490.531	9482.44
490.735	9343.17
490.939	9277.64
491.143	9046.22
491.346	8919.25
491.55	8704.21
491.754	8708.3
491.958	8435.92
492.161	8360.15
492.365	8169.69
492.569	8104.15
492.772	7932.12
492.976	7915.74
493.18	7579.87
493.383	7833.82
493.587	7614.69
493.79	7461.09
493.994	7092.46
494.197	7313.64
494.401	7233.77
494.605	7186.66
494.808	7127.27
495.012	7129.32
495.215	6904.04
495.419	6990.06
495.622	6740.21
495.825	6684.91
496.029	6781.17
496.232	6983.91
496.436	6797.55
496.639	6893.8
496.843	6646
497.046	6867.18
497.249	6850.8
497.453	6809.84
497.656	6402.29
497.859	6602.99
498.063	6689.01
498.266	6848.75
498.469	6818.03
498.673	6811.89
498.876	6703.34
499.079	6815.98
499.282	6824.17
499.485	7182.57
499.689	7028.97
499.892	6942.96
500.095	6959.34
500.298	7129.32
500.501	6998.25
500.705	7311.59
500.908	7235.81
501.111	7330.02
501.314	7442.66
501.517	7602.4
501.72	7747.81
501.923	7465.19
502.126	7696.61
502.329	7870.69
502.532	7729.38
502.735	7854.3
502.938	8210.65
503.141	8143.07
503.344	8005.85
503.547	8409.3
503.75	8378.58
503.953	8595.67
504.156	8681.68
504.359	8771.79
504.562	8876.24
504.765	9197.77
504.968	9195.72
505.17	9443.53
505.373	9330.89
505.576	9730.24
505.779	9885.89
505.982	9787.58
506.185	10049.72
506.387	10266.81
506.59	10348.73
506.793	10627.25
506.996	10778.8
507.198	10983.6
507.401	11186.35
507.604	11520.17
507.807	11647.14
508.009	11991.2
508.212	12069.02
508.415	12353.69
508.617	12492.95
508.82	12863.63
509.022	12744.85
509.225	13312.14
509.428	13711.49
509.63	13912.19
509.833	14192.76
510.035	14786.68
510.238	14758
510.44	15183.98
510.643	15519.85
510.845	15767.65
511.048	16062.56
511.25	16496.73
511.453	16830.55
511.655	17580.11
511.858	17541.19
512.06	18221.12
512.262	18348.09
512.465	18663.48
512.667	19472.43
512.87	19705.9
513.072	20095.01
513.274	20723.74
513.477	21020.69
513.679	21573.64
513.881	22202.37
514.084	22421.5
514.286	23042.04
514.488	23355.38
514.69	24260.58
514.893	24573.92
515.095	25137.11
515.297	25585.61
515.499	25954.25
515.701	26955.71
515.904	27166.65
516.106	27701.17
516.308	28630.94
516.51	29040.54
516.712	29366.17
516.914	29994.89
517.116	30799.74
517.318	31264.63
517.52	32030.57
517.722	32362.34
517.925	32661.35
518.127	33830.74
518.329	34455.37
518.531	34092.88
518.733	35063.61
518.935	36097.84
519.136	36054.83
519.338	37158.69
519.54	37424.92
519.742	38332.17
519.944	38246.16
520.146	39708.41
520.348	40095.47
520.55	40460.01
520.752	40541.93
520.954	41506.52
521.155	41576.15
521.357	42438.35
521.559	42540.75
521.761	43677.37
521.963	43792.06
522.164	43929.27
522.366	44363.44
522.568	44863.14
522.77	45133.48
522.971	45950.62
523.173	45594.27
523.375	46010.01
523.576	46116.5
523.778	46048.92
523.98	47079.05
524.181	46982.79
524.383	47029.9
524.584	47840.89
524.786	47474.3
524.988	47316.61
525.189	47939.19
525.391	47791.74
525.592	47787.64
525.794	48195.19
525.995	47822.46
526.197	47615.61
526.398	47754.88
526.6	47791.74
526.801	47871.61
527.003	47550.08
527.204	47380.1
527.406	47584.9
527.607	47275.65
527.808	47105.67
528.01	46335.63
528.211	46356.11
528.412	46562.96
528.614	46016.15
528.815	45944.47
529.016	46059.16
529.218	44674.73
529.419	44940.97
529.62	44015.29
529.822	44117.68
530.023	43716.28
530.224	42866.38
530.425	42628.81
530.626	41866.97
530.828	41184.99
531.029	41819.86
531.23	40986.34
531.431	40697.58
531.632	40210.16
531.833	40054.51
532.035	39292.67
532.236	39151.36
532.437	38459.15
532.638	37873.43
532.839	37537.56
533.04	37185.31
533.241	36818.72
533.442	36865.83
533.643	35778.36
533.844	35444.54
534.045	34340.68
534.246	34086.73
534.447	33599.32
534.648	33625.94
534.849	32886.62
535.05	32683.87
535.251	32319.34
535.451	31399.8
535.652	31397.75
535.853	30748.54
536.054	30635.91
536.255	29937.55
536.456	29243.29
536.657	29540.24
536.857	28663.71
537.058	28266.41
537.259	28141.48
537.46	28022.7
537.66	27250.61
537.861	26976.19
538.062	26412.99
538.263	26355.65
538.463	25878.47
538.664	25683.92
538.865	25491.41
539.065	25071.57
539.266	24889.31
539.466	24664.03
539.667	23955.43
539.868	24125.41
540.068	23558.13
540.269	23080.95
540.469	23134.2
540.67	22595.58
540.87	22523.9
541.071	22310.91
541.271	22030.34
541.472	21854.22
541.672	21438.48
541.873	21307.41
542.073	20676.63
542.274	20811.8
542.474	20746.26
542.675	19963.94
542.875	20322.34
543.075	19775.53
543.276	19378.22
543.476	19458.09
543.676	18821.17
543.877	19253.3
544.077	18554.94
544.277	18339.9
544.478	18364.48
544.678	18243.65
544.878	18088
545.078	17688.65
545.279	17498.19
545.479	17358.92
545.679	17164.37
545.879	16814.16
546.079	16969.81
546.28	16482.39
546.48	16400.48
546.68	16148.57
546.88	16048.22
547.08	15849.57
547.28	15781.99
547.48	15343.72
547.68	15100.01
547.88	14901.36
548.081	14962.8
548.281	14669.94
548.481	14463.1
548.681	14424.19
548.881	14301.31
549.081	13920.38
549.28	13740.16
549.48	13539.46
549.68	13349
549.88	13342.86
550.08	12873.87
550.28	12968.08
550.48	12738.71
550.68	12581.01
550.88	12519.57
551.08	12079.26
551.279	12173.47
551.479	11780.26
551.679	11800.74
551.879	11290.79
552.079	11407.53
552.278	11206.83
552.478	11069.61
552.678	10913.97
552.878	10967.21
553.077	10567.86
553.277	10354.87
553.477	10334.39
553.676	9978.05
553.876	10023.1
554.076	9898.17
554.275	9711.81
554.475	9439.43
554.674	9380.04
554.874	9107.66
555.074	8816.85
555.273	8947.92
555.473	8847.57
555.672	8456.4
555.872	8657.11
556.071	8380.63
556.271	8341.72
556.47	8052.95
556.67	7882.97
556.869	7727.33
557.068	7608.55
557.268	7465.19
557.467	7381.22
557.667	7342.31
557.866	7248.1
558.065	7024.87
558.265	6871.28
558.464	6699.25
558.663	6811.89
558.863	6756.59
559.062	6789.36
559.261	6340.85
559.461	6424.82
559.66	6168.82
559.859	6074.62
560.058	5878.01
560.258	5900.54
560.457	5751.04
560.656	5794.04
560.855	5521.67
561.054	5603.58
561.253	5521.67
561.453	5533.95
561.652	5382.4
561.851	5380.36
562.05	5142.79
562.249	4978.95
562.448	5138.69
562.647	4960.52
562.846	4819.21
563.045	4792.59
563.244	4665.61
563.443	4851.98
563.642	4401.43
563.841	4641.04
564.04	4565.26
564.239	4335.89
564.438	4213.01
564.637	4241.68
564.836	4036.89
565.035	3952.92
565.234	4040.98
565.432	3891.48
565.631	3924.25
565.83	3938.59
566.029	3766.56
566.228	3678.49
566.427	3729.69
566.625	3557.66
566.824	3664.16
567.023	3576.09
567.222	3586.33
567.42	3313.95
567.619	3365.15
567.818	3363.11
568.016	3442.98
568.215	3356.96
568.414	3262.76
568.612	3223.84
568.811	3043.62
569.01	3092.77
569.208	3037.48
569.407	3107.11
569.605	2922.79
569.804	2908.46
570.002	3072.29
570.201	2715.95
570.4	2916.65
570.598	2601.26
570.797	2681.13
570.995	2619.69
571.193	2713.9
571.392	2537.77
571.59	2451.76
571.789	2478.38
571.987	2474.29
572.186	2498.86
572.384	2322.74
572.582	2412.85
572.781	2447.66
572.979	2195.76
573.177	2226.48
573.376	2150.71
573.574	2136.37
573.772	2027.83
573.971	2105.65
574.169	1829.18
574.367	2074.93
574.565	2060.6
574.763	1863.99
574.962	1890.62
575.16	1907
575.358	1886.52
575.556	1853.75
575.754	1886.52
575.952	1861.94
576.151	1780.03
576.349	1880.38
576.547	1737.02
576.745	1724.73
576.943	1720.64
577.141	1550.65
577.339	1530.17
577.537	1560.89
577.735	1521.98
577.933	1595.71
578.131	1478.97
578.329	1562.94
578.527	1462.59
578.725	1407.3
578.923	1288.51
579.121	1427.78
579.319	1292.61
579.516	1364.29
579.714	1530.17
579.912	1270.08
580.11	1231.17
580.308	1147.2
580.506	1220.93
580.704	1055.05
580.901	1124.68
581.099	1354.05
581.297	1167.68
581.495	1218.88
581.692	1126.72
581.89	1173.83
582.088	1120.58
582.285	1030.47
582.483	1081.67
582.681	1141.06
582.878	1079.62
583.076	1001.8
583.274	991.56
583.471	1079.62
583.669	985.41
583.866	774.47
584.064	962.89
584.262	895.3
584.459	928.07
584.657	883.02
584.854	987.46
585.052	946.5
585.249	1016.13
585.447	897.35
585.644	805.19
585.841	846.15
586.039	835.91
586.236	915.78
586.434	856.39
586.631	807.24
586.828	719.18
587.026	821.58
587.223	803.15
587.42	618.83
587.618	751.95
587.815	831.82
588.012	762.19
588.21	768.33
588.407	751.95
588.604	719.18
588.801	610.64
588.999	665.93
589.196	731.47
589.393	588.11
589.59	692.55
589.787	643.4
589.984	665.93
590.182	692.55
590.379	584.01
590.576	641.36
590.773	670.03
590.97	672.08
591.167	696.65
591.364	753.99
591.561	627.02
591.758	647.5
591.955	731.47
592.152	616.78
592.349	559.44
592.546	604.49
592.743	532.81
592.94	608.59
593.137	715.08
593.334	674.12
593.531	682.31
593.727	645.45
593.924	704.84
594.121	584.01
594.318	467.28
594.515	751.95
594.712	723.27
594.908	715.08
595.105	639.31
595.302	579.92
595.499	700.75
595.696	768.33
595.892	602.44
596.089	688.46
596.286	692.55
596.482	766.28
596.679	807.24
596.876	706.89
597.072	909.64
597.269	778.57
597.466	840.01
597.662	817.48
597.859	749.9
598.055	842.06
598.252	887.11
598.448	973.13
598.645	1098.05
598.841	1071.43
599.038	1190.21
599.234	1229.12
599.431	1091.91
599.627	1218.88
599.824	1263.94
600.02	1282.37
600.217	1263.94
600.413	1349.95
600.609	1403.2
600.806	1712.44
601.002	1472.83
601.198	1536.32
601.395	1601.85
601.591	1820.99
601.787	1737.02
601.984	1786.17
602.18	1866.04
602.376	2058.55
602.572	2066.74
602.769	2230.58
602.965	2208.05
603.161	2230.58
603.357	2257.2
603.553	2498.86
603.75	2459.95
603.946	2578.73
604.142	2793.77
604.338	2887.98
604.534	2779.43
604.73	3035.43
604.926	3014.95
605.122	3064.1
605.318	3158.31
605.514	3457.31
605.71	3416.35
605.906	3680.54
606.102	3623.2
606.298	3909.91
606.494	3805.47
606.69	4047.13
606.886	3967.26
607.082	4155.67
607.278	4278.55
607.474	4409.62
607.67	4493.58
607.866	4444.43
608.062	4901.13
608.257	4952.33
608.453	4946.19
608.649	5282.05
608.845	5116.17
609.041	5456.13
609.236	5552.38
609.432	5685.5
609.628	6019.32
609.824	6031.61
610.019	6205.69
610.215	6349.04
610.411	6693.1
610.606	6883.56
610.802	6813.93
610.998	6949.1
611.193	7215.34
611.389	7344.36
611.584	7616.74
611.78	7588.07
611.976	8093.91
612.171	8255.7
612.367	8356.05
612.562	8722.64
612.758	8716.5
612.953	8984.78
613.149	9459.91
613.344	9382.09
613.539	9871.55
613.735	10213.56
613.93	10449.08
614.126	10455.22
614.321	10997.93
614.517	11061.42
614.712	11411.62
614.907	11473.06
615.103	11993.25
615.298	12230.81
615.493	12796.05
615.688	12546.2
615.884	13424.78
616.079	13332.62
616.274	13746.31
616.47	14137.47
616.665	14426.23
616.86	14942.32
617.055	15202.41
617.25	15489.13
617.445	16160.86
617.641	16316.51
617.836	16967.76
618.031	16978
618.226	17920.07
618.421	18266.17
618.616	18677.82
618.811	18743.35
619.006	19464.24
619.201	19601.45
619.396	20119.59
619.591	20504.6
619.786	21270.54
619.981	21336.08
620.176	22134.79
620.371	22192.13
620.566	22968.31
620.761	23212.02
620.956	24137.7
621.151	23977.96
621.346	24467.42
621.541	24879.07
621.735	25503.7
621.93	25892.81
622.125	26226.63
622.32	26515.39
622.515	27164.6
622.709	27848.62
622.904	28612.51
623.099	28643.23
623.294	29695.89
623.488	29470.61
623.683	30474.12
623.878	30316.42
624.072	31287.16
624.267	31854.45
624.462	32118.64
624.656	32450.41
624.851	33355.61
625.046	33101.66
625.24	34002.77
625.435	34277.19
625.629	34944.83
625.824	34926.4
626.018	35778.36
626.213	35448.63
626.407	36341.55
626.602	36615.97
626.796	37136.16
626.991	37625.62
627.185	37988.11
627.38	38344.46
627.574	38366.99
627.768	37914.39
627.963	38465.29
628.157	38450.95
628.352	38453
628.546	38229.77
628.74	38977.28
628.935	38436.62
629.129	38655.75
629.323	38383.37
629.517	38182.67
629.712	37672.73
629.906	37484.31
630.1	36939.55
630.294	37021.47
630.489	36499.24
630.683	35876.66
630.877	35082.05
631.071	34410.31
631.265	34088.78
631.459	33525.59
631.653	32620.39
631.848	32202.6
632.042	30965.63
632.236	30541.7
632.43	29499.28
632.624	28676
632.818	27738.03
633.012	26861.5
633.206	26118.09
633.4	25403.35
633.594	24139.75
633.788	23609.33
633.982	22734.84
634.176	22185.99
634.369	20903.96
634.563	20410.4
634.757	19554.35
634.951	19208.24
635.145	18036.8
635.339	17383.5
635.533	16738.39
635.726	16220.25
635.92	15310.96
636.114	14721.14
636.308	13947.01
636.501	13490.31
636.695	13019.28
636.889	12189.85
637.083	12011.68
637.276	11561.12
637.47	10956.97
637.664	10576.05
637.857	10113.21
638.051	9662.66
638.244	9337.03
638.438	8841.42
638.632	8587.47
638.825	8098.01
639.019	8028.38
639.212	7583.97
639.406	7264.49
639.599	6945
639.793	6861.04
639.986	6369.52
640.18	6158.58
640.373	5892.35
640.567	5714.17
640.76	5546.24
640.954	5431.55
641.147	4970.76
641.34	4921.61
641.534	4630.8
641.727	4591.89
641.92	4282.64
642.114	4323.6
642.307	3928.35
642.5	3940.63
642.694	3717.4
642.887	3606.81
643.08	3723.55
643.273	3549.47
643.467	3211.56
643.66	3068.2
643.853	2967.85
644.046	2963.75
644.239	2718
644.432	2545.97
644.626	2507.06
644.819	2365.75
645.012	2396.46
645.205	2287.92
645.398	2177.33
645.591	2140.47
645.784	1925.43
645.977	1861.94
646.17	1925.43
646.363	1696.06
646.556	1722.68
646.749	1583.42
646.942	1521.98
647.135	1581.37
647.328	1407.3
647.521	1356.1
647.714	1296.71
647.907	1280.32
648.099	1222.98
648.292	1395.01
648.485	1190.21
648.678	1053
648.871	1112.39
649.064	1110.34
649.256	1014.09
649.449	928.07
649.642	848.2
649.835	971.08
650.027	897.35
650.22	903.5
650.413	811.34
650.605	817.48
650.798	684.36
650.991	694.6
651.183	622.92
651.376	758.09
651.568	692.55
651.761	655.69
651.954	690.51
652.146	543.05
652.339	620.88
652.531	706.89
652.724	485.71
652.916	543.05
653.109	297.3
653.301	555.34
653.494	510.29
653.686	502.09
653.879	592.2
654.071	565.58
654.263	399.7
654.456	323.92
654.648	498
654.84	454.99
655.033	401.74
655.225	483.66
655.417	285.01
655.61	469.33
655.802	446.8
655.994	518.48
656.186	250.19
656.379	414.03
656.571	223.57
656.763	272.72
656.955	385.36
657.148	256.34
657.34	375.12
657.532	364.88
657.724	260.43
657.916	282.96
658.108	325.97
658.3	319.82
658.492	282.96
658.684	160.08
658.876	303.44
659.068	190.8
659.26	131.41
659.452	123.22
659.644	166.23
659.836	303.44
660.028	287.06
660.22	182.61
660.412	141.65
660.604	149.84
660.796	250.19
660.988	268.63
661.18	254.29
661.372	219.47
661.563	143.7
661.755	188.75
661.947	110.93
662.139	153.94
662.331	160.08
662.522	211.28
662.714	98.64
662.906	102.74
663.097	153.94
663.289	106.84
663.481	51.54
663.673	186.71
663.864	147.8
664.056	135.51
664.247	100.69
664.439	176.47
664.631	158.03
664.822	78.16
665.014	166.23
665.205	33.11
665.397	10.58
665.588	121.17
665.78	215.38
665.971	203.09
666.163	166.23
666.354	266.58
666.546	16.73
666.737	115.03
666.929	20.82
667.12	119.12
667.311	137.56
667.503	84.31
667.694	198.99
667.885	166.23
668.077	182.61
668.268	-1.71
668.459	131.41
668.651	43.35
668.842	151.89
669.033	-40.62
669.224	41.3
669.416	301.39
669.607	182.61
669.798	47.44
669.989	264.53
670.18	10.58
670.371	119.12
670.563	35.16
670.754	246.1
670.945	182.61
671.136	133.46
671.327	139.6
671.518	137.56
671.709	215.38
671.9	211.28
672.091	196.95
672.282	-26.28
672.473	141.65
672.664	-1.71
672.855	123.22
673.046	143.7
673.237	143.7
673.428	145.75
673.619	112.98
673.809	69.97
674	182.61
674.191	147.8
674.382	74.07
674.573	151.89
674.764	63.83
674.954	231.76
675.145	6.49
675.336	96.6
675.527	102.74
675.717	123.22
675.908	129.36
676.099	164.18
676.289	104.79
676.48	39.25
676.671	96.6
676.861	98.64
677.052	164.18
677.243	121.17
677.433	24.92
677.624	168.27
677.814	170.32
678.005	49.49
678.195	239.95
678.386	115.03
678.576	115.03
678.767	24.92
678.957	205.14
679.148	143.7
679.338	221.52
679.529	125.27
679.719	127.32
679.909	221.52
680.1	139.6
680.29	205.14
680.481	35.16
680.671	184.66
680.861	160.08
681.052	160.08
681.242	158.03
681.432	205.14
681.622	129.36
681.813	112.98
682.003	182.61
682.193	123.22
682.383	121.17
682.573	117.08
682.764	137.56
682.954	168.27
683.144	328.02
683.334	203.09
683.524	80.21
683.714	244.05
683.904	170.32
684.094	180.56
684.284	180.56
684.474	184.66
684.664	160.08
684.854	209.23
685.044	211.28
685.234	147.8
685.424	133.46
685.614	74.07
685.804	227.67
685.994	250.19
686.184	198.99
686.374	278.87
686.564	229.71
686.753	112.98
686.943	162.13
687.133	196.95
687.323	110.93
687.513	196.95
687.702	155.99
687.892	137.56
688.082	172.37
688.272	280.91
688.461	147.8
688.651	270.67
688.841	194.9
689.03	158.03
689.22	188.75
689.41	239.95
689.599	205.14
689.789	49.49
689.979	217.43
690.168	225.62
690.358	229.71
690.547	256.34
690.737	164.18
690.926	129.36
691.116	201.04
691.305	209.23
691.495	221.52
691.684	94.55
691.874	88.4
692.063	188.75
692.252	205.14
692.442	246.1
692.631	94.55
692.82	145.75
693.01	186.71
693.199	104.79
693.388	188.75
693.578	121.17
693.767	192.85
693.956	260.43
694.146	188.75
694.335	242
694.524	162.13
694.713	235.86
694.902	164.18
695.092	119.12
695.281	211.28
695.47	160.08
695.659	225.62
695.848	219.47
696.037	145.75
696.226	321.87
696.415	121.17
696.604	246.1
696.793	215.38
696.982	166.23
697.171	287.06
697.36	119.12
697.549	176.47
697.738	86.36
697.927	112.98
698.116	139.6
698.305	194.9
698.494	98.64
698.683	74.07
698.872	303.44
699.061	188.75
699.25	166.23
699.438	182.61
699.627	100.69
699.816	276.82
700.005	100.69
700.193	90.45
700.382	223.57
700.571	239.95
700.76	254.29
700.948	188.75
701.137	235.86
701.326	194.9
701.514	76.12
701.703	151.89
701.892	201.04
702.08	321.87
702.269	158.03
702.457	139.6
702.646	162.13
702.834	133.46
703.023	211.28
703.212	315.73
703.4	198.99
703.589	59.73
703.777	180.56
703.965	112.98
704.154	147.8
704.342	106.84
704.531	125.27
704.719	180.56
704.907	201.04
705.096	125.27
705.284	108.88
705.472	123.22
705.661	131.41
705.849	256.34
706.037	174.42
706.226	141.65
706.414	174.42
706.602	74.07
706.79	174.42
706.979	168.27
707.167	176.47
707.355	69.97
707.543	217.43
707.731	194.9
707.919	129.36
708.107	88.4
708.296	86.36
708.484	53.59
708.672	153.94
708.86	137.56
709.048	217.43
709.236	143.7
709.424	205.14
709.612	250.19
709.8	94.55
709.988	125.27
710.176	201.04
710.364	246.1
710.551	141.65
710.739	102.74
710.927	106.84
711.115	145.75
711.303	244.05
711.491	174.42
711.679	-7.85
711.866	186.71
712.054	100.69
712.242	256.34
712.43	207.19
712.617	108.88
712.805	252.24
712.993	225.62
713.181	59.73
713.368	219.47
713.556	188.75
713.744	100.69
713.931	346.45
714.119	182.61
714.306	112.98
714.494	184.66
714.682	158.03
714.869	102.74
715.057	127.32
715.244	45.4
715.432	168.27
715.619	125.27
715.807	133.46
715.994	80.21
716.182	217.43
716.369	248.15
716.556	168.27
716.744	102.74
716.931	49.49
717.119	98.64
717.306	174.42
717.493	174.42
717.681	151.89
717.868	88.4
718.055	115.03
718.242	217.43
718.43	186.71
718.617	188.75
718.804	176.47
718.991	231.76
719.179	147.8
719.366	192.85
719.553	196.95
719.74	141.65
719.927	162.13
720.114	188.75
720.301	98.64
720.488	188.75
720.676	72.02
720.863	235.86
721.05	289.1
721.237	229.71
721.424	213.33
721.611	231.76
721.798	33.11
721.985	80.21
722.172	203.09
722.358	272.72
722.545	229.71
722.732	178.51
722.919	229.71
723.106	256.34
723.293	149.84
723.48	209.23
723.667	96.6
723.853	219.47
724.04	250.19
724.227	307.54
724.414	192.85
724.6	250.19
724.787	315.73
724.974	338.26
725.161	231.76
725.347	164.18
725.534	211.28
725.72	205.14
725.907	252.24
726.094	268.63
726.28	100.69
726.467	248.15
726.653	133.46
726.84	274.77
727.027	309.58
727.213	192.85
727.4	239.95
727.586	268.63
727.773	143.7
727.959	239.95
728.145	176.47
728.332	211.28
728.518	182.61
728.705	186.71
728.891	207.19
729.077	233.81
729.264	162.13
729.45	106.84
729.636	229.71
729.823	201.04
730.009	303.44
730.195	201.04
730.382	244.05
730.568	160.08
730.754	106.84
730.94	184.66
731.126	166.23
731.313	260.43
731.499	209.23
731.685	219.47
731.871	221.52
732.057	244.05
732.243	307.54
732.429	155.99
732.615	366.93
732.801	207.19
732.987	147.8
733.173	203.09
733.359	162.13
733.545	209.23
733.731	172.37
733.917	303.44
734.103	217.43
734.289	207.19
734.475	145.75
734.661	305.49
734.847	231.76
735.033	221.52
735.219	207.19
735.404	250.19
735.59	201.04
735.776	229.71
735.962	215.38
736.148	342.35
736.333	270.67
736.519	170.32
736.705	223.57
736.89	285.01
737.076	242
737.262	166.23
737.447	155.99
737.633	155.99
737.819	268.63
738.004	260.43
738.19	295.25
738.375	303.44
738.561	280.91
738.747	198.99
738.932	139.6
739.118	342.35
739.303	266.58
739.489	231.76
739.674	229.71
739.859	237.91
740.045	309.58
740.23	178.51
740.416	-5.8
740.601	246.1
740.786	182.61
740.972	180.56
741.157	188.75
741.342	133.46
741.528	162.13
741.713	299.34
741.898	211.28
742.084	209.23
742.269	303.44
742.454	227.67
742.639	239.95
742.824	194.9
743.01	313.68
743.195	305.49
743.38	252.24
743.565	252.24
743.75	260.43
743.935	192.85
744.12	305.49
744.305	158.03
744.49	217.43
744.675	168.27
744.86	231.76
745.045	231.76
745.23	188.75
745.415	153.94
745.6	332.11
745.785	201.04
745.97	272.72
746.155	254.29
746.34	233.81
746.525	223.57
746.71	264.53
746.895	110.93
747.079	61.78
747.264	190.8
747.449	231.76
747.634	299.34
747.819	299.34
748.003	160.08
748.188	153.94
748.373	168.27
748.557	98.64
748.742	254.29
748.927	274.77
749.111	180.56
749.296	147.8
749.481	184.66
749.665	182.61
749.85	164.18
750.034	198.99
750.219	188.75
750.404	98.64
750.588	172.37
750.773	133.46
750.957	246.1
751.141	158.03
751.326	223.57
751.51	41.3
751.695	119.12
751.879	162.13
752.064	264.53
752.248	151.89
752.432	317.78
752.617	268.63
752.801	203.09
752.985	207.19
753.17	242
753.354	186.71
753.538	164.18
753.722	160.08
753.907	149.84
754.091	119.12
754.275	223.57
754.459	112.98
754.643	106.84
754.828	151.89
755.012	125.27
755.196	100.69
755.38	141.65
755.564	133.46
755.748	92.5
755.932	151.89
756.116	188.75
756.3	131.41
756.484	176.47
756.668	145.75
756.852	29.01
757.036	119.12
757.22	106.84
757.404	108.88
757.588	82.26
757.772	172.37
757.956	151.89
758.14	280.91
758.323	12.63
758.507	162.13
758.691	67.92
758.875	223.57
759.059	205.14
759.242	31.06
759.426	108.88
759.61	162.13
759.794	-40.62
759.977	127.32
760.161	340.3
760.345	127.32
760.528	129.36
760.712	129.36
760.895	104.79
761.079	129.36
761.263	20.82
761.446	8.53
761.63	125.27
761.813	188.75
761.997	37.2
762.18	8.53
762.364	147.8
762.547	-3.75
762.731	49.49
762.914	63.83
763.098	49.49
763.281	84.31
763.464	6.49
763.648	55.64
763.831	160.08
764.015	90.45
764.198	205.14
764.381	-36.52
764.564	153.94
764.748	80.21
764.931	141.65
765.114	55.64
765.297	112.98
765.481	-100.01
765.664	98.64
765.847	10.58
766.03	227.67
766.213	-32.43
766.397	102.74
766.58	-20.14
766.763	149.84
766.946	33.11
767.129	-9.9
767.312	76.12
767.495	76.12
767.678	-1.71
767.861	110.93
768.044	74.07
768.227	31.06
768.41	6.49
768.593	80.21
768.776	112.98
768.959	0.34
769.142	69.97
769.324	96.6
769.507	80.21
769.69	45.4
769.873	-1.71
770.056	250.19
770.239	18.77
770.421	90.45
770.604	106.84
770.787	98.64
770.97	57.68
771.152	8.53
771.335	74.07
771.518	-28.33
771.7	164.18
771.883	227.67
772.066	-24.23
772.248	31.06
772.431	115.03
772.613	115.03
772.796	6.49
772.978	104.79
773.161	168.27
773.343	26.96
773.526	-16.04
773.708	-108.2
773.891	49.49
774.073	6.49
774.256	37.2
774.438	219.47
774.621	33.11
774.803	88.4
774.985	4.44
775.168	149.84
775.35	47.44
775.532	20.82
775.715	-26.28
775.897	104.79
776.079	59.73
776.261	33.11
776.444	121.17
776.626	22.87
776.808	106.84
776.99	-38.57
777.173	59.73
777.355	41.3
777.537	61.78
777.719	57.68
777.901	74.07
778.083	-69.29
778.265	6.49
778.447	96.6
778.629	24.92
778.811	-7.85
778.993	80.21
779.175	145.75
779.357	61.78
779.539	49.49
779.721	69.97
779.903	84.31
780.085	-22.19
780.267	-18.09
780.449	-7.85
780.631	90.45
780.812	147.8
780.994	69.97
781.176	14.68
781.358	-102.06
781.54	-7.85
781.721	33.11
781.903	145.75
782.085	-26.28
782.267	63.83
782.448	14.68
782.63	43.35
782.812	100.69
782.993	53.59
783.175	96.6
783.357	16.73
783.538	96.6
783.72	18.77
783.901	-13.99
784.083	86.36
784.264	94.55
784.446	-73.39
784.627	-11.95
784.809	108.88
784.99	24.92
785.172	55.64
785.353	45.4
785.535	29.01
785.716	-20.14
785.897	-30.38
786.079	12.63
786.26	31.06
786.441	88.4
786.623	-108.2
786.804	-44.71
786.985	67.92
787.167	69.97
787.348	35.16
787.529	8.53
787.71	117.08
787.891	78.16
788.073	-20.14
788.254	-91.82
788.435	170.32
788.616	-13.99
788.797	-13.99
788.978	2.39
789.159	-24.23
789.34	92.5
789.522	10.58
789.703	-54.95
789.884	-3.75
790.065	14.68
790.246	110.93
790.427	-28.33
790.607	86.36
790.788	84.31
790.969	-57
791.15	57.68
791.331	-97.96
791.512	-42.67
791.693	-69.29
791.874	65.88
792.054	233.81
792.235	12.63
792.416	-104.11
792.597	-40.62
792.778	96.6
792.958	12.63
793.139	37.2
793.32	-3.75
793.5	-44.71
793.681	57.68
793.862	-13.99
794.042	20.82
794.223	-112.3
794.404	-44.71
794.584	-77.48
794.765	-75.43
794.945	-3.75
795.126	78.16
795.306	47.44
795.487	-54.95
795.667	-26.28
795.848	74.07
796.028	29.01
796.209	-79.53
796.389	119.12
796.57	35.16
796.75	-65.19
796.93	0.34
797.111	-7.85
797.291	-1.71
797.471	10.58
797.652	-18.09
797.832	-89.77
798.012	96.6
798.192	39.25
798.373	-42.67
798.553	43.35
798.733	90.45
798.913	-46.76
799.093	-24.23
799.274	2.39
799.454	84.31
799.634	-7.85
799.814	6.49
799.994	72.02
800.174	69.97
800.354	-28.33
800.534	-132.78
800.714	78.16
800.894	-79.53
801.074	-153.26
801.254	-40.62
801.434	6.49
801.614	-75.43
801.794	-46.76
801.974	2021.69
802.154	-26.28
802.334	100.69
802.514	-28.33
802.693	-28.33
802.873	-77.48
803.053	61.78
803.233	26.96
803.413	-71.34
803.592	-1.71
803.772	-87.72
803.952	-1.71
804.131	-95.91
804.311	37.2
804.491	45.4
804.67	-30.38
804.85	-52.91
805.03	22.87
805.209	61.78
805.389	-32.43
805.568	-42.67
805.748	-13.99
805.928	-13.99
806.107	29.01
806.287	37.2
806.466	-34.47
806.646	8.53
806.825	-50.86
807.004	-40.62
807.184	51.54
807.363	61.78
807.543	10.58
807.722	-59.05
807.901	115.03
808.081	65.88
808.26	-106.15
808.439	33.11
808.619	-48.81
808.798	-28.33
808.977	80.21
809.156	61.78
809.336	12.63
809.515	41.3
809.694	-108.2
809.873	-75.43
810.052	-22.19
810.231	55.64
810.411	0.34
810.59	149.84
810.769	-9.9
810.948	41.3
811.127	-87.72
811.306	-36.52
811.485	18.77
811.664	129.36
811.843	-7.85
812.022	22.87
812.201	-97.96
812.38	-11.95
812.559	-102.06
812.737	74.07
812.916	-50.86
813.095	-61.1
813.274	-26.28
813.453	-3.75
813.632	26.96
813.811	29.01
813.989	-136.87
814.168	24.92
814.347	-122.54
814.526	4.44
814.704	112.98
814.883	-9.9
815.062	-89.77
815.24	63.83
815.419	-104.11
815.598	82.26
815.776	-126.63
815.955	0.34
816.133	-218.79
816.312	35.16
816.49	-136.87
816.669	-26.28
816.847	8.53
817.026	-1.71
817.204	-5.8
817.383	-83.63
817.561	-65.19
817.74	63.83
817.918	33.11
818.097	-97.96
818.275	-18.09
818.453	51.54
818.632	26.96
818.81	-7.85
818.988	-28.33
819.167	-22.19
819.345	-7.85
819.523	-67.24
819.701	2.39
819.879	104.79
820.058	-13.99
820.236	-36.52
820.414	-22.19
820.592	-3.75
820.77	49.49
820.948	-52.91
821.127	-40.62
821.305	20.82
821.483	-104.11
821.661	67.92
821.839	39.25
822.017	-67.24
822.195	-22.19
822.373	24.92
822.551	-36.52
822.729	65.88
822.907	18.77
823.085	2.39
823.262	-18.09
823.44	-73.39
823.618	-18.09
823.796	-18.09
823.974	-81.58
824.152	-18.09
824.329	-59.05
824.507	2.39
824.685	39.25
824.863	-7.85
825.04	-9.9
825.218	61.78
825.396	-13.99
825.574	14.68
825.751	-5.8
825.929	14.68
826.107	-89.77
826.284	31.06
826.462	61.78
826.639	-69.29
826.817	-95.91
826.994	-26.28
827.172	-67.24
827.349	143.7
827.527	0.34
827.704	-20.14
827.882	151.89
828.059	-52.91
828.237	-32.43
828.414	-22.19
828.591	-173.74
828.769	45.4
828.946	-38.57
829.124	67.92
829.301	129.36
829.478	-85.67
829.655	-1.71
829.833	-1.71
830.01	-65.19
830.187	69.97
830.364	-13.99
830.542	31.06
830.719	39.25
830.896	2.39
831.073	16.73
831.25	31.06
831.427	90.45
831.604	31.06
831.782	-44.71
831.959	26.96
832.136	-36.52
832.313	-63.15
832.49	-52.91
832.667	-34.47
832.844	-38.57
833.021	96.6
833.198	-48.81
833.374	22.87
833.551	45.4
833.728	-63.15
833.905	-5.8
834.082	-16.04
834.259	76.12
834.436	59.73
834.612	-85.67
834.789	16.73
834.966	-3.75
835.143	-38.57
835.319	-65.19
835.496	33.11
835.673	24.92
835.85	90.45
836.026	22.87
836.203	82.26
836.38	-26.28
836.556	-38.57
836.733	-73.39
836.909	82.26
837.086	-11.95
837.262	-67.24
837.439	-1.71
837.616	-38.57
837.792	4.44
837.968	-50.86
838.145	-85.67
838.321	-28.33
838.498	20.82
838.674	63.83
838.851	26.96
839.027	-89.77
839.203	-36.52
839.38	29.01
839.556	-75.43
839.732	6.49
839.909	-69.29
840.085	0.34
840.261	-67.24
840.437	-11.95
840.614	-85.67
840.79	20.82
840.966	45.4
841.142	-30.38
841.318	-50.86
841.494	59.73
841.671	80.21
841.847	-63.15
842.023	-112.3
842.199	-11.95
842.375	139.6
842.551	-81.58
842.727	-102.06
842.903	119.12
843.079	-132.78
843.255	45.4
843.431	-61.1
843.607	22.87
843.783	-147.11
843.959	78.16
844.134	-42.67
844.31	-7.85
844.486	-36.52
844.662	-28.33
844.838	-13.99
845.013	0.34
845.189	133.46
845.365	35.16
845.541	-26.28
845.716	-9.9
845.892	80.21
846.068	-18.09
846.244	-79.53
846.419	4.44
846.595	-75.43
846.77	-22.19
846.946	74.07
847.122	35.16
847.297	-32.43
847.473	88.4
847.648	-87.72
847.824	-102.06
847.999	-59.05
848.175	-9.9
848.35	57.68
848.526	57.68
848.701	72.02
848.876	6.49
849.052	84.31
849.227	-34.47
849.403	-13.99
849.578	-71.34
849.753	10.58
849.929	96.6
850.104	-85.67
850.279	22.87
850.454	41.3
850.63	24.92
850.805	-63.15
850.98	14.68
851.155	22.87
851.33	-83.63
851.505	-167.59
851.681	137.56
851.856	-34.47
852.031	53.59
852.206	-1.71
852.381	-65.19
852.556	-24.23
852.731	6.49
852.906	59.73
853.081	0.34
853.256	110.93
853.431	-42.67
853.606	-22.19
853.781	-77.48
853.956	-147.11
854.131	-24.23
854.305	-157.35
854.48	-1.71
854.655	-77.48
854.83	-63.15
855.005	10.58
855.18	-34.47
855.354	-20.14
855.529	29.01
855.704	-36.52
855.879	39.25
856.053	-73.39
856.228	-5.8
856.403	-81.58
856.577	49.49
856.752	-116.39
856.926	10.58
857.101	24.92
857.276	-108.2
857.45	-22.19
857.625	22.87
857.799	-38.57
857.974	-46.76
858.148	-89.77
858.323	-30.38
858.497	-83.63
858.672	-34.47
858.846	-138.92
859.02	55.64
859.195	-100.01
859.369	-1.71
859.543	45.4
859.718	-11.95
859.892	-32.43
860.066	22.87
860.241	-61.1
860.415	2.39
860.589	-81.58
860.763	14.68
860.938	-79.53
861.112	57.68
861.286	-81.58
861.46	47.44
861.634	-22.19
861.808	65.88
861.982	-46.76
862.157	-110.25
862.331	-30.38
862.505	-126.63
862.679	-102.06
862.853	-93.87
863.027	-97.96
863.201	188.75
863.375	-79.53
863.549	14.68
863.722	-11.95
863.896	72.02
864.07	-75.43
864.244	35.16
864.418	14.68
864.592	10.58
864.766	-5.8
864.939	-18.09
865.113	-112.3
865.287	59.73
865.461	-40.62
865.634	14.68
865.808	-24.23
865.982	37.2
866.156	-1.71
866.329	-130.73
866.503	0.34
866.676	20.82
866.85	2.39
867.024	-26.28
867.197	-1.71
867.371	16.73
867.544	33.11
867.718	-81.58
867.891	72.02
868.065	-54.95
868.238	0.34
868.412	41.3
868.585	-81.58
868.759	-143.02
868.932	-18.09
869.105	-151.21
869.279	88.4
869.452	-71.34
869.625	26.96
869.799	-112.3
869.972	-73.39
870.145	-9.9
870.319	-54.95
870.492	-91.82
870.665	-32.43
870.838	-83.63
871.011	-143.02
871.185	-67.24
871.358	-63.15
871.531	-13.99
871.704	-102.06
871.877	-28.33
872.05	-46.76
872.223	-87.72
872.396	65.88
872.569	-3.75
872.742	-65.19
872.915	-89.77
873.088	-38.57
873.261	-69.29
873.434	20.82
873.607	-38.57
873.78	74.07
873.953	-136.87
874.126	-26.28
874.299	4.44
874.471	-22.19
874.644	-9.9
874.817	-16.04
874.99	16.73
875.163	-20.14
875.335	63.83
875.508	-71.34
875.681	45.4
875.853	-71.34
876.026	-36.52
876.199	29.01
876.371	-13.99
876.544	-77.48
876.717	-13.99
876.889	-11.95
877.062	18.77
877.234	-61.1
877.407	-89.77
877.579	-46.76
877.752	12.63
877.924	88.4
878.097	4.44
878.269	45.4
878.442	43.35
878.614	-1.71
878.786	-1.71
878.959	-34.47
879.131	31.06
879.303	-87.72
879.476	10.58
879.648	106.84
879.82	-71.34
879.993	4.44
880.165	-9.9
880.337	-153.26
880.509	-69.29
880.681	-161.45
880.854	-26.28
881.026	90.45
881.198	160.08
881.37	-11.95
881.542	-91.82
881.714	-97.96
881.886	-5.8
882.058	-67.24
882.23	-18.09
882.402	-38.57
882.574	84.31
882.746	108.88
882.918	26.96
883.09	26.96
883.262	-13.99
883.434	18.77
883.606	-75.43
883.778	-44.71
883.95	137.56
884.122	-61.1
884.293	-11.95
884.465	18.77
884.637	72.02
884.809	-52.91
884.98	2.39
885.152	16.73
885.324	-22.19
885.496	-59.05
885.667	-40.62
885.839	-36.52
886.011	80.21
886.182	-24.23
886.354	14.68
886.525	-67.24
886.697	8.53
886.869	-120.49
887.04	10.58
887.212	57.68
887.383	108.88
887.555	-48.81
887.726	-59.05
887.897	-63.15
888.069	-57
888.24	10.58
888.412	-28.33
888.583	-34.47
888.754	4.44
888.926	-138.92
889.097	-28.33
889.268	-75.43
889.44	-59.05
889.611	-81.58
889.782	-134.82
889.953	-157.35
890.125	129.36
890.296	-161.45
890.467	-57
890.638	-50.86
890.809	-71.34
890.98	-89.77
891.151	63.83
891.323	43.35
891.494	-36.52
891.665	8.53
891.836	0.34
892.007	22.87
892.178	39.25
892.349	-32.43
892.52	-75.43
892.691	-28.33
892.862	-5.8
893.032	-91.82
893.203	-34.47
893.374	-30.38
893.545	12.63
893.716	-65.19
893.887	29.01
894.057	-50.86
894.228	12.63
894.399	-124.58
894.57	0.34
894.74	-85.67
894.911	-26.28
895.082	4.44
895.253	-65.19
895.423	-73.39
895.594	39.25
895.764	20.82
895.935	-13.99
896.106	35.16
896.276	-67.24
896.447	33.11
896.617	-169.64
896.788	-122.54
896.958	-57
897.129	-34.47
897.299	-77.48
897.47	102.74
897.64	67.92
897.81	-69.29
897.981	67.92
898.151	-91.82
898.322	33.11
898.492	10.58
898.662	-116.39
898.832	-122.54
899.003	-20.14
899.173	92.5
899.343	-48.81
899.513	-85.67
