Data from USB4F104151__32__10-42-29-582.txt Node

Date: Wed Feb 26 10:42:29 EST 2025
User: louis
Spectrometer: USB4F10415
Trigger mode: 4
Integration Time (sec): 1.000000E-1
Scans to average: 1
Electric dark correction enabled: true
Nonlinearity correction enabled: false
Boxcar width: 0
XAxis mode: Wavelengths
Number of Pixels in Spectrum: 3648
>>>>>Begin Spectral Data<<<<<
178.204	-384.85
178.424	-384.85
178.644	-384.85
178.864	-431.95
179.084	-434
179.304	-53.08
179.524	-55.12
179.744	-20.31
179.964	108.71
180.184	59.56
180.404	47.27
180.624	49.32
180.844	61.61
181.064	-46.93
181.283	-16.21
181.503	-91.99
181.723	-42.84
181.943	-34.64
182.163	198.82
182.383	-112.47
182.602	63.66
182.822	186.54
183.042	47.27
183.262	-67.41
183.482	110.76
183.701	26.79
183.921	88.23
184.141	-42.84
184.361	20.65
184.58	121
184.8	30.89
185.02	-34.64
185.239	157.86
185.459	137.38
185.679	37.03
185.898	-63.32
186.118	100.52
186.338	8.36
186.557	116.9
186.777	30.89
186.997	41.13
187.216	65.71
187.436	157.86
187.655	20.65
187.875	41.13
188.095	67.75
188.314	94.38
188.534	69.8
188.753	-89.94
188.973	151.72
189.192	186.54
189.412	24.75
189.631	59.56
189.851	51.37
190.07	112.81
190.29	-22.36
190.509	28.84
190.729	82.09
190.948	151.72
191.168	170.15
191.387	80.04
191.607	41.13
191.826	86.19
192.045	71.85
192.265	24.75
192.484	96.43
192.704	63.66
192.923	-81.75
193.142	153.77
193.362	102.57
193.581	170.15
193.8	53.42
194.02	98.47
194.239	80.04
194.458	98.47
194.678	-42.84
194.897	-40.79
195.116	80.04
195.335	41.13
195.555	67.75
195.774	8.36
195.993	145.58
196.212	-63.32
196.432	43.18
196.651	-48.98
196.87	-24.4
197.089	258.21
197.308	53.42
197.528	65.71
197.747	-57.17
197.966	28.84
198.185	123.05
198.404	10.41
198.623	125.1
198.842	147.62
199.062	186.54
199.281	14.51
199.5	55.47
199.719	90.28
199.938	80.04
200.157	65.71
200.376	34.99
200.595	88.23
200.814	75.95
201.033	-57.17
201.252	166.06
201.471	63.66
201.69	153.77
201.909	32.94
202.128	57.51
202.347	43.18
202.566	18.6
202.785	-16.21
203.004	-53.08
203.223	241.83
203.442	20.65
203.661	-91.99
203.879	80.04
204.098	153.77
204.317	-12.12
204.536	121
204.755	104.62
204.974	92.33
205.193	-3.93
205.411	180.39
205.63	88.23
205.849	96.43
206.068	-3.93
206.287	-14.17
206.505	127.14
206.724	57.51
206.943	51.37
207.162	67.75
207.381	75.95
207.599	-1.88
207.818	37.03
208.037	4.27
208.255	71.85
208.474	47.27
208.693	86.19
208.911	-20.31
209.13	94.38
209.349	86.19
209.567	77.99
209.786	114.86
210.005	55.47
210.223	80.04
210.442	-112.47
210.661	-18.26
210.879	86.19
211.098	98.47
211.316	121
211.535	102.57
211.753	102.57
211.972	59.56
212.191	-24.4
212.409	43.18
212.628	-22.36
212.846	-32.6
213.065	82.09
213.283	88.23
213.502	55.47
213.72	-20.31
213.938	65.71
214.157	63.66
214.375	125.1
214.594	143.53
214.812	39.08
215.031	-24.4
215.249	114.86
215.467	94.38
215.686	-22.36
215.904	39.08
216.122	26.79
216.341	186.54
216.559	-8.02
216.778	133.29
216.996	166.06
217.214	98.47
217.432	30.89
217.651	-46.93
217.869	24.75
218.087	63.66
218.306	20.65
218.524	43.18
218.742	-28.5
218.96	59.56
219.179	37.03
219.397	45.23
219.615	243.88
219.833	168.1
220.051	-12.12
220.27	98.47
220.488	43.18
220.706	88.23
220.924	47.27
221.142	-10.07
221.36	41.13
221.578	104.62
221.796	57.51
222.015	75.95
222.233	127.14
222.451	112.81
222.669	-120.66
222.887	92.33
223.105	-81.75
223.323	47.27
223.541	-67.41
223.759	67.75
223.977	114.86
224.195	110.76
224.413	77.99
224.631	37.03
224.849	14.51
225.067	153.77
225.285	41.13
225.503	-10.07
225.721	-48.98
225.939	129.19
226.157	98.47
226.375	137.38
226.592	10.41
226.81	-40.79
227.028	184.49
227.246	65.71
227.464	20.65
227.682	69.8
227.9	92.33
228.117	28.84
228.335	141.48
228.553	39.08
228.771	39.08
228.989	59.56
229.206	67.75
229.424	12.46
229.642	-38.74
229.86	-10.07
230.077	141.48
230.295	100.52
230.513	59.56
230.731	139.43
230.948	131.24
231.166	207.02
231.384	10.41
231.601	-63.32
231.819	77.99
232.037	8.36
232.254	-79.7
232.472	-30.55
232.689	2.22
232.907	170.15
233.125	8.36
233.342	37.03
233.56	20.65
233.777	20.65
233.995	18.6
234.213	129.19
234.43	135.34
234.648	69.8
234.865	10.41
235.083	80.04
235.3	59.56
235.518	77.99
235.735	84.14
235.953	75.95
236.17	-14.17
236.388	71.85
236.605	168.1
236.822	14.51
237.04	102.57
237.257	37.03
237.475	-22.36
237.692	10.41
237.909	151.72
238.127	30.89
238.344	77.99
238.562	55.47
238.779	-83.8
238.996	-48.98
239.214	67.75
239.431	84.14
239.648	-71.51
239.865	16.55
240.083	110.76
240.3	57.51
240.517	12.46
240.735	104.62
240.952	215.21
241.169	47.27
241.386	77.99
241.603	75.95
241.821	-10.07
242.038	59.56
242.255	67.75
242.472	24.75
242.689	94.38
242.907	26.79
243.124	30.89
243.341	65.71
243.558	-12.12
243.775	-53.08
243.992	-65.36
244.209	98.47
244.426	200.87
244.643	63.66
244.86	53.42
245.078	102.57
245.295	37.03
245.512	41.13
245.729	-67.41
245.946	133.29
246.163	30.89
246.38	63.66
246.597	98.47
246.814	94.38
247.031	77.99
247.248	102.57
247.464	184.49
247.681	20.65
247.898	71.85
248.115	49.32
248.332	-8.02
248.549	104.62
248.766	186.54
248.983	108.71
249.2	102.57
249.417	129.19
249.633	26.79
249.85	57.51
250.067	106.67
250.284	39.08
250.501	90.28
250.717	100.52
250.934	0.17
251.151	-20.31
251.368	-8.02
251.585	28.84
251.801	77.99
252.018	-40.79
252.235	55.47
252.451	53.42
252.668	-10.07
252.885	80.04
253.102	-48.98
253.318	-24.4
253.535	-16.21
253.752	-36.69
253.968	-30.55
254.185	-106.32
254.401	65.71
254.618	51.37
254.835	26.79
255.051	69.8
255.268	22.7
255.484	65.71
255.701	45.23
255.917	69.8
256.134	-30.55
256.351	-12.12
256.567	-12.12
256.784	-22.36
257	-89.94
257.217	112.81
257.433	106.67
257.65	125.1
257.866	94.38
258.082	-18.26
258.299	-34.64
258.515	90.28
258.732	41.13
258.948	-1.88
259.165	26.79
259.381	55.47
259.597	96.43
259.814	26.79
260.03	51.37
260.246	20.65
260.463	-3.93
260.679	73.9
260.895	34.99
261.112	108.71
261.328	16.55
261.544	34.99
261.761	221.35
261.977	-24.4
262.193	-91.99
262.409	75.95
262.626	77.99
262.842	51.37
263.058	67.75
263.274	145.58
263.49	49.32
263.707	114.86
263.923	108.71
264.139	-61.27
264.355	-42.84
264.571	61.61
264.787	67.75
265.004	112.81
265.22	47.27
265.436	2.22
265.652	10.41
265.868	53.42
266.084	-28.5
266.3	53.42
266.516	6.31
266.732	-24.4
266.948	65.71
267.164	20.65
267.38	80.04
267.596	26.79
267.812	80.04
268.028	104.62
268.244	8.36
268.46	77.99
268.676	67.75
268.892	131.24
269.108	-44.88
269.324	-42.84
269.54	-30.55
269.756	133.29
269.972	-24.4
270.188	-18.26
270.403	-46.93
270.619	55.47
270.835	141.48
271.051	41.13
271.267	88.23
271.483	57.51
271.698	90.28
271.914	80.04
272.13	30.89
272.346	20.65
272.562	90.28
272.777	133.29
272.993	0.17
273.209	12.46
273.425	98.47
273.64	-36.69
273.856	49.32
274.072	-65.36
274.287	-32.6
274.503	149.67
274.719	73.9
274.934	34.99
275.15	-63.32
275.366	37.03
275.581	-5.97
275.797	-3.93
276.012	63.66
276.228	-59.22
276.444	-3.93
276.659	104.62
276.875	-5.97
277.09	-61.27
277.306	20.65
277.521	102.57
277.737	-51.03
277.952	51.37
278.168	30.89
278.383	61.61
278.599	55.47
278.814	127.14
279.03	37.03
279.245	161.96
279.461	137.38
279.676	92.33
279.892	-28.5
280.107	-26.45
280.322	-40.79
280.538	24.75
280.753	47.27
280.969	41.13
281.184	47.27
281.399	164.01
281.615	0.17
281.83	86.19
282.045	6.31
282.26	-3.93
282.476	49.32
282.691	127.14
282.906	49.32
283.122	24.75
283.337	45.23
283.552	172.2
283.767	22.7
283.983	112.81
284.198	2.22
284.413	92.33
284.628	-26.45
284.843	24.75
285.058	80.04
285.274	41.13
285.489	18.6
285.704	137.38
285.919	10.41
286.134	71.85
286.349	20.65
286.564	-8.02
286.779	192.68
286.995	14.51
287.21	-8.02
287.425	114.86
287.64	67.75
287.855	45.23
288.07	10.41
288.285	133.29
288.5	67.75
288.715	39.08
288.93	6.31
289.145	-42.84
289.36	65.71
289.575	121
289.79	131.24
290.004	65.71
290.219	106.67
290.434	-26.45
290.649	-3.93
290.864	-40.79
291.079	37.03
291.294	22.7
291.509	30.89
291.724	-26.45
291.938	96.43
292.153	51.37
292.368	30.89
292.583	135.34
292.798	139.43
293.012	88.23
293.227	123.05
293.442	24.75
293.657	53.42
293.871	106.67
294.086	28.84
294.301	211.11
294.516	135.34
294.73	94.38
294.945	-69.46
295.16	22.7
295.374	172.2
295.589	131.24
295.804	41.13
296.018	59.56
296.233	80.04
296.447	84.14
296.662	-18.26
296.877	53.42
297.091	100.52
297.306	12.46
297.52	12.46
297.735	110.76
297.949	37.03
298.164	43.18
298.378	98.47
298.593	-26.45
298.807	28.84
299.022	-1.88
299.236	135.34
299.451	47.27
299.665	26.79
299.88	37.03
300.094	45.23
300.309	-8.02
300.523	92.33
300.737	-20.31
300.952	100.52
301.166	77.99
301.381	41.13
301.595	26.79
301.809	77.99
302.024	104.62
302.238	-26.45
302.452	155.82
302.667	18.6
302.881	133.29
303.095	88.23
303.309	73.9
303.524	-53.08
303.738	6.31
303.952	59.56
304.166	41.13
304.381	-89.94
304.595	125.1
304.809	47.27
305.023	63.66
305.237	2.22
305.452	6.31
305.666	102.57
305.88	69.8
306.094	96.43
306.308	45.23
306.522	106.67
306.736	18.6
306.95	82.09
307.164	37.03
307.379	53.42
307.593	92.33
307.807	110.76
308.021	55.47
308.235	6.31
308.449	-34.64
308.663	-48.98
308.877	293.03
309.091	41.13
309.305	12.46
309.519	-51.03
309.733	106.67
309.947	-79.7
310.161	65.71
310.374	131.24
310.588	108.71
310.802	-3.93
311.016	-8.02
311.23	39.08
311.444	-46.93
311.658	63.66
311.872	131.24
312.085	159.91
312.299	250.02
312.513	149.67
312.727	63.66
312.941	10.41
313.154	41.13
313.368	61.61
313.582	12.46
313.796	100.52
314.009	18.6
314.223	102.57
314.437	24.75
314.651	49.32
314.864	71.85
315.078	71.85
315.292	-141.14
315.505	49.32
315.719	100.52
315.933	75.95
316.146	22.7
316.36	14.51
316.573	157.86
316.787	153.77
317.001	106.67
317.214	4.27
317.428	108.71
317.641	-30.55
317.855	-26.45
318.068	20.65
318.282	73.9
318.495	172.2
318.709	98.47
318.922	59.56
319.136	176.3
319.349	125.1
319.563	-44.88
319.776	80.04
319.99	-14.17
320.203	41.13
320.417	32.94
320.63	82.09
320.843	137.38
321.057	53.42
321.27	-10.07
321.483	133.29
321.697	186.54
321.91	20.65
322.124	82.09
322.337	34.99
322.55	-57.17
322.763	75.95
322.977	47.27
323.19	-18.26
323.403	16.55
323.617	127.14
323.83	14.51
324.043	-30.55
324.256	110.76
324.469	-73.56
324.683	123.05
324.896	59.56
325.109	45.23
325.322	12.46
325.535	82.09
325.748	77.99
325.962	82.09
326.175	49.32
326.388	-36.69
326.601	80.04
326.814	-16.21
327.027	-3.93
327.24	80.04
327.453	-77.65
327.666	114.86
327.879	135.34
328.092	67.75
328.305	104.62
328.518	71.85
328.731	-63.32
328.944	53.42
329.157	118.95
329.37	41.13
329.583	133.29
329.796	67.75
330.009	18.6
330.222	104.62
330.435	149.67
330.648	77.99
330.861	10.41
331.073	69.8
331.286	141.48
331.499	10.41
331.712	28.84
331.925	22.7
332.138	100.52
332.35	77.99
332.563	-34.64
332.776	174.25
332.989	-22.36
333.202	61.61
333.414	51.37
333.627	24.75
333.84	4.27
334.053	24.75
334.265	4.27
334.478	88.23
334.691	16.55
334.903	84.14
335.116	8.36
335.329	28.84
335.541	73.9
335.754	141.48
335.966	6.31
336.179	59.56
336.392	12.46
336.604	-10.07
336.817	94.38
337.029	73.9
337.242	61.61
337.454	141.48
337.667	135.34
337.88	116.9
338.092	37.03
338.305	143.53
338.517	-63.32
338.729	125.1
338.942	151.72
339.154	-44.88
339.367	43.18
339.579	184.49
339.792	-34.64
340.004	100.52
340.217	123.05
340.429	28.84
340.641	-16.21
340.854	-30.55
341.066	-5.97
341.278	98.47
341.491	225.45
341.703	45.23
341.915	49.32
342.128	18.6
342.34	63.66
342.552	-5.97
342.764	86.19
342.977	71.85
343.189	41.13
343.401	121
343.613	-3.93
343.826	22.7
344.038	4.27
344.25	82.09
344.462	26.79
344.674	71.85
344.886	75.95
345.099	30.89
345.311	98.47
345.523	32.94
345.735	-18.26
345.947	65.71
346.159	37.03
346.371	8.36
346.583	20.65
346.795	182.44
347.007	28.84
347.219	88.23
347.431	51.37
347.643	108.71
347.855	30.89
348.067	127.14
348.279	37.03
348.491	45.23
348.703	-53.08
348.915	-30.55
349.127	39.08
349.339	32.94
349.551	-24.4
349.763	92.33
349.975	-3.93
350.187	82.09
350.399	118.95
350.61	116.9
350.822	16.55
351.034	75.95
351.246	73.9
351.458	106.67
351.669	63.66
351.881	49.32
352.093	121
352.305	121
352.517	63.66
352.728	188.58
352.94	-3.93
353.152	51.37
353.363	-16.21
353.575	155.82
353.787	164.01
353.999	39.08
354.21	92.33
354.422	10.41
354.633	67.75
354.845	116.9
355.057	-10.07
355.268	55.47
355.48	88.23
355.692	-65.36
355.903	80.04
356.115	37.03
356.326	61.61
356.538	75.95
356.749	84.14
356.961	178.34
357.172	61.61
357.384	-30.55
357.595	239.78
357.807	24.75
358.018	-16.21
358.23	63.66
358.441	180.39
358.653	45.23
358.864	45.23
359.075	-38.74
359.287	77.99
359.498	106.67
359.709	182.44
359.921	49.32
360.132	34.99
360.344	125.1
360.555	-71.51
360.766	127.14
360.977	8.36
361.189	153.77
361.4	6.31
361.611	174.25
361.823	59.56
362.034	24.75
362.245	80.04
362.456	51.37
362.667	149.67
362.879	43.18
363.09	73.9
363.301	59.56
363.512	18.6
363.723	6.31
363.935	57.51
364.146	94.38
364.357	49.32
364.568	-24.4
364.779	-36.69
364.99	155.82
365.201	14.51
365.412	106.67
365.623	-46.93
365.834	55.47
366.045	22.7
366.256	106.67
366.467	112.81
366.678	-48.98
366.889	34.99
367.1	-26.45
367.311	100.52
367.522	-46.93
367.733	63.66
367.944	147.62
368.155	-51.03
368.366	114.86
368.577	170.15
368.788	145.58
368.999	-147.28
369.209	77.99
369.42	159.91
369.631	221.35
369.842	129.19
370.053	32.94
370.264	157.86
370.474	0.17
370.685	71.85
370.896	-16.21
371.107	151.72
371.317	118.95
371.528	41.13
371.739	77.99
371.95	65.71
372.16	110.76
372.371	-24.4
372.582	-57.17
372.792	53.42
373.003	32.94
373.214	129.19
373.424	159.91
373.635	18.6
373.846	123.05
374.056	90.28
374.267	96.43
374.477	30.89
374.688	-30.55
374.898	77.99
375.109	69.8
375.319	166.06
375.53	161.96
375.74	47.27
375.951	57.51
376.161	82.09
376.372	217.26
376.582	10.41
376.793	34.99
377.003	-22.36
377.214	6.31
377.424	94.38
377.635	16.55
377.845	55.47
378.055	114.86
378.266	-3.93
378.476	24.75
378.686	108.71
378.897	135.34
379.107	90.28
379.317	39.08
379.528	24.75
379.738	77.99
379.948	30.89
380.158	88.23
380.369	69.8
380.579	86.19
380.789	61.61
380.999	98.47
381.21	155.82
381.42	151.72
381.63	61.61
381.84	82.09
382.05	84.14
382.261	106.67
382.471	182.44
382.681	22.7
382.891	92.33
383.101	69.8
383.311	49.32
383.521	37.03
383.731	71.85
383.941	100.52
384.151	94.38
384.361	84.14
384.571	133.29
384.781	26.79
384.991	252.07
385.201	225.45
385.411	67.75
385.621	98.47
385.831	32.94
386.041	116.9
386.251	10.41
386.461	137.38
386.671	63.66
386.881	55.47
387.091	-53.08
387.301	47.27
387.511	28.84
387.72	24.75
387.93	127.14
388.14	-14.17
388.35	53.42
388.56	180.39
388.769	155.82
388.979	77.99
389.189	-42.84
389.399	61.61
389.609	180.39
389.818	112.81
390.028	82.09
390.238	147.62
390.447	-36.69
390.657	37.03
390.867	-8.02
391.076	-51.03
391.286	82.09
391.496	30.89
391.705	-3.93
391.915	98.47
392.125	135.34
392.334	-73.56
392.544	180.39
392.753	26.79
392.963	26.79
393.172	45.23
393.382	-3.93
393.591	182.44
393.801	2.22
394.01	135.34
394.22	118.95
394.429	4.27
394.639	12.46
394.848	104.62
395.058	6.31
395.267	24.75
395.477	67.75
395.686	159.91
395.895	243.88
396.105	219.3
396.314	131.24
396.524	94.38
396.733	41.13
396.942	59.56
397.152	73.9
397.361	110.76
397.57	12.46
397.78	53.42
397.989	49.32
398.198	180.39
398.407	53.42
398.617	63.66
398.826	18.6
399.035	-1.88
399.244	200.87
399.453	-12.12
399.663	37.03
399.872	39.08
400.081	-5.97
400.29	151.72
400.499	22.7
400.708	133.29
400.917	84.14
401.127	94.38
401.336	-53.08
401.545	217.26
401.754	147.62
401.963	106.67
402.172	57.51
402.381	-36.69
402.59	67.75
402.799	32.94
403.008	20.65
403.217	32.94
403.426	82.09
403.635	-5.97
403.844	10.41
404.053	37.03
404.262	-26.45
404.471	94.38
404.68	61.61
404.888	28.84
405.097	30.89
405.306	114.86
405.515	102.57
405.724	77.99
405.933	88.23
406.142	63.66
406.35	139.43
406.559	57.51
406.768	133.29
406.977	245.93
407.185	102.57
407.394	108.71
407.603	-1.88
407.812	166.06
408.02	114.86
408.229	-28.5
408.438	92.33
408.646	-73.56
408.855	159.91
409.064	155.82
409.272	92.33
409.481	125.1
409.69	-14.17
409.898	20.65
410.107	116.9
410.315	112.81
410.524	-24.4
410.733	65.71
410.941	2.22
411.15	186.54
411.358	6.31
411.567	166.06
411.775	86.19
411.984	-44.88
412.192	127.14
412.401	4.27
412.609	151.72
412.818	190.63
413.026	176.3
413.234	-24.4
413.443	10.41
413.651	-3.93
413.86	67.75
414.068	153.77
414.276	229.54
414.485	-44.88
414.693	178.34
414.901	159.91
415.11	73.9
415.318	63.66
415.526	69.8
415.734	182.44
415.943	90.28
416.151	137.38
416.359	2.22
416.567	63.66
416.776	118.95
416.984	53.42
417.192	137.38
417.4	14.51
417.608	-10.07
417.817	14.51
418.025	182.44
418.233	164.01
418.441	-1.88
418.649	22.7
418.857	149.67
419.065	186.54
419.273	24.75
419.481	39.08
419.689	77.99
419.897	39.08
420.105	-57.17
420.313	139.43
420.521	182.44
420.729	213.16
420.937	16.55
421.145	-26.45
421.353	135.34
421.561	141.48
421.769	114.86
421.977	16.55
422.185	159.91
422.393	47.27
422.601	94.38
422.809	125.1
423.017	145.58
423.224	57.51
423.432	147.62
423.64	53.42
423.848	98.47
424.056	-12.12
424.263	174.25
424.471	75.95
424.679	180.39
424.887	-73.56
425.094	149.67
425.302	131.24
425.51	80.04
425.718	118.95
425.925	131.24
426.133	65.71
426.341	266.41
426.548	37.03
426.756	53.42
426.964	129.19
427.171	34.99
427.379	194.73
427.586	16.55
427.794	59.56
428.001	202.92
428.209	65.71
428.417	166.06
428.624	149.67
428.832	69.8
429.039	166.06
429.247	161.96
429.454	209.06
429.662	235.69
429.869	147.62
430.076	118.95
430.284	274.6
430.491	243.88
430.699	196.78
430.906	252.07
431.114	200.87
431.321	139.43
431.528	84.14
431.736	209.06
431.943	192.68
432.15	168.1
432.358	172.2
432.565	313.51
432.772	49.32
432.979	241.83
433.187	155.82
433.394	280.74
433.601	237.74
433.808	256.17
434.016	325.8
434.223	227.5
434.43	295.08
434.637	309.41
434.844	344.23
435.052	270.5
435.259	393.38
435.466	301.22
435.673	239.78
435.88	290.98
436.087	379.04
436.294	389.28
436.501	385.19
436.708	315.56
436.915	393.38
437.122	508.07
437.329	379.04
437.537	395.43
437.743	434.34
437.95	491.68
438.157	530.59
438.364	467.11
438.571	467.11
438.778	577.7
438.985	583.84
439.192	544.93
439.399	506.02
439.606	600.23
439.813	579.75
440.02	721.06
440.227	839.84
440.433	649.38
440.64	778.4
440.847	676
441.054	790.69
441.261	835.74
441.467	827.55
441.674	800.93
441.881	983.2
442.088	825.5
442.294	975
442.501	991.39
442.708	1056.92
442.914	1079.45
443.121	1120.41
443.328	1118.36
443.534	1286.3
443.741	1202.33
443.948	1044.63
444.154	1237.14
444.361	1439.89
444.568	1310.87
444.774	1327.25
444.981	1296.53
445.187	1597.59
445.394	1517.72
445.6	1439.89
445.807	1726.61
446.013	1687.7
446.22	1650.83
446.426	1929.36
446.633	1955.98
446.839	2189.45
447.046	1824.91
447.252	2117.77
447.459	2082.95
447.665	2218.12
447.871	2314.38
448.078	2459.78
448.284	2508.93
448.491	2642.05
448.697	2805.89
448.903	2762.88
449.11	2848.9
449.316	2852.99
449.522	3139.71
449.728	3182.71
449.935	3354.74
450.141	3266.68
450.347	3657.84
450.553	3567.73
450.76	3588.21
450.966	4022.38
451.172	4040.81
451.378	4165.74
451.584	4206.7
451.791	4575.33
451.997	4696.16
452.203	4716.64
452.409	4976.73
452.615	5132.38
452.821	5216.35
453.027	5140.57
453.233	5810.26
453.44	5505.11
453.646	5926.99
453.852	6033.49
454.058	6432.84
454.264	6496.33
454.47	6977.6
454.676	7034.94
454.882	7745.59
455.088	7428.15
455.294	7903.28
455.5	8245.29
455.705	8691.75
455.911	8615.98
456.117	9066.53
456.323	9265.18
456.529	9441.31
456.735	10078.22
456.941	10252.3
457.147	10731.53
457.352	10905.6
457.558	11317.25
457.764	12152.82
457.97	12277.74
458.176	12896.23
458.381	13610.97
458.587	13733.85
458.793	14352.34
458.999	14499.79
459.204	16373.68
459.41	16908.2
459.616	16619.44
459.821	17506.21
460.027	18032.54
460.233	19101.58
460.438	19046.28
460.644	20053.88
460.85	20442.99
461.055	21520.23
461.261	22294.36
461.466	21782.37
461.672	21933.92
461.878	25141.04
462.083	24790.83
462.289	25122.6
462.494	26021.66
462.7	26363.67
462.905	26840.85
463.111	28772.08
463.316	30174.94
463.522	30844.63
463.727	31862.47
463.932	32882.36
464.138	34080.42
464.343	35362.45
464.549	35362.45
464.754	37854.83
464.959	39003.74
465.165	39532.11
465.37	39282.26
465.575	39339.6
465.781	41793.07
465.986	43427.35
466.191	42485.28
466.397	43382.29
466.602	42212.9
466.807	44490.24
467.012	44922.37
467.218	46288.36
467.423	45809.14
467.628	47521.24
467.833	49886.64
468.038	48954.82
468.244	48154.06
468.449	50013.62
468.654	49098.17
468.859	49391.03
469.064	49247.68
469.269	48115.15
469.474	48719.3
469.679	49909.17
469.885	48719.3
470.09	49626.55
470.295	49597.88
470.5	48258.51
470.705	48913.86
470.91	47640.02
471.115	47140.32
471.32	47717.84
471.525	47486.42
471.73	46366.18
471.935	46224.87
472.139	44049.93
472.344	44201.48
472.549	43746.83
472.754	43122.2
472.959	42249.77
473.164	41014.84
473.369	40300.1
473.574	41711.15
473.778	40482.37
473.983	39853.64
474.188	39229.01
474.393	37779.05
474.598	37383.79
474.802	36568.7
475.007	36185.73
475.212	35563.15
475.417	34326.17
475.621	33951.4
475.826	33715.88
476.031	32515.77
476.235	32235.2
476.44	32317.12
476.645	31426.25
476.849	30998.23
477.054	30781.14
477.259	29452.01
477.463	29961.95
477.668	29130.48
477.872	28940.02
478.077	28339.96
478.282	27248.39
478.486	27397.9
478.691	26912.53
478.895	26539.8
479.1	26345.24
479.304	26015.52
479.509	25495.33
479.713	25843.49
479.918	25300.78
480.122	24694.58
480.326	25028.4
480.531	24969.01
480.735	24872.75
480.94	24125.24
481.144	24741.68
481.348	23578.43
481.553	23764.8
481.757	23394.12
481.961	23367.49
482.166	23289.67
482.37	23295.82
482.574	22351.7
482.778	22450
482.983	23242.57
483.187	22546.26
483.391	22312.79
483.595	22243.16
483.8	21792.61
484.004	21759.84
484.208	21761.89
484.412	21473.12
484.616	21186.41
484.821	21077.87
485.025	20189.05
485.229	20268.92
485.433	20008.83
485.637	19828.6
485.841	19408.77
486.045	19588.99
486.249	19511.17
486.453	18839.44
486.657	18616.21
486.861	18309.01
487.065	17530.78
487.269	17768.35
487.473	17364.9
487.677	17475.49
487.881	17149.86
488.085	16664.49
488.289	16713.64
488.493	15984.57
488.697	16003
488.901	15562.69
489.105	15265.73
489.309	15245.25
489.512	14981.06
489.716	14493.65
489.92	14288.85
490.124	13950.93
490.328	13985.75
490.531	13303.78
490.735	13496.28
490.939	13094.88
491.143	12914.66
491.346	12546.03
491.55	12670.95
491.754	12251.12
491.958	12025.84
492.161	12034.04
492.365	11675.64
492.569	11390.97
492.772	11476.99
492.976	11229.18
493.18	10934.28
493.383	11014.15
493.587	10747.91
493.79	10913.8
493.994	10444.81
494.197	10477.58
494.401	10303.5
494.605	10246.16
494.808	10225.68
495.012	10080.27
495.215	9990.16
495.419	9736.21
495.622	9590.81
495.825	9719.83
496.029	9408.54
496.232	9562.14
496.436	9422.87
496.639	9725.97
496.843	9486.36
497.046	9529.37
497.249	9603.1
497.453	9435.16
497.656	9611.29
497.859	9316.38
498.063	9691.16
498.266	9830.42
498.469	9392.16
498.673	9447.45
498.876	9803.8
499.079	9682.97
499.282	9601.05
499.485	9732.12
499.689	9605.14
499.892	9721.88
500.095	9691.16
500.298	9834.52
500.501	9836.56
500.705	10027.03
500.908	10094.61
501.111	10186.77
501.314	10104.85
501.517	10285.07
501.72	10352.65
501.923	10362.89
502.126	10393.61
502.329	10823.69
502.532	10741.77
502.735	10797.06
502.938	11137.02
503.141	10973.19
503.344	11116.55
503.547	11522.04
503.75	11354.11
503.953	11608.06
504.156	11675.64
504.359	11859.96
504.562	12056.56
504.765	12304.37
504.968	12322.8
505.17	12638.19
505.373	12677.1
505.576	13101.03
505.779	13129.7
505.982	13000.68
506.185	13680.6
506.387	13522.91
506.59	13963.22
506.793	14159.83
506.996	14223.31
507.198	14899.14
507.401	14903.24
507.604	15255.49
507.807	15507.39
508.009	15783.87
508.212	16082.87
508.415	16248.75
508.617	16414.64
508.82	16875.43
509.022	17274.79
509.225	17797.02
509.428	17854.36
509.63	18544.53
509.833	18464.66
510.035	19496.83
510.238	19451.78
510.44	19933.05
510.643	20522.87
510.845	20799.34
511.048	20926.32
511.25	21583.71
511.453	21944.16
511.655	23168.84
511.858	23109.45
512.06	23707.46
512.262	24051.52
512.465	24313.66
512.667	25040.68
512.87	25775.91
513.072	26240.79
513.274	26547.99
513.477	27301.64
513.679	27934.46
513.881	28882.67
514.084	29392.62
514.286	29638.37
514.488	30332.64
514.69	31362.76
514.893	31704.77
515.095	32102.08
515.297	33113.78
515.499	33349.29
515.701	34459.29
515.904	35364.5
516.106	35630.73
516.308	36402.82
516.51	36828.79
516.712	37107.32
516.914	38209.12
517.116	39319.12
517.318	39409.23
517.52	40523.33
517.722	41358.9
517.925	42305.06
518.127	43021.85
518.329	43642.38
518.531	43544.08
518.733	44922.37
518.935	45571.57
519.136	45897.2
519.338	46654.95
519.54	47549.91
519.742	48283.08
519.944	48807.36
520.146	49735.09
520.348	49972.66
520.55	50412.97
520.752	51062.18
520.954	52094.35
521.155	51846.55
521.357	53175.68
521.559	53456.25
521.761	54541.67
521.963	54750.57
522.164	55235.94
522.366	55172.45
522.568	55674.2
522.77	56321.36
522.971	57103.68
523.173	56843.59
523.375	57222.47
523.576	57181.51
523.778	57347.39
523.98	58203.44
524.181	58004.79
524.383	58770.73
524.584	59198.76
524.786	58832.17
524.988	58445.1
525.189	59098.4
525.391	59284.77
525.592	59098.4
525.794	59039.01
525.995	59151.65
526.197	59180.32
526.398	58985.77
526.6	58959.14
526.801	58772.78
527.003	58703.15
527.204	58697
527.406	58688.81
527.607	58017.08
527.808	58455.34
528.01	57013.57
528.211	57345.34
528.412	57972.02
528.614	57044.29
528.815	56401.23
529.016	56837.45
529.218	55817.56
529.419	55319.9
529.62	54889.83
529.822	53955.96
530.023	53906.8
530.224	53060.99
530.425	52696.45
530.626	51899.79
530.828	51266.97
531.029	51905.94
531.23	50236.84
531.431	50161.07
531.632	49755.57
531.833	49460.66
532.035	48692.68
532.236	48344.52
532.437	47848.91
532.638	46804.45
532.839	46814.69
533.04	46251.5
533.241	44891.65
533.442	45192.7
533.643	43712.02
533.844	43838.99
534.045	43269.65
534.246	42309.16
534.447	41807.4
534.648	41307.7
534.849	41109.05
535.05	40162.89
535.251	39648.85
535.451	39040.6
535.652	39151.19
535.853	37926.5
536.054	37946.98
536.255	37201.52
536.456	36142.72
536.657	36265.6
536.857	35976.84
537.058	35212.95
537.259	35286.67
537.46	34559.64
537.66	33695.4
537.861	33644.2
538.062	33160.88
538.263	32595.64
538.463	31971.01
538.664	31995.59
538.865	31309.52
539.065	31164.11
539.266	30326.49
539.466	30396.12
539.667	29423.34
539.868	29855.46
540.068	29075.18
540.269	28878.58
540.469	28466.94
540.67	28460.79
540.87	28014.34
541.071	27510.53
541.271	27342.6
541.472	27002.64
541.672	26574.61
541.873	26050.33
542.073	25612.07
542.274	25669.41
542.474	25259.82
542.675	24784.69
542.875	25063.21
543.075	24430.39
543.276	24020.8
543.476	24088.38
543.676	23703.36
543.877	23328.58
544.077	23570.24
544.277	23127.88
544.478	22413.14
544.678	22230.87
544.878	22165.34
545.078	22021.98
545.279	21669.73
545.479	21391.2
545.679	21116.78
545.879	20744.05
546.079	20772.72
546.28	20547.44
546.48	20209.53
546.68	20178.81
546.88	19963.77
547.08	19609.47
547.28	19148.68
547.48	18962.31
547.68	18763.66
547.88	18358.16
548.081	18579.34
548.281	18241.43
548.481	17649.57
548.681	17856.41
548.881	17477.54
549.081	17235.88
549.28	17069.99
549.48	16799.66
549.68	16627.63
549.88	16482.22
550.08	16152.5
550.28	15693.76
550.48	15736.76
550.68	15697.85
550.88	15296.45
551.08	15120.32
551.279	15275.97
551.479	14563.28
551.679	14356.43
551.879	14012.37
552.079	14172.11
552.278	13791.19
552.478	13783
552.678	13293.54
552.878	13490.14
553.077	13021.16
553.277	12773.35
553.477	12533.74
553.676	12607.47
553.876	12050.42
554.076	11888.63
554.275	11730.94
554.475	11454.46
554.674	11591.67
554.874	11431.93
555.074	11053.06
555.273	11016.19
555.473	10909.7
555.672	10641.42
555.872	10620.94
556.071	10362.89
556.271	10360.84
556.47	9967.63
556.67	9807.89
556.869	9584.66
557.068	9631.77
557.268	9365.53
557.467	9185.31
557.667	9146.4
557.866	8962.08
558.065	8734.76
558.265	8634.41
558.464	8396.84
558.663	8251.44
558.863	8263.72
559.062	8214.57
559.261	7872.56
559.461	7817.27
559.66	7530.55
559.859	7571.51
560.058	7370.81
560.258	7180.35
560.457	7329.85
560.656	7106.62
560.855	7053.38
561.054	7149.63
561.253	6873.15
561.453	6799.43
561.652	6715.46
561.851	6713.41
562.05	6381.64
562.249	6088.78
562.448	6369.35
562.647	6064.21
562.846	6109.26
563.045	6172.75
563.244	5922.9
563.443	5812.31
563.642	5615.7
563.841	5726.29
564.04	5476.44
564.239	5427.29
564.438	5410.9
564.637	5247.07
564.836	5345.37
565.035	5171.29
565.234	5025.89
565.432	4929.63
565.631	4958.3
565.83	4857.95
566.029	4739.17
566.228	4581.48
566.427	4692.07
566.625	4552.81
566.824	4649.06
567.023	4556.9
567.222	4337.77
567.42	4290.67
567.619	4419.69
567.818	4280.43
568.016	4225.13
568.215	4098.16
568.414	4245.61
568.612	3928.17
568.811	4030.57
569.01	3831.92
569.208	3782.77
569.407	3829.87
569.605	3711.09
569.804	3670.13
570.002	3598.45
570.201	3582.07
570.4	3571.83
570.598	3434.61
570.797	3551.35
570.995	3295.35
571.193	3270.78
571.392	3225.72
571.59	3106.94
571.789	3391.61
571.987	3197.05
572.186	3158.14
572.384	2965.63
572.582	3035.26
572.781	3055.74
572.979	2746.5
573.177	2885.76
573.376	2703.49
573.574	2852.99
573.772	2705.54
573.971	2719.87
574.169	2654.34
574.367	2750.59
574.565	2635.91
574.763	2570.37
574.962	2433.16
575.16	2447.49
575.358	2375.81
575.556	2433.16
575.754	2306.18
575.952	2291.85
576.151	2291.85
576.349	2195.59
576.547	2168.97
576.745	2234.5
576.943	2207.88
577.141	2199.69
577.339	1994.89
577.537	2125.96
577.735	2042
577.933	2103.43
578.131	1816.72
578.329	2060.43
578.527	1831.05
578.725	1919.12
578.923	1757.33
579.121	1904.78
579.319	1726.61
579.516	1738.9
579.714	1865.87
579.912	1724.56
580.11	1681.55
580.308	1636.5
580.506	1650.83
580.704	1417.37
580.901	1454.23
581.099	1618.07
581.297	1562.77
581.495	1476.76
581.692	1509.52
581.89	1560.72
582.088	1476.76
582.285	1493.14
582.483	1476.76
582.681	1304.73
582.878	1284.25
583.076	1355.93
583.274	1314.97
583.471	1421.46
583.669	1237.14
583.866	1263.77
584.064	1265.82
584.262	1132.7
584.459	1163.42
584.657	1208.47
584.854	1231
585.052	1134.75
585.249	1144.99
585.447	1198.23
585.644	1028.25
585.841	1196.18
586.039	1163.42
586.236	1192.09
586.434	1097.88
586.631	997.53
586.828	1020.06
587.026	1024.16
587.223	1061.02
587.42	972.96
587.618	995.48
587.815	1155.23
588.012	1034.39
588.21	901.28
588.407	981.15
588.604	981.15
588.801	983.2
588.999	915.61
589.196	970.91
589.393	827.55
589.59	968.86
589.787	981.15
589.984	899.23
590.182	850.08
590.379	811.17
590.576	872.61
590.773	817.31
590.97	934.04
591.167	809.12
591.364	884.89
591.561	870.56
591.758	891.04
591.955	938.14
592.152	929.95
592.349	839.84
592.546	893.09
592.743	708.77
592.94	815.26
593.137	827.55
593.334	770.21
593.531	897.18
593.727	927.9
593.924	831.65
594.121	829.6
594.318	809.12
594.515	815.26
594.712	903.32
594.908	958.62
595.105	751.78
595.302	888.99
595.499	860.32
595.696	995.48
595.892	962.72
596.089	1048.73
596.286	880.8
596.482	1177.75
596.679	1136.79
596.876	1005.72
597.072	1116.31
597.269	1054.87
597.466	1032.35
597.662	1175.7
597.859	1087.64
598.055	1271.96
598.252	1286.3
598.448	1378.45
598.645	1478.8
598.841	1374.36
599.038	1370.26
599.234	1564.82
599.431	1648.79
599.627	1532.05
599.824	1663.12
600.02	1544.34
600.217	1675.41
600.413	1890.45
600.609	1896.59
600.806	2119.82
601.002	2240.65
601.198	2037.9
601.395	2357.38
601.591	2314.38
601.787	2572.42
601.984	2482.31
602.18	2566.28
602.376	2683.01
602.572	2797.7
602.769	3006.59
602.965	2988.16
603.161	3111.04
603.357	3061.88
603.553	3500.15
603.75	3377.27
603.946	3596.4
604.142	3659.89
604.338	3940.46
604.534	4003.95
604.73	4135.02
604.926	4012.14
605.122	4391.02
605.318	4309.1
605.514	4491.37
605.71	4765.79
605.906	4825.19
606.102	5070.94
606.298	5210.2
606.494	5410.9
606.69	5527.64
606.886	5603.41
607.082	5781.59
607.278	5883.98
607.474	6033.49
607.67	6455.37
607.866	6226
608.062	6711.36
608.257	6955.07
608.453	6893.63
608.649	7379
608.845	7237.69
609.041	7544.89
609.236	7757.88
609.432	8005.68
609.628	8222.77
609.824	8484.91
610.019	8591.4
610.215	8767.52
610.411	9377.82
610.606	9410.59
610.802	9592.86
610.998	9736.21
611.193	10301.45
611.389	10389.52
611.584	10776.58
611.78	10782.73
611.976	11069.44
612.171	11745.27
612.367	11962.36
612.562	11882.49
612.758	12103.67
612.953	12511.21
613.149	13125.6
613.344	13109.22
613.539	13983.7
613.735	14358.48
613.93	14409.68
614.126	14610.38
614.321	15243.2
614.517	15595.45
614.712	16054.2
614.907	16361.39
615.103	16777.13
615.298	17201.06
615.493	17653.66
615.688	17547.17
615.884	18966.41
616.079	19013.51
616.274	19810.17
616.47	20074.36
616.665	20627.31
616.86	21182.31
617.055	21583.71
617.25	22097.75
617.445	23007.05
617.641	22810.45
617.836	23869.25
618.031	24235.83
618.226	25016.11
618.421	25200.43
618.616	26269.47
618.811	26566.42
619.006	27197.2
619.201	27438.86
619.396	28473.08
619.591	28458.74
619.786	29847.27
619.981	30070.5
620.176	30926.55
620.371	30783.19
620.566	32253.63
620.761	32739
620.956	33584.81
621.151	33746.6
621.346	34944.66
621.541	34952.85
621.735	36114.05
621.93	36542.08
622.125	37017.21
622.32	37193.33
622.515	38409.82
622.709	39007.83
622.904	40248.9
623.099	40232.52
623.294	41641.52
623.488	41879.08
623.683	42858.01
623.878	42808.86
624.072	43922.96
624.267	44455.43
624.462	45004.28
624.656	45473.27
624.851	46523.88
625.046	47246.81
625.24	47914.45
625.435	48035.28
625.629	49075.65
625.824	49399.22
626.018	50533.8
626.213	49706.42
626.407	50984.35
626.602	51717.53
626.796	52450.7
626.991	52639.11
627.185	53118.34
627.38	53200.25
627.574	53261.69
627.768	53622.14
627.963	54394.22
628.157	53822.84
628.352	54803.81
628.546	54109.55
628.74	54717.8
628.935	54195.57
629.129	55131.49
629.323	53853.56
629.517	54269.29
629.712	53667.19
629.906	53427.58
630.1	52358.54
630.294	52702.6
630.489	52026.77
630.683	51469.72
630.877	50208.17
631.071	49182.14
631.265	49018.3
631.459	47609.3
631.653	47183.32
631.848	46145
632.042	44744.19
632.236	44049.93
632.43	42477.09
632.624	41702.96
632.818	40427.07
633.012	38938.2
633.206	37820.01
633.4	37152.37
633.594	35391.12
633.788	34182.82
633.982	33408.68
634.176	32204.48
634.369	30928.59
634.563	29540.07
634.757	28632.82
634.951	27909.89
635.145	26824.47
635.339	25706.27
635.533	24522.55
635.726	23682.88
635.92	22511.44
636.114	22058.84
636.308	20832.11
636.501	19943.29
636.695	19214.21
636.889	18243.48
637.083	17471.39
637.276	17014.7
637.47	16175.03
637.664	15402.94
637.857	15005.64
638.051	14325.71
638.244	13653.98
638.438	13266.91
638.632	12713.96
638.825	12113.91
639.019	11859.96
639.212	11309.05
639.406	10803.21
639.599	10590.22
639.793	9986.07
639.986	9639.96
640.18	9207.84
640.373	8824.87
640.567	8433.71
640.76	8228.91
640.954	7944.24
641.147	7514.17
641.34	7217.21
641.534	7131.2
641.727	6721.6
641.92	6463.56
642.114	6256.72
642.307	6086.73
642.5	5789.78
642.694	5488.73
642.887	5359.7
643.08	5202.01
643.273	4997.21
643.467	4849.76
643.66	4503.65
643.853	4534.37
644.046	4358.25
644.239	4073.58
644.432	3946.61
644.626	3719.28
644.819	3598.45
645.012	3494.01
645.205	3514.49
645.398	3242.11
645.591	3154.04
645.784	3049.6
645.977	2771.07
646.17	2781.31
646.363	2627.71
646.556	2529.41
646.749	2533.51
646.942	2379.91
647.135	2467.97
647.328	2156.68
647.521	2156.68
647.714	1980.56
647.907	2052.24
648.099	1794.19
648.292	1919.12
648.485	1779.86
648.678	1771.66
648.871	1593.49
649.064	1587.35
649.256	1448.08
649.449	1382.55
649.642	1353.88
649.835	1345.69
650.027	1253.53
650.22	1259.67
650.413	1185.94
650.605	1224.86
650.798	1052.83
650.991	1058.97
651.183	1118.36
651.376	1028.25
651.568	1009.82
651.761	1018.01
651.954	983.2
652.146	972.96
652.339	888.99
652.531	968.86
652.724	819.36
652.916	755.87
653.109	567.46
653.301	774.3
653.494	792.73
653.686	716.96
653.879	778.4
654.071	729.25
654.263	587.94
654.456	616.61
654.648	686.24
654.84	690.34
655.033	542.88
655.225	696.48
655.417	417.96
655.61	688.29
655.802	532.64
655.994	587.94
656.186	430.24
656.379	589.99
656.571	387.24
656.763	372.9
656.955	452.77
657.148	465.06
657.34	450.72
657.532	381.09
657.724	352.42
657.916	348.33
658.108	442.53
658.3	417.96
658.492	372.9
658.684	356.52
658.876	413.86
659.068	319.65
659.26	297.13
659.452	243.88
659.644	348.33
659.836	389.28
660.028	313.51
660.22	278.69
660.412	295.08
660.604	270.5
660.796	323.75
660.988	405.67
661.18	250.02
661.372	344.23
661.563	241.83
661.755	290.98
661.947	198.82
662.139	217.26
662.331	184.49
662.522	147.62
662.714	174.25
662.906	143.53
663.097	288.93
663.289	145.58
663.481	219.3
663.673	268.45
663.864	254.12
664.056	260.26
664.247	172.2
664.439	383.14
664.631	243.88
664.822	196.78
665.014	159.91
665.205	164.01
665.397	178.34
665.588	247.97
665.78	141.48
665.971	295.08
666.163	143.53
666.354	233.64
666.546	184.49
666.737	147.62
666.929	127.14
667.12	170.15
667.311	143.53
667.503	94.38
667.694	196.78
667.885	176.3
668.077	231.59
668.268	131.24
668.459	213.16
668.651	182.44
668.842	215.21
669.033	88.23
669.224	98.47
669.416	282.79
669.607	125.1
669.798	110.76
669.989	301.22
670.18	198.82
670.371	166.06
670.563	137.38
670.754	299.17
670.945	207.02
671.136	254.12
671.327	0.17
671.518	262.31
671.709	319.65
671.9	243.88
672.091	303.27
672.282	137.38
672.473	157.86
672.664	202.92
672.855	135.34
673.046	243.88
673.237	290.98
673.428	174.25
673.619	266.41
673.809	123.05
674	329.89
674.191	200.87
674.382	252.07
674.573	137.38
674.764	151.72
674.954	307.37
675.145	149.67
675.336	118.95
675.527	94.38
675.717	131.24
675.908	172.2
676.099	71.85
676.289	172.2
676.48	108.71
676.671	123.05
676.861	231.59
677.052	231.59
677.243	118.95
677.433	186.54
677.624	254.12
677.814	252.07
678.005	153.77
678.195	336.04
678.386	200.87
678.576	239.78
678.767	127.14
678.957	268.45
679.148	260.26
679.338	307.37
679.529	297.13
679.719	204.97
679.909	311.46
680.1	190.63
680.29	252.07
680.481	110.76
680.671	245.93
680.861	342.18
681.052	276.65
681.242	276.65
681.432	284.84
681.622	235.69
681.813	204.97
682.003	307.37
682.193	235.69
682.383	272.55
682.573	235.69
682.764	307.37
682.954	215.21
683.144	346.28
683.334	198.82
683.524	198.82
683.714	237.74
683.904	286.89
684.094	245.93
684.284	297.13
684.474	311.46
684.664	270.5
684.854	293.03
685.044	333.99
685.234	264.36
685.424	256.17
685.614	198.82
685.804	399.52
685.994	254.12
686.184	231.59
686.374	295.08
686.564	262.31
686.753	276.65
686.943	196.78
687.133	207.02
687.323	227.5
687.513	254.12
687.702	348.33
687.892	262.31
688.082	286.89
688.272	252.07
688.461	196.78
688.651	383.14
688.841	258.21
689.03	198.82
689.22	178.34
689.41	321.7
689.599	262.31
689.789	174.25
689.979	432.29
690.168	301.22
690.358	241.83
690.547	180.39
690.737	250.02
690.926	227.5
691.116	250.02
691.305	305.32
691.495	278.69
691.684	256.17
691.874	258.21
692.063	219.3
692.252	229.54
692.442	227.5
692.631	161.96
692.82	262.31
693.01	215.21
693.199	200.87
693.388	344.23
693.578	196.78
693.767	258.21
693.956	311.46
694.146	231.59
694.335	217.26
694.524	135.34
694.713	264.36
694.902	161.96
695.092	194.73
695.281	280.74
695.47	192.68
695.659	254.12
695.848	164.01
696.037	90.28
696.226	319.65
696.415	200.87
696.604	309.41
696.793	184.49
696.982	219.3
697.171	303.27
697.36	127.14
697.549	204.97
697.738	57.51
697.927	247.97
698.116	235.69
698.305	235.69
698.494	168.1
698.683	256.17
698.872	331.94
699.061	252.07
699.25	233.64
699.438	217.26
699.627	254.12
699.816	350.37
700.005	235.69
700.193	174.25
700.382	276.65
700.571	233.64
700.76	233.64
700.948	258.21
701.137	254.12
701.326	264.36
701.514	137.38
701.703	221.35
701.892	186.54
702.08	340.13
702.269	106.67
702.457	194.73
702.646	235.69
702.834	172.2
703.023	247.97
703.212	262.31
703.4	231.59
703.589	196.78
703.777	166.06
703.965	170.15
704.154	198.82
704.342	192.68
704.531	161.96
704.719	172.2
704.907	346.28
705.096	194.73
705.284	166.06
705.472	217.26
705.661	260.26
705.849	293.03
706.037	231.59
706.226	352.42
706.414	286.89
706.602	125.1
706.79	192.68
706.979	139.43
707.167	147.62
707.355	172.2
707.543	147.62
707.731	227.5
707.919	258.21
708.107	102.57
708.296	139.43
708.484	192.68
708.672	260.26
708.86	223.4
709.048	215.21
709.236	227.5
709.424	231.59
709.612	241.83
709.8	96.43
709.988	245.93
710.176	356.52
710.364	278.69
710.551	204.97
710.739	237.74
710.927	131.24
711.115	237.74
711.303	256.17
711.491	272.55
711.679	182.44
711.866	372.9
712.054	247.97
712.242	317.61
712.43	329.89
712.617	172.2
712.805	317.61
712.993	211.11
713.181	61.61
713.368	315.56
713.556	110.76
713.744	229.54
713.931	348.33
714.119	151.72
714.306	155.82
714.494	293.03
714.682	245.93
714.869	186.54
715.057	241.83
715.244	123.05
715.432	254.12
715.619	227.5
715.807	227.5
715.994	209.06
716.182	231.59
716.369	319.65
716.556	321.7
716.744	92.33
716.931	96.43
717.119	307.37
717.306	276.65
717.493	336.04
717.681	223.4
717.868	258.21
718.055	225.45
718.242	198.82
718.43	207.02
718.617	262.31
718.804	207.02
718.991	301.22
719.179	221.35
719.366	190.63
719.553	317.61
719.74	221.35
719.927	196.78
720.114	295.08
720.301	202.92
720.488	151.72
720.676	229.54
720.863	309.41
721.05	340.13
721.237	258.21
721.424	331.94
721.611	256.17
721.798	200.87
721.985	268.45
722.172	200.87
722.358	200.87
722.545	360.61
722.732	211.11
722.919	333.99
723.106	276.65
723.293	215.21
723.48	262.31
723.667	168.1
723.853	290.98
724.04	338.09
724.227	293.03
724.414	196.78
724.6	338.09
724.787	399.52
724.974	399.52
725.161	245.93
725.347	233.64
725.534	297.13
725.72	307.37
725.907	346.28
726.094	299.17
726.28	192.68
726.467	262.31
726.653	184.49
726.84	333.99
727.027	274.6
727.213	272.55
727.4	282.79
727.586	278.69
727.773	231.59
727.959	323.75
728.145	180.39
728.332	270.5
728.518	223.4
728.705	270.5
728.891	270.5
729.077	284.84
729.264	188.58
729.45	198.82
729.636	415.91
729.823	245.93
730.009	360.61
730.195	307.37
730.382	333.99
730.568	237.74
730.754	346.28
730.94	241.83
731.126	254.12
731.313	348.33
731.499	243.88
731.685	319.65
731.871	245.93
732.057	325.8
732.243	348.33
732.429	233.64
732.615	397.48
732.801	438.44
732.987	229.54
733.173	317.61
733.359	194.73
733.545	264.36
733.731	229.54
733.917	434.34
734.103	333.99
734.289	321.7
734.475	266.41
734.661	381.09
734.847	327.85
735.033	364.71
735.219	311.46
735.404	256.17
735.59	202.92
735.776	321.7
735.962	245.93
736.148	282.79
736.333	430.24
736.519	325.8
736.705	188.58
736.89	301.22
737.076	360.61
737.262	231.59
737.447	276.65
737.633	319.65
737.819	321.7
738.004	346.28
738.19	327.85
738.375	344.23
738.561	370.85
738.747	309.41
738.932	213.16
739.118	428.2
739.303	235.69
739.489	350.37
739.674	260.26
739.859	178.34
740.045	372.9
740.23	313.51
740.416	190.63
740.601	250.02
740.786	299.17
740.972	245.93
741.157	268.45
741.342	219.3
741.528	250.02
741.713	395.43
741.898	323.75
742.084	309.41
742.269	331.94
742.454	276.65
742.639	278.69
742.824	190.63
743.01	381.09
743.195	342.18
743.38	229.54
743.565	225.45
743.75	198.82
743.935	317.61
744.12	452.77
744.305	200.87
744.49	237.74
744.675	237.74
744.86	231.59
745.045	286.89
745.23	323.75
745.415	221.35
745.6	293.03
745.785	250.02
745.97	315.56
746.155	356.52
746.34	377
746.525	395.43
746.71	393.38
746.895	153.77
747.079	166.06
747.264	237.74
747.449	290.98
747.634	333.99
747.819	319.65
748.003	278.69
748.188	67.75
748.373	301.22
748.557	321.7
748.742	178.34
748.927	217.26
749.111	233.64
749.296	245.93
749.481	297.13
749.665	282.79
749.85	211.11
750.034	305.32
750.219	196.78
750.404	266.41
750.588	295.08
750.773	237.74
750.957	250.02
751.141	217.26
751.326	266.41
751.51	108.71
751.695	219.3
751.879	313.51
752.064	331.94
752.248	243.88
752.432	348.33
752.617	321.7
752.801	217.26
752.985	151.72
753.17	221.35
753.354	217.26
753.538	252.07
753.722	207.02
753.907	200.87
754.091	149.67
754.275	254.12
754.459	157.86
754.643	90.28
754.828	217.26
755.012	192.68
755.196	159.91
755.38	159.91
755.564	127.14
755.748	127.14
755.932	235.69
756.116	174.25
756.3	116.9
756.484	141.48
756.668	307.37
756.852	51.37
757.036	161.96
757.22	131.24
757.404	127.14
757.588	141.48
757.772	176.3
757.956	188.58
758.14	319.65
758.323	104.62
758.507	333.99
758.691	188.58
758.875	200.87
759.059	227.5
759.242	127.14
759.426	114.86
759.61	231.59
759.794	166.06
759.977	260.26
760.161	377
760.345	266.41
760.528	243.88
760.712	254.12
760.895	198.82
761.079	178.34
761.263	65.71
761.446	49.32
761.63	196.78
761.813	268.45
761.997	2.22
762.18	166.06
762.364	215.21
762.547	104.62
762.731	159.91
762.914	131.24
763.098	57.51
763.281	106.67
763.464	55.47
763.648	198.82
763.831	86.19
764.015	196.78
764.198	186.54
764.381	166.06
764.564	151.72
764.748	184.49
764.931	215.21
765.114	63.66
765.297	202.92
765.481	65.71
765.664	123.05
765.847	8.36
766.03	241.83
766.213	51.37
766.397	135.34
766.58	32.94
766.763	172.2
766.946	118.95
767.129	104.62
767.312	65.71
767.495	118.95
767.678	2.22
767.861	102.57
768.044	104.62
768.227	80.04
768.41	-3.93
768.593	164.01
768.776	145.58
768.959	114.86
769.142	245.93
769.324	41.13
769.507	94.38
769.69	16.55
769.873	75.95
770.056	321.7
770.239	125.1
770.421	207.02
770.604	90.28
770.787	151.72
770.97	147.62
771.152	0.17
771.335	153.77
771.518	18.6
771.7	207.02
771.883	116.9
772.066	41.13
772.248	118.95
772.431	131.24
772.613	116.9
772.796	100.52
772.978	104.62
773.161	151.72
773.343	65.71
773.526	82.09
773.708	39.08
773.891	43.18
774.073	90.28
774.256	45.23
774.438	123.05
774.621	24.75
774.803	127.14
774.985	22.7
775.168	88.23
775.35	10.41
775.532	137.38
775.715	71.85
775.897	174.25
776.079	14.51
776.261	110.76
776.444	53.42
776.626	57.51
776.808	77.99
776.99	30.89
777.173	45.23
777.355	86.19
777.537	129.19
777.719	82.09
777.901	110.76
778.083	45.23
778.265	-14.17
778.447	102.57
778.629	-24.4
778.811	94.38
778.993	94.38
779.175	106.67
779.357	45.23
779.539	-12.12
779.721	137.38
779.903	110.76
780.085	53.42
780.267	65.71
780.449	45.23
780.631	75.95
780.812	159.91
780.994	90.28
781.176	96.43
781.358	24.75
781.54	-8.02
781.721	125.1
781.903	133.29
782.085	32.94
782.267	141.48
782.448	-40.79
782.63	2.22
782.812	135.34
782.993	106.67
783.175	135.34
783.357	-51.03
783.538	22.7
783.72	34.99
783.901	34.99
784.083	47.27
784.264	49.32
784.446	32.94
784.627	8.36
784.809	10.41
784.99	41.13
785.172	92.33
785.353	-8.02
785.535	6.31
785.716	4.27
785.897	-20.31
786.079	16.55
786.26	53.42
786.441	63.66
786.623	-81.75
786.804	26.79
786.985	-100.18
787.167	82.09
787.348	88.23
787.529	-53.08
787.71	194.73
787.891	28.84
788.073	20.65
788.254	-30.55
788.435	170.15
788.616	0.17
788.797	10.41
788.978	-1.88
789.159	28.84
789.34	43.18
789.522	41.13
789.703	-18.26
789.884	28.84
790.065	94.38
790.246	190.63
790.427	6.31
790.607	139.43
790.788	131.24
790.969	-65.36
791.15	51.37
791.331	34.99
791.512	80.04
791.693	-28.5
791.874	37.03
792.054	149.67
792.235	129.19
792.416	-55.12
792.597	-40.79
792.778	8.36
792.958	94.38
793.139	30.89
793.32	32.94
793.5	-22.36
793.681	127.14
793.862	18.6
794.042	45.23
794.223	-14.17
794.404	-36.69
794.584	-77.65
794.765	-53.08
794.945	110.76
795.126	69.8
795.306	63.66
795.487	102.57
795.667	-44.88
795.848	65.71
796.028	61.61
796.209	12.46
796.389	96.43
796.57	-94.04
796.75	-10.07
796.93	71.85
797.111	-1.88
797.291	-87.89
797.471	118.95
797.652	22.7
797.832	51.37
798.012	170.15
798.192	-55.12
798.373	-98.13
798.553	32.94
798.733	-16.21
798.913	-94.04
799.093	4.27
799.274	90.28
799.454	43.18
799.634	45.23
799.814	96.43
799.994	71.85
800.174	118.95
800.354	24.75
800.534	-94.04
800.714	98.47
800.894	-104.28
801.074	-44.88
801.254	57.51
801.434	80.04
801.614	57.51
801.794	0.17
801.974	1683.6
802.154	-65.36
802.334	174.25
802.514	10.41
802.693	114.86
802.873	-59.22
803.053	88.23
803.233	53.42
803.413	0.17
803.592	-53.08
803.772	-26.45
803.952	-3.93
804.131	-46.93
804.311	100.52
804.491	98.47
804.67	-122.71
804.85	-42.84
805.03	73.9
805.209	153.77
805.389	47.27
805.568	-104.28
805.748	30.89
805.928	41.13
806.107	100.52
806.287	55.47
806.466	45.23
806.646	-10.07
806.825	80.04
807.004	0.17
807.184	-32.6
807.363	114.86
807.543	53.42
807.722	-42.84
807.901	145.58
808.081	75.95
808.26	-46.93
808.439	28.84
808.619	39.08
808.798	-67.41
808.977	-3.93
809.156	106.67
809.336	6.31
809.515	2.22
809.694	-24.4
809.873	-16.21
810.052	49.32
810.231	49.32
810.411	26.79
810.59	104.62
810.769	45.23
810.948	73.9
811.127	-149.33
811.306	-81.75
811.485	14.51
811.664	118.95
811.843	12.46
812.022	-48.98
812.201	47.27
812.38	-28.5
812.559	-42.84
812.737	92.33
812.916	-24.4
813.095	-46.93
813.274	-24.4
813.453	-5.97
813.632	65.71
813.811	77.99
813.989	4.27
814.168	32.94
814.347	-75.6
814.526	43.18
814.704	116.9
814.883	22.7
815.062	4.27
815.24	18.6
815.419	-40.79
815.598	32.94
815.776	-130.9
815.955	43.18
816.133	-124.76
816.312	53.42
816.49	-36.69
816.669	-14.17
816.847	2.22
817.026	-5.97
817.204	-42.84
817.383	-96.08
817.561	-89.94
817.74	14.51
817.918	92.33
818.097	-61.27
818.275	-32.6
818.453	28.84
818.632	32.94
818.81	-16.21
818.988	-18.26
819.167	6.31
819.345	-1.88
819.523	-44.88
819.701	4.27
819.879	73.9
820.058	37.03
820.236	32.94
820.414	0.17
820.592	16.55
820.77	-57.17
820.948	12.46
821.127	-53.08
821.305	30.89
821.483	-65.36
821.661	129.19
821.839	8.36
822.017	-22.36
822.195	20.65
822.373	61.61
822.551	51.37
822.729	82.09
822.907	-61.27
823.085	4.27
823.262	55.47
823.44	-44.88
823.618	-8.02
823.796	22.7
823.974	-16.21
824.152	-44.88
824.329	0.17
824.507	24.75
824.685	2.22
824.863	-55.12
825.04	45.23
825.218	59.56
825.396	65.71
825.574	67.75
825.751	67.75
825.929	63.66
826.107	-94.04
826.284	6.31
826.462	69.8
826.639	-79.7
826.817	-55.12
826.994	-16.21
827.172	-75.6
827.349	24.75
827.527	71.85
827.704	61.61
827.882	-10.07
828.059	-16.21
828.237	-100.18
828.414	90.28
828.591	-139.09
828.769	-18.26
828.946	-46.93
829.124	67.75
829.301	84.14
829.478	-12.12
829.655	39.08
829.833	8.36
830.01	-196.43
830.187	-20.31
830.364	-48.98
830.542	20.65
830.719	80.04
830.896	6.31
831.073	69.8
831.25	49.32
831.427	47.27
831.604	59.56
831.782	-12.12
831.959	92.33
832.136	96.43
832.313	49.32
832.49	-3.93
832.667	-8.02
832.844	14.51
833.021	98.47
833.198	73.9
833.374	-67.41
833.551	61.61
833.728	-89.94
833.905	90.28
834.082	-79.7
834.259	63.66
834.436	133.29
834.612	-14.17
834.789	118.95
834.966	12.46
835.143	59.56
835.319	-32.6
835.496	-36.69
835.673	41.13
835.85	77.99
836.026	82.09
836.203	63.66
836.38	0.17
836.556	-12.12
836.733	-3.93
836.909	168.1
837.086	-38.74
837.262	-57.17
837.439	-18.26
837.616	2.22
837.792	-14.17
837.968	30.89
838.145	-63.32
838.321	20.65
838.498	26.79
838.674	24.75
838.851	14.51
839.027	16.55
839.203	-1.88
839.38	51.37
839.556	-73.56
839.732	92.33
839.909	-10.07
840.085	20.65
840.261	-8.02
840.437	43.18
840.614	-46.93
840.79	145.58
840.966	82.09
841.142	-63.32
841.318	-3.93
841.494	49.32
841.671	59.56
841.847	-48.98
842.023	-69.46
842.199	-24.4
842.375	84.14
842.551	-94.04
842.727	-24.4
842.903	104.62
843.079	-30.55
843.255	121
843.431	12.46
843.607	43.18
843.783	-165.71
843.959	-38.74
844.134	-75.6
844.31	2.22
844.486	-36.69
844.662	-130.9
844.838	12.46
845.013	65.71
845.189	98.47
845.365	6.31
845.541	-16.21
845.716	30.89
845.892	84.14
846.068	30.89
846.244	-79.7
846.419	53.42
846.595	-79.7
846.77	-73.56
846.946	61.61
847.122	-38.74
847.297	14.51
847.473	24.75
847.648	-26.45
847.824	37.03
847.999	-120.66
848.175	-48.98
848.35	-1.88
848.526	37.03
848.701	77.99
848.876	55.47
849.052	45.23
849.227	-83.8
849.403	26.79
849.578	4.27
849.753	43.18
849.929	61.61
850.104	-85.84
850.279	-24.4
850.454	43.18
850.63	6.31
850.805	47.27
850.98	6.31
851.155	-1.88
851.33	57.51
851.505	-104.28
851.681	118.95
851.856	53.42
852.031	80.04
852.206	75.95
852.381	-24.4
852.556	-59.22
852.731	67.75
852.906	-28.5
853.081	114.86
853.256	26.79
853.431	-18.26
853.606	26.79
853.781	-24.4
853.956	-63.32
854.131	30.89
854.305	-65.36
854.48	-36.69
854.655	-65.36
854.83	-34.64
855.005	24.75
855.18	20.65
855.354	-26.45
855.529	0.17
855.704	-16.21
855.879	20.65
856.053	-110.42
856.228	-20.31
856.403	2.22
856.577	-30.55
856.752	-79.7
856.926	-53.08
857.101	39.08
857.276	-38.74
857.45	2.22
857.625	127.14
857.799	59.56
857.974	8.36
858.148	-139.09
858.323	22.7
858.497	41.13
858.672	-10.07
858.846	-85.84
859.02	90.28
859.195	-42.84
859.369	34.99
859.543	-22.36
859.718	-8.02
859.892	22.7
860.066	41.13
860.241	-14.17
860.415	-22.36
860.589	-10.07
860.763	24.75
860.938	-61.27
861.112	8.36
861.286	2.22
861.46	-10.07
861.634	-94.04
861.808	114.86
861.982	-122.71
862.157	-16.21
862.331	0.17
862.505	-175.95
862.679	-53.08
862.853	-71.51
863.027	-10.07
863.201	178.34
863.375	-57.17
863.549	-5.97
863.722	-36.69
863.896	168.1
864.07	-30.55
864.244	-26.45
864.418	12.46
864.592	-32.6
864.766	12.46
864.939	6.31
865.113	-16.21
865.287	67.75
865.461	-106.32
865.634	49.32
865.808	8.36
865.982	-24.4
866.156	-48.98
866.329	-165.71
866.503	-8.02
866.676	63.66
866.85	32.94
867.024	-61.27
867.197	129.19
867.371	0.17
867.544	32.94
867.718	-132.95
867.891	43.18
868.065	-55.12
868.238	-1.88
868.412	69.8
868.585	47.27
868.759	-48.98
868.932	-55.12
869.105	-22.36
869.279	2.22
869.452	-91.99
869.625	41.13
869.799	-12.12
869.972	-194.39
870.145	-14.17
870.319	73.9
870.492	24.75
870.665	-30.55
870.838	0.17
871.011	-94.04
871.185	37.03
871.358	-77.65
871.531	30.89
871.704	67.75
871.877	-44.88
872.05	-16.21
872.223	-51.03
872.396	143.53
872.569	-30.55
872.742	-77.65
872.915	41.13
873.088	-26.45
873.261	-69.46
873.434	0.17
873.607	34.99
873.78	82.09
873.953	-18.26
874.126	-24.4
874.299	73.9
874.471	-79.7
874.644	-42.84
874.817	2.22
874.99	145.58
875.163	-46.93
875.335	-32.6
875.508	-12.12
875.681	28.84
875.853	37.03
876.026	65.71
876.199	-26.45
876.371	32.94
876.544	-20.31
876.717	98.47
876.889	-18.26
877.062	77.99
877.234	-36.69
877.407	-65.36
877.579	-10.07
877.752	0.17
877.924	129.19
878.097	47.27
878.269	10.41
878.442	53.42
878.614	20.65
878.786	37.03
878.959	39.08
879.131	-1.88
879.303	-67.41
879.476	26.79
879.648	73.9
879.82	-32.6
879.993	18.6
880.165	-1.88
880.337	-122.71
880.509	22.7
880.681	-100.18
880.854	-34.64
881.026	108.71
881.198	161.96
881.37	-3.93
881.542	-5.97
881.714	-51.03
881.886	-38.74
882.058	-20.31
882.23	57.51
882.402	37.03
882.574	-28.5
882.746	61.61
882.918	39.08
883.09	65.71
883.262	-14.17
883.434	20.65
883.606	-106.32
883.778	20.65
883.95	98.47
884.122	-26.45
884.293	41.13
884.465	-32.6
884.637	37.03
884.809	-63.32
884.98	-8.02
885.152	75.95
885.324	112.81
885.496	-122.71
885.667	-53.08
885.839	-18.26
886.011	37.03
886.182	-40.79
886.354	39.08
886.525	6.31
886.697	51.37
886.869	-106.32
887.04	41.13
887.212	65.71
887.383	141.48
887.555	-10.07
887.726	-26.45
887.897	-3.93
888.069	-30.55
888.24	65.71
888.412	-24.4
888.583	-16.21
888.754	-36.69
888.926	-120.66
889.097	-75.6
889.268	-114.52
889.44	45.23
889.611	-116.56
889.782	-55.12
889.953	-128.85
890.125	63.66
890.296	-14.17
890.467	-8.02
890.638	-55.12
890.809	57.51
890.98	-59.22
891.151	-3.93
891.323	161.96
891.494	-24.4
891.665	73.9
891.836	-53.08
892.007	16.55
892.178	-51.03
892.349	-16.21
892.52	-59.22
892.691	59.56
892.862	-20.31
893.032	-73.56
893.203	-44.88
893.374	14.51
893.545	4.27
893.716	-34.64
893.887	137.38
894.057	-122.71
894.228	-83.8
894.399	-44.88
894.57	129.19
894.74	34.99
894.911	32.94
895.082	-46.93
895.253	-12.12
895.423	34.99
895.594	2.22
895.764	26.79
895.935	-124.76
896.106	49.32
896.276	-42.84
896.447	4.27
896.617	-139.09
896.788	-112.47
896.958	-42.84
897.129	-34.64
897.299	-46.93
897.47	108.71
897.64	84.14
897.81	-14.17
897.981	45.23
898.151	10.41
898.322	-1.88
898.492	26.79
898.662	-53.08
898.832	-51.03
899.003	37.03
899.173	-67.41
899.343	-30.55
899.513	-44.88
