Data from USB4F104151__184__11-05-11-334.txt Node

Date: Wed Feb 26 11:05:11 EST 2025
User: louis
Spectrometer: USB4F10415
Trigger mode: 4
Integration Time (sec): 1.000000E-1
Scans to average: 1
Electric dark correction enabled: true
Nonlinearity correction enabled: false
Boxcar width: 0
XAxis mode: Wavelengths
Number of Pixels in Spectrum: 3648
>>>>>Begin Spectral Data<<<<<
178.204	-377.51
178.424	-377.51
178.644	-377.51
178.864	-445.09
179.084	-387.75
179.304	17.75
179.524	-33.45
179.744	-21.16
179.964	42.32
180.184	34.13
180.404	58.71
180.624	5.46
180.844	-21.16
181.064	-66.22
181.283	64.85
181.503	-101.03
181.723	19.8
181.943	-62.12
182.163	181.59
182.383	-64.17
182.602	9.56
182.822	124.24
183.042	-25.26
183.262	-31.4
183.482	13.65
183.701	71
183.921	81.24
184.141	-33.45
184.361	64.85
184.58	-2.73
184.8	148.82
185.02	-0.68
185.239	50.52
185.459	50.52
185.679	77.14
185.898	-43.69
186.118	-4.78
186.338	93.52
186.557	124.24
186.777	-47.79
186.997	38.23
187.216	83.28
187.436	154.96
187.655	89.43
187.875	52.56
188.095	34.13
188.314	111.96
188.534	71
188.753	-37.55
188.973	128.34
189.192	183.63
189.412	-35.5
189.631	25.94
189.851	77.14
190.07	142.68
190.29	-49.83
190.509	-39.59
190.729	-66.22
190.948	116.05
191.168	216.4
191.387	122.2
191.607	32.08
191.826	89.43
192.045	25.94
192.265	13.65
192.484	64.85
192.704	15.7
192.923	-82.6
193.142	136.53
193.362	103.76
193.581	138.58
193.8	5.46
194.02	93.52
194.239	105.81
194.458	89.43
194.678	48.47
194.897	58.71
195.116	114
195.335	21.85
195.555	58.71
195.774	-47.79
195.993	101.72
196.212	103.76
196.432	27.99
196.651	-29.35
196.87	21.85
197.089	193.87
197.308	73.04
197.528	64.85
197.747	-35.5
197.966	11.61
198.185	118.1
198.404	-2.73
198.623	157.01
198.842	128.34
199.062	126.29
199.281	87.38
199.5	-15.02
199.719	99.67
199.938	-0.68
200.157	-15.02
200.376	85.33
200.595	42.32
200.814	132.44
201.033	-49.83
201.252	195.92
201.471	36.18
201.69	64.85
201.909	-23.21
202.128	75.09
202.347	75.09
202.566	21.85
202.785	11.61
203.004	-101.03
203.223	167.25
203.442	5.46
203.661	-72.36
203.879	-6.83
204.098	130.39
204.317	-4.78
204.536	120.15
204.755	148.82
204.974	193.87
205.193	-25.26
205.411	75.09
205.63	126.29
205.849	25.94
206.068	50.52
206.287	-72.36
206.505	107.86
206.724	-12.97
206.943	40.28
207.162	-74.41
207.381	68.95
207.599	27.99
207.818	-6.83
208.037	46.42
208.255	-39.59
208.474	56.66
208.693	27.99
208.911	36.18
209.13	107.86
209.349	126.29
209.567	21.85
209.786	17.75
210.005	89.43
210.223	146.77
210.442	-96.94
210.661	73.04
210.879	36.18
211.098	19.8
211.316	-33.45
211.535	58.71
211.753	50.52
211.972	30.04
212.191	-12.97
212.409	19.8
212.628	89.43
212.846	-66.22
213.065	64.85
213.283	130.39
213.502	40.28
213.72	17.75
213.938	42.32
214.157	-8.87
214.375	157.01
214.594	-47.79
214.812	66.9
215.031	64.85
215.249	52.56
215.467	64.85
215.686	42.32
215.904	38.23
216.122	19.8
216.341	109.91
216.559	36.18
216.778	91.48
216.996	124.24
217.214	-0.68
217.432	34.13
217.651	-64.17
217.869	7.51
218.087	-88.75
218.306	77.14
218.524	15.7
218.742	32.08
218.96	103.76
219.179	48.47
219.397	54.61
219.615	243.03
219.833	42.32
220.051	-49.83
220.27	105.81
220.488	97.62
220.706	32.08
220.924	-17.07
221.142	75.09
221.36	-8.87
221.578	107.86
221.796	13.65
222.015	-6.83
222.233	91.48
222.451	120.15
222.669	3.41
222.887	142.68
223.105	34.13
223.323	54.61
223.541	-96.94
223.759	7.51
223.977	75.09
224.195	163.15
224.413	83.28
224.631	19.8
224.849	66.9
225.067	193.87
225.285	21.85
225.503	-39.59
225.721	-144.04
225.939	85.33
226.157	-10.92
226.375	212.31
226.592	-86.7
226.81	32.08
227.028	124.24
227.246	25.94
227.464	148.82
227.682	81.24
227.9	54.61
228.117	64.85
228.335	58.71
228.553	-2.73
228.771	-45.74
228.989	60.76
229.206	48.47
229.424	87.38
229.642	-55.98
229.86	-17.07
230.077	116.05
230.295	50.52
230.513	177.49
230.731	56.66
230.948	124.24
231.166	148.82
231.384	-10.92
231.601	-25.26
231.819	204.11
232.037	-82.6
232.254	-86.7
232.472	91.48
232.689	9.56
232.907	75.09
233.125	34.13
233.342	-15.02
233.56	54.61
233.777	-27.31
233.995	85.33
234.213	167.25
234.43	36.18
234.648	9.56
234.865	46.42
235.083	79.19
235.3	23.89
235.518	109.91
235.735	122.2
235.953	48.47
236.17	25.94
236.388	85.33
236.605	60.76
236.822	56.66
237.04	107.86
237.257	99.67
237.475	32.08
237.692	19.8
237.909	68.95
238.127	-35.5
238.344	1.37
238.562	75.09
238.779	-39.59
238.996	-76.46
239.214	46.42
239.431	-6.83
239.648	34.13
239.865	138.58
240.083	66.9
240.3	32.08
240.517	-68.27
240.735	-15.02
240.952	109.91
241.169	91.48
241.386	54.61
241.603	48.47
241.821	-23.21
242.038	114
242.255	103.76
242.472	-121.51
242.689	44.37
242.907	46.42
243.124	13.65
243.341	11.61
243.558	-19.11
243.775	-51.88
243.992	-109.22
244.209	42.32
244.426	159.06
244.643	81.24
244.86	42.32
245.078	97.62
245.295	75.09
245.512	21.85
245.729	-35.5
245.946	101.72
246.163	64.85
246.38	-21.16
246.597	73.04
246.814	46.42
247.031	185.68
247.248	32.08
247.464	46.42
247.681	38.23
247.898	85.33
248.115	17.75
248.332	3.41
248.549	107.86
248.766	107.86
248.983	46.42
249.2	109.91
249.417	71
249.633	3.41
249.85	109.91
250.067	-27.31
250.284	120.15
250.501	79.19
250.717	120.15
250.934	-35.5
251.151	73.04
251.368	-47.79
251.585	114
251.801	34.13
252.018	-105.13
252.235	97.62
252.451	-33.45
252.668	40.28
252.885	150.87
253.102	114
253.318	116.05
253.535	-35.5
253.752	-8.87
253.968	-43.69
254.185	-74.41
254.401	68.95
254.618	89.43
254.835	-113.32
255.051	99.67
255.268	19.8
255.484	50.52
255.701	-29.35
255.917	154.96
256.134	-39.59
256.351	44.37
256.567	-70.31
256.784	-15.02
257	-131.75
257.217	148.82
257.433	91.48
257.65	73.04
257.866	111.96
258.082	9.56
258.299	-62.12
258.515	99.67
258.732	3.41
258.948	-19.11
259.165	30.04
259.381	-80.55
259.597	75.09
259.814	15.7
260.03	25.94
260.246	-15.02
260.463	150.87
260.679	58.71
260.895	1.37
261.112	132.44
261.328	3.41
261.544	-74.41
261.761	206.16
261.977	-43.69
262.193	-80.55
262.409	93.52
262.626	21.85
262.842	-6.83
263.058	-15.02
263.274	154.96
263.49	68.95
263.707	58.71
263.923	101.72
264.139	-127.66
264.355	54.61
264.571	97.62
264.787	58.71
265.004	157.01
265.22	71
265.436	23.89
265.652	38.23
265.868	75.09
266.084	38.23
266.3	34.13
266.516	36.18
266.732	40.28
266.948	79.19
267.164	3.41
267.38	144.72
267.596	79.19
267.812	99.67
268.028	134.48
268.244	1.37
268.46	50.52
268.676	-12.97
268.892	30.04
269.108	1.37
269.324	-31.4
269.54	19.8
269.756	114
269.972	-55.98
270.188	-76.46
270.403	13.65
270.619	-33.45
270.835	107.86
271.051	68.95
271.267	-35.5
271.483	-15.02
271.698	134.48
271.914	107.86
272.13	25.94
272.346	23.89
272.562	9.56
272.777	163.15
272.993	-8.87
273.209	-6.83
273.425	62.8
273.64	56.66
273.856	54.61
274.072	3.41
274.287	21.85
274.503	73.04
274.719	11.61
274.934	-0.68
275.15	-45.74
275.366	42.32
275.581	34.13
275.797	21.85
276.012	81.24
276.228	-47.79
276.444	75.09
276.659	118.1
276.875	-23.21
277.09	97.62
277.306	3.41
277.521	132.44
277.737	75.09
277.952	116.05
278.168	62.8
278.383	23.89
278.599	50.52
278.814	42.32
279.03	13.65
279.245	167.25
279.461	34.13
279.676	95.57
279.892	-70.31
280.107	-84.65
280.322	-0.68
280.538	95.57
280.753	-2.73
280.969	11.61
281.184	64.85
281.399	128.34
281.615	136.53
281.83	68.95
282.045	-72.36
282.26	-0.68
282.476	-47.79
282.691	56.66
282.906	52.56
283.122	89.43
283.337	54.61
283.552	44.37
283.767	-37.55
283.983	81.24
284.198	-0.68
284.413	34.13
284.628	15.7
284.843	-23.21
285.058	120.15
285.274	23.89
285.489	-66.22
285.704	62.8
285.919	-29.35
286.134	-23.21
286.349	34.13
286.564	-43.69
286.779	116.05
286.995	60.76
287.21	15.7
287.425	32.08
287.64	5.46
287.855	64.85
288.07	-12.97
288.285	93.52
288.5	73.04
288.715	62.8
288.93	25.94
289.145	11.61
289.36	152.92
289.575	27.99
289.79	150.87
290.004	13.65
290.219	114
290.434	-53.93
290.649	-10.92
290.864	62.8
291.079	44.37
291.294	32.08
291.509	60.76
291.724	23.89
291.938	3.41
292.153	66.9
292.368	46.42
292.583	-15.02
292.798	111.96
293.012	38.23
293.227	17.75
293.442	40.28
293.657	68.95
293.871	83.28
294.086	91.48
294.301	177.49
294.516	73.04
294.73	32.08
294.945	-0.68
295.16	85.33
295.374	136.53
295.589	103.76
295.804	-64.17
296.018	11.61
296.233	77.14
296.447	173.39
296.662	-8.87
296.877	105.81
297.091	19.8
297.306	40.28
297.52	-51.88
297.735	58.71
297.949	40.28
298.164	99.67
298.378	5.46
298.593	-27.31
298.807	-0.68
299.022	3.41
299.236	126.29
299.451	-53.93
299.665	25.94
299.88	30.04
300.094	34.13
300.309	97.62
300.523	44.37
300.737	19.8
300.952	54.61
301.166	130.39
301.381	-10.92
301.595	27.99
301.809	38.23
302.024	-21.16
302.238	-43.69
302.452	120.15
302.667	25.94
302.881	144.72
303.095	15.7
303.309	36.18
303.524	9.56
303.738	-43.69
303.952	30.04
304.166	11.61
304.381	-129.7
304.595	101.72
304.809	46.42
305.023	101.72
305.237	-23.21
305.452	-23.21
305.666	27.99
305.88	107.86
306.094	66.9
306.308	62.8
306.522	103.76
306.736	75.09
306.95	93.52
307.164	-62.12
307.379	19.8
307.593	99.67
307.807	81.24
308.021	148.82
308.235	120.15
308.449	-86.7
308.663	66.9
308.877	208.21
309.091	50.52
309.305	60.76
309.519	-49.83
309.733	23.89
309.947	-68.27
310.161	58.71
310.374	118.1
310.588	91.48
310.802	-15.02
311.016	-33.45
311.23	73.04
311.444	-66.22
311.658	3.41
311.872	89.43
312.085	150.87
312.299	142.68
312.513	83.28
312.727	95.57
312.941	-76.46
313.154	60.76
313.368	-15.02
313.582	15.7
313.796	107.86
314.009	-23.21
314.223	87.38
314.437	56.66
314.651	118.1
314.864	-10.92
315.078	38.23
315.292	-78.51
315.505	-2.73
315.719	95.57
315.933	50.52
316.146	-70.31
316.36	-37.55
316.573	97.62
316.787	9.56
317.001	114
317.214	-98.99
317.428	105.81
317.641	23.89
317.855	5.46
318.068	-25.26
318.282	40.28
318.495	157.01
318.709	60.76
318.922	13.65
319.136	132.44
319.349	204.11
319.563	32.08
319.776	95.57
319.99	13.65
320.203	93.52
320.417	15.7
320.63	87.38
320.843	171.35
321.057	-29.35
321.27	-37.55
321.483	27.99
321.697	124.24
321.91	34.13
322.124	83.28
322.337	-4.78
322.55	25.94
322.763	54.61
322.977	-0.68
323.19	-35.5
323.403	50.52
323.617	105.81
323.83	81.24
324.043	52.56
324.256	60.76
324.469	-21.16
324.683	79.19
324.896	-80.55
325.109	-0.68
325.322	3.41
325.535	152.92
325.748	60.76
325.962	36.18
326.175	71
326.388	-19.11
326.601	157.01
326.814	25.94
327.027	58.71
327.24	132.44
327.453	-109.22
327.666	34.13
327.879	146.77
328.092	95.57
328.305	62.8
328.518	-39.59
328.731	-10.92
328.944	17.75
329.157	91.48
329.37	34.13
329.583	128.34
329.796	66.9
330.009	-19.11
330.222	64.85
330.435	19.8
330.648	99.67
330.861	73.04
331.073	85.33
331.286	79.19
331.499	42.32
331.712	-0.68
331.925	21.85
332.138	23.89
332.35	185.68
332.563	-12.97
332.776	238.93
332.989	3.41
333.202	-92.84
333.414	105.81
333.627	56.66
333.84	17.75
334.053	101.72
334.265	-39.59
334.478	-23.21
334.691	25.94
334.903	66.9
335.116	38.23
335.329	64.85
335.541	38.23
335.754	163.15
335.966	-31.4
336.179	144.72
336.392	23.89
336.604	7.51
336.817	83.28
337.029	-2.73
337.242	85.33
337.454	95.57
337.667	-39.59
337.88	99.67
338.092	62.8
338.305	91.48
338.517	46.42
338.729	64.85
338.942	97.62
339.154	-49.83
339.367	3.41
339.579	21.85
339.792	-23.21
340.004	68.95
340.217	50.52
340.429	83.28
340.641	-12.97
340.854	-58.03
341.066	62.8
341.278	71
341.491	165.2
341.703	30.04
341.915	75.09
342.128	21.85
342.34	62.8
342.552	-39.59
342.764	7.51
342.977	-21.16
343.189	130.39
343.401	87.38
343.613	-107.18
343.826	7.51
344.038	54.61
344.25	-6.83
344.462	3.41
344.674	114
344.886	17.75
345.099	71
345.311	25.94
345.523	32.08
345.735	-78.51
345.947	62.8
346.159	54.61
346.371	109.91
346.583	42.32
346.795	75.09
347.007	-12.97
347.219	138.58
347.431	42.32
347.643	75.09
347.855	38.23
348.067	130.39
348.279	-55.98
348.491	73.04
348.703	52.56
348.915	-15.02
349.127	-23.21
349.339	5.46
349.551	5.46
349.763	5.46
349.975	30.04
350.187	36.18
350.399	193.87
350.61	48.47
350.822	34.13
351.034	54.61
351.246	-21.16
351.458	50.52
351.669	83.28
351.881	146.77
352.093	62.8
352.305	132.44
352.517	13.65
352.728	159.06
352.94	27.99
353.152	25.94
353.363	32.08
353.575	132.44
353.787	95.57
353.999	122.2
354.21	148.82
354.422	-35.5
354.633	9.56
354.845	1.37
355.057	68.95
355.268	-41.64
355.48	58.71
355.692	15.7
355.903	101.72
356.115	13.65
356.326	-37.55
356.538	99.67
356.749	130.39
356.961	148.82
357.172	-31.4
357.384	36.18
357.595	193.87
357.807	89.43
358.018	58.71
358.23	11.61
358.441	126.29
358.653	109.91
358.864	13.65
359.075	-23.21
359.287	30.04
359.498	89.43
359.709	52.56
359.921	32.08
360.132	101.72
360.344	73.04
360.555	-12.97
360.766	5.46
360.977	-43.69
361.189	34.13
361.4	-0.68
361.611	154.96
361.823	48.47
362.034	101.72
362.245	-10.92
362.456	50.52
362.667	64.85
362.879	-33.45
363.09	-43.69
363.301	79.19
363.512	40.28
363.723	-23.21
363.935	7.51
364.146	169.3
364.357	-39.59
364.568	87.38
364.779	-58.03
364.99	124.24
365.201	-15.02
365.412	163.15
365.623	-103.08
365.834	56.66
366.045	71
366.256	165.2
366.467	116.05
366.678	-2.73
366.889	56.66
367.1	-84.65
367.311	136.53
367.522	38.23
367.733	66.9
367.944	13.65
368.155	21.85
368.366	56.66
368.577	89.43
368.788	40.28
368.999	34.13
369.209	-8.87
369.42	191.83
369.631	206.16
369.842	111.96
370.053	3.41
370.264	95.57
370.474	30.04
370.685	32.08
370.896	66.9
371.107	95.57
371.317	23.89
371.528	-21.16
371.739	134.48
371.95	48.47
372.16	91.48
372.371	-80.55
372.582	-4.78
372.792	95.57
373.003	27.99
373.214	118.1
373.424	161.11
373.635	48.47
373.846	103.76
374.056	21.85
374.267	34.13
374.477	73.04
374.688	-4.78
374.898	38.23
375.109	73.04
375.319	75.09
375.53	77.14
375.74	19.8
375.951	15.7
376.161	103.76
376.372	109.91
376.582	-23.21
376.793	116.05
377.003	-31.4
377.214	-19.11
377.424	185.68
377.635	23.89
377.845	-21.16
378.055	169.3
378.266	-39.59
378.476	54.61
378.686	66.9
378.897	7.51
379.107	165.2
379.317	79.19
379.528	27.99
379.738	75.09
379.948	-2.73
380.158	73.04
380.369	40.28
380.579	93.52
380.789	21.85
380.999	-12.97
381.21	21.85
381.42	185.68
381.63	-15.02
381.84	101.72
382.05	-4.78
382.261	83.28
382.471	144.72
382.681	48.47
382.891	163.15
383.101	68.95
383.311	-51.88
383.521	-55.98
383.731	-2.73
383.941	52.56
384.151	87.38
384.361	38.23
384.571	116.05
384.781	95.57
384.991	204.11
385.201	157.01
385.411	62.8
385.621	64.85
385.831	101.72
386.041	34.13
386.251	36.18
386.461	148.82
386.671	97.62
386.881	40.28
387.091	-0.68
387.301	116.05
387.511	103.76
387.72	81.24
387.93	202.07
388.14	-92.84
388.35	25.94
388.56	25.94
388.769	62.8
388.979	21.85
389.189	-78.51
389.399	-27.31
389.609	52.56
389.818	99.67
390.028	7.51
390.238	44.37
390.447	-8.87
390.657	93.52
390.867	27.99
391.076	-84.65
391.286	42.32
391.496	101.72
391.705	-25.26
391.915	118.1
392.125	105.81
392.334	-31.4
392.544	216.4
392.753	64.85
392.963	32.08
393.172	-17.07
393.382	17.75
393.591	132.44
393.801	5.46
394.01	128.34
394.22	79.19
394.429	85.33
394.639	60.76
394.848	111.96
395.058	32.08
395.267	19.8
395.477	23.89
395.686	68.95
395.895	142.68
396.105	214.35
396.314	11.61
396.524	-8.87
396.733	-51.88
396.942	138.58
397.152	99.67
397.361	56.66
397.57	75.09
397.78	7.51
397.989	62.8
398.198	204.11
398.407	107.86
398.617	7.51
398.826	54.61
399.035	27.99
399.244	91.48
399.453	85.33
399.663	136.53
399.872	50.52
400.081	-51.88
400.29	95.57
400.499	11.61
400.708	128.34
400.917	36.18
401.127	-23.21
401.336	-15.02
401.545	220.5
401.754	195.92
401.963	159.06
402.172	27.99
402.381	13.65
402.59	3.41
402.799	7.51
403.008	58.71
403.217	50.52
403.426	103.76
403.635	-4.78
403.844	58.71
404.053	36.18
404.262	91.48
404.471	179.54
404.68	66.9
404.888	5.46
405.097	77.14
405.306	81.24
405.515	71
405.724	3.41
405.933	103.76
406.142	19.8
406.35	177.49
406.559	-31.4
406.768	95.57
406.977	103.76
407.185	15.7
407.394	25.94
407.603	-72.36
407.812	40.28
408.02	126.29
408.229	46.42
408.438	91.48
408.646	-55.98
408.855	3.41
409.064	54.61
409.272	36.18
409.481	19.8
409.69	27.99
409.898	-58.03
410.107	79.19
410.315	103.76
410.524	-66.22
410.733	48.47
410.941	1.37
411.15	132.44
411.358	77.14
411.567	103.76
411.775	46.42
411.984	105.81
412.192	58.71
412.401	48.47
412.609	148.82
412.818	91.48
413.026	62.8
413.234	50.52
413.443	17.75
413.651	11.61
413.86	87.38
414.068	140.63
414.276	157.01
414.485	-139.94
414.693	167.25
414.901	75.09
415.11	23.89
415.318	34.13
415.526	101.72
415.734	81.24
415.943	122.2
416.151	109.91
416.359	75.09
416.567	32.08
416.776	116.05
416.984	167.25
417.192	189.78
417.4	-17.07
417.608	-25.26
417.817	-8.87
418.025	163.15
418.233	144.72
418.441	-43.69
418.649	-58.03
418.857	34.13
419.065	146.77
419.273	-43.69
419.481	107.86
419.689	36.18
419.897	42.32
420.105	-148.14
420.313	163.15
420.521	118.1
420.729	191.83
420.937	36.18
421.145	-19.11
421.353	101.72
421.561	179.54
421.769	36.18
421.977	27.99
422.185	58.71
422.393	48.47
422.601	124.24
422.809	95.57
423.017	128.34
423.224	126.29
423.432	122.2
423.64	32.08
423.848	118.1
424.056	-37.55
424.263	60.76
424.471	-17.07
424.679	179.54
424.887	15.7
425.094	195.92
425.302	89.43
425.51	-58.03
425.718	48.47
425.925	93.52
426.133	-35.5
426.341	251.22
426.548	64.85
426.756	27.99
426.964	136.53
427.171	50.52
427.379	87.38
427.586	25.94
427.794	132.44
428.001	111.96
428.209	58.71
428.417	208.21
428.624	87.38
428.832	159.06
429.039	118.1
429.247	101.72
429.454	66.9
429.662	238.93
429.869	95.57
430.076	136.53
430.284	171.35
430.491	232.79
430.699	83.28
430.906	179.54
431.114	159.06
431.321	132.44
431.528	101.72
431.736	175.44
431.943	114
432.15	173.39
432.358	200.02
432.565	163.15
432.772	56.66
432.979	140.63
433.187	134.48
433.394	253.27
433.601	103.76
433.808	175.44
434.016	200.02
434.223	183.63
434.43	179.54
434.637	161.11
434.844	220.5
435.052	247.12
435.259	290.13
435.466	349.52
435.673	165.2
435.88	208.21
436.087	335.18
436.294	314.7
436.501	263.51
436.708	261.46
436.915	251.22
437.122	380.24
437.329	206.16
437.537	275.79
437.743	255.31
437.95	404.82
438.157	390.48
438.364	322.9
438.571	355.66
438.778	392.53
438.985	363.86
439.192	488.78
439.399	324.94
439.606	359.76
439.813	507.21
440.02	560.46
440.227	597.32
440.433	556.36
440.64	437.58
440.847	425.29
441.054	488.78
441.261	738.63
441.467	552.27
441.674	531.79
441.881	712.01
442.088	544.08
442.294	681.29
442.501	705.87
442.708	685.39
442.914	712.01
443.121	845.13
443.328	798.03
443.534	931.14
443.741	881.99
443.948	769.35
444.154	896.33
444.361	1072.45
444.568	992.58
444.774	951.62
444.981	922.95
445.187	1127.75
445.394	990.53
445.6	1123.65
445.807	1226.05
446.013	1148.23
446.22	1154.37
446.426	1293.63
446.633	1338.69
446.839	1525.05
447.046	1318.21
447.252	1582.4
447.459	1527.1
447.665	1471.81
447.871	1668.41
448.078	1883.45
448.284	1637.69
448.491	1983.8
448.697	1959.22
448.903	2000.18
449.11	2102.58
449.316	1963.32
449.522	2338.1
449.728	2223.41
449.935	2399.54
450.141	2364.72
450.347	2604.33
450.553	2458.93
450.76	2772.27
450.966	2729.26
451.172	2903.34
451.378	2948.39
451.584	2929.96
451.791	3175.72
451.997	3261.73
452.203	3491.1
452.409	3503.39
452.615	3706.14
452.821	3521.82
453.027	3648.8
453.233	4007.19
453.44	4105.49
453.646	4148.5
453.852	4271.38
454.058	4592.91
454.264	4506.9
454.47	4797.71
454.676	5160.2
454.882	5311.75
455.088	5217.54
455.294	5412.1
455.5	5919.99
455.705	6221.05
455.911	6104.31
456.117	6341.88
456.323	6460.66
456.529	6374.64
456.735	6978.79
456.941	7408.87
457.147	7501.03
457.352	7728.35
457.558	8135.9
457.764	8539.35
457.97	8707.28
458.176	9161.93
458.381	9475.27
458.587	9940.16
458.793	10265.78
458.999	10294.46
459.204	11340.97
459.41	11871.39
459.616	11607.2
459.821	12336.28
460.027	12745.87
460.233	13726.85
460.438	13630.6
460.644	14384.25
460.85	14443.64
461.055	15101.04
461.261	15533.16
461.466	15608.94
461.672	15744.1
461.878	17663.05
462.083	17427.53
462.289	17699.91
462.494	18615.35
462.7	18730.04
462.905	18926.64
463.111	20341.79
463.316	21439.5
463.522	21804.04
463.727	22580.22
463.932	23395.31
464.138	24259.56
464.343	25287.64
464.549	25574.35
464.754	27182.01
464.959	28027.82
465.165	28216.23
465.37	27986.86
465.575	28212.13
465.781	30100.36
465.986	30798.72
466.191	30722.94
466.397	31024
466.602	30030.73
466.807	32146.28
467.012	32226.15
467.218	32799.58
467.423	33006.43
467.628	34161.48
467.833	35523.38
468.038	34964.29
468.244	34470.73
468.449	35961.65
468.654	35382.07
468.859	35054.4
469.064	35347.26
469.269	34349.9
469.474	34714.44
469.679	36074.29
469.885	34853.7
470.09	35283.77
470.295	35136.32
470.5	34566.98
470.705	34642.76
470.91	33833.81
471.115	33549.14
471.32	34399.05
471.525	33790.8
471.73	32430.95
471.935	32645.99
472.139	31529.84
472.344	31470.45
472.549	31173.5
472.754	30833.53
472.959	29737.87
473.164	28828.57
473.369	28537.76
473.574	29350.81
473.778	28664.74
473.983	28318.63
474.188	27427.76
474.393	26184.65
474.598	26454.98
474.802	25572.3
475.007	25453.52
475.212	25328.59
475.417	24204.26
475.621	23938.02
475.826	23833.58
476.031	22889.46
476.235	22660.09
476.44	22897.66
476.645	22150.15
476.849	21918.73
477.054	21429.26
477.259	21183.51
477.463	20771.86
477.668	20343.84
477.872	20651.03
478.077	20089.89
478.282	19305.52
478.486	19035.19
478.691	18973.75
478.895	18824.25
479.1	18617.4
479.304	18672.7
479.509	17544.27
479.713	18295.87
479.918	17691.72
480.122	17224.78
480.326	17359.95
480.531	17366.09
480.735	17130.58
480.94	16788.57
481.144	17323.08
481.348	16596.06
481.553	16630.87
481.757	16000.1
481.961	16450.65
482.166	16331.87
482.37	16112.74
482.574	15676.52
482.778	15748.2
482.983	16008.29
483.187	15797.35
483.391	15709.29
483.595	15338.6
483.8	15019.12
484.004	15385.71
484.208	15125.61
484.412	14802.04
484.616	14881.91
484.821	14505.08
485.025	14392.44
485.229	14376.06
485.433	14150.78
485.637	13784.19
485.841	13687.94
486.045	13730.95
486.249	13362.31
486.453	13132.94
486.657	12930.19
486.861	12641.43
487.065	12403.86
487.269	12455.06
487.473	11975.84
487.677	12151.96
487.881	11959.45
488.085	11730.08
488.289	11543.72
488.493	11091.12
488.697	11156.65
488.901	11101.36
489.105	10607.8
489.309	10583.22
489.512	10331.32
489.716	10222.78
489.92	10136.76
490.124	9782.46
490.328	9921.73
490.531	9413.83
490.735	9665.73
490.939	9280.71
491.143	8983.76
491.346	8932.56
491.55	8774.86
491.754	8680.66
491.958	8547.54
492.161	8332.5
492.365	8328.41
492.569	8152.28
492.772	8010.97
492.976	7990.49
493.18	7773.41
493.383	7732.45
493.587	7515.36
493.79	7705.82
493.994	7154.92
494.197	7277.8
494.401	7329
494.605	7046.38
494.808	7365.86
495.012	7073
495.215	7140.58
495.419	7204.07
495.622	6927.6
495.825	6966.51
496.029	6941.93
496.232	7013.61
496.436	6692.08
496.639	6876.4
496.843	6833.39
497.046	6610.16
497.249	6903.02
497.453	6749.42
497.656	6706.41
497.859	6806.77
498.063	6845.68
498.266	6771.95
498.469	6739.18
498.673	6743.28
498.876	6823.15
499.079	6993.13
499.282	7050.47
499.485	7257.32
499.689	6903.02
499.892	7130.34
500.095	7015.66
500.298	7154.92
500.501	6917.36
500.705	7279.85
500.908	7478.5
501.111	7445.73
501.314	7527.65
501.517	7560.42
501.72	7556.32
501.923	7560.42
502.126	7773.41
502.329	7859.42
502.532	7918.81
502.735	7875.81
502.938	8250.58
503.141	8197.34
503.344	8334.55
503.547	8500.44
503.75	8352.98
503.953	8445.14
504.156	8688.85
504.359	8613.07
504.562	8901.84
504.765	9311.43
504.968	9401.54
505.17	9340.1
505.373	9485.51
505.576	9741.5
505.779	9802.94
505.982	9809.09
506.185	10081.47
506.387	10298.55
506.59	10398.9
506.793	10441.91
506.996	10859.7
507.198	11160.75
507.401	11121.84
507.604	11392.17
507.807	11635.88
508.009	11732.13
508.212	12014.75
508.415	12280.99
508.617	12694.68
508.82	12801.17
509.022	13065.36
509.225	13298.83
509.428	13659.27
509.63	13737.09
509.833	14060.67
510.035	14722.16
510.238	14797.94
510.44	15096.94
510.643	15490.15
510.845	15955.04
511.048	16057.44
511.25	16358.49
511.453	16733.27
511.655	17601.61
511.858	17728.58
512.06	18082.88
512.262	18508.86
512.465	18678.84
512.667	19391.53
512.87	19815.46
513.072	20026.4
513.274	20694.04
513.477	20939.8
513.679	21535.76
513.881	22025.22
514.084	22729.72
514.286	23077.88
514.488	23198.71
514.69	24513.5
514.893	24693.72
515.095	24984.54
515.297	25383.89
515.499	26014.66
515.701	26960.83
515.904	27276.21
516.106	27698.09
516.308	28478.37
516.51	29236.12
516.712	29545.36
516.914	29725.58
517.116	31103.87
517.318	31210.36
517.52	31431.54
517.722	32373.61
517.925	32590.69
518.127	33532.76
518.329	34319.18
518.531	34032.46
518.733	35496.76
518.935	36133.68
519.136	36436.78
519.338	36981.54
519.54	37616.41
519.742	38345.48
519.944	38320.91
520.146	39541.5
520.348	39725.82
520.55	40264.43
520.752	40680.17
520.954	41360.09
521.155	42056.4
521.357	42457.81
521.559	42834.63
521.761	43702.97
521.963	43807.42
522.164	43877.05
522.366	44278.45
522.568	44855.98
522.77	45099.69
522.971	45859.48
523.173	45284
523.375	45925.02
523.576	46049.94
523.778	46076.57
523.98	46719.63
524.181	47112.84
524.383	47262.34
524.584	47557.25
524.786	47520.38
524.988	47311.49
525.189	47651.45
525.391	48206.45
525.592	48015.99
525.794	47803
525.995	47563.39
526.197	47950.46
526.398	47927.93
526.6	47428.23
526.801	47958.65
527.003	47657.6
527.204	47567.49
527.406	47671.93
527.607	47049.35
527.808	47166.09
528.01	46332.56
528.211	46242.45
528.412	47016.58
528.614	46387.86
528.815	45763.23
529.016	45951.64
529.218	45255.33
529.419	44604.08
529.62	44309.17
529.822	43819.7
530.023	43866.81
530.224	43399.87
530.425	42775.24
530.626	42248.91
530.828	41616.09
531.029	42091.22
531.23	40696.55
531.431	40993.51
531.632	40393.45
531.833	40289.01
532.035	39197.44
532.236	39105.28
532.437	38687.49
532.638	38173.45
532.839	37710.61
533.04	37501.72
533.241	36315.95
533.442	36705.06
533.643	35808.05
533.844	35367.74
534.045	34767.68
534.246	34253.64
534.447	33760.08
534.648	33413.98
534.849	33219.42
535.05	32099.18
535.251	31832.94
535.451	31728.5
535.652	31222.65
535.853	30917.5
536.054	30331.78
536.255	30098.31
536.456	29475.73
536.657	29660.05
536.857	28996.51
537.058	28484.51
537.259	28085.16
537.46	27696.05
537.66	27442.1
537.861	27040.7
538.062	26729.41
538.263	26237.89
538.463	25881.55
538.664	25707.47
538.865	25304.02
539.065	25494.48
539.266	24810.46
539.466	24564.7
539.667	24056.81
539.868	24290.27
540.068	23366.64
540.269	23120.88
540.469	23145.46
540.67	22627.32
540.87	22512.64
541.071	22066.18
541.271	22111.24
541.472	21924.87
541.672	21222.42
541.873	21296.14
542.073	20818.97
542.274	20974.61
542.474	20493.34
542.675	20104.23
542.875	20302.88
543.075	19721.26
543.276	19102.77
543.476	19485.74
543.676	19166.26
543.877	18947.12
544.077	18859.06
544.277	18787.38
544.478	18203.71
544.678	18248.77
544.878	17822.79
545.078	17681.48
545.279	17665.1
545.479	17159.25
545.679	17253.45
545.879	16843.86
546.079	16878.68
546.28	16596.06
546.48	16499.8
546.68	16534.62
546.88	15914.08
547.08	16227.42
547.28	15549.54
547.48	15195.25
547.68	15314.03
547.88	15271.02
548.081	15043.7
548.281	14828.66
548.481	14355.58
548.681	14548.09
548.881	14003.33
549.081	14244.99
549.28	13847.68
549.48	13636.74
549.68	13452.42
549.88	13460.62
550.08	13073.55
550.28	12893.33
550.48	12731.54
550.68	12651.67
550.88	12117.15
551.08	11963.55
551.279	12063.9
551.479	11613.35
551.679	11650.21
551.879	11345.06
552.079	11469.99
552.278	11261.1
552.478	11234.47
552.678	10890.42
552.878	10722.48
553.077	10538.16
553.277	10312.89
553.477	10239.16
553.676	10071.23
553.876	9925.82
554.076	9626.82
554.275	9462.98
554.475	9295.05
554.674	9305.29
554.874	8985.8
555.074	8901.84
555.273	8729.81
555.473	8711.38
555.672	8608.98
555.872	8613.07
556.071	8264.92
556.271	8156.38
556.47	8045.79
556.67	7884
556.869	7709.92
557.068	7771.36
557.268	7462.12
557.467	7429.35
557.667	7492.83
557.866	7277.8
558.065	7029.99
558.265	7210.22
558.464	6804.72
558.663	6853.87
558.863	6571.25
559.062	6601.97
559.261	6524.15
559.461	6479.09
559.66	6122.74
559.859	6202.61
560.058	5938.43
560.258	5934.33
560.457	5924.09
560.656	5938.43
560.855	5739.77
561.054	5831.93
561.253	5448.96
561.453	5424.39
561.652	5451.01
561.851	5340.42
562.05	5229.83
562.249	4908.3
562.448	5262.6
562.647	4801.8
562.846	4758.8
563.045	4893.96
563.244	4646.16
563.443	4664.59
563.642	4490.51
563.841	4474.13
564.04	4515.09
564.239	4441.36
564.438	4250.9
564.637	4082.97
564.836	4300.05
565.035	4039.96
565.234	4134.17
565.432	3898.65
565.631	3888.41
565.83	3929.37
566.029	3904.79
566.228	3806.49
566.427	3769.63
566.625	3632.41
566.824	3718.43
567.023	3577.12
567.222	3439.9
567.42	3491.1
567.619	3480.86
567.818	3355.94
568.016	3458.34
568.215	3327.27
568.414	3321.12
568.612	3251.49
568.811	3087.65
569.01	3106.09
569.208	2972.97
569.407	3046.69
569.605	2956.58
569.804	2870.57
570.002	2909.48
570.201	2688.3
570.4	2858.28
570.598	2647.34
570.797	2663.72
570.995	2688.3
571.193	2661.68
571.392	2639.15
571.59	2270.51
571.789	2503.98
571.987	2663.72
572.186	2561.33
572.384	2327.86
572.582	2301.23
572.781	2518.32
572.979	2196.79
573.177	2252.08
573.376	2207.03
573.574	2340.15
573.772	2164.02
573.971	2035
574.169	2024.76
574.367	2178.36
574.565	2057.53
574.763	1961.27
574.962	1873.21
575.16	1936.7
575.358	1926.46
575.556	1871.16
575.754	1809.72
575.952	1858.87
576.151	1776.95
576.349	1735.99
576.547	1652.03
576.745	1766.71
576.943	1703.23
577.141	1590.59
577.339	1525.05
577.537	1621.31
577.735	1705.28
577.933	1623.36
578.131	1525.05
578.329	1537.34
578.527	1484.09
578.725	1525.05
578.923	1363.26
579.121	1453.38
579.319	1291.59
579.516	1260.87
579.714	1649.98
579.912	1410.37
580.11	1176.9
580.308	1258.82
580.506	1183.04
580.704	1131.84
580.901	1137.99
581.099	1279.3
581.297	1168.71
581.495	1176.9
581.692	1103.17
581.89	1299.78
582.088	1250.63
582.285	1135.94
582.483	1097.03
582.681	1090.88
582.878	1006.92
583.076	1072.45
583.274	1127.75
583.471	1267.01
583.669	1072.45
583.866	937.29
584.064	908.62
584.262	824.65
584.459	888.14
584.657	879.94
584.854	1027.4
585.052	951.62
585.249	908.62
585.447	855.37
585.644	763.21
585.841	918.86
586.039	922.95
586.236	902.47
586.434	849.22
586.631	769.35
586.828	763.21
587.026	738.63
587.223	726.35
587.42	767.31
587.618	691.53
587.815	738.63
588.012	679.24
588.21	642.38
588.407	695.63
588.604	816.46
588.801	634.19
588.999	658.76
589.196	816.46
589.393	578.89
589.59	769.35
589.787	671.05
589.984	570.7
590.182	740.68
590.379	632.14
590.576	722.25
590.773	697.67
590.97	630.09
591.167	699.72
591.364	685.39
591.561	660.81
591.758	705.87
591.955	630.09
592.152	605.52
592.349	671.05
592.546	623.95
592.743	621.9
592.94	611.66
593.137	638.28
593.334	703.82
593.531	683.34
593.727	666.96
593.924	652.62
594.121	673.1
594.318	527.69
594.515	664.91
594.712	724.3
594.908	712.01
595.105	599.37
595.302	691.53
595.499	765.26
595.696	738.63
595.892	587.08
596.089	808.27
596.286	707.91
596.482	834.89
596.679	703.82
596.876	716.11
597.072	955.72
597.269	888.14
597.466	830.79
597.662	875.85
597.859	869.7
598.055	935.24
598.252	996.68
598.448	1015.11
598.645	1049.93
598.841	1072.45
599.038	1197.38
599.234	1226.05
599.431	1205.57
599.627	1189.19
599.824	1342.78
600.02	1246.53
600.217	1297.73
600.413	1359.17
600.609	1475.9
600.806	1768.76
601.002	1680.7
601.198	1426.75
601.395	1799.48
601.591	1727.8
601.787	1768.76
601.984	1836.35
602.18	1887.54
602.376	1977.66
602.572	2139.44
602.769	2297.14
602.965	2133.3
603.161	2309.43
603.357	2426.16
603.553	2430.26
603.75	2446.64
603.946	2590
604.142	2749.74
604.338	2839.85
604.534	2755.88
604.73	2878.76
604.926	2882.86
605.122	3177.76
605.318	3200.29
605.514	3452.19
605.71	3400.99
605.906	3534.11
606.102	3624.22
606.298	3806.49
606.494	3800.35
606.69	3990.81
606.886	4158.74
607.082	4035.86
607.278	4244.76
607.474	4527.38
607.67	4668.69
607.866	4381.97
608.062	4879.63
608.257	5049.61
608.453	5045.51
608.649	5219.59
608.845	5309.7
609.041	5516.55
609.236	5735.68
609.432	5881.08
609.628	5938.43
609.824	5919.99
610.019	6200.57
610.215	6278.39
610.411	6657.26
610.606	6835.44
610.802	6681.84
610.998	7036.14
611.193	7247.08
611.389	7357.67
611.584	7623.9
611.78	7716.06
611.976	7847.13
612.171	8484.05
612.367	8428.76
612.562	8539.35
612.758	8639.7
612.953	9018.57
613.149	9413.83
613.344	9561.28
613.539	9798.85
613.735	10001.6
613.93	10587.32
614.126	10441.91
614.321	10847.41
614.517	11224.23
614.712	11459.75
614.907	11859.1
615.103	11959.45
615.298	12295.32
615.493	12706.96
615.688	12901.52
615.884	13507.72
616.079	13501.58
616.274	13919.36
616.47	14294.14
616.665	14619.77
616.86	15197.29
617.055	15395.95
617.25	15602.79
617.445	16262.24
617.641	16348.25
617.836	16872.53
618.031	17017.94
618.226	17777.73
618.421	18224.19
618.616	18725.94
618.811	18787.38
619.006	19676.2
619.201	19645.48
619.396	20347.93
619.591	20306.98
619.786	20958.23
619.981	21285.9
620.176	22014.98
620.371	22244.35
620.566	22950.9
620.761	23106.55
620.956	23938.02
621.151	23901.16
621.346	24953.82
621.541	24542.17
621.735	25506.77
621.93	25717.71
622.125	26436.55
622.32	26340.29
622.515	27599.79
622.709	27546.55
622.904	28255.14
623.099	28623.78
623.294	29641.62
623.488	29588.37
623.683	30589.83
623.878	30544.77
624.072	31562.61
624.267	31806.32
624.462	32279.4
624.656	32050.03
624.851	33413.98
625.046	33256.28
625.24	34339.66
625.435	34208.59
625.629	34796.35
625.824	35380.03
626.018	35855.15
626.213	35343.16
626.407	36449.07
626.602	36365.1
626.796	37356.32
626.991	37606.17
627.185	37960.47
627.38	37851.92
627.574	37993.23
627.768	38296.33
627.963	38509.32
628.157	38400.78
628.352	38798.09
628.546	38601.48
628.74	39066.37
628.935	38378.25
629.129	38609.67
629.323	38308.62
629.517	38066.96
629.712	37554.97
629.906	37571.35
630.1	37382.94
630.294	37163.81
630.489	35932.98
630.683	35853.11
630.877	34857.79
631.071	34618.18
631.265	34478.92
631.459	33303.39
631.653	32373.61
631.848	31916.91
632.042	31011.71
632.236	30452.61
632.43	29432.72
632.624	28773.28
632.818	27712.43
633.012	26874.81
633.206	25912.27
633.4	25207.76
633.594	24175.59
633.788	23673.84
633.982	22893.56
634.176	22101
634.369	21074.96
634.563	20489.24
634.757	19264.56
634.951	18969.65
635.145	17988.67
635.339	17624.14
635.533	16536.67
635.726	16198.75
635.92	15213.68
636.114	14689.4
636.308	14353.53
636.501	13841.54
636.695	13167.76
636.889	12328.09
637.083	11789.47
637.276	11480.23
637.47	10824.88
637.664	10556.6
637.857	10267.83
638.051	9690.31
638.244	9309.38
638.438	8938.7
638.632	8705.23
638.825	8090.84
639.019	7998.68
639.212	7607.52
639.406	7427.3
639.599	6978.79
639.793	6812.91
639.986	6436.08
640.18	6251.77
640.373	5938.43
640.567	5780.73
640.76	5477.63
640.954	5389.57
641.147	5063.94
641.34	4947.21
641.534	4773.13
641.727	4689.17
641.92	4373.78
642.114	4289.81
642.307	4125.97
642.5	3953.94
642.694	3691.8
642.887	3546.4
643.08	3585.31
643.273	3460.38
643.467	3118.37
643.66	3038.5
643.853	2882.86
644.046	2870.57
644.239	2782.51
644.432	2643.24
644.626	2434.35
644.819	2344.24
645.012	2313.52
645.205	2266.42
645.398	2290.99
645.591	2071.86
645.784	1946.94
645.977	1875.26
646.17	1987.9
646.363	1721.66
646.556	1744.19
646.749	1615.16
646.942	1572.16
647.135	1549.63
647.328	1488.19
647.521	1480
647.714	1451.33
647.907	1436.99
648.099	1148.23
648.292	1226.05
648.485	1328.45
648.678	1115.46
648.871	998.73
649.064	1101.12
649.256	881.99
649.449	933.19
649.642	812.36
649.835	925
650.027	814.41
650.22	849.22
650.413	808.27
650.605	912.71
650.798	779.59
650.991	793.93
651.183	695.63
651.376	826.7
651.568	712.01
651.761	626
651.954	687.43
652.146	626
652.339	693.58
652.531	671.05
652.724	550.22
652.916	505.17
653.109	423.25
653.301	552.27
653.494	537.93
653.686	460.11
653.879	519.5
654.071	447.82
654.263	437.58
654.456	326.99
654.648	574.8
654.84	410.96
655.033	439.63
655.225	513.36
655.417	245.07
655.61	517.45
655.802	429.39
655.994	433.49
656.186	298.32
656.379	400.72
656.571	232.79
656.763	261.46
656.955	275.79
657.148	329.04
657.34	404.82
657.532	204.11
657.724	238.93
657.916	187.73
658.108	341.33
658.3	351.57
658.492	322.9
658.684	208.21
658.876	308.56
659.068	167.25
659.26	95.57
659.452	163.15
659.644	310.61
659.836	341.33
660.028	200.02
660.22	230.74
660.412	251.22
660.604	261.46
660.796	234.83
660.988	245.07
661.18	187.73
661.372	175.44
661.563	167.25
661.755	226.64
661.947	130.39
662.139	157.01
662.331	154.96
662.522	204.11
662.714	48.47
662.906	128.34
663.097	91.48
663.289	165.2
663.481	83.28
663.673	144.72
663.864	191.83
664.056	222.55
664.247	187.73
664.439	257.36
664.631	210.26
664.822	167.25
665.014	187.73
665.205	165.2
665.397	91.48
665.588	204.11
665.78	132.44
665.971	216.4
666.163	111.96
666.354	120.15
666.546	50.52
666.737	111.96
666.929	73.04
667.12	38.23
667.311	189.78
667.503	48.47
667.694	169.3
667.885	146.77
668.077	154.96
668.268	58.71
668.459	181.59
668.651	167.25
668.842	152.92
669.033	19.8
669.224	11.61
669.416	261.46
669.607	73.04
669.798	99.67
669.989	138.58
670.18	83.28
670.371	140.63
670.563	52.56
670.754	177.49
670.945	157.01
671.136	181.59
671.327	99.67
671.518	202.07
671.709	261.46
671.9	109.91
672.091	181.59
672.282	83.28
672.473	85.33
672.664	-31.4
672.855	132.44
673.046	130.39
673.237	154.96
673.428	19.8
673.619	40.28
673.809	191.83
674	187.73
674.191	240.98
674.382	81.24
674.573	40.28
674.764	118.1
674.954	253.27
675.145	50.52
675.336	25.94
675.527	152.92
675.717	116.05
675.908	105.81
676.099	120.15
676.289	52.56
676.48	60.76
676.671	173.39
676.861	25.94
677.052	212.31
677.243	120.15
677.433	7.51
677.624	144.72
677.814	185.68
678.005	97.62
678.195	326.99
678.386	83.28
678.576	183.63
678.767	11.61
678.957	116.05
679.148	240.98
679.338	206.16
679.529	193.87
679.719	120.15
679.909	288.08
680.1	179.54
680.29	157.01
680.481	93.52
680.671	146.77
680.861	165.2
681.052	114
681.242	118.1
681.432	126.29
681.622	189.78
681.813	91.48
682.003	99.67
682.193	101.72
682.383	163.15
682.573	146.77
682.764	93.52
682.954	236.88
683.144	263.51
683.334	66.9
683.524	142.68
683.714	161.11
683.904	116.05
684.094	167.25
684.284	136.53
684.474	257.36
684.664	197.97
684.854	163.15
685.044	101.72
685.234	124.24
685.424	171.35
685.614	159.06
685.804	353.62
685.994	228.69
686.184	238.93
686.374	240.98
686.564	154.96
686.753	202.07
686.943	114
687.133	130.39
687.323	179.54
687.513	230.74
687.702	191.83
687.892	152.92
688.082	245.07
688.272	179.54
688.461	193.87
688.651	294.22
688.841	232.79
689.03	150.87
689.22	195.92
689.41	191.83
689.599	161.11
689.789	163.15
689.979	288.08
690.168	138.58
690.358	185.68
690.547	204.11
690.737	236.88
690.926	157.01
691.116	140.63
691.305	230.74
691.495	195.92
691.684	95.57
691.874	146.77
692.063	142.68
692.252	271.7
692.442	163.15
692.631	109.91
692.82	148.82
693.01	130.39
693.199	216.4
693.388	169.3
693.578	179.54
693.767	210.26
693.956	226.64
694.146	214.35
694.335	279.89
694.524	146.77
694.713	142.68
694.902	83.28
695.092	140.63
695.281	214.35
695.47	150.87
695.659	118.1
695.848	208.21
696.037	48.47
696.226	249.17
696.415	157.01
696.604	177.49
696.793	177.49
696.982	161.11
697.171	326.99
697.36	62.8
697.549	157.01
697.738	40.28
697.927	171.35
698.116	118.1
698.305	146.77
698.494	206.16
698.683	128.34
698.872	304.46
699.061	132.44
699.25	163.15
699.438	185.68
699.627	60.76
699.816	271.7
700.005	52.56
700.193	44.37
700.382	220.5
700.571	175.44
700.76	195.92
700.948	245.07
701.137	183.63
701.326	281.94
701.514	62.8
701.703	191.83
701.892	238.93
702.08	314.7
702.269	140.63
702.457	124.24
702.646	220.5
702.834	165.2
703.023	261.46
703.212	275.79
703.4	136.53
703.589	68.95
703.777	85.33
703.965	66.9
704.154	85.33
704.342	58.71
704.531	146.77
704.719	154.96
704.907	171.35
705.096	175.44
705.284	66.9
705.472	234.83
705.661	200.02
705.849	210.26
706.037	157.01
706.226	154.96
706.414	181.59
706.602	73.04
706.79	232.79
706.979	68.95
707.167	93.52
707.355	48.47
707.543	243.03
707.731	138.58
707.919	154.96
708.107	56.66
708.296	118.1
708.484	56.66
708.672	161.11
708.86	161.11
709.048	159.06
709.236	89.43
709.424	193.87
709.612	181.59
709.8	87.38
709.988	191.83
710.176	157.01
710.364	171.35
710.551	103.76
710.739	118.1
710.927	118.1
711.115	58.71
711.303	251.22
711.491	171.35
711.679	128.34
711.866	181.59
712.054	167.25
712.242	68.95
712.43	257.36
712.617	79.19
712.805	255.31
712.993	124.24
713.181	25.94
713.368	185.68
713.556	144.72
713.744	218.45
713.931	347.47
714.119	224.59
714.306	152.92
714.494	181.59
714.682	87.38
714.869	91.48
715.057	183.63
715.244	79.19
715.432	224.59
715.619	107.86
715.807	130.39
715.994	103.76
716.182	136.53
716.369	210.26
716.556	181.59
716.744	73.04
716.931	114
717.119	208.21
717.306	247.12
717.493	167.25
717.681	124.24
717.868	89.43
718.055	200.02
718.242	236.88
718.43	134.48
718.617	130.39
718.804	124.24
718.991	222.55
719.179	144.72
719.366	177.49
719.553	228.69
719.74	208.21
719.927	167.25
720.114	97.62
720.301	85.33
720.488	71
720.676	124.24
720.863	222.55
721.05	277.84
721.237	165.2
721.424	206.16
721.611	122.2
721.798	75.09
721.985	140.63
722.172	193.87
722.358	210.26
722.545	208.21
722.732	185.68
722.919	243.03
723.106	204.11
723.293	134.48
723.48	136.53
723.667	89.43
723.853	202.07
724.04	269.65
724.227	220.5
724.414	181.59
724.6	232.79
724.787	294.22
724.974	304.46
725.161	197.97
725.347	134.48
725.534	226.64
725.72	200.02
725.907	283.99
726.094	300.37
726.28	165.2
726.467	181.59
726.653	124.24
726.84	226.64
727.027	214.35
727.213	185.68
727.4	245.07
727.586	247.12
727.773	165.2
727.959	224.59
728.145	232.79
728.332	236.88
728.518	189.78
728.705	294.22
728.891	218.45
729.077	279.89
729.264	64.85
729.45	189.78
729.636	232.79
729.823	193.87
730.009	296.27
730.195	238.93
730.382	261.46
730.568	122.2
730.754	277.84
730.94	140.63
731.126	165.2
731.313	226.64
731.499	163.15
731.685	202.07
731.871	204.11
732.057	269.65
732.243	171.35
732.429	224.59
732.615	320.85
732.801	218.45
732.987	208.21
733.173	257.36
733.359	132.44
733.545	132.44
733.731	261.46
733.917	312.66
734.103	218.45
734.289	222.55
734.475	159.06
734.661	396.62
734.847	253.27
735.033	167.25
735.219	310.61
735.404	189.78
735.59	163.15
735.776	185.68
735.962	267.6
736.148	228.69
736.333	304.46
736.519	193.87
736.705	187.73
736.89	163.15
737.076	200.02
737.262	169.3
737.447	202.07
737.633	234.83
737.819	283.99
738.004	181.59
738.19	214.35
738.375	232.79
738.561	263.51
738.747	157.01
738.932	163.15
739.118	253.27
739.303	179.54
739.489	320.85
739.674	204.11
739.859	101.72
740.045	257.36
740.23	197.97
740.416	50.52
740.601	253.27
740.786	259.41
740.972	255.31
741.157	157.01
741.342	105.81
741.528	17.75
741.713	324.94
741.898	154.96
742.084	218.45
742.269	140.63
742.454	312.66
742.639	281.94
742.824	243.03
743.01	316.75
743.195	316.75
743.38	253.27
743.565	144.72
743.75	228.69
743.935	263.51
744.12	283.99
744.305	85.33
744.49	183.63
744.675	169.3
744.86	101.72
745.045	177.49
745.23	144.72
745.415	206.16
745.6	279.89
745.785	165.2
745.97	257.36
746.155	316.75
746.34	290.13
746.525	159.06
746.71	275.79
746.895	144.72
747.079	81.24
747.264	265.55
747.449	206.16
747.634	261.46
747.819	146.77
748.003	118.1
748.188	157.01
748.373	243.03
748.557	185.68
748.742	148.82
748.927	154.96
749.111	177.49
749.296	173.39
749.481	187.73
749.665	142.68
749.85	103.76
750.034	181.59
750.219	228.69
750.404	97.62
750.588	167.25
750.773	111.96
750.957	222.55
751.141	179.54
751.326	224.59
751.51	44.37
751.695	101.72
751.879	138.58
752.064	298.32
752.248	99.67
752.432	300.37
752.617	193.87
752.801	236.88
752.985	52.56
753.17	189.78
753.354	267.6
753.538	157.01
753.722	95.57
753.907	91.48
754.091	40.28
754.275	142.68
754.459	27.99
754.643	58.71
754.828	226.64
755.012	187.73
755.196	64.85
755.38	163.15
755.564	138.58
755.748	103.76
755.932	173.39
756.116	187.73
756.3	101.72
756.484	75.09
756.668	116.05
756.852	56.66
757.036	73.04
757.22	159.06
757.404	75.09
757.588	50.52
757.772	87.38
757.956	77.14
758.14	214.35
758.323	107.86
758.507	152.92
758.691	167.25
758.875	161.11
759.059	224.59
759.242	77.14
759.426	238.93
759.61	154.96
759.794	111.96
759.977	216.4
760.161	404.82
760.345	177.49
760.528	181.59
760.712	118.1
760.895	200.02
761.079	89.43
761.263	38.23
761.446	79.19
761.63	83.28
761.813	247.12
761.997	-6.83
762.18	107.86
762.364	142.68
762.547	9.56
762.731	25.94
762.914	154.96
763.098	48.47
763.281	36.18
763.464	68.95
763.648	62.8
763.831	46.42
764.015	87.38
764.198	204.11
764.381	75.09
764.564	116.05
764.748	73.04
764.931	25.94
765.114	107.86
765.297	146.77
765.481	-45.74
765.664	19.8
765.847	107.86
766.03	116.05
766.213	-6.83
766.397	54.61
766.58	-2.73
766.763	109.91
766.946	19.8
767.129	89.43
767.312	40.28
767.495	75.09
767.678	21.85
767.861	40.28
768.044	91.48
768.227	32.08
768.41	54.61
768.593	193.87
768.776	83.28
768.959	42.32
769.142	243.03
769.324	83.28
769.507	83.28
769.69	9.56
769.873	58.71
770.056	208.21
770.239	75.09
770.421	120.15
770.604	118.1
770.787	50.52
770.97	181.59
771.152	-12.97
771.335	77.14
771.518	58.71
771.7	136.53
771.883	183.63
772.066	83.28
772.248	87.38
772.431	87.38
772.613	118.1
772.796	99.67
772.978	71
773.161	109.91
773.343	40.28
773.526	3.41
773.708	-25.26
773.891	-53.93
774.073	107.86
774.256	52.56
774.438	140.63
774.621	34.13
774.803	38.23
774.985	19.8
775.168	142.68
775.35	-6.83
775.532	132.44
775.715	68.95
775.897	89.43
776.079	-41.64
776.261	140.63
776.444	3.41
776.626	5.46
776.808	107.86
776.99	-6.83
777.173	87.38
777.355	89.43
777.537	-19.11
777.719	99.67
777.901	27.99
778.083	38.23
778.265	-35.5
778.447	54.61
778.629	-27.31
778.811	44.37
778.993	126.29
779.175	128.34
779.357	73.04
779.539	-49.83
779.721	5.46
779.903	107.86
780.085	40.28
780.267	25.94
780.449	48.47
780.631	62.8
780.812	189.78
780.994	68.95
781.176	-31.4
781.358	-8.87
781.54	95.57
781.721	-19.11
781.903	128.34
782.085	-6.83
782.267	157.01
782.448	-25.26
782.63	54.61
782.812	66.9
782.993	23.89
783.175	21.85
783.357	-4.78
783.538	-15.02
783.72	-4.78
783.901	25.94
784.083	87.38
784.264	58.71
784.446	-103.08
784.627	-47.79
784.809	36.18
784.99	44.37
785.172	103.76
785.353	-70.31
785.535	-25.26
785.716	27.99
785.897	-64.17
786.079	44.37
786.26	48.47
786.441	58.71
786.623	-72.36
786.804	-64.17
786.985	-15.02
787.167	48.47
787.348	95.57
787.529	83.28
787.71	146.77
787.891	62.8
788.073	-70.31
788.254	-41.64
788.435	95.57
788.616	34.13
788.797	-84.65
788.978	-74.41
789.159	-31.4
789.34	58.71
789.522	-64.17
789.703	-70.31
789.884	66.9
790.065	32.08
790.246	54.61
790.427	42.32
790.607	152.92
790.788	58.71
790.969	-25.26
791.15	83.28
791.331	21.85
791.512	-78.51
791.693	-31.4
791.874	13.65
792.054	202.07
792.235	46.42
792.416	-0.68
792.597	-86.7
792.778	7.51
792.958	95.57
793.139	17.75
793.32	85.33
793.5	-74.41
793.681	118.1
793.862	32.08
794.042	7.51
794.223	1.37
794.404	-17.07
794.584	-139.94
794.765	-25.26
794.945	62.8
795.126	79.19
795.306	99.67
795.487	-6.83
795.667	-29.35
795.848	-4.78
796.028	40.28
796.209	23.89
796.389	58.71
796.57	-41.64
796.75	-8.87
796.93	9.56
797.111	-74.41
797.291	-15.02
797.471	54.61
797.652	-111.27
797.832	36.18
798.012	107.86
798.192	-21.16
798.373	-82.6
798.553	36.18
798.733	40.28
798.913	-121.51
799.093	-6.83
799.274	60.76
799.454	-0.68
799.634	32.08
799.814	50.52
799.994	75.09
800.174	71
800.354	34.13
800.534	-66.22
800.714	50.52
800.894	7.51
801.074	1.37
801.254	-146.09
801.434	101.72
801.614	-0.68
801.794	13.65
801.974	1979.7
802.154	-27.31
802.334	79.19
802.514	-113.32
802.693	-98.99
802.873	-45.74
803.053	132.44
803.233	21.85
803.413	21.85
803.592	-55.98
803.772	-47.79
803.952	-0.68
804.131	-76.46
804.311	56.66
804.491	73.04
804.67	-21.16
804.85	-111.27
805.03	99.67
805.209	42.32
805.389	-43.69
805.568	-15.02
805.748	-37.55
805.928	3.41
806.107	17.75
806.287	21.85
806.466	-117.42
806.646	42.32
806.825	-8.87
807.004	1.37
807.184	60.76
807.363	3.41
807.543	15.7
807.722	-33.45
807.901	56.66
808.081	95.57
808.26	-121.51
808.439	-31.4
808.619	13.65
808.798	-47.79
808.977	42.32
809.156	122.2
809.336	13.65
809.515	34.13
809.694	-113.32
809.873	-19.11
810.052	36.18
810.231	30.04
810.411	56.66
810.59	25.94
810.769	-51.88
810.948	50.52
811.127	-68.27
811.306	48.47
811.485	-107.18
811.664	161.11
811.843	21.85
812.022	-47.79
812.201	-23.21
812.38	-43.69
812.559	-68.27
812.737	50.52
812.916	-115.37
813.095	-137.9
813.274	-10.92
813.453	54.61
813.632	56.66
813.811	7.51
813.989	-92.84
814.168	25.94
814.347	-55.98
814.526	-6.83
814.704	111.96
814.883	128.34
815.062	1.37
815.24	62.8
815.419	11.61
815.598	-4.78
815.776	-115.37
815.955	23.89
816.133	-92.84
816.312	52.56
816.49	-49.83
816.669	71
816.847	32.08
817.026	-37.55
817.204	-17.07
817.383	21.85
817.561	-35.5
817.74	3.41
817.918	17.75
818.097	-51.88
818.275	-37.55
818.453	23.89
818.632	17.75
818.81	7.51
818.988	-10.92
819.167	-33.45
819.345	7.51
819.523	-45.74
819.701	17.75
819.879	83.28
820.058	-39.59
820.236	17.75
820.414	-43.69
820.592	89.43
820.77	-51.88
820.948	3.41
821.127	-15.02
821.305	-0.68
821.483	-27.31
821.661	25.94
821.839	1.37
822.017	-47.79
822.195	-37.55
822.373	64.85
822.551	38.23
822.729	91.48
822.907	19.8
823.085	-2.73
823.262	66.9
823.44	9.56
823.618	9.56
823.796	3.41
823.974	-10.92
824.152	-8.87
824.329	21.85
824.507	-23.21
824.685	-21.16
824.863	-21.16
825.04	34.13
825.218	13.65
825.396	5.46
825.574	36.18
825.751	9.56
825.929	-10.92
826.107	-96.94
826.284	-27.31
826.462	-2.73
826.639	-58.03
826.817	-78.51
826.994	23.89
827.172	-45.74
827.349	30.04
827.527	75.09
827.704	73.04
827.882	79.19
828.059	-33.45
828.237	-2.73
828.414	77.14
828.591	-80.55
828.769	-25.26
828.946	-64.17
829.124	122.2
829.301	105.81
829.478	-31.4
829.655	19.8
829.833	79.19
830.01	-80.55
830.187	17.75
830.364	-39.59
830.542	9.56
830.719	36.18
830.896	52.56
831.073	-4.78
831.25	-21.16
831.427	66.9
831.604	5.46
831.782	15.7
831.959	99.67
832.136	1.37
832.313	-62.12
832.49	-4.78
832.667	64.85
832.844	42.32
833.021	64.85
833.198	42.32
833.374	-6.83
833.551	23.89
833.728	-10.92
833.905	52.56
834.082	-148.14
834.259	13.65
834.436	87.38
834.612	-129.7
834.789	7.51
834.966	13.65
835.143	58.71
835.319	-88.75
835.496	46.42
835.673	-29.35
835.85	50.52
836.026	36.18
836.203	40.28
836.38	-33.45
836.556	-64.17
836.733	-43.69
836.909	99.67
837.086	-76.46
837.262	-86.7
837.439	-19.11
837.616	-117.42
837.792	-12.97
837.968	23.89
838.145	-111.27
838.321	21.85
838.498	44.37
838.674	34.13
838.851	42.32
839.027	-66.22
839.203	3.41
839.38	25.94
839.556	5.46
839.732	-6.83
839.909	21.85
840.085	36.18
840.261	-111.27
840.437	62.8
840.614	9.56
840.79	60.76
840.966	-17.07
841.142	-29.35
841.318	-35.5
841.494	17.75
841.671	79.19
841.847	-37.55
842.023	-98.99
842.199	19.8
842.375	66.9
842.551	-94.89
842.727	-109.22
842.903	68.95
843.079	-41.64
843.255	42.32
843.431	-78.51
843.607	73.04
843.783	-107.18
843.959	58.71
844.134	-33.45
844.31	144.72
844.486	-8.87
844.662	-17.07
844.838	-39.59
845.013	68.95
845.189	66.9
845.365	9.56
845.541	-31.4
845.716	-78.51
845.892	-12.97
846.068	-23.21
846.244	-137.9
846.419	-47.79
846.595	-111.27
846.77	7.51
846.946	95.57
847.122	21.85
847.297	50.52
847.473	64.85
847.648	-45.74
847.824	50.52
847.999	-109.22
848.175	-113.32
848.35	17.75
848.526	128.34
848.701	62.8
848.876	105.81
849.052	122.2
849.227	-6.83
849.403	-78.51
849.578	-66.22
849.753	25.94
849.929	11.61
850.104	-66.22
850.279	-8.87
850.454	48.47
850.63	21.85
850.805	-39.59
850.98	68.95
851.155	-43.69
851.33	1.37
851.505	-162.47
851.681	116.05
851.856	-21.16
852.031	85.33
852.206	38.23
852.381	-55.98
852.556	66.9
852.731	17.75
852.906	118.1
853.081	-35.5
853.256	60.76
853.431	-86.7
853.606	-35.5
853.781	-35.5
853.956	-72.36
854.131	21.85
854.305	-135.85
854.48	-49.83
854.655	-60.07
854.83	-53.93
855.005	-29.35
855.18	58.71
855.354	17.75
855.529	13.65
855.704	36.18
855.879	32.08
856.053	-49.83
856.228	-35.5
856.403	-51.88
856.577	81.24
856.752	-80.55
856.926	83.28
857.101	-37.55
857.276	-53.93
857.45	48.47
857.625	58.71
857.799	-35.5
857.974	15.7
858.148	-144.04
858.323	-23.21
858.497	-37.55
858.672	17.75
858.846	-72.36
859.02	-4.78
859.195	-43.69
859.369	-6.83
859.543	44.37
859.718	-6.83
859.892	-12.97
860.066	23.89
860.241	21.85
860.415	-70.31
860.589	-21.16
860.763	-12.97
860.938	30.04
861.112	-21.16
861.286	7.51
861.46	-23.21
861.634	-66.22
861.808	-25.26
861.982	-119.46
862.157	-113.32
862.331	-105.13
862.505	-103.08
862.679	-103.08
862.853	-53.93
863.027	-72.36
863.201	56.66
863.375	-60.07
863.549	50.52
863.722	-21.16
863.896	-6.83
864.07	5.46
864.244	-68.27
864.418	42.32
864.592	-0.68
864.766	-2.73
864.939	9.56
865.113	-74.41
865.287	130.39
865.461	-49.83
865.634	-2.73
865.808	-23.21
865.982	-29.35
866.156	-101.03
866.329	-133.8
866.503	83.28
866.676	40.28
866.85	36.18
867.024	-49.83
867.197	91.48
867.371	58.71
867.544	-45.74
867.718	-158.38
867.891	66.9
868.065	-47.79
868.238	-51.88
868.412	56.66
868.585	-31.4
868.759	-66.22
868.932	-119.46
869.105	-35.5
869.279	3.41
869.452	-115.37
869.625	7.51
869.799	-88.75
869.972	-27.31
870.145	-60.07
870.319	62.8
870.492	-98.99
870.665	-74.41
870.838	-49.83
871.011	-111.27
871.185	-45.74
871.358	-49.83
871.531	-35.5
871.704	-68.27
871.877	1.37
872.05	-94.89
872.223	-55.98
872.396	-23.21
872.569	11.61
872.742	-137.9
872.915	71
873.088	-68.27
873.261	48.47
873.434	30.04
873.607	-58.03
873.78	91.48
873.953	-74.41
874.126	-19.11
874.299	-17.07
874.471	-33.45
874.644	3.41
874.817	23.89
874.99	128.34
875.163	-33.45
875.335	21.85
875.508	-2.73
875.681	62.8
875.853	-88.75
876.026	-2.73
876.199	73.04
876.371	60.76
876.544	-62.12
876.717	-58.03
876.889	19.8
877.062	89.43
877.234	-133.8
877.407	-17.07
877.579	9.56
877.752	17.75
877.924	91.48
878.097	13.65
878.269	15.7
878.442	38.23
878.614	-0.68
878.786	5.46
878.959	46.42
879.131	-78.51
879.303	-133.8
879.476	11.61
879.648	105.81
879.82	11.61
879.993	-10.92
880.165	-55.98
880.337	-80.55
880.509	9.56
880.681	-113.32
880.854	-8.87
881.026	58.71
881.198	118.1
881.37	-43.69
881.542	-27.31
881.714	21.85
881.886	-51.88
882.058	-17.07
882.23	-25.26
882.402	-51.88
882.574	64.85
882.746	23.89
882.918	48.47
883.09	23.89
883.262	-6.83
883.434	1.37
883.606	-58.03
883.778	17.75
883.95	89.43
884.122	-37.55
884.293	71
884.465	11.61
884.637	-12.97
884.809	-15.02
884.98	-19.11
885.152	32.08
885.324	19.8
885.496	-80.55
885.667	-15.02
885.839	-90.79
886.011	54.61
886.182	-45.74
886.354	-0.68
886.525	-23.21
886.697	-29.35
886.869	-25.26
887.04	-98.99
887.212	46.42
887.383	75.09
887.555	34.13
887.726	-27.31
887.897	-105.13
888.069	25.94
888.24	-15.02
888.412	-60.07
888.583	15.7
888.754	-8.87
888.926	-47.79
889.097	-0.68
889.268	-180.9
889.44	40.28
889.611	-113.32
889.782	-121.51
889.953	-58.03
890.125	79.19
890.296	-84.65
890.467	50.52
890.638	-41.64
890.809	19.8
890.98	-43.69
891.151	-21.16
891.323	99.67
891.494	34.13
891.665	21.85
891.836	-25.26
892.007	21.85
892.178	9.56
892.349	-55.98
892.52	-23.21
892.691	-17.07
892.862	-80.55
893.032	-123.56
893.203	1.37
893.374	-10.92
893.545	95.57
893.716	-6.83
893.887	79.19
894.057	-60.07
894.228	-17.07
894.399	-21.16
894.57	-4.78
894.74	21.85
894.911	7.51
895.082	-21.16
895.253	-117.42
895.423	-41.64
895.594	58.71
895.764	42.32
895.935	-70.31
896.106	97.62
896.276	-41.64
896.447	21.85
896.617	-96.94
896.788	-55.98
896.958	1.37
897.129	9.56
897.299	13.65
897.47	154.96
897.64	58.71
897.81	-92.84
897.981	-55.98
898.151	-39.59
898.322	15.7
898.492	-35.5
898.662	-82.6
898.832	-39.59
899.003	-0.68
899.173	7.51
899.343	-86.7
899.513	-123.56
