Data from USB4F104151__1__10-41-01-391.txt Node

Date: Wed Feb 26 10:41:01 EST 2025
User: louis
Spectrometer: USB4F10415
Trigger mode: 4
Integration Time (sec): 1.000000E-1
Scans to average: 1
Electric dark correction enabled: true
Nonlinearity correction enabled: false
Boxcar width: 0
XAxis mode: Wavelengths
Number of Pixels in Spectrum: 3648
>>>>>Begin Spectral Data<<<<<
178.204	-440.48
178.424	-440.48
178.644	-440.48
178.864	-391.33
179.084	-417.96
179.304	16.21
179.524	-18.6
179.744	-43.18
179.964	42.84
180.184	8.02
180.404	96.08
180.624	-51.37
180.844	81.75
181.064	-88.23
181.283	26.45
181.503	-61.61
181.723	-8.36
181.943	-92.33
182.163	190.29
182.383	-49.32
182.602	55.12
182.822	38.74
183.042	96.08
183.262	-47.27
183.482	-16.55
183.701	-18.6
183.921	-51.37
184.141	-53.42
184.361	63.32
184.58	-16.55
184.8	75.6
185.02	12.12
185.239	79.7
185.459	20.31
185.679	63.32
185.898	-80.04
186.118	71.51
186.338	83.8
186.557	67.41
186.777	-57.51
186.997	-20.65
187.216	24.4
187.436	104.28
187.655	36.69
187.875	110.42
188.095	-41.13
188.314	171.86
188.534	89.94
188.753	-28.84
188.973	102.23
189.192	120.66
189.412	-16.55
189.631	-22.7
189.851	57.17
190.07	141.14
190.29	-12.46
190.509	-16.55
190.729	40.79
190.948	178
191.168	233.3
191.387	-55.47
191.607	-8.36
191.826	48.98
192.045	-67.75
192.265	-16.55
192.484	34.64
192.704	85.84
192.923	-61.61
193.142	169.81
193.362	42.84
193.581	145.24
193.8	5.97
194.02	81.75
194.239	14.17
194.458	102.23
194.678	-0.17
194.897	3.93
195.116	141.14
195.335	22.36
195.555	57.17
195.774	-34.99
195.993	163.67
196.212	1.88
196.432	53.08
196.651	8.02
196.87	32.6
197.089	225.11
197.308	59.22
197.528	57.17
197.747	24.4
197.966	-16.55
198.185	108.37
198.404	-51.37
198.623	110.42
198.842	130.9
199.062	69.46
199.281	16.21
199.5	-41.13
199.719	55.12
199.938	112.47
200.157	96.08
200.376	149.33
200.595	167.76
200.814	42.84
201.033	48.98
201.252	85.84
201.471	94.04
201.69	63.32
201.909	-18.6
202.128	40.79
202.347	46.93
202.566	12.12
202.785	-39.08
203.004	-24.75
203.223	243.54
203.442	-22.7
203.661	-75.95
203.879	81.75
204.098	89.94
204.317	-39.08
204.536	91.99
204.755	104.28
204.974	130.9
205.193	57.17
205.411	155.47
205.63	159.57
205.849	22.36
206.068	57.17
206.287	-49.32
206.505	163.67
206.724	57.17
206.943	34.64
207.162	-32.94
207.381	83.8
207.599	42.84
207.818	-2.22
208.037	-16.55
208.255	67.41
208.474	100.18
208.693	-14.51
208.911	-55.47
209.13	59.22
209.349	55.12
209.567	96.08
209.786	110.42
210.005	120.66
210.223	-69.8
210.442	-71.85
210.661	94.04
210.879	55.12
211.098	22.36
211.316	24.4
211.535	5.97
211.753	61.27
211.972	157.52
212.191	-59.56
212.409	14.17
212.628	104.28
212.846	89.94
213.065	32.6
213.283	85.84
213.502	-8.36
213.72	51.03
213.938	30.55
214.157	-32.94
214.375	143.19
214.594	14.17
214.812	100.18
215.031	53.08
215.249	3.93
215.467	81.75
215.686	-24.75
215.904	87.89
216.122	20.31
216.341	139.09
216.559	55.12
216.778	94.04
216.996	96.08
217.214	24.4
217.432	12.12
217.651	-77.99
217.869	48.98
218.087	-34.99
218.306	-4.27
218.524	83.8
218.742	51.03
218.96	155.47
219.179	69.46
219.397	40.79
219.615	155.47
219.833	155.47
220.051	-49.32
220.27	65.36
220.488	173.91
220.706	89.94
220.924	71.51
221.142	-8.36
221.36	81.75
221.578	22.36
221.796	-12.46
222.015	59.22
222.233	67.41
222.451	155.47
222.669	-34.99
222.887	48.98
223.105	28.5
223.323	-28.84
223.541	-6.31
223.759	65.36
223.977	24.4
224.195	159.57
224.413	51.03
224.631	30.55
224.849	102.23
225.067	282.45
225.285	12.12
225.503	-82.09
225.721	-73.9
225.939	38.74
226.157	8.02
226.375	255.83
226.592	-30.89
226.81	26.45
227.028	143.19
227.246	128.85
227.464	32.6
227.682	75.6
227.9	67.41
228.117	59.22
228.335	55.12
228.553	67.41
228.771	42.84
228.989	87.89
229.206	137.04
229.424	59.22
229.642	-18.6
229.86	5.97
230.077	194.39
230.295	-4.27
230.513	192.34
230.731	57.17
230.948	196.43
231.166	122.71
231.384	40.79
231.601	-32.94
231.819	184.15
232.037	5.97
232.254	-73.9
232.472	3.93
232.689	3.93
232.907	79.7
233.125	26.45
233.342	-67.75
233.56	16.21
233.777	57.17
233.995	-0.17
234.213	30.55
234.43	57.17
234.648	10.07
234.865	-55.47
235.083	104.28
235.3	34.64
235.518	126.8
235.735	167.76
235.953	87.89
236.17	14.17
236.388	-28.84
236.605	77.65
236.822	100.18
237.04	44.88
237.257	38.74
237.475	38.74
237.692	30.55
237.909	67.41
238.127	-59.56
238.344	44.88
238.562	61.27
238.779	-55.47
238.996	5.97
239.214	44.88
239.431	18.26
239.648	65.36
239.865	188.24
240.083	53.08
240.3	-14.51
240.517	3.93
240.735	-4.27
240.952	114.52
241.169	5.97
241.386	61.27
241.603	63.32
241.821	-51.37
242.038	69.46
242.255	157.52
242.472	28.5
242.689	-37.03
242.907	98.13
243.124	20.31
243.341	42.84
243.558	-4.27
243.775	-45.23
243.992	8.02
244.209	79.7
244.426	163.67
244.643	10.07
244.86	-2.22
245.078	73.56
245.295	36.69
245.512	10.07
245.729	-61.61
245.946	-28.84
246.163	-16.55
246.38	-12.46
246.597	18.26
246.814	34.64
247.031	48.98
247.248	16.21
247.464	77.65
247.681	51.03
247.898	173.91
248.115	44.88
248.332	46.93
248.549	116.56
248.766	200.53
248.983	98.13
249.2	30.55
249.417	120.66
249.633	16.21
249.85	106.32
250.067	38.74
250.284	75.6
250.501	77.65
250.717	73.56
250.934	-20.65
251.151	-0.17
251.368	44.88
251.585	32.6
251.801	53.08
252.018	-94.38
252.235	114.52
252.451	-59.56
252.668	-75.95
252.885	104.28
253.102	65.36
253.318	24.4
253.535	26.45
253.752	-22.7
253.968	-20.65
254.185	-24.75
254.401	51.03
254.618	61.27
254.835	-20.65
255.051	122.71
255.268	100.18
255.484	77.65
255.701	65.36
255.917	94.04
256.134	-47.27
256.351	79.7
256.567	-100.52
256.784	36.69
257	-6.31
257.217	114.52
257.433	73.56
257.65	106.32
257.866	22.36
258.082	-94.38
258.299	122.71
258.515	67.41
258.732	102.23
258.948	-92.33
259.165	1.88
259.381	-14.51
259.597	51.03
259.814	20.31
260.03	59.22
260.246	8.02
260.463	96.08
260.679	81.75
260.895	118.61
261.112	30.55
261.328	1.88
261.544	-53.42
261.761	114.52
261.977	-8.36
262.193	-20.65
262.409	120.66
262.626	79.7
262.842	87.89
263.058	1.88
263.274	51.03
263.49	-8.36
263.707	151.38
263.923	57.17
264.139	-125.1
264.355	57.17
264.571	79.7
264.787	3.93
265.004	153.43
265.22	59.22
265.436	-4.27
265.652	48.98
265.868	102.23
266.084	12.12
266.3	36.69
266.516	-2.22
266.732	-20.65
266.948	98.13
267.164	-47.27
267.38	102.23
267.596	-12.46
267.812	192.34
268.028	14.17
268.244	-82.09
268.46	106.32
268.676	57.17
268.892	-55.47
269.108	-6.31
269.324	61.27
269.54	-30.89
269.756	79.7
269.972	-34.99
270.188	-28.84
270.403	-20.65
270.619	65.36
270.835	126.8
271.051	-10.41
271.267	-22.7
271.483	-24.75
271.698	81.75
271.914	12.12
272.13	-45.23
272.346	-4.27
272.562	44.88
272.777	151.38
272.993	-41.13
273.209	36.69
273.425	106.32
273.64	-0.17
273.856	28.5
274.072	-59.56
274.287	-6.31
274.503	55.12
274.719	59.22
274.934	-12.46
275.15	-104.62
275.366	69.46
275.581	-43.18
275.797	-2.22
276.012	36.69
276.228	-22.7
276.444	38.74
276.659	118.61
276.875	-69.8
277.09	-16.55
277.306	12.12
277.521	46.93
277.737	12.12
277.952	137.04
278.168	-45.23
278.383	14.17
278.599	32.6
278.814	75.6
279.03	36.69
279.245	157.52
279.461	57.17
279.676	42.84
279.892	-20.65
280.107	-26.79
280.322	-86.19
280.538	98.13
280.753	-47.27
280.969	96.08
281.184	73.56
281.399	143.19
281.615	-18.6
281.83	44.88
282.045	-28.84
282.26	65.36
282.476	143.19
282.691	120.66
282.906	65.36
283.122	-61.61
283.337	-22.7
283.552	48.98
283.767	-20.65
283.983	98.13
284.198	91.99
284.413	94.04
284.628	-94.38
284.843	5.97
285.058	73.56
285.274	48.98
285.489	44.88
285.704	28.5
285.919	-0.17
286.134	38.74
286.349	55.12
286.564	-16.55
286.779	139.09
286.995	77.65
287.21	-90.28
287.425	63.32
287.64	98.13
287.855	-22.7
288.07	-2.22
288.285	163.67
288.5	116.56
288.715	34.64
288.93	-2.22
289.145	-43.18
289.36	114.52
289.575	14.17
289.79	169.81
290.004	28.5
290.219	171.86
290.434	18.26
290.649	22.36
290.864	1.88
291.079	-32.94
291.294	30.55
291.509	79.7
291.724	114.52
291.938	-12.46
292.153	-4.27
292.368	-14.51
292.583	178
292.798	108.37
293.012	28.5
293.227	32.6
293.442	-30.89
293.657	94.04
293.871	132.95
294.086	34.64
294.301	169.81
294.516	81.75
294.73	79.7
294.945	-100.52
295.16	89.94
295.374	153.43
295.589	91.99
295.804	-39.08
296.018	44.88
296.233	83.8
296.447	42.84
296.662	1.88
296.877	91.99
297.091	36.69
297.306	-43.18
297.52	-22.7
297.735	16.21
297.949	38.74
298.164	38.74
298.378	40.79
298.593	-2.22
298.807	-8.36
299.022	77.65
299.236	151.38
299.451	-43.18
299.665	48.98
299.88	-16.55
300.094	128.85
300.309	40.79
300.523	44.88
300.737	42.84
300.952	100.18
301.166	38.74
301.381	16.21
301.595	8.02
301.809	24.4
302.024	87.89
302.238	-0.17
302.452	145.24
302.667	38.74
302.881	89.94
303.095	98.13
303.309	73.56
303.524	-18.6
303.738	-30.89
303.952	20.31
304.166	63.32
304.381	-129.19
304.595	165.71
304.809	-30.89
305.023	32.6
305.237	-20.65
305.452	61.27
305.666	-4.27
305.88	65.36
306.094	61.27
306.308	104.28
306.522	100.18
306.736	30.55
306.95	151.38
307.164	48.98
307.379	-8.36
307.593	159.57
307.807	91.99
308.021	139.09
308.235	46.93
308.449	-67.75
308.663	69.46
308.877	210.77
309.091	1.88
309.305	106.32
309.519	-118.95
309.733	122.71
309.947	-55.47
310.161	89.94
310.374	114.52
310.588	81.75
310.802	-39.08
311.016	63.32
311.23	139.09
311.444	-39.08
311.658	53.08
311.872	139.09
312.085	44.88
312.299	77.65
312.513	153.43
312.727	108.37
312.941	-34.99
313.154	55.12
313.368	112.47
313.582	51.03
313.796	65.36
314.009	77.65
314.223	126.8
314.437	65.36
314.651	57.17
314.864	-12.46
315.078	-45.23
315.292	-82.09
315.505	28.5
315.719	28.5
315.933	94.04
316.146	32.6
316.36	-41.13
316.573	124.76
316.787	96.08
317.001	48.98
317.214	-49.32
317.428	132.95
317.641	-65.71
317.855	-18.6
318.068	51.03
318.282	57.17
318.495	206.67
318.709	94.04
318.922	40.79
319.136	130.9
319.349	132.95
319.563	34.64
319.776	59.22
319.99	-75.95
320.203	153.43
320.417	20.31
320.63	65.36
320.843	149.33
321.057	-37.03
321.27	-22.7
321.483	110.42
321.697	59.22
321.91	5.97
322.124	120.66
322.337	122.71
322.55	16.21
322.763	24.4
322.977	20.31
323.19	-71.85
323.403	108.37
323.617	-34.99
323.83	102.23
324.043	26.45
324.256	-28.84
324.469	-63.66
324.683	85.84
324.896	-28.84
325.109	28.5
325.322	-2.22
325.535	112.47
325.748	116.56
325.962	-16.55
326.175	91.99
326.388	38.74
326.601	104.28
326.814	-53.42
327.027	42.84
327.24	135
327.453	-127.14
327.666	85.84
327.879	159.57
328.092	141.14
328.305	53.08
328.518	32.6
328.731	85.84
328.944	-10.41
329.157	61.27
329.37	-8.36
329.583	206.67
329.796	153.43
330.009	-67.75
330.222	42.84
330.435	26.45
330.648	83.8
330.861	48.98
331.073	48.98
331.286	-4.27
331.499	20.31
331.712	-63.66
331.925	-34.99
332.138	104.28
332.35	75.6
332.563	-59.56
332.776	110.42
332.989	-18.6
333.202	10.07
333.414	-16.55
333.627	77.65
333.84	3.93
334.053	46.93
334.265	18.26
334.478	-49.32
334.691	-49.32
334.903	16.21
335.116	14.17
335.329	-10.41
335.541	26.45
335.754	186.19
335.966	18.26
336.179	55.12
336.392	22.36
336.604	63.32
336.817	1.88
337.029	48.98
337.242	73.56
337.454	110.42
337.667	-0.17
337.88	135
338.092	55.12
338.305	126.8
338.517	3.93
338.729	100.18
338.942	132.95
339.154	-43.18
339.367	1.88
339.579	116.56
339.792	12.12
340.004	51.03
340.217	-45.23
340.429	-16.55
340.641	-0.17
340.854	-49.32
341.066	69.46
341.278	145.24
341.491	182.1
341.703	89.94
341.915	-55.47
342.128	55.12
342.34	12.12
342.552	-41.13
342.764	24.4
342.977	-41.13
343.189	12.12
343.401	59.22
343.613	-86.19
343.826	40.79
344.038	-16.55
344.25	40.79
344.462	-2.22
344.674	89.94
344.886	48.98
345.099	53.08
345.311	63.32
345.523	-53.42
345.735	-18.6
345.947	59.22
346.159	59.22
346.371	-6.31
346.583	26.45
346.795	124.76
347.007	12.12
347.219	26.45
347.431	-22.7
347.643	114.52
347.855	-6.31
348.067	116.56
348.279	-47.27
348.491	10.07
348.703	42.84
348.915	53.08
349.127	-47.27
349.339	22.36
349.551	32.6
349.763	175.95
349.975	-41.13
350.187	104.28
350.399	137.04
350.61	89.94
350.822	16.21
351.034	28.5
351.246	55.12
351.458	94.04
351.669	130.9
351.881	157.52
352.093	163.67
352.305	161.62
352.517	10.07
352.728	169.81
352.94	96.08
353.152	30.55
353.363	-125.1
353.575	81.75
353.787	145.24
353.999	85.84
354.21	139.09
354.422	28.5
354.633	-59.56
354.845	71.51
355.057	104.28
355.268	46.93
355.48	32.6
355.692	-67.75
355.903	102.23
356.115	-57.51
356.326	-12.46
356.538	143.19
356.749	40.79
356.961	135
357.172	-45.23
357.384	-61.61
357.595	159.57
357.807	16.21
358.018	57.17
358.23	36.69
358.441	126.8
358.653	98.13
358.864	44.88
359.075	12.12
359.287	20.31
359.498	81.75
359.709	38.74
359.921	55.12
360.132	87.89
360.344	79.7
360.555	-32.94
360.766	12.12
360.977	44.88
361.189	132.95
361.4	-26.79
361.611	186.19
361.823	130.9
362.034	57.17
362.245	-131.24
362.456	57.17
362.667	94.04
362.879	-55.47
363.09	89.94
363.301	67.41
363.512	118.61
363.723	-102.57
363.935	20.31
364.146	120.66
364.357	-30.89
364.568	-4.27
364.779	-2.22
364.99	171.86
365.201	-41.13
365.412	104.28
365.623	-39.08
365.834	26.45
366.045	139.09
366.256	81.75
366.467	112.47
366.678	-2.22
366.889	24.4
367.1	-37.03
367.311	75.6
367.522	-43.18
367.733	1.88
367.944	22.36
368.155	28.5
368.366	81.75
368.577	124.76
368.788	102.23
368.999	-65.71
369.209	22.36
369.42	196.43
369.631	186.19
369.842	143.19
370.053	81.75
370.264	69.46
370.474	-55.47
370.685	44.88
370.896	1.88
371.107	188.24
371.317	30.55
371.528	48.98
371.739	116.56
371.95	46.93
372.16	24.4
372.371	26.45
372.582	-61.61
372.792	145.24
373.003	98.13
373.214	12.12
373.424	40.79
373.635	38.74
373.846	85.84
374.056	48.98
374.267	108.37
374.477	126.8
374.688	18.26
374.898	48.98
375.109	102.23
375.319	59.22
375.53	106.32
375.74	106.32
375.951	-0.17
376.161	94.04
376.372	102.23
376.582	22.36
376.793	44.88
377.003	-12.46
377.214	12.12
377.424	-4.27
377.635	71.51
377.845	-14.51
378.055	81.75
378.266	34.64
378.476	-8.36
378.686	16.21
378.897	22.36
379.107	83.8
379.317	30.55
379.528	20.31
379.738	126.8
379.948	-34.99
380.158	63.32
380.369	3.93
380.579	161.62
380.789	63.32
380.999	65.36
381.21	79.7
381.42	169.81
381.63	28.5
381.84	85.84
382.05	51.03
382.261	116.56
382.471	151.38
382.681	112.47
382.891	114.52
383.101	59.22
383.311	24.4
383.521	-8.36
383.731	91.99
383.941	126.8
384.151	48.98
384.361	-45.23
384.571	55.12
384.781	-8.36
384.991	126.8
385.201	116.56
385.411	67.41
385.621	71.51
385.831	91.99
386.041	30.55
386.251	-6.31
386.461	63.32
386.671	65.36
386.881	10.07
387.091	-12.46
387.301	85.84
387.511	81.75
387.72	89.94
387.93	28.5
388.14	-18.6
388.35	69.46
388.56	141.14
388.769	96.08
388.979	12.12
389.189	-39.08
389.399	-10.41
389.609	81.75
389.818	128.85
390.028	53.08
390.238	3.93
390.447	30.55
390.657	48.98
390.867	-8.36
391.076	3.93
391.286	104.28
391.496	-18.6
391.705	-20.65
391.915	102.23
392.125	71.51
392.334	-41.13
392.544	182.1
392.753	12.12
392.963	-12.46
393.172	85.84
393.382	-32.94
393.591	225.11
393.801	-0.17
394.01	112.47
394.22	30.55
394.429	116.56
394.639	18.26
394.848	24.4
395.058	36.69
395.267	81.75
395.477	112.47
395.686	46.93
395.895	235.35
396.105	186.19
396.314	63.32
396.524	20.31
396.733	42.84
396.942	65.36
397.152	67.41
397.361	165.71
397.57	100.18
397.78	14.17
397.989	104.28
398.198	169.81
398.407	12.12
398.617	3.93
398.826	36.69
399.035	42.84
399.244	112.47
399.453	61.27
399.663	26.45
399.872	65.36
400.081	-67.75
400.29	130.9
400.499	-59.56
400.708	126.8
400.917	87.89
401.127	30.55
401.336	-10.41
401.545	186.19
401.754	130.9
401.963	57.17
402.172	16.21
402.381	12.12
402.59	51.03
402.799	65.36
403.008	132.95
403.217	71.51
403.426	53.08
403.635	-65.71
403.844	102.23
404.053	34.64
404.262	106.32
404.471	73.56
404.68	28.5
404.888	48.98
405.097	51.03
405.306	-6.31
405.515	73.56
405.724	16.21
405.933	48.98
406.142	12.12
406.35	159.57
406.559	20.31
406.768	83.8
406.977	114.52
407.185	48.98
407.394	108.37
407.603	-61.61
407.812	-4.27
408.02	122.71
408.229	-32.94
408.438	87.89
408.646	5.97
408.855	89.94
409.064	79.7
409.272	24.4
409.481	110.42
409.69	-108.71
409.898	-49.32
410.107	28.5
410.315	65.36
410.524	38.74
410.733	53.08
410.941	108.37
411.15	65.36
411.358	26.45
411.567	139.09
411.775	32.6
411.984	48.98
412.192	89.94
412.401	44.88
412.609	96.08
412.818	91.99
413.026	20.31
413.234	48.98
413.443	73.56
413.651	38.74
413.86	96.08
414.068	132.95
414.276	182.1
414.485	-20.65
414.693	196.43
414.901	202.58
415.11	75.6
415.318	40.79
415.526	16.21
415.734	91.99
415.943	77.65
416.151	116.56
416.359	75.6
416.567	69.46
416.776	65.36
416.984	137.04
417.192	141.14
417.4	5.97
417.608	10.07
417.817	-12.46
418.025	26.45
418.233	122.71
418.441	-2.22
418.649	-2.22
418.857	85.84
419.065	48.98
419.273	61.27
419.481	106.32
419.689	-28.84
419.897	-10.41
420.105	-10.41
420.313	128.85
420.521	161.62
420.729	182.1
420.937	14.17
421.145	-73.9
421.353	126.8
421.561	173.91
421.769	98.13
421.977	36.69
422.185	126.8
422.393	71.51
422.601	137.04
422.809	85.84
423.017	28.5
423.224	75.6
423.432	120.66
423.64	75.6
423.848	147.28
424.056	-10.41
424.263	83.8
424.471	-24.75
424.679	153.43
424.887	-26.79
425.094	147.28
425.302	44.88
425.51	-30.89
425.718	85.84
425.925	61.27
426.133	89.94
426.341	171.86
426.548	69.46
426.756	59.22
426.964	106.32
427.171	46.93
427.379	89.94
427.586	61.27
427.794	122.71
428.001	132.95
428.209	67.41
428.417	214.87
428.624	110.42
428.832	114.52
429.039	81.75
429.247	42.84
429.454	221.01
429.662	307.02
429.869	169.81
430.076	89.94
430.284	135
430.491	175.95
430.699	135
430.906	231.25
431.114	135
431.321	130.9
431.528	143.19
431.736	218.96
431.943	175.95
432.15	157.52
432.358	161.62
432.565	264.02
432.772	57.17
432.979	231.25
433.187	73.56
433.394	165.71
433.601	145.24
433.808	198.48
434.016	298.83
434.223	266.07
434.43	229.2
434.637	259.92
434.844	298.83
435.052	231.25
435.259	284.5
435.466	370.51
435.673	249.68
435.88	325.46
436.087	374.61
436.294	266.07
436.501	401.23
436.708	251.73
436.915	446.29
437.122	427.85
437.329	327.5
437.537	376.66
437.743	368.46
437.95	520.01
438.157	411.47
438.364	409.42
438.571	452.43
438.778	515.92
438.985	517.97
439.192	538.45
439.399	499.53
439.606	571.21
439.813	563.02
440.02	733
440.227	677.71
440.433	595.79
440.64	630.6
440.847	567.12
441.054	708.43
441.261	790.35
441.467	649.04
441.674	714.57
441.881	773.96
442.088	743.24
442.294	835.4
442.501	798.54
442.708	900.94
442.914	819.02
443.121	954.18
443.328	970.57
443.534	1040.2
443.741	1021.77
443.948	882.5
444.154	1132.36
444.361	1310.53
444.568	1040.2
444.774	1228.61
444.981	991.05
445.187	1240.9
445.394	1277.76
445.6	1228.61
445.807	1455.94
446.013	1376.06
446.22	1412.93
446.426	1482.56
446.633	1656.64
446.839	1881.91
447.046	1670.97
447.252	1711.93
447.459	1818.43
447.665	1906.49
447.871	1926.97
448.078	2129.72
448.284	2180.92
448.491	2203.44
448.697	2320.18
448.903	2324.27
449.11	2365.23
449.316	2436.91
449.522	2668.33
449.728	2731.82
449.935	2815.79
450.141	2834.22
450.347	3110.69
450.553	2993.96
450.76	3182.37
450.966	3305.25
451.172	3317.54
451.378	3585.82
451.584	3444.51
451.791	3770.14
451.997	3893.02
452.203	3966.74
452.409	4181.78
452.615	4386.58
452.821	4212.5
453.027	4187.93
453.233	4828.94
453.44	4767.5
453.646	4890.38
453.852	5023.5
454.058	5449.47
454.264	5439.23
454.47	5955.32
454.676	5869.31
454.882	6514.42
455.088	6170.36
455.294	6328.05
455.5	6856.43
455.705	7223.02
455.911	7337.7
456.117	7472.87
456.323	7796.45
456.529	7765.73
456.735	8421.08
456.941	8638.16
457.147	8867.53
457.352	9187.02
457.558	9508.55
457.764	10092.22
457.97	10301.11
458.176	10854.06
458.381	11243.18
458.587	11533.99
458.793	12099.23
458.999	12002.97
459.204	13588.1
459.41	14106.24
459.616	13893.25
459.821	14644.85
460.027	15343.21
460.233	16076.38
460.438	16006.75
460.644	16914
460.85	16995.92
461.055	17905.22
461.261	18533.95
461.466	18239.04
461.672	18533.95
461.878	20909.59
462.083	20588.06
462.289	20661.79
462.494	21988.87
462.7	22042.12
462.905	22455.81
463.111	24260.07
463.316	25546.19
463.522	25849.29
463.727	26506.69
463.932	27872.68
464.138	28409.25
464.343	30055.82
464.549	29924.75
464.754	31970.67
464.959	32609.64
465.165	33430.87
465.37	32869.73
465.575	33135.96
465.781	35425.59
465.986	36191.53
466.191	35747.12
466.397	36255.02
466.602	35370.3
466.807	37192.99
467.012	38270.22
467.218	38810.89
467.423	38677.77
467.628	40088.82
467.833	42095.83
468.038	40971.49
468.244	40262.89
468.449	42530
468.654	41344.22
468.859	41381.09
469.064	41370.85
469.269	40719.59
469.474	41051.36
469.679	42161.36
469.885	40551.66
470.09	41501.92
470.295	41919.7
470.5	40684.78
470.705	41192.67
470.91	39392.51
471.115	39486.71
471.32	39988.47
471.525	39730.42
471.73	39101.7
471.935	38696.2
472.139	36988.19
472.344	37135.65
472.549	36554.02
472.754	36035.89
472.959	35423.54
473.164	33920.34
473.369	33699.16
473.574	34577.73
473.778	33994.06
473.983	33473.88
474.188	32814.43
474.393	31010.17
474.598	31012.22
474.802	30719.36
475.007	30293.38
475.212	29873.55
475.417	28482.98
475.621	28530.08
475.826	28126.63
476.031	27174.33
476.235	27051.45
476.44	26992.06
476.645	26238.4
476.849	25982.41
477.054	25484.75
477.259	25075.16
477.463	24810.97
477.668	24235.49
477.872	24143.33
478.077	23729.64
478.282	22812.15
478.486	22502.91
478.691	22468.09
478.895	22087.17
479.1	22312.45
479.304	22025.73
479.509	21192.21
479.713	21544.46
479.918	20995.6
480.122	20360.73
480.326	20532.76
480.531	20602.39
480.735	20315.68
480.94	20071.97
481.144	20868.63
481.348	19535.4
481.553	19611.18
481.757	19254.83
481.961	19521.07
482.166	19312.17
482.37	19260.98
482.574	18683.45
482.778	18957.88
482.983	19017.27
483.187	18591.29
483.391	18673.21
483.595	18263.61
483.8	17913.41
484.004	18249.28
484.208	18095.68
484.412	17686.09
484.616	17751.62
484.821	17503.82
485.025	16715.35
485.229	17049.17
485.433	16666.2
485.637	16658.01
485.841	16166.49
486.045	16162.4
486.249	16184.93
486.453	15525.48
486.657	15574.63
486.861	15349.36
487.065	14927.47
487.269	14913.14
487.473	14444.15
487.677	14407.29
487.881	14204.54
488.085	13960.83
488.289	13837.95
488.493	13504.14
488.697	13344.39
488.901	13250.19
489.105	12840.59
489.309	12656.28
489.512	12566.17
489.716	12234.39
489.92	12002.97
490.124	11654.82
490.328	11925.15
490.531	11216.55
490.735	11378.34
490.939	10874.54
491.143	10792.62
491.346	10557.11
491.55	10548.92
491.754	10538.68
491.958	10094.27
492.161	9916.09
492.365	9901.76
492.569	9866.94
492.772	9486.02
492.976	9412.29
493.18	9324.23
493.383	9365.19
493.587	9111.24
493.79	9119.43
493.994	8855.25
494.197	8974.03
494.401	8828.62
494.605	8586.96
494.808	8675.02
495.012	8525.52
495.215	8722.13
495.419	8462.04
495.622	8390.36
495.825	8206.04
496.029	8007.39
496.232	8355.54
496.436	8224.47
496.639	8416.98
496.843	8146.65
497.046	8056.54
497.249	8300.25
497.453	8187.61
497.656	8218.33
497.859	8128.22
498.063	8158.94
498.266	8462.04
498.469	8152.79
498.673	8154.84
498.876	8404.69
499.079	8335.06
499.282	8361.69
499.485	8531.67
499.689	8531.67
499.892	8713.94
500.095	8546
500.298	8808.14
500.501	8449.75
500.705	8920.78
500.908	8912.59
501.111	8926.93
501.314	8943.31
501.517	9090.76
501.72	9111.24
501.923	9238.22
502.126	9375.43
502.329	9430.73
502.532	9350.85
502.735	9692.87
502.938	10010.3
503.141	9850.56
503.344	9901.76
503.547	9981.63
503.75	10090.17
503.953	10458.81
504.156	10399.41
504.359	10634.93
504.562	10669.75
504.765	10962.61
504.968	11247.27
505.17	11429.54
505.373	11366.06
505.576	11519.65
505.779	12050.08
505.982	11572.9
506.185	12271.26
506.387	12295.83
506.59	12590.74
506.793	12938.9
506.996	12942.99
507.198	13336.2
507.401	13532.81
507.604	13633.16
507.807	13936.26
508.009	14462.58
508.212	14558.84
508.415	14925.43
508.617	15038.06
508.82	15359.59
509.022	15570.54
509.225	16197.21
509.428	16402.01
509.63	16451.16
509.833	16944.72
510.035	17716.81
510.238	17874.5
510.44	18202.18
510.643	18757.18
510.845	19168.82
511.048	19379.76
511.25	19793.45
511.453	20405.79
511.655	21276.18
511.858	21274.13
512.06	21812.74
512.262	22087.17
512.465	22507.01
512.667	23133.68
512.87	23569.9
513.072	24081.89
513.274	24694.24
513.477	25167.32
513.679	25605.58
513.881	26136.01
514.084	26938.81
514.286	27317.68
514.488	27858.35
514.69	28556.71
514.893	29382.04
515.095	29799.82
515.297	30338.44
515.499	30733.7
515.701	31737.2
515.904	32464.23
516.106	33389.91
516.308	33592.66
516.51	34239.82
516.712	34891.07
516.914	35915.06
517.116	36363.56
517.318	36787.49
517.52	37704.98
517.722	38161.68
517.925	38688.01
518.127	39703.8
518.329	40609
518.531	40355.05
518.733	41766.1
518.935	42308.82
519.136	42581.2
519.338	43463.87
519.54	44043.45
519.742	45020.33
519.944	45245.6
520.146	46060.69
520.348	46740.62
520.55	47176.84
520.752	47555.71
520.954	48704.62
521.155	48643.18
521.357	49615.97
521.559	50101.34
521.761	50736.21
521.963	50775.12
522.164	51328.07
522.366	51622.98
522.568	52317.24
522.77	52589.62
522.971	53476.39
523.173	53156.91
523.375	53591.08
523.576	53806.11
523.778	54047.77
523.98	54565.91
524.181	54840.34
524.383	54893.58
524.584	55653.38
524.786	55145.48
524.988	54979.6
525.189	55628.8
525.391	55235.59
525.592	55989.25
525.794	55624.71
525.995	55804.93
526.197	55663.62
526.398	55735.3
526.6	55579.65
526.801	55426.06
527.003	55546.89
527.204	54875.15
527.406	54957.07
527.607	54711.31
527.808	54760.47
528.01	53515.3
528.211	53515.3
528.412	54047.77
528.614	53822.5
528.815	52862
529.016	53318.7
529.218	52225.08
529.419	52323.38
529.62	51557.44
529.822	50965.58
530.023	50689.1
530.224	50046.04
530.425	49861.72
530.626	48714.86
530.828	48229.49
531.029	48751.73
531.23	48010.36
531.431	47576.19
531.632	46845.07
531.833	46152.85
532.035	45937.82
532.236	45657.24
532.437	45085.86
532.638	43941.05
532.839	44307.63
533.04	43326.66
533.241	42407.12
533.442	42521.8
533.643	41768.15
533.844	40912.1
534.045	40467.69
534.246	39507.19
534.447	39382.27
534.648	38776.07
534.849	38761.73
535.05	37813.52
535.251	37733.65
535.451	37066.02
535.652	36431.15
535.853	36142.38
536.054	35978.54
536.255	35349.82
536.456	34684.23
536.657	34211.15
536.857	33600.85
537.058	33160.54
537.259	32810.34
537.46	32302.44
537.66	31759.73
537.861	31614.32
538.062	31004.03
538.263	30580.1
538.463	30221.7
538.664	30092.68
538.865	29562.26
539.065	29529.49
539.266	28392.87
539.466	28706.21
539.667	27852.2
539.868	28194.22
540.068	27252.15
540.269	27651.5
540.469	27071.93
540.67	26504.64
540.87	26283.46
541.071	26025.42
541.271	25761.23
541.472	25705.93
541.672	25177.56
541.873	24882.65
542.073	24192.48
542.274	24315.36
542.474	24106.47
542.675	23426.54
542.875	23698.92
543.075	23055.86
543.276	22574.59
543.476	23025.14
543.676	22230.53
543.877	22181.38
544.077	22054.4
544.277	22003.21
544.478	21192.21
544.678	21276.18
544.878	21079.57
545.078	20635.16
545.279	20391.45
545.479	20127.27
545.679	20190.75
545.879	19850.79
546.079	19809.83
546.28	19244.59
546.48	19140.15
546.68	18994.74
546.88	18546.23
547.08	18683.45
547.28	18269.76
547.48	17952.32
547.68	17868.36
547.88	17481.29
548.081	17487.43
548.281	17153.62
548.481	16891.48
548.681	16787.03
548.881	16531.03
549.081	16318.04
549.28	15971.94
549.48	15896.16
549.68	15627.88
549.88	15494.76
550.08	15091.31
550.28	14734.96
550.48	14831.22
550.68	14855.79
550.88	14208.64
551.08	14012.03
551.279	14345.85
551.479	13919.87
551.679	13854.34
551.879	13344.39
552.079	13237.9
552.278	12996.24
552.478	12863.12
552.678	12883.6
552.878	12478.1
553.077	12230.3
553.277	11892.38
553.477	11882.14
553.676	11943.58
553.876	11538.09
554.076	11177.64
554.275	11181.74
554.475	10956.46
554.674	10763.95
554.874	10780.34
555.074	10403.51
555.273	10360.5
555.473	10229.43
555.672	9991.87
555.872	9795.26
556.071	9625.28
556.271	9555.65
556.47	9307.85
556.67	9150.15
556.869	9098.95
557.068	8951.5
557.268	8836.81
557.467	8834.77
557.667	8797.9
557.866	8404.69
558.065	8244.95
558.265	8122.07
558.464	7870.17
558.663	8079.07
558.863	7550.69
559.062	7857.89
559.261	7423.72
559.461	7522.02
559.66	7050.99
559.859	7042.79
560.058	6969.07
560.258	6866.67
560.457	6790.89
560.656	6864.62
560.855	6545.14
561.054	6508.27
561.253	6467.31
561.453	6278.9
561.652	6332.15
561.851	6156.02
562.05	6074.1
562.249	5934.84
562.448	5832.44
562.647	5574.4
562.846	5711.61
563.045	5728
563.244	5381.89
563.443	5492.48
563.642	5203.72
563.841	5248.77
564.04	5234.44
564.239	5199.62
564.438	5003.02
564.637	4964.11
564.836	4790.03
565.035	4691.73
565.234	4747.02
565.432	4546.32
565.631	4609.81
565.83	4738.83
566.029	4536.08
566.228	4503.31
566.427	4386.58
566.625	4222.74
566.824	4228.88
567.023	4263.7
567.222	3999.51
567.42	4001.56
567.619	3874.59
567.818	3962.65
568.016	4003.61
568.215	3796.76
568.414	3833.63
568.612	3710.75
568.811	3753.76
569.01	3653.41
569.208	3460.9
569.407	3594.01
569.605	3555.1
569.804	3315.49
570.002	3415.84
570.201	3282.72
570.4	3243.81
570.598	3098.41
570.797	3151.65
570.995	3108.65
571.193	3012.39
571.392	3141.41
571.59	2946.86
571.789	3036.97
571.987	2893.61
572.186	3002.15
572.384	2740.01
572.582	2803.5
572.781	3000.1
572.979	2651.95
573.177	2823.98
573.376	2639.66
573.574	2670.38
573.772	2641.71
573.971	2457.39
574.169	2379.57
574.367	2373.43
574.565	2414.38
574.763	2332.47
574.962	2242.36
575.16	2248.5
575.358	2152.24
575.556	2139.96
575.754	2144.05
575.952	2211.64
576.151	2076.47
576.349	2244.4
576.547	1871.67
576.745	1988.41
576.943	2123.57
577.141	1986.36
577.339	1871.67
577.537	1961.78
577.735	2002.74
577.933	1916.73
578.131	1716.03
578.329	1779.51
578.527	1808.19
578.725	1783.61
578.923	1517.37
579.121	1754.94
579.319	1572.67
579.516	1572.67
579.714	1879.86
579.912	1511.23
580.11	1402.69
580.308	1445.7
580.506	1474.37
580.704	1322.82
580.901	1478.46
581.099	1513.28
581.297	1521.47
581.495	1486.65
581.692	1455.94
581.89	1505.09
582.088	1478.46
582.285	1355.58
582.483	1292.1
582.681	1333.06
582.878	1226.56
583.076	1144.64
583.274	1304.39
583.471	1374.02
583.669	1161.03
583.866	1079.11
584.064	1179.46
584.262	1156.93
584.459	1064.77
584.657	1224.51
584.854	1101.64
585.052	1060.68
585.249	1171.27
585.447	1044.29
585.644	1032.01
585.841	1081.16
586.039	1089.35
586.236	1126.21
586.434	925.51
586.631	1029.96
586.828	941.89
587.026	894.79
587.223	829.26
587.42	802.63
587.618	999.24
587.815	1029.96
588.012	892.74
588.21	837.45
588.407	941.89
588.604	964.42
588.801	769.87
588.999	913.22
589.196	923.46
589.393	855.88
589.59	964.42
589.787	831.3
589.984	829.26
590.182	857.93
590.379	716.62
590.576	782.15
590.773	804.68
590.97	767.82
591.167	821.06
591.364	782.15
591.561	663.37
591.758	857.93
591.955	816.97
592.152	733
592.349	702.28
592.546	616.27
592.743	700.23
592.94	786.25
593.137	786.25
593.334	788.3
593.531	776.01
593.727	851.78
593.924	771.91
594.121	724.81
594.318	712.52
594.515	911.18
594.712	894.79
594.908	812.87
595.105	767.82
595.302	855.88
595.499	819.02
595.696	978.76
595.892	790.35
596.089	1015.62
596.286	862.02
596.482	911.18
596.679	958.28
596.876	843.59
597.072	1040.2
597.269	862.02
597.466	1017.67
597.662	954.18
597.859	997.19
598.055	1038.15
598.252	1085.25
598.448	1158.98
598.645	1206.08
598.841	1263.43
599.038	1382.21
599.234	1515.33
599.431	1331.01
599.627	1529.66
599.824	1500.99
600.02	1587.01
600.217	1632.06
600.413	1630.01
600.609	1638.2
600.806	2015.03
601.002	1851.19
601.198	1658.68
601.395	2088.76
601.591	1929.02
601.787	2107.19
601.984	2230.07
602.18	2375.47
602.376	2262.83
602.572	2488.11
602.769	2547.5
602.965	2572.08
603.161	2772.78
603.357	2823.98
603.553	2922.28
603.75	2961.19
603.946	3135.27
604.142	3245.86
604.338	3358.5
604.534	3381.03
604.73	3530.53
604.926	3553.06
605.122	4009.75
605.318	3940.12
605.514	4030.23
605.71	4153.11
605.906	4194.07
606.102	4353.81
606.298	4620.05
606.494	4847.37
606.69	4888.33
606.886	4953.87
607.082	4992.78
607.278	5218.05
607.474	5467.91
607.67	5725.95
607.866	5603.07
608.062	6033.15
608.257	6006.52
608.453	6110.97
608.649	6268.66
608.845	6461.17
609.041	6749.93
609.236	6889.2
609.432	7134.95
609.628	7319.27
609.824	7360.23
610.019	7630.56
610.215	7728.86
610.411	8367.83
610.606	7988.96
610.802	8466.13
610.998	8632.02
611.193	8894.16
611.389	8965.84
611.584	9469.64
611.78	9428.68
611.976	9828.03
612.171	10395.32
612.367	10229.43
612.562	10491.57
612.758	10913.45
612.953	11085.48
613.149	11636.39
613.344	11781.79
613.539	12203.68
613.735	12426.9
613.93	12703.38
614.126	12904.08
614.321	13520.52
614.517	14087.81
614.712	14136.96
614.907	14388.86
615.103	14995.06
615.298	15154.8
615.493	15656.55
615.688	15861.35
615.884	16506.46
616.079	16746.07
616.274	17192.53
616.47	17735.24
616.665	17954.37
616.86	18529.85
617.055	18910.77
617.25	19332.65
617.445	20024.87
617.641	20452.89
617.836	20973.08
618.031	21138.96
618.226	21970.44
618.421	22507.01
618.616	23211.51
618.811	23504.37
619.006	24272.35
619.201	24542.69
619.396	25105.88
619.591	25355.73
619.786	26326.47
619.981	26631.61
620.176	27545.01
620.371	27559.34
620.566	28392.87
620.761	28679.58
620.956	29619.6
621.151	29959.56
621.346	30481.8
621.541	30829.95
621.735	31964.53
621.93	31888.75
622.125	32648.55
622.32	33371.48
622.515	34135.37
622.709	34932.03
622.904	35263.8
623.099	36005.17
623.294	36752.68
623.488	36592.93
623.683	38012.18
623.878	38294.8
624.072	38903.04
624.267	39468.28
624.462	40170.74
624.656	40307.95
624.851	41483.48
625.046	41686.23
625.24	42427.6
625.435	43105.48
625.629	43517.12
625.824	43885.75
626.018	44934.31
626.213	44637.36
626.407	46134.42
626.602	45864.09
626.796	47236.23
626.991	46926.99
627.185	47445.12
627.38	47357.06
627.574	48047.22
627.768	48014.46
627.963	48233.59
628.157	48436.34
628.352	48952.43
628.546	48651.37
628.74	48794.73
628.935	48596.08
629.129	48964.71
629.323	48170.1
629.517	48362.61
629.712	48059.51
629.906	47633.53
630.1	46830.73
630.294	46918.79
630.489	46032.02
630.683	46208.15
630.877	44833.96
631.071	44139.7
631.265	43596.99
631.459	43068.61
631.653	41876.69
631.848	40629.48
632.042	39838.97
632.236	39294.21
632.43	38049.04
632.624	37395.74
632.818	36005.17
633.012	35050.81
633.206	33924.43
633.4	32814.43
633.594	31341.94
633.788	30664.07
633.982	30021
634.176	28659.1
634.369	27606.45
634.563	26504.64
634.757	25499.09
634.951	24688.09
635.145	23500.27
635.339	22646.27
635.533	21779.98
635.726	21083.67
635.92	19871.27
636.114	19258.93
636.308	18466.36
636.501	17688.14
636.695	17096.27
636.889	16316
637.083	15543.91
637.276	14833.27
637.47	14495.35
637.664	13616.77
637.857	13434.5
638.051	12734.1
638.244	12230.3
638.438	11644.58
638.632	11484.84
638.825	10616.5
639.019	10647.22
639.212	9912
639.406	9758.4
639.599	9209.54
639.793	9025.23
639.986	8390.36
640.18	8097.5
640.373	7874.27
640.567	7565.03
640.76	7405.28
640.954	7026.41
641.147	6696.69
641.34	6668.02
641.534	6113.02
641.727	6184.69
641.92	5791.48
642.114	5371.65
642.307	5265.16
642.5	5129.99
642.694	5025.54
642.887	4769.55
643.08	4695.82
643.273	4402.96
643.467	4273.94
643.66	3972.89
643.853	3786.52
644.046	3757.85
644.239	3813.15
644.432	3479.33
644.626	3325.73
644.819	3168.04
645.012	3125.03
645.205	3002.15
645.398	3026.73
645.591	2842.41
645.784	2690.86
645.977	2512.69
646.17	2459.44
646.363	2402.1
646.556	2164.53
646.749	2156.34
646.942	2203.44
647.135	2004.79
647.328	1974.07
647.521	1869.62
647.714	1906.49
647.907	1720.12
648.099	1648.44
648.292	1765.18
648.485	1607.48
648.678	1451.84
648.871	1451.84
649.064	1531.71
649.256	1265.47
649.449	1179.46
649.642	1249.09
649.835	1195.84
650.027	1138.5
650.22	1181.51
650.413	1093.44
650.605	1165.12
650.798	968.52
650.991	968.52
651.183	1077.06
651.376	993.09
651.568	950.09
651.761	921.42
651.954	814.92
652.146	823.11
652.339	851.78
652.531	872.26
652.724	646.99
652.916	706.38
653.109	601.93
653.301	696.14
653.494	708.43
653.686	649.04
653.879	655.18
654.071	710.47
654.263	503.63
654.456	544.59
654.648	616.27
654.84	612.17
655.033	495.44
655.225	550.73
655.417	409.42
655.61	563.02
655.802	501.58
655.994	565.07
656.186	438.09
656.379	556.88
656.571	335.7
656.763	434
656.955	360.27
657.148	446.29
657.34	450.38
657.532	434
657.724	380.75
657.916	366.42
658.108	454.48
658.3	401.23
658.492	448.33
658.684	245.59
658.876	413.52
659.068	325.46
659.26	210.77
659.452	278.35
659.644	270.16
659.836	333.65
660.028	261.97
660.22	274.26
660.412	196.43
660.604	229.2
660.796	274.26
660.988	360.27
661.18	210.77
661.372	294.74
661.563	288.59
661.755	294.74
661.947	218.96
662.139	233.3
662.331	212.82
662.522	274.26
662.714	110.42
662.906	223.06
663.097	229.2
663.289	143.19
663.481	159.57
663.673	259.92
663.864	186.19
664.056	212.82
664.247	135
664.439	309.07
664.631	175.95
664.822	270.16
665.014	165.71
665.205	145.24
665.397	167.76
665.588	208.72
665.78	218.96
665.971	304.98
666.163	153.43
666.354	225.11
666.546	180.05
666.737	145.24
666.929	122.71
667.12	145.24
667.311	274.26
667.503	202.58
667.694	233.3
667.885	186.19
668.077	159.57
668.268	67.41
668.459	149.33
668.651	169.81
668.842	212.82
669.033	128.85
669.224	44.88
669.416	341.84
669.607	59.22
669.798	40.79
669.989	206.67
670.18	171.86
670.371	231.25
670.563	91.99
670.754	264.02
670.945	216.91
671.136	196.43
671.327	147.28
671.518	255.83
671.709	354.13
671.9	300.88
672.091	304.98
672.282	198.48
672.473	221.01
672.664	194.39
672.855	233.3
673.046	255.83
673.237	321.36
673.428	286.54
673.619	173.91
673.809	149.33
674	325.46
674.191	200.53
674.382	165.71
674.573	255.83
674.764	266.07
674.954	223.06
675.145	141.14
675.336	161.62
675.527	182.1
675.717	198.48
675.908	223.06
676.099	94.04
676.289	278.35
676.48	114.52
676.671	190.29
676.861	241.49
677.052	296.78
677.243	333.65
677.433	196.43
677.624	268.11
677.814	245.59
678.005	245.59
678.195	343.89
678.386	216.91
678.576	276.31
678.767	145.24
678.957	276.31
679.148	458.57
679.338	327.5
679.529	333.65
679.719	257.87
679.909	319.31
680.1	270.16
680.29	331.6
680.481	157.52
680.671	350.03
680.861	323.41
681.052	362.32
681.242	286.54
681.432	366.42
681.622	292.69
681.813	261.97
682.003	352.08
682.193	233.3
682.383	362.32
682.573	274.26
682.764	325.46
682.954	323.41
683.144	458.57
683.334	321.36
683.524	274.26
683.714	352.08
683.904	372.56
684.094	286.54
684.284	356.18
684.474	454.48
684.664	397.14
684.854	290.64
685.044	245.59
685.234	362.32
685.424	354.13
685.614	327.5
685.804	421.71
685.994	317.26
686.184	319.31
686.374	294.74
686.564	368.46
686.753	374.61
686.943	333.65
687.133	298.83
687.323	304.98
687.513	304.98
687.702	321.36
687.892	356.18
688.082	374.61
688.272	421.71
688.461	315.22
688.651	423.76
688.841	335.7
689.03	358.22
689.22	343.89
689.41	436.05
689.599	345.94
689.789	288.59
689.979	462.67
690.168	294.74
690.358	397.14
690.547	347.98
690.737	288.59
690.926	268.11
691.116	386.9
691.305	364.37
691.495	397.14
691.684	245.59
691.874	286.54
692.063	307.02
692.252	370.51
692.442	368.46
692.631	214.87
692.82	253.78
693.01	347.98
693.199	325.46
693.388	321.36
693.578	321.36
693.767	370.51
693.956	382.8
694.146	331.6
694.335	358.22
694.524	253.78
694.713	325.46
694.902	257.87
695.092	261.97
695.281	321.36
695.47	235.35
695.659	378.7
695.848	214.87
696.037	233.3
696.226	294.74
696.415	233.3
696.604	434
696.793	372.56
696.982	251.73
697.171	436.05
697.36	257.87
697.549	352.08
697.738	255.83
697.927	251.73
698.116	218.96
698.305	315.22
698.494	282.45
698.683	341.84
698.872	462.67
699.061	229.2
699.25	192.34
699.438	243.54
699.627	337.74
699.816	481.1
700.005	143.19
700.193	198.48
700.382	339.79
700.571	302.93
700.76	302.93
700.948	341.84
701.137	407.38
701.326	300.88
701.514	180.05
701.703	268.11
701.892	270.16
702.08	388.94
702.269	237.39
702.457	249.68
702.646	247.63
702.834	247.63
703.023	272.21
703.212	331.6
703.4	317.26
703.589	259.92
703.777	274.26
703.965	155.47
704.154	278.35
704.342	218.96
704.531	270.16
704.719	343.89
704.907	327.5
705.096	229.2
705.284	194.39
705.472	321.36
705.661	321.36
705.849	370.51
706.037	362.32
706.226	300.88
706.414	276.31
706.602	282.45
706.79	374.61
706.979	249.68
707.167	264.02
707.355	178
707.543	255.83
707.731	282.45
707.919	251.73
708.107	245.59
708.296	194.39
708.484	204.63
708.672	337.74
708.86	321.36
709.048	311.12
709.236	206.67
709.424	335.7
709.612	276.31
709.8	202.58
709.988	221.01
710.176	286.54
710.364	341.84
710.551	231.25
710.739	296.78
710.927	218.96
711.115	264.02
711.303	311.12
711.491	298.83
711.679	198.48
711.866	345.94
712.054	341.84
712.242	358.22
712.43	341.84
712.617	188.24
712.805	354.13
712.993	259.92
713.181	218.96
713.368	343.89
713.556	200.53
713.744	296.78
713.931	333.65
714.119	327.5
714.306	294.74
714.494	255.83
714.682	311.12
714.869	286.54
715.057	229.2
715.244	255.83
715.432	329.55
715.619	261.97
715.807	231.25
715.994	229.2
716.182	317.26
716.369	286.54
716.556	356.18
716.744	266.07
716.931	178
717.119	300.88
717.306	321.36
717.493	284.5
717.681	313.17
717.868	255.83
718.055	352.08
718.242	419.66
718.43	315.22
718.617	366.42
718.804	276.31
718.991	370.51
719.179	194.39
719.366	347.98
719.553	335.7
719.74	182.1
719.927	395.09
720.114	360.27
720.301	216.91
720.488	188.24
720.676	274.26
720.863	417.61
721.05	489.29
721.237	296.78
721.424	382.8
721.611	286.54
721.798	302.93
721.985	241.49
722.172	380.75
722.358	270.16
722.545	393.04
722.732	362.32
722.919	339.79
723.106	341.84
723.293	302.93
723.48	317.26
723.667	261.97
723.853	411.47
724.04	274.26
724.227	376.66
724.414	323.41
724.6	333.65
724.787	462.67
724.974	448.33
725.161	388.94
725.347	302.93
725.534	382.8
725.72	321.36
725.907	448.33
726.094	360.27
726.28	364.37
726.467	204.63
726.653	352.08
726.84	440.14
727.027	436.05
727.213	343.89
727.4	329.55
727.586	319.31
727.773	313.17
727.959	235.35
728.145	307.02
728.332	397.14
728.518	284.5
728.705	319.31
728.891	307.02
729.077	409.42
729.264	280.4
729.45	352.08
729.636	423.76
729.823	362.32
730.009	423.76
730.195	415.57
730.382	429.9
730.568	278.35
730.754	458.57
730.94	280.4
731.126	327.5
731.313	380.75
731.499	335.7
731.685	384.85
731.871	395.09
732.057	401.23
732.243	378.7
732.429	380.75
732.615	468.81
732.801	374.61
732.987	329.55
733.173	370.51
733.359	274.26
733.545	442.19
733.731	421.71
733.917	515.92
734.103	360.27
734.289	442.19
734.475	364.37
734.661	573.26
734.847	335.7
735.033	350.03
735.219	438.09
735.404	376.66
735.59	345.94
735.776	331.6
735.962	354.13
736.148	374.61
736.333	495.44
736.519	304.98
736.705	390.99
736.89	425.81
737.076	307.02
737.262	307.02
737.447	339.79
737.633	315.22
737.819	425.81
738.004	362.32
738.19	378.7
738.375	431.95
738.561	501.58
738.747	356.18
738.932	352.08
739.118	528.21
739.303	423.76
739.489	390.99
739.674	327.5
739.859	251.73
740.045	481.1
740.23	343.89
740.416	249.68
740.601	393.04
740.786	294.74
740.972	335.7
741.157	417.61
741.342	253.78
741.528	360.27
741.713	425.81
741.898	372.56
742.084	419.66
742.269	321.36
742.454	434
742.639	399.18
742.824	278.35
743.01	458.57
743.195	552.78
743.38	378.7
743.565	317.26
743.75	386.9
743.935	286.54
744.12	474.96
744.305	292.69
744.49	319.31
744.675	347.98
744.86	356.18
745.045	440.14
745.23	374.61
745.415	425.81
745.6	409.42
745.785	380.75
745.97	483.15
746.155	378.7
746.34	405.33
746.525	292.69
746.71	481.1
746.895	268.11
747.079	245.59
747.264	317.26
747.449	438.09
747.634	388.94
747.819	325.46
748.003	290.64
748.188	313.17
748.373	325.46
748.557	298.83
748.742	354.13
748.927	325.46
749.111	368.46
749.296	255.83
749.481	350.03
749.665	333.65
749.85	319.31
750.034	278.35
750.219	247.63
750.404	327.5
750.588	323.41
750.773	249.68
750.957	360.27
751.141	288.59
751.326	298.83
751.51	255.83
751.695	225.11
751.879	296.78
752.064	440.14
752.248	313.17
752.432	372.56
752.617	372.56
752.801	319.31
752.985	223.06
753.17	339.79
753.354	276.31
753.538	290.64
753.722	257.87
753.907	153.43
754.091	112.47
754.275	255.83
754.459	175.95
754.643	221.01
754.828	274.26
755.012	286.54
755.196	221.01
755.38	294.74
755.564	223.06
755.748	257.87
755.932	360.27
756.116	274.26
756.3	290.64
756.484	227.15
756.668	313.17
756.852	141.14
757.036	171.86
757.22	255.83
757.404	216.91
757.588	186.19
757.772	278.35
757.956	194.39
758.14	397.14
758.323	210.77
758.507	214.87
758.691	155.47
758.875	313.17
759.059	304.98
759.242	104.28
759.426	251.73
759.61	153.43
759.794	108.37
759.977	227.15
760.161	423.76
760.345	292.69
760.528	247.63
760.712	190.29
760.895	184.15
761.079	171.86
761.263	94.04
761.446	169.81
761.63	83.8
761.813	278.35
761.997	59.22
762.18	94.04
762.364	237.39
762.547	71.51
762.731	102.23
762.914	126.8
763.098	161.62
763.281	169.81
763.464	124.76
763.648	255.83
763.831	126.8
764.015	91.99
764.198	212.82
764.381	161.62
764.564	141.14
764.748	116.56
764.931	155.47
765.114	196.43
765.297	124.76
765.481	104.28
765.664	71.51
765.847	173.91
766.03	280.4
766.213	79.7
766.397	120.66
766.58	-4.27
766.763	118.61
766.946	110.42
767.129	-8.36
767.312	180.05
767.495	190.29
767.678	106.32
767.861	130.9
768.044	165.71
768.227	91.99
768.41	118.61
768.593	173.91
768.776	126.8
768.959	65.36
769.142	214.87
769.324	34.64
769.507	120.66
769.69	96.08
769.873	116.56
770.056	239.44
770.239	108.37
770.421	231.25
770.604	155.47
770.787	120.66
770.97	114.52
771.152	46.93
771.335	151.38
771.518	51.03
771.7	237.39
771.883	198.48
772.066	3.93
772.248	85.84
772.431	198.48
772.613	204.63
772.796	36.69
772.978	122.71
773.161	259.92
773.343	132.95
773.526	22.36
773.708	12.12
773.891	20.31
774.073	143.19
774.256	61.27
774.438	218.96
774.621	42.84
774.803	89.94
774.985	100.18
775.168	114.52
775.35	71.51
775.532	96.08
775.715	87.89
775.897	98.13
776.079	48.98
776.261	145.24
776.444	81.75
776.626	102.23
776.808	34.64
776.99	20.31
777.173	102.23
777.355	24.4
777.537	42.84
777.719	171.86
777.901	63.32
778.083	5.97
778.265	108.37
778.447	169.81
778.629	28.5
778.811	91.99
778.993	91.99
779.175	145.24
779.357	106.32
779.539	-30.89
779.721	20.31
779.903	71.51
780.085	34.64
780.267	40.79
780.449	91.99
780.631	114.52
780.812	110.42
780.994	26.45
781.176	1.88
781.358	46.93
781.54	3.93
781.721	102.23
781.903	143.19
782.085	-16.55
782.267	159.57
782.448	-49.32
782.63	8.02
782.812	112.47
782.993	118.61
783.175	67.41
783.357	-20.65
783.538	87.89
783.72	-10.41
783.901	22.36
784.083	-0.17
784.264	53.08
784.446	18.26
784.627	-49.32
784.809	91.99
784.99	10.07
785.172	53.08
785.353	-22.7
785.535	42.84
785.716	81.75
785.897	5.97
786.079	-12.46
786.26	36.69
786.441	141.14
786.623	-86.19
786.804	24.4
786.985	1.88
787.167	114.52
787.348	30.55
787.529	-61.61
787.71	184.15
787.891	96.08
788.073	-39.08
788.254	16.21
788.435	175.95
788.616	12.12
788.797	-82.09
788.978	44.88
789.159	-41.13
789.34	30.55
789.522	-30.89
789.703	-6.31
789.884	40.79
790.065	65.36
790.246	124.76
790.427	18.26
790.607	96.08
790.788	116.56
790.969	-20.65
791.15	75.6
791.331	-37.03
791.512	1.88
791.693	24.4
791.874	71.51
792.054	276.31
792.235	155.47
792.416	-0.17
792.597	-24.75
792.778	65.36
792.958	85.84
793.139	110.42
793.32	-59.56
793.5	24.4
793.681	214.87
793.862	65.36
794.042	24.4
794.223	-80.04
794.404	34.64
794.584	-92.33
794.765	22.36
794.945	-53.42
795.126	61.27
795.306	91.99
795.487	-57.51
795.667	-0.17
795.848	8.02
796.028	5.97
796.209	85.84
796.389	94.04
796.57	28.5
796.75	-49.32
796.93	51.03
797.111	-12.46
797.291	-20.65
797.471	38.74
797.652	-32.94
797.832	20.31
798.012	1.88
798.192	-53.42
798.373	-90.28
798.553	48.98
798.733	67.41
798.913	-80.04
799.093	-39.08
799.274	-12.46
799.454	-22.7
799.634	87.89
799.814	89.94
799.994	55.12
800.174	40.79
800.354	61.27
800.534	-80.04
800.714	53.08
800.894	-28.84
801.074	-61.61
801.254	-65.71
801.434	137.04
801.614	8.02
801.794	-55.47
801.974	1541.95
802.154	-22.7
802.334	135
802.514	-41.13
802.693	81.75
802.873	-4.27
803.053	139.09
803.233	-28.84
803.413	-20.65
803.592	-71.85
803.772	-59.56
803.952	65.36
804.131	16.21
804.311	63.32
804.491	71.51
804.67	-41.13
804.85	-53.42
805.03	106.32
805.209	163.67
805.389	-8.36
805.568	48.98
805.748	-51.37
805.928	-2.22
806.107	63.32
806.287	-16.55
806.466	51.03
806.646	-2.22
806.825	-22.7
807.004	14.17
807.184	-8.36
807.363	98.13
807.543	18.26
807.722	-106.67
807.901	151.38
808.081	51.03
808.26	-71.85
808.439	85.84
808.619	-12.46
808.798	-53.42
808.977	57.17
809.156	61.27
809.336	-32.94
809.515	96.08
809.694	-106.67
809.873	-0.17
810.052	44.88
810.231	120.66
810.411	67.41
810.59	12.12
810.769	-57.51
810.948	67.41
811.127	-88.23
811.306	-37.03
811.485	32.6
811.664	91.99
811.843	5.97
812.022	26.45
812.201	-41.13
812.38	-55.47
812.559	-73.9
812.737	51.03
812.916	-71.85
813.095	8.02
813.274	-20.65
813.453	12.12
813.632	71.51
813.811	44.88
813.989	-73.9
814.168	30.55
814.347	5.97
814.526	-14.51
814.704	143.19
814.883	112.47
815.062	-37.03
815.24	32.6
815.419	-30.89
815.598	3.93
815.776	-106.67
815.955	-0.17
816.133	-61.61
816.312	5.97
816.49	-77.99
816.669	-22.7
816.847	-37.03
817.026	-18.6
817.204	-6.31
817.383	-26.79
817.561	-47.27
817.74	-16.55
817.918	-14.51
818.097	-32.94
818.275	28.5
818.453	-0.17
818.632	24.4
818.81	-10.41
818.988	-53.42
819.167	-6.31
819.345	12.12
819.523	-41.13
819.701	-37.03
819.879	71.51
820.058	-10.41
820.236	-75.95
820.414	5.97
820.592	-26.79
820.77	28.5
820.948	5.97
821.127	-34.99
821.305	-0.17
821.483	-49.32
821.661	34.64
821.839	36.69
822.017	-34.99
822.195	-55.47
822.373	36.69
822.551	57.17
822.729	91.99
822.907	26.45
823.085	12.12
823.262	73.56
823.44	-65.71
823.618	-55.47
823.796	-18.6
823.974	-22.7
824.152	-0.17
824.329	-37.03
824.507	22.36
824.685	34.64
824.863	14.17
825.04	3.93
825.218	24.4
825.396	12.12
825.574	61.27
825.751	-12.46
825.929	67.41
826.107	-82.09
826.284	-28.84
826.462	32.6
826.639	-32.94
826.817	-45.23
826.994	-6.31
827.172	-59.56
827.349	163.67
827.527	20.31
827.704	32.6
827.882	42.84
828.059	16.21
828.237	-45.23
828.414	26.45
828.591	-161.96
828.769	75.6
828.946	-65.71
829.124	-2.22
829.301	38.74
829.478	-20.65
829.655	-47.27
829.833	-67.75
830.01	-145.58
830.187	-22.7
830.364	22.36
830.542	73.56
830.719	34.64
830.896	87.89
831.073	5.97
831.25	26.45
831.427	73.56
831.604	-8.36
831.782	-18.6
831.959	-34.99
832.136	-37.03
832.313	48.98
832.49	-4.27
832.667	-84.14
832.844	-71.85
833.021	96.08
833.198	28.5
833.374	-34.99
833.551	24.4
833.728	-51.37
833.905	53.08
834.082	-65.71
834.259	10.07
834.436	120.66
834.612	-14.51
834.789	81.75
834.966	48.98
835.143	34.64
835.319	-94.38
835.496	24.4
835.673	55.12
835.85	81.75
836.026	-37.03
836.203	57.17
836.38	-73.9
836.556	-8.36
836.733	-34.99
836.909	71.51
837.086	-51.37
837.262	-127.14
837.439	-28.84
837.616	3.93
837.792	10.07
837.968	-102.57
838.145	-170.15
838.321	-10.41
838.498	-22.7
838.674	10.07
838.851	24.4
839.027	24.4
839.203	-77.99
839.38	36.69
839.556	-59.56
839.732	48.98
839.909	-20.65
840.085	44.88
840.261	-32.94
840.437	57.17
840.614	-12.46
840.79	73.56
840.966	53.08
841.142	-32.94
841.318	-110.76
841.494	83.8
841.671	112.47
841.847	71.51
842.023	-75.95
842.199	-4.27
842.375	155.47
842.551	-145.58
842.727	44.88
842.903	147.28
843.079	-92.33
843.255	91.99
843.431	-16.55
843.607	14.17
843.783	-123.05
843.959	57.17
844.134	-4.27
844.31	65.36
844.486	-0.17
844.662	34.64
844.838	32.6
845.013	73.56
845.189	28.5
845.365	-26.79
845.541	8.02
845.716	-26.79
845.892	81.75
846.068	5.97
846.244	-20.65
846.419	-18.6
846.595	-127.14
846.77	-67.75
846.946	16.21
847.122	-24.75
847.297	-32.94
847.473	67.41
847.648	-147.62
847.824	46.93
847.999	-168.1
848.175	34.64
848.35	36.69
848.526	30.55
848.701	135
848.876	124.76
849.052	122.71
849.227	-18.6
849.403	-30.89
849.578	-61.61
849.753	55.12
849.929	8.02
850.104	-118.95
850.279	-96.43
850.454	32.6
850.63	106.32
850.805	-47.27
850.98	57.17
851.155	-57.51
851.33	85.84
851.505	-53.42
851.681	132.95
851.856	-28.84
852.031	63.32
852.206	57.17
852.381	-55.47
852.556	-12.46
852.731	-24.75
852.906	-49.32
853.081	-34.99
853.256	114.52
853.431	1.88
853.606	-47.27
853.781	-92.33
853.956	-151.72
854.131	-26.79
854.305	-84.14
854.48	-80.04
854.655	-28.84
854.83	-65.71
855.005	-22.7
855.18	16.21
855.354	12.12
855.529	-49.32
855.704	-41.13
855.879	55.12
856.053	-51.37
856.228	8.02
856.403	-92.33
856.577	3.93
856.752	-118.95
856.926	-37.03
857.101	-30.89
857.276	-184.49
857.45	-20.65
857.625	34.64
857.799	-14.51
857.974	5.97
858.148	-86.19
858.323	12.12
858.497	-2.22
858.672	-47.27
858.846	-98.47
859.02	57.17
859.195	-63.66
859.369	32.6
859.543	106.32
859.718	5.97
859.892	81.75
860.066	26.45
860.241	-88.23
860.415	-98.47
860.589	32.6
860.763	-34.99
860.938	-39.08
861.112	48.98
861.286	-28.84
861.46	10.07
861.634	-26.79
861.808	-6.31
861.982	-106.67
862.157	-90.28
862.331	-61.61
862.505	-106.67
862.679	-98.47
862.853	-47.27
863.027	-10.41
863.201	112.47
863.375	-45.23
863.549	46.93
863.722	8.02
863.896	155.47
864.07	-49.32
864.244	1.88
864.418	83.8
864.592	46.93
864.766	-28.84
864.939	-55.47
865.113	-59.56
865.287	46.93
865.461	-137.38
865.634	-32.94
865.808	8.02
865.982	-2.22
866.156	-71.85
866.329	-143.53
866.503	53.08
866.676	65.36
866.85	42.84
867.024	-104.62
867.197	100.18
867.371	81.75
867.544	44.88
867.718	-149.67
867.891	126.8
868.065	-90.28
868.238	-18.6
868.412	65.36
868.585	18.26
868.759	-73.9
868.932	-110.76
869.105	-102.57
869.279	18.26
869.452	-86.19
869.625	14.17
869.799	-26.79
869.972	-123.05
870.145	5.97
870.319	63.32
870.492	-41.13
870.665	-4.27
870.838	-49.32
871.011	-96.43
871.185	10.07
871.358	-6.31
871.531	57.17
871.704	-34.99
871.877	38.74
872.05	-14.51
872.223	-157.86
872.396	-59.56
872.569	-10.41
872.742	8.02
872.915	-49.32
873.088	38.74
873.261	-88.23
873.434	14.17
873.607	44.88
873.78	89.94
873.953	-118.95
874.126	75.6
874.299	10.07
874.471	-22.7
874.644	46.93
874.817	-0.17
874.99	94.04
875.163	-55.47
875.335	8.02
875.508	44.88
875.681	106.32
875.853	-114.86
876.026	-16.55
876.199	12.12
876.371	-18.6
876.544	-12.46
876.717	-6.31
876.889	-26.79
877.062	16.21
877.234	-82.09
877.407	-92.33
877.579	36.69
877.752	89.94
877.924	79.7
878.097	-24.75
878.269	-80.04
878.442	44.88
878.614	69.46
878.786	14.17
878.959	1.88
879.131	-82.09
879.303	-57.51
879.476	-2.22
879.648	36.69
879.82	44.88
879.993	-0.17
880.165	-12.46
880.337	-6.31
880.509	14.17
880.681	-102.57
880.854	-59.56
881.026	20.31
881.198	192.34
881.37	-28.84
881.542	12.12
881.714	63.32
881.886	-0.17
882.058	32.6
882.23	5.97
882.402	-45.23
882.574	-16.55
882.746	16.21
882.918	61.27
883.09	61.27
883.262	-63.66
883.434	-45.23
883.606	-100.52
883.778	-39.08
883.95	100.18
884.122	-24.75
884.293	108.37
884.465	12.12
884.637	65.36
884.809	-116.9
884.98	75.6
885.152	67.41
885.324	8.02
885.496	-73.9
885.667	-65.71
885.839	-45.23
886.011	55.12
886.182	-0.17
886.354	12.12
886.525	14.17
886.697	1.88
886.869	-102.57
887.04	-30.89
887.212	46.93
887.383	94.04
887.555	-39.08
887.726	-28.84
887.897	46.93
888.069	-34.99
888.24	87.89
888.412	20.31
888.583	10.07
888.754	-37.03
888.926	-82.09
889.097	-80.04
889.268	-65.71
889.44	38.74
889.611	16.21
889.782	-65.71
889.953	-84.14
890.125	124.76
890.296	-77.99
890.467	-43.18
890.638	-12.46
890.809	18.26
890.98	-24.75
891.151	20.31
891.323	26.45
891.494	-39.08
891.665	44.88
891.836	-37.03
892.007	40.79
892.178	57.17
892.349	3.93
892.52	-12.46
892.691	48.98
892.862	-24.75
893.032	-45.23
893.203	-16.55
893.374	-65.71
893.545	30.55
893.716	-86.19
893.887	1.88
894.057	-73.9
894.228	32.6
894.399	-24.75
894.57	77.65
894.74	-24.75
894.911	24.4
895.082	-2.22
895.253	-77.99
895.423	-28.84
895.594	87.89
895.764	44.88
895.935	-104.62
896.106	30.55
896.276	-100.52
896.447	-16.55
896.617	-32.94
896.788	-69.8
896.958	-39.08
897.129	-22.7
897.299	5.97
897.47	132.95
897.64	71.51
897.81	10.07
897.981	34.64
898.151	-43.18
898.322	-16.55
898.492	3.93
898.662	-53.42
898.832	-65.71
899.003	-45.23
899.173	53.08
899.343	-96.43
899.513	-49.32
