Data from USB4F104151__93__10-45-03-765.txt Node

Date: Wed Feb 26 10:45:03 EST 2025
User: louis
Spectrometer: USB4F10415
Trigger mode: 4
Integration Time (sec): 1.000000E-1
Scans to average: 1
Electric dark correction enabled: true
Nonlinearity correction enabled: false
Boxcar width: 0
XAxis mode: Wavelengths
Number of Pixels in Spectrum: 3648
>>>>>Begin Spectral Data<<<<<
178.204	-363.69
178.424	-363.69
178.644	-363.69
178.864	-408.74
179.084	-449.7
179.304	60.24
179.524	-62.63
179.744	19.29
179.964	66.39
180.184	25.43
180.404	103.25
180.624	-33.96
180.844	-74.92
181.064	-87.21
181.283	-17.58
181.503	-79.02
181.723	80.72
181.943	-89.26
182.163	144.21
182.383	-66.73
182.602	52.05
182.822	129.88
183.042	23.38
183.262	-44.2
183.482	52.05
183.701	15.19
183.921	152.4
184.141	-64.68
184.361	101.2
184.58	23.38
184.8	90.96
185.02	-19.63
185.239	136.02
185.459	2.9
185.679	76.63
185.898	-85.16
186.118	35.67
186.338	47.96
186.557	76.63
186.777	-50.35
186.997	9.05
187.216	62.29
187.436	179.03
187.655	68.44
187.875	148.31
188.095	-36.01
188.314	-17.58
188.534	146.26
188.753	50
188.973	195.41
189.192	168.79
189.412	9.05
189.631	31.57
189.851	80.72
190.07	72.53
190.29	-68.78
190.509	-17.58
190.729	-1.19
190.948	45.91
191.168	219.99
191.387	41.81
191.607	88.92
191.826	37.72
192.045	23.38
192.265	-1.19
192.484	64.34
192.704	25.43
192.923	-105.64
193.142	144.21
193.362	148.31
193.581	164.69
193.8	23.38
194.02	84.82
194.239	11.09
194.458	84.82
194.678	37.72
194.897	-50.35
195.116	80.72
195.335	70.48
195.555	-33.96
195.774	-52.39
195.993	72.53
196.212	2.9
196.432	-56.49
196.651	-7.34
196.87	31.57
197.089	234.32
197.308	101.2
197.528	80.72
197.747	-70.83
197.966	105.3
198.185	88.92
198.404	-13.48
198.623	121.68
198.842	162.64
199.062	99.16
199.281	113.49
199.5	7
199.719	140.12
199.938	62.29
200.157	39.76
200.376	66.39
200.595	90.96
200.814	90.96
201.033	-48.3
201.252	33.62
201.471	-9.39
201.69	47.96
201.909	70.48
202.128	142.16
202.347	138.07
202.566	15.19
202.785	-89.26
203.004	-91.31
203.223	228.18
203.442	29.52
203.661	-19.63
203.879	50
204.098	60.24
204.317	-148.65
204.536	111.44
204.755	41.81
204.974	136.02
205.193	0.85
205.411	121.68
205.63	123.73
205.849	90.96
206.068	-11.43
206.287	50
206.505	166.74
206.724	37.72
206.943	41.81
207.162	9.05
207.381	52.05
207.599	-5.29
207.818	29.52
208.037	-76.97
208.255	-17.58
208.474	7
208.693	86.87
208.911	31.57
209.13	97.11
209.349	66.39
209.567	68.44
209.786	43.86
210.005	35.67
210.223	17.24
210.442	-62.63
210.661	47.96
210.879	29.52
211.098	-62.63
211.316	54.1
211.535	80.72
211.753	43.86
211.972	33.62
212.191	-7.34
212.409	56.15
212.628	15.19
212.846	15.19
213.065	-5.29
213.283	60.24
213.502	27.48
213.72	-5.29
213.938	-19.63
214.157	15.19
214.375	123.73
214.594	13.14
214.812	109.4
215.031	-46.25
215.249	-29.87
215.467	97.11
215.686	64.34
215.904	95.06
216.122	33.62
216.341	84.82
216.559	50
216.778	105.3
216.996	127.83
217.214	-17.58
217.432	-3.24
217.651	0.85
217.869	-5.29
218.087	21.33
218.306	-5.29
218.524	95.06
218.742	107.35
218.96	68.44
219.179	-15.53
219.397	0.85
219.615	234.32
219.833	191.31
220.051	-68.78
220.27	99.16
220.488	103.25
220.706	60.24
220.924	-19.63
221.142	60.24
221.36	103.25
221.578	31.57
221.796	-13.48
222.015	60.24
222.233	11.09
222.451	133.97
222.669	19.29
222.887	58.2
223.105	17.24
223.323	15.19
223.541	-95.4
223.759	-9.39
223.977	37.72
224.195	119.64
224.413	76.63
224.631	138.07
224.849	66.39
225.067	172.88
225.285	-29.87
225.503	66.39
225.721	-158.89
225.939	78.68
226.157	84.82
226.375	156.5
226.592	-33.96
226.81	-7.34
227.028	144.21
227.246	136.02
227.464	31.57
227.682	99.16
227.9	115.54
228.117	4.95
228.335	64.34
228.553	-11.43
228.771	-9.39
228.989	-5.29
229.206	68.44
229.424	-58.54
229.642	56.15
229.86	-31.91
230.077	138.07
230.295	84.82
230.513	168.79
230.731	35.67
230.948	179.03
231.166	138.07
231.384	58.2
231.601	-17.58
231.819	170.83
232.037	39.76
232.254	-64.68
232.472	41.81
232.689	-13.48
232.907	168.79
233.125	50
233.342	-5.29
233.56	37.72
233.777	9.05
233.995	-17.58
234.213	125.78
234.43	56.15
234.648	50
234.865	-25.77
235.083	88.92
235.3	70.48
235.518	93.01
235.735	148.31
235.953	68.44
236.17	2.9
236.388	-44.2
236.605	35.67
236.822	123.73
237.04	162.64
237.257	109.4
237.475	-89.26
237.692	41.81
237.909	111.44
238.127	9.05
238.344	35.67
238.562	58.2
238.779	-126.12
238.996	-1.19
239.214	13.14
239.431	60.24
239.648	66.39
239.865	37.72
240.083	47.96
240.3	-23.72
240.517	-42.15
240.735	41.81
240.952	156.5
241.169	97.11
241.386	95.06
241.603	9.05
241.821	60.24
242.038	111.44
242.255	146.26
242.472	-29.87
242.689	47.96
242.907	33.62
243.124	62.29
243.341	41.81
243.558	-31.91
243.775	-1.19
243.992	-29.87
244.209	68.44
244.426	222.03
244.643	66.39
244.86	7
245.078	60.24
245.295	54.1
245.512	2.9
245.729	-21.67
245.946	103.25
246.163	144.21
246.38	62.29
246.597	7
246.814	2.9
247.031	52.05
247.248	19.29
247.464	88.92
247.681	45.91
247.898	80.72
248.115	142.16
248.332	7
248.549	144.21
248.766	152.4
248.983	27.48
249.2	95.06
249.417	90.96
249.633	-1.19
249.85	84.82
250.067	15.19
250.284	31.57
250.501	70.48
250.717	43.86
250.934	-109.74
251.151	82.77
251.368	68.44
251.585	37.72
251.801	72.53
252.018	-25.77
252.235	115.54
252.451	-38.06
252.668	74.58
252.885	111.44
253.102	-15.53
253.318	-29.87
253.535	45.91
253.752	-13.48
253.968	17.24
254.185	-48.3
254.401	2.9
254.618	-1.19
254.835	-46.25
255.051	154.45
255.268	41.81
255.484	47.96
255.701	35.67
255.917	72.53
256.134	15.19
256.351	37.72
256.567	13.14
256.784	7
257	-36.01
257.217	117.59
257.433	90.96
257.65	-5.29
257.866	179.03
258.082	-46.25
258.299	-13.48
258.515	39.76
258.732	-66.73
258.948	-11.43
259.165	-33.96
259.381	-38.06
259.597	131.92
259.814	7
260.03	7
260.246	52.05
260.463	127.83
260.679	219.99
260.895	-11.43
261.112	127.83
261.328	95.06
261.544	-29.87
261.761	148.31
261.977	-29.87
262.193	-66.73
262.409	109.4
262.626	56.15
262.842	103.25
263.058	-9.39
263.274	45.91
263.49	97.11
263.707	84.82
263.923	62.29
264.139	-52.39
264.355	-52.39
264.571	154.45
264.787	111.44
265.004	146.26
265.22	43.86
265.436	43.86
265.652	-25.77
265.868	66.39
266.084	-87.21
266.3	95.06
266.516	-23.72
266.732	54.1
266.948	35.67
267.164	0.85
267.38	43.86
267.596	50
267.812	187.22
268.028	23.38
268.244	43.86
268.46	19.29
268.676	37.72
268.892	-9.39
269.108	-85.16
269.324	-99.5
269.54	58.2
269.756	50
269.972	56.15
270.188	-5.29
270.403	-27.82
270.619	35.67
270.835	95.06
271.051	90.96
271.267	45.91
271.483	27.48
271.698	66.39
271.914	68.44
272.13	76.63
272.346	-27.82
272.562	-17.58
272.777	144.21
272.993	39.76
273.209	35.67
273.425	68.44
273.64	-31.91
273.856	99.16
274.072	19.29
274.287	-1.19
274.503	50
274.719	111.44
274.934	11.09
275.15	-11.43
275.366	52.05
275.581	-27.82
275.797	-36.01
276.012	11.09
276.228	56.15
276.444	68.44
276.659	74.58
276.875	-70.83
277.09	-15.53
277.306	-50.35
277.521	41.81
277.737	17.24
277.952	19.29
278.168	-3.24
278.383	50
278.599	4.95
278.814	78.68
279.03	41.81
279.245	66.39
279.461	95.06
279.676	109.4
279.892	-33.96
280.107	-87.21
280.322	-105.64
280.538	29.52
280.753	-31.91
280.969	52.05
281.184	21.33
281.399	154.45
281.615	72.53
281.83	45.91
282.045	-40.11
282.26	-29.87
282.476	21.33
282.691	84.82
282.906	82.77
283.122	27.48
283.337	-23.72
283.552	72.53
283.767	-42.15
283.983	133.97
284.198	37.72
284.413	21.33
284.628	-25.77
284.843	31.57
285.058	119.64
285.274	0.85
285.489	7
285.704	82.77
285.919	-36.01
286.134	-1.19
286.349	47.96
286.564	29.52
286.779	70.48
286.995	-46.25
287.21	-64.68
287.425	-9.39
287.64	7
287.855	76.63
288.07	-54.44
288.285	41.81
288.5	144.21
288.715	33.62
288.93	-3.24
289.145	19.29
289.36	185.17
289.575	2.9
289.79	148.31
290.004	-36.01
290.219	103.25
290.434	-33.96
290.649	-60.59
290.864	39.76
291.079	-27.82
291.294	115.54
291.509	76.63
291.724	84.82
291.938	-11.43
292.153	64.34
292.368	31.57
292.583	29.52
292.798	19.29
293.012	-7.34
293.227	-11.43
293.442	-21.67
293.657	47.96
293.871	127.83
294.086	-21.67
294.301	148.31
294.516	11.09
294.73	4.95
294.945	-1.19
295.16	70.48
295.374	70.48
295.589	56.15
295.804	-38.06
296.018	29.52
296.233	90.96
296.447	84.82
296.662	-107.69
296.877	74.58
297.091	2.9
297.306	7
297.52	4.95
297.735	41.81
297.949	-1.19
298.164	76.63
298.378	-11.43
298.593	-48.3
298.807	70.48
299.022	-15.53
299.236	146.26
299.451	-33.96
299.665	-9.39
299.88	80.72
300.094	95.06
300.309	-62.63
300.523	84.82
300.737	2.9
300.952	33.62
301.166	60.24
301.381	37.72
301.595	-48.3
301.809	-7.34
302.024	37.72
302.238	9.05
302.452	115.54
302.667	-13.48
302.881	148.31
303.095	129.88
303.309	142.16
303.524	-58.54
303.738	-36.01
303.952	4.95
304.166	84.82
304.381	-97.45
304.595	68.44
304.809	-23.72
305.023	9.05
305.237	11.09
305.452	0.85
305.666	60.24
305.88	35.67
306.094	66.39
306.308	66.39
306.522	119.64
306.736	66.39
306.95	70.48
307.164	2.9
307.379	-21.67
307.593	117.59
307.807	150.36
308.021	115.54
308.235	33.62
308.449	-89.26
308.663	-21.67
308.877	174.93
309.091	97.11
309.305	88.92
309.519	-97.45
309.733	146.26
309.947	-40.11
310.161	107.35
310.374	176.98
310.588	93.01
310.802	-15.53
311.016	-7.34
311.23	109.4
311.444	-101.55
311.658	29.52
311.872	222.03
312.085	142.16
312.299	131.92
312.513	97.11
312.727	43.86
312.941	-1.19
313.154	78.68
313.368	56.15
313.582	29.52
313.796	23.38
314.009	-27.82
314.223	99.16
314.437	99.16
314.651	41.81
314.864	86.87
315.078	9.05
315.292	-111.78
315.505	68.44
315.719	72.53
315.933	121.68
316.146	-74.92
316.36	-19.63
316.573	142.16
316.787	74.58
317.001	54.1
317.214	17.24
317.428	84.82
317.641	-11.43
317.855	-48.3
318.068	50
318.282	58.2
318.495	146.26
318.709	95.06
318.922	68.44
319.136	150.36
319.349	144.21
319.563	-15.53
319.776	68.44
319.99	-99.5
320.203	47.96
320.417	7
320.63	97.11
320.843	207.7
321.057	111.44
321.27	21.33
321.483	76.63
321.697	142.16
321.91	78.68
322.124	27.48
322.337	47.96
322.55	93.01
322.763	23.38
322.977	107.35
323.19	52.05
323.403	41.81
323.617	105.3
323.83	66.39
324.043	-13.48
324.256	60.24
324.469	0.85
324.683	117.59
324.896	-23.72
325.109	60.24
325.322	-89.26
325.535	47.96
325.748	88.92
325.962	-50.35
326.175	56.15
326.388	56.15
326.601	107.35
326.814	9.05
327.027	11.09
327.24	150.36
327.453	-19.63
327.666	68.44
327.879	146.26
328.092	45.91
328.305	-9.39
328.518	39.76
328.731	-7.34
328.944	17.24
329.157	45.91
329.37	9.05
329.583	107.35
329.796	150.36
330.009	-93.35
330.222	183.12
330.435	86.87
330.648	37.72
330.861	41.81
331.073	86.87
331.286	80.72
331.499	88.92
331.712	-29.87
331.925	-85.16
332.138	-5.29
332.35	70.48
332.563	-36.01
332.776	125.78
332.989	9.05
333.202	-29.87
333.414	95.06
333.627	-5.29
333.84	17.24
334.053	-3.24
334.265	-44.2
334.478	-15.53
334.691	-11.43
334.903	52.05
335.116	-42.15
335.329	2.9
335.541	58.2
335.754	127.83
335.966	21.33
336.179	101.2
336.392	13.14
336.604	23.38
336.817	97.11
337.029	27.48
337.242	25.43
337.454	123.73
337.667	-42.15
337.88	176.98
338.092	43.86
338.305	111.44
338.517	2.9
338.729	27.48
338.942	111.44
339.154	-42.15
339.367	-21.67
339.579	99.16
339.792	-33.96
340.004	74.58
340.217	17.24
340.429	136.02
340.641	25.43
340.854	-36.01
341.066	35.67
341.278	119.64
341.491	136.02
341.703	115.54
341.915	-36.01
342.128	127.83
342.34	86.87
342.552	-15.53
342.764	41.81
342.977	-1.19
343.189	47.96
343.401	117.59
343.613	-122.02
343.826	-1.19
344.038	0.85
344.25	117.59
344.462	-5.29
344.674	60.24
344.886	15.19
345.099	-31.91
345.311	99.16
345.523	45.91
345.735	-68.78
345.947	78.68
346.159	93.01
346.371	-23.72
346.583	29.52
346.795	172.88
347.007	43.86
347.219	60.24
347.431	-48.3
347.643	168.79
347.855	13.14
348.067	148.31
348.279	-64.68
348.491	103.25
348.703	117.59
348.915	-44.2
349.127	-44.2
349.339	-29.87
349.551	-36.01
349.763	82.77
349.975	21.33
350.187	97.11
350.399	93.01
350.61	39.76
350.822	-64.68
351.034	37.72
351.246	47.96
351.458	29.52
351.669	45.91
351.881	183.12
352.093	111.44
352.305	148.31
352.517	19.29
352.728	140.12
352.94	39.76
353.152	35.67
353.363	2.9
353.575	2.9
353.787	129.88
353.999	58.2
354.21	140.12
354.422	-99.5
354.633	76.63
354.845	-3.24
355.057	101.2
355.268	4.95
355.48	113.49
355.692	-70.83
355.903	84.82
356.115	74.58
356.326	-31.91
356.538	174.93
356.749	29.52
356.961	123.73
357.172	27.48
357.384	-54.44
357.595	125.78
357.807	41.81
358.018	9.05
358.23	-25.77
358.441	209.75
358.653	64.34
358.864	74.58
359.075	0.85
359.287	74.58
359.498	45.91
359.709	189.27
359.921	-17.58
360.132	19.29
360.344	76.63
360.555	-21.67
360.766	107.35
360.977	74.58
361.189	160.59
361.4	62.29
361.611	168.79
361.823	76.63
362.034	-17.58
362.245	-36.01
362.456	47.96
362.667	43.86
362.879	-97.45
363.09	156.5
363.301	54.1
363.512	27.48
363.723	-9.39
363.935	2.9
364.146	70.48
364.357	39.76
364.568	95.06
364.779	-29.87
364.99	133.97
365.201	-113.83
365.412	142.16
365.623	-40.11
365.834	56.15
366.045	23.38
366.256	136.02
366.467	52.05
366.678	19.29
366.889	-1.19
367.1	-7.34
367.311	64.34
367.522	-25.77
367.733	117.59
367.944	90.96
368.155	-60.59
368.366	68.44
368.577	113.49
368.788	121.68
368.999	-11.43
369.209	78.68
369.42	287.57
369.631	252.75
369.842	88.92
370.053	-21.67
370.264	144.21
370.474	-54.44
370.685	107.35
370.896	62.29
371.107	146.26
371.317	31.57
371.528	-42.15
371.739	125.78
371.95	45.91
372.16	103.25
372.371	-38.06
372.582	56.15
372.792	119.64
373.003	60.24
373.214	70.48
373.424	84.82
373.635	-19.63
373.846	103.25
374.056	60.24
374.267	25.43
374.477	140.12
374.688	-68.78
374.898	47.96
375.109	27.48
375.319	13.14
375.53	172.88
375.74	113.49
375.951	105.3
376.161	64.34
376.372	60.24
376.582	-56.49
376.793	41.81
377.003	11.09
377.214	-9.39
377.424	31.57
377.635	50
377.845	25.43
378.055	123.73
378.266	-3.24
378.476	2.9
378.686	129.88
378.897	60.24
379.107	113.49
379.317	82.77
379.528	-33.96
379.738	103.25
379.948	-91.31
380.158	140.12
380.369	11.09
380.579	35.67
380.789	-7.34
380.999	68.44
381.21	95.06
381.42	170.83
381.63	9.05
381.84	150.36
382.05	119.64
382.261	109.4
382.471	88.92
382.681	15.19
382.891	179.03
383.101	45.91
383.311	-42.15
383.521	29.52
383.731	90.96
383.941	88.92
384.151	33.62
384.361	17.24
384.571	60.24
384.781	-7.34
384.991	187.22
385.201	160.59
385.411	60.24
385.621	80.72
385.831	21.33
386.041	60.24
386.251	70.48
386.461	146.26
386.671	29.52
386.881	-15.53
387.091	7
387.301	148.31
387.511	68.44
387.72	152.4
387.93	56.15
388.14	-15.53
388.35	39.76
388.56	142.16
388.769	121.68
388.979	-19.63
389.189	-1.19
389.399	64.34
389.609	9.05
389.818	111.44
390.028	60.24
390.238	103.25
390.447	-9.39
390.657	25.43
390.867	-48.3
391.076	13.14
391.286	43.86
391.496	54.1
391.705	33.62
391.915	148.31
392.125	72.53
392.334	15.19
392.544	150.36
392.753	43.86
392.963	-58.54
393.172	25.43
393.382	23.38
393.591	170.83
393.801	-5.29
394.01	78.68
394.22	105.3
394.429	-29.87
394.639	4.95
394.848	52.05
395.058	17.24
395.267	29.52
395.477	58.2
395.686	47.96
395.895	115.54
396.105	156.5
396.314	47.96
396.524	-31.91
396.733	-19.63
396.942	131.92
397.152	99.16
397.361	68.44
397.57	-25.77
397.78	56.15
397.989	47.96
398.198	201.55
398.407	-11.43
398.617	-7.34
398.826	41.81
399.035	74.58
399.244	109.4
399.453	90.96
399.663	-52.39
399.872	80.72
400.081	-21.67
400.29	74.58
400.499	-33.96
400.708	166.74
400.917	39.76
401.127	93.01
401.336	84.82
401.545	219.99
401.754	19.29
401.963	80.72
402.172	9.05
402.381	-29.87
402.59	17.24
402.799	58.2
403.008	105.3
403.217	37.72
403.426	43.86
403.635	-21.67
403.844	-46.25
404.053	-11.43
404.262	31.57
404.471	60.24
404.68	113.49
404.888	105.3
405.097	56.15
405.306	19.29
405.515	115.54
405.724	-11.43
405.933	183.12
406.142	111.44
406.35	47.96
406.559	11.09
406.768	37.72
406.977	123.73
407.185	142.16
407.394	7
407.603	2.9
407.812	84.82
408.02	84.82
408.229	23.38
408.438	74.58
408.646	-50.35
408.855	80.72
409.064	86.87
409.272	33.62
409.481	19.29
409.69	21.33
409.898	-27.82
410.107	43.86
410.315	90.96
410.524	-29.87
410.733	103.25
410.941	56.15
411.15	35.67
411.358	136.02
411.567	162.64
411.775	-1.19
411.984	74.58
412.192	74.58
412.401	43.86
412.609	172.88
412.818	78.68
413.026	164.69
413.234	58.2
413.443	88.92
413.651	-15.53
413.86	0.85
414.068	107.35
414.276	117.59
414.485	-76.97
414.693	181.07
414.901	191.31
415.11	17.24
415.318	-3.24
415.526	103.25
415.734	140.12
415.943	111.44
416.151	199.51
416.359	25.43
416.567	125.78
416.776	105.3
416.984	101.2
417.192	138.07
417.4	-66.73
417.608	-1.19
417.817	52.05
418.025	52.05
418.233	195.41
418.441	17.24
418.649	-58.54
418.857	101.2
419.065	140.12
419.273	-21.67
419.481	90.96
419.689	19.29
419.897	-33.96
420.105	-15.53
420.313	181.07
420.521	168.79
420.729	111.44
420.937	9.05
421.145	-50.35
421.353	152.4
421.561	107.35
421.769	93.01
421.977	9.05
422.185	148.31
422.393	9.05
422.601	156.5
422.809	66.39
423.017	13.14
423.224	50
423.432	25.43
423.64	50
423.848	78.68
424.056	31.57
424.263	109.4
424.471	41.81
424.679	125.78
424.887	37.72
425.094	189.27
425.302	9.05
425.51	9.05
425.718	115.54
425.925	78.68
426.133	76.63
426.341	174.93
426.548	80.72
426.756	70.48
426.964	86.87
427.171	80.72
427.379	68.44
427.586	58.2
427.794	93.01
428.001	174.93
428.209	129.88
428.417	217.94
428.624	90.96
428.832	146.26
429.039	82.77
429.247	56.15
429.454	133.97
429.662	228.18
429.869	93.01
430.076	115.54
430.284	133.97
430.491	111.44
430.699	68.44
430.906	213.84
431.114	95.06
431.321	84.82
431.528	93.01
431.736	213.84
431.943	209.75
432.15	148.31
432.358	170.83
432.565	236.37
432.772	33.62
432.979	209.75
433.187	129.88
433.394	324.43
433.601	119.64
433.808	301.9
434.016	316.24
434.223	228.18
434.43	205.65
434.637	244.56
434.844	250.71
435.052	174.93
435.259	310.1
435.466	260.95
435.673	258.9
435.88	312.14
436.087	379.73
436.294	377.68
436.501	328.53
436.708	287.57
436.915	306
437.122	412.5
437.329	244.56
437.537	353.1
437.743	289.62
437.95	430.93
438.157	387.92
438.364	402.26
438.571	357.2
438.778	430.93
438.985	488.27
439.192	504.65
439.399	518.99
439.606	562
439.813	490.32
440.02	541.52
440.227	686.92
440.433	570.19
440.64	652.11
440.847	469.84
441.054	684.87
441.261	748.36
441.467	713.55
441.674	586.57
441.881	713.55
442.088	615.24
442.294	754.51
442.501	789.32
442.708	811.85
442.914	740.17
443.121	848.71
443.328	934.73
443.534	992.07
443.741	967.49
443.948	924.49
444.154	1121.09
444.361	1266.5
444.568	1039.17
444.774	1061.7
444.981	1018.69
445.187	1239.87
445.394	1176.39
445.6	1172.29
445.807	1446.72
446.013	1334.08
446.22	1293.12
446.426	1499.97
446.633	1588.03
446.839	1735.48
447.046	1538.88
447.252	1801.02
447.459	1721.15
447.665	1753.91
447.871	1950.52
448.078	1932.09
448.284	2132.79
448.491	2061.11
448.697	2145.08
448.903	2292.53
449.11	2353.97
449.316	2466.61
449.522	2554.67
449.728	2642.73
449.935	2661.16
450.141	2706.22
450.347	2915.11
450.553	2706.22
450.76	2997.03
450.966	3142.44
451.172	3246.88
451.378	3396.39
451.584	3431.2
451.791	3662.62
451.997	3676.96
452.203	3820.32
452.409	3943.19
452.615	4016.92
452.821	4023.06
453.027	4123.41
453.233	4582.16
453.44	4444.95
453.646	4668.17
453.852	4862.73
454.058	5049.1
454.264	5305.09
454.47	5657.34
454.676	5743.36
454.882	6200.05
455.088	5808.89
455.294	6208.25
455.5	6728.43
455.705	7031.53
455.911	6867.69
456.117	7238.37
456.323	7285.48
456.529	7461.6
456.735	7996.12
456.941	8264.41
457.147	8635.09
457.352	8876.75
457.558	9071.31
457.764	9609.92
457.97	9933.5
458.176	10140.35
458.381	10846.9
458.587	10930.86
458.793	11524.77
458.999	11621.03
459.204	12925.58
459.41	13345.42
459.616	13214.35
459.821	14246.52
460.027	14617.21
460.233	15125.1
460.438	15604.33
460.644	16171.61
460.85	16515.67
461.055	16960.08
461.261	17994.31
461.466	17349.2
461.672	17965.64
461.878	19939.88
462.083	19702.31
462.289	20261.41
462.494	20888.09
462.7	21092.88
462.905	21338.64
463.111	22995.45
463.316	24515.04
463.522	25027.03
463.727	25506.26
463.932	26307.01
464.138	27230.65
464.343	28514.72
464.549	28486.05
464.754	30593.41
464.959	31543.67
465.165	31603.06
465.37	31639.92
465.575	31940.97
465.781	33628.5
465.986	34652.48
466.191	34160.97
466.397	34670.92
466.602	33911.12
466.807	35232.06
467.012	36430.12
467.218	36817.19
467.423	37071.14
467.628	38469.9
467.833	39987.44
468.038	39293.18
468.244	38691.08
468.449	40540.39
468.654	39149.82
468.859	39889.14
469.064	39684.34
469.269	38709.51
469.474	39465.21
469.679	40284.4
469.885	39035.14
470.09	39571.71
470.295	39514.36
470.5	38965.51
470.705	39471.36
470.91	38172.94
471.115	38080.78
471.32	38576.39
471.525	38295.82
471.73	37210.4
471.935	37077.28
472.139	35680.56
472.344	35866.93
472.549	35330.36
472.754	34400.58
472.959	33909.07
473.164	33034.59
473.369	32514.41
473.574	33403.22
473.778	32815.46
473.983	32076.14
474.188	31533.43
474.393	30161.29
474.598	29761.94
474.802	29426.07
475.007	28762.53
475.212	28828.06
475.417	27613.62
475.621	27314.61
475.826	27007.42
476.031	26390.98
476.235	25797.07
476.44	25729.48
476.645	25076.18
476.849	25072.09
477.054	24447.46
477.259	23720.43
477.463	23908.84
477.668	23065.08
477.872	23284.21
478.077	22471.17
478.282	22188.55
478.486	21613.07
478.691	21535.24
478.895	21357.07
479.1	21203.47
479.304	21092.88
479.509	20417.05
479.713	20824.6
479.918	20165.15
480.122	19513.9
480.326	19954.21
480.531	20009.51
480.735	19677.74
480.94	19116.59
481.144	19923.49
481.348	18891.32
481.553	18860.6
481.757	18567.74
481.961	18559.55
482.166	18577.98
482.37	18569.79
482.574	17984.07
482.778	17959.49
482.983	17973.83
483.187	17732.17
483.391	17797.7
483.595	17723.97
483.8	16796.25
484.004	17410.64
484.208	17525.32
484.412	16849.49
484.616	16644.7
484.821	16487
485.025	16280.16
485.229	16157.28
485.433	15745.64
485.637	15833.7
485.841	15299.18
486.045	15301.23
486.249	15344.24
486.453	14951.03
486.657	14811.76
486.861	14869.11
487.065	14162.56
487.269	14232.19
487.473	13542.02
487.677	13943.42
487.881	13699.72
488.085	13429.38
488.289	13179.53
488.493	12931.73
488.697	12886.67
488.901	12499.61
489.105	12061.34
489.309	12378.78
489.512	11920.03
489.716	11686.56
489.92	11371.18
490.124	11270.83
490.328	11154.09
490.531	10820.27
490.735	10746.55
490.939	10375.86
491.143	10263.22
491.346	9970.37
491.55	10119.87
491.754	9724.61
491.958	9722.56
492.161	9577.16
492.365	9366.21
492.569	9104.07
492.772	8944.33
492.976	8958.67
493.18	8841.93
493.383	8751.82
493.587	8682.19
493.79	8526.55
493.994	8354.52
494.197	8262.36
494.401	8198.87
494.605	8231.64
494.808	8131.29
495.012	7924.44
495.215	8059.61
495.419	7975.64
495.622	7787.23
495.825	7783.13
496.029	7631.58
496.232	7727.84
496.436	7600.87
496.639	7729.89
496.843	7609.06
497.046	7439.08
497.249	7746.27
497.453	7684.83
497.656	7797.47
497.859	7592.67
498.063	7744.22
498.266	7844.57
498.469	7453.41
498.673	7699.17
498.876	7774.94
499.079	7910.11
499.282	7584.48
499.485	8016.6
499.689	7820
499.892	8069.85
500.095	7912.16
500.298	7754.46
500.501	7746.27
500.705	8260.31
500.908	8358.61
501.111	8151.77
501.314	8331.99
501.517	8465.11
501.72	8379.09
501.923	8286.93
502.126	8487.64
502.329	8811.21
502.532	8749.78
502.735	8733.39
502.938	9067.21
503.141	8936.14
503.344	9044.68
503.547	9159.37
503.75	9335.49
503.953	9427.65
504.156	9638.59
504.359	9554.63
504.562	9673.41
504.765	10142.39
504.968	10162.87
505.17	10263.22
505.373	10191.55
505.576	10580.66
505.779	10470.07
505.982	10857.14
506.185	11029.17
506.387	11170.47
506.59	11385.51
506.793	11666.08
506.996	12018.33
507.198	12147.36
507.401	12356.25
507.604	12331.67
507.807	12878.48
508.009	12970.64
508.212	13218.44
508.415	13472.39
508.617	13765.25
508.82	13920.9
509.022	14051.97
509.225	14793.33
509.428	15041.14
509.63	15112.81
509.833	15362.67
510.035	15989.35
510.238	16210.53
510.44	16271.97
510.643	16910.93
510.845	17314.38
511.048	17029.71
511.25	17605.19
511.453	18139.71
511.655	18907.7
511.858	18973.24
512.06	19405.36
512.262	19917.35
512.465	20204.07
512.667	20826.65
512.87	21125.65
513.072	21340.69
513.274	21907.98
513.477	22350.34
513.679	23278.07
513.881	23337.46
514.084	24271.33
514.286	24279.52
514.488	25256.4
514.69	25729.48
514.893	26411.46
515.095	26763.71
515.297	27267.51
515.499	27673.01
515.701	28555.68
515.904	29233.56
516.106	29497.75
516.308	30060.94
516.51	31072.64
516.712	31357.3
516.914	32100.72
517.116	32696.67
517.318	33220.95
517.52	33413.46
517.722	34275.66
517.925	35180.86
518.127	35713.33
518.329	36536.62
518.531	36442.41
518.733	37341.47
518.935	37781.78
519.136	38617.35
519.338	39473.4
519.54	39739.64
519.742	40511.72
519.944	40816.87
520.146	41824.47
520.348	42066.13
520.55	42660.04
520.752	42631.37
520.954	43778.23
521.155	44144.82
521.357	44673.2
521.559	45027.49
521.761	46196.88
521.963	46045.33
522.164	46592.14
522.366	46604.43
522.568	47360.13
522.77	47472.77
522.971	48695.41
523.173	48054.39
523.375	48834.67
523.576	48588.91
523.778	49361
523.98	49428.58
524.181	49465.44
524.383	49596.51
524.584	50022.49
524.786	50237.53
524.988	50057.31
525.189	50335.83
525.391	50366.55
525.592	49905.76
525.794	50059.35
525.995	50171.99
526.197	50255.96
526.398	50241.62
526.6	50516.05
526.801	50466.9
527.003	49983.58
527.204	49680.48
527.406	49870.94
527.607	49576.03
527.808	49354.85
528.01	48275.57
528.211	48717.93
528.412	49616.99
528.614	48156.79
528.815	48066.68
529.016	48038.01
529.218	47296.64
529.419	47093.89
529.62	46323.86
529.822	46444.69
530.023	45803.67
530.224	45303.97
530.425	45248.67
530.626	44331.18
530.828	43614.4
531.029	44495.02
531.23	43446.46
531.431	42647.75
531.632	42721.48
531.833	42254.54
532.035	41308.38
532.236	41081.06
532.437	40759.53
532.638	39979.25
532.839	39774.45
533.04	39313.66
533.241	38072.59
533.442	38496.52
533.643	37300.51
533.844	37052.7
534.045	36919.59
534.246	35903.79
534.447	35602.74
534.648	35342.65
534.849	34632
535.05	34025.81
535.251	33982.8
535.451	33270.11
535.652	32973.15
535.853	32577.89
536.054	31965.55
536.255	32076.14
536.456	31312.25
536.657	30783.87
536.857	30181.77
537.058	29768.08
537.259	30114.19
537.46	29292.95
537.66	28952.99
537.861	28754.33
538.062	28066.22
538.263	27658.67
538.463	27126.2
538.664	27052.47
538.865	26571.2
539.065	26560.96
539.266	25934.28
539.466	25848.27
539.667	25377.23
539.868	25377.23
540.068	24693.21
540.269	24556
540.469	24320.48
540.67	23900.65
540.87	23779.82
541.071	23276.02
541.271	23310.83
541.472	22919.67
541.672	22456.83
541.873	22358.53
542.073	21711.37
542.274	21723.66
542.474	21715.47
542.675	21314.06
542.875	21287.44
543.075	20898.33
543.276	20892.18
543.476	20660.76
543.676	20066.85
543.877	20015.65
544.077	19927.59
544.277	19628.59
544.478	19155.51
544.678	19345.97
544.878	19003.96
545.078	18684.47
545.279	18530.87
545.479	18160.19
545.679	17902.15
545.879	17826.37
546.079	17728.07
546.28	17422.92
546.48	17193.55
546.68	17060.43
546.88	16945.75
547.08	16681.56
547.28	16591.45
547.48	16104.03
547.68	16319.07
547.88	15573.61
548.081	15802.98
548.281	15612.52
548.481	15270.51
548.681	15325.8
548.881	14860.91
549.081	14713.46
549.28	14361.21
549.48	14578.29
549.68	14238.33
549.88	14178.94
550.08	13585.03
550.28	13648.52
550.48	13703.81
550.68	13331.08
550.88	12995.22
551.08	12700.31
551.279	12958.35
551.479	12587.67
551.679	12456.6
551.879	11799.2
552.079	12059.29
552.278	11618.98
552.478	11788.96
552.678	11449
552.878	11391.66
553.077	11070.12
553.277	10799.79
553.477	10900.14
553.676	10472.12
553.876	10484.41
554.076	10275.51
554.275	10259.13
554.475	9759.42
554.674	9876.16
554.874	9736.9
555.074	9382.6
555.273	9177.8
555.473	9108.17
555.672	9020.11
555.872	8944.33
556.071	8970.96
556.271	8624.85
556.47	8483.54
556.67	8307.41
556.869	8262.36
557.068	8127.19
557.268	7961.31
557.467	7799.52
557.667	7742.18
557.866	7625.44
558.065	7418.6
558.265	7328.49
558.464	7330.53
558.663	7090.92
558.863	7006.95
559.062	7144.17
559.261	6753.01
559.461	6687.47
559.66	6521.59
559.859	6466.29
560.058	6161.14
560.258	6126.33
560.457	6179.58
560.656	6208.25
560.855	5911.29
561.054	5980.92
561.253	5763.84
561.453	5735.17
561.652	5735.17
561.851	5612.29
562.05	5321.48
562.249	5188.36
562.448	5401.35
562.647	5012.23
562.846	5159.69
563.045	5135.11
563.244	4965.13
563.443	5067.53
563.642	4719.37
563.841	4799.24
564.04	4655.89
564.239	4764.43
564.438	4582.16
564.637	4432.66
564.836	4401.94
565.035	4311.83
565.234	4291.35
565.432	4295.44
565.631	4279.06
565.83	4180.76
566.029	4174.61
566.228	3996.44
566.427	4104.98
566.625	3707.68
566.824	3904.28
567.023	3728.16
567.222	3644.19
567.42	3746.59
567.619	3687.2
567.818	3431.2
568.016	3631.9
568.215	3676.96
568.414	3437.34
568.612	3386.15
568.811	3304.23
569.01	3205.92
569.208	3228.45
569.407	3361.57
569.605	3103.53
569.804	3179.3
570.002	3134.25
570.201	2947.88
570.4	3138.34
570.598	2849.58
570.797	2878.25
570.995	2845.48
571.193	2671.4
571.392	2714.41
571.59	2695.98
571.789	2769.71
571.987	2732.84
572.186	2573.1
572.384	2403.12
572.582	2497.33
572.781	2519.85
572.979	2394.93
573.177	2421.55
573.376	2390.83
573.574	2401.07
573.772	2233.14
573.971	2231.09
574.169	2079.54
574.367	2302.77
574.565	2155.32
574.763	2210.61
574.962	1987.38
575.16	1960.76
575.358	1901.37
575.556	2001.72
575.754	1983.29
575.952	1983.29
576.151	1987.38
576.349	1995.57
576.547	1680.19
576.745	1852.22
576.943	1774.39
577.141	1803.07
577.339	1647.42
577.537	1661.76
577.735	1801.02
577.933	1680.19
578.131	1542.97
578.329	1727.29
578.527	1559.36
578.725	1547.07
578.923	1469.25
579.121	1536.83
579.319	1385.28
579.516	1358.66
579.714	1549.12
579.912	1430.34
580.11	1340.22
580.308	1366.85
580.506	1307.46
580.704	1223.49
580.901	1256.26
581.099	1411.9
581.297	1354.56
581.495	1356.61
581.692	1151.81
581.89	1307.46
582.088	1303.36
582.285	1280.83
582.483	1117
582.681	1198.92
582.878	1184.58
583.076	1223.49
583.274	1047.37
583.471	1207.11
583.669	1073.99
583.866	944.97
584.064	1024.84
584.262	977.73
584.459	895.82
584.657	1073.99
584.854	1045.32
585.052	1076.04
585.249	1022.79
585.447	973.64
585.644	852.81
585.841	1051.46
586.039	871.24
586.236	1022.79
586.434	932.68
586.631	822.09
586.828	817.99
587.026	787.27
587.223	709.45
587.42	828.23
587.618	815.94
587.815	858.95
588.012	777.03
588.21	822.09
588.407	842.57
588.604	801.61
588.801	746.31
588.999	799.56
589.196	774.99
589.393	637.77
589.59	750.41
589.787	885.58
589.984	709.45
590.182	738.12
590.379	674.64
590.576	678.73
590.773	711.5
590.97	645.96
591.167	764.75
591.364	734.03
591.561	670.54
591.758	754.51
591.955	727.88
592.152	693.07
592.349	578.38
592.546	656.2
592.743	652.11
592.94	674.64
593.137	774.99
593.334	828.23
593.531	717.64
593.727	713.55
593.924	719.69
594.121	615.24
594.318	740.17
594.515	766.79
594.712	858.95
594.908	809.8
595.105	629.58
595.302	846.66
595.499	750.41
595.696	766.79
595.892	656.2
596.089	918.34
596.286	719.69
596.482	883.53
596.679	785.23
596.876	772.94
597.072	916.3
597.269	809.8
597.466	930.63
597.662	867.14
597.859	904.01
598.055	969.54
598.252	1076.04
598.448	1114.95
598.645	1151.81
598.841	1129.28
599.038	1291.07
599.234	1338.18
599.431	1289.03
599.627	1403.71
599.824	1356.61
600.02	1315.65
600.217	1524.54
600.413	1502.01
600.609	1565.5
600.806	1880.89
601.002	1778.49
601.198	1682.24
601.395	1821.5
601.591	1993.53
601.787	2026.29
601.984	2028.34
602.18	2100.02
602.376	2188.08
602.572	2280.24
602.769	2456.37
602.965	2276.15
603.161	2562.86
603.357	2646.83
603.553	2788.14
603.75	2833.19
603.946	2870.06
604.142	3070.76
604.338	3293.99
604.534	3152.68
604.73	3230.5
604.926	3437.34
605.122	3541.79
605.318	3445.54
605.514	3687.2
605.71	3699.48
605.906	3935
606.102	4008.73
606.298	4223.76
606.494	4274.96
606.69	4707.09
606.886	4559.63
607.082	4688.65
607.278	4819.72
607.474	4973.32
607.67	5174.02
607.866	4936.46
608.062	5651.2
608.257	5479.17
608.453	5708.54
608.649	5944.06
608.845	5925.63
609.041	6075.13
609.236	6458.1
609.432	6574.83
609.628	6671.09
609.824	6931.18
610.019	6906.6
610.215	7076.59
610.411	7678.69
610.606	7844.57
610.802	8030.94
610.998	8211.16
611.193	8395.48
611.389	8508.12
611.584	8749.78
611.78	8790.74
611.976	9065.16
612.171	9571.01
612.367	9448.13
612.562	9915.07
612.758	9962.17
612.953	10193.59
613.149	10650.29
613.344	10873.52
613.539	11535.01
613.735	11672.23
613.93	11733.67
614.126	12227.23
614.321	12421.78
614.517	12688.02
614.712	13185.68
614.907	13496.97
615.103	14047.87
615.298	13968
615.493	14504.57
615.688	14359.16
615.884	15405.67
616.079	15663.72
616.274	16163.42
616.47	16206.43
616.665	16712.28
616.86	17291.85
617.055	17717.83
617.25	17744.45
617.445	18717.24
617.641	18940.47
617.836	19708.46
618.031	19595.82
618.226	20544.03
618.421	20947.48
618.616	21627.4
618.811	21977.61
619.006	22573.56
619.201	22772.22
619.396	23335.41
619.591	23585.26
619.786	24502.75
619.981	24682.97
620.176	25780.68
620.371	25573.84
620.566	26579.39
620.761	27279.8
620.956	27779.5
621.151	27855.28
621.346	28836.25
621.541	28778.91
621.735	29780.37
621.93	29991.31
622.125	30699.9
622.32	31373.69
622.515	31816.05
622.709	32467.3
622.904	32903.52
623.099	33745.23
623.294	34539.85
623.488	34341.19
623.683	35592.5
623.878	35848.5
624.072	36471.08
624.267	37251.36
624.462	37585.18
624.656	37910.8
624.851	38926.6
625.046	38768.9
625.24	39934.2
625.435	40599.79
625.629	40777.96
625.824	41529.56
626.018	41789.66
626.213	42219.73
626.407	42819.78
626.602	43116.74
626.796	44005.56
626.991	44073.14
627.185	44472.49
627.38	44632.24
627.574	45177
627.768	45129.89
627.963	45621.41
628.157	45101.22
628.352	45928.6
628.546	45379.74
628.74	46170.26
628.935	46108.82
629.129	45996.18
629.323	45367.46
629.517	45002.92
629.712	45424.8
629.906	44896.42
630.1	44093.62
630.294	44214.45
630.489	43608.25
630.683	43186.37
630.877	41961.69
631.071	41724.12
631.265	41527.52
631.459	40857.83
631.653	39735.54
631.848	39037.19
632.042	37802.26
632.236	37388.57
632.43	35924.27
632.624	35080.51
632.818	34009.42
633.012	33010.01
633.206	32285.03
633.4	31132.03
633.594	29821.33
633.788	28967.32
633.982	28305.83
634.176	27421.11
634.369	26071.5
634.563	24955.35
634.757	24150.5
634.951	23474.67
635.145	22512.13
635.339	22045.19
635.533	20961.81
635.726	20116
635.92	19006
636.114	18201.15
636.308	17654.34
636.501	17150.54
636.695	16351.84
636.889	15549.03
637.083	14916.21
637.276	14217.85
637.47	13531.78
637.664	13298.31
637.857	12835.47
638.051	12288.67
638.244	11872.93
638.438	11133.61
638.632	10736.31
638.825	10158.78
639.019	9953.98
639.212	9401.03
639.406	9222.86
639.599	8733.39
639.793	8407.77
639.986	8190.68
640.18	8020.7
640.373	7580.39
640.567	7248.61
640.76	7062.25
640.954	6691.57
641.147	6468.34
641.34	6298.36
641.534	6191.86
641.727	5935.87
641.92	5796.6
642.114	5432.07
642.307	5182.21
642.5	4948.75
642.694	4690.7
642.887	4543.25
643.08	4504.34
643.273	4317.97
643.467	4086.55
643.66	3818.27
643.853	3703.58
644.046	3701.53
644.239	3535.65
644.432	3250.98
644.626	3099.43
644.819	3242.79
645.012	3099.43
645.205	2902.83
645.398	2829.1
645.591	2761.52
645.784	2487.09
645.977	2378.55
646.17	2331.44
646.363	2272.05
646.556	2229.04
646.749	2134.84
646.942	2247.48
647.135	1960.76
647.328	1874.74
647.521	1973.05
647.714	1651.52
647.907	1669.95
648.099	1549.12
648.292	1708.86
648.485	1575.74
648.678	1475.39
648.871	1393.47
649.064	1332.03
649.256	1235.78
649.449	1170.24
649.642	1121.09
649.835	1162.05
650.027	1071.94
650.22	1137.48
650.413	1094.47
650.605	1151.81
650.798	887.62
650.991	990.02
651.183	832.33
651.376	1020.74
651.568	889.67
651.761	836.42
651.954	766.79
652.146	791.37
652.339	832.33
652.531	824.14
652.724	699.21
652.916	729.93
653.109	555.85
653.301	705.35
653.494	725.83
653.686	615.24
653.879	756.55
654.071	656.2
654.263	473.93
654.456	494.41
654.648	588.62
654.84	590.67
655.033	473.93
655.225	566.09
655.417	394.06
655.61	574.28
655.802	504.65
655.994	559.95
656.186	363.34
656.379	418.64
656.571	361.3
656.763	330.58
656.955	404.3
657.148	373.58
657.34	488.27
657.532	328.53
657.724	351.06
657.916	377.68
658.108	437.07
658.3	365.39
658.492	316.24
658.684	256.85
658.876	359.25
659.068	316.24
659.26	193.36
659.452	281.43
659.644	314.19
659.836	467.79
660.028	326.48
660.22	246.61
660.412	230.23
660.604	240.47
660.796	238.42
660.988	351.06
661.18	303.95
661.372	330.58
661.563	207.7
661.755	283.47
661.947	105.3
662.139	168.79
662.331	193.36
662.522	244.56
662.714	133.97
662.906	181.07
663.097	201.55
663.289	111.44
663.481	107.35
663.673	211.79
663.864	181.07
664.056	176.98
664.247	183.12
664.439	230.23
664.631	219.99
664.822	224.08
665.014	117.59
665.205	107.35
665.397	107.35
665.588	238.42
665.78	199.51
665.971	240.47
666.163	222.03
666.354	152.4
666.546	68.44
666.737	176.98
666.929	76.63
667.12	99.16
667.311	205.65
667.503	86.87
667.694	121.68
667.885	222.03
668.077	238.42
668.268	2.9
668.459	150.36
668.651	166.74
668.842	174.93
669.033	72.53
669.224	2.9
669.416	346.96
669.607	97.11
669.798	62.29
669.989	299.86
670.18	68.44
670.371	179.03
670.563	56.15
670.754	129.88
670.945	119.64
671.136	148.31
671.327	76.63
671.518	211.79
671.709	244.56
671.9	193.36
672.091	316.24
672.282	123.73
672.473	121.68
672.664	78.68
672.855	19.29
673.046	187.22
673.237	179.03
673.428	207.7
673.619	80.72
673.809	150.36
674	262.99
674.191	160.59
674.382	160.59
674.573	189.27
674.764	131.92
674.954	234.32
675.145	101.2
675.336	64.34
675.527	125.78
675.717	131.92
675.908	136.02
676.099	148.31
676.289	219.99
676.48	90.96
676.671	131.92
676.861	97.11
677.052	193.36
677.243	111.44
677.433	86.87
677.624	277.33
677.814	162.64
678.005	84.82
678.195	193.36
678.386	181.07
678.576	162.64
678.767	41.81
678.957	133.97
679.148	174.93
679.338	273.23
679.529	160.59
679.719	150.36
679.909	314.19
680.1	207.7
680.29	156.5
680.481	136.02
680.671	217.94
680.861	146.26
681.052	256.85
681.242	181.07
681.432	205.65
681.622	140.12
681.813	76.63
682.003	168.79
682.193	119.64
682.383	197.46
682.573	140.12
682.764	205.65
682.954	168.79
683.144	330.58
683.334	191.31
683.524	138.07
683.714	146.26
683.904	154.45
684.094	168.79
684.284	222.03
684.474	291.66
684.664	170.83
684.854	201.55
685.044	158.55
685.234	238.42
685.424	197.46
685.614	97.11
685.804	349.01
685.994	228.18
686.184	111.44
686.374	269.14
686.564	199.51
686.753	246.61
686.943	148.31
687.133	117.59
687.323	205.65
687.513	222.03
687.702	228.18
687.892	168.79
688.082	351.06
688.272	246.61
688.461	209.75
688.651	396.11
688.841	244.56
689.03	211.79
689.22	166.74
689.41	230.23
689.599	158.55
689.789	142.16
689.979	226.13
690.168	127.83
690.358	248.66
690.547	271.19
690.737	195.41
690.926	101.2
691.116	199.51
691.305	283.47
691.495	238.42
691.684	117.59
691.874	179.03
692.063	138.07
692.252	219.99
692.442	244.56
692.631	191.31
692.82	158.55
693.01	195.41
693.199	140.12
693.388	228.18
693.578	240.47
693.767	240.47
693.956	154.45
694.146	179.03
694.335	187.22
694.524	179.03
694.713	215.89
694.902	109.4
695.092	189.27
695.281	201.55
695.47	199.51
695.659	125.78
695.848	170.83
696.037	86.87
696.226	199.51
696.415	234.32
696.604	277.33
696.793	199.51
696.982	148.31
697.171	342.86
697.36	189.27
697.549	138.07
697.738	33.62
697.927	129.88
698.116	62.29
698.305	183.12
698.494	244.56
698.683	152.4
698.872	277.33
699.061	244.56
699.25	189.27
699.438	101.2
699.627	90.96
699.816	271.19
700.005	97.11
700.193	148.31
700.382	293.71
700.571	262.99
700.76	244.56
700.948	267.09
701.137	252.75
701.326	183.12
701.514	54.1
701.703	197.46
701.892	146.26
702.08	308.05
702.269	146.26
702.457	156.5
702.646	207.7
702.834	156.5
703.023	248.66
703.212	265.04
703.4	168.79
703.589	158.55
703.777	90.96
703.965	54.1
704.154	123.73
704.342	82.77
704.531	117.59
704.719	181.07
704.907	346.96
705.096	176.98
705.284	72.53
705.472	152.4
705.661	199.51
705.849	197.46
706.037	140.12
706.226	150.36
706.414	191.31
706.602	109.4
706.79	226.13
706.979	109.4
707.167	207.7
707.355	64.34
707.543	199.51
707.731	193.36
707.919	185.17
708.107	283.47
708.296	107.35
708.484	115.54
708.672	250.71
708.86	156.5
709.048	101.2
709.236	43.86
709.424	283.47
709.612	195.41
709.8	158.55
709.988	164.69
710.176	217.94
710.364	250.71
710.551	119.64
710.739	166.74
710.927	164.69
711.115	166.74
711.303	262.99
711.491	295.76
711.679	189.27
711.866	189.27
712.054	109.4
712.242	250.71
712.43	246.61
712.617	217.94
712.805	244.56
712.993	203.6
713.181	27.48
713.368	189.27
713.556	193.36
713.744	115.54
713.931	324.43
714.119	230.23
714.306	226.13
714.494	117.59
714.682	193.36
714.869	142.16
715.057	142.16
715.244	54.1
715.432	144.21
715.619	131.92
715.807	265.04
715.994	127.83
716.182	166.74
716.369	299.86
716.556	226.13
716.744	45.91
716.931	86.87
717.119	242.51
717.306	174.93
717.493	148.31
717.681	105.3
717.868	142.16
718.055	269.14
718.242	222.03
718.43	164.69
718.617	267.09
718.804	207.7
718.991	248.66
719.179	232.27
719.366	217.94
719.553	189.27
719.74	166.74
719.927	105.3
720.114	195.41
720.301	129.88
720.488	136.02
720.676	183.12
720.863	238.42
721.05	322.38
721.237	193.36
721.424	232.27
721.611	183.12
721.798	105.3
721.985	187.22
722.172	209.75
722.358	140.12
722.545	234.32
722.732	306
722.919	260.95
723.106	232.27
723.293	191.31
723.48	105.3
723.667	185.17
723.853	172.88
724.04	203.6
724.227	279.38
724.414	136.02
724.6	195.41
724.787	234.32
724.974	342.86
725.161	183.12
725.347	117.59
725.534	258.9
725.72	293.71
725.907	267.09
726.094	226.13
726.28	133.97
726.467	244.56
726.653	133.97
726.84	301.9
727.027	320.34
727.213	258.9
727.4	275.28
727.586	179.03
727.773	238.42
727.959	219.99
728.145	306
728.332	254.8
728.518	224.08
728.705	258.9
728.891	228.18
729.077	228.18
729.264	115.54
729.45	207.7
729.636	303.95
729.823	281.43
730.009	346.96
730.195	293.71
730.382	205.65
730.568	121.68
730.754	273.23
730.94	162.64
731.126	187.22
731.313	211.79
731.499	209.75
731.685	203.6
731.871	228.18
732.057	242.51
732.243	326.48
732.429	228.18
732.615	322.38
732.801	133.97
732.987	191.31
733.173	258.9
733.359	162.64
733.545	203.6
733.731	205.65
733.917	246.61
734.103	240.47
734.289	267.09
734.475	228.18
734.661	324.43
734.847	275.28
735.033	234.32
735.219	267.09
735.404	146.26
735.59	232.27
735.776	195.41
735.962	199.51
736.148	279.38
736.333	254.8
736.519	295.76
736.705	273.23
736.89	199.51
737.076	179.03
737.262	162.64
737.447	160.59
737.633	127.83
737.819	351.06
738.004	338.77
738.19	201.55
738.375	271.19
738.561	308.05
738.747	258.9
738.932	86.87
739.118	375.63
739.303	256.85
739.489	275.28
739.674	187.22
739.859	113.49
740.045	265.04
740.23	191.31
740.416	119.64
740.601	256.85
740.786	211.79
740.972	250.71
741.157	185.17
741.342	136.02
741.528	70.48
741.713	293.71
741.898	168.79
742.084	211.79
742.269	213.84
742.454	226.13
742.639	371.54
742.824	248.66
743.01	318.29
743.195	314.19
743.38	189.27
743.565	158.55
743.75	244.56
743.935	283.47
744.12	318.29
744.305	136.02
744.49	265.04
744.675	244.56
744.86	207.7
745.045	258.9
745.23	254.8
745.415	148.31
745.6	295.76
745.785	195.41
745.97	230.23
746.155	142.16
746.34	277.33
746.525	209.75
746.71	361.3
746.895	131.92
747.079	230.23
747.264	209.75
747.449	316.24
747.634	273.23
747.819	193.36
748.003	195.41
748.188	156.5
748.373	248.66
748.557	170.83
748.742	224.08
748.927	203.6
749.111	158.55
749.296	213.84
749.481	242.51
749.665	150.36
749.85	99.16
750.034	172.88
750.219	172.88
750.404	176.98
750.588	203.6
750.773	181.07
750.957	191.31
751.141	179.03
751.326	166.74
751.51	217.94
751.695	156.5
751.879	121.68
752.064	277.33
752.248	189.27
752.432	265.04
752.617	234.32
752.801	254.8
752.985	176.98
753.17	242.51
753.354	176.98
753.538	246.61
753.722	133.97
753.907	211.79
754.091	52.05
754.275	181.07
754.459	15.19
754.643	140.12
754.828	162.64
755.012	90.96
755.196	84.82
755.38	103.25
755.564	125.78
755.748	146.26
755.932	109.4
756.116	185.17
756.3	215.89
756.484	142.16
756.668	144.21
756.852	56.15
757.036	125.78
757.22	189.27
757.404	62.29
757.588	78.68
757.772	144.21
757.956	68.44
758.14	291.66
758.323	115.54
758.507	158.55
758.691	148.31
758.875	179.03
759.059	189.27
759.242	113.49
759.426	146.26
759.61	82.77
759.794	70.48
759.977	181.07
760.161	310.1
760.345	181.07
760.528	138.07
760.712	195.41
760.895	164.69
761.079	142.16
761.263	17.24
761.446	-19.63
761.63	119.64
761.813	181.07
761.997	35.67
762.18	84.82
762.364	144.21
762.547	-15.53
762.731	56.15
762.914	52.05
763.098	39.76
763.281	131.92
763.464	93.01
763.648	90.96
763.831	41.81
764.015	78.68
764.198	131.92
764.381	13.14
764.564	72.53
764.748	111.44
764.931	93.01
765.114	62.29
765.297	187.22
765.481	-7.34
765.664	45.91
765.847	43.86
766.03	150.36
766.213	72.53
766.397	74.58
766.58	-48.3
766.763	144.21
766.946	54.1
767.129	74.58
767.312	15.19
767.495	58.2
767.678	82.77
767.861	121.68
768.044	74.58
768.227	39.76
768.41	-68.78
768.593	99.16
768.776	23.38
768.959	43.86
769.142	164.69
769.324	93.01
769.507	80.72
769.69	76.63
769.873	58.2
770.056	242.51
770.239	9.05
770.421	164.69
770.604	172.88
770.787	129.88
770.97	86.87
771.152	33.62
771.335	113.49
771.518	17.24
771.7	144.21
771.883	203.6
772.066	-17.58
772.248	113.49
772.431	209.75
772.613	131.92
772.796	-23.72
772.978	185.17
773.161	228.18
773.343	88.92
773.526	47.96
773.708	-17.58
773.891	13.14
774.073	78.68
774.256	109.4
774.438	189.27
774.621	45.91
774.803	76.63
774.985	103.25
775.168	121.68
775.35	13.14
775.532	99.16
775.715	-29.87
775.897	136.02
776.079	62.29
776.261	117.59
776.444	33.62
776.626	142.16
776.808	74.58
776.99	19.29
777.173	88.92
777.355	15.19
777.537	68.44
777.719	109.4
777.901	84.82
778.083	2.9
778.265	-31.91
778.447	70.48
778.629	15.19
778.811	84.82
778.993	117.59
779.175	107.35
779.357	-13.48
779.539	-44.2
779.721	74.58
779.903	162.64
780.085	39.76
780.267	-21.67
780.449	66.39
780.631	138.07
780.812	154.45
780.994	95.06
781.176	21.33
781.358	-7.34
781.54	-21.67
781.721	76.63
781.903	101.2
782.085	39.76
782.267	115.54
782.448	-46.25
782.63	86.87
782.812	4.95
782.993	88.92
783.175	125.78
783.357	31.57
783.538	11.09
783.72	-40.11
783.901	45.91
784.083	84.82
784.264	11.09
784.446	-31.91
784.627	-52.39
784.809	35.67
784.99	19.29
785.172	80.72
785.353	9.05
785.535	111.44
785.716	25.43
785.897	-17.58
786.079	7
786.26	113.49
786.441	88.92
786.623	-72.87
786.804	-97.45
786.985	84.82
787.167	82.77
787.348	23.38
787.529	35.67
787.71	156.5
787.891	27.48
788.073	90.96
788.254	-117.93
788.435	136.02
788.616	41.81
788.797	-42.15
788.978	52.05
789.159	-19.63
789.34	52.05
789.522	-9.39
789.703	21.33
789.884	21.33
790.065	23.38
790.246	174.93
790.427	17.24
790.607	107.35
790.788	107.35
790.969	-52.39
791.15	144.21
791.331	-42.15
791.512	-33.96
791.693	-17.58
791.874	47.96
792.054	199.51
792.235	80.72
792.416	13.14
792.597	-38.06
792.778	84.82
792.958	54.1
793.139	-44.2
793.32	13.14
793.5	-93.35
793.681	136.02
793.862	21.33
794.042	60.24
794.223	-122.02
794.404	-9.39
794.584	-105.64
794.765	13.14
794.945	-64.68
795.126	66.39
795.306	74.58
795.487	64.34
795.667	-5.29
795.848	41.81
796.028	-17.58
796.209	13.14
796.389	97.11
796.57	-23.72
796.75	-19.63
796.93	-27.82
797.111	2.9
797.291	2.9
797.471	99.16
797.652	-11.43
797.832	-126.12
798.012	62.29
798.192	27.48
798.373	-11.43
798.553	47.96
798.733	19.29
798.913	-50.35
799.093	-1.19
799.274	60.24
799.454	78.68
799.634	93.01
799.814	72.53
799.994	23.38
800.174	82.77
800.354	11.09
800.534	-48.3
800.714	111.44
800.894	-33.96
801.074	-87.21
801.254	-113.83
801.434	78.68
801.614	-76.97
801.794	-99.5
801.974	1663.8
802.154	0.85
802.334	90.96
802.514	-29.87
802.693	41.81
802.873	-33.96
803.053	66.39
803.233	13.14
803.413	74.58
803.592	-70.83
803.772	7
803.952	21.33
804.131	-93.35
804.311	107.35
804.491	7
804.67	-60.59
804.85	-3.24
805.03	7
805.209	70.48
805.389	-15.53
805.568	-46.25
805.748	-93.35
805.928	13.14
806.107	41.81
806.287	74.58
806.466	-40.11
806.646	27.48
806.825	17.24
807.004	-27.82
807.184	-5.29
807.363	35.67
807.543	52.05
807.722	-74.92
807.901	76.63
808.081	103.25
808.26	-165.03
808.439	7
808.619	-13.48
808.798	-42.15
808.977	27.48
809.156	115.54
809.336	15.19
809.515	60.24
809.694	-58.54
809.873	-13.48
810.052	101.2
810.231	72.53
810.411	31.57
810.59	117.59
810.769	-17.58
810.948	47.96
811.127	-105.64
811.306	-46.25
811.485	-7.34
811.664	72.53
811.843	-5.29
812.022	97.11
812.201	-105.64
812.38	-111.78
812.559	-29.87
812.737	82.77
812.916	-46.25
813.095	-107.69
813.274	127.83
813.453	13.14
813.632	21.33
813.811	76.63
813.989	-38.06
814.168	17.24
814.347	-48.3
814.526	-93.35
814.704	52.05
814.883	107.35
815.062	23.38
815.24	62.29
815.419	-38.06
815.598	2.9
815.776	-62.63
815.955	-42.15
816.133	-31.91
816.312	-7.34
816.49	-38.06
816.669	41.81
816.847	-93.35
817.026	15.19
817.204	45.91
817.383	-9.39
817.561	-85.16
817.74	72.53
817.918	-50.35
818.097	-62.63
818.275	2.9
818.453	86.87
818.632	31.57
818.81	60.24
818.988	-5.29
819.167	-33.96
819.345	-33.96
819.523	-46.25
819.701	9.05
819.879	0.85
820.058	-25.77
820.236	-46.25
820.414	-68.78
820.592	-66.73
820.77	23.38
820.948	11.09
821.127	-19.63
821.305	-44.2
821.483	-99.5
821.661	99.16
821.839	0.85
822.017	-60.59
822.195	-48.3
822.373	93.01
822.551	-36.01
822.729	9.05
822.907	-5.29
823.085	47.96
823.262	-50.35
823.44	-33.96
823.618	-68.78
823.796	-29.87
823.974	-17.58
824.152	-3.24
824.329	-15.53
824.507	-50.35
824.685	9.05
824.863	11.09
825.04	-36.01
825.218	15.19
825.396	-36.01
825.574	9.05
825.751	41.81
825.929	76.63
826.107	-79.02
826.284	33.62
826.462	-17.58
826.639	-52.39
826.817	-66.73
826.994	-31.91
827.172	-87.21
827.349	111.44
827.527	90.96
827.704	17.24
827.882	66.39
828.059	21.33
828.237	-91.31
828.414	0.85
828.591	-117.93
828.769	43.86
828.946	-91.31
829.124	15.19
829.301	82.77
829.478	13.14
829.655	84.82
829.833	23.38
830.01	-185.51
830.187	-25.77
830.364	-1.19
830.542	35.67
830.719	109.4
830.896	-13.48
831.073	86.87
831.25	25.43
831.427	31.57
831.604	-38.06
831.782	9.05
831.959	13.14
832.136	-56.49
832.313	-44.2
832.49	-50.35
832.667	27.48
832.844	-19.63
833.021	4.95
833.198	-15.53
833.374	74.58
833.551	-15.53
833.728	52.05
833.905	111.44
834.082	-31.91
834.259	41.81
834.436	31.57
834.612	-103.59
834.789	60.24
834.966	-40.11
835.143	27.48
835.319	-66.73
835.496	103.25
835.673	31.57
835.85	62.29
836.026	68.44
836.203	33.62
836.38	-46.25
836.556	-23.72
836.733	13.14
836.909	183.12
837.086	-36.01
837.262	-54.44
837.439	-46.25
837.616	-70.83
837.792	7
837.968	-13.48
838.145	-105.64
838.321	47.96
838.498	23.38
838.674	27.48
838.851	88.92
839.027	-7.34
839.203	13.14
839.38	33.62
839.556	-46.25
839.732	78.68
839.909	-13.48
840.085	13.14
840.261	-58.54
840.437	31.57
840.614	-93.35
840.79	95.06
840.966	45.91
841.142	54.1
841.318	-42.15
841.494	56.15
841.671	-15.53
841.847	-36.01
842.023	-111.78
842.199	70.48
842.375	86.87
842.551	-95.4
842.727	-74.92
842.903	127.83
843.079	-95.4
843.255	121.68
843.431	-33.96
843.607	23.38
843.783	-76.97
843.959	23.38
844.134	-33.96
844.31	43.86
844.486	-66.73
844.662	-105.64
844.838	0.85
845.013	-3.24
845.189	82.77
845.365	56.15
845.541	-33.96
845.716	47.96
845.892	15.19
846.068	37.72
846.244	-48.3
846.419	-21.67
846.595	-62.63
846.77	-31.91
846.946	54.1
847.122	-42.15
847.297	-124.07
847.473	68.44
847.648	-107.69
847.824	27.48
847.999	-97.45
848.175	-29.87
848.35	95.06
848.526	74.58
848.701	47.96
848.876	109.4
849.052	103.25
849.227	-29.87
849.403	72.53
849.578	-64.68
849.753	4.95
849.929	-31.91
850.104	-107.69
850.279	-21.67
850.454	-58.54
850.63	-21.67
850.805	72.53
850.98	64.34
851.155	-27.82
851.33	107.35
851.505	9.05
851.681	95.06
851.856	-93.35
852.031	-40.11
852.206	-29.87
852.381	-17.58
852.556	-13.48
852.731	76.63
852.906	4.95
853.081	9.05
853.256	109.4
853.431	15.19
853.606	-29.87
853.781	-42.15
853.956	-113.83
854.131	27.48
854.305	-3.24
854.48	-1.19
854.655	-62.63
854.83	-48.3
855.005	-101.55
855.18	27.48
855.354	-60.59
855.529	2.9
855.704	13.14
855.879	17.24
856.053	-46.25
856.228	0.85
856.403	-111.78
856.577	50
856.752	-146.6
856.926	-5.29
857.101	27.48
857.276	-111.78
857.45	25.43
857.625	-27.82
857.799	78.68
857.974	-36.01
858.148	-126.12
858.323	2.9
858.497	-42.15
858.672	-36.01
858.846	-46.25
859.02	21.33
859.195	-66.73
859.369	15.19
859.543	60.24
859.718	-9.39
859.892	-54.44
860.066	72.53
860.241	-109.74
860.415	-50.35
860.589	-5.29
860.763	-9.39
860.938	11.09
861.112	33.62
861.286	-101.55
861.46	23.38
861.634	-17.58
861.808	82.77
861.982	-21.67
862.157	-52.39
862.331	-31.91
862.505	-68.78
862.679	-76.97
862.853	-23.72
863.027	-11.43
863.201	164.69
863.375	-122.02
863.549	84.82
863.722	15.19
863.896	84.82
864.07	-99.5
864.244	-56.49
864.418	37.72
864.592	-9.39
864.766	-31.91
864.939	-56.49
865.113	-42.15
865.287	158.55
865.461	-50.35
865.634	23.38
865.808	-29.87
865.982	-72.87
866.156	-54.44
866.329	-19.63
866.503	-11.43
866.676	29.52
866.85	93.01
867.024	-40.11
867.197	27.48
867.371	21.33
867.544	-13.48
867.718	-95.4
867.891	58.2
868.065	-38.06
868.238	-5.29
868.412	41.81
868.585	-3.24
868.759	-113.83
868.932	-58.54
869.105	-52.39
869.279	2.9
869.452	4.95
869.625	113.49
869.799	-31.91
869.972	-105.64
870.145	-87.21
870.319	86.87
870.492	-19.63
870.665	2.9
870.838	-89.26
871.011	-42.15
871.185	-70.83
871.358	-130.22
871.531	19.29
871.704	-70.83
871.877	19.29
872.05	-74.92
872.223	-60.59
872.396	54.1
872.569	86.87
872.742	-119.98
872.915	41.81
873.088	-72.87
873.261	-46.25
873.434	29.52
873.607	-21.67
873.78	95.06
873.953	-31.91
874.126	7
874.299	33.62
874.471	-91.31
874.644	-42.15
874.817	37.72
874.99	136.02
875.163	-25.77
875.335	-40.11
875.508	-87.21
875.681	127.83
875.853	-50.35
876.026	29.52
876.199	17.24
876.371	13.14
876.544	58.2
876.717	23.38
876.889	-17.58
877.062	-13.48
877.234	-87.21
877.407	-44.2
877.579	-13.48
877.752	-33.96
877.924	80.72
878.097	-9.39
878.269	13.14
878.442	-7.34
878.614	31.57
878.786	11.09
878.959	-1.19
879.131	-19.63
879.303	-115.88
879.476	-79.02
879.648	111.44
879.82	-25.77
879.993	-3.24
880.165	-62.63
880.337	-48.3
880.509	66.39
880.681	-50.35
880.854	-50.35
881.026	82.77
881.198	140.12
881.37	-19.63
881.542	37.72
881.714	-9.39
881.886	-56.49
882.058	-27.82
882.23	-7.34
882.402	-11.43
882.574	-48.3
882.746	80.72
882.918	56.15
883.09	-44.2
883.262	-113.83
883.434	4.95
883.606	-64.68
883.778	-48.3
883.95	95.06
884.122	7
884.293	86.87
884.465	-62.63
884.637	99.16
884.809	-46.25
884.98	62.29
885.152	54.1
885.324	88.92
885.496	-56.49
885.667	-52.39
885.839	-21.67
886.011	23.38
886.182	31.57
886.354	-15.53
886.525	58.2
886.697	7
886.869	23.38
887.04	-56.49
887.212	127.83
887.383	136.02
887.555	56.15
887.726	9.05
887.897	-52.39
888.069	-52.39
888.24	43.86
888.412	-9.39
888.583	-97.45
888.754	50
888.926	-111.78
889.097	-23.72
889.268	-91.31
889.44	41.81
889.611	-46.25
889.782	-122.02
889.953	-29.87
890.125	35.67
890.296	-64.68
890.467	37.72
890.638	-21.67
890.809	-11.43
890.98	-52.39
891.151	7
891.323	127.83
891.494	-13.48
891.665	2.9
891.836	58.2
892.007	52.05
892.178	-5.29
892.349	-17.58
892.52	-40.11
892.691	-31.91
892.862	-36.01
893.032	-138.41
893.203	-95.4
893.374	-5.29
893.545	39.76
893.716	-17.58
893.887	78.68
894.057	-27.82
894.228	-3.24
894.399	-29.87
894.57	27.48
894.74	-5.29
894.911	-25.77
895.082	-31.91
895.253	-62.63
895.423	107.35
895.594	39.76
895.764	2.9
895.935	-25.77
896.106	9.05
896.276	-52.39
896.447	39.76
896.617	-48.3
896.788	-115.88
896.958	-50.35
897.129	-60.59
897.299	-115.88
897.47	90.96
897.64	-15.53
897.81	-25.77
897.981	-36.01
898.151	-13.48
898.322	-7.34
898.492	62.29
898.662	-70.83
898.832	-38.06
899.003	25.43
899.173	-1.19
899.343	-33.96
899.513	-17.58
