Data from USB4F104151__278__11-20-52-330.txt Node

Date: Wed Feb 26 11:20:52 EST 2025
User: louis
Spectrometer: USB4F10415
Trigger mode: 4
Integration Time (sec): 1.000000E-1
Scans to average: 1
Electric dark correction enabled: true
Nonlinearity correction enabled: false
Boxcar width: 0
XAxis mode: Wavelengths
Number of Pixels in Spectrum: 3648
>>>>>Begin Spectral Data<<<<<
178.204	-448.85
178.424	-448.85
178.644	-448.85
178.864	-434.51
179.084	-381.26
179.304	-78.16
179.524	9.9
179.744	22.19
179.964	69.29
180.184	7.85
180.404	26.28
180.624	-43.35
180.844	69.29
181.064	-49.49
181.283	-10.58
181.503	-45.4
181.723	22.19
181.943	-90.45
182.163	202.41
182.383	-33.11
182.602	83.63
182.822	100.01
183.042	100.01
183.262	-78.16
183.482	-2.39
183.701	-0.34
183.921	26.28
184.141	-43.35
184.361	36.52
184.58	71.34
184.8	106.15
185.02	-6.49
185.239	73.39
185.459	75.43
185.679	89.77
185.898	-69.97
186.118	75.43
186.338	102.06
186.557	153.26
186.777	-102.74
186.997	-45.4
187.216	-12.63
187.436	134.82
187.655	40.62
187.875	106.15
188.095	22.19
188.314	165.54
188.534	69.29
188.753	-26.96
188.973	122.54
189.192	241.32
189.412	34.47
189.631	83.63
189.851	-31.06
190.07	147.11
190.29	-45.4
190.509	-14.68
190.729	91.82
190.948	194.22
191.168	247.46
191.387	75.43
191.607	9.9
191.826	83.63
192.045	34.47
192.265	-8.53
192.484	50.86
192.704	26.28
192.923	-65.88
193.142	143.02
193.362	59.05
193.581	138.92
193.8	-6.49
194.02	61.1
194.239	13.99
194.458	67.24
194.678	-8.53
194.897	-14.68
195.116	50.86
195.335	108.2
195.555	40.62
195.774	-57.68
195.993	22.19
196.212	26.28
196.432	40.62
196.651	24.23
196.87	-33.11
197.089	224.94
197.308	75.43
197.528	20.14
197.747	-26.96
197.966	77.48
198.185	153.26
198.404	-26.96
198.623	124.58
198.842	132.78
199.062	67.24
199.281	57
199.5	93.87
199.719	71.34
199.938	57
200.157	89.77
200.376	114.34
200.595	149.16
200.814	18.09
201.033	-55.64
201.252	220.84
201.471	7.85
201.69	52.91
201.909	38.57
202.128	192.17
202.347	85.67
202.566	54.95
202.785	-78.16
203.004	-63.83
203.223	229.03
203.442	7.85
203.661	-31.06
203.879	118.44
204.098	153.26
204.317	-24.92
204.536	93.87
204.755	95.91
204.974	140.97
205.193	1.71
205.411	151.21
205.63	151.21
205.849	-0.34
206.068	69.29
206.287	-16.73
206.505	181.93
206.724	38.57
206.943	22.19
207.162	69.29
207.381	52.91
207.599	11.95
207.818	-31.06
208.037	-69.97
208.255	52.91
208.474	7.85
208.693	46.76
208.911	9.9
209.13	52.91
209.349	110.25
209.567	95.91
209.786	38.57
210.005	65.19
210.223	63.15
210.442	-92.5
210.661	11.95
210.879	87.72
211.098	69.29
211.316	24.23
211.535	120.49
211.753	-12.63
211.972	54.95
212.191	38.57
212.409	-29.01
212.628	165.54
212.846	-26.96
213.065	-8.53
213.283	120.49
213.502	-14.68
213.72	93.87
213.938	40.62
214.157	-67.92
214.375	110.25
214.594	65.19
214.812	22.19
215.031	1.71
215.249	34.47
215.467	104.11
215.686	65.19
215.904	134.82
216.122	57
216.341	171.69
216.559	30.38
216.778	198.31
216.996	161.45
217.214	-8.53
217.432	1.71
217.651	-61.78
217.869	18.09
218.087	75.43
218.306	61.1
218.524	138.92
218.742	-0.34
218.96	91.82
219.179	59.05
219.397	11.95
219.615	263.85
219.833	196.26
220.051	-14.68
220.27	104.11
220.488	65.19
220.706	81.58
220.924	32.43
221.142	-6.49
221.36	134.82
221.578	110.25
221.796	26.28
222.015	28.33
222.233	97.96
222.451	128.68
222.669	-57.68
222.887	73.39
223.105	34.47
223.323	75.43
223.541	-53.59
223.759	54.95
223.977	1.71
224.195	122.54
224.413	116.39
224.631	116.39
224.849	40.62
225.067	140.97
225.285	36.52
225.503	24.23
225.721	-123.22
225.939	71.34
226.157	77.48
226.375	116.39
226.592	-29.01
226.81	40.62
227.028	177.83
227.246	104.11
227.464	118.44
227.682	102.06
227.9	34.47
228.117	81.58
228.335	97.96
228.553	24.23
228.771	16.04
228.989	77.48
229.206	95.91
229.424	-26.96
229.642	46.76
229.86	-61.78
230.077	214.7
230.295	52.91
230.513	147.11
230.731	34.47
230.948	212.65
231.166	181.93
231.384	-6.49
231.601	-80.21
231.819	265.89
232.037	-69.97
232.254	-72.02
232.472	54.95
232.689	-33.11
232.907	85.67
233.125	-39.25
233.342	11.95
233.56	-4.44
233.777	-10.58
233.995	42.67
234.213	100.01
234.43	42.67
234.648	54.95
234.865	-8.53
235.083	83.63
235.3	46.76
235.518	59.05
235.735	112.3
235.953	106.15
236.17	81.58
236.388	91.82
236.605	83.63
236.822	108.2
237.04	151.21
237.257	-29.01
237.475	-22.87
237.692	28.33
237.909	69.29
238.127	-0.34
238.344	145.06
238.562	5.8
238.779	13.99
238.996	-69.97
239.214	1.71
239.431	89.77
239.648	-8.53
239.865	93.87
240.083	95.91
240.3	-47.44
240.517	3.75
240.735	32.43
240.952	85.67
241.169	46.76
241.386	79.53
241.603	59.05
241.821	-72.02
242.038	89.77
242.255	112.3
242.472	16.04
242.689	130.73
242.907	91.82
243.124	102.06
243.341	71.34
243.558	-14.68
243.775	-76.12
243.992	-57.68
244.209	79.53
244.426	132.78
244.643	5.8
244.86	-0.34
245.078	134.82
245.295	85.67
245.512	85.67
245.729	-33.11
245.946	143.02
246.163	-14.68
246.38	11.95
246.597	134.82
246.814	57
247.031	83.63
247.248	65.19
247.464	18.09
247.681	11.95
247.898	52.91
248.115	79.53
248.332	-80.21
248.549	151.21
248.766	118.44
248.983	59.05
249.2	48.81
249.417	71.34
249.633	36.52
249.85	69.29
250.067	20.14
250.284	87.72
250.501	22.19
250.717	48.81
250.934	42.67
251.151	85.67
251.368	-16.73
251.585	38.57
251.801	44.71
252.018	-133.46
252.235	157.35
252.451	-37.2
252.668	-8.53
252.885	77.48
253.102	124.58
253.318	-12.63
253.535	5.8
253.752	52.91
253.968	-14.68
254.185	16.04
254.401	26.28
254.618	46.76
254.835	-31.06
255.051	85.67
255.268	114.34
255.484	93.87
255.701	11.95
255.917	24.23
256.134	-24.92
256.351	40.62
256.567	-18.77
256.784	59.05
257	-88.4
257.217	57
257.433	118.44
257.65	57
257.866	157.35
258.082	-69.97
258.299	11.95
258.515	106.15
258.732	9.9
258.948	48.81
259.165	28.33
259.381	-24.92
259.597	48.81
259.814	24.23
260.03	16.04
260.246	42.67
260.463	140.97
260.679	102.06
260.895	3.75
261.112	106.15
261.328	-29.01
261.544	38.57
261.761	200.36
261.977	-92.5
262.193	-106.84
262.409	104.11
262.626	75.43
262.842	52.91
263.058	7.85
263.274	85.67
263.49	89.77
263.707	71.34
263.923	122.54
264.139	-53.59
264.355	-2.39
264.571	77.48
264.787	20.14
265.004	186.02
265.22	46.76
265.436	28.33
265.652	16.04
265.868	38.57
266.084	-53.59
266.3	63.15
266.516	-41.3
266.732	44.71
266.948	40.62
267.164	65.19
267.38	63.15
267.596	143.02
267.812	188.07
268.028	-33.11
268.244	7.85
268.46	79.53
268.676	1.71
268.892	38.57
269.108	-35.16
269.324	-45.4
269.54	-67.92
269.756	95.91
269.972	48.81
270.188	79.53
270.403	-6.49
270.619	40.62
270.835	151.21
271.051	13.99
271.267	32.43
271.483	-67.92
271.698	-0.34
271.914	42.67
272.13	-6.49
272.346	50.86
272.562	87.72
272.777	104.11
272.993	3.75
273.209	11.95
273.425	85.67
273.64	-63.83
273.856	102.06
274.072	-24.92
274.287	-8.53
274.503	89.77
274.719	124.58
274.934	38.57
275.15	-39.25
275.366	-6.49
275.581	-45.4
275.797	73.39
276.012	54.95
276.228	-37.2
276.444	-8.53
276.659	81.58
276.875	-39.25
277.09	46.76
277.306	7.85
277.521	16.04
277.737	-12.63
277.952	79.53
278.168	106.15
278.383	40.62
278.599	40.62
278.814	63.15
279.03	18.09
279.245	93.87
279.461	-63.83
279.676	108.2
279.892	-57.68
280.107	-76.12
280.322	-53.59
280.538	91.82
280.753	26.28
280.969	16.04
281.184	85.67
281.399	151.21
281.615	46.76
281.83	3.75
282.045	-47.44
282.26	-12.63
282.476	50.86
282.691	40.62
282.906	73.39
283.122	-12.63
283.337	16.04
283.552	95.91
283.767	32.43
283.983	151.21
284.198	-37.2
284.413	91.82
284.628	-43.35
284.843	28.33
285.058	120.49
285.274	-26.96
285.489	46.76
285.704	153.26
285.919	-41.3
286.134	5.8
286.349	18.09
286.564	3.75
286.779	112.3
286.995	61.1
287.21	-84.31
287.425	59.05
287.64	-61.78
287.855	106.15
288.07	-59.73
288.285	136.87
288.5	81.58
288.715	24.23
288.93	87.72
289.145	-47.44
289.36	118.44
289.575	28.33
289.79	57
290.004	-6.49
290.219	120.49
290.434	-61.78
290.649	-4.44
290.864	59.05
291.079	13.99
291.294	32.43
291.509	3.75
291.724	34.47
291.938	-22.87
292.153	85.67
292.368	26.28
292.583	61.1
292.798	124.58
293.012	128.68
293.227	136.87
293.442	-47.44
293.657	106.15
293.871	163.5
294.086	77.48
294.301	181.93
294.516	54.95
294.73	13.99
294.945	-33.11
295.16	73.39
295.374	100.01
295.589	71.34
295.804	-18.77
296.018	69.29
296.233	59.05
296.447	122.54
296.662	13.99
296.877	171.69
297.091	91.82
297.306	22.19
297.52	59.05
297.735	46.76
297.949	75.43
298.164	110.25
298.378	85.67
298.593	-53.59
298.807	7.85
299.022	63.15
299.236	128.68
299.451	-16.73
299.665	-24.92
299.88	20.14
300.094	7.85
300.309	77.48
300.523	97.96
300.737	75.43
300.952	30.38
301.166	143.02
301.381	-26.96
301.595	-35.16
301.809	108.2
302.024	-41.3
302.238	-8.53
302.452	140.97
302.667	46.76
302.881	120.49
303.095	79.53
303.309	-2.39
303.524	73.39
303.738	-26.96
303.952	-67.92
304.166	-6.49
304.381	-108.88
304.595	110.25
304.809	11.95
305.023	-53.59
305.237	9.9
305.452	5.8
305.666	11.95
305.88	134.82
306.094	124.58
306.308	-6.49
306.522	93.87
306.736	77.48
306.95	81.58
307.164	52.91
307.379	69.29
307.593	91.82
307.807	155.3
308.021	3.75
308.235	106.15
308.449	-65.88
308.663	-0.34
308.877	212.65
309.091	-41.3
309.305	3.75
309.519	-98.64
309.733	145.06
309.947	-135.51
310.161	30.38
310.374	75.43
310.588	89.77
310.802	-18.77
311.016	-12.63
311.23	73.39
311.444	9.9
311.658	106.15
311.872	59.05
312.085	104.11
312.299	161.45
312.513	126.63
312.727	126.63
312.941	-90.45
313.154	61.1
313.368	67.24
313.582	67.24
313.796	16.04
314.009	69.29
314.223	161.45
314.437	179.88
314.651	32.43
314.864	-39.25
315.078	-74.07
315.292	-147.8
315.505	16.04
315.719	42.67
315.933	91.82
316.146	18.09
316.36	-29.01
316.573	183.98
316.787	138.92
317.001	110.25
317.214	-104.79
317.428	61.1
317.641	-4.44
317.855	30.38
318.068	1.71
318.282	95.91
318.495	163.5
318.709	120.49
318.922	26.28
319.136	79.53
319.349	130.73
319.563	36.52
319.776	110.25
319.99	-78.16
320.203	120.49
320.417	1.71
320.63	171.69
320.843	224.94
321.057	77.48
321.27	18.09
321.483	61.1
321.697	143.02
321.91	83.63
322.124	83.63
322.337	52.91
322.55	-8.53
322.763	28.33
322.977	87.72
323.19	52.91
323.403	-49.49
323.617	-0.34
323.83	42.67
324.043	-57.68
324.256	97.96
324.469	3.75
324.683	67.24
324.896	1.71
325.109	28.33
325.322	-41.3
325.535	67.24
325.748	110.25
325.962	32.43
326.175	69.29
326.388	77.48
326.601	83.63
326.814	-33.11
327.027	40.62
327.24	175.78
327.453	-63.83
327.666	48.81
327.879	5.8
328.092	95.91
328.305	87.72
328.518	-16.73
328.731	-33.11
328.944	-4.44
329.157	67.24
329.37	-0.34
329.583	163.5
329.796	93.87
330.009	-104.79
330.222	52.91
330.435	110.25
330.648	79.53
330.861	-51.54
331.073	13.99
331.286	100.01
331.499	59.05
331.712	-39.25
331.925	-4.44
332.138	54.95
332.35	65.19
332.563	-31.06
332.776	61.1
332.989	-20.82
333.202	-55.64
333.414	30.38
333.627	85.67
333.84	-45.4
334.053	77.48
334.265	11.95
334.478	-18.77
334.691	-0.34
334.903	69.29
335.116	28.33
335.329	-26.96
335.541	57
335.754	102.06
335.966	48.81
336.179	52.91
336.392	65.19
336.604	7.85
336.817	128.68
337.029	104.11
337.242	-14.68
337.454	30.38
337.667	95.91
337.88	247.46
338.092	44.71
338.305	118.44
338.517	-69.97
338.729	44.71
338.942	120.49
339.154	-35.16
339.367	-63.83
339.579	110.25
339.792	-35.16
340.004	50.86
340.217	-8.53
340.429	13.99
340.641	-20.82
340.854	79.53
341.066	63.15
341.278	132.78
341.491	200.36
341.703	89.77
341.915	-69.97
342.128	122.54
342.34	59.05
342.552	-2.39
342.764	89.77
342.977	44.71
343.189	57
343.401	57
343.613	-115.03
343.826	36.52
344.038	3.75
344.25	100.01
344.462	-39.25
344.674	114.34
344.886	34.47
345.099	106.15
345.311	48.81
345.523	13.99
345.735	-90.45
345.947	57
346.159	104.11
346.371	81.58
346.583	36.52
346.795	177.83
347.007	28.33
347.219	24.23
347.431	52.91
347.643	63.15
347.855	-0.34
348.067	143.02
348.279	-45.4
348.491	28.33
348.703	95.91
348.915	22.19
349.127	16.04
349.339	-14.68
349.551	18.09
349.763	122.54
349.975	97.96
350.187	120.49
350.399	77.48
350.61	52.91
350.822	13.99
351.034	-29.01
351.246	77.48
351.458	75.43
351.669	44.71
351.881	126.63
352.093	110.25
352.305	163.5
352.517	77.48
352.728	159.4
352.94	30.38
353.152	93.87
353.363	-29.01
353.575	-22.87
353.787	153.26
353.999	24.23
354.21	171.69
354.422	61.1
354.633	48.81
354.845	42.67
355.057	-18.77
355.268	61.1
355.48	108.2
355.692	32.43
355.903	11.95
356.115	22.19
356.326	-47.44
356.538	122.54
356.749	100.01
356.961	118.44
357.172	67.24
357.384	-57.68
357.595	263.85
357.807	-24.92
358.018	-4.44
358.23	44.71
358.441	85.67
358.653	157.35
358.864	3.75
359.075	18.09
359.287	77.48
359.498	116.39
359.709	54.95
359.921	11.95
360.132	54.95
360.344	79.53
360.555	52.91
360.766	42.67
360.977	32.43
361.189	63.15
361.4	-82.26
361.611	71.34
361.823	143.02
362.034	5.8
362.245	-29.01
362.456	95.91
362.667	100.01
362.879	-125.27
363.09	16.04
363.301	89.77
363.512	93.87
363.723	61.1
363.935	69.29
364.146	40.62
364.357	5.8
364.568	97.96
364.779	-47.44
364.99	159.4
365.201	5.8
365.412	48.81
365.623	-43.35
365.834	77.48
366.045	91.82
366.256	132.78
366.467	28.33
366.678	-37.2
366.889	22.19
367.1	20.14
367.311	149.16
367.522	-24.92
367.733	48.81
367.944	81.58
368.155	1.71
368.366	-6.49
368.577	106.15
368.788	161.45
368.999	-82.26
369.209	116.39
369.42	204.46
369.631	239.27
369.842	61.1
370.053	24.23
370.264	143.02
370.474	-51.54
370.685	40.62
370.896	77.48
371.107	93.87
371.317	63.15
371.528	7.85
371.739	69.29
371.95	61.1
372.16	61.1
372.371	-35.16
372.582	30.38
372.792	36.52
373.003	26.28
373.214	26.28
373.424	9.9
373.635	-18.77
373.846	67.24
374.056	69.29
374.267	63.15
374.477	54.95
374.688	-6.49
374.898	95.91
375.109	93.87
375.319	89.77
375.53	73.39
375.74	50.86
375.951	-12.63
376.161	44.71
376.372	122.54
376.582	36.52
376.793	75.43
377.003	-69.97
377.214	61.1
377.424	75.43
377.635	20.14
377.845	-0.34
378.055	122.54
378.266	-51.54
378.476	-14.68
378.686	140.97
378.897	89.77
379.107	136.87
379.317	81.58
379.528	63.15
379.738	110.25
379.948	18.09
380.158	149.16
380.369	-0.34
380.579	104.11
380.789	93.87
380.999	110.25
381.21	132.78
381.42	169.64
381.63	42.67
381.84	87.72
382.05	179.88
382.261	100.01
382.471	81.58
382.681	-2.39
382.891	173.74
383.101	83.63
383.311	-61.78
383.521	16.04
383.731	114.34
383.941	46.76
384.151	52.91
384.361	136.87
384.571	22.19
384.781	100.01
384.991	163.5
385.201	140.97
385.411	67.24
385.621	44.71
385.831	87.72
386.041	73.39
386.251	18.09
386.461	122.54
386.671	1.71
386.881	143.02
387.091	13.99
387.301	89.77
387.511	28.33
387.72	30.38
387.93	59.05
388.14	-26.96
388.35	73.39
388.56	136.87
388.769	151.21
388.979	54.95
389.189	7.85
389.399	61.1
389.609	42.67
389.818	61.1
390.028	42.67
390.238	102.06
390.447	7.85
390.657	57
390.867	30.38
391.076	-90.45
391.286	28.33
391.496	5.8
391.705	-24.92
391.915	179.88
392.125	77.48
392.334	20.14
392.544	138.92
392.753	75.43
392.963	1.71
393.172	7.85
393.382	7.85
393.591	143.02
393.801	54.95
394.01	190.12
394.22	50.86
394.429	169.64
394.639	97.96
394.848	30.38
395.058	42.67
395.267	22.19
395.477	22.19
395.686	40.62
395.895	280.23
396.105	216.74
396.314	85.67
396.524	52.91
396.733	-16.73
396.942	192.17
397.152	126.63
397.361	85.67
397.57	81.58
397.78	22.19
397.989	97.96
398.198	171.69
398.407	71.34
398.617	-8.53
398.826	75.43
399.035	16.04
399.244	97.96
399.453	38.57
399.663	83.63
399.872	85.67
400.081	7.85
400.29	100.01
400.499	-18.77
400.708	69.29
400.917	36.52
401.127	7.85
401.336	-47.44
401.545	261.8
401.754	100.01
401.963	110.25
402.172	30.38
402.381	-16.73
402.59	9.9
402.799	-0.34
403.008	44.71
403.217	124.58
403.426	69.29
403.635	-129.36
403.844	44.71
404.053	-31.06
404.262	-24.92
404.471	194.22
404.68	59.05
404.888	-2.39
405.097	77.48
405.306	46.76
405.515	75.43
405.724	59.05
405.933	122.54
406.142	9.9
406.35	63.15
406.559	32.43
406.768	124.58
406.977	210.6
407.185	57
407.394	114.34
407.603	-41.3
407.812	91.82
408.02	161.45
408.229	32.43
408.438	83.63
408.646	-49.49
408.855	-45.4
409.064	83.63
409.272	67.24
409.481	93.87
409.69	-51.54
409.898	-18.77
410.107	118.44
410.315	196.26
410.524	48.81
410.733	46.76
410.941	69.29
411.15	138.92
411.358	181.93
411.567	151.21
411.775	36.52
411.984	118.44
412.192	134.82
412.401	1.71
412.609	118.44
412.818	89.77
413.026	153.26
413.234	3.75
413.443	128.68
413.651	13.99
413.86	77.48
414.068	181.93
414.276	200.36
414.485	18.09
414.693	267.94
414.901	173.74
415.11	85.67
415.318	32.43
415.526	44.71
415.734	102.06
415.943	102.06
416.151	130.73
416.359	93.87
416.567	79.53
416.776	95.91
416.984	28.33
417.192	122.54
417.4	40.62
417.608	71.34
417.817	-20.82
418.025	59.05
418.233	208.55
418.441	-100.69
418.649	48.81
418.857	83.63
419.065	95.91
419.273	22.19
419.481	57
419.689	13.99
419.897	-53.59
420.105	-22.87
420.313	106.15
420.521	165.54
420.729	50.86
420.937	5.8
421.145	-45.4
421.353	48.81
421.561	171.69
421.769	120.49
421.977	-6.49
422.185	116.39
422.393	69.29
422.601	91.82
422.809	79.53
423.017	91.82
423.224	59.05
423.432	48.81
423.64	30.38
423.848	118.44
424.056	40.62
424.263	159.4
424.471	67.24
424.679	210.6
424.887	1.71
425.094	159.4
425.302	63.15
425.51	5.8
425.718	104.11
425.925	93.87
426.133	28.33
426.341	167.59
426.548	122.54
426.756	50.86
426.964	120.49
427.171	59.05
427.379	91.82
427.586	65.19
427.794	188.07
428.001	16.04
428.209	106.15
428.417	175.78
428.624	169.64
428.832	63.15
429.039	130.73
429.247	188.07
429.454	52.91
429.662	169.64
429.869	145.06
430.076	134.82
430.284	222.89
430.491	118.44
430.699	161.45
430.906	251.56
431.114	65.19
431.321	167.59
431.528	73.39
431.736	204.46
431.943	167.59
432.15	183.98
432.358	245.41
432.565	286.37
432.772	50.86
432.979	216.74
433.187	126.63
433.394	159.4
433.601	65.19
433.808	245.41
434.016	286.37
434.223	243.37
434.43	155.3
434.637	224.94
434.844	188.07
435.052	212.65
435.259	245.41
435.466	247.46
435.673	132.78
435.88	272.04
436.087	274.09
436.294	190.12
436.501	222.89
436.708	255.65
436.915	396.96
437.122	292.52
437.329	282.28
437.537	220.84
437.743	257.7
437.95	415.4
438.157	347.81
438.364	380.58
438.571	380.58
438.778	386.72
438.985	419.49
439.192	454.31
439.399	411.3
439.606	442.02
439.813	509.6
440.02	493.22
440.227	620.19
440.433	513.7
440.64	470.69
440.847	452.26
441.054	603.81
441.261	695.97
441.467	562.85
441.674	536.23
441.881	747.17
442.088	583.33
442.294	644.77
442.501	689.82
442.708	669.34
442.914	720.54
443.121	777.89
443.328	824.99
443.534	841.37
443.741	767.65
443.948	792.22
444.154	1040.03
444.361	1111.71
444.568	949.92
444.774	925.34
444.981	980.64
445.187	1148.57
445.394	1080.99
445.6	1060.51
445.807	1193.62
446.013	1160.86
446.22	1205.91
446.426	1253.02
446.633	1341.08
446.839	1568.4
447.046	1359.51
447.252	1484.44
447.459	1423
447.665	1519.25
447.871	1625.75
448.078	1760.91
448.284	1621.65
448.491	1883.79
448.697	1990.28
448.903	2049.68
449.11	2096.78
449.316	1914.51
449.522	2199.18
449.728	2285.19
449.935	2268.81
450.141	2393.73
450.347	2592.39
450.553	2338.44
450.76	2541.19
450.966	2725.51
451.172	2774.66
451.378	2780.8
451.584	2956.93
451.791	3171.96
451.997	3286.65
452.203	3235.45
452.409	3556.98
452.615	3528.31
452.821	3387
453.027	3606.13
453.233	3970.67
453.44	3759.73
453.646	4079.21
453.852	4310.63
454.058	4263.53
454.264	4597.35
454.47	4771.43
454.676	4871.78
454.882	5240.41
455.088	5080.67
455.294	5414.49
455.5	5838.42
455.705	5891.66
455.911	5983.82
456.117	6123.09
456.323	6344.27
456.529	6295.11
456.735	6923.84
456.941	7298.62
457.147	7370.3
457.352	7638.58
457.558	7820.85
457.764	8537.64
457.97	8744.49
458.176	8793.64
458.381	9260.57
458.587	9518.62
458.793	10028.56
458.999	9903.64
459.204	11062.79
459.41	11755
459.616	11517.43
459.821	12162.55
460.027	12355.05
460.233	13110.75
460.438	13229.54
460.644	13970.9
460.85	14253.52
461.055	14507.47
461.261	15463.87
461.466	14966.21
461.672	15236.55
461.878	17233.32
462.083	17147.3
462.289	17264.04
462.494	18079.13
462.7	18167.19
462.905	18382.23
463.111	19981.69
463.316	20882.8
463.522	20950.38
463.727	21734.75
463.932	22377.81
464.138	23639.36
464.343	24495.41
464.549	25206.06
464.754	26338.58
464.959	27102.48
465.165	27761.92
465.37	27372.81
465.575	27305.23
465.781	29125.87
465.986	29834.47
466.191	29652.2
466.397	30102.75
466.602	29451.5
466.807	30645.46
467.012	31540.43
467.218	32015.55
467.423	32107.71
467.628	32728.25
467.833	34391.2
468.038	33975.46
468.244	33328.3
468.449	35296.4
468.654	34499.74
468.859	34499.74
469.064	34337.95
469.269	33922.21
469.474	34043.04
469.679	34864.28
469.885	34038.95
470.09	34632.86
470.295	34550.94
470.5	33801.38
470.705	33832.1
470.91	32838.84
471.115	32715.96
471.32	33535.15
471.525	33010.87
471.73	32177.34
471.935	31784.13
472.139	30653.65
472.344	31081.68
472.549	30661.85
472.754	29664.49
472.959	29336.81
473.164	28419.32
473.369	28183.8
473.574	28767.48
473.778	28036.35
473.983	27659.52
474.188	27393.29
474.393	25881.89
474.598	25939.23
474.802	25212.2
475.007	24929.58
475.212	24798.51
475.417	23792.96
475.621	23602.5
475.826	23567.68
476.031	22512.98
476.235	22201.69
476.44	22521.17
476.645	21720.42
476.849	21667.17
477.054	21284.2
477.259	20761.97
477.463	20630.9
477.668	20264.31
477.872	20471.15
478.077	19631.49
478.282	18990.47
478.486	18933.13
478.691	18623.89
478.895	18883.98
479.1	18335.12
479.304	18113.94
479.509	17782.17
479.713	17880.47
479.918	17548.7
480.122	16989.61
480.326	17415.58
480.531	17208.74
480.735	16973.22
480.94	16588.21
481.144	17077.67
481.348	16240.05
481.553	16661.93
481.757	16072.12
481.961	16147.89
482.166	16203.19
482.37	15994.29
482.574	15457.73
482.778	15726.01
482.983	15979.96
483.187	15537.6
483.391	15410.62
483.595	15304.13
483.8	15162.82
484.004	15019.46
484.208	15054.28
484.412	14849.48
484.616	14726.6
484.821	14599.63
485.025	14181.84
485.229	14288.34
485.433	13944.28
485.637	13798.87
485.841	13583.84
486.045	13432.29
486.249	13239.78
486.453	12946.92
486.657	12971.49
486.861	12862.95
487.065	12336.62
487.269	12557.8
487.473	11935.22
487.677	12252.66
487.881	12191.22
488.085	11666.94
488.289	11372.03
488.493	11032.07
488.697	11169.28
488.901	10890.76
489.105	10638.86
489.309	10620.42
489.512	10487.31
489.716	10259.98
489.92	10024.47
490.124	9858.58
490.328	9907.73
490.531	9365.02
490.735	9522.71
490.939	9274.91
491.143	8871.46
491.346	8951.33
491.55	9020.96
491.754	8683.05
491.958	8521.26
492.161	8291.88
492.365	8474.15
492.569	8121.9
492.772	7843.38
492.976	8201.77
493.18	7601.72
493.383	7751.22
493.587	7671.35
493.79	7683.64
493.994	7575.1
494.197	7368.25
494.401	7405.11
494.605	7118.4
494.808	7327.29
495.012	7151.17
495.215	7353.91
495.419	7142.97
495.622	7026.24
495.825	6932.03
496.029	6905.41
496.232	7046.72
496.436	6958.66
496.639	7040.58
496.843	6985.28
497.046	6876.74
497.249	7128.64
497.453	6929.98
497.656	7009.86
497.859	6962.75
498.063	7044.67
498.266	7061.05
498.469	7001.66
498.673	6960.7
498.876	7122.49
499.079	7163.45
499.282	7097.92
499.485	7339.58
499.689	7118.4
499.892	7398.97
500.095	7124.54
500.298	7450.17
500.501	7095.87
500.705	7538.23
500.908	7411.26
501.111	7618.1
501.314	7636.53
501.517	7638.58
501.72	8052.27
501.923	7790.13
502.126	8064.56
502.329	8388.14
502.532	8353.32
502.735	8422.95
502.938	8541.74
503.141	8355.37
503.344	8431.15
503.547	8875.56
503.75	8705.57
503.953	8881.7
504.156	9025.06
504.359	9131.55
504.562	9123.36
504.765	9592.34
504.968	9608.73
505.17	9881.11
505.373	9868.82
505.576	10341.9
505.779	10374.67
505.982	10423.82
506.185	10579.47
506.387	10696.2
506.59	11044.35
506.793	11054.59
506.996	11144.7
507.198	11916.79
507.401	11845.11
507.604	11959.8
507.807	12357.1
508.009	12441.07
508.212	12858.85
508.415	12977.64
508.617	13471.2
508.82	13524.44
509.022	13690.33
509.225	14063.06
509.428	14097.88
509.63	14661.07
509.833	14587.34
510.035	15459.77
510.238	15556.03
510.44	15936.95
510.643	16567.73
510.845	16917.93
511.048	17049
511.25	17270.18
511.453	17831.32
511.655	18646.41
511.858	18681.23
512.06	18992.52
512.262	19520.9
512.465	19686.78
512.667	20424.05
512.87	20850.03
513.072	21020.01
513.274	21677.41
513.477	22091.1
513.679	22945.1
513.881	23391.56
514.084	23565.64
514.286	24141.11
514.488	24806.7
514.69	25308.46
514.893	25896.22
515.095	26027.29
515.297	27215.12
515.499	27311.37
515.701	28089.6
515.904	28744.95
516.106	29474.02
516.308	29719.78
516.51	30766.29
516.712	30901.46
516.914	31521.99
517.116	32316.61
517.318	32793.78
517.52	33082.55
517.722	33727.66
517.925	34634.91
518.127	35370.13
518.329	35957.89
518.531	35767.43
518.733	37135.48
518.935	37672.04
519.136	37827.69
519.338	38888.54
519.54	38982.74
519.742	39861.32
519.944	40191.05
520.146	41118.78
520.348	41434.16
520.55	42099.75
520.752	42359.84
520.954	43432.98
521.155	43404.31
521.357	43693.07
521.559	44696.58
521.761	45487.09
521.963	45501.43
522.164	45857.77
522.366	46029.8
522.568	47023.07
522.77	46998.49
522.971	47965.13
523.173	47743.95
523.375	47653.84
523.576	48135.12
523.778	47864.78
523.98	48968.64
524.181	49087.42
524.383	48769.99
524.584	49367.99
524.786	49421.24
524.988	49392.57
525.189	50103.21
525.391	50006.96
525.592	49894.32
525.794	50174.89
525.995	49761.2
526.197	49572.79
526.398	49980.34
526.6	49877.94
526.801	49454.01
527.003	49746.87
527.204	49286.07
527.406	49546.17
527.607	49142.72
527.808	48722.88
528.01	47881.17
528.211	48313.29
528.412	48907.2
528.614	48231.37
528.815	47393.75
529.016	47629.27
529.218	46918.62
529.419	47211.48
529.62	46255.08
529.822	45906.93
530.023	45665.27
530.224	45360.12
530.425	44784.64
530.626	43811.85
530.828	43129.88
531.029	43830.29
531.23	42943.52
531.431	42380.32
531.632	42183.72
531.833	41692.21
532.035	41342
532.236	40887.35
532.437	40580.16
532.638	39083.09
532.839	39466.06
533.04	38972.5
533.241	38265.95
533.442	38530.14
533.643	37610.6
533.844	36902.01
534.045	36256.9
534.246	35740.81
534.447	35542.16
534.648	35165.33
534.849	34622.62
535.05	33928.36
535.251	33717.42
535.451	33039.54
535.652	32828.6
535.853	32238.78
536.054	31909.06
536.255	31700.17
536.456	30733.53
536.657	30821.59
536.857	29799.65
537.058	30088.42
537.259	29869.28
537.46	28910.83
537.66	28714.23
537.861	28404.99
538.062	27798.79
538.263	27596.04
538.463	27143.44
538.664	27172.11
538.865	26467.61
539.065	26350.87
539.266	25369.9
539.466	25609.51
539.667	25476.39
539.868	25376.04
540.068	24528.18
540.269	24386.87
540.469	24335.67
540.67	23811.39
540.87	23776.58
541.071	23184.71
541.271	23053.64
541.472	22887.76
541.672	22361.43
541.873	22134.1
542.073	21802.33
542.274	21945.69
542.474	21425.51
542.675	21179.75
542.875	21022.06
543.075	20661.62
543.276	20413.81
543.476	20620.66
543.676	20069.75
543.877	19885.44
544.077	19719.55
544.277	19625.34
544.478	19187.08
544.678	19137.93
544.878	18896.27
545.078	18607.5
545.279	18279.83
545.479	17937.82
545.679	17923.48
545.879	17894.81
546.079	17395.11
546.28	17423.78
546.48	17049
546.68	17100.2
546.88	16956.84
547.08	16661.93
547.28	16434.61
547.48	16354.74
547.68	16215.48
547.88	15836.6
548.081	15990.2
548.281	15244.74
548.481	15269.31
548.681	15105.48
548.881	15058.37
549.081	14900.68
549.28	14425.55
549.48	14474.7
549.68	14185.94
549.88	13950.42
550.08	13557.21
550.28	13485.53
550.48	13473.25
550.68	13491.68
550.88	12893.67
551.08	12717.54
551.279	12836.33
551.479	12326.38
551.679	12375.53
551.879	12115.44
552.079	12148.21
552.278	11957.75
552.478	11828.73
552.678	11470.33
552.878	11329.02
553.077	11050.5
553.277	10919.43
553.477	10884.61
553.676	10538.51
553.876	10464.78
554.076	10243.6
554.275	10155.54
554.475	10059.28
554.674	9731.61
554.874	9635.35
555.074	9297.44
555.273	9475.61
555.473	9049.63
555.672	9078.3
555.872	8840.74
556.071	8953.38
556.271	8775.2
556.47	8504.87
556.67	8281.64
556.869	8371.75
557.068	8252.97
557.268	7966.26
557.467	7872.05
557.667	7822.9
557.866	7577.14
558.065	7566.9
558.265	7372.35
558.464	7171.65
558.663	7040.58
558.863	6833.73
559.062	7085.63
559.261	6624.84
559.461	6866.5
559.66	6405.7
559.859	6415.94
560.058	6309.45
560.258	6301.26
560.457	6270.54
560.656	6262.35
560.855	5826.13
561.054	5951.06
561.253	5979.73
561.453	5807.7
561.652	5723.73
561.851	5604.95
562.05	5414.49
562.249	5246.55
562.448	5412.44
562.647	5158.49
562.846	5156.44
563.045	5185.12
563.244	4992.61
563.443	5054.05
563.642	4861.54
563.841	4789.86
564.04	4677.22
564.239	4623.97
564.438	4472.42
564.637	4466.28
564.836	4417.13
565.035	4413.03
565.234	4384.36
565.432	4273.77
565.631	4249.19
565.83	4220.52
566.029	4038.25
566.228	4122.22
566.427	4052.59
566.625	3845.74
566.824	3866.22
567.023	3870.32
567.222	3747.44
567.42	3692.15
567.619	3681.91
567.818	3618.42
568.016	3724.91
568.215	3552.88
568.414	3589.75
568.612	3423.86
568.811	3294.84
569.01	3356.28
569.208	3124.86
569.407	3253.88
569.605	3088
569.804	3165.82
570.002	3124.86
570.201	2834.05
570.4	3040.89
570.598	3020.41
570.797	2928.25
570.995	2813.57
571.193	2881.15
571.392	2748.03
571.59	2576
571.789	2731.65
571.987	2653.83
572.186	2555.52
572.384	2565.76
572.582	2621.06
572.781	2633.35
572.979	2291.34
573.177	2416.26
573.376	2399.88
573.574	2293.38
573.772	2326.15
573.971	2283.14
574.169	2180.75
574.367	2135.69
574.565	2113.16
574.763	2158.22
574.962	2053.77
575.16	2094.73
575.358	1916.56
575.556	1978
575.754	2080.39
575.952	1957.52
576.151	1947.28
576.349	1918.61
576.547	1840.78
576.745	1830.54
576.943	1816.21
577.141	1805.97
577.339	1605.27
577.537	1699.47
577.735	1775.25
577.933	1748.62
578.131	1597.07
578.329	1607.31
578.527	1586.83
578.725	1633.94
578.923	1445.52
579.121	1590.93
579.319	1410.71
579.516	1502.87
579.714	1719.95
579.912	1554.07
580.11	1263.26
580.308	1416.85
580.506	1357.46
580.704	1222.3
580.901	1273.5
581.099	1371.8
581.297	1269.4
581.495	1343.13
581.692	1306.26
581.89	1433.24
582.088	1289.88
582.285	1191.58
582.483	1136.28
582.681	1183.38
582.878	1169.05
583.076	1218.2
583.274	1144.47
583.471	1244.82
583.669	1199.77
583.866	982.68
584.064	1033.88
584.262	1023.64
584.459	927.39
584.657	1013.4
584.854	1009.31
585.052	951.96
585.249	1035.93
585.447	999.07
585.644	743.07
585.841	1007.26
586.039	937.63
586.236	1005.21
586.434	874.14
586.631	841.37
586.828	779.93
587.026	968.35
587.223	769.69
587.42	790.17
587.618	855.71
587.815	874.14
588.012	898.72
588.21	810.65
588.407	841.37
588.604	818.85
588.801	712.35
588.999	747.17
589.196	847.52
589.393	677.54
589.59	761.5
589.787	720.54
589.984	804.51
590.182	738.98
590.379	661.15
590.576	728.74
590.773	751.26
590.97	736.93
591.167	710.3
591.364	685.73
591.561	681.63
591.758	747.17
591.955	726.69
592.152	757.41
592.349	663.2
592.546	622.24
592.743	634.53
592.94	624.29
593.137	667.3
593.334	745.12
593.531	681.63
593.727	661.15
593.924	702.11
594.121	765.6
594.318	661.15
594.515	642.72
594.712	765.6
594.908	806.56
595.105	624.29
595.302	736.93
595.499	734.88
595.696	853.66
595.892	702.11
596.089	824.99
596.286	710.3
596.482	919.2
596.679	863.9
596.876	806.56
597.072	865.95
597.269	800.41
597.466	827.04
597.662	878.24
597.859	837.28
598.055	898.72
598.252	1064.6
598.448	1037.98
598.645	1031.83
598.841	1066.65
599.038	1228.44
599.234	1234.58
599.431	1214.1
599.627	1257.11
599.824	1293.97
600.02	1240.73
600.217	1291.93
600.413	1453.72
600.609	1404.57
600.806	1732.24
601.002	1492.63
601.198	1580.69
601.395	1728.14
601.591	1818.25
601.787	1904.27
601.984	1853.07
602.18	1998.48
602.376	1943.18
602.572	2176.65
602.769	2193.03
602.965	2133.64
603.161	2262.66
603.357	2451.08
603.553	2592.39
603.75	2524.8
603.946	2684.55
604.142	2803.33
604.338	2977.41
604.534	2926.21
604.73	2989.69
604.926	3061.37
605.122	3237.5
605.318	3362.42
605.514	3548.79
605.71	3425.91
605.906	3757.68
606.102	3536.5
606.298	3968.62
606.494	4003.44
606.69	4269.67
606.886	4177.51
607.082	4288.11
607.278	4413.03
607.474	4662.88
607.67	4789.86
607.866	4578.92
608.062	4746.85
608.257	5101.15
608.453	5211.74
608.649	5383.77
608.845	5334.62
609.041	5445.21
609.236	5867.09
609.432	5989.97
609.628	6213.2
609.824	6305.35
610.019	6297.16
610.215	6477.38
610.411	6680.13
610.606	7194.17
610.802	6938.18
610.998	7351.87
611.193	7491.13
611.389	7546.42
611.584	7915.06
611.78	8212.01
611.976	8195.63
612.171	8607.27
612.367	8617.51
612.562	8918.56
612.758	8945.19
612.953	9283.1
613.149	9838.1
613.344	9842.2
613.539	10288.65
613.735	10278.41
613.93	10769.93
614.126	10706.44
614.321	11359.74
614.517	11513.34
614.712	11836.92
614.907	12240.37
615.103	12615.15
615.298	12547.56
615.493	13030.88
615.688	13247.97
615.884	13827.54
616.079	13817.3
616.274	14427.6
616.47	14742.99
616.665	14912.97
616.86	15500.73
617.055	15965.62
617.25	15988.15
617.445	16582.06
617.641	16580.01
617.836	17669.53
618.031	17696.16
618.226	18584.98
618.421	18894.22
618.616	19000.71
618.811	19367.3
619.006	20241.78
619.201	20157.82
619.396	21052.78
619.591	21192.04
619.786	21773.66
619.981	22052.19
620.176	22510.93
620.371	22775.12
620.566	23711.04
620.761	24450.36
620.956	24644.91
621.151	24800.56
621.346	25781.54
621.541	25756.96
621.735	26498.33
621.93	26428.7
622.125	27661.57
622.32	27366.67
622.515	28259.58
622.709	28959.98
622.904	29402.35
623.099	29637.86
623.294	30561.5
623.488	30819.54
623.683	31540.43
623.878	31683.78
624.072	32507.07
624.267	33316.01
624.462	33221.81
624.656	33901.73
624.851	34591.9
625.046	34700.44
625.24	35140.75
625.435	35736.71
625.629	36414.59
625.824	36775.03
626.018	37491.82
626.213	37262.45
626.407	37946.47
626.602	37870.7
626.796	39255.12
626.991	39513.17
627.185	39545.94
627.38	39634
627.574	40121.41
627.768	40119.37
627.963	40240.2
628.157	40162.37
628.352	40950.84
628.546	40373.31
628.74	41280.56
628.935	40522.82
629.129	40836.16
629.323	40420.42
629.517	40408.13
629.712	39846.99
629.906	39982.15
630.1	39466.06
630.294	39089.24
630.489	38610.01
630.683	38308.96
630.877	37201.01
631.071	36938.87
631.265	36924.54
631.459	36066.44
631.653	34817.18
631.848	34587.8
632.042	33557.67
632.236	32980.15
632.43	31937.73
632.624	31173.84
632.818	30065.89
633.012	29158.64
633.206	28421.37
633.4	27344.14
633.594	26434.84
633.788	25861.41
633.982	25261.35
634.176	24227.13
634.369	23137.61
634.563	22261.08
634.757	21204.33
634.951	20649.33
635.145	19926.39
635.339	19113.35
635.533	18294.16
635.726	17683.87
635.92	16719.28
636.114	16268.72
636.308	15472.06
636.501	14792.14
636.695	14360.02
636.889	13643.23
637.083	13227.49
637.276	12656.11
637.47	11937.27
637.664	11869.69
637.857	11353.6
638.051	10710.54
638.244	10302.99
638.438	9981.46
638.632	9739.8
638.825	9049.63
639.019	8883.75
639.212	8412.71
639.406	7964.21
639.599	7706.17
639.793	7409.21
639.986	7206.46
640.18	7018.05
640.373	6639.17
640.567	6381.13
640.76	6233.68
640.954	5832.27
641.147	5568.09
641.34	5375.58
641.534	5150.3
641.727	5133.92
641.92	4791.91
642.114	4607.59
642.307	4456.04
642.5	4343.4
642.694	4152.94
642.887	3972.72
643.08	3985.01
643.273	3819.12
643.467	3528.31
643.66	3296.89
643.853	3212.92
644.046	3155.58
644.239	2997.88
644.432	2971.26
644.626	2717.31
644.819	2799.23
645.012	2643.59
645.205	2489.99
645.398	2571.91
645.591	2274.95
645.784	2162.31
645.977	2000.52
646.17	2143.88
646.363	2010.76
646.556	1844.88
646.749	1902.22
646.942	1687.18
647.135	1822.35
647.328	1572.5
647.521	1683.09
647.714	1570.45
647.907	1472.15
648.099	1459.86
648.292	1343.13
648.485	1330.84
648.678	1289.88
648.871	1238.68
649.064	1201.82
649.256	1058.46
649.449	1138.33
649.642	992.92
649.835	939.68
650.027	929.44
650.22	1044.12
650.413	939.68
650.605	880.29
650.798	784.03
650.991	806.56
651.183	806.56
651.376	841.37
651.568	667.3
651.761	775.84
651.954	743.07
652.146	695.97
652.339	704.16
652.531	698.02
652.724	558.75
652.916	523.94
653.109	435.88
653.301	736.93
653.494	593.57
653.686	489.12
653.879	581.28
654.071	540.32
654.263	497.32
654.456	515.75
654.648	554.66
654.84	575.14
655.033	358.05
655.225	507.55
655.417	319.14
655.61	497.32
655.802	409.25
655.994	464.55
656.186	304.81
656.379	448.16
656.571	386.72
656.763	343.72
656.955	300.71
657.148	329.38
657.34	433.83
657.532	272.04
657.724	319.14
657.916	333.48
658.108	358.05
658.3	319.14
658.492	372.39
658.684	229.03
658.876	261.8
659.068	194.22
659.26	192.17
659.452	257.7
659.644	296.61
659.836	331.43
660.028	345.77
660.22	204.46
660.412	231.08
660.604	214.7
660.796	284.33
660.988	313
661.18	224.94
661.372	345.77
661.563	220.84
661.755	241.32
661.947	222.89
662.139	136.87
662.331	229.03
662.522	212.65
662.714	198.31
662.906	186.02
663.097	255.65
663.289	216.74
663.481	102.06
663.673	231.08
663.864	149.16
664.056	231.08
664.247	57
664.439	257.7
664.631	132.78
664.822	235.18
665.014	181.93
665.205	151.21
665.397	114.34
665.588	145.06
665.78	192.17
665.971	259.75
666.163	186.02
666.354	257.7
666.546	138.92
666.737	173.74
666.929	138.92
667.12	110.25
667.311	190.12
667.503	124.58
667.694	233.13
667.885	188.07
668.077	253.61
668.268	52.91
668.459	89.77
668.651	198.31
668.842	134.82
669.033	120.49
669.224	112.3
669.416	313
669.607	128.68
669.798	75.43
669.989	333.48
670.18	126.63
670.371	194.22
670.563	79.53
670.754	206.5
670.945	165.54
671.136	181.93
671.327	147.11
671.518	276.13
671.709	261.8
671.9	222.89
672.091	292.52
672.282	220.84
672.473	132.78
672.664	120.49
672.855	122.54
673.046	220.84
673.237	202.41
673.428	138.92
673.619	210.6
673.809	151.21
674	261.8
674.191	192.17
674.382	202.41
674.573	231.08
674.764	147.11
674.954	186.02
675.145	114.34
675.336	126.63
675.527	122.54
675.717	69.29
675.908	143.02
676.099	69.29
676.289	210.6
676.48	59.05
676.671	253.61
676.861	140.97
677.052	220.84
677.243	159.4
677.433	102.06
677.624	286.37
677.814	206.5
678.005	265.89
678.195	286.37
678.386	132.78
678.576	216.74
678.767	85.67
678.957	165.54
679.148	313
679.338	296.61
679.529	214.7
679.719	169.64
679.909	267.94
680.1	304.81
680.29	247.46
680.481	173.74
680.671	331.43
680.861	259.75
681.052	247.46
681.242	171.69
681.432	237.22
681.622	194.22
681.813	231.08
682.003	212.65
682.193	161.45
682.383	282.28
682.573	235.18
682.764	222.89
682.954	243.37
683.144	325.29
683.334	177.83
683.524	294.57
683.714	274.09
683.904	231.08
684.094	171.69
684.284	255.65
684.474	237.22
684.664	329.38
684.854	241.32
685.044	198.31
685.234	253.61
685.424	235.18
685.614	247.46
685.804	321.19
685.994	274.09
686.184	253.61
686.374	292.52
686.564	255.65
686.753	251.56
686.943	212.65
687.133	212.65
687.323	267.94
687.513	304.81
687.702	212.65
687.892	267.94
688.082	323.24
688.272	276.13
688.461	269.99
688.651	351.91
688.841	280.23
689.03	296.61
689.22	272.04
689.41	372.39
689.599	339.62
689.789	122.54
689.979	317.09
690.168	190.12
690.358	216.74
690.547	255.65
690.737	278.18
690.926	214.7
691.116	319.14
691.305	331.43
691.495	364.2
691.684	216.74
691.874	218.79
692.063	286.37
692.252	216.74
692.442	214.7
692.631	253.61
692.82	173.74
693.01	241.32
693.199	265.89
693.388	257.7
693.578	212.65
693.767	216.74
693.956	325.29
694.146	186.02
694.335	224.94
694.524	261.8
694.713	249.51
694.902	257.7
695.092	210.6
695.281	358.05
695.47	276.13
695.659	218.79
695.848	269.99
696.037	188.07
696.226	356.01
696.415	175.78
696.604	343.72
696.793	308.9
696.982	183.98
697.171	349.86
697.36	143.02
697.549	140.97
697.738	87.72
697.927	159.4
698.116	108.2
698.305	231.08
698.494	200.36
698.683	155.3
698.872	298.66
699.061	208.55
699.25	192.17
699.438	183.98
699.627	226.98
699.816	364.2
700.005	200.36
700.193	171.69
700.382	267.94
700.571	218.79
700.76	302.76
700.948	302.76
701.137	231.08
701.326	237.22
701.514	165.54
701.703	274.09
701.892	274.09
702.08	409.25
702.269	165.54
702.457	173.74
702.646	231.08
702.834	183.98
703.023	280.23
703.212	243.37
703.4	284.33
703.589	229.03
703.777	165.54
703.965	171.69
704.154	188.07
704.342	157.35
704.531	204.46
704.719	224.94
704.907	380.58
705.096	110.25
705.284	179.88
705.472	265.89
705.661	263.85
705.849	249.51
706.037	343.72
706.226	210.6
706.414	200.36
706.602	181.93
706.79	257.7
706.979	202.41
707.167	140.97
707.355	93.87
707.543	263.85
707.731	239.27
707.919	171.69
708.107	124.58
708.296	214.7
708.484	106.15
708.672	325.29
708.86	210.6
709.048	274.09
709.236	181.93
709.424	302.76
709.612	173.74
709.8	116.39
709.988	224.94
710.176	327.33
710.364	310.95
710.551	243.37
710.739	145.06
710.927	179.88
711.115	263.85
711.303	310.95
711.491	280.23
711.679	179.88
711.866	194.22
712.054	134.82
712.242	280.23
712.43	339.62
712.617	183.98
712.805	282.28
712.993	247.46
713.181	181.93
713.368	306.85
713.556	147.11
713.744	153.26
713.931	411.3
714.119	259.75
714.306	181.93
714.494	188.07
714.682	157.35
714.869	108.2
715.057	231.08
715.244	57
715.432	265.89
715.619	212.65
715.807	237.22
715.994	235.18
716.182	247.46
716.369	337.57
716.556	276.13
716.744	87.72
716.931	114.34
717.119	204.46
717.306	253.61
717.493	259.75
717.681	214.7
717.868	190.12
718.055	278.18
718.242	190.12
718.43	216.74
718.617	345.77
718.804	253.61
718.991	272.04
719.179	231.08
719.366	284.33
719.553	259.75
719.74	298.66
719.927	237.22
720.114	310.95
720.301	233.13
720.488	204.46
720.676	132.78
720.863	339.62
721.05	325.29
721.237	265.89
721.424	284.33
721.611	259.75
721.798	183.98
721.985	231.08
722.172	218.79
722.358	267.94
722.545	272.04
722.732	300.71
722.919	360.1
723.106	351.91
723.293	233.13
723.48	249.51
723.667	179.88
723.853	343.72
724.04	245.41
724.227	323.24
724.414	317.09
724.6	339.62
724.787	345.77
724.974	366.25
725.161	292.52
725.347	269.99
725.534	237.22
725.72	294.57
725.907	341.67
726.094	278.18
726.28	214.7
726.467	188.07
726.653	188.07
726.84	343.72
727.027	329.38
727.213	282.28
727.4	218.79
727.586	243.37
727.773	161.45
727.959	253.61
728.145	331.43
728.332	323.24
728.518	233.13
728.705	237.22
728.891	229.03
729.077	323.24
729.264	259.75
729.45	218.79
729.636	294.57
729.823	300.71
730.009	296.61
730.195	345.77
730.382	310.95
730.568	198.31
730.754	321.19
730.94	183.98
731.126	306.85
731.313	329.38
731.499	239.27
731.685	274.09
731.871	294.57
732.057	300.71
732.243	343.72
732.429	218.79
732.615	417.44
732.801	241.32
732.987	329.38
733.173	210.6
733.359	231.08
733.545	323.24
733.731	212.65
733.917	343.72
734.103	280.23
734.289	356.01
734.475	190.12
734.661	405.16
734.847	317.09
735.033	364.2
735.219	269.99
735.404	315.05
735.59	196.26
735.776	292.52
735.962	360.1
736.148	382.63
736.333	458.4
736.519	267.94
736.705	267.94
736.89	231.08
737.076	251.56
737.262	220.84
737.447	218.79
737.633	218.79
737.819	323.24
738.004	308.9
738.19	280.23
738.375	290.47
738.561	425.64
738.747	378.53
738.932	233.13
739.118	429.73
739.303	294.57
739.489	378.53
739.674	241.32
739.859	259.75
740.045	327.33
740.23	306.85
740.416	179.88
740.601	300.71
740.786	278.18
740.972	288.42
741.157	321.19
741.342	155.3
741.528	181.93
741.713	358.05
741.898	245.41
742.084	196.26
742.269	220.84
742.454	323.24
742.639	321.19
742.824	286.37
743.01	376.48
743.195	423.59
743.38	310.95
743.565	308.9
743.75	286.37
743.935	302.76
744.12	415.4
744.305	124.58
744.49	253.61
744.675	237.22
744.86	177.83
745.045	306.85
745.23	278.18
745.415	202.41
745.6	337.57
745.785	181.93
745.97	386.72
746.155	298.66
746.34	384.68
746.525	235.18
746.71	343.72
746.895	188.07
747.079	171.69
747.264	192.17
747.449	327.33
747.634	321.19
747.819	300.71
748.003	192.17
748.188	190.12
748.373	323.24
748.557	208.55
748.742	210.6
748.927	298.66
749.111	323.24
749.296	179.88
749.481	306.85
749.665	216.74
749.85	198.31
750.034	317.09
750.219	247.46
750.404	159.4
750.588	280.23
750.773	233.13
750.957	286.37
751.141	196.26
751.326	308.9
751.51	188.07
751.695	272.04
751.879	214.7
752.064	304.81
752.248	136.87
752.432	290.47
752.617	218.79
752.801	308.9
752.985	161.45
753.17	362.15
753.354	134.82
753.538	247.46
753.722	130.73
753.907	140.97
754.091	110.25
754.275	229.03
754.459	157.35
754.643	235.18
754.828	196.26
755.012	194.22
755.196	212.65
755.38	175.78
755.564	222.89
755.748	140.97
755.932	298.66
756.116	296.61
756.3	239.27
756.484	179.88
756.668	253.61
756.852	85.67
757.036	202.41
757.22	194.22
757.404	114.34
757.588	134.82
757.772	167.59
757.956	181.93
758.14	237.22
758.323	196.26
758.507	145.06
758.691	151.21
758.875	224.94
759.059	310.95
759.242	122.54
759.426	186.02
759.61	196.26
759.794	93.87
759.977	229.03
760.161	378.53
760.345	233.13
760.528	179.88
760.712	284.33
760.895	159.4
761.079	104.11
761.263	97.96
761.446	71.34
761.63	155.3
761.813	253.61
761.997	63.15
762.18	93.87
762.364	222.89
762.547	102.06
762.731	130.73
762.914	114.34
763.098	130.73
763.281	151.21
763.464	69.29
763.648	165.54
763.831	75.43
764.015	89.77
764.198	175.78
764.381	-8.53
764.564	132.78
764.748	102.06
764.931	116.39
765.114	120.49
765.297	153.26
765.481	61.1
765.664	128.68
765.847	87.72
766.03	159.4
766.213	24.23
766.397	93.87
766.58	5.8
766.763	179.88
766.946	108.2
767.129	77.48
767.312	93.87
767.495	114.34
767.678	128.68
767.861	54.95
768.044	87.72
768.227	106.15
768.41	140.97
768.593	100.01
768.776	106.15
768.959	59.05
769.142	192.17
769.324	63.15
769.507	40.62
769.69	93.87
769.873	110.25
770.056	239.27
770.239	65.19
770.421	114.34
770.604	132.78
770.787	24.23
770.97	85.67
771.152	81.58
771.335	112.3
771.518	42.67
771.7	161.45
771.883	210.6
772.066	85.67
772.248	138.92
772.431	138.92
772.613	42.67
772.796	30.38
772.978	192.17
773.161	272.04
773.343	-12.63
773.526	57
773.708	9.9
773.891	-74.07
774.073	147.11
774.256	61.1
774.438	220.84
774.621	9.9
774.803	153.26
774.985	26.28
775.168	138.92
775.35	-0.34
775.532	157.35
775.715	42.67
775.897	161.45
776.079	24.23
776.261	163.5
776.444	116.39
776.626	52.91
776.808	3.75
776.99	18.09
777.173	57
777.355	-12.63
777.537	69.29
777.719	120.49
777.901	132.78
778.083	1.71
778.265	-16.73
778.447	87.72
778.629	22.19
778.811	-45.4
778.993	44.71
779.175	140.97
779.357	61.1
779.539	108.2
779.721	46.76
779.903	65.19
780.085	-12.63
780.267	13.99
780.449	95.91
780.631	122.54
780.812	151.21
780.994	7.85
781.176	54.95
781.358	-0.34
781.54	44.71
781.721	161.45
781.903	57
782.085	28.33
782.267	165.54
782.448	5.8
782.63	5.8
782.812	102.06
782.993	57
783.175	128.68
783.357	42.67
783.538	65.19
783.72	-33.11
783.901	61.1
784.083	136.87
784.264	83.63
784.446	-53.59
784.627	-35.16
784.809	100.01
784.99	38.57
785.172	22.19
785.353	93.87
785.535	-8.53
785.716	48.81
785.897	18.09
786.079	-31.06
786.26	91.82
786.441	40.62
786.623	-6.49
786.804	-31.06
786.985	57
787.167	73.39
787.348	-24.92
787.529	-35.16
787.71	140.97
787.891	71.34
788.073	-2.39
788.254	28.33
788.435	100.01
788.616	18.09
788.797	-98.64
788.978	50.86
789.159	5.8
789.34	44.71
789.522	18.09
789.703	24.23
789.884	57
790.065	22.19
790.246	233.13
790.427	-6.49
790.607	194.22
790.788	48.81
790.969	-16.73
791.15	32.43
791.331	3.75
791.512	-18.77
791.693	-78.16
791.874	44.71
792.054	132.78
792.235	38.57
792.416	-37.2
792.597	-22.87
792.778	65.19
792.958	32.43
793.139	77.48
793.32	-14.68
793.5	-41.3
793.681	116.39
793.862	140.97
794.042	34.47
794.223	-92.5
794.404	-14.68
794.584	-84.31
794.765	-14.68
794.945	-6.49
795.126	79.53
795.306	147.11
795.487	34.47
795.667	65.19
795.848	83.63
796.028	26.28
796.209	52.91
796.389	48.81
796.57	75.43
796.75	-35.16
796.93	-12.63
797.111	-24.92
797.291	7.85
797.471	61.1
797.652	52.91
797.832	-47.44
798.012	22.19
798.192	9.9
798.373	-16.73
798.553	5.8
798.733	34.47
798.913	-0.34
799.093	42.67
799.274	24.23
799.454	114.34
799.634	118.44
799.814	106.15
799.994	73.39
800.174	26.28
800.354	-0.34
800.534	-63.83
800.714	-41.3
800.894	-86.36
801.074	-82.26
801.254	-6.49
801.434	77.48
801.614	71.34
801.794	-53.59
801.974	1898.13
802.154	-49.49
802.334	134.82
802.514	1.71
802.693	-53.59
802.873	7.85
803.053	91.82
803.233	83.63
803.413	-45.4
803.592	63.15
803.772	-10.58
803.952	81.58
804.131	-65.88
804.311	54.95
804.491	81.58
804.67	-69.97
804.85	-26.96
805.03	59.05
805.209	44.71
805.389	-41.3
805.568	-53.59
805.748	-16.73
805.928	18.09
806.107	18.09
806.287	79.53
806.466	87.72
806.646	-31.06
806.825	-22.87
807.004	-47.44
807.184	50.86
807.363	77.48
807.543	120.49
807.722	-49.49
807.901	97.96
808.081	75.43
808.26	-43.35
808.439	7.85
808.619	44.71
808.798	9.9
808.977	-61.78
809.156	65.19
809.336	9.9
809.515	108.2
809.694	-63.83
809.873	-26.96
810.052	40.62
810.231	52.91
810.411	-37.2
810.59	134.82
810.769	16.04
810.948	65.19
811.127	-123.22
811.306	-10.58
811.485	-41.3
811.664	112.3
811.843	54.95
812.022	-24.92
812.201	-6.49
812.38	-61.78
812.559	-49.49
812.737	-59.73
812.916	-29.01
813.095	-65.88
813.274	48.81
813.453	32.43
813.632	65.19
813.811	65.19
813.989	-90.45
814.168	52.91
814.347	-51.54
814.526	-4.44
814.704	143.02
814.883	138.92
815.062	-82.26
815.24	73.39
815.419	-6.49
815.598	1.71
815.776	-76.12
815.955	28.33
816.133	-110.93
816.312	11.95
816.49	-6.49
816.669	36.52
816.847	-74.07
817.026	75.43
817.204	-31.06
817.383	-29.01
817.561	-94.55
817.74	18.09
817.918	24.23
818.097	-18.77
818.275	40.62
818.453	108.2
818.632	-2.39
818.81	-72.02
818.988	67.24
819.167	24.23
819.345	32.43
819.523	-69.97
819.701	50.86
819.879	71.34
820.058	-10.58
820.236	-74.07
820.414	22.19
820.592	-69.97
820.77	-6.49
820.948	13.99
821.127	-29.01
821.305	59.05
821.483	-119.12
821.661	132.78
821.839	-8.53
822.017	-37.2
822.195	-51.54
822.373	22.19
822.551	-39.25
822.729	93.87
822.907	-12.63
823.085	52.91
823.262	42.67
823.44	-26.96
823.618	-59.73
823.796	-12.63
823.974	-37.2
824.152	-67.92
824.329	16.04
824.507	9.9
824.685	71.34
824.863	-49.49
825.04	-90.45
825.218	63.15
825.396	57
825.574	110.25
825.751	22.19
825.929	42.67
826.107	-16.73
826.284	81.58
826.462	36.52
826.639	-41.3
826.817	-108.88
826.994	9.9
827.172	-88.4
827.349	124.58
827.527	5.8
827.704	42.67
827.882	50.86
828.059	11.95
828.237	-26.96
828.414	65.19
828.591	-155.99
828.769	26.28
828.946	-102.74
829.124	-53.59
829.301	67.24
829.478	-8.53
829.655	16.04
829.833	28.33
830.01	-94.55
830.187	-18.77
830.364	-10.58
830.542	-24.92
830.719	89.77
830.896	26.28
831.073	38.57
831.25	-14.68
831.427	54.95
831.604	20.14
831.782	-108.88
831.959	-45.4
832.136	-8.53
832.313	7.85
832.49	28.33
832.667	22.19
832.844	-35.16
833.021	18.09
833.198	34.47
833.374	28.33
833.551	48.81
833.728	-31.06
833.905	40.62
834.082	-166.23
834.259	34.47
834.436	124.58
834.612	5.8
834.789	13.99
834.966	-10.58
835.143	-10.58
835.319	-61.78
835.496	112.3
835.673	-24.92
835.85	79.53
836.026	46.76
836.203	50.86
836.38	-45.4
836.556	-65.88
836.733	22.19
836.909	132.78
837.086	-135.51
837.262	-16.73
837.439	-12.63
837.616	-43.35
837.792	77.48
837.968	13.99
838.145	-53.59
838.321	30.38
838.498	52.91
838.674	73.39
838.851	-16.73
839.027	-43.35
839.203	13.99
839.38	59.05
839.556	-2.39
839.732	57
839.909	42.67
840.085	110.25
840.261	-65.88
840.437	11.95
840.614	-4.44
840.79	-8.53
840.966	120.49
841.142	24.23
841.318	-10.58
841.494	1.71
841.671	112.3
841.847	-104.79
842.023	-37.2
842.199	-6.49
842.375	67.24
842.551	-78.16
842.727	-69.97
842.903	165.54
843.079	-108.88
843.255	97.96
843.431	36.52
843.607	9.9
843.783	-119.12
843.959	52.91
844.134	-72.02
844.31	134.82
844.486	-0.34
844.662	-12.63
844.838	-10.58
845.013	5.8
845.189	42.67
845.365	36.52
845.541	32.43
845.716	32.43
845.892	-4.44
846.068	-26.96
846.244	-149.84
846.419	11.95
846.595	-92.5
846.77	-69.97
846.946	77.48
847.122	-80.21
847.297	-117.08
847.473	81.58
847.648	-59.73
847.824	-0.34
847.999	-211.28
848.175	-10.58
848.35	11.95
848.526	116.39
848.701	42.67
848.876	18.09
849.052	36.52
849.227	71.34
849.403	30.38
849.578	-53.59
849.753	79.53
849.929	112.3
850.104	-37.2
850.279	13.99
850.454	7.85
850.63	24.23
850.805	-65.88
850.98	-14.68
851.155	-51.54
851.33	67.24
851.505	-57.68
851.681	151.21
851.856	24.23
852.031	44.71
852.206	3.75
852.381	-20.82
852.556	-18.77
852.731	120.49
852.906	-65.88
853.081	112.3
853.256	73.39
853.431	30.38
853.606	-14.68
853.781	-72.02
853.956	-135.51
854.131	13.99
854.305	-31.06
854.48	-4.44
854.655	-16.73
854.83	-45.4
855.005	-29.01
855.18	5.8
855.354	57
855.529	5.8
855.704	42.67
855.879	50.86
856.053	-76.12
856.228	20.14
856.403	-12.63
856.577	81.58
856.752	-174.42
856.926	-39.25
857.101	13.99
857.276	-78.16
857.45	-18.77
857.625	28.33
857.799	34.47
857.974	-69.97
858.148	-155.99
858.323	20.14
858.497	-6.49
858.672	-84.31
858.846	-2.39
859.02	5.8
859.195	-69.97
859.369	-88.4
859.543	83.63
859.718	-35.16
859.892	20.14
860.066	34.47
860.241	-43.35
860.415	1.71
860.589	-55.64
860.763	-22.87
860.938	-47.44
861.112	13.99
861.286	1.71
861.46	-0.34
861.634	-16.73
861.808	83.63
861.982	-69.97
862.157	-78.16
862.331	-37.2
862.505	-117.08
862.679	-90.45
862.853	-115.03
863.027	9.9
863.201	77.48
863.375	-63.83
863.549	87.72
863.722	18.09
863.896	173.74
864.07	-98.64
864.244	-26.96
864.418	50.86
864.592	26.28
864.766	59.05
864.939	-22.87
865.113	-26.96
865.287	128.68
865.461	-90.45
865.634	36.52
865.808	-24.92
865.982	-8.53
866.156	3.75
866.329	-20.82
866.503	-57.68
866.676	-6.49
866.85	7.85
867.024	-41.3
867.197	97.96
867.371	24.23
867.544	-12.63
867.718	-104.79
867.891	108.2
868.065	-86.36
868.238	-10.58
868.412	112.3
868.585	-4.44
868.759	-45.4
868.932	-53.59
869.105	-104.79
869.279	-14.68
869.452	-67.92
869.625	57
869.799	-10.58
869.972	-201.04
870.145	-37.2
870.319	85.67
870.492	3.75
870.665	-31.06
870.838	-96.6
871.011	-205.14
871.185	-108.88
871.358	-35.16
871.531	3.75
871.704	-61.78
871.877	32.43
872.05	44.71
872.223	-65.88
872.396	73.39
872.569	-24.92
872.742	-110.93
872.915	32.43
873.088	-80.21
873.261	-145.75
873.434	59.05
873.607	1.71
873.78	112.3
873.953	-49.49
874.126	-29.01
874.299	114.34
874.471	-35.16
874.644	-24.92
874.817	81.58
874.99	128.68
875.163	1.71
875.335	48.81
875.508	-12.63
875.681	50.86
875.853	-20.82
876.026	-63.83
876.199	18.09
876.371	-12.63
876.544	3.75
876.717	-8.53
876.889	-22.87
877.062	18.09
877.234	-47.44
877.407	-18.77
877.579	-69.97
877.752	26.28
877.924	57
878.097	20.14
878.269	26.28
878.442	38.57
878.614	52.91
878.786	-49.49
878.959	11.95
879.131	81.58
879.303	-149.84
879.476	-121.17
879.648	18.09
879.82	54.95
879.993	-106.84
880.165	-26.96
880.337	-41.3
880.509	-37.2
880.681	-76.12
880.854	-29.01
881.026	50.86
881.198	163.5
881.37	-57.68
881.542	-12.63
881.714	5.8
881.886	1.71
882.058	28.33
882.23	-6.49
882.402	-6.49
882.574	32.43
882.746	48.81
882.918	67.24
883.09	52.91
883.262	-72.02
883.434	-14.68
883.606	-41.3
883.778	-55.64
883.95	159.4
884.122	-37.2
884.293	75.43
884.465	50.86
884.637	89.77
884.809	-76.12
884.98	-12.63
885.152	20.14
885.324	22.19
885.496	-37.2
885.667	-80.21
885.839	-61.78
886.011	34.47
886.182	-24.92
886.354	30.38
886.525	71.34
886.697	32.43
886.869	-92.5
887.04	18.09
887.212	54.95
887.383	157.35
887.555	5.8
887.726	-18.77
887.897	9.9
888.069	-33.11
888.24	61.1
888.412	-10.58
888.583	28.33
888.754	-22.87
888.926	-74.07
889.097	-31.06
889.268	-76.12
889.44	-14.68
889.611	-129.36
889.782	-125.27
889.953	-8.53
890.125	114.34
890.296	-53.59
890.467	-67.92
890.638	-29.01
890.809	61.1
890.98	18.09
891.151	20.14
891.323	118.44
891.494	83.63
891.665	13.99
891.836	-33.11
892.007	-6.49
892.178	28.33
892.349	63.15
892.52	-94.55
892.691	-22.87
892.862	-72.02
893.032	-61.78
893.203	-72.02
893.374	-92.5
893.545	89.77
893.716	-35.16
893.887	57
894.057	-43.35
894.228	-90.45
894.399	-53.59
894.57	87.72
894.74	-59.73
894.911	13.99
895.082	-72.02
895.253	-88.4
895.423	52.91
895.594	165.54
895.764	87.72
895.935	-78.16
896.106	-47.44
896.276	20.14
896.447	26.28
896.617	-45.4
896.788	-121.17
896.958	-47.44
897.129	-43.35
897.299	-76.12
897.47	81.58
897.64	-20.82
897.81	-26.96
897.981	-18.77
898.151	-47.44
898.322	-4.44
898.492	95.91
898.662	-78.16
898.832	-2.39
899.003	-74.07
899.173	48.81
899.343	-57.68
899.513	-125.27
