Data from USB4F104151__98__10-45-18-764.txt Node

Date: Wed Feb 26 10:45:18 EST 2025
User: louis
Spectrometer: USB4F10415
Trigger mode: 4
Integration Time (sec): 1.000000E-1
Scans to average: 1
Electric dark correction enabled: true
Nonlinearity correction enabled: false
Boxcar width: 0
XAxis mode: Wavelengths
Number of Pixels in Spectrum: 3648
>>>>>Begin Spectral Data<<<<<
178.204	-409.94
178.424	-409.94
178.644	-409.94
178.864	-381.26
179.084	-473.42
179.304	-35.16
179.524	-12.63
179.744	-10.58
179.964	63.15
180.184	48.81
180.404	67.24
180.624	-61.78
180.844	24.23
181.064	-57.68
181.283	-18.77
181.503	-20.82
181.723	13.99
181.943	-86.36
182.163	161.45
182.383	22.19
182.602	22.19
182.822	153.26
183.042	16.04
183.262	-0.34
183.482	-16.73
183.701	65.19
183.921	61.1
184.141	-80.21
184.361	54.95
184.58	59.05
184.8	89.77
185.02	-51.54
185.239	52.91
185.459	46.76
185.679	177.83
185.898	-74.07
186.118	-6.49
186.338	-8.53
186.557	116.39
186.777	-72.02
186.997	-6.49
187.216	16.04
187.436	159.4
187.655	54.95
187.875	110.25
188.095	7.85
188.314	124.58
188.534	57
188.753	-80.21
188.973	73.39
189.192	155.3
189.412	1.71
189.631	3.75
189.851	42.67
190.07	159.4
190.29	-88.4
190.509	-20.82
190.729	87.72
190.948	149.16
191.168	229.03
191.387	110.25
191.607	3.75
191.826	11.95
192.045	-31.06
192.265	18.09
192.484	40.62
192.704	110.25
192.923	-33.11
193.142	192.17
193.362	110.25
193.581	177.83
193.8	75.43
194.02	93.87
194.239	-8.53
194.458	67.24
194.678	59.05
194.897	-12.63
195.116	87.72
195.335	120.49
195.555	32.43
195.774	9.9
195.993	89.77
196.212	-12.63
196.432	-65.88
196.651	28.33
196.87	-53.59
197.089	245.41
197.308	54.95
197.528	48.81
197.747	-127.32
197.966	-18.77
198.185	112.3
198.404	-45.4
198.623	120.49
198.842	153.26
199.062	126.63
199.281	73.39
199.5	24.23
199.719	28.33
199.938	104.11
200.157	46.76
200.376	149.16
200.595	34.47
200.814	97.96
201.033	-43.35
201.252	183.98
201.471	44.71
201.69	9.9
201.909	42.67
202.128	28.33
202.347	73.39
202.566	-0.34
202.785	-86.36
203.004	3.75
203.223	175.78
203.442	-12.63
203.661	-117.08
203.879	44.71
204.098	130.73
204.317	-14.68
204.536	116.39
204.755	97.96
204.974	81.58
205.193	11.95
205.411	112.3
205.63	-24.92
205.849	32.43
206.068	57
206.287	-33.11
206.505	106.15
206.724	32.43
206.943	48.81
207.162	-53.59
207.381	13.99
207.599	-10.58
207.818	87.72
208.037	28.33
208.255	3.75
208.474	73.39
208.693	44.71
208.911	-51.54
209.13	93.87
209.349	57
209.567	87.72
209.786	85.67
210.005	102.06
210.223	32.43
210.442	-170.32
210.661	77.48
210.879	77.48
211.098	1.71
211.316	30.38
211.535	61.1
211.753	93.87
211.972	153.26
212.191	22.19
212.409	44.71
212.628	116.39
212.846	-41.3
213.065	57
213.283	38.57
213.502	26.28
213.72	34.47
213.938	13.99
214.157	-31.06
214.375	83.63
214.594	32.43
214.812	61.1
215.031	-80.21
215.249	40.62
215.467	87.72
215.686	-2.39
215.904	89.77
216.122	36.52
216.341	147.11
216.559	61.1
216.778	65.19
216.996	83.63
217.214	-18.77
217.432	22.19
217.651	-63.83
217.869	-49.49
218.087	24.23
218.306	28.33
218.524	-12.63
218.742	48.81
218.96	69.29
219.179	26.28
219.397	97.96
219.615	214.7
219.833	95.91
220.051	-78.16
220.27	73.39
220.488	122.54
220.706	112.3
220.924	-37.2
221.142	11.95
221.36	32.43
221.578	108.2
221.796	22.19
222.015	73.39
222.233	65.19
222.451	140.97
222.669	-29.01
222.887	112.3
223.105	-72.02
223.323	28.33
223.541	-86.36
223.759	73.39
223.977	7.85
224.195	91.82
224.413	85.67
224.631	40.62
224.849	38.57
225.067	188.07
225.285	-29.01
225.503	-47.44
225.721	-69.97
225.939	124.58
226.157	95.91
226.375	165.54
226.592	32.43
226.81	-6.49
227.028	89.77
227.246	138.92
227.464	-8.53
227.682	65.19
227.9	28.33
228.117	71.34
228.335	91.82
228.553	5.8
228.771	3.75
228.989	48.81
229.206	32.43
229.424	28.33
229.642	-18.77
229.86	-74.07
230.077	50.86
230.295	9.9
230.513	57
230.731	77.48
230.948	120.49
231.166	200.36
231.384	-78.16
231.601	-8.53
231.819	175.78
232.037	-14.68
232.254	-24.92
232.472	24.23
232.689	-14.68
232.907	102.06
233.125	73.39
233.342	-53.59
233.56	-29.01
233.777	30.38
233.995	54.95
234.213	104.11
234.43	114.34
234.648	61.1
234.865	-39.25
235.083	24.23
235.3	20.14
235.518	85.67
235.735	116.39
235.953	61.1
236.17	-26.96
236.388	-22.87
236.605	30.38
236.822	108.2
237.04	145.06
237.257	77.48
237.475	22.19
237.692	-12.63
237.909	77.48
238.127	71.34
238.344	30.38
238.562	3.75
238.779	-80.21
238.996	-20.82
239.214	40.62
239.431	26.28
239.648	-18.77
239.865	40.62
240.083	61.1
240.3	-57.68
240.517	24.23
240.735	79.53
240.952	42.67
241.169	143.02
241.386	61.1
241.603	69.29
241.821	13.99
242.038	85.67
242.255	126.63
242.472	-59.73
242.689	52.91
242.907	106.15
243.124	22.19
243.341	44.71
243.558	-80.21
243.775	-57.68
243.992	-20.82
244.209	75.43
244.426	118.44
244.643	38.57
244.86	-31.06
245.078	97.96
245.295	16.04
245.512	50.86
245.729	-51.54
245.946	50.86
246.163	81.58
246.38	-53.59
246.597	95.91
246.814	57
247.031	-45.4
247.248	-59.73
247.464	48.81
247.681	5.8
247.898	89.77
248.115	1.71
248.332	-20.82
248.549	138.92
248.766	175.78
248.983	85.67
249.2	79.53
249.417	149.16
249.633	7.85
249.85	71.34
250.067	9.9
250.284	-8.53
250.501	89.77
250.717	89.77
250.934	-74.07
251.151	-20.82
251.368	1.71
251.585	28.33
251.801	18.09
252.018	50.86
252.235	192.17
252.451	-69.97
252.668	38.57
252.885	116.39
253.102	7.85
253.318	52.91
253.535	30.38
253.752	-39.25
253.968	61.1
254.185	-121.17
254.401	61.1
254.618	24.23
254.835	9.9
255.051	59.05
255.268	57
255.484	34.47
255.701	52.91
255.917	52.91
256.134	-84.31
256.351	34.47
256.567	-20.82
256.784	-31.06
257	-133.46
257.217	169.64
257.433	20.14
257.65	36.52
257.866	153.26
258.082	-2.39
258.299	-6.49
258.515	34.47
258.732	16.04
258.948	-6.49
259.165	40.62
259.381	-53.59
259.597	50.86
259.814	11.95
260.03	22.19
260.246	-37.2
260.463	120.49
260.679	104.11
260.895	26.28
261.112	30.38
261.328	-45.4
261.544	-8.53
261.761	159.4
261.977	-31.06
262.193	-110.93
262.409	69.29
262.626	44.71
262.842	28.33
263.058	-55.64
263.274	126.63
263.49	59.05
263.707	-24.92
263.923	75.43
264.139	-26.96
264.355	22.19
264.571	122.54
264.787	3.75
265.004	93.87
265.22	13.99
265.436	-86.36
265.652	-0.34
265.868	24.23
266.084	-45.4
266.3	30.38
266.516	-92.5
266.732	24.23
266.948	28.33
267.164	-8.53
267.38	108.2
267.596	24.23
267.812	153.26
268.028	91.82
268.244	-16.73
268.46	57
268.676	24.23
268.892	147.11
269.108	-65.88
269.324	-51.54
269.54	-74.07
269.756	67.24
269.972	69.29
270.188	30.38
270.403	-51.54
270.619	-37.2
270.835	54.95
271.051	59.05
271.267	38.57
271.483	-4.44
271.698	106.15
271.914	89.77
272.13	24.23
272.346	-94.55
272.562	28.33
272.777	147.11
272.993	48.81
273.209	-14.68
273.425	132.78
273.64	-59.73
273.856	75.43
274.072	48.81
274.287	-49.49
274.503	93.87
274.719	54.95
274.934	-2.39
275.15	-119.12
275.366	93.87
275.581	-16.73
275.797	28.33
276.012	-12.63
276.228	-26.96
276.444	18.09
276.659	65.19
276.875	18.09
277.09	-0.34
277.306	-26.96
277.521	130.73
277.737	48.81
277.952	132.78
278.168	11.95
278.383	1.71
278.599	106.15
278.814	151.21
279.03	40.62
279.245	200.36
279.461	-37.2
279.676	71.34
279.892	-22.87
280.107	28.33
280.322	16.04
280.538	42.67
280.753	-69.97
280.969	30.38
281.184	52.91
281.399	169.64
281.615	-16.73
281.83	87.72
282.045	-43.35
282.26	-22.87
282.476	-24.92
282.691	112.3
282.906	130.73
283.122	28.33
283.337	-18.77
283.552	106.15
283.767	32.43
283.983	81.58
284.198	-8.53
284.413	26.28
284.628	18.09
284.843	63.15
285.058	134.82
285.274	24.23
285.489	-127.32
285.704	145.06
285.919	16.04
286.134	-55.64
286.349	44.71
286.564	1.71
286.779	112.3
286.995	18.09
287.21	38.57
287.425	95.91
287.64	-4.44
287.855	67.24
288.07	-92.5
288.285	97.96
288.5	57
288.715	85.67
288.93	28.33
289.145	1.71
289.36	97.96
289.575	-0.34
289.79	157.35
290.004	-8.53
290.219	3.75
290.434	30.38
290.649	-106.84
290.864	-14.68
291.079	20.14
291.294	-8.53
291.509	57
291.724	-18.77
291.938	52.91
292.153	87.72
292.368	-0.34
292.583	-29.01
292.798	91.82
293.012	32.43
293.227	57
293.442	13.99
293.657	124.58
293.871	112.3
294.086	7.85
294.301	128.68
294.516	132.78
294.73	-43.35
294.945	-12.63
295.16	44.71
295.374	77.48
295.589	83.63
295.804	-69.97
296.018	1.71
296.233	93.87
296.447	44.71
296.662	16.04
296.877	61.1
297.091	120.49
297.306	13.99
297.52	18.09
297.735	-10.58
297.949	48.81
298.164	28.33
298.378	13.99
298.593	-74.07
298.807	-127.32
299.022	38.57
299.236	143.02
299.451	20.14
299.665	61.1
299.88	3.75
300.094	97.96
300.309	89.77
300.523	97.96
300.737	16.04
300.952	73.39
301.166	77.48
301.381	-61.78
301.595	26.28
301.809	97.96
302.024	34.47
302.238	-8.53
302.452	81.58
302.667	63.15
302.881	149.16
303.095	118.44
303.309	93.87
303.524	-10.58
303.738	28.33
303.952	-18.77
304.166	102.06
304.381	-59.73
304.595	147.11
304.809	-33.11
305.023	-10.58
305.237	-20.82
305.452	52.91
305.666	149.16
305.88	46.76
306.094	112.3
306.308	-4.44
306.522	32.43
306.736	87.72
306.95	83.63
307.164	16.04
307.379	77.48
307.593	132.78
307.807	138.92
308.021	110.25
308.235	104.11
308.449	-20.82
308.663	20.14
308.877	249.51
309.091	26.28
309.305	50.86
309.519	-112.98
309.733	138.92
309.947	-88.4
310.161	38.57
310.374	75.43
310.588	75.43
310.802	-96.6
311.016	-18.77
311.23	63.15
311.444	-41.3
311.658	46.76
311.872	59.05
312.085	151.21
312.299	100.01
312.513	132.78
312.727	114.34
312.941	-76.12
313.154	97.96
313.368	-0.34
313.582	75.43
313.796	110.25
314.009	13.99
314.223	57
314.437	40.62
314.651	63.15
314.864	30.38
315.078	-6.49
315.292	-100.69
315.505	-4.44
315.719	159.4
315.933	95.91
316.146	-10.58
316.36	-14.68
316.573	112.3
316.787	40.62
317.001	130.73
317.214	-29.01
317.428	34.47
317.641	-49.49
317.855	26.28
318.068	93.87
318.282	87.72
318.495	157.35
318.709	3.75
318.922	11.95
319.136	52.91
319.349	106.15
319.563	-78.16
319.776	110.25
319.99	-43.35
320.203	75.43
320.417	30.38
320.63	104.11
320.843	124.58
321.057	71.34
321.27	-63.83
321.483	128.68
321.697	104.11
321.91	57
322.124	42.67
322.337	50.86
322.55	-2.39
322.763	54.95
322.977	57
323.19	-8.53
323.403	61.1
323.617	63.15
323.83	163.5
324.043	-57.68
324.256	71.34
324.469	1.71
324.683	140.97
324.896	5.8
325.109	-39.25
325.322	-51.54
325.535	181.93
325.748	81.58
325.962	-37.2
326.175	61.1
326.388	40.62
326.601	81.58
326.814	-41.3
327.027	26.28
327.24	134.82
327.453	16.04
327.666	24.23
327.879	130.73
328.092	67.24
328.305	-8.53
328.518	59.05
328.731	-8.53
328.944	18.09
329.157	26.28
329.37	-69.97
329.583	136.87
329.796	171.69
330.009	-106.84
330.222	26.28
330.435	102.06
330.648	40.62
330.861	46.76
331.073	87.72
331.286	9.9
331.499	42.67
331.712	-61.78
331.925	34.47
332.138	-0.34
332.35	136.87
332.563	5.8
332.776	87.72
332.989	-0.34
333.202	38.57
333.414	75.43
333.627	-20.82
333.84	-26.96
334.053	61.1
334.265	69.29
334.478	-0.34
334.691	38.57
334.903	110.25
335.116	-78.16
335.329	-20.82
335.541	-4.44
335.754	177.83
335.966	24.23
336.179	91.82
336.392	-53.59
336.604	-43.35
336.817	57
337.029	110.25
337.242	-6.49
337.454	11.95
337.667	5.8
337.88	130.73
338.092	-12.63
338.305	132.78
338.517	-90.45
338.729	57
338.942	100.01
339.154	-43.35
339.367	59.05
339.579	50.86
339.792	-2.39
340.004	97.96
340.217	-33.11
340.429	11.95
340.641	18.09
340.854	5.8
341.066	3.75
341.278	83.63
341.491	186.02
341.703	13.99
341.915	22.19
342.128	28.33
342.34	36.52
342.552	-12.63
342.764	97.96
342.977	-14.68
343.189	44.71
343.401	38.57
343.613	-92.5
343.826	-4.44
344.038	-61.78
344.25	69.29
344.462	-18.77
344.674	57
344.886	38.57
345.099	11.95
345.311	11.95
345.523	-90.45
345.735	-100.69
345.947	48.81
346.159	32.43
346.371	-4.44
346.583	57
346.795	132.78
347.007	16.04
347.219	63.15
347.431	-43.35
347.643	104.11
347.855	-12.63
348.067	108.2
348.279	-24.92
348.491	13.99
348.703	32.43
348.915	13.99
349.127	-57.68
349.339	61.1
349.551	-16.73
349.763	57
349.975	32.43
350.187	44.71
350.399	122.54
350.61	67.24
350.822	-18.77
351.034	114.34
351.246	122.54
351.458	-35.16
351.669	-10.58
351.881	40.62
352.093	38.57
352.305	79.53
352.517	18.09
352.728	77.48
352.94	44.71
353.152	11.95
353.363	-22.87
353.575	38.57
353.787	124.58
353.999	48.81
354.21	157.35
354.422	-31.06
354.633	-4.44
354.845	57
355.057	54.95
355.268	40.62
355.48	85.67
355.692	16.04
355.903	81.58
356.115	-26.96
356.326	-94.55
356.538	77.48
356.749	44.71
356.961	147.11
357.172	34.47
357.384	-39.25
357.595	196.26
357.807	-47.44
358.018	-41.3
358.23	44.71
358.441	118.44
358.653	120.49
358.864	130.73
359.075	-43.35
359.287	11.95
359.498	75.43
359.709	73.39
359.921	26.28
360.132	-2.39
360.344	59.05
360.555	20.14
360.766	20.14
360.977	-76.12
361.189	71.34
361.4	34.47
361.611	112.3
361.823	69.29
362.034	48.81
362.245	-106.84
362.456	20.14
362.667	22.19
362.879	-78.16
363.09	-8.53
363.301	118.44
363.512	50.86
363.723	16.04
363.935	-31.06
364.146	40.62
364.357	63.15
364.568	124.58
364.779	-53.59
364.99	114.34
365.201	-29.01
365.412	106.15
365.623	-53.59
365.834	65.19
366.045	65.19
366.256	95.91
366.467	157.35
366.678	18.09
366.889	79.53
367.1	50.86
367.311	130.73
367.522	-43.35
367.733	69.29
367.944	52.91
368.155	26.28
368.366	124.58
368.577	134.82
368.788	108.2
368.999	-8.53
369.209	73.39
369.42	224.94
369.631	151.21
369.842	71.34
370.053	52.91
370.264	106.15
370.474	-43.35
370.685	42.67
370.896	-65.88
371.107	126.63
371.317	89.77
371.528	-14.68
371.739	159.4
371.95	16.04
372.16	61.1
372.371	16.04
372.582	-31.06
372.792	63.15
373.003	89.77
373.214	73.39
373.424	75.43
373.635	-43.35
373.846	63.15
374.056	22.19
374.267	9.9
374.477	54.95
374.688	-33.11
374.898	44.71
375.109	40.62
375.319	63.15
375.53	54.95
375.74	224.94
375.951	-22.87
376.161	108.2
376.372	118.44
376.582	61.1
376.793	46.76
377.003	48.81
377.214	13.99
377.424	46.76
377.635	57
377.845	57
378.055	196.26
378.266	-78.16
378.476	26.28
378.686	100.01
378.897	65.19
379.107	50.86
379.317	3.75
379.528	-53.59
379.738	67.24
379.948	-22.87
380.158	97.96
380.369	11.95
380.579	30.38
380.789	-12.63
380.999	71.34
381.21	-2.39
381.42	143.02
381.63	13.99
381.84	79.53
382.05	-43.35
382.261	175.78
382.471	91.82
382.681	-76.12
382.891	186.02
383.101	95.91
383.311	61.1
383.521	32.43
383.731	75.43
383.941	110.25
384.151	28.33
384.361	-33.11
384.571	18.09
384.781	46.76
384.991	149.16
385.201	222.89
385.411	89.77
385.621	20.14
385.831	69.29
386.041	63.15
386.251	16.04
386.461	190.12
386.671	26.28
386.881	57
387.091	26.28
387.301	104.11
387.511	44.71
387.72	52.91
387.93	20.14
388.14	-41.3
388.35	52.91
388.56	83.63
388.769	40.62
388.979	59.05
389.189	-24.92
389.399	63.15
389.609	54.95
389.818	165.54
390.028	48.81
390.238	95.91
390.447	-29.01
390.657	151.21
390.867	9.9
391.076	-78.16
391.286	138.92
391.496	102.06
391.705	13.99
391.915	147.11
392.125	75.43
392.334	13.99
392.544	138.92
392.753	61.1
392.963	-59.73
393.172	63.15
393.382	7.85
393.591	159.4
393.801	50.86
394.01	89.77
394.22	40.62
394.429	54.95
394.639	-4.44
394.848	128.68
395.058	20.14
395.267	5.8
395.477	52.91
395.686	48.81
395.895	204.46
396.105	186.02
396.314	87.72
396.524	32.43
396.733	-4.44
396.942	18.09
397.152	75.43
397.361	63.15
397.57	63.15
397.78	57
397.989	73.39
398.198	229.03
398.407	91.82
398.617	36.52
398.826	5.8
399.035	85.67
399.244	67.24
399.453	67.24
399.663	54.95
399.872	50.86
400.081	-6.49
400.29	104.11
400.499	5.8
400.708	204.46
400.917	-24.92
401.127	-24.92
401.336	81.58
401.545	126.63
401.754	143.02
401.963	143.02
402.172	36.52
402.381	-67.92
402.59	73.39
402.799	1.71
403.008	122.54
403.217	48.81
403.426	24.23
403.635	-90.45
403.844	-31.06
404.053	-22.87
404.262	46.76
404.471	208.55
404.68	52.91
404.888	-33.11
405.097	20.14
405.306	36.52
405.515	83.63
405.724	-84.31
405.933	110.25
406.142	-37.2
406.35	44.71
406.559	3.75
406.768	97.96
406.977	124.58
407.185	120.49
407.394	42.67
407.603	-2.39
407.812	18.09
408.02	171.69
408.229	-29.01
408.438	-20.82
408.646	-10.58
408.855	11.95
409.064	83.63
409.272	-53.59
409.481	116.39
409.69	85.67
409.898	-80.21
410.107	114.34
410.315	114.34
410.524	67.24
410.733	54.95
410.941	16.04
411.15	16.04
411.358	102.06
411.567	91.82
411.775	13.99
411.984	38.57
412.192	97.96
412.401	11.95
412.609	190.12
412.818	97.96
413.026	67.24
413.234	69.29
413.443	28.33
413.651	44.71
413.86	30.38
414.068	48.81
414.276	194.22
414.485	-0.34
414.693	159.4
414.901	190.12
415.11	71.34
415.318	75.43
415.526	59.05
415.734	118.44
415.943	61.1
416.151	106.15
416.359	30.38
416.567	145.06
416.776	116.39
416.984	159.4
417.192	159.4
417.4	-12.63
417.608	7.85
417.817	-86.36
418.025	79.53
418.233	138.92
418.441	-53.59
418.649	-45.4
418.857	104.11
419.065	85.67
419.273	-8.53
419.481	79.53
419.689	54.95
419.897	50.86
420.105	-96.6
420.313	224.94
420.521	104.11
420.729	206.5
420.937	-41.3
421.145	-33.11
421.353	122.54
421.561	145.06
421.769	112.3
421.977	3.75
422.185	65.19
422.393	28.33
422.601	38.57
422.809	3.75
423.017	52.91
423.224	73.39
423.432	89.77
423.64	32.43
423.848	175.78
424.056	-12.63
424.263	186.02
424.471	-18.77
424.679	110.25
424.887	-78.16
425.094	79.53
425.302	87.72
425.51	97.96
425.718	143.02
425.925	26.28
426.133	-24.92
426.341	204.46
426.548	65.19
426.756	38.57
426.964	106.15
427.171	-0.34
427.379	97.96
427.586	87.72
427.794	138.92
428.001	157.35
428.209	120.49
428.417	183.98
428.624	97.96
428.832	155.3
429.039	7.85
429.247	52.91
429.454	50.86
429.662	241.32
429.869	153.26
430.076	75.43
430.284	181.93
430.491	186.02
430.699	173.74
430.906	196.26
431.114	95.91
431.321	134.82
431.528	108.2
431.736	165.54
431.943	169.64
432.15	204.46
432.358	120.49
432.565	175.78
432.772	9.9
432.979	274.09
433.187	48.81
433.394	196.26
433.601	97.96
433.808	202.41
434.016	272.04
434.223	143.02
434.43	126.63
434.637	237.22
434.844	239.27
435.052	173.74
435.259	239.27
435.466	237.22
435.673	259.75
435.88	245.41
436.087	315.05
436.294	306.85
436.501	282.28
436.708	265.89
436.915	261.8
437.122	333.48
437.329	200.36
437.537	347.81
437.743	323.24
437.95	497.32
438.157	313
438.364	403.11
438.571	417.44
438.778	407.2
438.985	480.93
439.192	528.03
439.399	460.45
439.606	448.16
439.813	566.95
440.02	448.16
440.227	665.25
440.433	517.79
440.64	614.05
440.847	523.94
441.054	630.43
441.261	687.78
441.467	640.67
441.674	591.52
441.881	757.41
442.088	636.58
442.294	704.16
442.501	681.63
442.708	779.93
442.914	716.45
443.121	865.95
443.328	941.72
443.534	931.48
443.741	894.62
443.948	736.93
444.154	1091.23
444.361	1169.05
444.568	1066.65
444.774	988.83
444.981	933.53
445.187	1179.29
445.394	1171.1
445.6	1158.81
445.807	1463.96
446.013	1357.46
446.22	1226.39
446.426	1461.91
446.633	1521.3
446.839	1724.05
447.046	1396.37
447.252	1752.72
447.459	1603.22
447.665	1535.64
447.871	1851.02
448.078	2027.15
448.284	1937.04
448.491	2074.25
448.697	2197.13
448.903	2121.35
449.11	2266.76
449.316	2211.46
449.522	2559.62
449.728	2535.04
449.935	2651.78
450.141	2600.58
450.347	2856.58
450.553	2696.83
450.76	2875.01
450.966	2997.88
451.172	3188.35
451.378	3296.89
451.584	3399.29
451.791	3718.77
451.997	3573.36
452.203	3821.17
452.409	3858.03
452.615	4173.42
452.821	3901.04
453.027	4075.12
453.233	4630.12
453.44	4370.02
453.646	4554.34
453.852	4822.63
454.058	5004.89
454.264	5129.82
454.47	5592.66
454.676	5475.93
454.882	5985.87
455.088	5744.21
455.294	5977.68
455.5	6293.07
455.705	6762.05
455.911	6929.98
456.117	7061.05
456.323	7415.35
456.529	7171.65
456.735	8130.09
456.941	8111.66
457.147	8472.11
457.352	8744.49
457.558	8814.12
457.764	9539.1
457.97	9760.28
458.176	10198.54
458.381	10524.17
458.587	10718.73
458.793	11165.18
458.999	11163.14
459.204	12668.39
459.41	13376.99
459.616	12881.38
459.821	13759.96
460.027	14513.61
460.233	14757.32
460.438	14980.55
460.644	15828.41
460.85	16031.16
461.055	16577.97
461.261	17362.34
461.466	17198.5
461.672	17395.11
461.878	19531.14
462.083	19221.89
462.289	19639.68
462.494	20598.13
462.7	20544.88
462.905	21054.83
463.111	22576.47
463.316	23768.38
463.522	24259.9
463.727	25001.26
463.932	26015.01
464.138	26549.53
464.343	27927.81
464.549	28114.17
464.754	29916.39
464.959	30674.13
465.165	31509.71
465.37	31061.2
465.575	30989.52
465.781	33074.35
465.986	34276.51
466.191	33486
466.397	33727.66
466.602	32988.34
466.807	35073.17
467.012	35650.7
467.218	36451.45
467.423	36299.9
467.628	37213.3
467.833	39486.54
468.038	38567.01
468.244	37868.65
468.449	39715.92
468.654	38818.91
468.859	38976.6
469.064	39001.18
469.269	38163.56
469.474	38247.52
469.679	39216.21
469.885	38077.54
470.09	38827.1
470.295	38896.73
470.5	37811.31
470.705	38630.49
470.91	37385.33
471.115	37366.9
471.32	37747.82
471.525	37162.1
471.73	36234.37
471.935	36349.06
472.139	34985.11
472.344	35271.82
472.549	34608.28
472.754	34100.39
472.959	33316.01
473.164	32429.24
473.369	31476.94
473.574	32763.06
473.778	32087.23
473.983	31446.22
474.188	30758.1
474.393	29463.79
474.598	29455.59
474.802	28609.78
475.007	28325.11
475.212	27870.47
475.417	26993.93
475.621	26586.39
475.826	26486.04
476.031	25759.01
476.235	25482.53
476.44	25154.86
476.645	24642.87
476.849	24343.86
477.054	23856.45
477.259	23477.57
477.463	23158.09
477.668	22809.93
477.872	22555.99
478.077	22316.37
478.282	21579.11
478.486	21462.37
478.691	20968.81
478.895	20895.08
479.1	20977
479.304	20485.49
479.509	19969.4
479.713	20258.17
479.918	19778.94
480.122	19176.84
480.326	19481.99
480.531	19395.97
480.735	19182.98
480.94	18613.65
481.144	19549.57
481.348	18527.63
481.553	18568.59
481.757	18070.93
481.961	18208.15
482.166	18439.57
482.37	18062.74
482.574	17427.87
482.778	17720.73
482.983	17767.84
483.187	17565.09
483.391	17350.05
483.595	17067.43
483.8	16803.24
484.004	16895.4
484.208	16922.02
484.412	16516.53
484.616	16510.38
484.821	16336.31
485.025	15695.29
485.229	16059.83
485.433	15605.18
485.637	15674.81
485.841	15236.55
486.045	14976.45
486.249	15080.9
486.453	14613.96
486.657	14464.46
486.861	14169.55
487.065	13807.06
487.269	13854.17
487.473	13608.41
487.677	13653.47
487.881	13573.6
488.085	12971.49
488.289	12762.6
488.493	12508.65
488.697	12375.53
488.901	12193.26
489.105	12097.01
489.309	12058.1
489.512	11812.34
489.716	11726.33
489.92	11058.69
490.124	10888.71
490.328	11156.99
490.531	10515.98
490.735	10606.09
490.939	10239.5
491.143	9956.88
491.346	9928.21
491.55	9852.44
491.754	9672.22
491.958	9754.13
492.161	9295.39
492.365	9236
492.569	8916.51
492.772	8924.71
492.976	8756.77
493.18	8785.44
493.383	8588.84
493.587	8363.56
493.79	8347.18
493.994	8169.01
494.197	8257.07
494.401	7951.92
494.605	7923.25
494.808	8005.17
495.012	7769.65
495.215	7865.91
495.419	8029.74
495.622	7525.94
495.825	7581.24
496.029	7503.42
496.232	7646.77
496.436	7384.63
496.639	7732.79
496.843	7478.84
497.046	7417.4
497.249	7618.1
497.453	7364.15
497.656	7527.99
497.859	7423.55
498.063	7673.4
498.266	7683.64
498.469	7302.72
498.673	7476.79
498.876	7685.69
499.079	7534.14
499.282	7573.05
499.485	7806.52
499.689	7654.97
499.892	7890.48
500.095	7628.34
500.298	7990.83
500.501	7681.59
500.705	8115.76
500.908	8001.07
501.111	8023.6
501.314	8130.09
501.517	8216.11
501.72	8263.21
501.923	8136.24
502.126	8314.41
502.329	8541.74
502.532	8486.44
502.735	8334.89
502.938	9109.02
503.141	8816.16
503.344	8834.6
503.547	9203.23
503.75	9006.63
503.953	9213.47
504.156	9383.45
504.359	9440.79
504.562	9510.43
504.765	9747.99
504.968	9907.73
505.17	10223.12
505.373	10073.62
505.576	10298.89
505.779	10487.31
505.982	10589.71
506.185	11075.07
506.387	10833.41
506.59	11425.28
506.793	11144.7
506.996	11531.77
507.198	12033.52
507.401	11970.04
507.604	12387.82
507.807	12537.32
508.009	12854.76
508.212	12895.72
508.415	13282.78
508.617	13616.6
508.82	13800.92
509.022	13837.78
509.225	14261.71
509.428	14546.38
509.63	14833.1
509.833	14968.26
510.035	15785.4
510.238	15963.58
510.44	16004.53
510.643	16494
510.845	16608.69
511.048	17204.64
511.25	17376.67
511.453	17804.7
511.655	18652.56
511.858	18836.88
512.06	19209.61
512.262	19606.91
512.465	20077.94
512.667	20280.69
512.87	20895.08
513.072	21290.34
513.274	21701.98
513.477	22314.33
513.679	22644.05
513.881	23244.1
514.084	23733.57
514.286	24198.46
514.488	24792.37
514.69	25765.15
514.893	25902.37
515.095	26318.11
515.297	26832.15
515.499	27186.44
515.701	28280.06
515.904	28781.81
516.106	29172.97
516.308	29517.03
516.51	30616.79
516.712	30852.31
516.914	31175.89
517.116	32001.22
517.318	32666.81
517.52	32935.09
517.722	33449.13
517.925	34577.56
518.127	35103.89
518.329	35693.71
518.531	35419.28
518.733	36553.85
518.935	37549.17
519.136	37952.62
519.338	38757.47
519.54	38859.87
519.742	39775.31
519.944	40426.56
520.146	41129.02
520.348	41634.86
520.55	41966.63
520.752	42691.62
520.954	43174.94
521.155	43267.09
521.357	43936.78
521.559	44598.27
521.761	45429.75
521.963	45024.25
522.164	45917.17
522.366	46099.44
522.568	46896.1
522.77	46848.99
522.971	47526.87
523.173	47150.04
523.375	48008.14
523.576	47789.01
523.778	48147.4
523.98	48919.49
524.181	48923.58
524.383	48866.24
524.584	49449.91
524.786	49341.37
524.988	49263.55
525.189	49755.06
525.391	49980.34
525.592	49443.77
525.794	49929.14
525.995	49398.71
526.197	49251.26
526.398	49456.06
526.6	49777.59
526.801	49271.74
527.003	49120.19
527.204	49279.93
527.406	49238.97
527.607	49015.74
527.808	49224.64
528.01	48006.09
528.211	47817.68
528.412	48548.81
528.614	47872.98
528.815	47236.06
529.016	47389.66
529.218	46369.77
529.419	46615.52
529.62	45919.21
529.822	45794.29
530.023	45294.58
530.224	45044.73
530.425	44499.97
530.626	43582.48
530.828	43115.54
531.029	43353.11
531.23	41978.92
531.431	42114.09
531.632	41587.76
531.833	41634.86
532.035	40989.75
532.236	40152.13
532.437	39785.55
532.638	39015.51
532.839	38896.73
533.04	38489.18
533.241	37289.07
533.442	38147.17
533.643	36840.57
533.844	36467.84
534.045	36408.45
534.246	35394.7
534.447	35261.58
534.648	34352.29
534.849	34194.59
535.05	33705.13
535.251	33273.01
535.451	32709.82
535.652	32580.79
535.853	32085.19
536.054	31947.97
536.255	31220.94
536.456	30565.59
536.657	30776.53
536.857	29738.21
537.058	29185.26
537.259	29320.43
537.46	28685.56
537.66	28273.92
537.861	28108.03
538.062	27503.88
538.263	27528.45
538.463	26920.21
538.664	26791.19
538.865	26271
539.065	26148.12
539.266	25412.9
539.466	25759.01
539.667	24931.63
539.868	25038.12
540.068	24309.05
540.269	24085.82
540.469	23938.37
540.67	23559.49
540.87	23414.09
541.071	23209.29
541.271	23102.79
541.472	22324.57
541.672	22166.87
541.873	21921.12
542.073	21478.75
542.274	21706.08
542.474	21312.87
542.675	20860.27
542.875	20888.94
543.075	20596.08
543.276	20327.8
543.476	20092.28
543.676	19912.06
543.877	19729.79
544.077	19547.52
544.277	19049.86
544.478	19058.06
544.678	19023.24
544.878	18570.64
545.078	18560.4
545.279	18062.74
545.479	17974.68
545.679	17765.79
545.879	17497.5
546.079	17372.58
546.28	17122.73
546.48	16891.3
546.68	16872.87
546.88	16684.46
547.08	16244.15
547.28	16127.41
547.48	15859.13
547.68	15934.9
547.88	15363.52
548.081	15615.42
548.281	15203.78
548.481	15017.41
548.681	14939.59
548.881	14835.14
549.081	14497.23
549.28	14128.6
549.48	13977.05
549.68	13850.07
549.88	14015.96
550.08	13323.74
550.28	13286.88
550.48	13215.2
550.68	13102.56
550.88	12791.27
551.08	12697.06
551.279	12555.76
551.479	12115.44
551.679	12228.08
551.879	11783.67
552.079	11814.39
552.278	11585.02
552.478	11556.35
552.678	11392.51
552.878	11273.73
553.077	11027.97
553.277	10814.98
553.477	10679.82
553.676	10419.72
553.876	10257.93
554.076	9911.83
554.275	10001.94
554.475	9598.49
554.674	9709.08
554.874	9446.94
555.074	9422.36
555.273	9367.07
555.473	8898.08
555.672	8814.12
555.872	8619.56
556.071	8693.29
556.271	8646.18
556.47	8261.16
556.67	8310.32
556.869	8154.67
557.068	8042.03
557.268	7546.42
557.467	7624.25
557.667	7605.81
557.866	7525.94
558.065	7165.5
558.265	7233.08
558.464	6876.74
558.663	7073.34
558.863	6788.68
559.062	6878.79
559.261	6581.83
559.461	6774.34
559.66	6350.41
559.859	6387.27
560.058	6196.81
560.258	6104.65
560.457	6041.17
560.656	6190.67
560.855	5828.18
561.054	5799.51
561.253	5627.48
561.453	5822.03
561.652	5486.17
561.851	5563.99
562.05	5283.42
562.249	5203.55
562.448	5209.69
562.647	4988.51
562.846	5170.78
563.045	5066.33
563.244	4845.15
563.443	4947.55
563.642	4707.94
563.841	4671.08
564.04	4675.17
564.239	4707.94
564.438	4494.95
564.637	4224.62
564.836	4402.79
565.035	4224.62
565.234	4185.71
565.432	4167.28
565.631	4154.99
565.83	4060.78
566.029	4013.68
566.228	3964.53
566.427	3839.6
566.625	3690.1
566.824	3774.07
567.023	3698.29
567.222	3593.84
567.42	3597.94
567.619	3475.06
567.818	3552.88
568.016	3647.09
568.215	3411.57
568.414	3589.75
568.612	3313.27
568.811	3286.65
569.01	3174.01
569.208	3202.68
569.407	3303.03
569.605	3161.72
569.804	3012.22
570.002	3034.75
570.201	2887.29
570.4	2848.38
570.598	2889.34
570.797	2813.57
570.995	2737.79
571.193	2782.85
571.392	2662.02
571.59	2557.57
571.789	2625.15
571.987	2717.31
572.186	2627.2
572.384	2477.7
572.582	2547.33
572.781	2612.87
572.979	2334.34
573.177	2465.41
573.376	2315.91
573.574	2432.65
573.772	2223.75
573.971	2154.12
574.169	2094.73
574.367	2250.38
574.565	2043.53
574.763	2100.87
574.962	2057.87
575.16	2025.1
575.358	1875.6
575.556	1851.02
575.754	1996.43
575.952	1920.65
576.151	1830.54
576.349	1865.36
576.547	1670.8
576.745	1826.45
576.943	1728.14
577.141	1799.82
577.339	1558.16
577.537	1703.57
577.735	1756.82
577.933	1633.94
578.131	1396.37
578.329	1681.04
578.527	1648.27
578.725	1566.35
578.923	1402.52
579.121	1519.25
579.319	1267.35
579.516	1433.24
579.714	1633.94
579.912	1498.77
580.11	1164.95
580.308	1318.55
580.506	1332.89
580.704	1160.86
580.901	1306.26
581.099	1302.17
581.297	1156.76
581.495	1236.63
581.692	1169.05
581.89	1250.97
582.088	1242.78
582.285	1220.25
582.483	1087.13
582.681	1173.14
582.878	1119.9
583.076	1257.11
583.274	1093.27
583.471	1277.59
583.669	1013.4
583.866	962.2
584.064	927.39
584.262	906.91
584.459	941.72
584.657	1015.45
584.854	1056.41
585.052	919.2
585.249	1040.03
585.447	917.15
585.644	898.72
585.841	937.63
586.039	923.29
586.236	954.01
586.434	868
586.631	884.38
586.828	722.59
587.026	814.75
587.223	738.98
587.42	671.39
587.618	822.94
587.815	890.53
588.012	851.61
588.21	777.89
588.407	904.86
588.604	769.69
588.801	652.96
588.999	724.64
589.196	843.42
589.393	712.35
589.59	726.69
589.787	788.13
589.984	655.01
590.182	698.02
590.379	702.11
590.576	650.91
590.773	706.21
590.97	634.53
591.167	730.78
591.364	657.06
591.561	614.05
591.758	788.13
591.955	786.08
592.152	665.25
592.349	716.45
592.546	671.39
592.743	597.67
592.94	689.82
593.137	687.78
593.334	794.27
593.531	687.78
593.727	708.26
593.924	661.15
594.121	581.28
594.318	708.26
594.515	786.08
594.712	786.08
594.908	736.93
595.105	642.72
595.302	681.63
595.499	736.93
595.696	781.98
595.892	636.58
596.089	853.66
596.286	689.82
596.482	868
596.679	876.19
596.876	841.37
597.072	913.05
597.269	888.48
597.466	962.2
597.662	810.65
597.859	857.76
598.055	951.96
598.252	1001.12
598.448	1037.98
598.645	1132.19
598.841	1189.53
599.038	1175.19
599.234	1257.11
599.431	1244.82
599.627	1328.79
599.824	1416.85
600.02	1418.9
600.217	1363.61
600.413	1445.52
600.609	1511.06
600.806	1644.18
601.002	1693.33
601.198	1650.32
601.395	1654.42
601.591	1824.4
601.787	1832.59
601.984	2014.86
602.18	2064.01
602.376	2115.21
602.572	2242.18
602.769	2348.68
602.965	2469.51
603.161	2586.24
603.357	2565.76
603.553	2756.22
603.75	2702.98
603.946	2866.81
604.142	2870.91
604.338	3077.76
604.534	3038.84
604.73	3174.01
604.926	3174.01
605.122	3438.2
605.318	3475.06
605.514	3638.9
605.71	3751.54
605.906	4017.77
606.102	4111.98
606.298	4095.6
606.494	4314.73
606.69	4462.18
606.886	4419.18
607.082	4619.88
607.278	4632.16
607.474	4965.98
607.67	4988.51
607.866	5011.04
608.062	5256.79
608.257	5523.03
608.453	5533.27
608.649	5762.64
608.845	5703.25
609.041	5928.53
609.236	6137.42
609.432	6383.18
609.628	6600.26
609.824	6671.94
610.019	7032.38
610.215	7065.15
610.411	7368.25
610.606	7587.38
610.802	7530.04
610.998	8021.55
611.193	8199.73
611.389	8244.78
611.584	8476.2
611.78	8687.14
611.976	8881.7
612.171	9430.55
612.367	9551.38
612.562	9551.38
612.758	9975.31
612.953	10122.77
613.149	10509.83
613.344	10622.47
613.539	11073.03
613.735	11312.64
613.93	11537.91
614.126	11853.3
614.321	12457.45
614.517	12494.32
614.712	12918.25
614.907	13428.19
615.103	13592.03
615.298	13622.75
615.493	14425.55
615.688	14433.74
615.884	15263.17
616.079	15091.14
616.274	15846.84
616.47	16090.55
616.665	16315.83
616.86	16874.92
617.055	17274.28
617.25	17712.54
617.445	18359.7
617.641	18605.45
617.836	19244.42
618.031	19217.8
618.226	20344.18
618.421	20422
618.616	21167.46
618.811	20897.13
619.006	22211.93
619.201	22308.18
619.396	22908.24
619.591	22832.46
619.786	24159.55
619.981	24345.91
620.176	25134.38
620.371	25482.53
620.566	25842.98
620.761	26531.09
620.956	27254.03
621.151	27237.64
621.346	27841.79
621.541	28359.93
621.735	29367.53
621.93	29709.54
622.125	30313.69
622.32	30301.4
622.515	31552.71
622.709	31734.98
622.904	32400.57
623.099	32910.52
623.294	33533.1
623.488	33772.71
623.683	34890.9
623.878	35003.54
624.072	35658.89
624.267	36252.8
624.462	37022.84
624.656	37115
624.851	37969
625.046	38380.64
625.24	39367.76
625.435	39197.78
625.629	39963.72
625.824	40813.63
626.018	41192.5
626.213	41126.97
626.407	41784.37
626.602	41788.46
626.796	43002.91
626.991	43103.26
627.185	43676.69
627.38	43951.12
627.574	43906.06
627.768	44346.37
627.963	44872.7
628.157	44667.91
628.352	45188.09
628.546	44602.37
628.74	45134.84
628.935	45003.77
629.129	45050.88
629.323	44354.57
629.517	44495.88
629.712	44297.22
629.906	44200.97
630.1	43373.59
630.294	43478.04
630.489	42820.64
630.683	42603.55
630.877	41720.88
631.071	40922.17
631.265	40584.26
631.459	39717.96
631.653	38487.14
631.848	38452.32
632.042	37078.13
632.236	36738.17
632.43	34907.29
632.624	34804.89
632.818	33262.77
633.012	32177.34
633.206	31204.56
633.4	30600.41
633.594	29132.01
633.788	28726.52
633.982	27725.06
634.176	26672.4
634.369	25664.8
634.563	24636.72
634.757	23809.34
634.951	23121.23
635.145	22189.4
635.339	21048.68
635.533	20301.17
635.726	19565.95
635.92	18537.87
636.114	18191.77
636.308	16930.22
636.501	16606.64
636.695	15875.51
636.889	15287.75
637.083	14503.37
637.276	14007.76
637.47	13516.25
637.664	12795.37
637.857	12529.13
638.051	11902.45
638.244	11564.54
638.438	10892.8
638.632	11017.73
638.825	9831.96
639.019	9786.9
639.212	9365.02
639.406	9192.99
639.599	8701.48
639.793	8283.69
639.986	7904.82
640.18	7718.45
640.373	7521.85
640.567	7071.29
640.76	6983.23
640.954	6446.66
641.147	6362.7
641.34	6000.21
641.534	5856.85
641.727	5670.48
641.92	5369.43
642.114	5389.91
642.307	5133.92
642.5	4974.17
642.694	4636.26
642.887	4521.57
643.08	4433.51
643.273	4374.12
643.467	3966.57
643.66	3706.48
643.853	3704.43
644.046	3597.94
644.239	3473.01
644.432	3237.5
644.626	3096.19
644.819	3049.08
645.012	2995.84
645.205	2930.3
645.398	2760.32
645.591	2678.4
645.784	2446.98
645.977	2426.5
646.17	2334.34
646.363	2236.04
646.556	2086.54
646.749	1971.85
646.942	1924.75
647.135	1904.27
647.328	1885.84
647.521	1787.54
647.714	1722
647.907	1699.47
648.099	1654.42
648.292	1654.42
648.485	1463.96
648.678	1416.85
648.871	1275.54
649.064	1277.59
649.256	1152.67
649.449	1238.68
649.642	1083.03
649.835	1130.14
650.027	1068.7
650.22	1140.38
650.413	958.11
650.605	1078.94
650.798	880.29
650.991	863.9
651.183	863.9
651.376	994.97
651.568	865.95
651.761	814.75
651.954	765.6
652.146	704.16
652.339	775.84
652.531	767.65
652.724	634.53
652.916	642.72
653.109	499.36
653.301	687.78
653.494	646.82
653.686	636.58
653.879	687.78
654.071	585.38
654.263	505.51
654.456	560.8
654.648	568.99
654.84	530.08
655.033	478.88
655.225	505.51
655.417	333.48
655.61	673.44
655.802	448.16
655.994	503.46
656.186	390.82
656.379	544.42
656.571	364.2
656.763	364.2
656.955	345.77
657.148	302.76
657.34	399.01
657.532	317.09
657.724	325.29
657.916	384.68
658.108	413.35
658.3	317.09
658.492	310.95
658.684	224.94
658.876	401.06
659.068	206.5
659.26	161.45
659.452	212.65
659.644	280.23
659.836	380.58
660.028	251.56
660.22	272.04
660.412	237.22
660.604	220.84
660.796	222.89
660.988	294.57
661.18	218.79
661.372	341.67
661.563	296.61
661.755	190.12
661.947	155.3
662.139	128.68
662.331	128.68
662.522	212.65
662.714	165.54
662.906	126.63
663.097	206.5
663.289	183.98
663.481	118.44
663.673	237.22
663.864	161.45
664.056	167.59
664.247	106.15
664.439	292.52
664.631	130.73
664.822	235.18
665.014	102.06
665.205	108.2
665.397	116.39
665.588	214.7
665.78	54.95
665.971	208.55
666.163	114.34
666.354	200.36
666.546	100.01
666.737	124.58
666.929	77.48
667.12	153.26
667.311	151.21
667.503	159.4
667.694	183.98
667.885	186.02
668.077	186.02
668.268	20.14
668.459	157.35
668.651	79.53
668.842	183.98
669.033	157.35
669.224	54.95
669.416	188.07
669.607	89.77
669.798	108.2
669.989	206.5
670.18	44.71
670.371	204.46
670.563	67.24
670.754	132.78
670.945	261.8
671.136	241.32
671.327	59.05
671.518	261.8
671.709	239.27
671.9	169.64
672.091	241.32
672.282	167.59
672.473	75.43
672.664	136.87
672.855	130.73
673.046	188.07
673.237	247.46
673.428	145.06
673.619	196.26
673.809	128.68
674	261.8
674.191	208.55
674.382	95.91
674.573	147.11
674.764	140.97
674.954	216.74
675.145	73.39
675.336	89.77
675.527	91.82
675.717	42.67
675.908	9.9
676.099	145.06
676.289	175.78
676.48	40.62
676.671	136.87
676.861	136.87
677.052	112.3
677.243	36.52
677.433	132.78
677.624	177.83
677.814	241.32
678.005	97.96
678.195	267.94
678.386	118.44
678.576	222.89
678.767	46.76
678.957	136.87
679.148	134.82
679.338	298.66
679.529	208.55
679.719	157.35
679.909	216.74
680.1	159.4
680.29	153.26
680.481	112.3
680.671	241.32
680.861	110.25
681.052	108.2
681.242	106.15
681.432	181.93
681.622	190.12
681.813	61.1
682.003	136.87
682.193	77.48
682.383	171.69
682.573	161.45
682.764	153.26
682.954	188.07
683.144	229.03
683.334	97.96
683.524	118.44
683.714	202.41
683.904	159.4
684.094	140.97
684.284	136.87
684.474	255.65
684.664	259.75
684.854	112.3
685.044	138.92
685.234	192.17
685.424	208.55
685.614	155.3
685.804	319.14
685.994	192.17
686.184	157.35
686.374	175.78
686.564	157.35
686.753	175.78
686.943	161.45
687.133	241.32
687.323	179.88
687.513	206.5
687.702	151.21
687.892	110.25
688.082	214.7
688.272	245.41
688.461	231.08
688.651	241.32
688.841	269.99
689.03	124.58
689.22	167.59
689.41	241.32
689.599	241.32
689.789	85.67
689.979	313
690.168	171.69
690.358	243.37
690.547	110.25
690.737	274.09
690.926	196.26
691.116	222.89
691.305	177.83
691.495	196.26
691.684	124.58
691.874	143.02
692.063	126.63
692.252	356.01
692.442	267.94
692.631	120.49
692.82	218.79
693.01	147.11
693.199	128.68
693.388	153.26
693.578	186.02
693.767	243.37
693.956	183.98
694.146	177.83
694.335	147.11
694.524	165.54
694.713	294.57
694.902	165.54
695.092	171.69
695.281	175.78
695.47	177.83
695.659	175.78
695.848	175.78
696.037	134.82
696.226	208.55
696.415	112.3
696.604	224.94
696.793	183.98
696.982	54.95
697.171	280.23
697.36	91.82
697.549	110.25
697.738	71.34
697.927	124.58
698.116	134.82
698.305	208.55
698.494	167.59
698.683	163.5
698.872	276.13
699.061	155.3
699.25	188.07
699.438	179.88
699.627	120.49
699.816	267.94
700.005	22.19
700.193	159.4
700.382	186.02
700.571	243.37
700.76	239.27
700.948	171.69
701.137	206.5
701.326	282.28
701.514	145.06
701.703	204.46
701.892	167.59
702.08	351.91
702.269	165.54
702.457	61.1
702.646	161.45
702.834	120.49
703.023	255.65
703.212	241.32
703.4	155.3
703.589	171.69
703.777	167.59
703.965	77.48
704.154	116.39
704.342	145.06
704.531	124.58
704.719	114.34
704.907	208.55
705.096	63.15
705.284	100.01
705.472	128.68
705.661	167.59
705.849	239.27
706.037	259.75
706.226	222.89
706.414	204.46
706.602	97.96
706.79	235.18
706.979	69.29
707.167	181.93
707.355	85.67
707.543	181.93
707.731	216.74
707.919	132.78
708.107	198.31
708.296	163.5
708.484	52.91
708.672	143.02
708.86	214.7
709.048	151.21
709.236	143.02
709.424	204.46
709.612	132.78
709.8	122.54
709.988	231.08
710.176	237.22
710.364	294.57
710.551	204.46
710.739	200.36
710.927	110.25
711.115	120.49
711.303	261.8
711.491	290.47
711.679	95.91
711.866	138.92
712.054	110.25
712.242	175.78
712.43	204.46
712.617	36.52
712.805	253.61
712.993	190.12
713.181	81.58
713.368	239.27
713.556	79.53
713.744	173.74
713.931	368.29
714.119	128.68
714.306	145.06
714.494	57
714.682	175.78
714.869	50.86
715.057	194.22
715.244	61.1
715.432	220.84
715.619	110.25
715.807	134.82
715.994	120.49
716.182	132.78
716.369	192.17
716.556	173.74
716.744	77.48
716.931	71.34
717.119	171.69
717.306	155.3
717.493	196.26
717.681	198.31
717.868	112.3
718.055	196.26
718.242	155.3
718.43	206.5
718.617	235.18
718.804	73.39
718.991	229.03
719.179	216.74
719.366	306.85
719.553	188.07
719.74	214.7
719.927	136.87
720.114	173.74
720.301	147.11
720.488	159.4
720.676	106.15
720.863	286.37
721.05	278.18
721.237	208.55
721.424	222.89
721.611	165.54
721.798	100.01
721.985	153.26
722.172	179.88
722.358	192.17
722.545	239.27
722.732	259.75
722.919	229.03
723.106	239.27
723.293	140.97
723.48	251.56
723.667	122.54
723.853	269.99
724.04	247.46
724.227	212.65
724.414	165.54
724.6	284.33
724.787	386.72
724.974	384.68
725.161	210.6
725.347	87.72
725.534	257.7
725.72	226.98
725.907	263.85
726.094	278.18
726.28	161.45
726.467	257.7
726.653	183.98
726.84	265.89
727.027	372.39
727.213	93.87
727.4	274.09
727.586	173.74
727.773	192.17
727.959	179.88
728.145	161.45
728.332	259.75
728.518	194.22
728.705	269.99
728.891	239.27
729.077	218.79
729.264	153.26
729.45	177.83
729.636	212.65
729.823	167.59
730.009	237.22
730.195	212.65
730.382	233.13
730.568	157.35
730.754	237.22
730.94	249.51
731.126	220.84
731.313	218.79
731.499	247.46
731.685	290.47
731.871	218.79
732.057	192.17
732.243	313
732.429	265.89
732.615	321.19
732.801	292.52
732.987	243.37
733.173	179.88
733.359	224.94
733.545	226.98
733.731	220.84
733.917	323.24
734.103	226.98
734.289	214.7
734.475	106.15
734.661	376.48
734.847	300.71
735.033	284.33
735.219	274.09
735.404	134.82
735.59	208.55
735.776	188.07
735.962	222.89
736.148	210.6
736.333	325.29
736.519	210.6
736.705	274.09
736.89	204.46
737.076	155.3
737.262	155.3
737.447	143.02
737.633	204.46
737.819	253.61
738.004	241.32
738.19	169.64
738.375	196.26
738.561	333.48
738.747	263.85
738.932	161.45
739.118	345.77
739.303	208.55
739.489	212.65
739.674	192.17
739.859	179.88
740.045	190.12
740.23	210.6
740.416	153.26
740.601	243.37
740.786	89.77
740.972	159.4
741.157	224.94
741.342	155.3
741.528	149.16
741.713	274.09
741.898	132.78
742.084	157.35
742.269	239.27
742.454	183.98
742.639	315.05
742.824	159.4
743.01	263.85
743.195	339.62
743.38	216.74
743.565	126.63
743.75	175.78
743.935	259.75
744.12	292.52
744.305	134.82
744.49	167.59
744.675	204.46
744.86	235.18
745.045	220.84
745.23	245.41
745.415	274.09
745.6	325.29
745.785	110.25
745.97	300.71
746.155	267.94
746.34	276.13
746.525	194.22
746.71	286.37
746.895	118.44
747.079	128.68
747.264	241.32
747.449	339.62
747.634	247.46
747.819	259.75
748.003	224.94
748.188	161.45
748.373	198.31
748.557	282.28
748.742	134.82
748.927	263.85
749.111	114.34
749.296	222.89
749.481	224.94
749.665	159.4
749.85	93.87
750.034	183.98
750.219	196.26
750.404	169.64
750.588	298.66
750.773	61.1
750.957	145.06
751.141	229.03
751.326	196.26
751.51	173.74
751.695	165.54
751.879	126.63
752.064	255.65
752.248	216.74
752.432	304.81
752.617	202.41
752.801	259.75
752.985	194.22
753.17	251.56
753.354	138.92
753.538	132.78
753.722	124.58
753.907	104.11
754.091	52.91
754.275	220.84
754.459	75.43
754.643	108.2
754.828	132.78
755.012	181.93
755.196	65.19
755.38	138.92
755.564	46.76
755.748	120.49
755.932	169.64
756.116	208.55
756.3	220.84
756.484	128.68
756.668	229.03
756.852	73.39
757.036	30.38
757.22	220.84
757.404	128.68
757.588	7.85
757.772	200.36
757.956	138.92
758.14	294.57
758.323	-29.01
758.507	116.39
758.691	77.48
758.875	214.7
759.059	251.56
759.242	63.15
759.426	63.15
759.61	173.74
759.794	11.95
759.977	200.36
760.161	288.42
760.345	192.17
760.528	239.27
760.712	102.06
760.895	118.44
761.079	153.26
761.263	-51.54
761.446	93.87
761.63	91.82
761.813	149.16
761.997	5.8
762.18	3.75
762.364	171.69
762.547	-33.11
762.731	124.58
762.914	104.11
763.098	50.86
763.281	81.58
763.464	69.29
763.648	143.02
763.831	65.19
764.015	36.52
764.198	192.17
764.381	20.14
764.564	67.24
764.748	134.82
764.931	145.06
765.114	122.54
765.297	177.83
765.481	11.95
765.664	67.24
765.847	40.62
766.03	140.97
766.213	-0.34
766.397	169.64
766.58	-39.25
766.763	120.49
766.946	30.38
767.129	-16.73
767.312	108.2
767.495	67.24
767.678	40.62
767.861	63.15
768.044	102.06
768.227	81.58
768.41	57
768.593	75.43
768.776	128.68
768.959	100.01
769.142	138.92
769.324	38.57
769.507	-18.77
769.69	24.23
769.873	32.43
770.056	206.5
770.239	63.15
770.421	91.82
770.604	186.02
770.787	77.48
770.97	112.3
771.152	52.91
771.335	161.45
771.518	13.99
771.7	116.39
771.883	206.5
772.066	24.23
772.248	48.81
772.431	155.3
772.613	132.78
772.796	87.72
772.978	161.45
773.161	173.74
773.343	13.99
773.526	42.67
773.708	-20.82
773.891	-22.87
774.073	30.38
774.256	42.67
774.438	220.84
774.621	42.67
774.803	128.68
774.985	69.29
775.168	36.52
775.35	136.87
775.532	167.59
775.715	11.95
775.897	73.39
776.079	63.15
776.261	75.43
776.444	-24.92
776.626	22.19
776.808	48.81
776.99	-37.2
777.173	97.96
777.355	18.09
777.537	59.05
777.719	63.15
777.901	-51.54
778.083	16.04
778.265	11.95
778.447	110.25
778.629	7.85
778.811	54.95
778.993	3.75
779.175	153.26
779.357	-16.73
779.539	-16.73
779.721	87.72
779.903	112.3
780.085	18.09
780.267	89.77
780.449	61.1
780.631	50.86
780.812	134.82
780.994	46.76
781.176	7.85
781.358	46.76
781.54	28.33
781.721	65.19
781.903	128.68
782.085	87.72
782.267	-14.68
782.448	11.95
782.63	57
782.812	16.04
782.993	44.71
783.175	69.29
783.357	18.09
783.538	106.15
783.72	-57.68
783.901	36.52
784.083	67.24
784.264	71.34
784.446	-90.45
784.627	7.85
784.809	36.52
784.99	-31.06
785.172	57
785.353	-10.58
785.535	-2.39
785.716	9.9
785.897	-10.58
786.079	-8.53
786.26	79.53
786.441	85.67
786.623	-26.96
786.804	9.9
786.985	11.95
787.167	59.05
787.348	-37.2
787.529	42.67
787.71	155.3
787.891	61.1
788.073	30.38
788.254	-72.02
788.435	171.69
788.616	36.52
788.797	5.8
788.978	7.85
789.159	-84.31
789.34	83.63
789.522	20.14
789.703	-2.39
789.884	61.1
790.065	13.99
790.246	210.6
790.427	20.14
790.607	157.35
790.788	97.96
790.969	73.39
791.15	44.71
791.331	-29.01
791.512	-20.82
791.693	-0.34
791.874	7.85
792.054	216.74
792.235	104.11
792.416	-80.21
792.597	65.19
792.778	28.33
792.958	97.96
793.139	83.63
793.32	63.15
793.5	-88.4
793.681	85.67
793.862	-16.73
794.042	1.71
794.223	-74.07
794.404	-61.78
794.584	-67.92
794.765	40.62
794.945	-18.77
795.126	124.58
795.306	67.24
795.487	36.52
795.667	-2.39
795.848	-31.06
796.028	-6.49
796.209	34.47
796.389	114.34
796.57	40.62
796.75	-22.87
796.93	-29.01
797.111	40.62
797.291	-10.58
797.471	106.15
797.652	-8.53
797.832	-16.73
798.012	83.63
798.192	-49.49
798.373	-6.49
798.553	5.8
798.733	32.43
798.913	-22.87
799.093	-20.82
799.274	28.33
799.454	89.77
799.634	71.34
799.814	143.02
799.994	114.34
800.174	91.82
800.354	50.86
800.534	-35.16
800.714	40.62
800.894	-90.45
801.074	-67.92
801.254	-33.11
801.434	106.15
801.614	-39.25
801.794	-74.07
801.974	1631.89
802.154	-67.92
802.334	77.48
802.514	-33.11
802.693	-39.25
802.873	46.76
803.053	138.92
803.233	44.71
803.413	-2.39
803.592	-2.39
803.772	-100.69
803.952	-0.34
804.131	-86.36
804.311	89.77
804.491	81.58
804.67	-31.06
804.85	-57.68
805.03	-47.44
805.209	95.91
805.389	-57.68
805.568	-20.82
805.748	50.86
805.928	-33.11
806.107	26.28
806.287	30.38
806.466	104.11
806.646	-86.36
806.825	-49.49
807.004	-24.92
807.184	85.67
807.363	50.86
807.543	-86.36
807.722	-98.64
807.901	112.3
808.081	63.15
808.26	-139.6
808.439	61.1
808.619	-26.96
808.798	-29.01
808.977	112.3
809.156	95.91
809.336	-14.68
809.515	73.39
809.694	-82.26
809.873	-24.92
810.052	48.81
810.231	75.43
810.411	-49.49
810.59	77.48
810.769	-43.35
810.948	83.63
811.127	-86.36
811.306	-45.4
811.485	-43.35
811.664	155.3
811.843	-102.74
812.022	-10.58
812.201	-39.25
812.38	-67.92
812.559	-82.26
812.737	-8.53
812.916	-96.6
813.095	-12.63
813.274	28.33
813.453	-12.63
813.632	-22.87
813.811	116.39
813.989	-102.74
814.168	-6.49
814.347	-59.73
814.526	9.9
814.704	69.29
814.883	89.77
815.062	-115.03
815.24	24.23
815.419	-76.12
815.598	9.9
815.776	-135.51
815.955	9.9
816.133	-121.17
816.312	-43.35
816.49	-39.25
816.669	28.33
816.847	-47.44
817.026	-22.87
817.204	-16.73
817.383	-12.63
817.561	-74.07
817.74	-14.68
817.918	-88.4
818.097	-69.97
818.275	-57.68
818.453	42.67
818.632	-26.96
818.81	-33.11
818.988	-63.83
819.167	-45.4
819.345	9.9
819.523	-4.44
819.701	3.75
819.879	18.09
820.058	-47.44
820.236	-31.06
820.414	-2.39
820.592	-33.11
820.77	-80.21
820.948	3.75
821.127	-55.64
821.305	-8.53
821.483	-74.07
821.661	30.38
821.839	-10.58
822.017	-88.4
822.195	-47.44
822.373	40.62
822.551	-41.3
822.729	-16.73
822.907	-35.16
823.085	57
823.262	-49.49
823.44	-37.2
823.618	-35.16
823.796	-10.58
823.974	-61.78
824.152	-78.16
824.329	-49.49
824.507	20.14
824.685	16.04
824.863	36.52
825.04	-4.44
825.218	20.14
825.396	-6.49
825.574	-26.96
825.751	9.9
825.929	93.87
826.107	-86.36
826.284	52.91
826.462	20.14
826.639	-10.58
826.817	-80.21
826.994	-6.49
827.172	-100.69
827.349	151.21
827.527	52.91
827.704	65.19
827.882	32.43
828.059	28.33
828.237	-0.34
828.414	36.52
828.591	-155.99
828.769	-20.82
828.946	-76.12
829.124	44.71
829.301	44.71
829.478	-8.53
829.655	-37.2
829.833	69.29
830.01	-106.84
830.187	-12.63
830.364	-20.82
830.542	40.62
830.719	122.54
830.896	81.58
831.073	-4.44
831.25	-22.87
831.427	81.58
831.604	-10.58
831.782	-74.07
831.959	-20.82
832.136	36.52
832.313	38.57
832.49	-49.49
832.667	13.99
832.844	-76.12
833.021	151.21
833.198	89.77
833.374	34.47
833.551	3.75
833.728	-10.58
833.905	108.2
834.082	-108.88
834.259	-0.34
834.436	44.71
834.612	-18.77
834.789	48.81
834.966	-0.34
835.143	36.52
835.319	-96.6
835.496	7.85
835.673	44.71
835.85	54.95
836.026	9.9
836.203	93.87
836.38	-49.49
836.556	-69.97
836.733	-119.12
836.909	93.87
837.086	-110.93
837.262	-84.31
837.439	-92.5
837.616	-45.4
837.792	-12.63
837.968	42.67
838.145	-90.45
838.321	-2.39
838.498	40.62
838.674	-29.01
838.851	48.81
839.027	-69.97
839.203	-49.49
839.38	-2.39
839.556	-104.79
839.732	124.58
839.909	-59.73
840.085	59.05
840.261	-61.78
840.437	30.38
840.614	-45.4
840.79	153.26
840.966	22.19
841.142	-65.88
841.318	-49.49
841.494	16.04
841.671	-2.39
841.847	-188.75
842.023	-143.7
842.199	13.99
842.375	143.02
842.551	-102.74
842.727	-47.44
842.903	128.68
843.079	-51.54
843.255	48.81
843.431	-4.44
843.607	18.09
843.783	-190.8
843.959	-29.01
844.134	-47.44
844.31	93.87
844.486	-69.97
844.662	-45.4
844.838	-100.69
845.013	112.3
845.189	18.09
845.365	3.75
845.541	18.09
845.716	-6.49
845.892	26.28
846.068	-94.55
846.244	-53.59
846.419	5.8
846.595	3.75
846.77	-43.35
846.946	24.23
847.122	1.71
847.297	-57.68
847.473	59.05
847.648	-141.65
847.824	112.3
847.999	-162.13
848.175	-43.35
848.35	16.04
848.526	143.02
848.701	116.39
848.876	30.38
849.052	42.67
849.227	-18.77
849.403	-43.35
849.578	-14.68
849.753	79.53
849.929	124.58
850.104	-86.36
850.279	-74.07
850.454	-2.39
850.63	89.77
850.805	-0.34
850.98	-10.58
851.155	22.19
851.33	-4.44
851.505	-43.35
851.681	155.3
851.856	-59.73
852.031	81.58
852.206	36.52
852.381	-55.64
852.556	-35.16
852.731	-31.06
852.906	36.52
853.081	48.81
853.256	-10.58
853.431	-0.34
853.606	-33.11
853.781	-4.44
853.956	-141.65
854.131	67.24
854.305	-108.88
854.48	-65.88
854.655	-57.68
854.83	-35.16
855.005	28.33
855.18	-8.53
855.354	40.62
855.529	-10.58
855.704	-18.77
855.879	11.95
856.053	-72.02
856.228	7.85
856.403	-80.21
856.577	-22.87
856.752	-141.65
856.926	22.19
857.101	26.28
857.276	-110.93
857.45	52.91
857.625	7.85
857.799	-63.83
857.974	11.95
858.148	-123.22
858.323	-10.58
858.497	-90.45
858.672	5.8
858.846	-55.64
859.02	13.99
859.195	-43.35
859.369	-4.44
859.543	48.81
859.718	-37.2
859.892	-51.54
860.066	-45.4
860.241	-78.16
860.415	-76.12
860.589	-65.88
860.763	16.04
860.938	-4.44
861.112	-76.12
861.286	-57.68
861.46	32.43
861.634	22.19
861.808	-6.49
861.982	-53.59
862.157	-139.6
862.331	-0.34
862.505	-69.97
862.679	-88.4
862.853	24.23
863.027	-102.74
863.201	157.35
863.375	5.8
863.549	77.48
863.722	1.71
863.896	91.82
864.07	-88.4
864.244	-37.2
864.418	91.82
864.592	-10.58
864.766	-24.92
864.939	-6.49
865.113	36.52
865.287	126.63
865.461	-90.45
865.634	-78.16
865.808	-47.44
865.982	-57.68
866.156	-41.3
866.329	-78.16
866.503	-31.06
866.676	100.01
866.85	97.96
867.024	-63.83
867.197	42.67
867.371	61.1
867.544	-6.49
867.718	-76.12
867.891	24.23
868.065	-82.26
868.238	-39.25
868.412	52.91
868.585	-2.39
868.759	-18.77
868.932	-0.34
869.105	-94.55
869.279	69.29
869.452	-86.36
869.625	-33.11
869.799	-6.49
869.972	-106.84
870.145	-43.35
870.319	69.29
870.492	-18.77
870.665	-129.36
870.838	-80.21
871.011	-117.08
871.185	-8.53
871.358	-63.83
871.531	85.67
871.704	-14.68
871.877	5.8
872.05	-96.6
872.223	-131.41
872.396	95.91
872.569	22.19
872.742	-94.55
872.915	22.19
873.088	-45.4
873.261	-80.21
873.434	3.75
873.607	-39.25
873.78	106.15
873.953	-53.59
874.126	-86.36
874.299	7.85
874.471	-4.44
874.644	28.33
874.817	-39.25
874.99	26.28
875.163	-35.16
875.335	-29.01
875.508	-49.49
875.681	40.62
875.853	-29.01
876.026	24.23
876.199	50.86
876.371	-10.58
876.544	-76.12
876.717	38.57
876.889	-10.58
877.062	-6.49
877.234	-112.98
877.407	-33.11
877.579	-8.53
877.752	34.47
877.924	34.47
878.097	-63.83
878.269	-2.39
878.442	9.9
878.614	9.9
878.786	-33.11
878.959	-39.25
879.131	-6.49
879.303	-115.03
879.476	-78.16
879.648	-12.63
879.82	-55.64
879.993	-72.02
880.165	-43.35
880.337	-53.59
880.509	42.67
880.681	-125.27
880.854	-137.56
881.026	59.05
881.198	163.5
881.37	-61.78
881.542	30.38
881.714	48.81
881.886	1.71
882.058	-2.39
882.23	3.75
882.402	-22.87
882.574	13.99
882.746	-6.49
882.918	54.95
883.09	32.43
883.262	-59.73
883.434	-43.35
883.606	-184.66
883.778	-51.54
883.95	44.71
884.122	-61.78
884.293	52.91
884.465	-67.92
884.637	104.11
884.809	-69.97
884.98	-20.82
885.152	44.71
885.324	59.05
885.496	-2.39
885.667	-6.49
885.839	-90.45
886.011	11.95
886.182	40.62
886.354	63.15
886.525	-33.11
886.697	-59.73
886.869	-96.6
887.04	-123.22
887.212	153.26
887.383	132.78
887.555	-18.77
887.726	-14.68
887.897	5.8
888.069	20.14
888.24	18.09
888.412	-14.68
888.583	7.85
888.754	52.91
888.926	-143.7
889.097	-37.2
889.268	-112.98
889.44	-8.53
889.611	-76.12
889.782	-72.02
889.953	-61.78
890.125	32.43
890.296	-86.36
890.467	-151.89
890.638	-43.35
890.809	-41.3
890.98	-112.98
891.151	-2.39
891.323	79.53
891.494	-14.68
891.665	-86.36
891.836	-88.4
892.007	-4.44
892.178	38.57
892.349	16.04
892.52	-110.93
892.691	20.14
892.862	3.75
893.032	-164.18
893.203	-74.07
893.374	13.99
893.545	57
893.716	-74.07
893.887	-4.44
894.057	-31.06
894.228	-24.92
894.399	-78.16
894.57	120.49
894.74	-12.63
894.911	-55.64
895.082	-96.6
895.253	-49.49
895.423	-24.92
895.594	71.34
895.764	38.57
895.935	-57.68
896.106	40.62
896.276	-8.53
896.447	-8.53
896.617	-69.97
896.788	-57.68
896.958	38.57
897.129	-84.31
897.299	-49.49
897.47	102.06
897.64	-35.16
897.81	-29.01
897.981	1.71
898.151	-22.87
898.322	-16.73
898.492	-49.49
898.662	-108.88
898.832	-45.4
899.003	-53.59
899.173	48.81
899.343	16.04
899.513	-108.88
