Data from USB4F104151__57__10-43-43-674.txt Node

Date: Wed Feb 26 10:43:43 EST 2025
User: louis
Spectrometer: USB4F10415
Trigger mode: 4
Integration Time (sec): 1.000000E-1
Scans to average: 1
Electric dark correction enabled: true
Nonlinearity correction enabled: false
Boxcar width: 0
XAxis mode: Wavelengths
Number of Pixels in Spectrum: 3648
>>>>>Begin Spectral Data<<<<<
178.204	-365.73
178.424	-365.73
178.644	-365.73
178.864	-361.64
179.084	-367.78
179.304	-17.58
179.524	2.9
179.744	-17.58
179.964	93.01
180.184	21.33
180.404	41.81
180.624	4.95
180.844	-19.63
181.064	-95.4
181.283	0.85
181.503	-9.39
181.723	-5.29
181.943	-38.06
182.163	174.93
182.383	21.33
182.602	160.59
182.822	181.07
183.042	66.39
183.262	-15.53
183.482	45.91
183.701	52.05
183.921	131.92
184.141	-72.87
184.361	54.1
184.58	117.59
184.8	52.05
185.02	35.67
185.239	88.92
185.459	127.83
185.679	179.03
185.898	-93.35
186.118	45.91
186.338	97.11
186.557	142.16
186.777	-21.67
186.997	17.24
187.216	123.73
187.436	242.51
187.655	99.16
187.875	80.72
188.095	29.52
188.314	183.12
188.534	131.92
188.753	-99.5
188.973	183.12
189.192	170.83
189.412	29.52
189.631	9.05
189.851	43.86
190.07	160.59
190.29	-17.58
190.509	72.53
190.729	4.95
190.948	113.49
191.168	269.14
191.387	109.4
191.607	88.92
191.826	93.01
192.045	39.76
192.265	58.2
192.484	25.43
192.704	-17.58
192.923	0.85
193.142	222.03
193.362	176.98
193.581	115.54
193.8	72.53
194.02	111.44
194.239	82.77
194.458	88.92
194.678	76.63
194.897	2.9
195.116	72.53
195.335	68.44
195.555	115.54
195.774	0.85
195.993	205.65
196.212	-29.87
196.432	-9.39
196.651	37.72
196.87	27.48
197.089	277.33
197.308	47.96
197.528	107.35
197.747	-3.24
197.966	45.91
198.185	117.59
198.404	21.33
198.623	84.82
198.842	136.02
199.062	97.11
199.281	99.16
199.5	103.25
199.719	93.01
199.938	60.24
200.157	154.45
200.376	99.16
200.595	72.53
200.814	74.58
201.033	4.95
201.252	148.31
201.471	70.48
201.69	174.93
201.909	23.38
202.128	164.69
202.347	56.15
202.566	74.58
202.785	-17.58
203.004	0.85
203.223	273.23
203.442	80.72
203.661	-101.55
203.879	142.16
204.098	43.86
204.317	-97.45
204.536	86.87
204.755	111.44
204.974	60.24
205.193	-1.19
205.411	174.93
205.63	105.3
205.849	90.96
206.068	17.24
206.287	-42.15
206.505	93.01
206.724	142.16
206.943	7
207.162	17.24
207.381	78.68
207.599	66.39
207.818	68.44
208.037	23.38
208.255	33.62
208.474	76.63
208.693	17.24
208.911	9.05
209.13	107.35
209.349	119.64
209.567	133.97
209.786	56.15
210.005	95.06
210.223	60.24
210.442	-56.49
210.661	54.1
210.879	60.24
211.098	29.52
211.316	97.11
211.535	78.68
211.753	-13.48
211.972	107.35
212.191	60.24
212.409	101.2
212.628	156.5
212.846	0.85
213.065	35.67
213.283	187.22
213.502	103.25
213.72	62.29
213.938	-23.72
214.157	70.48
214.375	70.48
214.594	0.85
214.812	109.4
215.031	19.29
215.249	123.73
215.467	39.76
215.686	121.68
215.904	111.44
216.122	21.33
216.341	158.55
216.559	97.11
216.778	146.26
216.996	144.21
217.214	19.29
217.432	7
217.651	-15.53
217.869	84.82
218.087	113.49
218.306	0.85
218.524	21.33
218.742	-23.72
218.96	125.78
219.179	43.86
219.397	9.05
219.615	258.9
219.833	156.5
220.051	11.09
220.27	136.02
220.488	90.96
220.706	64.34
220.924	-11.43
221.142	-13.48
221.36	80.72
221.578	43.86
221.796	70.48
222.015	15.19
222.233	54.1
222.451	185.17
222.669	-17.58
222.887	80.72
223.105	54.1
223.323	-25.77
223.541	-64.68
223.759	23.38
223.977	74.58
224.195	125.78
224.413	105.3
224.631	103.25
224.849	160.59
225.067	226.13
225.285	-9.39
225.503	54.1
225.721	-58.54
225.939	123.73
226.157	82.77
226.375	193.36
226.592	-70.83
226.81	64.34
227.028	168.79
227.246	80.72
227.464	29.52
227.682	101.2
227.9	156.5
228.117	105.3
228.335	-9.39
228.553	170.83
228.771	-3.24
228.989	11.09
229.206	156.5
229.424	4.95
229.642	-5.29
229.86	-1.19
230.077	193.36
230.295	4.95
230.513	121.68
230.731	76.63
230.948	156.5
231.166	236.37
231.384	13.14
231.601	9.05
231.819	224.08
232.037	4.95
232.254	-38.06
232.472	64.34
232.689	7
232.907	146.26
233.125	-9.39
233.342	29.52
233.56	-31.91
233.777	47.96
233.995	58.2
234.213	160.59
234.43	107.35
234.648	19.29
234.865	43.86
235.083	90.96
235.3	72.53
235.518	99.16
235.735	201.55
235.953	97.11
236.17	105.3
236.388	62.29
236.605	84.82
236.822	78.68
237.04	52.05
237.257	101.2
237.475	-46.25
237.692	11.09
237.909	45.91
238.127	99.16
238.344	64.34
238.562	107.35
238.779	17.24
238.996	-99.5
239.214	64.34
239.431	164.69
239.648	11.09
239.865	68.44
240.083	86.87
240.3	80.72
240.517	-19.63
240.735	50
240.952	52.05
241.169	160.59
241.386	45.91
241.603	125.78
241.821	-25.77
242.038	66.39
242.255	152.4
242.472	2.9
242.689	127.83
242.907	97.11
243.124	13.14
243.341	154.45
243.558	-54.44
243.775	123.73
243.992	50
244.209	146.26
244.426	222.03
244.643	90.96
244.86	64.34
245.078	68.44
245.295	84.82
245.512	121.68
245.729	33.62
245.946	52.05
246.163	129.88
246.38	-19.63
246.597	117.59
246.814	86.87
247.031	64.34
247.248	-87.21
247.464	80.72
247.681	60.24
247.898	90.96
248.115	-36.01
248.332	-85.16
248.549	185.17
248.766	140.12
248.983	78.68
249.2	86.87
249.417	170.83
249.633	80.72
249.85	138.07
250.067	117.59
250.284	19.29
250.501	162.64
250.717	88.92
250.934	-27.82
251.151	21.33
251.368	-1.19
251.585	97.11
251.801	58.2
252.018	88.92
252.235	117.59
252.451	2.9
252.668	27.48
252.885	115.54
253.102	68.44
253.318	-66.73
253.535	0.85
253.752	37.72
253.968	64.34
254.185	13.14
254.401	-1.19
254.618	138.07
254.835	80.72
255.051	50
255.268	74.58
255.484	66.39
255.701	78.68
255.917	23.38
256.134	15.19
256.351	78.68
256.567	-52.39
256.784	105.3
257	-58.54
257.217	111.44
257.433	158.55
257.65	-44.2
257.866	213.84
258.082	7
258.299	17.24
258.515	45.91
258.732	41.81
258.948	-64.68
259.165	82.77
259.381	29.52
259.597	95.06
259.814	103.25
260.03	66.39
260.246	25.43
260.463	82.77
260.679	113.49
260.895	35.67
261.112	109.4
261.328	37.72
261.544	-76.97
261.761	129.88
261.977	15.19
262.193	45.91
262.409	90.96
262.626	123.73
262.842	82.77
263.058	50
263.274	138.07
263.49	52.05
263.707	136.02
263.923	86.87
264.139	-83.11
264.355	88.92
264.571	74.58
264.787	109.4
265.004	172.88
265.22	74.58
265.436	-11.43
265.652	-17.58
265.868	138.07
266.084	-74.92
266.3	2.9
266.516	27.48
266.732	84.82
266.948	56.15
267.164	115.54
267.38	45.91
267.596	125.78
267.812	197.46
268.028	37.72
268.244	76.63
268.46	0.85
268.676	-50.35
268.892	66.39
269.108	-21.67
269.324	-50.35
269.54	82.77
269.756	121.68
269.972	35.67
270.188	103.25
270.403	-52.39
270.619	-9.39
270.835	117.59
271.051	33.62
271.267	64.34
271.483	101.2
271.698	127.83
271.914	41.81
272.13	105.3
272.346	35.67
272.562	0.85
272.777	166.74
272.993	64.34
273.209	37.72
273.425	123.73
273.64	-60.59
273.856	64.34
274.072	-66.73
274.287	52.05
274.503	35.67
274.719	162.64
274.934	35.67
275.15	-7.34
275.366	76.63
275.581	-1.19
275.797	-9.39
276.012	123.73
276.228	19.29
276.444	-29.87
276.659	154.45
276.875	90.96
277.09	60.24
277.306	35.67
277.521	56.15
277.737	82.77
277.952	84.82
278.168	76.63
278.383	21.33
278.599	115.54
278.814	129.88
279.03	76.63
279.245	131.92
279.461	11.09
279.676	142.16
279.892	-31.91
280.107	-15.53
280.322	-74.92
280.538	115.54
280.753	29.52
280.969	97.11
281.184	25.43
281.399	160.59
281.615	35.67
281.83	33.62
282.045	11.09
282.26	68.44
282.476	52.05
282.691	90.96
282.906	121.68
283.122	64.34
283.337	-48.3
283.552	111.44
283.767	19.29
283.983	97.11
284.198	101.2
284.413	25.43
284.628	33.62
284.843	80.72
285.058	4.95
285.274	62.29
285.489	29.52
285.704	150.36
285.919	41.81
286.134	35.67
286.349	93.01
286.564	45.91
286.779	115.54
286.995	39.76
287.21	-60.59
287.425	115.54
287.64	-33.96
287.855	105.3
288.07	-7.34
288.285	158.55
288.5	131.92
288.715	111.44
288.93	-1.19
289.145	-9.39
289.36	64.34
289.575	2.9
289.79	168.79
290.004	88.92
290.219	66.39
290.434	68.44
290.649	68.44
290.864	41.81
291.079	-46.25
291.294	105.3
291.509	101.2
291.724	7
291.938	88.92
292.153	43.86
292.368	11.09
292.583	88.92
292.798	107.35
293.012	86.87
293.227	242.51
293.442	82.77
293.657	105.3
293.871	187.22
294.086	58.2
294.301	211.79
294.516	140.12
294.73	74.58
294.945	39.76
295.16	62.29
295.374	191.31
295.589	72.53
295.804	-19.63
296.018	68.44
296.233	121.68
296.447	21.33
296.662	58.2
296.877	146.26
297.091	115.54
297.306	58.2
297.52	19.29
297.735	140.12
297.949	95.06
298.164	25.43
298.378	-11.43
298.593	-54.44
298.807	33.62
299.022	-7.34
299.236	162.64
299.451	58.2
299.665	-7.34
299.88	-7.34
300.094	148.31
300.309	47.96
300.523	47.96
300.737	62.29
300.952	119.64
301.166	19.29
301.381	35.67
301.595	54.1
301.809	13.14
302.024	101.2
302.238	-56.49
302.452	127.83
302.667	82.77
302.881	142.16
303.095	123.73
303.309	37.72
303.524	31.57
303.738	-9.39
303.952	-9.39
304.166	101.2
304.381	-134.31
304.595	168.79
304.809	35.67
305.023	95.06
305.237	80.72
305.452	64.34
305.666	95.06
305.88	125.78
306.094	174.93
306.308	95.06
306.522	170.83
306.736	129.88
306.95	127.83
307.164	80.72
307.379	68.44
307.593	144.21
307.807	164.69
308.021	166.74
308.235	84.82
308.449	-89.26
308.663	50
308.877	289.62
309.091	117.59
309.305	58.2
309.519	-74.92
309.733	129.88
309.947	-91.31
310.161	39.76
310.374	105.3
310.588	154.45
310.802	-1.19
311.016	-38.06
311.23	54.1
311.444	27.48
311.658	76.63
311.872	90.96
312.085	138.07
312.299	234.32
312.513	174.93
312.727	66.39
312.941	-9.39
313.154	66.39
313.368	21.33
313.582	56.15
313.796	105.3
314.009	54.1
314.223	168.79
314.437	58.2
314.651	133.97
314.864	62.29
315.078	37.72
315.292	-3.24
315.505	33.62
315.719	90.96
315.933	21.33
316.146	21.33
316.36	19.29
316.573	183.12
316.787	56.15
317.001	103.25
317.214	-5.29
317.428	25.43
317.641	0.85
317.855	-5.29
318.068	39.76
318.282	31.57
318.495	246.61
318.709	88.92
318.922	-3.24
319.136	133.97
319.349	207.7
319.563	17.24
319.776	146.26
319.99	13.14
320.203	99.16
320.417	68.44
320.63	148.31
320.843	160.59
321.057	78.68
321.27	133.97
321.483	117.59
321.697	191.31
321.91	54.1
322.124	129.88
322.337	84.82
322.55	45.91
322.763	74.58
322.977	17.24
323.19	47.96
323.403	35.67
323.617	121.68
323.83	160.59
324.043	47.96
324.256	62.29
324.469	-52.39
324.683	185.17
324.896	82.77
325.109	64.34
325.322	-9.39
325.535	97.11
325.748	95.06
325.962	7
326.175	68.44
326.388	107.35
326.601	97.11
326.814	29.52
327.027	47.96
327.24	146.26
327.453	-101.55
327.666	74.58
327.879	160.59
328.092	80.72
328.305	138.07
328.518	52.05
328.731	54.1
328.944	93.01
329.157	84.82
329.37	-23.72
329.583	170.83
329.796	213.84
330.009	-29.87
330.222	146.26
330.435	154.45
330.648	84.82
330.861	47.96
331.073	37.72
331.286	97.11
331.499	105.3
331.712	11.09
331.925	9.05
332.138	64.34
332.35	138.07
332.563	66.39
332.776	181.07
332.989	-21.67
333.202	72.53
333.414	29.52
333.627	35.67
333.84	-38.06
334.053	160.59
334.265	-27.82
334.478	17.24
334.691	-17.58
334.903	62.29
335.116	25.43
335.329	27.48
335.541	27.48
335.754	148.31
335.966	58.2
336.179	23.38
336.392	99.16
336.604	80.72
336.817	86.87
337.029	68.44
337.242	95.06
337.454	111.44
337.667	29.52
337.88	164.69
338.092	80.72
338.305	133.97
338.517	2.9
338.729	93.01
338.942	154.45
339.154	29.52
339.367	-11.43
339.579	84.82
339.792	-54.44
340.004	123.73
340.217	97.11
340.429	111.44
340.641	11.09
340.854	-15.53
341.066	97.11
341.278	72.53
341.491	228.18
341.703	47.96
341.915	-15.53
342.128	133.97
342.34	88.92
342.552	-21.67
342.764	68.44
342.977	82.77
343.189	168.79
343.401	66.39
343.613	-31.91
343.826	52.05
344.038	-48.3
344.25	70.48
344.462	-74.92
344.674	86.87
344.886	82.77
345.099	90.96
345.311	50
345.523	37.72
345.735	-48.3
345.947	68.44
346.159	80.72
346.371	39.76
346.583	103.25
346.795	152.4
347.007	35.67
347.219	78.68
347.431	-23.72
347.643	131.92
347.855	93.01
348.067	199.51
348.279	-13.48
348.491	111.44
348.703	213.84
348.915	-7.34
349.127	19.29
349.339	66.39
349.551	0.85
349.763	179.03
349.975	4.95
350.187	105.3
350.399	156.5
350.61	54.1
350.822	93.01
351.034	131.92
351.246	103.25
351.458	45.91
351.669	72.53
351.881	123.73
352.093	183.12
352.305	56.15
352.517	115.54
352.728	154.45
352.94	148.31
353.152	121.68
353.363	-9.39
353.575	37.72
353.787	150.36
353.999	64.34
354.21	232.27
354.422	17.24
354.633	97.11
354.845	144.21
355.057	60.24
355.268	52.05
355.48	105.3
355.692	50
355.903	88.92
356.115	-25.77
356.326	-70.83
356.538	101.2
356.749	72.53
356.961	95.06
357.172	72.53
357.384	50
357.595	197.46
357.807	11.09
358.018	27.48
358.23	47.96
358.441	166.74
358.653	43.86
358.864	70.48
359.075	47.96
359.287	25.43
359.498	123.73
359.709	95.06
359.921	-33.96
360.132	201.55
360.344	70.48
360.555	70.48
360.766	54.1
360.977	21.33
361.189	64.34
361.4	17.24
361.611	183.12
361.823	35.67
362.034	-44.2
362.245	21.33
362.456	-19.63
362.667	117.59
362.879	13.14
363.09	129.88
363.301	115.54
363.512	43.86
363.723	11.09
363.935	4.95
364.146	109.4
364.357	66.39
364.568	29.52
364.779	-68.78
364.99	138.07
365.201	56.15
365.412	133.97
365.623	-15.53
365.834	82.77
366.045	39.76
366.256	78.68
366.467	72.53
366.678	15.19
366.889	62.29
367.1	31.57
367.311	168.79
367.522	58.2
367.733	138.07
367.944	90.96
368.155	37.72
368.366	160.59
368.577	136.02
368.788	162.64
368.999	-7.34
369.209	95.06
369.42	236.37
369.631	244.56
369.842	156.5
370.053	95.06
370.264	109.4
370.474	-15.53
370.685	78.68
370.896	41.81
371.107	131.92
371.317	62.29
371.528	15.19
371.739	162.64
371.95	125.78
372.16	25.43
372.371	-64.68
372.582	33.62
372.792	160.59
373.003	133.97
373.214	-9.39
373.424	107.35
373.635	-25.77
373.846	193.36
374.056	97.11
374.267	31.57
374.477	113.49
374.688	-17.58
374.898	101.2
375.109	35.67
375.319	72.53
375.53	111.44
375.74	148.31
375.951	47.96
376.161	117.59
376.372	136.02
376.582	72.53
376.793	113.49
377.003	66.39
377.214	35.67
377.424	154.45
377.635	41.81
377.845	-1.19
378.055	215.89
378.266	-44.2
378.476	62.29
378.686	146.26
378.897	27.48
379.107	131.92
379.317	78.68
379.528	-15.53
379.738	88.92
379.948	-3.24
380.158	66.39
380.369	133.97
380.579	121.68
380.789	160.59
380.999	109.4
381.21	174.93
381.42	244.56
381.63	54.1
381.84	95.06
382.05	150.36
382.261	121.68
382.471	136.02
382.681	58.2
382.891	105.3
383.101	99.16
383.311	-3.24
383.521	39.76
383.731	88.92
383.941	113.49
384.151	86.87
384.361	58.2
384.571	123.73
384.781	125.78
384.991	189.27
385.201	109.4
385.411	115.54
385.621	88.92
385.831	90.96
386.041	47.96
386.251	19.29
386.461	121.68
386.671	66.39
386.881	86.87
387.091	41.81
387.301	115.54
387.511	86.87
387.72	62.29
387.93	123.73
388.14	-23.72
388.35	74.58
388.56	148.31
388.769	191.31
388.979	82.77
389.189	13.14
389.399	136.02
389.609	103.25
389.818	90.96
390.028	90.96
390.238	58.2
390.447	29.52
390.657	125.78
390.867	66.39
391.076	-36.01
391.286	121.68
391.496	88.92
391.705	64.34
391.915	136.02
392.125	111.44
392.334	27.48
392.544	142.16
392.753	127.83
392.963	-11.43
393.172	76.63
393.382	-33.96
393.591	179.03
393.801	4.95
394.01	217.94
394.22	82.77
394.429	50
394.639	99.16
394.848	101.2
395.058	125.78
395.267	72.53
395.477	7
395.686	27.48
395.895	217.94
396.105	226.13
396.314	88.92
396.524	60.24
396.733	-42.15
396.942	146.26
397.152	179.03
397.361	138.07
397.57	166.74
397.78	47.96
397.989	76.63
398.198	197.46
398.407	58.2
398.617	33.62
398.826	13.14
399.035	-25.77
399.244	187.22
399.453	88.92
399.663	68.44
399.872	103.25
400.081	-11.43
400.29	136.02
400.499	2.9
400.708	154.45
400.917	76.63
401.127	52.05
401.336	-1.19
401.545	265.04
401.754	166.74
401.963	119.64
402.172	19.29
402.381	58.2
402.59	66.39
402.799	95.06
403.008	95.06
403.217	62.29
403.426	88.92
403.635	-33.96
403.844	66.39
404.053	31.57
404.262	52.05
404.471	185.17
404.68	56.15
404.888	107.35
405.097	136.02
405.306	78.68
405.515	97.11
405.724	90.96
405.933	172.88
406.142	72.53
406.35	136.02
406.559	45.91
406.768	66.39
406.977	144.21
407.185	142.16
407.394	162.64
407.603	-31.91
407.812	115.54
408.02	166.74
408.229	41.81
408.438	80.72
408.646	-38.06
408.855	105.3
409.064	99.16
409.272	23.38
409.481	58.2
409.69	23.38
409.898	-50.35
410.107	82.77
410.315	-5.29
410.524	39.76
410.733	95.06
410.941	86.87
411.15	125.78
411.358	62.29
411.567	144.21
411.775	64.34
411.984	154.45
412.192	176.98
412.401	31.57
412.609	215.89
412.818	164.69
413.026	201.55
413.234	78.68
413.443	115.54
413.651	31.57
413.86	121.68
414.068	228.18
414.276	193.36
414.485	86.87
414.693	213.84
414.901	162.64
415.11	103.25
415.318	115.54
415.526	90.96
415.734	127.83
415.943	152.4
416.151	228.18
416.359	129.88
416.567	70.48
416.776	101.2
416.984	164.69
417.192	260.95
417.4	7
417.608	4.95
417.817	-5.29
418.025	142.16
418.233	176.98
418.441	35.67
418.649	56.15
418.857	93.01
419.065	107.35
419.273	-52.39
419.481	39.76
419.689	21.33
419.897	-25.77
420.105	2.9
420.313	140.12
420.521	136.02
420.729	197.46
420.937	90.96
421.145	105.3
421.353	72.53
421.561	199.51
421.769	70.48
421.977	45.91
422.185	121.68
422.393	54.1
422.601	93.01
422.809	195.41
423.017	146.26
423.224	146.26
423.432	64.34
423.64	80.72
423.848	170.83
424.056	76.63
424.263	230.23
424.471	111.44
424.679	248.66
424.887	35.67
425.094	250.71
425.302	185.17
425.51	-9.39
425.718	189.27
425.925	60.24
426.133	56.15
426.341	232.27
426.548	90.96
426.756	117.59
426.964	101.2
427.171	127.83
427.379	39.76
427.586	156.5
427.794	189.27
428.001	164.69
428.209	146.26
428.417	160.59
428.624	174.93
428.832	160.59
429.039	113.49
429.247	234.32
429.454	152.4
429.662	215.89
429.869	62.29
430.076	127.83
430.284	269.14
430.491	244.56
430.699	185.17
430.906	224.08
431.114	170.83
431.321	179.03
431.528	207.7
431.736	187.22
431.943	213.84
432.15	217.94
432.358	285.52
432.565	299.86
432.772	76.63
432.979	318.29
433.187	191.31
433.394	293.71
433.601	232.27
433.808	351.06
434.016	281.43
434.223	269.14
434.43	246.61
434.637	273.23
434.844	363.34
435.052	254.8
435.259	338.77
435.466	373.58
435.673	293.71
435.88	379.73
436.087	387.92
436.294	449.36
436.501	332.62
436.708	385.87
436.915	383.82
437.122	518.99
437.329	299.86
437.537	398.16
437.743	469.84
437.95	574.28
438.157	512.85
438.364	451.41
438.571	484.17
438.778	695.11
438.985	539.47
439.192	549.71
439.399	557.9
439.606	584.52
439.813	699.21
440.02	740.17
440.227	826.18
440.433	686.92
440.64	738.12
440.847	654.16
441.054	783.18
441.261	822.09
441.467	865.1
441.674	713.55
441.881	824.14
442.088	840.52
442.294	979.78
442.501	1084.23
442.708	998.21
442.914	1004.36
443.121	1145.67
443.328	1014.6
443.534	1172.29
443.741	1211.2
443.948	1063.75
444.154	1246.02
444.361	1438.53
444.568	1342.27
444.774	1387.33
444.981	1237.83
445.187	1508.16
445.394	1497.92
445.6	1395.52
445.807	1753.91
446.013	1626.94
446.22	1710.91
446.426	1641.28
446.633	1893.18
446.839	1968.95
447.046	1776.44
447.252	2048.82
447.459	1997.62
447.665	2140.98
447.871	2274.1
448.078	2519.85
448.284	2458.42
448.491	2485.04
448.697	2693.93
448.903	2804.52
449.11	2855.72
449.316	2900.78
449.522	2956.07
449.728	3218.21
449.935	3310.37
450.141	3310.37
450.347	3382.05
450.553	3423.01
450.76	3535.65
450.966	3834.65
451.172	3916.57
451.378	4100.89
451.584	4193.05
451.791	4383.51
451.997	4496.14
452.203	4500.24
452.409	4711.18
452.615	5055.24
452.821	4920.07
453.027	4926.22
453.233	5624.58
453.44	5337.86
453.646	5634.82
453.852	5901.05
454.058	6224.63
454.264	6421.24
454.47	6744.81
454.676	6712.05
454.882	7385.83
455.088	7072.49
455.294	7424.74
455.5	8078.04
455.705	8606.42
455.911	8340.18
456.117	8544.98
456.323	9095.88
456.529	9079.5
456.735	9640.64
456.941	10009.28
457.147	10654.39
457.352	10576.56
457.558	11201.19
457.764	11561.64
457.97	12079.77
458.176	12602.01
458.381	13183.63
458.587	13331.08
458.793	13953.66
458.999	13904.51
459.204	15776.36
459.41	16061.02
459.616	16095.84
459.821	17080.91
460.027	17838.66
460.233	18674.23
460.438	18786.87
460.644	19730.98
460.85	19788.33
461.055	20662.81
461.261	21889.54
461.466	21246.48
461.672	21793.29
461.878	24234.47
462.083	23865.83
462.289	24676.83
462.494	25428.43
462.7	25592.27
462.905	26055.11
463.111	28404.13
463.316	29360.53
463.522	29979.02
463.727	31302.01
463.932	32278.89
464.138	33196.38
464.343	34652.48
464.549	35088.7
464.754	36909.35
464.959	38232.33
465.165	39022.85
465.37	38060.3
465.575	38199.57
465.781	41044.2
465.986	41988.31
466.191	41793.75
466.397	42045.65
466.602	40540.39
466.807	43395.26
467.012	44253.36
467.218	45064.36
467.423	44705.96
467.628	46182.55
467.833	48816.24
468.038	47296.64
468.244	46651.53
468.449	49188.97
468.654	48138.36
468.859	48164.98
469.064	48197.75
469.269	47122.57
469.474	47583.36
469.679	48906.35
469.885	47206.53
470.09	48113.78
470.295	47984.76
470.5	47493.25
470.705	47571.07
470.91	46403.73
471.115	45482.14
471.32	46977.16
471.525	46110.87
471.73	45277.35
471.935	44691.63
472.139	42950.85
472.344	43221.19
472.549	42578.12
472.754	42135.76
472.959	41208.03
473.164	39958.77
473.369	39416.06
473.574	40388.85
473.778	39590.14
473.983	38721.8
474.188	38490.38
474.393	36344.11
474.598	36167.98
474.802	35598.65
475.007	34881.86
475.212	34869.57
475.417	33290.59
475.621	33266.01
475.826	33081.69
476.031	31723.89
476.235	31553.91
476.44	31332.73
476.645	30378.37
476.849	30259.59
477.054	30083.47
477.259	28938.65
477.463	29364.63
477.668	28127.66
477.872	28053.93
478.077	27374
478.282	26796.48
478.486	26483.14
478.691	26161.61
478.895	26001.86
479.1	25426.39
479.304	25840.08
479.509	25129.43
479.713	25096.66
479.918	24605.15
480.122	24244.71
480.326	24179.17
480.531	24469.98
480.735	23757.29
480.94	23689.71
481.144	24103.4
481.348	22716.92
481.553	23126.52
481.757	22596.09
481.961	22843.9
482.166	22899.19
482.37	22741.5
482.574	21879.3
482.778	22106.63
482.983	22262.27
483.187	22100.48
483.391	21867.02
483.595	21373.46
483.8	20763.16
484.004	21156.37
484.208	21193.23
484.412	20834.84
484.616	20677.15
484.821	20195.87
485.025	19911.21
485.229	19950.12
485.433	19288.62
485.637	19442.22
485.841	19012.15
486.045	18852.41
486.249	18741.82
486.453	18305.6
486.657	18451
486.861	18049.6
487.065	17134.16
487.269	17506.89
487.473	16683.61
487.677	17144.4
487.881	16843.35
488.085	16333.4
488.289	16140.9
488.493	15899.23
488.697	15829.6
488.901	15530.6
489.105	15051.38
489.309	14623.35
489.512	14502.52
489.716	14287.48
489.92	13892.23
490.124	13603.46
490.328	13779.59
490.531	13310.6
490.735	13167.24
490.939	13087.37
491.143	12659.35
491.346	12429.98
491.55	12389.02
491.754	11991.71
491.958	11850.4
492.161	11682.47
492.365	11416.23
492.569	11422.38
492.772	10941.1
492.976	10934.96
493.18	10771.12
493.383	10842.8
493.587	10752.69
493.79	10486.45
493.994	10222.27
494.197	10222.27
494.401	10257.08
494.605	9976.51
494.808	10109.63
495.012	9827.01
495.215	9980.61
495.419	9749.18
495.622	9454.28
495.825	9489.09
496.029	9568.96
496.232	9685.7
496.436	9366.21
496.639	9638.59
496.843	9296.58
497.046	9308.87
497.249	9824.96
497.453	9446.09
497.656	9333.45
497.859	9441.99
498.063	9448.13
498.266	9368.26
498.469	9390.79
498.673	9237.19
498.876	9470.66
499.079	9577.16
499.282	9501.38
499.485	9894.59
499.689	9464.52
499.892	9816.77
500.095	9474.76
500.298	9921.21
500.501	9812.67
500.705	9880.25
500.908	10099.39
501.111	10224.31
501.314	10349.24
501.517	10539.7
501.72	10306.23
501.923	10357.43
502.126	10443.45
502.329	10791.6
502.532	10754.74
502.735	10832.56
502.938	11387.56
503.141	11365.03
503.344	11334.31
503.547	11334.31
503.75	11549.35
503.953	11723.43
504.156	11827.87
504.359	12049.05
504.562	11940.51
504.765	12323.48
504.968	12495.51
505.17	12528.28
505.373	12833.43
505.576	13095.57
505.779	13079.18
505.982	13742.72
506.185	13785.73
506.387	13910.66
506.59	14324.35
506.793	14451.32
506.996	14527.1
507.198	15123.05
507.401	15315.56
507.604	15581.8
507.807	15950.43
508.009	15925.86
508.212	16552.54
508.415	16443.99
508.617	17109.58
508.82	17171.02
509.022	17402.44
509.225	18174.53
509.428	18524.73
509.63	18919.99
509.833	19028.53
510.035	19518
510.238	20257.31
510.44	20324.9
510.643	20853.27
510.845	21457.42
511.048	21668.36
511.25	22323.71
511.453	22442.49
511.655	23685.61
511.858	23644.65
512.06	24099.3
512.262	24558.05
512.465	25203.16
512.667	25938.38
512.87	26274.24
513.072	26778.04
513.274	27539.89
513.477	28371.36
513.679	28858.78
513.881	29536.66
514.084	30304.65
514.286	30355.85
514.488	31281.53
514.69	32153.96
514.893	32510.31
515.095	33175.9
515.297	33497.43
515.499	34720.07
515.701	35359.03
515.904	36174.13
516.106	36815.14
516.308	37384.47
516.51	38502.67
516.712	39084.29
516.914	39450.88
517.116	40280.3
517.318	40919.27
517.52	41767.13
517.722	42254.54
517.925	43116.74
518.127	44464.3
518.329	45074.6
518.531	44953.77
518.733	46231.7
518.935	46923.91
519.136	47589.5
519.338	48259.19
519.54	48795.76
519.742	49549.41
519.944	50237.53
520.146	51288.13
520.348	52080.7
520.55	52045.88
520.752	53024.81
520.954	53739.55
521.155	53792.8
521.357	55042.06
521.559	55703.56
521.761	56489.98
521.963	56563.7
522.164	56463.35
522.366	57188.33
522.568	57978.85
522.77	58068.96
522.971	58613.72
523.173	58793.94
523.375	59250.64
523.576	59281.36
523.778	59242.45
523.98	60256.19
524.181	60176.32
524.383	60465.08
524.584	60641.21
524.786	60862.39
524.988	60456.89
525.189	60768.18
525.391	61151.15
525.592	61255.6
525.794	61360.05
525.995	61241.26
526.197	60747.7
526.398	60948.4
526.6	60651.45
526.801	61132.72
527.003	60770.23
527.204	60737.46
527.406	60846
527.607	59895.75
527.808	60032.96
528.01	58972.11
528.211	59156.43
528.412	60022.72
528.614	58990.55
528.815	58669.01
529.016	58521.56
529.218	57403.37
529.419	57653.22
529.62	56946.67
529.822	56467.45
530.023	55482.37
530.224	55506.95
530.425	54931.47
530.626	53659.68
530.828	53243.94
531.029	53786.66
531.23	52189.24
531.431	52318.26
531.632	51906.62
531.833	51073.1
532.035	50190.42
532.236	50120.79
532.437	49741.92
532.638	48652.4
532.839	48384.12
533.04	48081.02
533.241	46911.63
533.442	46631.05
533.643	46047.38
533.844	45287.59
534.045	44716.2
534.246	43831.48
534.447	44110
534.648	42877.13
534.849	42377.42
535.05	41736.41
535.251	41169.12
535.451	40648.94
535.652	40509.68
535.853	39719.16
536.054	39344.38
536.255	39182.59
536.456	37765.4
536.657	38005.01
536.857	37277.98
537.058	36323.63
537.259	36092.21
537.46	36010.29
537.66	35158.33
537.861	34672.96
538.062	33861.97
538.263	33808.72
538.463	33435.99
538.664	33161.56
538.865	32721.25
539.065	32596.32
539.266	31408.5
539.466	31611.25
539.667	30939.52
539.868	30996.86
540.068	30118.28
540.269	30026.12
540.469	29585.81
540.67	29153.69
540.87	29198.74
541.071	28721.57
541.271	28477.86
541.472	28037.55
541.672	27449.78
541.873	27238.84
542.073	26694.08
542.274	26876.35
542.474	26640.83
542.675	25936.33
542.875	25952.71
543.075	25496.02
543.276	25078.23
543.476	25143.77
543.676	24603.1
543.877	24369.63
544.077	24089.06
544.277	23878.12
544.478	23312.88
544.678	23378.42
544.878	23087.61
545.078	22997.49
545.279	22772.22
545.479	22116.87
545.679	22262.27
545.879	21705.23
546.079	21514.77
546.28	21430.8
546.48	21053.97
546.68	21090.84
546.88	20589.08
547.08	20435.49
547.28	20116
547.48	19747.37
547.68	19472.94
547.88	19423.79
548.081	19393.07
548.281	18844.21
548.481	18594.36
548.681	18424.38
548.881	18344.51
549.081	18082.37
549.28	17680.97
549.48	17670.73
549.68	17334.86
549.88	17091.15
550.08	16736.85
550.28	16648.79
550.48	16656.98
550.68	16261.73
550.88	15776.36
551.08	15778.4
551.279	15825.51
551.479	15270.51
551.679	15086.19
551.879	14695.03
552.079	14531.19
552.278	14420.6
552.478	14365.31
552.678	14168.7
552.878	13914.75
553.077	13728.39
553.277	13243.02
553.477	13488.78
553.676	12995.22
553.876	12804.75
554.076	12876.43
554.275	12481.17
554.475	12141.21
554.674	12128.92
554.874	12114.59
555.074	11504.29
555.273	11332.26
555.473	11397.8
555.672	11063.98
555.872	10914.48
556.071	10924.72
556.271	10601.14
556.47	10590.9
556.67	10244.79
556.869	10035.9
557.068	10144.44
557.268	9835.2
557.467	9589.44
557.667	9456.33
557.866	9415.37
558.065	9016.01
558.265	9042.64
558.464	8794.83
558.663	8827.6
558.863	8637.14
559.062	8645.33
559.261	8198.87
559.461	8329.94
559.66	7934.68
559.859	7779.04
560.058	7760.61
560.258	7508.71
560.457	7758.56
560.656	7766.75
560.855	7172.84
561.054	7477.99
561.253	7238.37
561.453	7121.64
561.652	6834.93
561.851	6830.83
562.05	6632.18
562.249	6585.07
562.448	6722.29
562.647	6322.93
562.846	6357.75
563.045	6308.6
563.244	6195.96
563.443	6150.9
563.642	5948.15
563.841	5985.02
564.04	5708.54
564.239	5786.37
564.438	5671.68
564.637	5524.23
564.836	5442.31
565.035	5593.86
565.234	5303.04
565.432	5303.04
565.631	5096.2
565.83	5178.12
566.029	5012.23
566.228	4850.44
566.427	4938.51
566.625	4682.51
566.824	4647.69
567.023	4733.71
567.222	4490
567.42	4592.4
567.619	4547.34
567.818	4522.77
568.016	4475.67
568.215	4299.54
568.414	4289.3
568.612	4061.98
568.811	4231.96
569.01	4023.06
569.208	3889.95
569.407	3980.06
569.605	3935
569.804	3859.23
570.002	3709.72
570.201	3592.99
570.4	3746.59
570.598	3689.25
570.797	3588.89
570.995	3541.79
571.193	3521.31
571.392	3382.05
571.59	3293.99
571.789	3474.21
571.987	3414.82
572.186	3339.04
572.384	3212.07
572.582	3150.63
572.781	3189.54
572.979	3015.46
573.177	3081
573.376	3044.13
573.574	2976.55
573.772	2698.03
573.971	2689.84
574.169	2745.13
574.367	2669.36
574.565	2691.88
574.763	2616.11
574.962	2548.53
575.16	2630.45
575.358	2448.18
575.556	2482.99
575.754	2505.52
575.952	2458.42
576.151	2513.71
576.349	2429.74
576.547	2284.34
576.745	2243.38
576.943	2304.82
577.141	2190.13
577.339	2167.6
577.537	2136.88
577.735	2200.37
577.933	2214.71
578.131	1981.24
578.329	2194.23
578.527	1889.08
578.725	2005.81
578.923	1876.79
579.121	1917.75
579.319	1848.12
579.516	1905.46
579.714	2005.81
579.912	1870.65
580.11	1688.38
580.308	1794.87
580.506	1794.87
580.704	1561.41
580.901	1637.18
581.099	1631.04
581.297	1555.26
581.495	1528.64
581.692	1489.73
581.89	1725.24
582.088	1600.32
582.285	1567.55
582.483	1512.25
582.681	1420.1
582.878	1397.57
583.076	1364.8
583.274	1391.42
583.471	1547.07
583.669	1311.55
583.866	1211.2
584.064	1299.27
584.262	1336.13
584.459	1237.83
584.657	1305.41
584.854	1375.04
585.052	1309.51
585.249	1135.43
585.447	1317.7
585.644	1057.61
585.841	1162.05
586.039	1223.49
586.236	1192.77
586.434	1203.01
586.631	1049.41
586.828	1096.52
587.026	1049.41
587.223	1014.6
587.42	967.49
587.618	1008.45
587.815	1045.32
588.012	1018.69
588.21	979.78
588.407	998.21
588.604	1080.13
588.801	912.2
588.999	869.19
589.196	1057.61
589.393	912.2
589.59	967.49
589.787	944.97
589.984	973.64
590.182	969.54
590.379	809.8
590.576	895.82
590.773	850.76
590.97	901.96
591.167	951.11
591.364	891.72
591.561	813.9
591.758	971.59
591.955	861
592.152	846.66
592.349	836.42
592.546	867.14
592.743	777.03
592.94	834.38
593.137	924.49
593.334	906.06
593.531	893.77
593.727	953.16
593.924	932.68
594.121	861
594.318	883.53
594.515	875.34
594.712	987.97
594.908	813.9
595.105	736.07
595.302	930.63
595.499	957.25
595.696	1078.08
595.892	928.58
596.089	1063.75
596.286	940.87
596.482	1133.38
596.679	1022.79
596.876	1012.55
597.072	1028.93
597.269	1143.62
597.466	1137.48
597.662	1059.65
597.859	1149.76
598.055	1248.07
598.252	1194.82
598.448	1305.41
598.645	1393.47
598.841	1506.11
599.038	1534.78
599.234	1676.09
599.431	1631.04
599.627	1596.22
599.824	1657.66
600.02	1735.48
600.217	1798.97
600.413	1837.88
600.609	1841.98
600.806	2241.33
601.002	2083.64
601.198	2042.68
601.395	2300.72
601.591	2353.97
601.787	2368.31
601.984	2429.74
602.18	2595.63
602.376	2612.01
602.572	2792.23
602.769	3050.28
602.965	3025.7
603.161	3078.95
603.357	3132.2
603.553	3316.51
603.75	3289.89
603.946	3480.35
604.142	3636
604.338	3791.64
604.534	3891.99
604.73	4074.26
604.926	4250.39
605.122	4387.6
605.318	4381.46
605.514	4543.25
605.71	4698.89
605.906	4913.93
606.102	4879.11
606.298	5212.93
606.494	5194.5
606.69	5399.3
606.886	5665.53
607.082	5739.26
607.278	5788.41
607.474	6071.03
607.67	6259.45
607.866	6302.45
608.062	6671.09
608.257	6810.35
608.453	6832.88
608.649	7213.8
608.845	7271.14
609.041	7502.56
609.236	7604.96
609.432	7977.69
609.628	8413.91
609.824	8448.72
610.019	8334.04
610.215	8745.68
610.411	9020.11
610.606	9233.1
610.802	9441.99
610.998	9687.75
611.193	10097.34
611.389	10240.7
611.584	10595
611.78	10549.94
611.976	10848.94
612.171	11555.49
612.367	11635.36
612.562	11901.6
612.758	12137.12
612.953	12391.06
613.149	13003.41
613.344	13177.48
613.539	13634.18
613.735	14115.45
613.93	14180.99
614.126	14334.59
614.321	15065.71
614.517	15311.47
614.712	15923.81
614.907	16251.49
615.103	16699.99
615.298	17177.17
615.493	17556.04
615.688	17957.44
615.884	18663.99
616.079	18893.37
616.274	19393.07
616.47	19604.01
616.665	20435.49
616.86	20851.22
617.055	21221.91
617.25	21948.93
617.445	22581.76
617.641	22503.93
617.836	23669.23
618.031	24017.38
618.226	24803.8
618.421	24885.72
618.616	25637.33
618.811	26096.07
619.006	27025.85
619.201	27445.68
619.396	28397.99
619.591	28160.42
619.786	29282.71
619.981	29735.31
620.176	30749.06
620.371	31072.64
620.566	31629.68
620.761	32489.83
620.956	33161.56
621.151	33616.21
621.346	34316.62
621.541	34644.29
621.735	35744.05
621.93	35623.22
622.125	36815.14
622.32	37093.66
622.515	38273.29
622.709	38664.46
622.904	39616.76
623.099	40087.79
623.294	40624.36
623.488	41238.75
623.683	42182.87
623.878	42209.49
624.072	43532.48
624.267	44056.76
624.462	44994.73
624.656	45336.74
624.851	46708.88
625.046	46639.25
625.24	46856.33
625.435	47923.32
625.629	48762.99
625.824	49035.37
626.018	49907.8
626.213	49616.99
626.407	51281.99
626.602	50813.01
626.796	52437.05
626.991	52717.62
627.185	52637.75
627.38	52926.51
627.574	53313.58
627.768	53655.59
627.963	53573.67
628.157	54071.32
628.352	54116.38
628.546	53962.78
628.74	54568.98
628.935	53803.04
629.129	54411.29
629.323	53792.8
629.517	53655.59
629.712	53424.17
629.906	53006.38
630.1	52578.36
630.294	52248.63
630.489	51886.14
630.683	51255.37
630.877	49883.23
631.071	49770.59
631.265	49025.13
631.459	48128.12
631.653	46686.35
631.848	46145.69
632.042	44927.14
632.236	44142.77
632.43	42729.67
632.624	42006.74
632.818	40530.15
633.012	39026.95
633.206	37947.67
633.4	37220.64
633.594	35379.51
633.788	34730.31
633.982	33231.19
634.176	32338.28
634.369	30968.19
634.563	29919.63
634.757	28553.63
634.951	28336.55
635.145	26442.18
635.339	25680.33
635.533	24347.11
635.726	23810.54
635.92	22716.92
636.114	21840.39
636.308	20970.01
636.501	19976.74
636.695	19429.93
636.889	18371.13
637.083	17744.45
637.276	16892.5
637.47	16144.99
637.664	15407.72
637.857	15252.08
638.051	14498.42
638.244	14097.02
638.438	13109.9
638.632	12923.54
638.825	12235.42
639.019	11915.94
639.212	11412.14
639.406	11207.34
639.599	10459.83
639.793	10181.31
639.986	9657.03
640.18	9173.71
640.373	8925.9
640.567	8518.36
640.76	8409.81
640.954	7934.68
641.147	7760.61
641.34	7240.42
641.534	7062.25
641.727	6834.93
641.92	6662.9
642.114	6503.15
642.307	6066.94
642.5	5931.77
642.694	5483.27
642.887	5399.3
643.08	5174.02
643.273	5110.54
643.467	4868.88
643.66	4530.96
643.853	4455.19
644.046	4244.24
644.239	4152.09
644.432	3889.95
644.626	3765.02
644.819	3681.05
645.012	3549.98
645.205	3441.44
645.398	3306.27
645.591	3257.12
645.784	2861.87
645.977	2884.39
646.17	2788.14
646.363	2698.03
646.556	2439.98
646.749	2480.94
646.942	2454.32
647.135	2349.87
647.328	2290.48
647.521	2194.23
647.714	2179.89
647.907	1927.99
648.099	1983.29
648.292	1925.94
648.485	1753.91
648.678	1702.72
648.871	1612.6
649.064	1667.9
649.256	1481.53
649.449	1409.86
649.642	1303.36
649.835	1416
650.027	1299.27
650.22	1315.65
650.413	1196.87
650.605	1207.11
650.798	1188.68
650.991	1143.62
651.183	1073.99
651.376	1094.47
651.568	1055.56
651.761	971.59
651.954	981.83
652.146	965.45
652.339	1012.55
652.531	1055.56
652.724	709.45
652.916	871.24
653.109	693.07
653.301	820.04
653.494	871.24
653.686	723.79
653.879	883.53
654.071	770.89
654.263	664.4
654.456	639.82
654.648	707.4
654.84	635.72
655.033	551.76
655.225	605
655.417	494.41
655.61	688.97
655.802	629.58
655.994	662.35
656.186	392.02
656.379	615.24
656.571	400.21
656.763	451.41
656.955	478.03
657.148	435.02
657.34	478.03
657.532	467.79
657.724	455.5
657.916	453.45
658.108	523.09
658.3	512.85
658.492	410.45
658.684	301.9
658.876	455.5
659.068	301.9
659.26	236.37
659.452	289.62
659.644	344.91
659.836	512.85
660.028	324.43
660.22	308.05
660.412	375.63
660.604	301.9
660.796	320.34
660.988	238.42
661.18	281.43
661.372	344.91
661.563	265.04
661.755	291.66
661.947	287.57
662.139	254.8
662.331	299.86
662.522	322.38
662.714	217.94
662.906	170.83
663.097	244.56
663.289	213.84
663.481	172.88
663.673	318.29
663.864	224.08
664.056	338.77
664.247	172.88
664.439	312.14
664.631	301.9
664.822	285.52
665.014	262.99
665.205	289.62
665.397	199.51
665.588	236.37
665.78	226.13
665.971	195.41
666.163	236.37
666.354	207.7
666.546	172.88
666.737	240.47
666.929	84.82
667.12	111.44
667.311	215.89
667.503	138.07
667.694	269.14
667.885	160.59
668.077	232.27
668.268	70.48
668.459	232.27
668.651	172.88
668.842	262.99
669.033	105.3
669.224	72.53
669.416	289.62
669.607	123.73
669.798	152.4
669.989	250.71
670.18	205.65
670.371	211.79
670.563	127.83
670.754	289.62
670.945	252.75
671.136	258.9
671.327	136.02
671.518	262.99
671.709	369.49
671.9	279.38
672.091	369.49
672.282	306
672.473	152.4
672.664	172.88
672.855	185.17
673.046	215.89
673.237	246.61
673.428	226.13
673.619	242.51
673.809	152.4
674	285.52
674.191	265.04
674.382	166.74
674.573	170.83
674.764	189.27
674.954	244.56
675.145	164.69
675.336	136.02
675.527	162.64
675.717	191.31
675.908	160.59
676.099	166.74
676.289	275.28
676.48	68.44
676.671	127.83
676.861	86.87
677.052	185.17
677.243	199.51
677.433	156.5
677.624	240.47
677.814	285.52
678.005	252.75
678.195	312.14
678.386	66.39
678.576	236.37
678.767	144.21
678.957	152.4
679.148	256.85
679.338	299.86
679.529	224.08
679.719	248.66
679.909	248.66
680.1	219.99
680.29	297.81
680.481	68.44
680.671	205.65
680.861	269.14
681.052	310.1
681.242	201.55
681.432	297.81
681.622	240.47
681.813	168.79
682.003	217.94
682.193	240.47
682.383	281.43
682.573	181.07
682.764	273.23
682.954	271.19
683.144	316.24
683.334	238.42
683.524	213.84
683.714	250.71
683.904	330.58
684.094	250.71
684.284	303.95
684.474	306
684.664	289.62
684.854	242.51
685.044	281.43
685.234	248.66
685.424	254.8
685.614	185.17
685.804	316.24
685.994	342.86
686.184	293.71
686.374	293.71
686.564	314.19
686.753	242.51
686.943	88.92
687.133	275.28
687.323	244.56
687.513	351.06
687.702	287.57
687.892	228.18
688.082	279.38
688.272	250.71
688.461	267.09
688.651	357.2
688.841	310.1
689.03	230.23
689.22	250.71
689.41	408.4
689.599	211.79
689.789	183.12
689.979	349.01
690.168	172.88
690.358	256.85
690.547	269.14
690.737	281.43
690.926	330.58
691.116	314.19
691.305	277.33
691.495	246.61
691.684	222.03
691.874	303.95
692.063	222.03
692.252	279.38
692.442	328.53
692.631	250.71
692.82	222.03
693.01	217.94
693.199	170.83
693.388	246.61
693.578	162.64
693.767	258.9
693.956	215.89
694.146	240.47
694.335	318.29
694.524	256.85
694.713	265.04
694.902	291.66
695.092	256.85
695.281	287.57
695.47	174.93
695.659	168.79
695.848	250.71
696.037	170.83
696.226	236.37
696.415	242.51
696.604	334.67
696.793	262.99
696.982	181.07
697.171	330.58
697.36	189.27
697.549	195.41
697.738	105.3
697.927	228.18
698.116	150.36
698.305	232.27
698.494	215.89
698.683	154.45
698.872	346.96
699.061	250.71
699.25	267.09
699.438	314.19
699.627	174.93
699.816	357.2
700.005	72.53
700.193	154.45
700.382	281.43
700.571	250.71
700.76	316.24
700.948	219.99
701.137	267.09
701.326	234.32
701.514	101.2
701.703	279.38
701.892	201.55
702.08	379.73
702.269	195.41
702.457	183.12
702.646	181.07
702.834	236.37
703.023	308.05
703.212	226.13
703.4	174.93
703.589	189.27
703.777	199.51
703.965	150.36
704.154	156.5
704.342	211.79
704.531	215.89
704.719	246.61
704.907	226.13
705.096	150.36
705.284	168.79
705.472	308.05
705.661	230.23
705.849	265.04
706.037	201.55
706.226	248.66
706.414	269.14
706.602	222.03
706.79	299.86
706.979	164.69
707.167	176.98
707.355	97.11
707.543	248.66
707.731	248.66
707.919	152.4
708.107	219.99
708.296	236.37
708.484	179.03
708.672	262.99
708.86	256.85
709.048	224.08
709.236	125.78
709.424	250.71
709.612	262.99
709.8	103.25
709.988	195.41
710.176	226.13
710.364	295.76
710.551	144.21
710.739	242.51
710.927	193.36
711.115	252.75
711.303	283.47
711.491	246.61
711.679	45.91
711.866	265.04
712.054	269.14
712.242	230.23
712.43	289.62
712.617	160.59
712.805	189.27
712.993	199.51
713.181	119.64
713.368	258.9
713.556	248.66
713.744	240.47
713.931	367.44
714.119	361.3
714.306	121.68
714.494	179.03
714.682	224.08
714.869	140.12
715.057	125.78
715.244	33.62
715.432	244.56
715.619	197.46
715.807	152.4
715.994	236.37
716.182	195.41
716.369	199.51
716.556	295.76
716.744	119.64
716.931	213.84
717.119	213.84
717.306	174.93
717.493	246.61
717.681	213.84
717.868	148.31
718.055	267.09
718.242	211.79
718.43	293.71
718.617	308.05
718.804	252.75
718.991	273.23
719.179	256.85
719.366	318.29
719.553	224.08
719.74	250.71
719.927	222.03
720.114	185.17
720.301	97.11
720.488	156.5
720.676	211.79
720.863	297.81
721.05	387.92
721.237	291.66
721.424	326.48
721.611	191.31
721.798	90.96
721.985	254.8
722.172	275.28
722.358	222.03
722.545	301.9
722.732	299.86
722.919	349.01
723.106	232.27
723.293	248.66
723.48	238.42
723.667	238.42
723.853	287.57
724.04	228.18
724.227	291.66
724.414	310.1
724.6	232.27
724.787	312.14
724.974	392.02
725.161	197.46
725.347	150.36
725.534	256.85
725.72	283.47
725.907	318.29
726.094	324.43
726.28	215.89
726.467	260.95
726.653	234.32
726.84	342.86
727.027	332.62
727.213	195.41
727.4	277.33
727.586	258.9
727.773	273.23
727.959	301.9
728.145	228.18
728.332	291.66
728.518	107.35
728.705	275.28
728.891	228.18
729.077	232.27
729.264	181.07
729.45	269.14
729.636	355.15
729.823	193.36
730.009	363.34
730.195	236.37
730.382	314.19
730.568	256.85
730.754	279.38
730.94	240.47
731.126	303.95
731.313	228.18
731.499	275.28
731.685	367.44
731.871	328.53
732.057	277.33
732.243	363.34
732.429	324.43
732.615	359.25
732.801	324.43
732.987	262.99
733.173	326.48
733.359	228.18
733.545	275.28
733.731	258.9
733.917	338.77
734.103	318.29
734.289	293.71
734.475	199.51
734.661	375.63
734.847	297.81
735.033	267.09
735.219	361.3
735.404	207.7
735.59	121.68
735.776	316.24
735.962	258.9
736.148	301.9
736.333	326.48
736.519	240.47
736.705	254.8
736.89	299.86
737.076	279.38
737.262	183.12
737.447	246.61
737.633	224.08
737.819	252.75
738.004	207.7
738.19	336.72
738.375	297.81
738.561	301.9
738.747	289.62
738.932	224.08
739.118	426.83
739.303	308.05
739.489	312.14
739.674	248.66
739.859	209.75
740.045	301.9
740.23	328.53
740.416	117.59
740.601	330.58
740.786	287.57
740.972	148.31
741.157	240.47
741.342	195.41
741.528	250.71
741.713	265.04
741.898	271.19
742.084	250.71
742.269	293.71
742.454	226.13
742.639	275.28
742.824	265.04
743.01	363.34
743.195	367.44
743.38	314.19
743.565	287.57
743.75	240.47
743.935	267.09
744.12	289.62
744.305	162.64
744.49	275.28
744.675	295.76
744.86	250.71
745.045	365.39
745.23	224.08
745.415	189.27
745.6	426.83
745.785	248.66
745.97	385.87
746.155	371.54
746.34	336.72
746.525	267.09
746.71	367.44
746.895	181.07
747.079	211.79
747.264	256.85
747.449	244.56
747.634	228.18
747.819	273.23
748.003	203.6
748.188	176.98
748.373	234.32
748.557	324.43
748.742	248.66
748.927	224.08
749.111	205.65
749.296	248.66
749.481	314.19
749.665	244.56
749.85	136.02
750.034	207.7
750.219	271.19
750.404	199.51
750.588	209.75
750.773	162.64
750.957	164.69
751.141	215.89
751.326	293.71
751.51	197.46
751.695	201.55
751.879	187.22
752.064	342.86
752.248	236.37
752.432	240.47
752.617	279.38
752.801	240.47
752.985	226.13
753.17	281.43
753.354	179.03
753.538	262.99
753.722	113.49
753.907	115.54
754.091	179.03
754.275	269.14
754.459	201.55
754.643	78.68
754.828	111.44
755.012	183.12
755.196	74.58
755.38	267.09
755.564	131.92
755.748	82.77
755.932	219.99
756.116	197.46
756.3	232.27
756.484	37.72
756.668	187.22
756.852	111.44
757.036	95.06
757.22	62.29
757.404	99.16
757.588	211.79
757.772	215.89
757.956	144.21
758.14	303.95
758.323	105.3
758.507	201.55
758.691	119.64
758.875	160.59
759.059	273.23
759.242	179.03
759.426	133.97
759.61	205.65
759.794	127.83
759.977	181.07
760.161	342.86
760.345	181.07
760.528	211.79
760.712	136.02
760.895	138.07
761.079	144.21
761.263	113.49
761.446	121.68
761.63	115.54
761.813	215.89
761.997	80.72
762.18	107.35
762.364	158.55
762.547	101.2
762.731	33.62
762.914	95.06
763.098	144.21
763.281	80.72
763.464	125.78
763.648	156.5
763.831	107.35
764.015	117.59
764.198	97.11
764.381	113.49
764.564	107.35
764.748	103.25
764.931	136.02
765.114	70.48
765.297	179.03
765.481	54.1
765.664	142.16
765.847	95.06
766.03	201.55
766.213	13.14
766.397	76.63
766.58	47.96
766.763	105.3
766.946	99.16
767.129	113.49
767.312	70.48
767.495	103.25
767.678	88.92
767.861	127.83
768.044	150.36
768.227	39.76
768.41	187.22
768.593	119.64
768.776	82.77
768.959	111.44
769.142	183.12
769.324	39.76
769.507	156.5
769.69	60.24
769.873	103.25
770.056	308.05
770.239	107.35
770.421	148.31
770.604	131.92
770.787	160.59
770.97	103.25
771.152	-17.58
771.335	179.03
771.518	33.62
771.7	254.8
771.883	123.73
772.066	66.39
772.248	142.16
772.431	181.07
772.613	207.7
772.796	52.05
772.978	115.54
773.161	150.36
773.343	74.58
773.526	103.25
773.708	15.19
773.891	33.62
774.073	140.12
774.256	-25.77
774.438	209.75
774.621	123.73
774.803	72.53
774.985	68.44
775.168	133.97
775.35	-7.34
775.532	109.4
775.715	4.95
775.897	86.87
776.079	144.21
776.261	117.59
776.444	82.77
776.626	189.27
776.808	45.91
776.99	45.91
777.173	47.96
777.355	-3.24
777.537	43.86
777.719	136.02
777.901	50
778.083	-62.63
778.265	-9.39
778.447	164.69
778.629	9.05
778.811	64.34
778.993	168.79
779.175	148.31
779.357	111.44
779.539	-50.35
779.721	84.82
779.903	105.3
780.085	-9.39
780.267	29.52
780.449	101.2
780.631	115.54
780.812	127.83
780.994	45.91
781.176	86.87
781.358	7
781.54	76.63
781.721	56.15
781.903	162.64
782.085	86.87
782.267	111.44
782.448	-113.83
782.63	58.2
782.812	123.73
782.993	222.03
783.175	136.02
783.357	-50.35
783.538	86.87
783.72	68.44
783.901	78.68
784.083	109.4
784.264	121.68
784.446	0.85
784.627	23.38
784.809	64.34
784.99	-68.78
785.172	152.4
785.353	50
785.535	56.15
785.716	-9.39
785.897	9.05
786.079	54.1
786.26	76.63
786.441	160.59
786.623	33.62
786.804	13.14
786.985	11.09
787.167	54.1
787.348	88.92
787.529	23.38
787.71	230.23
787.891	93.01
788.073	52.05
788.254	-42.15
788.435	133.97
788.616	60.24
788.797	76.63
788.978	21.33
789.159	68.44
789.34	119.64
789.522	2.9
789.703	-5.29
789.884	25.43
790.065	84.82
790.246	125.78
790.427	88.92
790.607	203.6
790.788	70.48
790.969	-1.19
791.15	97.11
791.331	17.24
791.512	60.24
791.693	2.9
791.874	-44.2
792.054	197.46
792.235	115.54
792.416	7
792.597	11.09
792.778	115.54
792.958	93.01
793.139	125.78
793.32	109.4
793.5	-38.06
793.681	131.92
793.862	54.1
794.042	-23.72
794.223	-62.63
794.404	21.33
794.584	27.48
794.765	86.87
794.945	-19.63
795.126	56.15
795.306	93.01
795.487	-31.91
795.667	-1.19
795.848	103.25
796.028	109.4
796.209	-7.34
796.389	82.77
796.57	56.15
796.75	-17.58
796.93	60.24
797.111	11.09
797.291	31.57
797.471	88.92
797.652	-27.82
797.832	-19.63
798.012	37.72
798.192	7
798.373	-27.82
798.553	2.9
798.733	90.96
798.913	-44.2
799.093	-44.2
799.274	54.1
799.454	88.92
799.634	111.44
799.814	136.02
799.994	80.72
800.174	90.96
800.354	45.91
800.534	-33.96
800.714	25.43
800.894	19.29
801.074	-105.64
801.254	-50.35
801.434	117.59
801.614	25.43
801.794	-42.15
801.974	1610.56
802.154	80.72
802.334	127.83
802.514	-58.54
802.693	62.29
802.873	23.38
803.053	62.29
803.233	64.34
803.413	21.33
803.592	-31.91
803.772	29.52
803.952	23.38
804.131	-66.73
804.311	105.3
804.491	162.64
804.67	19.29
804.85	17.24
805.03	101.2
805.209	50
805.389	80.72
805.568	52.05
805.748	60.24
805.928	-19.63
806.107	80.72
806.287	107.35
806.466	27.48
806.646	-17.58
806.825	60.24
807.004	23.38
807.184	54.1
807.363	117.59
807.543	74.58
807.722	-99.5
807.901	117.59
808.081	93.01
808.26	-101.55
808.439	54.1
808.619	21.33
808.798	-9.39
808.977	19.29
809.156	62.29
809.336	-3.24
809.515	80.72
809.694	-52.39
809.873	2.9
810.052	144.21
810.231	-11.43
810.411	90.96
810.59	50
810.769	-44.2
810.948	60.24
811.127	-167.08
811.306	11.09
811.485	2.9
811.664	72.53
811.843	29.52
812.022	39.76
812.201	11.09
812.38	39.76
812.559	-9.39
812.737	66.39
812.916	-19.63
813.095	58.2
813.274	27.48
813.453	21.33
813.632	76.63
813.811	72.53
813.989	-23.72
814.168	82.77
814.347	-48.3
814.526	23.38
814.704	84.82
814.883	203.6
815.062	4.95
815.24	99.16
815.419	33.62
815.598	70.48
815.776	-72.87
815.955	-19.63
816.133	-19.63
816.312	43.86
816.49	-9.39
816.669	-3.24
816.847	27.48
817.026	9.05
817.204	2.9
817.383	74.58
817.561	-44.2
817.74	23.38
817.918	50
818.097	-21.67
818.275	-9.39
818.453	88.92
818.632	47.96
818.81	-36.01
818.988	25.43
819.167	-5.29
819.345	23.38
819.523	-46.25
819.701	29.52
819.879	72.53
820.058	45.91
820.236	-19.63
820.414	2.9
820.592	97.11
820.77	23.38
820.948	68.44
821.127	-40.11
821.305	-23.72
821.483	-48.3
821.661	166.74
821.839	43.86
822.017	21.33
822.195	13.14
822.373	140.12
822.551	52.05
822.729	105.3
822.907	11.09
823.085	62.29
823.262	4.95
823.44	-21.67
823.618	0.85
823.796	21.33
823.974	-42.15
824.152	25.43
824.329	-17.58
824.507	-19.63
824.685	62.29
824.863	-46.25
825.04	138.07
825.218	4.95
825.396	-1.19
825.574	29.52
825.751	2.9
825.929	68.44
826.107	-36.01
826.284	-17.58
826.462	54.1
826.639	4.95
826.817	-31.91
826.994	64.34
827.172	2.9
827.349	125.78
827.527	29.52
827.704	66.39
827.882	95.06
828.059	-40.11
828.237	-1.19
828.414	58.2
828.591	-101.55
828.769	-5.29
828.946	-76.97
829.124	70.48
829.301	50
829.478	-1.19
829.655	-3.24
829.833	-29.87
830.01	-68.78
830.187	50
830.364	-62.63
830.542	-7.34
830.719	162.64
830.896	0.85
831.073	-29.87
831.25	101.2
831.427	82.77
831.604	68.44
831.782	11.09
831.959	41.81
832.136	45.91
832.313	-109.74
832.49	9.05
832.667	0.85
832.844	-23.72
833.021	174.93
833.198	19.29
833.374	21.33
833.551	56.15
833.728	-95.4
833.905	9.05
834.082	-103.59
834.259	86.87
834.436	150.36
834.612	-64.68
834.789	17.24
834.966	31.57
835.143	4.95
835.319	-119.98
835.496	4.95
835.673	74.58
835.85	138.07
836.026	0.85
836.203	66.39
836.38	-109.74
836.556	-5.29
836.733	-9.39
836.909	142.16
837.086	-15.53
837.262	-29.87
837.439	47.96
837.616	-1.19
837.792	11.09
837.968	4.95
838.145	-54.44
838.321	37.72
838.498	56.15
838.674	11.09
838.851	60.24
839.027	-36.01
839.203	-1.19
839.38	47.96
839.556	-42.15
839.732	39.76
839.909	19.29
840.085	82.77
840.261	-60.59
840.437	84.82
840.614	17.24
840.79	88.92
840.966	-52.39
841.142	-5.29
841.318	-25.77
841.494	80.72
841.671	88.92
841.847	-105.64
842.023	21.33
842.199	7
842.375	142.16
842.551	-160.94
842.727	-81.07
842.903	105.3
843.079	-13.48
843.255	150.36
843.431	-91.31
843.607	45.91
843.783	-62.63
843.959	64.34
844.134	-25.77
844.31	164.69
844.486	-36.01
844.662	78.68
844.838	-23.72
845.013	-66.73
845.189	72.53
845.365	15.19
845.541	9.05
845.716	29.52
845.892	21.33
846.068	-31.91
846.244	-79.02
846.419	39.76
846.595	-89.26
846.77	-46.25
846.946	146.26
847.122	4.95
847.297	-27.82
847.473	138.07
847.648	-54.44
847.824	-1.19
847.999	-105.64
848.175	7
848.35	33.62
848.526	9.05
848.701	74.58
848.876	41.81
849.052	84.82
849.227	13.14
849.403	-11.43
849.578	-31.91
849.753	68.44
849.929	88.92
850.104	-21.67
850.279	74.58
850.454	23.38
850.63	68.44
850.805	72.53
850.98	-36.01
851.155	41.81
851.33	47.96
851.505	-70.83
851.681	103.25
851.856	-99.5
852.031	60.24
852.206	60.24
852.381	-132.26
852.556	-54.44
852.731	50
852.906	97.11
853.081	68.44
853.256	125.78
853.431	-5.29
853.606	-38.06
853.781	-19.63
853.956	-46.25
854.131	-33.96
854.305	-29.87
854.48	-58.54
854.655	-27.82
854.83	-105.64
855.005	29.52
855.18	37.72
855.354	-58.54
855.529	0.85
855.704	45.91
855.879	58.2
856.053	-72.87
856.228	-17.58
856.403	-21.67
856.577	52.05
856.752	-83.11
856.926	62.29
857.101	-11.43
857.276	-93.35
857.45	-29.87
857.625	121.68
857.799	15.19
857.974	-38.06
858.148	-97.45
858.323	52.05
858.497	19.29
858.672	-66.73
858.846	-44.2
859.02	82.77
859.195	-87.21
859.369	-19.63
859.543	-9.39
859.718	-33.96
859.892	-72.87
860.066	41.81
860.241	-85.16
860.415	-62.63
860.589	72.53
860.763	-54.44
860.938	-5.29
861.112	60.24
861.286	-23.72
861.46	-36.01
861.634	-68.78
861.808	68.44
861.982	-76.97
862.157	-79.02
862.331	-60.59
862.505	-23.72
862.679	-68.78
862.853	-68.78
863.027	-54.44
863.201	133.97
863.375	-7.34
863.549	72.53
863.722	7
863.896	45.91
864.07	-70.83
864.244	0.85
864.418	78.68
864.592	13.14
864.766	17.24
864.939	70.48
865.113	7
865.287	144.21
865.461	-46.25
865.634	7
865.808	-27.82
865.982	-27.82
866.156	-74.92
866.329	-107.69
866.503	2.9
866.676	70.48
866.85	60.24
867.024	-76.97
867.197	56.15
867.371	62.29
867.544	50
867.718	-72.87
867.891	80.72
868.065	-33.96
868.238	15.19
868.412	121.68
868.585	-15.53
868.759	-95.4
868.932	15.19
869.105	-44.2
869.279	-29.87
869.452	-17.58
869.625	43.86
869.799	-27.82
869.972	-44.2
870.145	-42.15
870.319	117.59
870.492	9.05
870.665	-48.3
870.838	21.33
871.011	-29.87
871.185	-21.67
871.358	-60.59
871.531	86.87
871.704	-79.02
871.877	23.38
872.05	-9.39
872.223	-54.44
872.396	45.91
872.569	-9.39
872.742	19.29
872.915	52.05
873.088	-50.35
873.261	-31.91
873.434	78.68
873.607	23.38
873.78	162.64
873.953	-29.87
874.126	33.62
874.299	-31.91
874.471	-36.01
874.644	-33.96
874.817	27.48
874.99	99.16
875.163	-15.53
875.335	50
875.508	-15.53
875.681	95.06
875.853	13.14
876.026	-58.54
876.199	15.19
876.371	-54.44
876.544	19.29
876.717	43.86
876.889	-40.11
877.062	41.81
877.234	-50.35
877.407	-3.24
877.579	-15.53
877.752	45.91
877.924	111.44
878.097	76.63
878.269	-1.19
878.442	21.33
878.614	84.82
878.786	23.38
878.959	97.11
879.131	-11.43
879.303	-113.83
879.476	19.29
879.648	111.44
879.82	27.48
879.993	27.48
880.165	-74.92
880.337	-79.02
880.509	-56.49
880.681	-132.26
880.854	21.33
881.026	62.29
881.198	156.5
881.37	9.05
881.542	-105.64
881.714	64.34
881.886	-13.48
882.058	23.38
882.23	93.01
882.402	-40.11
882.574	-1.19
882.746	109.4
882.918	97.11
883.09	-13.48
883.262	-33.96
883.434	25.43
883.606	-50.35
883.778	35.67
883.95	129.88
884.122	-31.91
884.293	43.86
884.465	-3.24
884.637	88.92
884.809	4.95
884.98	82.77
885.152	-44.2
885.324	15.19
885.496	-91.31
885.667	-15.53
885.839	17.24
886.011	123.73
886.182	50
886.354	37.72
886.525	-85.16
886.697	27.48
886.869	0.85
887.04	-38.06
887.212	172.88
887.383	103.25
887.555	-13.48
887.726	15.19
887.897	-38.06
888.069	-31.91
888.24	129.88
888.412	72.53
888.583	27.48
888.754	-9.39
888.926	-95.4
889.097	15.19
889.268	-33.96
889.44	19.29
889.611	-76.97
889.782	-23.72
889.953	-5.29
890.125	27.48
890.296	-165.03
890.467	-17.58
890.638	-17.58
890.809	68.44
890.98	-38.06
891.151	37.72
891.323	109.4
891.494	-27.82
891.665	47.96
891.836	-25.77
892.007	52.05
892.178	2.9
892.349	-60.59
892.52	-3.24
892.691	-13.48
892.862	-29.87
893.032	-70.83
893.203	-44.2
893.374	70.48
893.545	72.53
893.716	-25.77
893.887	97.11
894.057	-58.54
894.228	56.15
894.399	-33.96
894.57	74.58
894.74	52.05
894.911	19.29
895.082	-21.67
895.253	9.05
895.423	-25.77
895.594	47.96
895.764	29.52
895.935	-97.45
896.106	33.62
896.276	-13.48
896.447	50
896.617	-11.43
896.788	-64.68
896.958	-19.63
897.129	2.9
897.299	-7.34
897.47	95.06
897.64	95.06
897.81	66.39
897.981	17.24
898.151	-46.25
898.322	56.15
898.492	82.77
898.662	-19.63
898.832	-50.35
899.003	-7.34
899.173	2.9
899.343	-56.49
899.513	-64.68
