Data from USB4F104151__0__10-40-43-406.txt Node

Date: Wed Feb 26 10:40:43 EST 2025
User: louis
Spectrometer: USB4F10415
Trigger mode: 4
Integration Time (sec): 1.000000E-1
Scans to average: 1
Electric dark correction enabled: true
Nonlinearity correction enabled: false
Boxcar width: 0
XAxis mode: Wavelengths
Number of Pixels in Spectrum: 3648
>>>>>Begin Spectral Data<<<<<
178.204	-421.2
178.424	-421.2
178.644	-421.2
178.864	-355.66
179.084	-351.57
179.304	12.97
179.524	-36.18
179.744	-52.56
179.964	-7.51
180.184	88.75
180.404	-34.13
180.624	43.69
180.844	68.27
181.064	-103.76
181.283	45.74
181.503	-60.76
181.723	35.5
181.943	-109.91
182.163	215.72
182.383	-56.66
182.602	86.7
182.822	156.33
183.042	51.88
183.262	-85.33
183.482	-54.61
183.701	49.83
183.921	0.68
184.141	31.4
184.361	62.12
184.58	80.55
184.8	94.89
185.02	33.45
185.239	187.05
185.459	12.97
185.679	152.23
185.898	-42.32
186.118	92.84
186.338	39.59
186.557	115.37
186.777	-15.7
186.997	-40.28
187.216	55.98
187.436	154.28
187.655	133.8
187.875	-19.8
188.095	80.55
188.314	103.08
188.534	139.94
188.753	-62.8
188.973	-1.37
189.192	172.71
189.412	-30.04
189.631	0.68
189.851	78.51
190.07	119.46
190.29	-46.42
190.509	45.74
190.729	-34.13
190.948	144.04
191.168	262.82
191.387	133.8
191.607	92.84
191.826	31.4
192.045	21.16
192.265	21.16
192.484	39.59
192.704	27.31
192.923	8.87
193.142	178.86
193.362	80.55
193.581	141.99
193.8	23.21
194.02	49.83
194.239	74.41
194.458	96.94
194.678	-1.37
194.897	19.11
195.116	55.98
195.335	60.07
195.555	41.64
195.774	17.07
195.993	86.7
196.212	15.02
196.432	76.46
196.651	25.26
196.87	62.12
197.089	230.06
197.308	41.64
197.528	33.45
197.747	-9.56
197.966	62.12
198.185	129.7
198.404	-52.56
198.623	47.79
198.842	109.22
199.062	45.74
199.281	47.79
199.5	96.94
199.719	19.11
199.938	15.02
200.157	78.51
200.376	117.42
200.595	178.86
200.814	113.32
201.033	-1.37
201.252	240.29
201.471	101.03
201.69	37.55
201.909	23.21
202.128	117.42
202.347	125.61
202.566	-27.99
202.785	-71
203.004	25.26
203.223	275.11
203.442	35.5
203.661	-17.75
203.879	96.94
204.098	148.14
204.317	-15.7
204.536	115.37
204.755	88.75
204.974	119.46
205.193	45.74
205.411	74.41
205.63	141.99
205.849	90.79
206.068	39.59
206.287	-23.89
206.505	133.8
206.724	39.59
206.943	-21.85
207.162	84.65
207.381	33.45
207.599	-15.7
207.818	41.64
208.037	-42.32
208.255	82.6
208.474	51.88
208.693	-1.37
208.911	-58.71
209.13	90.79
209.349	19.11
209.567	88.75
209.786	39.59
210.005	43.69
210.223	33.45
210.442	-140.63
210.661	25.26
210.879	25.26
211.098	23.21
211.316	111.27
211.535	41.64
211.753	55.98
211.972	139.94
212.191	-21.85
212.409	21.16
212.628	62.12
212.846	12.97
213.065	68.27
213.283	223.91
213.502	10.92
213.72	109.22
213.938	51.88
214.157	113.32
214.375	101.03
214.594	10.92
214.812	60.07
215.031	43.69
215.249	-23.89
215.467	80.55
215.686	92.84
215.904	74.41
216.122	98.99
216.341	176.81
216.559	-7.51
216.778	101.03
216.996	168.62
217.214	25.26
217.432	-7.51
217.651	-46.42
217.869	43.69
218.087	55.98
218.306	80.55
218.524	-11.61
218.742	47.79
218.96	78.51
219.179	84.65
219.397	2.73
219.615	178.86
219.833	55.98
220.051	-34.13
220.27	111.27
220.488	109.22
220.706	33.45
220.924	6.83
221.142	-44.37
221.36	43.69
221.578	135.85
221.796	-9.56
222.015	27.31
222.233	135.85
222.451	164.52
222.669	-23.89
222.887	12.97
223.105	35.5
223.323	90.79
223.541	-30.04
223.759	70.31
223.977	53.93
224.195	139.94
224.413	19.11
224.631	43.69
224.849	101.03
225.067	219.82
225.285	21.16
225.503	58.03
225.721	-95.57
225.939	-48.47
226.157	33.45
226.375	187.05
226.592	-52.56
226.81	35.5
227.028	129.7
227.246	170.66
227.464	0.68
227.682	64.17
227.9	105.13
228.117	21.16
228.335	51.88
228.553	15.02
228.771	43.69
228.989	51.88
229.206	84.65
229.424	62.12
229.642	-7.51
229.86	-13.65
230.077	148.14
230.295	19.11
230.513	127.66
230.731	109.22
230.948	221.86
231.166	203.43
231.384	-23.89
231.601	33.45
231.819	180.9
232.037	-64.85
232.254	-1.37
232.472	35.5
232.689	-7.51
232.907	127.66
233.125	21.16
233.342	17.07
233.56	10.92
233.777	45.74
233.995	-1.37
234.213	125.61
234.43	103.08
234.648	41.64
234.865	119.46
235.083	66.22
235.3	21.16
235.518	88.75
235.735	166.57
235.953	105.13
236.17	-83.28
236.388	17.07
236.605	68.27
236.822	92.84
237.04	-9.56
237.257	23.21
237.475	-77.14
237.692	12.97
237.909	33.45
238.127	-7.51
238.344	94.89
238.562	41.64
238.779	-38.23
238.996	-60.76
239.214	-19.8
239.431	125.61
239.648	21.16
239.865	-5.46
240.083	182.95
240.3	25.26
240.517	23.21
240.735	53.93
240.952	121.51
241.169	-7.51
241.386	41.64
241.603	82.6
241.821	-19.8
242.038	94.89
242.255	47.79
242.472	-40.28
242.689	70.31
242.907	74.41
243.124	156.33
243.341	29.35
243.558	39.59
243.775	-91.48
243.992	-36.18
244.209	19.11
244.426	166.57
244.643	82.6
244.86	74.41
245.078	148.14
245.295	105.13
245.512	31.4
245.729	-13.65
245.946	82.6
246.163	115.37
246.38	23.21
246.597	15.02
246.814	66.22
247.031	25.26
247.248	8.87
247.464	17.07
247.681	60.07
247.898	82.6
248.115	84.65
248.332	41.64
248.549	109.22
248.766	201.38
248.983	94.89
249.2	86.7
249.417	107.18
249.633	-13.65
249.85	101.03
250.067	-27.99
250.284	10.92
250.501	70.31
250.717	84.65
250.934	-46.42
251.151	27.31
251.368	12.97
251.585	2.73
251.801	62.12
252.018	6.83
252.235	133.8
252.451	-77.14
252.668	84.65
252.885	111.27
253.102	12.97
253.318	-11.61
253.535	-60.76
253.752	-19.8
253.968	6.83
254.185	-56.66
254.401	101.03
254.618	64.17
254.835	64.17
255.051	107.18
255.268	84.65
255.484	74.41
255.701	82.6
255.917	146.09
256.134	-52.56
256.351	47.79
256.567	-89.43
256.784	49.83
257	-40.28
257.217	115.37
257.433	88.75
257.65	84.65
257.866	234.15
258.082	-73.04
258.299	-13.65
258.515	31.4
258.732	-7.51
258.948	-1.37
259.165	58.03
259.381	-34.13
259.597	107.18
259.814	2.73
260.03	35.5
260.246	29.35
260.463	94.89
260.679	109.22
260.895	74.41
261.112	58.03
261.328	25.26
261.544	-83.28
261.761	174.76
261.977	-75.09
262.193	21.16
262.409	55.98
262.626	47.79
262.842	60.07
263.058	-42.32
263.274	115.37
263.49	45.74
263.707	164.52
263.923	62.12
264.139	-44.37
264.355	17.07
264.571	37.55
264.787	74.41
265.004	129.7
265.22	43.69
265.436	-17.75
265.652	74.41
265.868	80.55
266.084	35.5
266.3	84.65
266.516	-46.42
266.732	113.32
266.948	68.27
267.164	21.16
267.38	107.18
267.596	-50.52
267.812	101.03
268.028	41.64
268.244	37.55
268.46	-7.51
268.676	0.68
268.892	111.27
269.108	0.68
269.324	8.87
269.54	15.02
269.756	78.51
269.972	39.59
270.188	45.74
270.403	-27.99
270.619	17.07
270.835	117.42
271.051	35.5
271.267	-17.75
271.483	6.83
271.698	37.55
271.914	35.5
272.13	105.13
272.346	27.31
272.562	6.83
272.777	119.46
272.993	-17.75
273.209	-13.65
273.425	60.07
273.64	-62.8
273.856	131.75
274.072	-9.56
274.287	-54.61
274.503	82.6
274.719	6.83
274.934	27.31
275.15	10.92
275.366	47.79
275.581	-56.66
275.797	-50.52
276.012	90.79
276.228	-19.8
276.444	51.88
276.659	98.99
276.875	-21.85
277.09	25.26
277.306	8.87
277.521	49.83
277.737	-1.37
277.952	51.88
278.168	-75.09
278.383	49.83
278.599	-11.61
278.814	84.65
279.03	76.46
279.245	127.66
279.461	31.4
279.676	10.92
279.892	23.21
280.107	-91.48
280.322	-27.99
280.538	66.22
280.753	23.21
280.969	0.68
281.184	23.21
281.399	172.71
281.615	12.97
281.83	10.92
282.045	17.07
282.26	2.73
282.476	41.64
282.691	62.12
282.906	21.16
283.122	105.13
283.337	6.83
283.552	55.98
283.767	-23.89
283.983	123.56
284.198	19.11
284.413	101.03
284.628	-118.1
284.843	19.11
285.058	70.31
285.274	19.11
285.489	8.87
285.704	121.51
285.919	12.97
286.134	39.59
286.349	55.98
286.564	-79.19
286.779	152.23
286.995	-89.43
287.21	-75.09
287.425	144.04
287.64	19.11
287.855	47.79
288.07	-13.65
288.285	66.22
288.5	125.61
288.715	60.07
288.93	72.36
289.145	78.51
289.36	158.38
289.575	4.78
289.79	121.51
290.004	33.45
290.219	105.13
290.434	-25.94
290.649	0.68
290.864	-54.61
291.079	70.31
291.294	111.27
291.509	2.73
291.724	4.78
291.938	62.12
292.153	86.7
292.368	-13.65
292.583	127.66
292.798	8.87
293.012	105.13
293.227	70.31
293.442	-38.23
293.657	146.09
293.871	76.46
294.086	37.55
294.301	178.86
294.516	70.31
294.73	62.12
294.945	8.87
295.16	25.26
295.374	107.18
295.589	47.79
295.804	-40.28
296.018	74.41
296.233	109.22
296.447	72.36
296.662	-21.85
296.877	176.81
297.091	105.13
297.306	55.98
297.52	68.27
297.735	96.94
297.949	-30.04
298.164	17.07
298.378	31.4
298.593	-38.23
298.807	-1.37
299.022	-36.18
299.236	103.08
299.451	8.87
299.665	47.79
299.88	4.78
300.094	70.31
300.309	-44.37
300.523	0.68
300.737	12.97
300.952	76.46
301.166	94.89
301.381	-44.37
301.595	-58.71
301.809	29.35
302.024	-17.75
302.238	-25.94
302.452	148.14
302.667	154.28
302.881	139.94
303.095	105.13
303.309	58.03
303.524	31.4
303.738	37.55
303.952	-30.04
304.166	115.37
304.381	-189.78
304.595	174.76
304.809	12.97
305.023	45.74
305.237	-42.32
305.452	39.59
305.666	76.46
305.88	58.03
306.094	76.46
306.308	12.97
306.522	76.46
306.736	2.73
306.95	80.55
307.164	21.16
307.379	64.17
307.593	129.7
307.807	113.32
308.021	70.31
308.235	55.98
308.449	35.5
308.663	6.83
308.877	176.81
309.091	-17.75
309.305	86.7
309.519	-75.09
309.733	90.79
309.947	-81.24
310.161	64.17
310.374	117.42
310.588	158.38
310.802	-50.52
311.016	-42.32
311.23	60.07
311.444	6.83
311.658	0.68
311.872	119.46
312.085	166.57
312.299	137.9
312.513	166.57
312.727	49.83
312.941	-36.18
313.154	45.74
313.368	2.73
313.582	72.36
313.796	23.21
314.009	17.07
314.223	158.38
314.437	111.27
314.651	121.51
314.864	-9.56
315.078	-13.65
315.292	-83.28
315.505	2.73
315.719	76.46
315.933	119.46
316.146	-30.04
316.36	43.69
316.573	150.18
316.787	-9.56
317.001	29.35
317.214	-48.47
317.428	68.27
317.641	-9.56
317.855	41.64
318.068	80.55
318.282	-19.8
318.495	115.37
318.709	4.78
318.922	41.64
319.136	152.23
319.349	117.42
319.563	19.11
319.776	90.79
319.99	-60.76
320.203	127.66
320.417	84.65
320.63	88.75
320.843	148.14
321.057	72.36
321.27	-44.37
321.483	49.83
321.697	150.18
321.91	37.55
322.124	25.26
322.337	51.88
322.55	2.73
322.763	17.07
322.977	21.16
323.19	-42.32
323.403	4.78
323.617	68.27
323.83	111.27
324.043	35.5
324.256	-19.8
324.469	19.11
324.683	90.79
324.896	-13.65
325.109	78.51
325.322	-15.7
325.535	94.89
325.748	109.22
325.962	39.59
326.175	55.98
326.388	76.46
326.601	86.7
326.814	-7.51
327.027	-34.13
327.24	148.14
327.453	-105.81
327.666	131.75
327.879	111.27
328.092	92.84
328.305	-9.56
328.518	10.92
328.731	41.64
328.944	-58.71
329.157	66.22
329.37	-7.51
329.583	141.99
329.796	76.46
330.009	-62.8
330.222	31.4
330.435	121.51
330.648	84.65
330.861	96.94
331.073	8.87
331.286	115.37
331.499	4.78
331.712	-46.42
331.925	47.79
332.138	60.07
332.35	98.99
332.563	-50.52
332.776	121.51
332.989	0.68
333.202	31.4
333.414	43.69
333.627	58.03
333.84	-9.56
334.053	92.84
334.265	-36.18
334.478	25.26
334.691	-19.8
334.903	-15.7
335.116	23.21
335.329	17.07
335.541	148.14
335.754	172.71
335.966	35.5
336.179	-7.51
336.392	-85.33
336.604	47.79
336.817	60.07
337.029	55.98
337.242	45.74
337.454	113.32
337.667	53.93
337.88	90.79
338.092	8.87
338.305	82.6
338.517	-5.46
338.729	76.46
338.942	72.36
339.154	-34.13
339.367	-19.8
339.579	80.55
339.792	-68.95
340.004	107.18
340.217	2.73
340.429	105.13
340.641	-5.46
340.854	0.68
341.066	78.51
341.278	141.99
341.491	189.1
341.703	4.78
341.915	4.78
342.128	111.27
342.34	-21.85
342.552	-75.09
342.764	-36.18
342.977	45.74
343.189	187.05
343.401	27.31
343.613	-11.61
343.826	8.87
344.038	-17.75
344.25	35.5
344.462	45.74
344.674	58.03
344.886	62.12
345.099	107.18
345.311	45.74
345.523	-85.33
345.735	-101.72
345.947	29.35
346.159	53.93
346.371	55.98
346.583	58.03
346.795	182.95
347.007	6.83
347.219	64.17
347.431	6.83
347.643	129.7
347.855	-7.51
348.067	164.52
348.279	-42.32
348.491	21.16
348.703	86.7
348.915	12.97
349.127	-42.32
349.339	90.79
349.551	-27.99
349.763	113.32
349.975	21.16
350.187	82.6
350.399	92.84
350.61	127.66
350.822	43.69
351.034	49.83
351.246	62.12
351.458	41.64
351.669	2.73
351.881	103.08
352.093	84.65
352.305	53.93
352.517	72.36
352.728	168.62
352.94	111.27
353.152	23.21
353.363	17.07
353.575	98.99
353.787	176.81
353.999	92.84
354.21	160.42
354.422	-11.61
354.633	115.37
354.845	94.89
355.057	39.59
355.268	58.03
355.48	72.36
355.692	-75.09
355.903	23.21
356.115	-62.8
356.326	-71
356.538	152.23
356.749	-15.7
356.961	55.98
357.172	-46.42
357.384	-85.33
357.595	189.1
357.807	53.93
358.018	-60.76
358.23	49.83
358.441	174.76
358.653	133.8
358.864	35.5
359.075	-68.95
359.287	51.88
359.498	101.03
359.709	68.27
359.921	49.83
360.132	27.31
360.344	31.4
360.555	-36.18
360.766	23.21
360.977	35.5
361.189	156.33
361.4	60.07
361.611	121.51
361.823	195.24
362.034	66.22
362.245	-75.09
362.456	41.64
362.667	70.31
362.879	-21.85
363.09	70.31
363.301	90.79
363.512	58.03
363.723	39.59
363.935	-40.28
364.146	43.69
364.357	-5.46
364.568	68.27
364.779	-36.18
364.99	119.46
365.201	-56.66
365.412	70.31
365.623	-85.33
365.834	4.78
366.045	113.32
366.256	109.22
366.467	66.22
366.678	-9.56
366.889	-27.99
367.1	-42.32
367.311	64.17
367.522	-5.46
367.733	55.98
367.944	92.84
368.155	33.45
368.366	113.32
368.577	109.22
368.788	119.46
368.999	-13.65
369.209	37.55
369.42	154.28
369.631	273.06
369.842	74.41
370.053	-64.85
370.264	123.56
370.474	-66.9
370.685	2.73
370.896	2.73
371.107	156.33
371.317	21.16
371.528	55.98
371.739	86.7
371.95	109.22
372.16	84.65
372.371	-73.04
372.582	-19.8
372.792	66.22
373.003	98.99
373.214	60.07
373.424	121.51
373.635	-48.47
373.846	162.47
374.056	62.12
374.267	62.12
374.477	98.99
374.688	-40.28
374.898	49.83
375.109	45.74
375.319	39.59
375.53	35.5
375.74	119.46
375.951	-13.65
376.161	72.36
376.372	148.14
376.582	19.11
376.793	25.26
377.003	-15.7
377.214	-13.65
377.424	127.66
377.635	-7.51
377.845	-99.67
378.055	58.03
378.266	17.07
378.476	29.35
378.686	41.64
378.897	25.26
379.107	127.66
379.317	29.35
379.528	29.35
379.738	111.27
379.948	21.16
380.158	66.22
380.369	27.31
380.579	164.52
380.789	-19.8
380.999	51.88
381.21	115.37
381.42	244.39
381.63	-48.47
381.84	94.89
382.05	12.97
382.261	66.22
382.471	133.8
382.681	-38.23
382.891	80.55
383.101	107.18
383.311	27.31
383.521	-93.52
383.731	84.65
383.941	84.65
384.151	82.6
384.361	15.02
384.571	80.55
384.781	-5.46
384.991	129.7
385.201	131.75
385.411	94.89
385.621	146.09
385.831	2.73
386.041	29.35
386.251	39.59
386.461	55.98
386.671	-9.56
386.881	133.8
387.091	29.35
387.301	39.59
387.511	15.02
387.72	125.61
387.93	53.93
388.14	-85.33
388.35	88.75
388.56	84.65
388.769	141.99
388.979	-17.75
389.189	-107.86
389.399	53.93
389.609	133.8
389.818	98.99
390.028	101.03
390.238	19.11
390.447	-1.37
390.657	109.22
390.867	-52.56
391.076	-81.24
391.286	127.66
391.496	-32.08
391.705	78.51
391.915	125.61
392.125	117.42
392.334	35.5
392.544	62.12
392.753	78.51
392.963	-21.85
393.172	8.87
393.382	15.02
393.591	150.18
393.801	72.36
394.01	150.18
394.22	78.51
394.429	-85.33
394.639	0.68
394.848	55.98
395.058	80.55
395.267	66.22
395.477	74.41
395.686	29.35
395.895	94.89
396.105	199.34
396.314	33.45
396.524	39.59
396.733	101.03
396.942	133.8
397.152	121.51
397.361	49.83
397.57	111.27
397.78	0.68
397.989	74.41
398.198	248.49
398.407	21.16
398.617	25.26
398.826	47.79
399.035	-1.37
399.244	72.36
399.453	-1.37
399.663	131.75
399.872	105.13
400.081	0.68
400.29	80.55
400.499	-62.8
400.708	154.28
400.917	-11.61
401.127	31.4
401.336	41.64
401.545	187.05
401.754	105.13
401.963	41.64
402.172	21.16
402.381	-32.08
402.59	41.64
402.799	15.02
403.008	84.65
403.217	90.79
403.426	-9.56
403.635	58.03
403.844	23.21
404.053	-48.47
404.262	45.74
404.471	189.1
404.68	133.8
404.888	123.56
405.097	2.73
405.306	135.85
405.515	92.84
405.724	39.59
405.933	125.61
406.142	25.26
406.35	152.23
406.559	66.22
406.768	51.88
406.977	148.14
407.185	70.31
407.394	86.7
407.603	0.68
407.812	103.08
408.02	201.38
408.229	25.26
408.438	105.13
408.646	-58.71
408.855	90.79
409.064	92.84
409.272	51.88
409.481	131.75
409.69	-77.14
409.898	-66.9
410.107	105.13
410.315	64.17
410.524	27.31
410.733	88.75
410.941	41.64
411.15	123.56
411.358	33.45
411.567	135.85
411.775	35.5
411.984	19.11
412.192	76.46
412.401	51.88
412.609	154.28
412.818	103.08
413.026	43.69
413.234	8.87
413.443	37.55
413.651	-50.52
413.86	10.92
414.068	125.61
414.276	162.47
414.485	-34.13
414.693	293.54
414.901	197.29
415.11	80.55
415.318	37.55
415.526	-1.37
415.734	101.03
415.943	62.12
416.151	158.38
416.359	23.21
416.567	68.27
416.776	27.31
416.984	156.33
417.192	166.57
417.4	51.88
417.608	8.87
417.817	-7.51
418.025	115.37
418.233	123.56
418.441	-23.89
418.649	-79.19
418.857	98.99
419.065	127.66
419.273	-25.94
419.481	117.42
419.689	17.07
419.897	2.73
420.105	-66.9
420.313	92.84
420.521	170.66
420.729	141.99
420.937	-13.65
421.145	-15.7
421.353	72.36
421.561	109.22
421.769	35.5
421.977	8.87
422.185	25.26
422.393	45.74
422.601	180.9
422.809	53.93
423.017	86.7
423.224	119.46
423.432	103.08
423.64	15.02
423.848	105.13
424.056	62.12
424.263	84.65
424.471	76.46
424.679	123.56
424.887	19.11
425.094	96.94
425.302	-23.89
425.51	17.07
425.718	123.56
425.925	31.4
426.133	45.74
426.341	240.29
426.548	37.55
426.756	41.64
426.964	193.19
427.171	66.22
427.379	84.65
427.586	80.55
427.794	166.57
428.001	172.71
428.209	62.12
428.417	86.7
428.624	178.86
428.832	182.95
429.039	86.7
429.247	51.88
429.454	144.04
429.662	246.44
429.869	111.27
430.076	133.8
430.284	148.14
430.491	207.53
430.699	162.47
430.906	266.92
431.114	158.38
431.321	146.09
431.528	111.27
431.736	51.88
431.943	131.75
432.15	162.47
432.358	195.24
432.565	240.29
432.772	45.74
432.979	232.1
433.187	115.37
433.394	133.8
433.601	80.55
433.808	223.91
434.016	238.25
434.223	193.19
434.43	193.19
434.637	262.82
434.844	279.21
435.052	197.29
435.259	291.49
435.466	281.25
435.673	211.62
435.88	309.93
436.087	230.06
436.294	352.93
436.501	328.36
436.708	234.15
436.915	303.78
437.122	291.49
437.329	258.73
437.537	228.01
437.743	225.96
437.95	363.17
438.157	357.03
438.364	352.93
438.571	303.78
438.778	354.98
438.985	363.17
439.192	383.65
439.399	314.02
439.606	408.23
439.813	535.2
440.02	572.07
440.227	627.36
440.433	559.78
440.64	529.06
440.847	449.19
441.054	580.26
441.261	678.56
441.467	547.49
441.674	520.87
441.881	715.42
442.088	637.6
442.294	678.56
442.501	688.8
442.708	662.18
442.914	637.6
443.121	793.25
443.328	907.93
443.534	789.15
443.741	848.54
443.948	715.42
444.154	889.5
444.361	971.42
444.568	983.71
444.774	973.47
444.981	756.38
445.187	1079.96
445.394	1098.39
445.6	979.61
445.807	1149.59
446.013	1122.97
446.22	1133.21
446.426	1286.81
446.633	1340.05
446.839	1522.32
447.046	1317.53
447.252	1571.47
447.459	1526.42
447.665	1522.32
447.871	1604.24
448.078	1870.48
448.284	1714.83
448.491	1946.25
448.697	1950.35
448.903	1970.83
449.11	1981.07
449.316	1964.68
449.522	2126.47
449.728	2228.87
449.935	2282.12
450.141	2310.79
450.347	2523.78
450.553	2353.8
450.76	2497.16
450.966	2718.34
451.172	2808.45
451.378	2951.81
451.584	2927.23
451.791	3275.38
451.997	3203.71
452.203	3197.56
452.409	3590.77
452.615	3519.09
452.821	3586.68
453.027	3531.38
453.233	3990.13
453.44	3723.89
453.646	4029.04
453.852	4282.99
454.058	4321.9
454.264	4678.24
454.47	4821.6
454.676	4930.14
454.882	5255.77
455.088	5050.97
455.294	5392.98
455.5	5669.46
455.705	6015.57
455.911	5894.74
456.117	6105.68
456.323	6421.06
456.529	6322.76
456.735	6996.54
456.941	7330.36
457.147	7457.34
457.352	7635.51
457.558	7895.6
457.764	8364.59
457.97	8817.19
458.176	8890.92
458.381	9308.7
458.587	9613.85
458.793	10072.59
458.999	9996.82
459.204	11184.64
459.41	11639.29
459.616	11229.7
459.821	12106.23
460.027	12599.79
460.233	13181.41
460.438	13171.17
460.644	14100.95
460.85	14043.6
461.055	14453.2
461.261	15333.82
461.466	14758.35
461.672	15184.32
461.878	17037.73
462.083	16929.19
462.289	17629.6
462.494	18000.28
462.7	18299.28
462.905	18383.25
463.111	19925.37
463.316	20703.6
463.522	21080.42
463.727	22057.31
463.932	22866.25
464.138	23335.24
464.343	24435
464.549	24647.99
464.754	26532.12
464.959	26816.79
465.165	27373.83
465.37	27359.5
465.575	27562.25
465.781	28772.6
465.986	30236.89
466.191	29466.86
466.397	29962.47
466.602	29198.57
466.807	30568.66
467.012	31441.1
467.218	31893.7
467.423	32204.99
467.628	32856.25
467.833	34578.59
468.038	33802.41
468.244	32813.24
468.449	35192.98
468.654	34134.18
468.859	34078.88
469.064	34136.23
469.269	33484.97
469.474	33689.77
469.679	34695.32
469.885	33775.78
470.09	34035.88
470.295	34365.6
470.5	33611.95
470.705	33599.66
470.91	32792.76
471.115	32379.07
471.32	33091.76
471.525	32448.7
471.73	31762.63
471.935	31697.1
472.139	30324.96
472.344	30552.28
472.549	30421.21
472.754	30003.42
472.959	28995.82
473.164	28385.53
473.369	27705.6
473.574	28565.75
473.778	27824.39
473.983	27664.64
474.188	27048.21
474.393	25844
474.598	25528.61
474.802	25211.18
475.007	24686.9
475.212	24725.81
475.417	23550.28
475.621	23238.98
475.826	23040.33
476.031	22538.58
476.235	21895.52
476.44	22094.17
476.645	21338.47
476.849	21107.05
477.054	20765.04
477.259	20259.19
477.463	20580.72
477.668	19761.53
477.872	19865.98
478.077	19569.02
478.282	18774.41
478.486	18528.66
478.691	18219.41
478.895	18010.52
479.1	18246.04
479.304	18125.21
479.509	17334.69
479.713	17562.01
479.918	17093.03
480.122	16572.85
480.326	17119.65
480.531	17154.47
480.735	16804.27
480.94	16429.49
481.144	17068.45
481.348	16157.11
481.553	16122.29
481.757	15751.61
481.961	15835.58
482.166	16333.23
482.37	15669.69
482.574	15419.84
482.778	15460.8
482.983	15661.5
483.187	15368.64
483.391	15237.57
483.595	15086.02
483.8	14809.54
484.004	14932.42
484.208	14879.18
484.412	14508.49
484.616	14668.23
484.821	14178.77
485.025	13955.54
485.229	13810.14
485.433	13732.31
485.637	13687.26
485.841	13242.85
486.045	13384.16
486.249	12919.27
486.453	12700.14
486.657	12593.64
486.861	12458.48
487.065	12034.55
487.269	11985.4
487.473	11606.52
487.677	11782.65
487.881	11715.06
488.085	11110.91
488.289	11375.1
488.493	10867.2
488.697	10779.14
488.901	10525.19
489.105	10504.71
489.309	10177.04
489.512	10164.75
489.716	9826.84
489.92	9767.45
490.124	9681.43
490.328	9630.23
490.531	9259.55
490.735	9001.51
490.939	8706.6
491.143	8735.27
491.346	8712.74
491.55	8643.11
491.754	8426.03
491.958	8471.08
492.161	8118.83
492.365	7973.42
492.569	7764.53
492.772	7832.12
492.976	7756.34
493.18	7625.27
493.383	7637.56
493.587	7371.32
493.79	7383.61
493.994	7187.01
494.197	6951.49
494.401	7004.74
494.605	6933.06
494.808	6990.4
495.012	6908.48
495.215	6863.43
495.419	6875.71
495.622	6584.9
495.825	6711.88
496.029	6437.45
496.232	6455.88
496.436	6486.6
496.639	6586.95
496.843	6492.74
497.046	6597.19
497.249	6550.09
497.453	6617.67
497.656	6568.52
497.859	6515.27
498.063	6562.37
498.266	6634.05
498.469	6384.2
498.673	6365.77
498.876	6623.81
499.079	6621.77
499.282	6545.99
499.485	6847.04
499.689	6763.08
499.892	7105.09
500.095	6662.72
500.298	6937.15
500.501	6666.82
500.705	6941.25
500.908	7125.57
501.111	7180.86
501.314	7158.33
501.517	7096.89
501.72	7234.11
501.923	7346.75
502.126	7434.81
502.329	7635.51
502.532	7686.71
502.735	7533.11
502.938	7789.11
503.141	7739.96
503.344	7774.77
503.547	8026.67
503.75	8026.67
503.953	7979.57
504.156	8403.5
504.359	8442.41
504.562	8415.79
504.765	8669.73
504.968	8866.34
505.17	9099.81
505.373	9183.77
505.576	9386.52
505.779	9310.75
505.982	9413.15
506.185	9785.88
506.387	9726.49
506.59	9867.8
506.793	10281.49
506.996	10238.48
507.198	10678.79
507.401	10596.87
507.604	10820.1
507.807	11305.47
508.009	11325.95
508.212	11647.48
508.415	11723.26
508.617	12110.32
508.82	12118.51
509.022	12263.92
509.225	12702.18
509.428	13128.16
509.63	13117.92
509.833	13498.84
510.035	13982.17
510.238	13797.85
510.44	14238.16
510.643	15004.1
510.845	15073.73
511.048	15362.5
511.25	15763.9
511.453	16054.71
511.655	16775.59
511.858	16753.07
512.06	17064.36
512.262	17449.38
512.465	17412.51
512.667	18219.41
512.87	18723.21
513.072	18958.73
513.274	19548.54
513.477	20046.2
513.679	20251
513.881	21057.9
514.084	21330.28
514.286	21741.92
514.488	22266.2
514.69	23028.04
514.893	23212.36
515.095	23513.41
515.297	24236.34
515.499	24539.44
515.701	25235.75
515.904	25870.62
516.106	26413.34
516.308	26880.27
516.51	27552.01
516.712	27959.55
516.914	28412.15
517.116	29184.24
517.318	29227.24
517.52	29884.64
517.722	30503.13
517.925	30949.59
518.127	31846.6
518.329	32405.69
518.531	32481.47
518.733	33491.12
518.935	34087.07
519.136	34316.45
519.338	35211.41
519.54	35453.07
519.742	36145.28
519.944	36567.16
520.146	37146.74
520.348	37888.1
520.55	38271.07
520.752	38615.13
520.954	39202.9
521.155	38752.35
521.357	40122.44
521.559	40554.56
521.761	41211.96
521.963	41429.04
522.164	41887.79
522.366	42229.8
522.568	42715.17
522.77	42639.39
522.971	43880.46
523.173	43511.83
523.375	44011.53
523.576	43876.37
523.778	43993.1
523.98	44812.29
524.181	45142.01
524.383	44797.95
524.584	45682.67
524.786	45146.11
524.988	44961.79
525.189	45406.2
525.391	45662.19
525.592	45946.86
525.794	46000.11
525.995	46110.7
526.197	45486.07
526.398	45471.73
526.6	45727.73
526.801	45514.74
527.003	45746.16
527.204	45273.08
527.406	45234.17
527.607	44838.91
527.808	44883.97
528.01	43870.22
528.211	44296.2
528.412	44625.92
528.614	43966.48
528.815	43974.67
529.016	44206.09
529.218	43034.65
529.419	42979.35
529.62	42176.55
529.822	41873.45
530.023	41642.03
530.224	41400.37
530.425	40943.67
530.626	39981.13
530.828	39782.48
531.029	40427.59
531.23	39213.14
531.431	38776.92
531.632	38469.73
531.833	38531.17
532.035	37961.83
532.236	37183.6
532.437	37378.16
532.638	36503.68
532.839	36145.28
533.04	35821.7
533.241	35074.2
533.442	35104.92
533.643	34130.08
533.844	34291.87
534.045	33466.54
534.246	32528.57
534.447	32624.82
534.648	32178.37
534.849	31805.64
535.05	31342.8
535.251	31121.62
535.451	30288.09
535.652	30322.91
535.853	29446.38
536.054	29335.79
536.255	29104.37
536.456	28264.7
536.657	28516.6
536.857	27498.76
537.058	27357.45
537.259	27224.33
537.46	26939.66
537.66	26247.45
537.861	25831.71
538.062	25438.5
538.263	25313.58
538.463	24844.59
538.664	24787.25
538.865	24179
539.065	24412.47
539.266	23677.25
539.466	23822.66
539.667	23208.26
539.868	22864.21
540.068	22792.53
540.269	22499.67
540.469	22239.58
540.67	21707.1
540.87	21604.7
541.071	21561.7
541.271	21117.29
541.472	20896.11
541.672	20740.46
541.873	20482.42
542.073	19812.73
542.274	19999.1
542.474	19667.33
542.675	19175.81
542.875	19331.46
543.075	19014.02
543.276	18598.29
543.476	18739.6
543.676	18418.07
543.877	18172.31
544.077	17834.39
544.277	17867.16
544.478	17719.71
544.678	17576.35
544.878	17705.37
545.078	16959.91
545.279	16712.11
545.479	16640.43
545.679	16650.67
545.879	16206.26
546.079	16148.92
546.28	15688.12
546.48	15870.39
546.68	15667.64
546.88	15348.16
547.08	15348.16
547.28	15059.4
547.48	14776.78
547.68	14725.58
547.88	14307.79
548.081	14473.68
548.281	13959.64
548.481	13869.53
548.681	13793.75
548.881	13965.78
549.081	13330.91
549.28	13218.27
549.48	13146.59
549.68	12820.97
549.88	12982.76
550.08	12630.51
550.28	12438
550.48	12296.69
550.68	12216.82
550.88	11903.48
551.08	11770.36
551.279	11528.7
551.479	11414.01
551.679	11311.61
551.879	11012.61
552.079	10955.27
552.278	10695.18
552.478	10816.01
552.678	10306.06
552.878	10428.94
553.077	10037.78
553.277	9904.66
553.477	10027.54
553.676	9667.1
553.876	9304.6
554.076	9476.63
554.275	9194.01
554.475	9052.7
554.674	8972.83
554.874	8835.62
555.074	8581.67
555.273	8516.14
555.473	8495.66
555.672	8333.87
555.872	8063.54
556.071	7977.52
556.271	8032.82
556.47	7727.67
556.67	7455.29
556.869	7514.68
557.068	7303.74
557.268	7248.44
557.467	7078.46
557.667	7088.7
557.866	6969.92
558.065	6838.85
558.265	6552.13
558.464	6482.5
558.663	6468.17
558.863	6242.89
559.062	6267.47
559.261	5964.37
559.461	6132.3
559.66	5796.43
559.859	5831.25
560.058	5767.76
560.258	5694.04
560.457	5612.12
560.656	5669.46
560.855	5331.55
561.054	5360.22
561.253	5366.36
561.453	5190.24
561.652	4997.73
561.851	5063.26
562.05	4880.99
562.249	4805.22
562.448	4876.9
562.647	4647.52
562.846	4708.96
563.045	4581.99
563.244	4438.63
563.443	4547.17
563.642	4199.02
563.841	4303.46
564.04	4147.82
564.239	4272.75
564.438	4072.04
564.637	3983.98
564.836	4004.46
565.035	3879.54
565.234	3957.36
565.432	3701.36
565.631	3846.77
565.83	3680.88
566.029	3543.67
566.228	3623.54
566.427	3619.44
566.625	3443.32
566.824	3369.59
567.023	3336.82
567.222	3373.69
567.42	3175.03
567.619	3342.97
567.818	3207.8
568.016	3289.72
568.215	3144.31
568.414	3121.79
568.612	3054.2
568.811	2951.81
569.01	2953.85
569.208	2966.14
569.407	2962.05
569.605	2886.27
569.804	2720.39
570.002	2777.73
570.201	2513.54
570.4	2742.91
570.598	2652.8
570.797	2534.02
570.995	2427.53
571.193	2390.66
571.392	2386.57
571.59	2425.48
571.789	2548.36
571.987	2310.79
572.186	2495.11
572.384	2306.7
572.582	2128.52
572.781	2284.17
572.979	2116.23
573.177	2097.8
573.376	2149
573.574	2159.24
573.772	1976.97
573.971	2062.99
574.169	1852.05
574.367	1936.01
574.565	1901.2
574.763	1835.66
574.962	1804.94
575.16	1872.53
575.358	1755.79
575.556	1845.9
575.754	1788.56
575.952	1665.68
576.151	1653.39
576.349	1675.92
576.547	1493.65
576.745	1655.44
576.943	1598.1
577.141	1507.99
577.339	1450.64
577.537	1620.63
577.735	1606.29
577.933	1505.94
578.131	1454.74
578.329	1520.28
578.527	1245.85
578.725	1446.55
578.923	1233.56
579.121	1354.39
579.319	1176.22
579.516	1264.28
579.714	1378.97
579.912	1266.33
580.11	1168.02
580.308	1194.65
580.506	1141.4
580.704	985.76
580.901	1043.1
581.099	1211.03
581.297	1139.35
581.495	1186.46
581.692	996
581.89	1088.15
582.088	1045.15
582.285	1047.19
582.483	1079.96
582.681	989.85
582.878	977.56
583.076	1045.15
583.274	1047.19
583.471	1133.21
583.669	979.61
583.866	864.93
584.064	842.4
584.262	866.97
584.459	903.84
584.657	893.6
584.854	899.74
585.052	887.45
585.249	942.75
585.447	826.01
585.644	766.62
585.841	920.22
586.039	783.01
586.236	891.55
586.434	768.67
586.631	711.33
586.828	744.1
587.026	787.1
587.223	608.93
587.42	651.94
587.618	740
587.815	811.68
588.012	690.85
588.21	639.65
588.407	727.71
588.604	756.38
588.801	703.14
588.999	600.74
589.196	645.79
589.393	662.18
589.59	762.53
589.787	649.89
589.984	746.14
590.182	596.64
590.379	570.02
590.576	584.35
590.773	651.94
590.97	608.93
591.167	596.64
591.364	623.27
591.561	684.7
591.758	649.89
591.955	621.22
592.152	615.07
592.349	520.87
592.546	479.91
592.743	529.06
592.94	594.59
593.137	680.61
593.334	696.99
593.531	653.98
593.727	666.27
593.924	621.22
594.121	668.32
594.318	588.45
594.515	658.08
594.712	625.31
594.908	748.19
595.105	615.07
595.302	692.9
595.499	594.59
595.696	770.72
595.892	610.98
596.089	727.71
596.286	674.46
596.482	819.87
596.679	729.76
596.876	778.91
597.072	840.35
597.269	772.77
597.466	801.44
597.662	801.44
597.859	766.62
598.055	930.46
598.252	946.84
598.448	959.13
598.645	993.95
598.841	1039
599.038	1073.82
599.234	1073.82
599.431	1106.59
599.627	1178.26
599.824	1219.22
600.02	1159.83
600.217	1200.79
600.413	1235.61
600.609	1364.63
600.806	1667.73
601.002	1522.32
601.198	1376.92
601.395	1604.24
601.591	1745.55
601.787	1720.98
601.984	1809.04
602.18	1811.09
602.376	1829.52
602.572	1962.64
602.769	1983.12
602.965	2103.95
603.161	2222.73
603.357	2202.25
603.553	2466.44
603.75	2316.94
603.946	2431.62
604.142	2542.21
604.338	2572.93
604.534	2687.62
604.73	2777.73
604.926	2787.97
605.122	3089.02
605.318	2943.61
605.514	3263.1
605.71	3306.1
605.906	3469.94
606.102	3482.23
606.298	3672.69
606.494	3699.31
606.69	3865.2
606.886	3875.44
607.082	4115.05
607.278	4131.44
607.474	4280.94
607.67	4336.23
607.866	4317.8
608.062	4612.71
608.257	4616.8
608.453	4770.4
608.649	5012.06
608.845	4960.86
609.041	5206.62
609.236	5288.54
609.432	5544.53
609.628	5657.17
609.824	5921.36
610.019	6021.71
610.215	6134.35
610.411	6474.31
610.606	6416.97
610.802	6541.89
610.998	6894.15
611.193	7051.84
611.389	7258.68
611.584	7514.68
611.78	7381.56
611.976	7623.22
612.171	8186.41
612.367	8196.65
612.562	8325.68
612.758	8557.1
612.953	8694.31
613.149	9206.3
613.344	9181.73
613.539	9585.18
613.735	9742.87
613.93	9986.58
614.126	10134.03
614.321	10496.52
614.517	10953.22
614.712	11127.3
614.907	11508.22
615.103	11745.78
615.298	11768.31
615.493	12272.11
615.688	12227.06
615.884	12796.39
616.079	13167.07
616.274	13425.12
616.47	13828.57
616.665	14291.41
616.86	14514.64
617.055	14756.3
617.25	14997.96
617.445	15784.38
617.641	15829.43
617.836	16546.22
618.031	16632.24
618.226	17164.71
618.421	17263.01
618.616	18078.1
618.811	18307.48
619.006	18739.6
619.201	19132.81
619.396	19601.79
619.591	19857.79
619.786	20533.62
619.981	20640.11
620.176	21248.36
620.371	21778.78
620.566	22161.75
620.761	23042.38
620.956	23234.89
621.151	23740.74
621.346	24099.13
621.541	23994.68
621.735	25010.48
621.93	25209.13
622.125	26126.62
622.32	25757.99
622.515	26759.44
622.709	27001.1
622.904	27789.57
623.099	28225.79
623.294	28879.09
623.488	29022.45
623.683	29636.84
623.878	29855.97
624.072	30656.73
624.267	30828.76
624.462	31631.56
624.656	31645.9
624.851	32483.51
625.046	32811.19
625.24	33558.7
625.435	33853.61
625.629	34265.25
625.824	34701.47
626.018	35238.03
626.213	35373.2
626.407	36247.68
626.602	35911.81
626.796	36765.82
626.991	36948.09
627.185	37347.44
627.38	37290.1
627.574	37830.76
627.768	37288.05
627.963	38013.03
628.157	37976.17
628.352	38625.37
628.546	37888.1
628.74	38457.44
628.935	38215.78
629.129	38334.56
629.323	38162.53
629.517	37978.22
629.712	37722.22
629.906	37634.16
630.1	36911.22
630.294	36933.75
630.489	35797.13
630.683	36157.57
630.877	35174.55
631.071	34748.57
631.265	34314.4
631.459	33507.5
631.653	32473.28
631.848	32157.89
632.042	30900.44
632.236	30568.66
632.43	29665.51
632.624	29026.54
632.818	28328.19
633.012	27046.16
633.206	26470.68
633.4	25585.96
633.594	24637.75
633.788	23726.4
633.982	22980.94
634.176	22282.58
634.369	21514.59
634.563	20679.02
634.757	19763.58
634.951	19141
635.145	18403.73
635.339	17832.35
635.533	16681.39
635.726	16345.52
635.92	15661.5
636.114	15131.08
636.308	14459.34
636.501	13988.31
636.695	13281.76
636.889	12665.32
637.083	12182
637.276	11610.62
637.47	11117.06
637.664	10742.28
637.857	10383.88
638.051	9882.13
638.244	9550.36
638.438	9067.04
638.632	8964.64
638.825	8444.46
639.019	8008.24
639.212	7707.19
639.406	7375.42
639.599	7184.96
639.793	6947.39
639.986	6603.33
640.18	6388.3
640.373	5911.12
640.567	5843.54
640.76	5503.57
640.954	5372.5
641.147	5239.39
641.34	4924
641.534	5067.36
641.727	4659.81
641.92	4530.79
642.114	4391.53
642.307	4207.21
642.5	4113
642.694	3920.49
642.887	3705.46
643.08	3811.95
643.273	3594.87
643.467	3347.06
643.66	3170.94
643.853	2984.57
644.046	2912.89
644.239	2837.12
644.432	2617.99
644.626	2423.43
644.819	2566.79
645.012	2525.83
645.205	2302.6
645.398	2419.33
645.591	2269.83
645.784	1921.68
645.977	1929.87
646.17	1847.95
646.363	1792.66
646.556	1757.84
646.749	1538.71
646.942	1714.83
647.135	1628.82
647.328	1555.09
647.521	1467.03
647.714	1434.26
647.907	1368.73
648.099	1258.14
648.292	1444.5
648.485	1307.29
648.678	1249.94
648.871	1086.11
649.064	1133.21
649.256	1039
649.449	1014.43
649.642	987.8
649.835	826.01
650.027	823.97
650.22	936.6
650.413	877.21
650.605	901.79
650.798	830.11
650.991	813.73
651.183	707.23
651.376	713.38
651.568	699.04
651.761	645.79
651.954	625.31
652.146	658.08
652.339	744.1
652.531	666.27
652.724	498.34
652.916	512.67
653.109	318.12
653.301	561.83
653.494	570.02
653.686	512.67
653.879	619.17
654.071	524.96
654.263	473.76
654.456	316.07
654.648	510.63
654.84	455.33
655.033	430.76
655.225	529.06
655.417	228.01
655.61	494.24
655.802	449.19
655.994	373.41
656.186	340.65
656.379	441
656.571	285.35
656.763	354.98
656.955	256.68
657.148	311.97
657.34	412.32
657.532	246.44
657.724	348.84
657.916	334.5
658.108	295.59
658.3	336.55
658.492	332.45
658.684	205.48
658.876	369.32
659.068	187.05
659.26	152.23
659.452	185
659.644	295.59
659.836	391.84
660.028	242.34
660.22	207.53
660.412	234.15
660.604	178.86
660.796	295.59
660.988	344.74
661.18	234.15
661.372	291.49
661.563	160.42
661.755	260.77
661.947	148.14
662.139	221.86
662.331	244.39
662.522	199.34
662.714	141.99
662.906	148.14
663.097	225.96
663.289	201.38
663.481	123.56
663.673	209.58
663.864	213.67
664.056	176.81
664.247	117.42
664.439	225.96
664.631	166.57
664.822	256.68
665.014	203.43
665.205	195.24
665.397	113.32
665.588	266.92
665.78	137.9
665.971	197.29
666.163	170.66
666.354	238.25
666.546	168.62
666.737	166.57
666.929	154.28
667.12	135.85
667.311	244.39
667.503	205.48
667.694	211.62
667.885	189.1
668.077	221.86
668.268	37.55
668.459	228.01
668.651	185
668.842	309.93
669.033	152.23
669.224	111.27
669.416	311.97
669.607	131.75
669.798	158.38
669.989	305.83
670.18	225.96
670.371	225.96
670.563	148.14
670.754	281.25
670.945	260.77
671.136	242.34
671.327	166.57
671.518	297.64
671.709	236.2
671.9	277.16
672.091	285.35
672.282	215.72
672.473	205.48
672.664	195.24
672.855	293.54
673.046	234.15
673.237	361.13
673.428	197.29
673.619	354.98
673.809	170.66
674	295.59
674.191	152.23
674.382	182.95
674.573	215.72
674.764	223.91
674.954	295.59
675.145	90.79
675.336	260.77
675.527	187.05
675.717	289.45
675.908	258.73
676.099	244.39
676.289	285.35
676.48	170.66
676.671	187.05
676.861	180.9
677.052	320.17
677.243	203.43
677.433	266.92
677.624	359.08
677.814	240.29
678.005	271.01
678.195	318.12
678.386	232.1
678.576	271.01
678.767	207.53
678.957	262.82
679.148	322.21
679.338	412.32
679.529	357.03
679.719	330.41
679.909	352.93
680.1	283.3
680.29	264.87
680.481	336.55
680.671	367.27
680.861	410.28
681.052	379.56
681.242	293.54
681.432	352.93
681.622	424.61
681.813	291.49
682.003	354.98
682.193	248.49
682.383	359.08
682.573	336.55
682.764	275.11
682.954	385.7
683.144	502.43
683.334	320.17
683.524	352.93
683.714	410.28
683.904	350.89
684.094	322.21
684.284	350.89
684.474	414.37
684.664	520.87
684.854	373.41
685.044	451.24
685.234	305.83
685.424	426.66
685.614	357.03
685.804	561.83
685.994	496.29
686.184	406.18
686.374	387.75
686.564	432.8
686.753	381.6
686.943	172.71
687.133	434.85
687.323	361.13
687.513	426.66
687.702	447.14
687.892	309.93
688.082	408.23
688.272	395.94
688.461	412.32
688.651	547.49
688.841	547.49
689.03	379.56
689.22	416.42
689.41	445.09
689.599	344.74
689.789	377.51
689.979	426.66
690.168	318.12
690.358	359.08
690.547	316.07
690.737	352.93
690.926	432.8
691.116	402.08
691.305	475.81
691.495	414.37
691.684	281.25
691.874	309.93
692.063	383.65
692.252	504.48
692.442	397.99
692.631	307.88
692.82	402.08
693.01	297.64
693.199	363.17
693.388	375.46
693.578	434.85
693.767	436.9
693.956	318.12
694.146	400.04
694.335	432.8
694.524	342.69
694.713	490.15
694.902	318.12
695.092	316.07
695.281	410.28
695.47	283.3
695.659	283.3
695.848	363.17
696.037	236.2
696.226	436.9
696.415	266.92
696.604	502.43
696.793	303.78
696.982	354.98
697.171	373.41
697.36	268.97
697.549	385.7
697.738	217.77
697.927	369.32
698.116	219.82
698.305	381.6
698.494	330.41
698.683	289.45
698.872	539.3
699.061	350.89
699.25	305.83
699.438	303.78
699.627	264.87
699.816	416.42
700.005	197.29
700.193	316.07
700.382	363.17
700.571	471.72
700.76	361.13
700.948	383.65
701.137	314.02
701.326	385.7
701.514	207.53
701.703	381.6
701.892	334.5
702.08	492.2
702.269	350.89
702.457	242.34
702.646	299.69
702.834	277.16
703.023	359.08
703.212	363.17
703.4	244.39
703.589	240.29
703.777	254.63
703.965	279.21
704.154	342.69
704.342	268.97
704.531	238.25
704.719	354.98
704.907	383.65
705.096	199.34
705.284	203.43
705.472	330.41
705.661	338.6
705.849	469.67
706.037	359.08
706.226	326.31
706.414	365.22
706.602	297.64
706.79	391.84
706.979	295.59
707.167	354.98
707.355	209.58
707.543	228.01
707.731	418.47
707.919	301.73
708.107	303.78
708.296	246.44
708.484	316.07
708.672	436.9
708.86	371.37
709.048	404.13
709.236	268.97
709.424	436.9
709.612	305.83
709.8	307.88
709.988	301.73
710.176	326.31
710.364	426.66
710.551	307.88
710.739	299.69
710.927	275.11
711.115	252.58
711.303	453.28
711.491	326.31
711.679	334.5
711.866	387.75
712.054	309.93
712.242	328.36
712.43	383.65
712.617	346.79
712.805	359.08
712.993	395.94
713.181	144.04
713.368	457.38
713.556	371.37
713.744	336.55
713.931	608.93
714.119	324.26
714.306	367.27
714.494	260.77
714.682	301.73
714.869	281.25
715.057	268.97
715.244	338.6
715.432	377.51
715.619	299.69
715.807	305.83
715.994	367.27
716.182	320.17
716.369	381.6
716.556	406.18
716.744	285.35
716.931	293.54
717.119	379.56
717.306	338.6
717.493	408.23
717.681	367.27
717.868	295.59
718.055	393.89
718.242	342.69
718.43	375.46
718.617	404.13
718.804	361.13
718.991	467.62
719.179	414.37
719.366	363.17
719.553	326.31
719.74	391.84
719.927	441
720.114	379.56
720.301	332.45
720.488	389.8
720.676	281.25
720.863	486.05
721.05	545.44
721.237	414.37
721.424	447.14
721.611	365.22
721.798	348.84
721.985	348.84
722.172	342.69
722.358	481.96
722.545	518.82
722.732	371.37
722.919	537.25
723.106	449.19
723.293	314.02
723.48	420.52
723.667	268.97
723.853	445.09
724.04	455.33
724.227	459.43
724.414	295.59
724.6	424.61
724.787	522.91
724.974	477.86
725.161	406.18
725.347	320.17
725.534	373.41
725.72	404.13
725.907	414.37
726.094	461.48
726.28	314.02
726.467	330.41
726.653	346.79
726.84	463.52
727.027	563.87
727.213	404.13
727.4	471.72
727.586	473.76
727.773	465.57
727.959	451.24
728.145	359.08
728.332	486.05
728.518	422.56
728.705	420.52
728.891	408.23
729.077	426.66
729.264	354.98
729.45	434.85
729.636	492.2
729.823	420.52
730.009	414.37
730.195	438.95
730.382	447.14
730.568	332.45
730.754	443.04
730.94	424.61
731.126	400.04
731.313	455.33
731.499	404.13
731.685	479.91
731.871	512.67
732.057	498.34
732.243	555.68
732.429	424.61
732.615	535.2
732.801	516.77
732.987	416.42
733.173	522.91
733.359	432.8
733.545	443.04
733.731	397.99
733.917	539.3
734.103	510.63
734.289	400.04
734.475	363.17
734.661	598.69
734.847	486.05
735.033	445.09
735.219	457.38
735.404	453.28
735.59	453.28
735.776	424.61
735.962	541.35
736.148	514.72
736.333	576.16
736.519	451.24
736.705	479.91
736.89	414.37
737.076	498.34
737.262	330.41
737.447	397.99
737.633	383.65
737.819	455.33
738.004	479.91
738.19	455.33
738.375	449.19
738.561	395.94
738.747	481.96
738.932	428.71
739.118	574.11
739.303	481.96
739.489	508.58
739.674	385.7
739.859	420.52
740.045	527.01
740.23	500.39
740.416	314.02
740.601	436.9
740.786	475.81
740.972	365.22
741.157	438.95
741.342	438.95
741.528	412.32
741.713	465.57
741.898	445.09
742.084	334.5
742.269	404.13
742.454	537.25
742.639	514.72
742.824	449.19
743.01	506.53
743.195	555.68
743.38	430.76
743.565	434.85
743.75	428.71
743.935	432.8
744.12	549.54
744.305	412.32
744.49	412.32
744.675	397.99
744.86	408.23
745.045	434.85
745.23	385.7
745.415	408.23
745.6	449.19
745.785	361.13
745.97	471.72
746.155	393.89
746.34	453.28
746.525	352.93
746.71	578.21
746.895	377.51
747.079	330.41
747.264	316.07
747.449	457.38
747.634	424.61
747.819	373.41
748.003	400.04
748.188	350.89
748.373	387.75
748.557	416.42
748.742	365.22
748.927	328.36
749.111	430.76
749.296	377.51
749.481	402.08
749.665	346.79
749.85	336.55
750.034	389.8
750.219	342.69
750.404	264.87
750.588	479.91
750.773	250.53
750.957	369.32
751.141	287.4
751.326	371.37
751.51	324.26
751.695	393.89
751.879	346.79
752.064	418.47
752.248	303.78
752.432	397.99
752.617	422.56
752.801	418.47
752.985	369.32
753.17	426.66
753.354	330.41
753.538	324.26
753.722	232.1
753.907	336.55
754.091	203.43
754.275	369.32
754.459	258.73
754.643	209.58
754.828	311.97
755.012	340.65
755.196	221.86
755.38	309.93
755.564	230.06
755.748	268.97
755.932	340.65
756.116	287.4
756.3	320.17
756.484	252.58
756.668	236.2
756.852	107.18
757.036	268.97
757.22	246.44
757.404	201.38
757.588	209.58
757.772	369.32
757.956	174.76
758.14	328.36
758.323	215.72
758.507	314.02
758.691	260.77
758.875	277.16
759.059	346.79
759.242	211.62
759.426	287.4
759.61	221.86
759.794	162.47
759.977	262.82
760.161	377.51
760.345	320.17
760.528	350.89
760.712	213.67
760.895	307.88
761.079	244.39
761.263	158.38
761.446	158.38
761.63	221.86
761.813	252.58
761.997	123.56
762.18	160.42
762.364	264.87
762.547	137.9
762.731	228.01
762.914	248.49
763.098	150.18
763.281	166.57
763.464	148.14
763.648	154.28
763.831	148.14
764.015	182.95
764.198	242.34
764.381	232.1
764.564	232.1
764.748	152.23
764.931	219.82
765.114	203.43
765.297	191.14
765.481	144.04
765.664	174.76
765.847	144.04
766.03	264.87
766.213	84.65
766.397	113.32
766.58	58.03
766.763	258.73
766.946	158.38
767.129	72.36
767.312	98.99
767.495	156.33
767.678	111.27
767.861	72.36
768.044	170.66
768.227	144.04
768.41	187.05
768.593	166.57
768.776	152.23
768.959	131.75
769.142	219.82
769.324	117.42
769.507	127.66
769.69	217.77
769.873	113.32
770.056	338.6
770.239	84.65
770.421	240.29
770.604	285.35
770.787	127.66
770.97	131.75
771.152	133.8
771.335	150.18
771.518	72.36
771.7	254.63
771.883	297.64
772.066	53.93
772.248	141.99
772.431	187.05
772.613	146.09
772.796	64.17
772.978	148.14
773.161	232.1
773.343	107.18
773.526	58.03
773.708	27.31
773.891	19.11
774.073	137.9
774.256	98.99
774.438	377.51
774.621	113.32
774.803	133.8
774.985	133.8
775.168	234.15
775.35	60.07
775.532	195.24
775.715	90.79
775.897	115.37
776.079	96.94
776.261	164.52
776.444	60.07
776.626	70.31
776.808	15.02
776.99	12.97
777.173	156.33
777.355	156.33
777.537	131.75
777.719	203.43
777.901	41.64
778.083	10.92
778.265	103.08
778.447	164.52
778.629	27.31
778.811	86.7
778.993	174.76
779.175	189.1
779.357	117.42
779.539	78.51
779.721	76.46
779.903	176.81
780.085	27.31
780.267	105.13
780.449	125.61
780.631	148.14
780.812	193.19
780.994	86.7
781.176	35.5
781.358	51.88
781.54	78.51
781.721	78.51
781.903	172.71
782.085	80.55
782.267	80.55
782.448	-13.65
782.63	98.99
782.812	107.18
782.993	148.14
783.175	66.22
783.357	105.13
783.538	45.74
783.72	-32.08
783.901	86.7
784.083	158.38
784.264	84.65
784.446	-15.7
784.627	-25.94
784.809	6.83
784.99	19.11
785.172	158.38
785.353	88.75
785.535	64.17
785.716	62.12
785.897	-46.42
786.079	109.22
786.26	47.79
786.441	62.12
786.623	-3.41
786.804	35.5
786.985	17.07
787.167	80.55
787.348	96.94
787.529	0.68
787.71	160.42
787.891	144.04
788.073	41.64
788.254	-40.28
788.435	94.89
788.616	49.83
788.797	-54.61
788.978	74.41
789.159	53.93
789.34	82.6
789.522	113.32
789.703	62.12
789.884	72.36
790.065	35.5
790.246	221.86
790.427	84.65
790.607	90.79
790.788	109.22
790.969	-52.56
791.15	51.88
791.331	17.07
791.512	2.73
791.693	-48.47
791.874	-7.51
792.054	230.06
792.235	92.84
792.416	-99.67
792.597	-1.37
792.778	15.02
792.958	72.36
793.139	39.59
793.32	64.17
793.5	29.35
793.681	109.22
793.862	60.07
794.042	70.31
794.223	-48.47
794.404	10.92
794.584	-62.8
794.765	80.55
794.945	-21.85
795.126	103.08
795.306	74.41
795.487	-34.13
795.667	-60.76
795.848	90.79
796.028	58.03
796.209	23.21
796.389	113.32
796.57	2.73
796.75	-25.94
796.93	41.64
797.111	-19.8
797.291	-3.41
797.471	156.33
797.652	31.4
797.832	-9.56
798.012	90.79
798.192	33.45
798.373	-58.71
798.553	-42.32
798.733	82.6
798.913	15.02
799.093	29.35
799.274	17.07
799.454	150.18
799.634	58.03
799.814	115.37
799.994	109.22
800.174	115.37
800.354	17.07
800.534	-93.52
800.714	113.32
800.894	8.87
801.074	-58.71
801.254	39.59
801.434	139.94
801.614	62.12
801.794	43.69
801.974	1614.48
802.154	-7.51
802.334	123.56
802.514	-81.24
802.693	8.87
802.873	-5.46
803.053	160.42
803.233	27.31
803.413	37.55
803.592	-42.32
803.772	25.26
803.952	-11.61
804.131	29.35
804.311	74.41
804.491	115.37
804.67	37.55
804.85	-48.47
805.03	64.17
805.209	47.79
805.389	60.07
805.568	23.21
805.748	45.74
805.928	117.42
806.107	98.99
806.287	-9.56
806.466	4.78
806.646	58.03
806.825	64.17
807.004	90.79
807.184	53.93
807.363	129.7
807.543	74.41
807.722	10.92
807.901	127.66
808.081	119.46
808.26	-105.81
808.439	10.92
808.619	33.45
808.798	-38.23
808.977	158.38
809.156	49.83
809.336	82.6
809.515	92.84
809.694	0.68
809.873	-40.28
810.052	72.36
810.231	84.65
810.411	107.18
810.59	66.22
810.769	25.26
810.948	49.83
811.127	-60.76
811.306	-34.13
811.485	-50.52
811.664	131.75
811.843	29.35
812.022	-38.23
812.201	-34.13
812.38	101.03
812.559	-52.56
812.737	51.88
812.916	-116.05
813.095	-66.9
813.274	51.88
813.453	-11.61
813.632	41.64
813.811	17.07
813.989	-64.85
814.168	90.79
814.347	-81.24
814.526	-23.89
814.704	129.7
814.883	72.36
815.062	-79.19
815.24	98.99
815.419	23.21
815.598	45.74
815.776	-50.52
815.955	-56.66
816.133	-83.28
816.312	62.12
816.49	-36.18
816.669	84.65
816.847	-1.37
817.026	31.4
817.204	-23.89
817.383	41.64
817.561	72.36
817.74	-52.56
817.918	35.5
818.097	-71
818.275	-58.71
818.453	6.83
818.632	82.6
818.81	-21.85
818.988	-7.51
819.167	-5.46
819.345	-13.65
819.523	-30.04
819.701	35.5
819.879	-5.46
820.058	-1.37
820.236	-30.04
820.414	2.73
820.592	-13.65
820.77	-25.94
820.948	-9.56
821.127	-3.41
821.305	58.03
821.483	-58.71
821.661	96.94
821.839	47.79
822.017	-52.56
822.195	-46.42
822.373	72.36
822.551	-13.65
822.729	41.64
822.907	10.92
823.085	-1.37
823.262	37.55
823.44	49.83
823.618	-23.89
823.796	-27.99
823.974	10.92
824.152	-116.05
824.329	-34.13
824.507	37.55
824.685	72.36
824.863	12.97
825.04	64.17
825.218	25.26
825.396	12.97
825.574	17.07
825.751	31.4
825.929	37.55
826.107	-73.04
826.284	15.02
826.462	12.97
826.639	27.31
826.817	-89.43
826.994	4.78
827.172	-73.04
827.349	139.94
827.527	37.55
827.704	74.41
827.882	-19.8
828.059	31.4
828.237	-21.85
828.414	98.99
828.591	-124.24
828.769	-30.04
828.946	-60.76
829.124	-13.65
829.301	144.04
829.478	-13.65
829.655	64.17
829.833	-7.51
830.01	-181.59
830.187	-5.46
830.364	60.07
830.542	-32.08
830.719	19.11
830.896	68.27
831.073	-9.56
831.25	45.74
831.427	23.21
831.604	-38.23
831.782	-21.85
831.959	107.18
832.136	-32.08
832.313	19.11
832.49	-17.75
832.667	-11.61
832.844	-23.89
833.021	80.55
833.198	27.31
833.374	12.97
833.551	49.83
833.728	-48.47
833.905	33.45
834.082	-124.24
834.259	55.98
834.436	96.94
834.612	-1.37
834.789	15.02
834.966	12.97
835.143	49.83
835.319	-103.76
835.496	37.55
835.673	2.73
835.85	176.81
836.026	39.59
836.203	98.99
836.38	-107.86
836.556	0.68
836.733	-38.23
836.909	103.08
837.086	35.5
837.262	-68.95
837.439	-1.37
837.616	-48.47
837.792	-27.99
837.968	51.88
838.145	-105.81
838.321	39.59
838.498	45.74
838.674	82.6
838.851	10.92
839.027	4.78
839.203	41.64
839.38	27.31
839.556	-7.51
839.732	109.22
839.909	-46.42
840.085	78.51
840.261	-21.85
840.437	2.73
840.614	-5.46
840.79	60.07
840.966	31.4
841.142	8.87
841.318	76.46
841.494	72.36
841.671	51.88
841.847	-89.43
842.023	-13.65
842.199	43.69
842.375	8.87
842.551	-116.05
842.727	-52.56
842.903	189.1
843.079	-42.32
843.255	133.8
843.431	21.16
843.607	4.78
843.783	-109.91
843.959	-32.08
844.134	-40.28
844.31	105.13
844.486	-25.94
844.662	-54.61
844.838	-87.38
845.013	49.83
845.189	96.94
845.365	-5.46
845.541	8.87
845.716	29.35
845.892	6.83
846.068	-138.58
846.244	12.97
846.419	33.45
846.595	-60.76
846.77	0.68
846.946	72.36
847.122	-21.85
847.297	-83.28
847.473	109.22
847.648	-91.48
847.824	-13.65
847.999	-23.89
848.175	-5.46
848.35	31.4
848.526	94.89
848.701	121.51
848.876	92.84
849.052	8.87
849.227	31.4
849.403	-5.46
849.578	-66.9
849.753	23.21
849.929	39.59
850.104	-32.08
850.279	-50.52
850.454	58.03
850.63	94.89
850.805	72.36
850.98	2.73
851.155	-5.46
851.33	31.4
851.505	-7.51
851.681	164.52
851.856	-66.9
852.031	78.51
852.206	12.97
852.381	-66.9
852.556	-52.56
852.731	55.98
852.906	-9.56
853.081	10.92
853.256	72.36
853.431	-99.67
853.606	-105.81
853.781	-38.23
853.956	-30.04
854.131	-32.08
854.305	-60.76
854.48	-56.66
854.655	-23.89
854.83	-75.09
855.005	-54.61
855.18	21.16
855.354	29.35
855.529	105.13
855.704	-52.56
855.879	2.73
856.053	-97.62
856.228	31.4
856.403	-68.95
856.577	-7.51
856.752	-148.82
856.926	-21.85
857.101	27.31
857.276	-17.75
857.45	-32.08
857.625	82.6
857.799	15.02
857.974	45.74
858.148	-101.72
858.323	80.55
858.497	-13.65
858.672	-25.94
858.846	-7.51
859.02	58.03
859.195	-154.96
859.369	-73.04
859.543	-46.42
859.718	-40.28
859.892	-36.18
860.066	39.59
860.241	-34.13
860.415	-36.18
860.589	-38.23
860.763	21.16
860.938	-11.61
861.112	19.11
861.286	-19.8
861.46	6.83
861.634	-17.75
861.808	-25.94
861.982	31.4
862.157	-109.91
862.331	-38.23
862.505	-17.75
862.679	-101.72
862.853	-42.32
863.027	-79.19
863.201	64.17
863.375	-15.7
863.549	51.88
863.722	62.12
863.896	68.27
864.07	-105.81
864.244	6.83
864.418	74.41
864.592	12.97
864.766	19.11
864.939	-15.7
865.113	-75.09
865.287	103.08
865.461	-126.29
865.634	-3.41
865.808	8.87
865.982	-42.32
866.156	-38.23
866.329	-85.33
866.503	35.5
866.676	19.11
866.85	62.12
867.024	-95.57
867.197	78.51
867.371	37.55
867.544	-3.41
867.718	-25.94
867.891	139.94
868.065	-7.51
868.238	-15.7
868.412	115.37
868.585	-21.85
868.759	8.87
868.932	-1.37
869.105	-36.18
869.279	19.11
869.452	-62.8
869.625	90.79
869.799	-15.7
869.972	-140.63
870.145	-71
870.319	55.98
870.492	-42.32
870.665	-36.18
870.838	-66.9
871.011	-87.38
871.185	-120.15
871.358	-101.72
871.531	78.51
871.704	-36.18
871.877	41.64
872.05	-46.42
872.223	-109.91
872.396	55.98
872.569	88.75
872.742	-144.72
872.915	47.79
873.088	-40.28
873.261	-50.52
873.434	8.87
873.607	-62.8
873.78	72.36
873.953	-58.71
874.126	29.35
874.299	82.6
874.471	-13.65
874.644	-71
874.817	80.55
874.99	105.13
875.163	23.21
875.335	53.93
875.508	-60.76
875.681	144.04
875.853	-81.24
876.026	62.12
876.199	70.31
876.371	-1.37
876.544	35.5
876.717	-11.61
876.889	-13.65
877.062	64.17
877.234	-111.96
877.407	-71
877.579	25.26
877.752	2.73
877.924	6.83
878.097	-11.61
878.269	-5.46
878.442	62.12
878.614	-19.8
878.786	-50.52
878.959	35.5
879.131	2.73
879.303	-97.62
879.476	-30.04
879.648	76.46
879.82	58.03
879.993	-34.13
880.165	-40.28
880.337	-142.68
880.509	45.74
880.681	-30.04
880.854	-79.19
881.026	78.51
881.198	115.37
881.37	-21.85
881.542	53.93
881.714	-7.51
881.886	33.45
882.058	-54.61
882.23	-27.99
882.402	37.55
882.574	47.79
882.746	107.18
882.918	115.37
883.09	55.98
883.262	-17.75
883.434	-25.94
883.606	-79.19
883.778	-93.52
883.95	55.98
884.122	2.73
884.293	29.35
884.465	-38.23
884.637	115.37
884.809	-50.52
884.98	-9.56
885.152	19.11
885.324	27.31
885.496	19.11
885.667	-34.13
885.839	-30.04
886.011	154.28
886.182	-25.94
886.354	92.84
886.525	47.79
886.697	6.83
886.869	-13.65
887.04	-40.28
887.212	107.18
887.383	88.75
887.555	-7.51
887.726	-116.05
887.897	8.87
888.069	-11.61
888.24	131.75
888.412	-81.24
888.583	-17.75
888.754	-40.28
888.926	-136.53
889.097	-15.7
889.268	-25.94
889.44	35.5
889.611	-95.57
889.782	-30.04
889.953	-48.47
890.125	6.83
890.296	-62.8
890.467	-93.52
890.638	-81.24
890.809	0.68
890.98	23.21
891.151	-15.7
891.323	82.6
891.494	-25.94
891.665	76.46
891.836	15.02
892.007	-13.65
892.178	-1.37
892.349	76.46
892.52	-7.51
892.691	23.21
892.862	-23.89
893.032	-93.52
893.203	-23.89
893.374	76.46
893.545	117.42
893.716	-38.23
893.887	43.69
894.057	-3.41
894.228	-5.46
894.399	-142.68
894.57	121.51
894.74	-9.56
894.911	-27.99
895.082	-48.47
895.253	10.92
895.423	-44.37
895.594	6.83
895.764	-46.42
895.935	-64.85
896.106	-5.46
896.276	-116.05
896.447	17.07
896.617	-116.05
896.788	-50.52
896.958	-64.85
897.129	-60.76
897.299	-148.82
897.47	72.36
897.64	33.45
897.81	-50.52
897.981	-1.37
898.151	-5.46
898.322	-23.89
898.492	-17.75
898.662	-34.13
898.832	-122.2
899.003	17.07
899.173	31.4
899.343	-54.61
899.513	-21.85
