Data from USB4F104151__280__11-20-53-630.txt Node

Date: Wed Feb 26 11:20:53 EST 2025
User: louis
Spectrometer: USB4F10415
Trigger mode: 4
Integration Time (sec): 1.000000E-1
Scans to average: 1
Electric dark correction enabled: true
Nonlinearity correction enabled: false
Boxcar width: 0
XAxis mode: Wavelengths
Number of Pixels in Spectrum: 3648
>>>>>Begin Spectral Data<<<<<
178.204	-385.87
178.424	-385.87
178.644	-385.87
178.864	-418.64
179.084	-453.45
179.304	-0.85
179.524	-41.81
179.744	13.48
179.964	66.73
180.184	-31.57
180.404	13.48
180.624	-50
180.844	-41.81
181.064	-47.96
181.283	54.44
181.503	-33.62
181.723	99.5
181.943	-148.31
182.163	197.8
182.383	-86.87
182.602	74.92
182.822	54.44
183.042	99.5
183.262	-54.1
183.482	-41.81
183.701	3.24
183.921	3.24
184.141	-21.33
184.361	7.34
184.58	91.31
184.8	58.54
185.02	-111.44
185.239	54.44
185.459	58.54
185.679	76.97
185.898	-50
186.118	111.78
186.338	33.96
186.557	72.87
186.777	-15.19
186.997	1.19
187.216	17.58
187.436	193.7
187.655	91.31
187.875	58.54
188.095	68.78
188.314	169.13
188.534	97.45
188.753	31.91
188.973	13.48
189.192	99.5
189.412	27.82
189.631	-21.33
189.851	85.16
190.07	181.42
190.29	-60.24
190.509	-33.62
190.729	17.58
190.948	173.22
191.168	224.42
191.387	83.11
191.607	-43.86
191.826	19.63
192.045	-13.14
192.265	-35.67
192.484	50.35
192.704	13.48
192.923	-45.91
193.142	158.89
193.362	36.01
193.581	165.03
193.8	33.96
194.02	103.59
194.239	58.54
194.458	54.44
194.678	13.48
194.897	-45.91
195.116	72.87
195.335	126.12
195.555	72.87
195.774	-25.43
195.993	52.39
196.212	48.3
196.432	-70.48
196.651	-19.29
196.87	-4.95
197.089	150.7
197.308	36.01
197.528	-29.52
197.747	-90.96
197.966	7.34
198.185	181.42
198.404	-154.45
198.623	101.55
198.842	136.36
199.062	79.02
199.281	66.73
199.5	44.2
199.719	11.43
199.938	83.11
200.157	79.02
200.376	21.67
200.595	89.26
200.814	11.43
201.033	-27.48
201.252	175.27
201.471	23.72
201.69	54.44
201.909	19.63
202.128	95.4
202.347	105.64
202.566	-13.14
202.785	-78.68
203.004	-23.38
203.223	183.46
203.442	17.58
203.661	-0.85
203.879	70.83
204.098	103.59
204.317	-68.44
204.536	122.02
204.755	56.49
204.974	29.87
205.193	-9.05
205.411	146.6
205.63	70.83
205.849	66.73
206.068	1.19
206.287	-29.52
206.505	74.92
206.724	58.54
206.943	-37.72
207.162	-4.95
207.381	68.78
207.599	128.17
207.818	40.11
208.037	-52.05
208.255	-54.1
208.474	21.67
208.693	109.74
208.911	36.01
209.13	13.48
209.349	46.25
209.567	42.15
209.786	95.4
210.005	66.73
210.223	50.35
210.442	-37.72
210.661	70.83
210.879	50.35
211.098	-4.95
211.316	7.34
211.535	11.43
211.753	54.44
211.972	58.54
212.191	21.67
212.409	25.77
212.628	91.31
212.846	-9.05
213.065	136.36
213.283	23.72
213.502	19.63
213.72	56.49
213.938	23.72
214.157	62.63
214.375	126.12
214.594	9.39
214.812	42.15
215.031	-27.48
215.249	-21.33
215.467	29.87
215.686	-0.85
215.904	52.39
216.122	97.45
216.341	150.7
216.559	-9.05
216.778	50.35
216.996	179.37
217.214	56.49
217.432	-0.85
217.651	-29.52
217.869	79.02
218.087	76.97
218.306	-66.39
218.524	38.06
218.742	42.15
218.96	72.87
219.179	17.58
219.397	3.24
219.615	218.28
219.833	103.59
220.051	17.58
220.27	103.59
220.488	103.59
220.706	-7
220.924	27.82
221.142	-15.19
221.36	91.31
221.578	44.2
221.796	52.39
222.015	91.31
222.233	15.53
222.451	181.42
222.669	-56.15
222.887	52.39
223.105	-84.82
223.323	17.58
223.541	-50
223.759	5.29
223.977	85.16
224.195	156.84
224.413	72.87
224.631	83.11
224.849	29.87
225.067	259.24
225.285	-0.85
225.503	-33.62
225.721	-93.01
225.939	66.73
226.157	103.59
226.375	165.03
226.592	-4.95
226.81	-13.14
227.028	154.79
227.246	89.26
227.464	-11.09
227.682	117.93
227.9	74.92
228.117	54.44
228.335	-4.95
228.553	74.92
228.771	-37.72
228.989	21.67
229.206	76.97
229.424	-7
229.642	-62.29
229.86	1.19
230.077	134.31
230.295	1.19
230.513	91.31
230.731	136.36
230.948	193.7
231.166	111.78
231.384	33.96
231.601	-39.76
231.819	101.55
232.037	19.63
232.254	-9.05
232.472	-25.43
232.689	5.29
232.907	85.16
233.125	-37.72
233.342	-15.19
233.56	58.54
233.777	25.77
233.995	40.11
234.213	36.01
234.43	-15.19
234.648	-11.09
234.865	-62.29
235.083	9.39
235.3	33.96
235.518	25.77
235.735	31.91
235.953	68.78
236.17	40.11
236.388	-29.52
236.605	42.15
236.822	101.55
237.04	72.87
237.257	85.16
237.475	-35.67
237.692	68.78
237.909	27.82
238.127	-33.62
238.344	36.01
238.562	48.3
238.779	-19.29
238.996	-72.53
239.214	23.72
239.431	160.94
239.648	-27.48
239.865	91.31
240.083	48.3
240.3	-7
240.517	-25.43
240.735	25.77
240.952	156.84
241.169	36.01
241.386	130.22
241.603	-45.91
241.821	-90.96
242.038	138.41
242.255	113.83
242.472	19.63
242.689	13.48
242.907	70.83
243.124	31.91
243.341	44.2
243.558	-35.67
243.775	-152.4
243.992	-62.29
244.209	17.58
244.426	134.31
244.643	83.11
244.86	33.96
245.078	101.55
245.295	83.11
245.512	-11.09
245.729	1.19
245.946	66.73
246.163	5.29
246.38	-31.57
246.597	91.31
246.814	85.16
247.031	21.67
247.248	-4.95
247.464	72.87
247.681	33.96
247.898	70.83
248.115	89.26
248.332	-70.48
248.549	58.54
248.766	109.74
248.983	64.68
249.2	52.39
249.417	115.88
249.633	-25.43
249.85	91.31
250.067	19.63
250.284	-4.95
250.501	76.97
250.717	76.97
250.934	-64.34
251.151	-0.85
251.368	9.39
251.585	5.29
251.801	95.4
252.018	-25.43
252.235	126.12
252.451	-103.25
252.668	-41.81
252.885	79.02
253.102	87.21
253.318	-27.48
253.535	33.96
253.752	33.96
253.968	-47.96
254.185	-52.05
254.401	-7
254.618	56.49
254.835	-45.91
255.051	115.88
255.268	56.49
255.484	-19.29
255.701	44.2
255.917	38.06
256.134	-74.58
256.351	124.07
256.567	-15.19
256.784	87.21
257	-68.44
257.217	105.64
257.433	64.68
257.65	109.74
257.866	144.55
258.082	-4.95
258.299	33.96
258.515	52.39
258.732	25.77
258.948	36.01
259.165	5.29
259.381	19.63
259.597	109.74
259.814	58.54
260.03	-37.72
260.246	-17.24
260.463	122.02
260.679	187.56
260.895	70.83
261.112	27.82
261.328	117.93
261.544	-66.39
261.761	138.41
261.977	-11.09
262.193	-37.72
262.409	66.73
262.626	42.15
262.842	15.53
263.058	27.82
263.274	132.26
263.49	13.48
263.707	33.96
263.923	99.5
264.139	-60.24
264.355	3.24
264.571	33.96
264.787	105.64
265.004	64.68
265.22	-0.85
265.436	-37.72
265.652	-25.43
265.868	33.96
266.084	-31.57
266.3	52.39
266.516	-47.96
266.732	50.35
266.948	23.72
267.164	-11.09
267.38	46.25
267.596	58.54
267.812	124.07
268.028	44.2
268.244	-25.43
268.46	23.72
268.676	21.67
268.892	91.31
269.108	7.34
269.324	-27.48
269.54	-115.54
269.756	72.87
269.972	-107.35
270.188	-31.57
270.403	-54.1
270.619	-45.91
270.835	74.92
271.051	13.48
271.267	-25.43
271.483	-37.72
271.698	128.17
271.914	89.26
272.13	33.96
272.346	-13.14
272.562	11.43
272.777	126.12
272.993	-15.19
273.209	38.06
273.425	119.98
273.64	-70.48
273.856	44.2
274.072	-21.33
274.287	-58.2
274.503	54.44
274.719	58.54
274.934	-68.44
275.15	-60.24
275.366	15.53
275.581	42.15
275.797	-15.19
276.012	7.34
276.228	-31.57
276.444	7.34
276.659	126.12
276.875	-13.14
277.09	33.96
277.306	19.63
277.521	72.87
277.737	31.91
277.952	87.21
278.168	36.01
278.383	70.83
278.599	74.92
278.814	79.02
279.03	-29.52
279.245	103.59
279.461	19.63
279.676	146.6
279.892	-90.96
280.107	13.48
280.322	-29.52
280.538	46.25
280.753	29.87
280.969	68.78
281.184	-11.09
281.399	144.55
281.615	-37.72
281.83	54.44
282.045	-66.39
282.26	50.35
282.476	-2.9
282.691	95.4
282.906	44.2
283.122	-9.05
283.337	-90.96
283.552	9.39
283.767	5.29
283.983	91.31
284.198	152.74
284.413	66.73
284.628	-64.34
284.843	19.63
285.058	19.63
285.274	-11.09
285.489	21.67
285.704	119.98
285.919	1.19
286.134	-37.72
286.349	42.15
286.564	42.15
286.779	185.51
286.995	-29.52
287.21	-88.92
287.425	38.06
287.64	-33.62
287.855	27.82
288.07	-109.4
288.285	185.51
288.5	107.69
288.715	46.25
288.93	36.01
289.145	29.87
289.36	74.92
289.575	17.58
289.79	107.69
290.004	-35.67
290.219	150.7
290.434	46.25
290.649	-56.15
290.864	-15.19
291.079	-31.57
291.294	11.43
291.509	-2.9
291.724	54.44
291.938	-2.9
292.153	-17.24
292.368	31.91
292.583	101.55
292.798	46.25
293.012	87.21
293.227	103.59
293.442	-56.15
293.657	85.16
293.871	38.06
294.086	9.39
294.301	195.75
294.516	115.88
294.73	60.59
294.945	-52.05
295.16	74.92
295.374	195.75
295.589	126.12
295.804	5.29
296.018	54.44
296.233	66.73
296.447	95.4
296.662	5.29
296.877	89.26
297.091	132.26
297.306	11.43
297.52	-19.29
297.735	91.31
297.949	-0.85
298.164	83.11
298.378	58.54
298.593	25.77
298.807	-29.52
299.022	15.53
299.236	87.21
299.451	-17.24
299.665	33.96
299.88	-21.33
300.094	128.17
300.309	5.29
300.523	-2.9
300.737	-15.19
300.952	85.16
301.166	140.46
301.381	-54.1
301.595	23.72
301.809	103.59
302.024	9.39
302.238	-27.48
302.452	76.97
302.667	38.06
302.881	134.31
303.095	46.25
303.309	54.44
303.524	25.77
303.738	38.06
303.952	-47.96
304.166	107.69
304.381	-105.3
304.595	152.74
304.809	-72.53
305.023	76.97
305.237	-23.38
305.452	72.87
305.666	48.3
305.88	79.02
306.094	58.54
306.308	103.59
306.522	87.21
306.736	46.25
306.95	72.87
307.164	44.2
307.379	-15.19
307.593	56.49
307.807	171.18
308.021	85.16
308.235	60.59
308.449	-86.87
308.663	19.63
308.877	175.27
309.091	19.63
309.305	66.73
309.519	-101.2
309.733	40.11
309.947	-33.62
310.161	91.31
310.374	117.93
310.588	111.78
310.802	-64.34
311.016	27.82
311.23	-9.05
311.444	7.34
311.658	-37.72
311.872	29.87
312.085	91.31
312.299	44.2
312.513	171.18
312.727	25.77
312.941	-47.96
313.154	79.02
313.368	91.31
313.582	17.58
313.796	21.67
314.009	-2.9
314.223	103.59
314.437	103.59
314.651	109.74
314.864	42.15
315.078	5.29
315.292	-52.05
315.505	-37.72
315.719	91.31
315.933	13.48
316.146	87.21
316.36	-25.43
316.573	97.45
316.787	29.87
317.001	87.21
317.214	-47.96
317.428	89.26
317.641	-107.35
317.855	46.25
318.068	-39.76
318.282	140.46
318.495	103.59
318.709	64.68
318.922	42.15
319.136	74.92
319.349	160.94
319.563	1.19
319.776	89.26
319.99	-74.58
320.203	70.83
320.417	-33.62
320.63	91.31
320.843	74.92
321.057	27.82
321.27	76.97
321.483	50.35
321.697	68.78
321.91	70.83
322.124	81.07
322.337	107.69
322.55	-39.76
322.763	60.59
322.977	15.53
323.19	-27.48
323.403	101.55
323.617	48.3
323.83	56.49
324.043	9.39
324.256	-17.24
324.469	9.39
324.683	95.4
324.896	-76.63
325.109	-25.43
325.322	-101.2
325.535	117.93
325.748	101.55
325.962	31.91
326.175	93.35
326.388	66.73
326.601	19.63
326.814	81.07
327.027	42.15
327.24	105.64
327.453	-101.2
327.666	64.68
327.879	115.88
328.092	105.64
328.305	11.43
328.518	-0.85
328.731	-52.05
328.944	-27.48
329.157	83.11
329.37	-27.48
329.583	208.04
329.796	140.46
330.009	-56.15
330.222	93.35
330.435	76.97
330.648	68.78
330.861	54.44
331.073	54.44
331.286	97.45
331.499	79.02
331.712	11.43
331.925	5.29
332.138	36.01
332.35	72.87
332.563	-37.72
332.776	124.07
332.989	-25.43
333.202	46.25
333.414	19.63
333.627	95.4
333.84	29.87
334.053	27.82
334.265	-35.67
334.478	62.63
334.691	7.34
334.903	17.58
335.116	-76.63
335.329	-17.24
335.541	56.49
335.754	119.98
335.966	-45.91
336.179	58.54
336.392	-54.1
336.604	-47.96
336.817	50.35
337.029	99.5
337.242	40.11
337.454	115.88
337.667	23.72
337.88	113.83
338.092	111.78
338.305	62.63
338.517	-4.95
338.729	66.73
338.942	165.03
339.154	-25.43
339.367	11.43
339.579	68.78
339.792	-19.29
340.004	81.07
340.217	42.15
340.429	17.58
340.641	54.44
340.854	-7
341.066	-41.81
341.278	128.17
341.491	226.47
341.703	33.96
341.915	-15.19
342.128	105.64
342.34	124.07
342.552	17.58
342.764	89.26
342.977	7.34
343.189	50.35
343.401	7.34
343.613	-111.44
343.826	23.72
344.038	-45.91
344.25	44.2
344.462	11.43
344.674	105.64
344.886	9.39
345.099	29.87
345.311	-17.24
345.523	-119.64
345.735	-56.15
345.947	58.54
346.159	76.97
346.371	56.49
346.583	62.63
346.795	230.57
347.007	-88.92
347.219	128.17
347.431	-7
347.643	144.55
347.855	-27.48
348.067	105.64
348.279	-27.48
348.491	7.34
348.703	64.68
348.915	-0.85
349.127	7.34
349.339	-4.95
349.551	-62.29
349.763	48.3
349.975	19.63
350.187	87.21
350.399	130.22
350.61	81.07
350.822	-58.2
351.034	-13.14
351.246	-9.05
351.458	93.35
351.669	134.31
351.881	107.69
352.093	148.65
352.305	111.78
352.517	50.35
352.728	93.35
352.94	76.97
353.152	126.12
353.363	-74.58
353.575	42.15
353.787	144.55
353.999	70.83
354.21	140.46
354.422	-35.67
354.633	97.45
354.845	-19.29
355.057	5.29
355.268	148.65
355.48	113.83
355.692	-27.48
355.903	11.43
356.115	-11.09
356.326	-121.68
356.538	146.6
356.749	-0.85
356.961	122.02
357.172	72.87
357.384	-39.76
357.595	171.18
357.807	-43.86
358.018	-15.19
358.23	31.91
358.441	124.07
358.653	-4.95
358.864	17.58
359.075	-29.52
359.287	95.4
359.498	76.97
359.709	79.02
359.921	42.15
360.132	25.77
360.344	76.97
360.555	-97.11
360.766	91.31
360.977	-25.43
361.189	138.41
361.4	-7
361.611	89.26
361.823	181.42
362.034	60.59
362.245	-21.33
362.456	1.19
362.667	83.11
362.879	-58.2
363.09	44.2
363.301	-19.29
363.512	97.45
363.723	3.24
363.935	-13.14
364.146	128.17
364.357	42.15
364.568	25.77
364.779	-64.34
364.99	167.08
365.201	-97.11
365.412	113.83
365.623	-90.96
365.834	146.6
366.045	-31.57
366.256	146.6
366.467	29.87
366.678	17.58
366.889	-4.95
367.1	5.29
367.311	113.83
367.522	-56.15
367.733	81.07
367.944	68.78
368.155	-0.85
368.366	17.58
368.577	38.06
368.788	64.68
368.999	-50
369.209	17.58
369.42	177.32
369.631	212.14
369.842	132.26
370.053	52.39
370.264	177.32
370.474	-19.29
370.685	46.25
370.896	44.2
371.107	160.94
371.317	72.87
371.528	68.78
371.739	79.02
371.95	91.31
372.16	7.34
372.371	-95.06
372.582	-0.85
372.792	54.44
373.003	23.72
373.214	9.39
373.424	29.87
373.635	-31.57
373.846	93.35
374.056	7.34
374.267	48.3
374.477	79.02
374.688	-50
374.898	50.35
375.109	48.3
375.319	3.24
375.53	99.5
375.74	150.7
375.951	5.29
376.161	60.59
376.372	115.88
376.582	-15.19
376.793	17.58
377.003	-4.95
377.214	-66.39
377.424	7.34
377.635	13.48
377.845	15.53
378.055	99.5
378.266	-25.43
378.476	62.63
378.686	13.48
378.897	27.82
379.107	93.35
379.317	64.68
379.528	-56.15
379.738	76.97
379.948	-43.86
380.158	119.98
380.369	-27.48
380.579	42.15
380.789	5.29
380.999	70.83
381.21	40.11
381.42	136.36
381.63	25.77
381.84	171.18
382.05	21.67
382.261	60.59
382.471	154.79
382.681	-64.34
382.891	38.06
383.101	93.35
383.311	-15.19
383.521	60.59
383.731	1.19
383.941	62.63
384.151	79.02
384.361	-27.48
384.571	3.24
384.781	162.98
384.991	154.79
385.201	185.51
385.411	70.83
385.621	21.67
385.831	58.54
386.041	103.59
386.251	72.87
386.461	19.63
386.671	-9.05
386.881	-9.05
387.091	-80.72
387.301	195.75
387.511	7.34
387.72	91.31
387.93	25.77
388.14	-72.53
388.35	31.91
388.56	50.35
388.769	167.08
388.979	-39.76
389.189	5.29
389.399	72.87
389.609	117.93
389.818	72.87
390.028	40.11
390.238	117.93
390.447	36.01
390.657	11.43
390.867	31.91
391.076	-54.1
391.286	66.73
391.496	-2.9
391.705	23.72
391.915	79.02
392.125	140.46
392.334	-70.48
392.544	128.17
392.753	33.96
392.963	-54.1
393.172	52.39
393.382	64.68
393.591	222.38
393.801	46.25
394.01	140.46
394.22	111.78
394.429	7.34
394.639	42.15
394.848	3.24
395.058	-9.05
395.267	5.29
395.477	99.5
395.686	79.02
395.895	191.66
396.105	165.03
396.314	97.45
396.524	66.73
396.733	-2.9
396.942	46.25
397.152	105.64
397.361	128.17
397.57	74.92
397.78	66.73
397.989	150.7
398.198	160.94
398.407	23.72
398.617	5.29
398.826	79.02
399.035	31.91
399.244	99.5
399.453	46.25
399.663	-7
399.872	21.67
400.081	-78.68
400.29	136.36
400.499	-111.44
400.708	42.15
400.917	52.39
401.127	74.92
401.336	79.02
401.545	187.56
401.754	54.44
401.963	81.07
402.172	44.2
402.381	-2.9
402.59	23.72
402.799	89.26
403.008	115.88
403.217	91.31
403.426	126.12
403.635	-113.49
403.844	27.82
404.053	-17.24
404.262	-9.05
404.471	115.88
404.68	97.45
404.888	50.35
405.097	-19.29
405.306	126.12
405.515	107.69
405.724	33.96
405.933	81.07
406.142	103.59
406.35	146.6
406.559	9.39
406.768	-13.14
406.977	162.98
407.185	15.53
407.394	107.69
407.603	-41.81
407.812	81.07
408.02	191.66
408.229	54.44
408.438	9.39
408.646	-113.49
408.855	-27.48
409.064	58.54
409.272	48.3
409.481	-0.85
409.69	-2.9
409.898	11.43
410.107	124.07
410.315	95.4
410.524	15.53
410.733	83.11
410.941	25.77
411.15	68.78
411.358	-0.85
411.567	144.55
411.775	74.92
411.984	29.87
412.192	103.59
412.401	56.49
412.609	134.31
412.818	81.07
413.026	138.41
413.234	60.59
413.443	130.22
413.651	-47.96
413.86	17.58
414.068	54.44
414.276	183.46
414.485	17.58
414.693	156.84
414.901	189.61
415.11	1.19
415.318	1.19
415.526	52.39
415.734	97.45
415.943	62.63
416.151	201.9
416.359	33.96
416.567	5.29
416.776	21.67
416.984	124.07
417.192	111.78
417.4	-15.19
417.608	21.67
417.817	-4.95
418.025	27.82
418.233	193.7
418.441	-0.85
418.649	-105.3
418.857	76.97
419.065	124.07
419.273	-2.9
419.481	79.02
419.689	68.78
419.897	-74.58
420.105	-39.76
420.313	87.21
420.521	107.69
420.729	177.32
420.937	-11.09
421.145	-11.09
421.353	99.5
421.561	103.59
421.769	54.44
421.977	-9.05
422.185	93.35
422.393	93.35
422.601	99.5
422.809	-0.85
423.017	64.68
423.224	70.83
423.432	138.41
423.64	29.87
423.848	173.22
424.056	-17.24
424.263	146.6
424.471	93.35
424.679	87.21
424.887	-45.91
425.094	130.22
425.302	60.59
425.51	64.68
425.718	54.44
425.925	58.54
426.133	68.78
426.341	205.99
426.548	128.17
426.756	111.78
426.964	48.3
427.171	17.58
427.379	93.35
427.586	97.45
427.794	107.69
428.001	83.11
428.209	199.85
428.417	234.66
428.624	103.59
428.832	162.98
429.039	52.39
429.247	29.87
429.454	169.13
429.662	187.56
429.869	91.31
430.076	150.7
430.284	89.26
430.491	58.54
430.699	31.91
430.906	259.24
431.114	19.63
431.321	93.35
431.528	119.98
431.736	91.31
431.943	197.8
432.15	146.6
432.358	148.65
432.565	240.81
432.772	76.97
432.979	208.04
433.187	152.74
433.394	195.75
433.601	119.98
433.808	156.84
434.016	212.14
434.223	228.52
434.43	222.38
434.637	251.05
434.844	210.09
435.052	199.85
435.259	173.22
435.466	292.01
435.673	289.96
435.88	191.66
436.087	371.88
436.294	271.53
436.501	312.49
436.708	218.28
436.915	261.29
437.122	281.77
437.329	224.42
437.537	294.05
437.743	322.73
437.95	361.64
438.157	322.73
438.364	289.96
438.571	324.77
438.778	466.08
438.985	369.83
439.192	353.45
439.399	396.45
439.606	396.45
439.813	500.9
440.02	591.01
440.227	601.25
440.433	550.05
440.64	429.22
440.847	406.69
441.054	550.05
441.261	674.98
441.467	613.54
441.674	515.23
441.881	683.17
442.088	640.16
442.294	689.31
442.501	685.22
442.708	722.08
442.914	728.22
443.121	740.51
443.328	847.01
443.534	955.55
443.741	769.18
443.948	779.42
444.154	887.97
444.361	1074.33
444.568	953.5
444.774	937.12
444.981	869.53
445.187	1064.09
445.394	1078.43
445.6	1000.6
445.807	1221.78
446.013	1170.58
446.22	1131.67
446.426	1176.73
446.633	1377.43
446.839	1602.71
447.046	1348.76
447.252	1483.92
447.459	1481.88
447.665	1477.78
447.871	1625.23
448.078	1787.02
448.284	1698.96
448.491	1825.93
448.697	1909.9
448.903	1944.72
449.11	2004.11
449.316	1858.7
449.522	2268.3
449.728	2296.97
449.935	2327.69
450.141	2202.76
450.347	2415.75
450.553	2581.64
450.76	2550.92
450.966	2653.31
451.172	2792.58
451.378	2823.3
451.584	2827.39
451.791	3179.64
451.997	3300.47
452.203	3222.65
452.409	3560.56
452.615	3495.03
452.821	3437.69
453.027	3429.49
453.233	4062.32
453.44	3837.04
453.646	4095.08
453.852	4236.39
454.058	4392.04
454.264	4621.41
454.47	4725.86
454.676	4834.4
454.882	5348.44
455.088	5104.73
455.294	5289.05
455.5	5577.81
455.705	5932.11
455.911	6134.86
456.117	6130.77
456.323	6302.79
456.529	6429.77
456.735	7023.68
456.941	7240.76
457.147	7513.14
457.352	7631.93
457.558	7853.11
457.764	8262.7
457.97	8700.97
458.176	8807.46
458.381	9346.08
458.587	9528.35
458.793	10001.43
458.999	9776.15
459.204	11148.29
459.41	11754.49
459.616	11463.68
459.821	11875.32
460.027	12618.73
460.233	13175.78
460.438	13233.12
460.644	13876.18
460.85	14035.92
461.055	14783.43
461.261	15342.53
461.466	15348.67
461.672	15264.71
461.878	17044.39
462.083	17144.74
462.289	17341.35
462.494	17925.02
462.7	18510.74
462.905	18365.33
463.111	19876.73
463.316	20736.88
463.522	21361.51
463.727	22295.38
463.932	22674.26
464.138	23268.17
464.343	24384.31
464.549	24687.41
464.754	26571.54
464.959	27132.68
465.165	27550.47
465.37	27419.4
465.575	27376.39
465.781	29145.84
465.986	29895.39
466.191	29752.04
466.397	29938.4
466.602	29414.12
466.807	30843.6
467.012	31447.75
467.218	32103.1
467.423	32178.88
467.628	32862.9
467.833	34359.97
468.038	33948.32
468.244	33196.72
468.449	35056.28
468.654	34378.4
468.859	34224.8
469.064	34478.75
469.269	33426.09
469.474	33911.46
469.679	34849.43
469.885	33663.66
470.09	34742.94
470.295	34585.24
470.5	34167.46
470.705	33968.8
470.91	32701.11
471.115	32834.23
471.32	33215.15
471.525	33118.9
471.73	32404.16
471.935	31783.62
472.139	30812.88
472.344	30751.45
472.549	30956.24
472.754	30081.76
472.959	29645.54
473.164	28521.21
473.369	28232.44
473.574	28723.96
473.778	28447.48
473.983	28068.61
474.188	27253.51
474.393	26131.23
474.598	25916.19
474.802	25520.93
475.007	25047.85
475.212	24877.87
475.417	23753.54
475.621	23552.84
475.826	23319.37
476.031	22790.99
476.235	22147.93
476.44	22426.45
476.645	21650.27
476.849	21609.31
477.054	21222.25
477.259	20765.55
477.463	20665.2
477.668	20020.09
477.872	20083.58
478.077	19547.01
478.282	19207.05
478.486	18961.29
478.691	18506.64
478.895	18420.63
479.1	18291.6
479.304	18025.37
479.509	17617.82
479.713	17873.82
479.918	17247.14
480.122	17322.91
480.326	17386.4
480.531	17357.73
480.735	16917.42
480.94	16677.8
481.144	17232.8
481.348	16192.44
481.553	16186.29
481.757	15686.59
481.961	16116.66
482.166	16370.61
482.37	16270.26
482.574	15537.09
482.778	15655.87
482.983	16008.12
483.187	15510.46
483.391	15424.45
483.595	15211.46
483.8	15055.81
484.004	15205.31
484.208	15016.9
484.412	14623.69
484.616	14779.34
484.821	14537.68
485.025	13958.1
485.229	14283.73
485.433	13857.75
485.637	14013.4
485.841	13601.76
486.045	13505.5
486.249	13468.64
486.453	12735.46
486.657	13016.04
486.861	12764.14
487.065	12282.86
487.269	12344.3
487.473	11856.89
487.677	12164.08
487.881	12026.87
488.085	11678.71
488.289	11596.79
488.493	11115.52
488.697	11109.38
488.901	11045.89
489.105	10675.21
489.309	10550.28
489.512	10474.51
489.716	10384.4
489.92	9884.69
490.124	9767.96
490.328	10046.48
490.531	9518.11
490.735	9393.18
490.939	9167.9
491.143	9147.42
491.346	8924.19
491.55	8979.49
491.754	8498.22
491.958	8410.15
492.161	8342.57
492.365	8377.39
492.569	8062
492.772	7996.46
492.976	8072.24
493.18	7984.18
493.383	7865.39
493.587	7607.35
493.79	7742.52
493.994	7377.98
494.197	7398.46
494.401	7355.45
494.605	7136.32
494.808	7404.6
495.012	7175.23
495.215	7007.3
495.419	7199.8
495.622	6890.56
495.825	7019.58
496.029	6853.7
496.232	7160.89
496.436	6743.11
496.639	7121.98
496.843	6837.31
497.046	6933.57
497.249	6976.58
497.453	6995.01
497.656	7015.49
497.859	6835.27
498.063	6898.75
498.266	7208
498.469	6906.95
498.673	7093.31
498.876	7195.71
499.079	7007.3
499.282	7081.02
499.485	7384.12
499.689	7136.32
499.892	7332.92
500.095	7343.16
500.298	7404.6
500.501	7134.27
500.705	7558.2
500.908	7453.75
501.111	7640.12
501.314	7904.31
501.517	7855.15
501.72	7859.25
501.923	7947.31
502.126	8088.62
502.329	8256.56
502.532	8008.75
502.735	8293.42
502.938	8639.53
503.141	8490.03
503.344	8617
503.547	8834.08
503.75	8924.19
503.953	8868.9
504.156	9235.49
504.359	9272.35
504.562	9079.84
504.765	9538.59
504.968	9665.56
505.17	9853.97
505.373	10077.2
505.576	10052.63
505.779	10163.22
505.982	10365.96
506.185	10863.62
506.387	10787.85
506.59	10943.49
506.793	11009.03
506.996	11389.95
507.198	11840.5
507.401	11858.93
507.604	12039.15
507.807	12467.18
508.009	12741.61
508.212	12731.37
508.415	13089.76
508.617	13276.13
508.82	13446.11
509.022	13478.88
509.225	14304.21
509.428	14519.25
509.63	14642.12
509.833	14808.01
510.035	15453.12
510.238	15401.92
510.44	15889.34
510.643	16518.06
510.845	16769.96
511.048	16886.7
511.25	17527.71
511.453	17386.4
511.655	18650
511.858	18582.42
512.06	19143.56
512.262	19432.32
512.465	19452.8
512.667	20358
512.87	20915.05
513.072	21025.64
513.274	21646.18
513.477	22262.61
513.679	22799.18
513.881	23309.13
514.084	23644.99
514.286	24197.95
514.488	24630.07
514.69	25223.98
514.893	25887.52
515.095	26409.75
515.297	27011.85
515.499	27357.96
515.701	27962.11
515.904	28560.12
516.106	29387.5
516.308	29805.28
516.51	30495.45
516.712	31060.69
516.914	31593.16
517.116	32488.12
517.318	32672.44
517.52	33340.08
517.722	33770.15
517.925	34347.68
518.127	35476.11
518.329	35689.1
518.531	35805.83
518.733	37233.27
518.935	37792.36
519.136	38101.61
519.338	38865.5
519.54	39262.8
519.742	39848.52
519.944	40925.75
520.146	41425.46
520.348	41681.45
520.55	42428.96
520.752	42517.03
520.954	43512.34
521.155	42893.85
521.357	43971.08
521.559	44548.61
521.761	45804.02
521.963	45879.79
522.164	45879.79
522.366	46064.11
522.568	46782.94
522.77	46549.48
522.971	47864.27
523.173	47634.9
523.375	48363.98
523.576	47921.62
523.778	48400.84
523.98	49037.76
524.181	49070.53
524.383	48929.22
524.584	49633.72
524.786	49572.28
524.988	49766.84
525.189	49650.1
525.391	50059.69
525.592	49899.95
525.794	50184.62
525.995	50063.79
526.197	49924.53
526.398	49953.2
526.6	50041.26
526.801	49686.96
527.003	49476.02
527.204	49318.33
527.406	49557.94
527.607	49150.4
527.808	49306.04
528.01	48183.76
528.211	48509.38
528.412	48970.18
528.614	48118.22
528.815	47837.65
529.016	48011.73
529.218	46770.66
529.419	46436.84
529.62	46467.56
529.822	45758.96
530.023	45677.04
530.224	45535.73
530.425	44878.33
530.626	44175.88
530.828	43635.22
531.029	44132.87
531.23	42848.8
531.431	42371.62
531.632	42363.43
531.833	41775.66
532.035	41318.96
532.236	40700.48
532.437	40194.63
532.638	39821.9
532.839	39764.56
533.04	38584.93
533.241	38029.93
533.442	38247.01
533.643	37509.74
533.844	36940.41
534.045	36807.29
534.246	35396.24
534.447	35660.43
534.648	35498.64
534.849	34978.45
535.05	33811.11
535.251	33968.8
535.451	33034.93
535.652	33053.36
535.853	32666.3
536.054	31992.51
536.255	31886.02
536.456	31013.59
536.657	30890.71
536.857	30167.77
537.058	29745.89
537.259	29545.19
537.46	29326.06
537.66	28869.36
537.861	28625.65
538.062	27890.43
538.263	27585.29
538.463	27173.64
538.664	26909.46
538.865	26456.85
539.065	26268.44
539.266	25951.01
539.466	25860.9
539.667	25295.66
539.868	25459.49
540.068	24617.78
540.269	24595.25
540.469	24181.56
540.67	23747.39
540.87	23628.61
541.071	23505.73
541.271	23038.8
541.472	22977.36
541.672	22381.4
541.873	22358.87
542.073	21560.16
542.274	22008.67
542.474	21463.91
542.675	20978.54
542.875	21455.72
543.075	20738.93
543.276	20448.11
543.476	20446.07
543.676	20292.47
543.877	20106.1
544.077	19970.94
544.277	19444.61
544.478	19319.68
544.678	19170.18
544.878	18951.05
545.078	18627.47
545.279	18463.63
545.479	18168.73
545.679	18207.64
545.879	17755.04
546.079	17550.24
546.28	17255.33
546.48	17177.51
546.68	17275.81
546.88	16774.06
547.08	16624.56
547.28	16491.44
547.48	15985.59
547.68	15926.2
547.88	16094.13
548.081	15872.95
548.281	15272.9
548.481	14918.6
548.681	15016.9
548.881	14902.22
549.081	14582.73
549.28	14466
549.48	14416.85
549.68	14181.33
549.88	14181.33
550.08	13630.43
550.28	13564.89
550.48	13812.7
550.68	13315.04
550.88	12786.66
551.08	12778.47
551.279	13110.24
551.479	12626.92
551.679	12536.81
551.879	11944.95
552.079	12106.74
552.278	11731.96
552.478	11688.95
552.678	11645.94
552.878	11408.38
553.077	11269.12
553.277	10894.34
553.477	11004.93
553.676	10558.47
553.876	10468.36
554.076	10140.69
554.275	10060.82
554.475	9929.75
554.674	9882.64
554.874	9831.44
555.074	9503.77
555.273	9550.87
555.473	9329.69
555.672	8985.63
555.872	8954.91
556.071	8805.41
556.271	8854.56
556.47	8506.41
556.67	8434.73
556.869	8313.9
557.068	8152.11
557.268	8092.72
557.467	7738.42
557.667	7840.82
557.866	7609.4
558.065	7523.38
558.265	7443.51
558.464	7058.49
558.663	7324.73
558.863	7083.07
559.062	6992.96
559.261	6954.05
559.461	6747.2
559.66	6532.17
559.859	6409.29
560.058	6374.47
560.258	6231.12
560.457	5993.55
560.656	6151.24
560.855	5819.47
561.054	5971.02
561.253	5981.26
561.453	5774.42
561.652	5743.7
561.851	5530.71
562.05	5520.47
562.249	5274.71
562.448	5248.09
562.647	5131.36
562.846	5110.88
563.045	5313.63
563.244	5002.33
563.443	5063.77
563.642	4818.02
563.841	4869.22
564.04	4652.13
564.239	4637.8
564.438	4557.93
564.637	4516.97
564.836	4559.97
565.035	4389.99
565.234	4269.16
565.432	4213.87
565.631	4254.83
565.83	4244.59
566.029	4113.52
566.228	3990.64
566.427	4002.93
566.625	3880.05
566.824	3789.94
567.023	3855.47
567.222	3785.84
567.42	3763.31
567.619	3611.76
567.818	3740.79
568.016	3726.45
568.215	3517.56
568.414	3478.65
568.612	3501.17
568.811	3443.83
569.01	3304.57
569.208	3206.27
569.407	3359.86
569.605	3236.99
569.804	3169.4
570.002	3130.49
570.201	2894.97
570.4	2958.46
570.598	3060.86
570.797	2956.41
570.995	2761.86
571.193	2929.79
571.392	2847.87
571.59	2698.37
571.789	2600.07
571.987	2772.1
572.186	2718.85
572.384	2403.46
572.582	2524.29
572.781	2647.17
572.979	2409.61
573.177	2487.43
573.376	2430.09
573.574	2368.65
573.772	2323.59
573.971	2172.04
574.169	2169.99
574.367	2292.87
574.565	2206.86
574.763	2131.08
574.962	2012.3
575.16	2071.69
575.358	2124.94
575.556	2045.07
575.754	1946.76
575.952	1950.86
576.151	2038.92
576.349	1954.96
576.547	1762.45
576.745	1940.62
576.943	1868.94
577.141	1877.13
577.339	1586.32
577.537	1666.19
577.735	1832.08
577.933	1586.32
578.131	1539.22
578.329	1795.22
578.527	1629.33
578.725	1647.76
578.923	1483.92
579.121	1682.58
579.319	1322.13
579.516	1430.68
579.714	1594.51
579.912	1455.25
580.11	1281.18
580.308	1375.38
580.506	1330.33
580.704	1191.06
580.901	1232.02
581.099	1406.1
581.297	1291.41
581.495	1424.53
581.692	1193.11
581.89	1412.25
582.088	1158.3
582.285	1246.36
582.483	1143.96
582.681	1178.78
582.878	1090.71
583.076	1105.05
583.274	1170.58
583.471	1191.06
583.669	986.27
583.866	943.26
584.064	969.88
584.262	980.12
584.459	859.29
584.657	1070.23
584.854	1123.48
585.052	1016.99
585.249	1010.84
585.447	1037.47
585.644	894.11
585.841	910.49
586.039	967.84
586.236	994.46
586.434	785.57
586.631	898.2
586.828	777.37
587.026	842.91
587.223	816.29
587.42	767.13
587.618	865.44
587.815	906.4
588.012	730.27
588.21	775.33
588.407	808.09
588.604	695.46
588.801	711.84
588.999	744.61
589.196	795.81
589.393	629.92
589.59	730.27
589.787	810.14
589.984	787.61
590.182	748.7
590.379	681.12
590.576	685.22
590.773	756.9
590.97	623.78
591.167	763.04
591.364	689.31
591.561	568.48
591.758	754.85
591.955	746.66
592.152	668.83
592.349	674.98
592.546	654.5
592.743	685.22
592.94	586.91
593.137	672.93
593.334	697.5
593.531	728.22
593.727	750.75
593.924	674.98
594.121	707.74
594.318	670.88
594.515	709.79
594.712	810.14
594.908	791.71
595.105	693.41
595.302	793.76
595.499	701.6
595.696	836.77
595.892	660.64
596.089	763.04
596.286	758.94
596.482	898.2
596.679	855.2
596.876	797.85
597.072	838.81
597.269	885.92
597.466	945.31
597.662	820.38
597.859	900.25
598.055	992.41
598.252	939.16
598.448	1047.71
598.645	1076.38
598.841	1168.54
599.038	1193.11
599.234	1277.08
599.431	1166.49
599.627	1236.12
599.824	1279.13
600.02	1318.04
600.217	1299.61
600.413	1340.57
600.609	1320.09
600.806	1684.62
601.002	1498.26
601.198	1559.7
601.395	1768.59
601.591	1754.26
601.787	1815.69
601.984	1868.94
602.18	1834.13
602.376	2083.98
602.572	2141.32
602.769	2245.77
602.965	2278.54
603.161	2325.64
603.357	2532.48
603.553	2561.16
603.75	2460.81
603.946	2700.42
604.142	2743.42
604.338	2921.6
604.534	2790.53
604.73	3044.48
604.926	3110.01
605.122	3206.27
605.318	3253.37
605.514	3531.89
605.71	3308.66
605.906	3642.48
606.102	3738.74
606.298	3939.44
606.494	4074.6
606.69	4070.51
606.886	4230.25
607.082	4109.42
607.278	4363.37
607.474	4457.57
607.67	4672.61
607.866	4787.3
608.062	4930.66
608.257	4934.75
608.453	5024.86
608.649	5299.29
608.845	5444.7
609.041	5678.16
609.236	5889.1
609.432	5827.67
609.628	6136.91
609.824	6231.12
610.019	6495.3
610.215	6517.83
610.411	6964.29
610.606	7025.73
610.802	7074.88
610.998	7306.3
611.193	7519.29
611.389	7568.44
611.584	7875.63
611.78	7896.11
611.976	8131.63
612.171	8592.42
612.367	8780.84
612.562	8969.25
612.758	9227.29
612.953	9163.81
613.149	9421.85
613.344	9892.88
613.539	10159.12
613.735	10476.55
613.93	10552.33
614.126	10839.05
614.321	11170.82
614.517	11383.8
614.712	11934.71
614.907	12035.06
615.103	12534.76
615.298	12612.59
615.493	13183.97
615.688	13317.09
615.884	13827.03
616.079	13824.98
616.274	14265.3
616.47	14736.33
616.665	15168.45
616.86	15156.16
617.055	15977.4
617.25	16034.74
617.445	16737.2
617.641	17107.88
617.836	17400.74
618.031	17517.47
618.226	18494.35
618.421	18729.87
618.616	19235.72
618.811	19653.5
619.006	20261.75
619.201	20194.17
619.396	20968.3
619.591	21271.4
619.786	21691.23
619.981	22160.22
620.176	22547.28
620.371	22668.11
620.566	23651.14
620.761	23857.98
620.956	24697.65
621.151	24593.2
621.346	25430.82
621.541	25545.51
621.735	26921.74
621.93	26737.43
622.125	27478.79
622.32	28191.48
622.515	28474.1
622.709	28838.64
622.904	29573.86
623.099	30061.28
623.294	30360.28
623.488	30964.43
623.683	31644.36
623.878	31507.15
624.072	32639.67
624.267	33067.7
624.462	33280.69
624.656	33788.58
624.851	34456.22
625.046	34939.54
625.24	35334.8
625.435	36059.78
625.629	36356.74
625.824	36911.74
626.018	37210.74
626.213	37460.59
626.407	38339.17
626.602	37874.28
626.796	39359.06
626.991	39160.41
627.185	39576.14
627.38	39707.21
627.574	39758.41
627.768	40288.84
627.963	40608.32
628.157	40479.3
628.352	40733.25
628.546	40397.38
628.74	41302.58
628.935	40708.67
629.129	41001.53
629.323	40264.26
629.517	40878.65
629.712	40012.36
629.906	39971.4
630.1	39264.85
630.294	39457.36
630.489	38402.66
630.683	38457.95
630.877	37606
631.071	37411.44
631.265	36711.03
631.459	35981.96
631.653	35037.84
631.848	34243.23
632.042	33645.23
632.236	33055.41
632.43	31853.25
632.624	31306.44
632.818	30239.45
633.012	29170.41
633.206	28764.92
633.4	27876.1
633.594	26436.38
633.788	25606.95
633.982	25023.28
634.176	24302.39
634.369	22825.81
634.563	22238.04
634.757	21664.61
634.951	20872.04
635.145	19647.36
635.339	19030.92
635.533	18531.22
635.726	17869.72
635.92	16872.36
636.114	16020.41
636.308	15670.2
636.501	14998.47
636.695	14441.42
636.889	13841.37
637.083	13087.71
637.276	12757.99
637.47	12045.3
637.664	11602.94
637.857	11236.35
638.051	10871.81
638.244	10359.82
638.438	9892.88
638.632	9804.82
638.825	9053.22
639.019	8844.32
639.212	8365.1
639.406	8186.93
639.599	7689.27
639.793	7468.09
639.986	7025.73
640.18	7046.21
640.373	6650.95
640.567	6480.97
640.76	6274.12
640.954	6114.38
641.147	5592.15
641.34	5586.01
641.534	5317.72
641.727	5289.05
641.92	4938.85
642.114	4801.63
642.307	4486.25
642.5	4404.33
642.694	4056.17
642.887	4000.88
643.08	4070.51
643.273	3816.56
643.467	3501.17
643.66	3472.5
643.853	3247.23
644.046	3189.88
644.239	3116.16
644.432	2997.37
644.626	2671.75
644.819	2751.62
645.012	2612.35
645.205	2575.49
645.398	2536.58
645.591	2311.3
645.784	2043.02
645.977	2079.88
646.17	2096.27
646.363	1883.28
646.556	1827.98
646.749	1834.13
646.942	1797.26
647.135	1754.26
647.328	1553.55
647.521	1641.62
647.714	1541.27
647.907	1592.47
648.099	1375.38
648.292	1537.17
648.485	1399.96
648.678	1393.81
648.871	1211.54
649.064	1211.54
649.256	1031.32
649.449	1004.7
649.642	988.32
649.835	990.36
650.027	920.73
650.22	1068.19
650.413	935.07
650.605	920.73
650.798	787.61
650.991	779.42
651.183	820.38
651.376	849.05
651.568	875.68
651.761	668.83
651.954	797.85
652.146	666.78
652.339	652.45
652.531	679.07
652.724	603.3
652.916	564.39
653.109	431.27
653.301	617.63
653.494	615.59
653.686	629.92
653.879	619.68
654.071	502.95
654.263	464.04
654.456	421.03
654.648	578.72
654.84	476.32
655.033	341.16
655.225	588.96
655.417	341.16
655.61	556.19
655.802	404.64
655.994	492.71
656.186	406.69
656.379	525.47
656.571	279.72
656.763	326.82
656.955	279.72
657.148	373.92
657.34	433.32
657.532	246.95
657.724	326.82
657.916	287.91
658.108	335.01
658.3	277.67
658.492	318.63
658.684	259.24
658.876	355.49
659.068	230.57
659.26	181.42
659.452	169.13
659.644	273.57
659.836	367.78
660.028	261.29
660.22	165.03
660.412	275.62
660.604	271.53
660.796	244.9
660.988	269.48
661.18	228.52
661.372	304.29
661.563	175.27
661.755	175.27
661.947	130.22
662.139	122.02
662.331	201.9
662.522	189.61
662.714	119.98
662.906	212.14
663.097	130.22
663.289	99.5
663.481	87.21
663.673	300.2
663.864	156.84
664.056	216.23
664.247	122.02
664.439	199.85
664.631	148.65
664.822	115.88
665.014	167.08
665.205	165.03
665.397	124.07
665.588	169.13
665.78	208.04
665.971	203.94
666.163	126.12
666.354	220.33
666.546	142.5
666.737	171.18
666.929	119.98
667.12	130.22
667.311	191.66
667.503	177.32
667.694	179.37
667.885	156.84
668.077	136.36
668.268	103.59
668.459	91.31
668.651	267.43
668.842	140.46
669.033	81.07
669.224	85.16
669.416	302.25
669.607	87.21
669.798	60.59
669.989	259.24
670.18	119.98
670.371	122.02
670.563	64.68
670.754	240.81
670.945	214.18
671.136	167.08
671.327	13.48
671.518	150.7
671.709	220.33
671.9	191.66
672.091	224.42
672.282	154.79
672.473	156.84
672.664	85.16
672.855	177.32
673.046	138.41
673.237	179.37
673.428	179.37
673.619	150.7
673.809	142.5
674	287.91
674.191	249
674.382	134.31
674.573	205.99
674.764	199.85
674.954	269.48
675.145	33.96
675.336	66.73
675.527	146.6
675.717	208.04
675.908	122.02
676.099	132.26
676.289	195.75
676.48	115.88
676.671	179.37
676.861	128.17
677.052	185.51
677.243	181.42
677.433	148.65
677.624	185.51
677.814	234.66
678.005	124.07
678.195	359.59
678.386	142.5
678.576	189.61
678.767	105.64
678.957	232.62
679.148	195.75
679.338	396.45
679.529	214.18
679.719	210.09
679.909	289.96
680.1	289.96
680.29	214.18
680.481	175.27
680.671	265.38
680.861	269.48
681.052	298.15
681.242	136.36
681.432	214.18
681.622	162.98
681.813	115.88
682.003	273.57
682.193	205.99
682.383	179.37
682.573	195.75
682.764	156.84
682.954	253.09
683.144	414.88
683.334	253.09
683.524	181.42
683.714	306.34
683.904	345.25
684.094	275.62
684.284	269.48
684.474	345.25
684.664	267.43
684.854	314.53
685.044	318.63
685.234	394.4
685.424	234.66
685.614	144.55
685.804	341.16
685.994	253.09
686.184	214.18
686.374	378.02
686.564	294.05
686.753	384.16
686.943	259.24
687.133	179.37
687.323	218.28
687.513	306.34
687.702	281.77
687.892	269.48
688.082	275.62
688.272	234.66
688.461	218.28
688.651	398.5
688.841	320.68
689.03	273.57
689.22	201.9
689.41	365.73
689.599	255.14
689.789	251.05
689.979	369.83
690.168	193.7
690.358	265.38
690.547	197.8
690.737	244.9
690.926	255.14
691.116	214.18
691.305	308.39
691.495	314.53
691.684	179.37
691.874	179.37
692.063	234.66
692.252	306.34
692.442	279.72
692.631	197.8
692.82	236.71
693.01	273.57
693.199	183.46
693.388	269.48
693.578	249
693.767	310.44
693.956	328.87
694.146	228.52
694.335	285.86
694.524	208.04
694.713	246.95
694.902	224.42
695.092	140.46
695.281	302.25
695.47	232.62
695.659	189.61
695.848	205.99
696.037	175.27
696.226	267.43
696.415	251.05
696.604	322.73
696.793	279.72
696.982	181.42
697.171	302.25
697.36	226.47
697.549	228.52
697.738	142.5
697.927	179.37
698.116	175.27
698.305	257.19
698.494	226.47
698.683	212.14
698.872	386.21
699.061	210.09
699.25	246.95
699.438	187.56
699.627	122.02
699.816	298.15
700.005	136.36
700.193	150.7
700.382	351.4
700.571	226.47
700.76	185.51
700.948	244.9
701.137	283.81
701.326	251.05
701.514	154.79
701.703	162.98
701.892	244.9
702.08	369.83
702.269	160.94
702.457	130.22
702.646	187.56
702.834	234.66
703.023	316.58
703.212	285.86
703.4	249
703.589	304.29
703.777	228.52
703.965	269.48
704.154	226.47
704.342	158.89
704.531	173.22
704.719	244.9
704.907	310.44
705.096	130.22
705.284	173.22
705.472	292.01
705.661	249
705.849	316.58
706.037	242.85
706.226	150.7
706.414	283.81
706.602	218.28
706.79	238.76
706.979	201.9
707.167	232.62
707.355	148.65
707.543	167.08
707.731	314.53
707.919	191.66
708.107	181.42
708.296	162.98
708.484	152.74
708.672	249
708.86	201.9
709.048	261.29
709.236	130.22
709.424	230.57
709.612	261.29
709.8	95.4
709.988	230.57
710.176	318.63
710.364	326.82
710.551	165.03
710.739	169.13
710.927	199.85
711.115	205.99
711.303	314.53
711.491	285.86
711.679	236.71
711.866	279.72
712.054	285.86
712.242	289.96
712.43	261.29
712.617	197.8
712.805	337.06
712.993	107.69
713.181	103.59
713.368	378.02
713.556	230.57
713.744	201.9
713.931	306.34
714.119	302.25
714.306	173.22
714.494	173.22
714.682	212.14
714.869	81.07
715.057	214.18
715.244	205.99
715.432	238.76
715.619	226.47
715.807	195.75
715.994	173.22
716.182	255.14
716.369	216.23
716.556	261.29
716.744	56.49
716.931	175.27
717.119	238.76
717.306	289.96
717.493	310.44
717.681	222.38
717.868	205.99
718.055	251.05
718.242	257.19
718.43	244.9
718.617	388.26
718.804	189.61
718.991	384.16
719.179	287.91
719.366	224.42
719.553	328.87
719.74	214.18
719.927	255.14
720.114	246.95
720.301	185.51
720.488	117.93
720.676	175.27
720.863	259.24
721.05	464.04
721.237	287.91
721.424	314.53
721.611	283.81
721.798	195.75
721.985	138.41
722.172	255.14
722.358	193.7
722.545	292.01
722.732	246.95
722.919	314.53
723.106	283.81
723.293	230.57
723.48	300.2
723.667	193.7
723.853	285.86
724.04	255.14
724.227	304.29
724.414	255.14
724.6	292.01
724.787	332.97
724.974	384.16
725.161	220.33
725.347	148.65
725.534	212.14
725.72	337.06
725.907	347.3
726.094	296.1
726.28	238.76
726.467	263.33
726.653	216.23
726.84	408.74
727.027	349.35
727.213	191.66
727.4	279.72
727.586	259.24
727.773	259.24
727.959	257.19
728.145	281.77
728.332	273.57
728.518	181.42
728.705	355.49
728.891	320.68
729.077	328.87
729.264	132.26
729.45	224.42
729.636	283.81
729.823	238.76
730.009	363.69
730.195	332.97
730.382	369.83
730.568	179.37
730.754	343.21
730.94	236.71
731.126	244.9
731.313	302.25
731.499	335.01
731.685	355.49
731.871	228.52
732.057	300.2
732.243	378.02
732.429	279.72
732.615	345.25
732.801	259.24
732.987	302.25
733.173	261.29
733.359	246.95
733.545	380.07
733.731	302.25
733.917	328.87
734.103	296.1
734.289	326.82
734.475	265.38
734.661	449.7
734.847	306.34
735.033	353.45
735.219	312.49
735.404	249
735.59	232.62
735.776	234.66
735.962	292.01
736.148	375.97
736.333	361.64
736.519	224.42
736.705	330.92
736.89	296.1
737.076	353.45
737.262	251.05
737.447	214.18
737.633	214.18
737.819	378.02
738.004	298.15
738.19	277.67
738.375	257.19
738.561	369.83
738.747	339.11
738.932	189.61
739.118	451.75
739.303	357.54
739.489	373.92
739.674	300.2
739.859	218.28
740.045	339.11
740.23	226.47
740.416	171.18
740.601	363.69
740.786	244.9
740.972	273.57
741.157	271.53
741.342	154.79
741.528	253.09
741.713	330.92
741.898	326.82
742.084	310.44
742.269	277.67
742.454	222.38
742.639	443.56
742.824	259.24
743.01	398.5
743.195	423.08
743.38	263.33
743.565	263.33
743.75	326.82
743.935	435.36
744.12	292.01
744.305	269.48
744.49	269.48
744.675	263.33
744.86	251.05
745.045	351.4
745.23	335.01
745.415	263.33
745.6	363.69
745.785	171.18
745.97	302.25
746.155	277.67
746.34	279.72
746.525	259.24
746.71	402.6
746.895	136.36
747.079	203.94
747.264	193.7
747.449	296.1
747.634	279.72
747.819	242.85
748.003	273.57
748.188	158.89
748.373	378.02
748.557	267.43
748.742	279.72
748.927	263.33
749.111	177.32
749.296	201.9
749.481	271.53
749.665	205.99
749.85	238.76
750.034	232.62
750.219	294.05
750.404	314.53
750.588	236.71
750.773	205.99
750.957	187.56
751.141	263.33
751.326	195.75
751.51	226.47
751.695	167.08
751.879	279.72
752.064	261.29
752.248	232.62
752.432	308.39
752.617	310.44
752.801	224.42
752.985	218.28
753.17	273.57
753.354	281.77
753.538	179.37
753.722	208.04
753.907	277.67
754.091	122.02
754.275	279.72
754.459	144.55
754.643	144.55
754.828	228.52
755.012	165.03
755.196	115.88
755.38	232.62
755.564	212.14
755.748	181.42
755.932	269.48
756.116	205.99
756.3	236.71
756.484	111.78
756.668	251.05
756.852	87.21
757.036	173.22
757.22	193.7
757.404	160.94
757.588	181.42
757.772	201.9
757.956	93.35
758.14	263.33
758.323	146.6
758.507	218.28
758.691	158.89
758.875	150.7
759.059	341.16
759.242	93.35
759.426	132.26
759.61	171.18
759.794	11.43
759.977	228.52
760.161	222.38
760.345	199.85
760.528	224.42
760.712	162.98
760.895	111.78
761.079	203.94
761.263	44.2
761.446	117.93
761.63	93.35
761.813	263.33
761.997	72.87
762.18	113.83
762.364	113.83
762.547	-41.81
762.731	48.3
762.914	173.22
763.098	111.78
763.281	183.46
763.464	146.6
763.648	177.32
763.831	25.77
764.015	60.59
764.198	197.8
764.381	44.2
764.564	171.18
764.748	79.02
764.931	136.36
765.114	115.88
765.297	105.64
765.481	76.97
765.664	60.59
765.847	79.02
766.03	152.74
766.213	99.5
766.397	109.74
766.58	23.72
766.763	193.7
766.946	109.74
767.129	205.99
767.312	167.08
767.495	148.65
767.678	54.44
767.861	197.8
768.044	167.08
768.227	44.2
768.41	154.79
768.593	148.65
768.776	89.26
768.959	130.22
769.142	79.02
769.324	40.11
769.507	97.45
769.69	122.02
769.873	140.46
770.056	257.19
770.239	85.16
770.421	181.42
770.604	130.22
770.787	87.21
770.97	103.59
771.152	-27.48
771.335	167.08
771.518	68.78
771.7	70.83
771.883	216.23
772.066	-25.43
772.248	117.93
772.431	109.74
772.613	134.31
772.796	93.35
772.978	74.92
773.161	179.37
773.343	54.44
773.526	36.01
773.708	-60.24
773.891	13.48
774.073	58.54
774.256	62.63
774.438	146.6
774.621	11.43
774.803	95.4
774.985	66.73
775.168	144.55
775.35	50.35
775.532	152.74
775.715	-58.2
775.897	160.94
776.079	83.11
776.261	1.19
776.444	52.39
776.626	68.78
776.808	101.55
776.99	-25.43
777.173	83.11
777.355	87.21
777.537	109.74
777.719	68.78
777.901	99.5
778.083	74.92
778.265	105.64
778.447	58.54
778.629	52.39
778.811	144.55
778.993	138.41
779.175	85.16
779.357	46.25
779.539	23.72
779.721	44.2
779.903	150.7
780.085	-17.24
780.267	93.35
780.449	38.06
780.631	97.45
780.812	150.7
780.994	13.48
781.176	27.82
781.358	38.06
781.54	58.54
781.721	93.35
781.903	68.78
782.085	81.07
782.267	205.99
782.448	-54.1
782.63	13.48
782.812	42.15
782.993	-7
783.175	160.94
783.357	70.83
783.538	15.53
783.72	-17.24
783.901	-7
784.083	48.3
784.264	107.69
784.446	-90.96
784.627	62.63
784.809	46.25
784.99	50.35
785.172	64.68
785.353	72.87
785.535	13.48
785.716	31.91
785.897	-54.1
786.079	33.96
786.26	29.87
786.441	31.91
786.623	-90.96
786.804	-33.62
786.985	44.2
787.167	81.07
787.348	7.34
787.529	-17.24
787.71	154.79
787.891	3.24
788.073	-9.05
788.254	-41.81
788.435	52.39
788.616	79.02
788.797	-68.44
788.978	9.39
789.159	-19.29
789.34	91.31
789.522	27.82
789.703	-23.38
789.884	62.63
790.065	15.53
790.246	136.36
790.427	13.48
790.607	105.64
790.788	103.59
790.969	-33.62
791.15	-25.43
791.331	-21.33
791.512	-27.48
791.693	-58.2
791.874	11.43
792.054	144.55
792.235	122.02
792.416	3.24
792.597	40.11
792.778	97.45
792.958	33.96
793.139	62.63
793.32	56.49
793.5	-88.92
793.681	177.32
793.862	-2.9
794.042	-25.43
794.223	-50
794.404	-72.53
794.584	-76.63
794.765	23.72
794.945	-4.95
795.126	93.35
795.306	70.83
795.487	9.39
795.667	27.82
795.848	44.2
796.028	-35.67
796.209	21.67
796.389	150.7
796.57	-0.85
796.75	-58.2
796.93	-15.19
797.111	-2.9
797.291	-43.86
797.471	124.07
797.652	31.91
797.832	-68.44
798.012	64.68
798.192	29.87
798.373	-54.1
798.553	54.44
798.733	-7
798.913	-50
799.093	-41.81
799.274	31.91
799.454	23.72
799.634	70.83
799.814	79.02
799.994	50.35
800.174	42.15
800.354	-4.95
800.534	-121.68
800.714	23.72
800.894	-54.1
801.074	-72.53
801.254	-64.34
801.434	158.89
801.614	15.53
801.794	-47.96
801.974	1905.81
802.154	-13.14
802.334	140.46
802.514	-62.29
802.693	29.87
802.873	29.87
803.053	103.59
803.233	9.39
803.413	-13.14
803.592	-25.43
803.772	-68.44
803.952	-29.52
804.131	-125.78
804.311	79.02
804.491	27.82
804.67	-41.81
804.85	-11.09
805.03	9.39
805.209	38.06
805.389	-70.48
805.568	-4.95
805.748	54.44
805.928	-37.72
806.107	93.35
806.287	113.83
806.466	15.53
806.646	1.19
806.825	25.77
807.004	-41.81
807.184	83.11
807.363	60.59
807.543	21.67
807.722	-47.96
807.901	38.06
808.081	58.54
808.26	-154.45
808.439	17.58
808.619	33.96
808.798	-82.77
808.977	54.44
809.156	87.21
809.336	-52.05
809.515	62.63
809.694	-70.48
809.873	-62.29
810.052	79.02
810.231	60.59
810.411	-7
810.59	33.96
810.769	-80.72
810.948	115.88
811.127	-35.67
811.306	-19.29
811.485	17.58
811.664	109.74
811.843	31.91
812.022	-62.29
812.201	11.43
812.38	17.58
812.559	-11.09
812.737	48.3
812.916	-17.24
813.095	-78.68
813.274	23.72
813.453	29.87
813.632	89.26
813.811	101.55
813.989	-97.11
814.168	-29.52
814.347	-52.05
814.526	-66.39
814.704	195.75
814.883	93.35
815.062	-84.82
815.24	89.26
815.419	-72.53
815.598	91.31
815.776	-181.07
815.955	-13.14
816.133	-99.16
816.312	38.06
816.49	9.39
816.669	-50
816.847	29.87
817.026	-21.33
817.204	19.63
817.383	-45.91
817.561	-23.38
817.74	31.91
817.918	33.96
818.097	-76.63
818.275	-0.85
818.453	1.19
818.632	11.43
818.81	9.39
818.988	-13.14
819.167	-93.01
819.345	23.72
819.523	-17.24
819.701	21.67
819.879	42.15
820.058	42.15
820.236	-37.72
820.414	-70.48
820.592	-35.67
820.77	-31.57
820.948	-54.1
821.127	95.4
821.305	-15.19
821.483	-103.25
821.661	60.59
821.839	-37.72
822.017	-43.86
822.195	36.01
822.373	93.35
822.551	-74.58
822.729	11.43
822.907	7.34
823.085	9.39
823.262	-29.52
823.44	-45.91
823.618	-45.91
823.796	-74.58
823.974	-54.1
824.152	-27.48
824.329	17.58
824.507	81.07
824.685	76.97
824.863	-4.95
825.04	56.49
825.218	25.77
825.396	-39.76
825.574	27.82
825.751	11.43
825.929	-0.85
826.107	-47.96
826.284	31.91
826.462	27.82
826.639	-7
826.817	-86.87
826.994	-11.09
827.172	-50
827.349	126.12
827.527	46.25
827.704	-66.39
827.882	58.54
828.059	-88.92
828.237	-52.05
828.414	19.63
828.591	-156.5
828.769	19.63
828.946	-13.14
829.124	66.73
829.301	115.88
829.478	-33.62
829.655	-11.09
829.833	11.43
830.01	-101.2
830.187	42.15
830.364	-27.48
830.542	-11.09
830.719	109.74
830.896	-25.43
831.073	-66.39
831.25	-84.82
831.427	36.01
831.604	-11.09
831.782	-54.1
831.959	54.44
832.136	-68.44
832.313	36.01
832.49	-2.9
832.667	31.91
832.844	-82.77
833.021	31.91
833.198	-43.86
833.374	-41.81
833.551	1.19
833.728	17.58
833.905	36.01
834.082	-131.92
834.259	-2.9
834.436	-19.29
834.612	-72.53
834.789	87.21
834.966	46.25
835.143	-37.72
835.319	-54.1
835.496	-2.9
835.673	38.06
835.85	40.11
836.026	7.34
836.203	79.02
836.38	-23.38
836.556	-156.5
836.733	-52.05
836.909	130.22
837.086	-2.9
837.262	-101.2
837.439	-7
837.616	-64.34
837.792	-9.05
837.968	48.3
838.145	-47.96
838.321	21.67
838.498	-35.67
838.674	33.96
838.851	62.63
839.027	-37.72
839.203	15.53
839.38	68.78
839.556	-86.87
839.732	5.29
839.909	-50
840.085	-17.24
840.261	-43.86
840.437	7.34
840.614	-74.58
840.79	130.22
840.966	56.49
841.142	-17.24
841.318	-60.24
841.494	25.77
841.671	72.87
841.847	-78.68
842.023	-64.34
842.199	19.63
842.375	136.36
842.551	-123.73
842.727	-86.87
842.903	136.36
843.079	-103.25
843.255	83.11
843.431	56.49
843.607	31.91
843.783	-113.49
843.959	27.82
844.134	-52.05
844.31	56.49
844.486	-25.43
844.662	-113.49
844.838	-37.72
845.013	-27.48
845.189	81.07
845.365	64.68
845.541	-13.14
845.716	38.06
845.892	21.67
846.068	-60.24
846.244	-113.49
846.419	21.67
846.595	-62.29
846.77	-99.16
846.946	38.06
847.122	64.68
847.297	-52.05
847.473	109.74
847.648	-80.72
847.824	-56.15
847.999	-154.45
848.175	-60.24
848.35	29.87
848.526	70.83
848.701	83.11
848.876	15.53
849.052	29.87
849.227	5.29
849.403	50.35
849.578	-13.14
849.753	7.34
849.929	15.53
850.104	-76.63
850.279	-43.86
850.454	-35.67
850.63	21.67
850.805	-21.33
850.98	-70.48
851.155	54.44
851.33	13.48
851.505	-64.34
851.681	91.31
851.856	-88.92
852.031	-9.05
852.206	-9.05
852.381	-19.29
852.556	33.96
852.731	-27.48
852.906	21.67
853.081	72.87
853.256	54.44
853.431	-76.63
853.606	-54.1
853.781	-64.34
853.956	-66.39
854.131	25.77
854.305	-90.96
854.48	11.43
854.655	-101.2
854.83	-115.54
855.005	5.29
855.18	-0.85
855.354	-70.48
855.529	-33.62
855.704	5.29
855.879	29.87
856.053	-50
856.228	-4.95
856.403	-107.35
856.577	54.44
856.752	-88.92
856.926	-19.29
857.101	-29.52
857.276	1.19
857.45	-47.96
857.625	56.49
857.799	9.39
857.974	-2.9
858.148	-144.21
858.323	-72.53
858.497	7.34
858.672	-97.11
858.846	-21.33
859.02	113.83
859.195	-95.06
859.369	-52.05
859.543	66.73
859.718	15.53
859.892	-66.39
860.066	-29.52
860.241	-37.72
860.415	-47.96
860.589	-4.95
860.763	-78.68
860.938	-78.68
861.112	52.39
861.286	-50
861.46	-21.33
861.634	-33.62
861.808	44.2
861.982	-86.87
862.157	-146.26
862.331	-70.48
862.505	-62.29
862.679	-101.2
862.853	46.25
863.027	-29.52
863.201	152.74
863.375	9.39
863.549	76.97
863.722	3.24
863.896	25.77
864.07	-123.73
864.244	-47.96
864.418	85.16
864.592	29.87
864.766	-2.9
864.939	-80.72
865.113	-150.36
865.287	33.96
865.461	-119.64
865.634	-72.53
865.808	-58.2
865.982	-11.09
866.156	-117.59
866.329	-101.2
866.503	-52.05
866.676	-11.09
866.85	97.45
867.024	-33.62
867.197	27.82
867.371	97.45
867.544	19.63
867.718	-146.26
867.891	42.15
868.065	-21.33
868.238	56.49
868.412	54.44
868.585	13.48
868.759	-111.44
868.932	-52.05
869.105	-109.4
869.279	29.87
869.452	-101.2
869.625	38.06
869.799	-60.24
869.972	-39.76
870.145	-72.53
870.319	40.11
870.492	-35.67
870.665	-68.44
870.838	-39.76
871.011	-156.5
871.185	-17.24
871.358	-37.72
871.531	-25.43
871.704	-119.64
871.877	-27.48
872.05	-33.62
872.223	-78.68
872.396	42.15
872.569	48.3
872.742	-45.91
872.915	15.53
873.088	-27.48
873.261	-52.05
873.434	33.96
873.607	-17.24
873.78	132.26
873.953	-52.05
874.126	3.24
874.299	11.43
874.471	-82.77
874.644	-35.67
874.817	15.53
874.99	130.22
875.163	-66.39
875.335	50.35
875.508	-76.63
875.681	-27.48
875.853	-70.48
876.026	-31.57
876.199	-11.09
876.371	-0.85
876.544	-109.4
876.717	-0.85
876.889	-19.29
877.062	15.53
877.234	-152.4
877.407	-111.44
877.579	-2.9
877.752	5.29
877.924	15.53
878.097	23.72
878.269	-23.38
878.442	33.96
878.614	-21.33
878.786	9.39
878.959	-7
879.131	5.29
879.303	-109.4
879.476	-25.43
879.648	-2.9
879.82	-27.48
879.993	-35.67
880.165	-66.39
880.337	-103.25
880.509	31.91
880.681	-146.26
880.854	-31.57
881.026	-11.09
881.198	193.7
881.37	-47.96
881.542	40.11
881.714	-15.19
881.886	-45.91
882.058	-39.76
882.23	-39.76
882.402	15.53
882.574	-0.85
882.746	103.59
882.918	81.07
883.09	-9.05
883.262	-15.19
883.434	13.48
883.606	-152.4
883.778	-47.96
883.95	29.87
884.122	-70.48
884.293	17.58
884.465	1.19
884.637	11.43
884.809	-29.52
884.98	62.63
885.152	115.88
885.324	42.15
885.496	-80.72
885.667	-54.1
885.839	-39.76
886.011	66.73
886.182	29.87
886.354	33.96
886.525	-99.16
886.697	-47.96
886.869	-33.62
887.04	-50
887.212	95.4
887.383	109.74
887.555	64.68
887.726	-15.19
887.897	-4.95
888.069	-27.48
888.24	-52.05
888.412	-15.19
888.583	-72.53
888.754	-15.19
888.926	-127.83
889.097	-50
889.268	-115.54
889.44	27.82
889.611	-88.92
889.782	-62.29
889.953	-31.57
890.125	99.5
890.296	-60.24
890.467	-58.2
890.638	-25.43
890.809	-50
890.98	-84.82
891.151	-15.19
891.323	21.67
891.494	-39.76
891.665	38.06
891.836	-41.81
892.007	27.82
892.178	-64.34
892.349	76.97
892.52	-17.24
892.691	1.19
892.862	-52.05
893.032	-168.79
893.203	-123.73
893.374	3.24
893.545	101.55
893.716	-27.48
893.887	-15.19
894.057	-109.4
894.228	-23.38
894.399	-64.34
894.57	46.25
894.74	5.29
894.911	68.78
895.082	-47.96
895.253	-138.07
895.423	-52.05
895.594	-25.43
895.764	81.07
895.935	-97.11
896.106	101.55
896.276	-93.01
896.447	-70.48
896.617	-90.96
896.788	-121.68
896.958	-17.24
897.129	-27.48
897.299	-27.48
897.47	62.63
897.64	19.63
897.81	-17.24
897.981	48.3
898.151	-113.49
898.322	44.2
898.492	15.53
898.662	-58.2
898.832	-2.9
899.003	-84.82
899.173	-66.39
899.343	-154.45
899.513	-93.01
