Data from USB4F104151__180__11-05-06-734.txt Node

Date: Wed Feb 26 11:05:06 EST 2025
User: louis
Spectrometer: USB4F10415
Trigger mode: 4
Integration Time (sec): 1.000000E-1
Scans to average: 1
Electric dark correction enabled: true
Nonlinearity correction enabled: false
Boxcar width: 0
XAxis mode: Wavelengths
Number of Pixels in Spectrum: 3648
>>>>>Begin Spectral Data<<<<<
178.204	-344.4
178.424	-344.4
178.644	-344.4
178.864	-430.41
179.084	-379.22
179.304	-24.92
179.524	-55.64
179.744	9.9
179.964	11.95
180.184	57
180.404	32.43
180.624	28.33
180.844	-61.78
181.064	1.71
181.283	24.23
181.503	-24.92
181.723	1.71
181.943	-49.49
182.163	149.16
182.383	59.05
182.602	61.1
182.822	173.74
183.042	89.77
183.262	16.04
183.482	-31.06
183.701	32.43
183.921	-12.63
184.141	-31.06
184.361	44.71
184.58	30.38
184.8	85.67
185.02	28.33
185.239	71.34
185.459	97.96
185.679	132.78
185.898	-88.4
186.118	100.01
186.338	16.04
186.557	153.26
186.777	-82.26
186.997	54.95
187.216	7.85
187.436	229.03
187.655	91.82
187.875	42.67
188.095	16.04
188.314	124.58
188.534	177.83
188.753	7.85
188.973	108.2
189.192	106.15
189.412	-22.87
189.631	50.86
189.851	130.73
190.07	145.06
190.29	-43.35
190.509	-82.26
190.729	61.1
190.948	126.63
191.168	173.74
191.387	110.25
191.607	-8.53
191.826	85.67
192.045	65.19
192.265	11.95
192.484	57
192.704	30.38
192.923	-57.68
193.142	159.4
193.362	122.54
193.581	104.11
193.8	61.1
194.02	57
194.239	38.57
194.458	140.97
194.678	3.75
194.897	-18.77
195.116	61.1
195.335	75.43
195.555	71.34
195.774	59.05
195.993	118.44
196.212	-10.58
196.432	-4.44
196.651	-26.96
196.87	-59.73
197.089	255.65
197.308	118.44
197.528	65.19
197.747	-18.77
197.966	79.53
198.185	85.67
198.404	-0.34
198.623	175.78
198.842	132.78
199.062	128.68
199.281	110.25
199.5	52.91
199.719	44.71
199.938	32.43
200.157	91.82
200.376	130.73
200.595	132.78
200.814	63.15
201.033	-24.92
201.252	171.69
201.471	71.34
201.69	100.01
201.909	104.11
202.128	120.49
202.347	140.97
202.566	11.95
202.785	-59.73
203.004	34.47
203.223	231.08
203.442	3.75
203.661	-14.68
203.879	83.63
204.098	128.68
204.317	-24.92
204.536	87.72
204.755	42.67
204.974	89.77
205.193	16.04
205.411	188.07
205.63	181.93
205.849	-6.49
206.068	9.9
206.287	-14.68
206.505	69.29
206.724	-4.44
206.943	-24.92
207.162	7.85
207.381	81.58
207.599	9.9
207.818	13.99
208.037	44.71
208.255	22.19
208.474	83.63
208.693	120.49
208.911	79.53
209.13	102.06
209.349	136.87
209.567	73.39
209.786	79.53
210.005	145.06
210.223	48.81
210.442	-72.02
210.661	3.75
210.879	-14.68
211.098	24.23
211.316	73.39
211.535	128.68
211.753	97.96
211.972	50.86
212.191	-26.96
212.409	11.95
212.628	140.97
212.846	38.57
213.065	46.76
213.283	100.01
213.502	52.91
213.72	67.24
213.938	-4.44
214.157	67.24
214.375	85.67
214.594	28.33
214.812	134.82
215.031	-14.68
215.249	89.77
215.467	34.47
215.686	7.85
215.904	63.15
216.122	36.52
216.341	155.3
216.559	13.99
216.778	100.01
216.996	140.97
217.214	1.71
217.432	42.67
217.651	-8.53
217.869	16.04
218.087	79.53
218.306	32.43
218.524	91.82
218.742	95.91
218.96	91.82
219.179	-8.53
219.397	-8.53
219.615	284.33
219.833	26.28
220.051	18.09
220.27	75.43
220.488	147.11
220.706	67.24
220.924	-53.59
221.142	22.19
221.36	54.95
221.578	95.91
221.796	69.29
222.015	-41.3
222.233	44.71
222.451	175.78
222.669	-14.68
222.887	5.8
223.105	-47.44
223.323	106.15
223.541	-10.58
223.759	73.39
223.977	97.96
224.195	165.54
224.413	36.52
224.631	40.62
224.849	71.34
225.067	145.06
225.285	9.9
225.503	7.85
225.721	-110.93
225.939	61.1
226.157	11.95
226.375	177.83
226.592	97.96
226.81	34.47
227.028	165.54
227.246	93.87
227.464	75.43
227.682	126.63
227.9	120.49
228.117	97.96
228.335	136.87
228.553	36.52
228.771	-2.39
228.989	44.71
229.206	77.48
229.424	65.19
229.642	42.67
229.86	7.85
230.077	106.15
230.295	67.24
230.513	95.91
230.731	79.53
230.948	198.31
231.166	128.68
231.384	-39.25
231.601	-61.78
231.819	143.02
232.037	-8.53
232.254	-72.02
232.472	57
232.689	38.57
232.907	95.91
233.125	-14.68
233.342	89.77
233.56	-14.68
233.777	48.81
233.995	9.9
234.213	143.02
234.43	159.4
234.648	77.48
234.865	40.62
235.083	73.39
235.3	97.96
235.518	81.58
235.735	77.48
235.953	136.87
236.17	-29.01
236.388	18.09
236.605	36.52
236.822	87.72
237.04	116.39
237.257	44.71
237.475	-90.45
237.692	3.75
237.909	112.3
238.127	3.75
238.344	67.24
238.562	97.96
238.779	-24.92
238.996	-12.63
239.214	5.8
239.431	52.91
239.648	11.95
239.865	110.25
240.083	147.11
240.3	75.43
240.517	-31.06
240.735	-0.34
240.952	165.54
241.169	54.95
241.386	151.21
241.603	-0.34
241.821	9.9
242.038	100.01
242.255	54.95
242.472	-18.77
242.689	140.97
242.907	69.29
243.124	112.3
243.341	54.95
243.558	1.71
243.775	-14.68
243.992	-57.68
244.209	116.39
244.426	136.87
244.643	116.39
244.86	77.48
245.078	95.91
245.295	59.05
245.512	54.95
245.729	-51.54
245.946	122.54
246.163	126.63
246.38	-4.44
246.597	7.85
246.814	11.95
247.031	75.43
247.248	40.62
247.464	81.58
247.681	-2.39
247.898	36.52
248.115	63.15
248.332	75.43
248.549	214.7
248.766	165.54
248.983	124.58
249.2	116.39
249.417	104.11
249.633	-2.39
249.85	38.57
250.067	18.09
250.284	89.77
250.501	95.91
250.717	100.01
250.934	-76.12
251.151	42.67
251.368	61.1
251.585	87.72
251.801	5.8
252.018	-4.44
252.235	85.67
252.451	-72.02
252.668	48.81
252.885	95.91
253.102	77.48
253.318	20.14
253.535	57
253.752	20.14
253.968	-2.39
254.185	-72.02
254.401	34.47
254.618	42.67
254.835	40.62
255.051	120.49
255.268	61.1
255.484	46.76
255.701	30.38
255.917	67.24
256.134	24.23
256.351	38.57
256.567	-57.68
256.784	48.81
257	-63.83
257.217	81.58
257.433	20.14
257.65	73.39
257.866	167.59
258.082	-110.93
258.299	11.95
258.515	18.09
258.732	28.33
258.948	-45.4
259.165	1.71
259.381	-12.63
259.597	188.07
259.814	9.9
260.03	63.15
260.246	44.71
260.463	245.41
260.679	132.78
260.895	11.95
261.112	50.86
261.328	5.8
261.544	46.76
261.761	190.12
261.977	108.2
262.193	-35.16
262.409	120.49
262.626	83.63
262.842	75.43
263.058	-4.44
263.274	89.77
263.49	130.73
263.707	134.82
263.923	7.85
264.139	-39.25
264.355	140.97
264.571	155.3
264.787	104.11
265.004	149.16
265.22	71.34
265.436	-65.88
265.652	16.04
265.868	46.76
266.084	-55.64
266.3	18.09
266.516	-31.06
266.732	57
266.948	100.01
267.164	16.04
267.38	67.24
267.596	79.53
267.812	196.26
268.028	87.72
268.244	38.57
268.46	54.95
268.676	9.9
268.892	118.44
269.108	-72.02
269.324	-10.58
269.54	-76.12
269.756	130.73
269.972	34.47
270.188	75.43
270.403	-37.2
270.619	71.34
270.835	79.53
271.051	81.58
271.267	-74.07
271.483	34.47
271.698	116.39
271.914	83.63
272.13	71.34
272.346	30.38
272.562	106.15
272.777	106.15
272.993	-0.34
273.209	81.58
273.425	79.53
273.64	-33.11
273.856	20.14
274.072	32.43
274.287	-47.44
274.503	48.81
274.719	75.43
274.934	13.99
275.15	-69.97
275.366	50.86
275.581	3.75
275.797	28.33
276.012	38.57
276.228	18.09
276.444	-12.63
276.659	114.34
276.875	-47.44
277.09	-2.39
277.306	46.76
277.521	140.97
277.737	28.33
277.952	110.25
278.168	-22.87
278.383	59.05
278.599	85.67
278.814	155.3
279.03	13.99
279.245	128.68
279.461	48.81
279.676	118.44
279.892	-33.11
280.107	-53.59
280.322	7.85
280.538	89.77
280.753	85.67
280.969	89.77
281.184	46.76
281.399	194.22
281.615	-2.39
281.83	40.62
282.045	-41.3
282.26	38.57
282.476	-31.06
282.691	110.25
282.906	42.67
283.122	57
283.337	48.81
283.552	196.26
283.767	-2.39
283.983	87.72
284.198	16.04
284.413	16.04
284.628	-57.68
284.843	79.53
285.058	134.82
285.274	-57.68
285.489	-2.39
285.704	128.68
285.919	30.38
286.134	-2.39
286.349	11.95
286.564	1.71
286.779	186.02
286.995	75.43
287.21	-121.17
287.425	87.72
287.64	20.14
287.855	30.38
288.07	-96.6
288.285	149.16
288.5	179.88
288.715	57
288.93	110.25
289.145	-33.11
289.36	65.19
289.575	65.19
289.79	128.68
290.004	-2.39
290.219	91.82
290.434	-14.68
290.649	59.05
290.864	30.38
291.079	9.9
291.294	122.54
291.509	93.87
291.724	5.8
291.938	-8.53
292.153	-14.68
292.368	59.05
292.583	93.87
292.798	204.46
293.012	106.15
293.227	140.97
293.442	-37.2
293.657	83.63
293.871	100.01
294.086	-29.01
294.301	200.36
294.516	65.19
294.73	36.52
294.945	-86.36
295.16	52.91
295.374	124.58
295.589	147.11
295.804	-49.49
296.018	124.58
296.233	95.91
296.447	73.39
296.662	-53.59
296.877	85.67
297.091	102.06
297.306	73.39
297.52	48.81
297.735	48.81
297.949	153.26
298.164	48.81
298.378	73.39
298.593	-29.01
298.807	-10.58
299.022	3.75
299.236	196.26
299.451	-6.49
299.665	-24.92
299.88	-35.16
300.094	110.25
300.309	-14.68
300.523	42.67
300.737	-47.44
300.952	81.58
301.166	77.48
301.381	-14.68
301.595	-0.34
301.809	1.71
302.024	65.19
302.238	-20.82
302.452	81.58
302.667	73.39
302.881	67.24
303.095	87.72
303.309	77.48
303.524	-26.96
303.738	50.86
303.952	-35.16
304.166	42.67
304.381	-37.2
304.595	167.59
304.809	22.19
305.023	114.34
305.237	26.28
305.452	32.43
305.666	134.82
305.88	85.67
306.094	46.76
306.308	71.34
306.522	93.87
306.736	18.09
306.95	89.77
307.164	-96.6
307.379	-4.44
307.593	167.59
307.807	73.39
308.021	171.69
308.235	77.48
308.449	-61.78
308.663	59.05
308.877	243.37
309.091	40.62
309.305	143.02
309.519	-129.36
309.733	77.48
309.947	44.71
310.161	85.67
310.374	110.25
310.588	204.46
310.802	22.19
311.016	-39.25
311.23	81.58
311.444	46.76
311.658	69.29
311.872	126.63
312.085	153.26
312.299	124.58
312.513	143.02
312.727	140.97
312.941	7.85
313.154	87.72
313.368	59.05
313.582	-24.92
313.796	20.14
314.009	61.1
314.223	83.63
314.437	50.86
314.651	69.29
314.864	-20.82
315.078	-18.77
315.292	-26.96
315.505	36.52
315.719	63.15
315.933	30.38
316.146	1.71
316.36	-63.83
316.573	200.36
316.787	91.82
317.001	114.34
317.214	-6.49
317.428	9.9
317.641	-96.6
317.855	44.71
318.068	32.43
318.282	18.09
318.495	181.93
318.709	89.77
318.922	93.87
319.136	167.59
319.349	120.49
319.563	48.81
319.776	102.06
319.99	-10.58
320.203	69.29
320.417	75.43
320.63	126.63
320.843	165.54
321.057	46.76
321.27	18.09
321.483	93.87
321.697	179.88
321.91	22.19
322.124	20.14
322.337	40.62
322.55	-0.34
322.763	9.9
322.977	40.62
323.19	18.09
323.403	34.47
323.617	83.63
323.83	89.77
324.043	3.75
324.256	153.26
324.469	-2.39
324.683	194.22
324.896	40.62
325.109	9.9
325.322	-115.03
325.535	118.44
325.748	97.96
325.962	13.99
326.175	120.49
326.388	52.91
326.601	100.01
326.814	26.28
327.027	-22.87
327.24	147.11
327.453	-43.35
327.666	130.73
327.879	149.16
328.092	85.67
328.305	44.71
328.518	18.09
328.731	-0.34
328.944	48.81
329.157	83.63
329.37	11.95
329.583	177.83
329.796	108.2
330.009	-33.11
330.222	108.2
330.435	116.39
330.648	16.04
330.861	116.39
331.073	54.95
331.286	22.19
331.499	138.92
331.712	-10.58
331.925	73.39
332.138	77.48
332.35	128.68
332.563	-14.68
332.776	132.78
332.989	-51.54
333.202	106.15
333.414	38.57
333.627	69.29
333.84	50.86
334.053	-2.39
334.265	-16.73
334.478	13.99
334.691	-16.73
334.903	83.63
335.116	-4.44
335.329	81.58
335.541	83.63
335.754	233.13
335.966	-14.68
336.179	46.76
336.392	63.15
336.604	5.8
336.817	151.21
337.029	-0.34
337.242	34.47
337.454	38.57
337.667	24.23
337.88	220.84
338.092	124.58
338.305	71.34
338.517	16.04
338.729	83.63
338.942	194.22
339.154	9.9
339.367	26.28
339.579	85.67
339.792	-18.77
340.004	71.34
340.217	57
340.429	42.67
340.641	-39.25
340.854	3.75
341.066	24.23
341.278	59.05
341.491	251.56
341.703	118.44
341.915	-0.34
342.128	71.34
342.34	89.77
342.552	7.85
342.764	79.53
342.977	28.33
343.189	120.49
343.401	-4.44
343.613	-41.3
343.826	-10.58
344.038	-18.77
344.25	91.82
344.462	75.43
344.674	65.19
344.886	-12.63
345.099	85.67
345.311	73.39
345.523	16.04
345.735	-45.4
345.947	59.05
346.159	-4.44
346.371	44.71
346.583	-2.39
346.795	173.74
347.007	13.99
347.219	128.68
347.431	102.06
347.643	79.53
347.855	-20.82
348.067	167.59
348.279	-61.78
348.491	106.15
348.703	167.59
348.915	73.39
349.127	110.25
349.339	-8.53
349.551	48.81
349.763	93.87
349.975	-22.87
350.187	177.83
350.399	106.15
350.61	149.16
350.822	-4.44
351.034	100.01
351.246	85.67
351.458	79.53
351.669	95.91
351.881	91.82
352.093	138.92
352.305	194.22
352.517	50.86
352.728	73.39
352.94	112.3
353.152	-6.49
353.363	-18.77
353.575	87.72
353.787	140.97
353.999	57
354.21	190.12
354.422	-51.54
354.633	100.01
354.845	18.09
355.057	18.09
355.268	18.09
355.48	122.54
355.692	-18.77
355.903	36.52
356.115	9.9
356.326	-35.16
356.538	118.44
356.749	40.62
356.961	175.78
357.172	67.24
357.384	-18.77
357.595	231.08
357.807	81.58
358.018	24.23
358.23	16.04
358.441	177.83
358.653	42.67
358.864	-4.44
359.075	-20.82
359.287	65.19
359.498	145.06
359.709	97.96
359.921	18.09
360.132	89.77
360.344	40.62
360.555	-72.02
360.766	100.01
360.977	-41.3
361.189	136.87
361.4	69.29
361.611	102.06
361.823	97.96
362.034	38.57
362.245	-53.59
362.456	26.28
362.667	97.96
362.879	30.38
363.09	81.58
363.301	57
363.512	42.67
363.723	-18.77
363.935	22.19
364.146	85.67
364.357	95.91
364.568	-55.64
364.779	-55.64
364.99	183.98
365.201	-86.36
365.412	124.58
365.623	-86.36
365.834	26.28
366.045	67.24
366.256	169.64
366.467	65.19
366.678	3.75
366.889	132.78
367.1	16.04
367.311	151.21
367.522	-8.53
367.733	126.63
367.944	52.91
368.155	50.86
368.366	155.3
368.577	216.74
368.788	116.39
368.999	-72.02
369.209	50.86
369.42	276.13
369.631	175.78
369.842	104.11
370.053	11.95
370.264	134.82
370.474	-16.73
370.685	128.68
370.896	67.24
371.107	192.17
371.317	83.63
371.528	61.1
371.739	128.68
371.95	110.25
372.16	124.58
372.371	-57.68
372.582	1.71
372.792	5.8
373.003	46.76
373.214	30.38
373.424	91.82
373.635	3.75
373.846	210.6
374.056	48.81
374.267	18.09
374.477	143.02
374.688	-8.53
374.898	87.72
375.109	-6.49
375.319	120.49
375.53	67.24
375.74	116.39
375.951	46.76
376.161	61.1
376.372	124.58
376.582	11.95
376.793	67.24
377.003	-63.83
377.214	-61.78
377.424	54.95
377.635	24.23
377.845	1.71
378.055	138.92
378.266	-22.87
378.476	20.14
378.686	26.28
378.897	46.76
379.107	169.64
379.317	138.92
379.528	38.57
379.738	112.3
379.948	-18.77
380.158	100.01
380.369	69.29
380.579	69.29
380.789	-102.74
380.999	106.15
381.21	54.95
381.42	259.75
381.63	36.52
381.84	120.49
382.05	79.53
382.261	171.69
382.471	106.15
382.681	50.86
382.891	165.54
383.101	132.78
383.311	1.71
383.521	-37.2
383.731	108.2
383.941	167.59
384.151	65.19
384.361	9.9
384.571	61.1
384.781	89.77
384.991	161.45
385.201	249.51
385.411	100.01
385.621	54.95
385.831	89.77
386.041	46.76
386.251	9.9
386.461	69.29
386.671	22.19
386.881	87.72
387.091	20.14
387.301	1.71
387.511	13.99
387.72	61.1
387.93	132.78
388.14	-47.44
388.35	106.15
388.56	120.49
388.769	83.63
388.979	114.34
389.189	-10.58
389.399	97.96
389.609	69.29
389.818	157.35
390.028	20.14
390.238	71.34
390.447	26.28
390.657	91.82
390.867	36.52
391.076	-63.83
391.286	-6.49
391.496	85.67
391.705	89.77
391.915	130.73
392.125	91.82
392.334	-20.82
392.544	198.31
392.753	30.38
392.963	-20.82
393.172	20.14
393.382	-47.44
393.591	163.5
393.801	77.48
394.01	192.17
394.22	81.58
394.429	26.28
394.639	9.9
394.848	48.81
395.058	69.29
395.267	3.75
395.477	61.1
395.686	32.43
395.895	175.78
396.105	149.16
396.314	116.39
396.524	75.43
396.733	67.24
396.942	118.44
397.152	132.78
397.361	165.54
397.57	18.09
397.78	67.24
397.989	83.63
398.198	247.46
398.407	54.95
398.617	1.71
398.826	89.77
399.035	79.53
399.244	157.35
399.453	140.97
399.663	138.92
399.872	71.34
400.081	-39.25
400.29	263.85
400.499	77.48
400.708	54.95
400.917	50.86
401.127	18.09
401.336	3.75
401.545	93.87
401.754	100.01
401.963	153.26
402.172	67.24
402.381	-29.01
402.59	126.63
402.799	13.99
403.008	57
403.217	110.25
403.426	112.3
403.635	-6.49
403.844	116.39
404.053	54.95
404.262	-6.49
404.471	202.41
404.68	91.82
404.888	-8.53
405.097	85.67
405.306	81.58
405.515	124.58
405.724	126.63
405.933	112.3
406.142	67.24
406.35	126.63
406.559	-31.06
406.768	89.77
406.977	216.74
407.185	77.48
407.394	108.2
407.603	-12.63
407.812	100.01
408.02	173.74
408.229	54.95
408.438	59.05
408.646	5.8
408.855	13.99
409.064	167.59
409.272	5.8
409.481	52.91
409.69	-4.44
409.898	7.85
410.107	61.1
410.315	145.06
410.524	-6.49
410.733	77.48
410.941	5.8
411.15	126.63
411.358	116.39
411.567	159.4
411.775	114.34
411.984	75.43
412.192	118.44
412.401	52.91
412.609	200.36
412.818	165.54
413.026	130.73
413.234	-18.77
413.443	100.01
413.651	34.47
413.86	-22.87
414.068	171.69
414.276	167.59
414.485	-65.88
414.693	179.88
414.901	149.16
415.11	79.53
415.318	79.53
415.526	50.86
415.734	89.77
415.943	130.73
416.151	65.19
416.359	50.86
416.567	9.9
416.776	143.02
416.984	79.53
417.192	194.22
417.4	-20.82
417.608	22.19
417.817	-26.96
418.025	57
418.233	169.64
418.441	-37.2
418.649	-37.2
418.857	-33.11
419.065	155.3
419.273	-43.35
419.481	34.47
419.689	24.23
419.897	16.04
420.105	-31.06
420.313	116.39
420.521	155.3
420.729	204.46
420.937	59.05
421.145	18.09
421.353	134.82
421.561	214.7
421.769	124.58
421.977	34.47
422.185	138.92
422.393	40.62
422.601	128.68
422.809	13.99
423.017	87.72
423.224	75.43
423.432	143.02
423.64	114.34
423.848	104.11
424.056	-2.39
424.263	140.97
424.471	-12.63
424.679	128.68
424.887	-4.44
425.094	122.54
425.302	77.48
425.51	-0.34
425.718	85.67
425.925	65.19
426.133	59.05
426.341	179.88
426.548	50.86
426.756	40.62
426.964	190.12
427.171	69.29
427.379	143.02
427.586	102.06
427.794	102.06
428.001	163.5
428.209	108.2
428.417	149.16
428.624	65.19
428.832	46.76
429.039	73.39
429.247	102.06
429.454	95.91
429.662	218.79
429.869	155.3
430.076	159.4
430.284	110.25
430.491	198.31
430.699	153.26
430.906	204.46
431.114	138.92
431.321	153.26
431.528	104.11
431.736	167.59
431.943	155.3
432.15	206.5
432.358	214.7
432.565	286.37
432.772	118.44
432.979	272.04
433.187	222.89
433.394	249.51
433.601	173.74
433.808	247.46
434.016	194.22
434.223	237.22
434.43	192.17
434.637	210.6
434.844	284.33
435.052	163.5
435.259	249.51
435.466	259.75
435.673	276.13
435.88	374.44
436.087	315.05
436.294	358.05
436.501	343.72
436.708	237.22
436.915	351.91
437.122	399.01
437.329	212.65
437.537	329.38
437.743	339.62
437.95	446.12
438.157	343.72
438.364	321.19
438.571	493.22
438.778	431.78
438.985	501.41
439.192	507.55
439.399	384.68
439.606	568.99
439.813	525.99
440.02	618.15
440.227	671.39
440.433	618.15
440.64	521.89
440.847	534.18
441.054	677.54
441.261	736.93
441.467	671.39
441.674	612
441.881	794.27
442.088	687.78
442.294	743.07
442.501	755.36
442.708	702.11
442.914	800.41
443.121	882.33
443.328	931.48
443.534	1074.84
443.741	939.68
443.948	857.76
444.154	1083.03
444.361	1080.99
444.568	1099.42
444.774	960.16
444.981	1013.4
445.187	1261.21
445.394	1218.2
445.6	1230.49
445.807	1406.61
446.013	1230.49
446.22	1322.65
446.426	1470.1
446.633	1584.79
446.839	1715.86
447.046	1631.89
447.252	1672.85
447.459	1697.42
447.665	1779.34
447.871	1939.09
448.078	1904.27
448.284	1996.43
448.491	2047.63
448.697	2057.87
448.903	2184.84
449.11	2297.48
449.316	2231.94
449.522	2481.8
449.728	2582.15
449.935	2645.63
450.141	2709.12
450.347	2737.79
450.553	2854.53
450.76	2872.96
450.966	3112.57
451.172	3069.56
451.378	3264.12
451.584	3348.09
451.791	3591.8
451.997	3733.11
452.203	3636.85
452.409	3858.03
452.615	4071.02
452.821	3845.74
453.027	4083.31
453.233	4585.06
453.44	4425.32
453.646	4621.92
453.852	4828.77
454.058	5023.33
454.264	5035.61
454.47	5545.56
454.676	5566.04
454.882	6198.86
455.088	5860.95
455.294	6102.61
455.5	6444.62
455.705	6932.03
455.911	6831.68
456.117	7044.67
456.323	7323.19
456.529	7439.93
456.735	8011.31
456.941	8220.21
457.147	8517.16
457.352	8541.74
457.558	8969.76
457.764	9598.49
457.97	10130.96
458.176	10317.33
458.381	10595.85
458.587	11169.28
458.793	11769.34
458.999	11499
459.204	12826.09
459.41	13266.4
459.616	13147.62
459.821	13864.41
460.027	14712.27
460.233	15293.89
460.438	15418.82
460.644	16108.98
460.85	16244.15
461.055	16768.43
461.261	17788.32
461.466	17511.84
461.672	17739.16
461.878	19813.76
462.083	19766.65
462.289	19934.59
462.494	21003.63
462.7	21024.11
462.905	21566.82
463.111	23174.47
463.316	24452.41
463.522	24659.25
463.727	25601.32
463.932	26293.53
464.138	27501.83
464.343	28495.1
464.549	28794.1
464.754	31145.17
464.959	31603.91
465.165	32171.2
465.37	31638.73
465.575	31532.23
465.781	34102.43
465.986	35091.6
466.191	34360.48
466.397	34550.94
466.602	34067.62
466.807	35851.4
467.012	36387.97
467.218	37135.48
467.423	37252.21
467.628	38308.96
467.833	39742.54
468.038	39126.1
468.244	38550.62
468.449	40752.19
468.654	39822.41
468.859	39906.38
469.064	40340.55
469.269	38886.49
469.474	39027.8
469.679	40076.36
469.885	39369.81
470.09	40035.4
470.295	40115.27
470.5	38835.29
470.705	38945.88
470.91	37960.81
471.115	37913.7
471.32	38288.48
471.525	38321.25
471.73	36547.71
471.935	36748.41
472.139	35247.25
472.344	35654.79
472.549	35417.23
472.754	34466.97
472.959	33774.76
473.164	32777.4
473.369	32326.85
473.574	33154.22
473.778	32488.63
473.983	32048.32
474.188	31501.51
474.393	29816.04
474.598	29787.36
474.802	29129.97
475.007	28681.46
475.212	28521.72
475.417	27391.24
475.621	27202.83
475.826	26776.85
476.031	25980.19
476.235	25638.18
476.44	25931.04
476.645	25015.6
476.849	24692.02
477.054	24294.71
477.259	23772.48
477.463	24055.1
477.668	23256.39
477.872	23201.1
478.077	22539.6
478.282	21740.89
478.486	21755.23
478.691	21351.78
478.895	21243.24
479.1	21325.16
479.304	21011.82
479.509	20215.16
479.713	20460.91
479.918	20082.04
480.122	19223.94
480.326	19561.86
480.531	19752.32
480.735	19682.69
480.94	19056.01
481.144	19654.01
481.348	18670.99
481.553	19039.62
481.757	18361.75
481.961	18509.2
482.166	18773.39
482.37	18472.34
482.574	17833.37
482.778	17948.06
482.983	18335.12
483.187	17700.25
483.391	17620.38
483.595	17450.4
483.8	17264.04
484.004	17304.99
484.208	17470.88
484.412	16862.63
484.616	16729.52
484.821	16575.92
485.025	16174.52
485.229	16182.71
485.433	15766.97
485.637	15771.07
485.841	15470.01
486.045	15125.96
486.249	15097.28
486.453	14949.83
486.657	14599.63
486.861	14548.43
487.065	14077.4
487.269	14075.35
487.473	13708.76
487.677	13845.98
487.881	13841.88
488.085	13098.47
488.289	13164
488.493	12781.03
488.697	12692.97
488.901	12414.45
489.105	12199.41
489.309	11906.55
489.512	11859.45
489.716	11402.75
489.92	11187.71
490.124	10927.62
490.328	10919.43
490.531	10524.17
490.735	10710.54
490.939	10341.9
491.143	10110.48
491.346	10028.56
491.55	9838.1
491.754	9674.26
491.958	9651.74
492.161	9512.47
492.365	9149.98
492.569	8879.65
492.772	8887.84
492.976	8959.52
493.18	8674.85
493.383	8756.77
493.587	8584.74
493.79	8345.13
493.994	8193.58
494.197	7974.45
494.401	8257.07
494.605	7927.35
494.808	7984.69
495.012	7927.35
495.215	7960.11
495.419	7931.44
495.622	7538.23
495.825	7556.66
496.029	7536.18
496.232	7902.77
496.436	7542.33
496.639	7736.88
496.843	7571
497.046	7603.77
497.249	7638.58
497.453	7454.26
497.656	7499.32
497.859	7329.34
498.063	7435.83
498.266	7509.56
498.469	7622.2
498.673	7446.07
498.876	7491.13
499.079	7620.15
499.282	7585.33
499.485	7894.58
499.689	7695.93
499.892	7800.37
500.095	7867.95
500.298	7988.78
500.501	7740.98
500.705	8003.12
500.908	8179.25
501.111	8252.97
501.314	8361.52
501.517	8328.75
501.72	8277.55
501.923	8273.45
502.126	8371.75
502.329	8674.85
502.532	8814.12
502.735	8629.8
502.938	8803.88
503.141	8707.62
503.344	9041.44
503.547	9272.86
503.75	9205.28
503.953	9369.12
504.156	9416.22
504.359	9403.93
504.562	9612.82
504.765	9866.77
504.968	9975.31
505.17	10135.06
505.373	10262.03
505.576	10636.81
505.779	10667.53
505.982	10685.96
506.185	11087.36
506.387	11109.89
506.59	11271.68
506.793	11490.81
506.996	11763.19
507.198	11965.94
507.401	12113.39
507.604	12168.69
507.807	12721.64
508.009	12713.45
508.212	13067.75
508.415	13383.13
508.617	13495.77
508.82	13919.7
509.022	13811.16
509.225	14413.26
509.428	14804.42
509.63	14937.54
509.833	15138.24
510.035	15693.24
510.238	15838.65
510.44	16326.07
510.643	16663.98
510.845	16993.7
511.048	17280.42
511.25	17462.69
511.453	17857.95
511.655	18769.29
511.858	19004.81
512.06	19402.11
512.262	19830.14
512.465	19912.06
512.667	20643.18
512.87	21146.98
513.072	21607.78
513.274	22273.37
513.477	22607.19
513.679	23186.76
513.881	23323.97
514.084	24276.28
514.286	24528.18
514.488	25220.39
514.69	25820.45
514.893	26275.1
515.095	26703.12
515.297	27657.48
515.499	27780.35
515.701	28312.83
515.904	29404.39
516.106	29621.48
516.308	30174.43
516.51	30653.65
516.712	31110.35
516.914	31939.78
517.116	32679.1
517.318	33098.93
517.52	33832.1
517.722	34210.98
517.925	34987.16
518.127	35912.84
518.329	36492.41
518.531	36271.23
518.733	37401.71
518.935	37928.04
519.136	38354.02
519.338	39234.64
519.54	39853.13
519.742	40582.21
519.944	41071.67
520.146	41890.86
520.348	42224.68
520.55	42544.16
520.752	42884.12
520.954	44483.59
521.155	43887.63
521.357	44993.53
521.559	45188.09
521.761	46177.26
521.963	46009.32
522.164	46472.17
522.366	47053.79
522.568	47373.27
522.77	47913.94
522.971	48268.23
523.173	48088.01
523.375	48704.45
523.576	48788.42
523.778	49134.52
523.98	49384.38
524.181	49904.56
524.383	49783.73
524.584	50258.86
524.786	49941.42
524.988	49888.18
525.189	50371.5
525.391	50197.42
525.592	51039.14
525.794	50639.78
525.995	50559.91
526.197	50310.06
526.398	50514.86
526.6	50383.79
526.801	50342.83
527.003	49818.55
527.204	50178.99
527.406	50279.34
527.607	49773.49
527.808	49892.27
528.01	48757.7
528.211	48874.43
528.412	49566.65
528.614	48339.91
528.815	48239.56
529.016	48399.3
529.218	47172.57
529.419	47152.09
529.62	46918.62
529.822	46337
530.023	45757.42
530.224	45501.43
530.425	45415.41
530.626	44176.39
530.828	43494.42
531.029	44112.91
531.23	43361.3
531.431	42245.16
531.632	42458.15
531.833	42015.79
532.035	41417.78
532.236	40830.01
532.437	40643.65
532.638	39660.62
532.839	39447.63
533.04	39148.63
533.241	38614.11
533.442	38435.94
533.643	37874.79
533.844	37168.24
534.045	36676.73
534.246	36086.92
534.447	35869.83
534.648	35007.64
534.849	34878.61
535.05	33944.74
535.251	33694.89
535.451	33074.35
535.652	33166.51
535.853	32476.35
536.054	32134.34
536.255	31565
536.456	31120.59
536.657	31198.41
536.857	30336.22
537.058	29885.67
537.259	30010.59
537.46	29531.37
537.66	28660.98
537.861	28710.13
538.062	28220.67
538.263	27596.04
538.463	27714.82
538.664	27092.24
538.865	26733.84
539.065	26787.09
539.266	25892.13
539.466	25705.76
539.667	25431.33
539.868	25570.6
540.068	24839.47
540.269	24718.64
540.469	24063.29
540.67	24153.4
540.87	23694.66
541.071	23246.15
541.271	23332.17
541.472	22918.48
541.672	22973.77
541.873	22277.46
542.073	22054.23
542.274	22087
542.474	21759.33
542.675	21343.59
542.875	21226.85
543.075	20815.21
543.276	20528.5
543.476	20514.16
543.676	20069.75
543.877	20032.89
544.077	19944.83
544.277	19674.49
544.478	19297.67
544.678	19176.84
544.878	18883.98
545.078	18853.26
545.279	18326.93
545.479	18247.06
545.679	18193.81
545.879	17853.85
546.079	17538.46
546.28	17503.65
546.48	17118.63
546.68	17206.69
546.88	17044.9
547.08	17044.9
547.28	16379.31
547.48	15971.77
547.68	16244.15
547.88	15934.9
548.081	15838.65
548.281	15437.25
548.481	15248.83
548.681	15115.72
548.881	15035.85
549.081	14808.52
549.28	14380.5
549.48	14267.86
549.68	14155.22
549.88	14116.31
550.08	13657.56
550.28	13700.57
550.48	13577.69
550.68	13567.45
550.88	13014.5
551.08	12676.59
551.279	12754.41
551.479	12353.01
551.679	12514.8
551.879	11881.97
552.079	12187.12
552.278	12054
552.478	11763.19
552.678	11302.4
552.878	11576.83
553.077	11286.01
553.277	10798.6
553.477	10696.2
553.676	10769.93
553.876	10288.65
554.076	10259.98
554.275	10204.69
554.475	9934.36
554.674	9842.2
554.874	9670.17
555.074	9442.84
555.273	9491.99
555.473	9170.46
555.672	9186.85
555.872	8756.77
556.071	8850.98
556.271	8685.09
556.47	8666.66
556.67	8343.08
556.869	8435.24
557.068	8062.51
557.268	8017.46
557.467	7775.8
557.667	7740.98
557.866	7667.25
558.065	7398.97
558.265	7312.96
558.464	7220.8
558.663	7001.66
558.863	7028.29
559.062	7241.28
559.261	6794.82
559.461	6702.66
559.66	6565.45
559.859	6524.49
560.058	6428.23
560.258	6264.4
560.457	6071.89
560.656	6186.57
560.855	5920.34
561.054	6012.49
561.253	5873.23
561.453	5697.11
561.652	5672.53
561.851	5578.33
562.05	5383.77
562.249	5256.79
562.448	5326.43
562.647	5162.59
562.846	5142.11
563.045	5088.86
563.244	4978.27
563.443	5197.4
563.642	4859.49
563.841	4970.08
564.04	4728.42
564.239	4642.4
564.438	4605.54
564.637	4470.37
564.836	4531.81
565.035	4312.68
565.234	4277.87
565.432	4210.28
565.631	4208.23
565.83	4222.57
566.029	4109.93
566.228	4011.63
566.427	4183.66
566.625	3821.17
566.824	3802.74
567.023	3903.09
567.222	3722.87
567.42	3675.76
567.619	3722.87
567.818	3663.47
568.016	3597.94
568.215	3360.38
568.414	3501.69
568.612	3323.51
568.811	3407.48
569.01	3358.33
569.208	3221.11
569.407	3298.94
569.605	3188.35
569.804	3102.33
570.002	3102.33
570.201	2920.06
570.4	3114.62
570.598	2918.01
570.797	2889.34
570.995	2852.48
571.193	2928.25
571.392	2850.43
571.59	2680.45
571.789	2614.91
571.987	2705.03
572.186	2678.4
572.384	2543.24
572.582	2508.42
572.781	2610.82
572.979	2340.49
573.177	2377.35
573.376	2397.83
573.574	2496.13
573.772	2354.82
573.971	2238.09
574.169	2186.89
574.367	2285.19
574.565	2256.52
574.763	2176.65
574.962	2164.36
575.16	1998.48
575.358	2094.73
575.556	1992.33
575.754	2016.91
575.952	2076.3
576.151	1918.61
576.349	1920.65
576.547	1781.39
576.745	1955.47
576.943	1830.54
577.141	1781.39
577.339	1609.36
577.537	1736.34
577.735	1703.57
577.933	1785.49
578.131	1584.79
578.329	1754.77
578.527	1629.84
578.725	1599.12
578.923	1455.76
579.121	1617.55
579.319	1386.13
579.516	1531.54
579.714	1666.71
579.912	1418.9
580.11	1365.65
580.308	1390.23
580.506	1304.21
580.704	1193.62
580.901	1244.82
581.099	1449.62
581.297	1283.74
581.495	1269.4
581.692	1210.01
581.89	1336.98
582.088	1242.78
582.285	1255.06
582.483	1238.68
582.681	1164.95
582.878	1152.67
583.076	1185.43
583.274	1025.69
583.471	1230.49
583.669	1064.6
583.866	894.62
584.064	941.72
584.262	978.59
584.459	1066.65
584.657	997.02
584.854	1019.55
585.052	958.11
585.249	1011.36
585.447	915.1
585.644	829.09
585.841	1007.26
586.039	974.49
586.236	1050.27
586.434	788.13
586.631	857.76
586.828	812.7
587.026	863.9
587.223	767.65
587.42	732.83
587.618	822.94
587.815	855.71
588.012	841.37
588.21	743.07
588.407	882.33
588.604	824.99
588.801	689.82
588.999	714.4
589.196	824.99
589.393	644.77
589.59	792.22
589.787	726.69
589.984	784.03
590.182	878.24
590.379	652.96
590.576	691.87
590.773	714.4
590.97	655.01
591.167	714.4
591.364	761.5
591.561	630.43
591.758	800.41
591.955	657.06
592.152	693.92
592.349	741.02
592.546	620.19
592.743	609.95
592.94	708.26
593.137	700.06
593.334	741.02
593.531	798.37
593.727	753.31
593.924	736.93
594.121	614.05
594.318	710.3
594.515	679.58
594.712	749.22
594.908	771.74
595.105	628.39
595.302	839.33
595.499	743.07
595.696	902.81
595.892	722.59
596.089	857.76
596.286	720.54
596.482	976.54
596.679	822.94
596.876	876.19
597.072	898.72
597.269	878.24
597.466	917.15
597.662	919.2
597.859	1029.79
598.055	1042.07
598.252	960.16
598.448	1177.24
598.645	1179.29
598.841	1130.14
599.038	1130.14
599.234	1279.64
599.431	1263.26
599.627	1334.93
599.824	1466
600.02	1386.13
600.217	1451.67
600.413	1455.76
600.609	1654.42
600.806	1793.68
601.002	1834.64
601.198	1662.61
601.395	1879.69
601.591	1853.07
601.787	1904.27
601.984	2082.44
602.18	2172.55
602.376	2162.31
602.572	2313.86
602.769	2475.65
602.965	2418.31
603.161	2512.52
603.357	2711.17
603.553	2895.49
603.75	2745.98
603.946	2897.53
604.142	2993.79
604.338	3257.98
604.534	3206.78
604.73	3397.24
604.926	3378.81
605.122	3618.42
605.318	3567.22
605.514	3724.91
605.71	3778.16
605.906	3923.57
606.102	4034.16
606.298	4290.15
606.494	4210.28
606.69	4413.03
606.886	4591.2
607.082	4609.64
607.278	4652.64
607.474	4752.99
607.67	4965.98
607.866	5084.77
608.062	5383.77
608.257	5541.46
608.453	5504.6
608.649	5731.92
608.845	5889.62
609.041	5817.94
609.236	6239.82
609.432	6334.03
609.628	6663.75
609.824	6680.13
610.019	6882.88
610.215	7171.65
610.411	7472.7
610.606	7710.26
610.802	7663.16
610.998	7882.29
611.193	8218.16
611.389	8144.43
611.584	8500.78
611.78	8646.18
611.976	8867.36
612.171	9381.4
612.367	9616.92
612.562	9727.51
612.758	9772.57
612.953	9932.31
613.149	10544.65
613.344	10323.47
613.539	10984.96
613.735	11173.38
613.93	11449.85
614.126	11705.85
614.321	12025.33
614.517	12615.15
614.712	12832.23
614.907	12959.2
615.103	13420
615.298	13501.92
615.493	14237.14
615.688	14431.69
615.884	14949.83
616.079	15076.8
616.274	15730.11
616.47	15807.93
616.665	16147.89
616.86	16803.24
617.055	17190.31
617.25	17313.19
617.445	17946.01
617.641	18161.05
617.836	18916.75
618.031	18869.64
618.226	19824
618.421	19991.93
618.616	20915.56
618.811	20850.03
619.006	21689.7
619.201	21708.13
619.396	22717.78
619.591	22760.78
619.786	23653.7
619.981	23717.18
620.176	24397.11
620.371	24646.96
620.566	25402.66
620.761	26164.51
620.956	26486.04
621.151	26785.04
621.346	27774.21
621.541	27596.04
621.735	28607.73
621.93	28652.79
622.125	29324.52
622.32	29740.26
622.515	30749.91
622.709	30811.35
622.904	31839.43
623.099	32150.72
623.294	32672.95
623.488	33176.75
623.683	33672.36
623.878	33643.69
624.072	35302.54
624.267	35634.31
624.462	35615.88
624.656	36144.26
624.851	36971.64
625.046	37477.49
625.24	37618.8
625.435	37940.33
625.629	39021.66
625.824	39189.59
626.018	39822.41
626.213	39459.92
626.407	40369.22
626.602	40780.86
626.796	41518.13
626.991	41477.17
627.185	42122.28
627.38	41972.78
627.574	42339.36
627.768	42771.49
627.963	42882.08
628.157	42556.45
628.352	43322.39
628.546	42566.69
628.74	43090.97
628.935	42464.29
629.129	43326.49
629.323	42171.43
629.517	42144.81
629.712	41952.3
629.906	41876.52
630.1	40911.93
630.294	40637.5
630.489	40107.08
630.683	40045.64
630.877	38796.38
631.071	38181.99
631.265	37944.42
631.459	36799.61
631.653	35937.41
631.848	35536.01
632.042	34524.32
632.236	33670.31
632.43	32859.32
632.624	32070.85
632.818	30876.88
633.012	30129.37
633.206	28564.73
633.4	28228.86
633.594	26965.26
633.788	26494.23
633.982	25433.38
634.176	24466.74
634.369	23209.29
634.563	22506.84
634.757	21196.14
634.951	20776.3
635.145	20327.8
635.339	19350.92
635.533	18640.27
635.726	17675.68
635.92	16752.04
636.114	16446.9
636.308	15588.8
636.501	15132.1
636.695	14798.28
636.889	13811.16
637.083	13338.08
637.276	12668.39
637.47	12310
637.664	11798.01
637.857	11220.48
638.051	10896.9
638.244	10421.77
638.438	9995.79
638.632	9893.4
638.825	8982.05
639.019	8934.95
639.212	8275.5
639.406	8046.13
639.599	7634.49
639.793	7566.9
639.986	7200.32
640.18	6823.49
640.373	6565.45
640.567	6381.13
640.76	6168.14
640.954	5975.63
641.147	5709.4
641.34	5424.73
641.534	5242.46
641.727	5158.49
641.92	4869.73
642.114	4621.92
642.307	4472.42
642.5	4314.73
642.694	4120.17
642.887	4023.92
643.08	4083.31
643.273	3729.01
643.467	3442.29
643.66	3421.81
643.853	3251.83
644.046	3188.35
644.239	3032.7
644.432	2854.53
644.626	2651.78
644.819	2645.63
645.012	2619.01
645.205	2596.48
645.398	2553.48
645.591	2285.19
645.784	2164.36
645.977	1990.28
646.17	2113.16
646.363	1945.23
646.556	1842.83
646.749	1734.29
646.942	1767.06
647.135	1640.08
647.328	1670.8
647.521	1670.8
647.714	1525.4
647.907	1486.48
648.099	1414.81
648.292	1418.9
648.485	1296.02
648.678	1228.44
648.871	1201.82
649.064	1087.13
649.256	1076.89
649.449	1095.32
649.642	945.82
649.835	970.4
650.027	964.25
650.22	982.68
650.413	892.57
650.605	962.2
650.798	855.71
650.991	769.69
651.183	751.26
651.376	773.79
651.568	771.74
651.761	759.46
651.954	757.41
652.146	669.34
652.339	669.34
652.531	693.92
652.724	603.81
652.916	667.3
653.109	528.03
653.301	659.1
653.494	597.67
653.686	505.51
653.879	648.86
654.071	523.94
654.263	454.31
654.456	499.36
654.648	552.61
654.84	491.17
655.033	370.34
655.225	525.99
655.417	315.05
655.61	472.74
655.802	497.32
655.994	534.18
656.186	278.18
656.379	487.08
656.571	321.19
656.763	310.95
656.955	278.18
657.148	317.09
657.34	433.83
657.532	308.9
657.724	405.16
657.916	255.65
658.108	360.1
658.3	329.38
658.492	315.05
658.684	202.41
658.876	366.25
659.068	157.35
659.26	151.21
659.452	153.26
659.644	272.04
659.836	343.72
660.028	294.57
660.22	255.65
660.412	325.29
660.604	171.69
660.796	276.13
660.988	296.61
661.18	136.87
661.372	214.7
661.563	190.12
661.755	274.09
661.947	100.01
662.139	120.49
662.331	192.17
662.522	222.89
662.714	190.12
662.906	126.63
663.097	196.26
663.289	145.06
663.481	85.67
663.673	179.88
663.864	218.79
664.056	153.26
664.247	155.3
664.439	216.74
664.631	134.82
664.822	138.92
665.014	196.26
665.205	153.26
665.397	140.97
665.588	220.84
665.78	183.98
665.971	183.98
666.163	192.17
666.354	208.55
666.546	114.34
666.737	202.41
666.929	134.82
667.12	100.01
667.311	155.3
667.503	134.82
667.694	222.89
667.885	89.77
668.077	145.06
668.268	54.95
668.459	173.74
668.651	126.63
668.842	210.6
669.033	161.45
669.224	83.63
669.416	245.41
669.607	110.25
669.798	61.1
669.989	136.87
670.18	171.69
670.371	108.2
670.563	-22.87
670.754	188.07
670.945	198.31
671.136	245.41
671.327	77.48
671.518	149.16
671.709	231.08
671.9	190.12
672.091	218.79
672.282	183.98
672.473	210.6
672.664	28.33
672.855	153.26
673.046	132.78
673.237	183.98
673.428	175.78
673.619	192.17
673.809	153.26
674	186.02
674.191	210.6
674.382	128.68
674.573	83.63
674.764	130.73
674.954	196.26
675.145	24.23
675.336	50.86
675.527	118.44
675.717	44.71
675.908	167.59
676.099	67.24
676.289	163.5
676.48	54.95
676.671	100.01
676.861	116.39
677.052	110.25
677.243	159.4
677.433	91.82
677.624	206.5
677.814	177.83
678.005	79.53
678.195	220.84
678.386	93.87
678.576	59.05
678.767	100.01
678.957	73.39
679.148	140.97
679.338	251.56
679.529	186.02
679.719	136.87
679.909	231.08
680.1	190.12
680.29	83.63
680.481	-8.53
680.671	212.65
680.861	106.15
681.052	186.02
681.242	114.34
681.432	169.64
681.622	108.2
681.813	36.52
682.003	89.77
682.193	116.39
682.383	183.98
682.573	93.87
682.764	132.78
682.954	161.45
683.144	239.27
683.334	116.39
683.524	134.82
683.714	269.99
683.904	157.35
684.094	159.4
684.284	136.87
684.474	226.98
684.664	216.74
684.854	202.41
685.044	165.54
685.234	161.45
685.424	145.06
685.614	112.3
685.804	267.94
685.994	181.93
686.184	200.36
686.374	163.5
686.564	124.58
686.753	128.68
686.943	120.49
687.133	145.06
687.323	138.92
687.513	153.26
687.702	157.35
687.892	181.93
688.082	169.64
688.272	218.79
688.461	179.88
688.651	239.27
688.841	155.3
689.03	145.06
689.22	188.07
689.41	153.26
689.599	208.55
689.789	112.3
689.979	288.42
690.168	128.68
690.358	169.64
690.547	153.26
690.737	173.74
690.926	171.69
691.116	130.73
691.305	220.84
691.495	204.46
691.684	136.87
691.874	97.96
692.063	181.93
692.252	241.32
692.442	306.85
692.631	179.88
692.82	145.06
693.01	153.26
693.199	134.82
693.388	247.46
693.578	200.36
693.767	288.42
693.956	249.51
694.146	138.92
694.335	224.94
694.524	167.59
694.713	231.08
694.902	124.58
695.092	128.68
695.281	251.56
695.47	116.39
695.659	155.3
695.848	181.93
696.037	116.39
696.226	222.89
696.415	192.17
696.604	233.13
696.793	251.56
696.982	108.2
697.171	241.32
697.36	143.02
697.549	198.31
697.738	106.15
697.927	116.39
698.116	77.48
698.305	226.98
698.494	192.17
698.683	83.63
698.872	319.14
699.061	134.82
699.25	44.71
699.438	100.01
699.627	200.36
699.816	274.09
700.005	52.91
700.193	108.2
700.382	183.98
700.571	206.5
700.76	163.5
700.948	239.27
701.137	186.02
701.326	222.89
701.514	89.77
701.703	192.17
701.892	173.74
702.08	269.99
702.269	159.4
702.457	36.52
702.646	87.72
702.834	112.3
703.023	165.54
703.212	196.26
703.4	140.97
703.589	155.3
703.777	85.67
703.965	153.26
704.154	91.82
704.342	83.63
704.531	140.97
704.719	190.12
704.907	247.46
705.096	97.96
705.284	85.67
705.472	126.63
705.661	181.93
705.849	263.85
706.037	183.98
706.226	222.89
706.414	222.89
706.602	75.43
706.79	237.22
706.979	130.73
707.167	63.15
707.355	-22.87
707.543	196.26
707.731	282.28
707.919	151.21
708.107	93.87
708.296	59.05
708.484	136.87
708.672	173.74
708.86	214.7
709.048	206.5
709.236	132.78
709.424	212.65
709.612	157.35
709.8	22.19
709.988	140.97
710.176	267.94
710.364	169.64
710.551	167.59
710.739	155.3
710.927	153.26
711.115	165.54
711.303	192.17
711.491	179.88
711.679	108.2
711.866	192.17
712.054	128.68
712.242	149.16
712.43	208.55
712.617	263.85
712.805	165.54
712.993	194.22
713.181	79.53
713.368	147.11
713.556	177.83
713.744	132.78
713.931	327.33
714.119	179.88
714.306	100.01
714.494	149.16
714.682	151.21
714.869	81.58
715.057	108.2
715.244	38.57
715.432	183.98
715.619	83.63
715.807	165.54
715.994	118.44
716.182	186.02
716.369	296.61
716.556	237.22
716.744	69.29
716.931	83.63
717.119	157.35
717.306	153.26
717.493	235.18
717.681	13.99
717.868	140.97
718.055	130.73
718.242	149.16
718.43	175.78
718.617	181.93
718.804	149.16
718.991	214.7
719.179	216.74
719.366	202.41
719.553	212.65
719.74	175.78
719.927	122.54
720.114	224.94
720.301	-0.34
720.488	130.73
720.676	93.87
720.863	224.94
721.05	288.42
721.237	163.5
721.424	245.41
721.611	212.65
721.798	93.87
721.985	132.78
722.172	106.15
722.358	210.6
722.545	218.79
722.732	259.75
722.919	257.7
723.106	249.51
723.293	100.01
723.48	222.89
723.667	100.01
723.853	239.27
724.04	290.47
724.227	245.41
724.414	147.11
724.6	347.81
724.787	267.94
724.974	374.44
725.161	171.69
725.347	112.3
725.534	257.7
725.72	245.41
725.907	229.03
726.094	208.55
726.28	140.97
726.467	165.54
726.653	114.34
726.84	366.25
727.027	310.95
727.213	190.12
727.4	214.7
727.586	251.56
727.773	153.26
727.959	245.41
728.145	153.26
728.332	204.46
728.518	159.4
728.705	272.04
728.891	188.07
729.077	163.5
729.264	40.62
729.45	177.83
729.636	224.94
729.823	286.37
730.009	220.84
730.195	183.98
730.382	284.33
730.568	155.3
730.754	138.92
730.94	120.49
731.126	134.82
731.313	272.04
731.499	175.78
731.685	302.76
731.871	263.85
732.057	194.22
732.243	241.32
732.429	253.61
732.615	331.43
732.801	255.65
732.987	222.89
733.173	181.93
733.359	161.45
733.545	196.26
733.731	188.07
733.917	337.57
734.103	200.36
734.289	261.8
734.475	173.74
734.661	327.33
734.847	200.36
735.033	181.93
735.219	247.46
735.404	224.94
735.59	112.3
735.776	173.74
735.962	214.7
736.148	292.52
736.333	265.89
736.519	253.61
736.705	263.85
736.89	239.27
737.076	171.69
737.262	116.39
737.447	237.22
737.633	188.07
737.819	306.85
738.004	222.89
738.19	239.27
738.375	255.65
738.561	300.71
738.747	241.32
738.932	149.16
739.118	306.85
739.303	231.08
739.489	300.71
739.674	192.17
739.859	280.23
740.045	247.46
740.23	249.51
740.416	69.29
740.601	249.51
740.786	81.58
740.972	104.11
741.157	124.58
741.342	126.63
741.528	149.16
741.713	237.22
741.898	235.18
742.084	188.07
742.269	194.22
742.454	269.99
742.639	212.65
742.824	175.78
743.01	255.65
743.195	290.47
743.38	251.56
743.565	315.05
743.75	253.61
743.935	310.95
744.12	263.85
744.305	118.44
744.49	194.22
744.675	106.15
744.86	67.24
745.045	259.75
745.23	157.35
745.415	104.11
745.6	304.81
745.785	50.86
745.97	263.85
746.155	206.5
746.34	243.37
746.525	206.5
746.71	245.41
746.895	73.39
747.079	91.82
747.264	147.11
747.449	163.5
747.634	241.32
747.819	226.98
748.003	159.4
748.188	87.72
748.373	210.6
748.557	251.56
748.742	163.5
748.927	210.6
749.111	122.54
749.296	167.59
749.481	276.13
749.665	231.08
749.85	91.82
750.034	224.94
750.219	210.6
750.404	93.87
750.588	212.65
750.773	151.21
750.957	140.97
751.141	177.83
751.326	143.02
751.51	100.01
751.695	165.54
751.879	140.97
752.064	278.18
752.248	165.54
752.432	290.47
752.617	288.42
752.801	255.65
752.985	151.21
753.17	216.74
753.354	241.32
753.538	145.06
753.722	149.16
753.907	171.69
754.091	77.48
754.275	183.98
754.459	52.91
754.643	108.2
754.828	179.88
755.012	171.69
755.196	132.78
755.38	145.06
755.564	79.53
755.748	226.98
755.932	87.72
756.116	188.07
756.3	214.7
756.484	81.58
756.668	167.59
756.852	50.86
757.036	138.92
757.22	134.82
757.404	95.91
757.588	54.95
757.772	128.68
757.956	173.74
758.14	214.7
758.323	118.44
758.507	208.55
758.691	61.1
758.875	210.6
759.059	294.57
759.242	140.97
759.426	116.39
759.61	122.54
759.794	153.26
759.977	186.02
760.161	349.86
760.345	202.41
760.528	149.16
760.712	116.39
760.895	171.69
761.079	120.49
761.263	38.57
761.446	13.99
761.63	89.77
761.813	196.26
761.997	69.29
762.18	40.62
762.364	147.11
762.547	1.71
762.731	61.1
762.914	151.21
763.098	77.48
763.281	32.43
763.464	48.81
763.648	110.25
763.831	77.48
764.015	32.43
764.198	153.26
764.381	87.72
764.564	1.71
764.748	118.44
764.931	57
765.114	20.14
765.297	175.78
765.481	63.15
765.664	-0.34
765.847	48.81
766.03	210.6
766.213	65.19
766.397	97.96
766.58	38.57
766.763	42.67
766.946	95.91
767.129	46.76
767.312	93.87
767.495	67.24
767.678	24.23
767.861	32.43
768.044	120.49
768.227	69.29
768.41	11.95
768.593	36.52
768.776	-4.44
768.959	57
769.142	151.21
769.324	52.91
769.507	83.63
769.69	93.87
769.873	-20.82
770.056	269.99
770.239	120.49
770.421	188.07
770.604	106.15
770.787	16.04
770.97	126.63
771.152	-16.73
771.335	26.28
771.518	-35.16
771.7	163.5
771.883	149.16
772.066	83.63
772.248	165.54
772.431	259.75
772.613	122.54
772.796	79.53
772.978	93.87
773.161	210.6
773.343	95.91
773.526	63.15
773.708	46.76
773.891	-6.49
774.073	26.28
774.256	18.09
774.438	233.13
774.621	77.48
774.803	122.54
774.985	50.86
775.168	61.1
775.35	106.15
775.532	118.44
775.715	75.43
775.897	38.57
776.079	22.19
776.261	95.91
776.444	9.9
776.626	32.43
776.808	44.71
776.99	20.14
777.173	42.67
777.355	32.43
777.537	-6.49
777.719	46.76
777.901	16.04
778.083	-8.53
778.265	-55.64
778.447	54.95
778.629	93.87
778.811	-12.63
778.993	212.65
779.175	138.92
779.357	59.05
779.539	-16.73
779.721	79.53
779.903	143.02
780.085	-18.77
780.267	34.47
780.449	-14.68
780.631	75.43
780.812	147.11
780.994	89.77
781.176	36.52
781.358	79.53
781.54	-35.16
781.721	48.81
781.903	116.39
782.085	32.43
782.267	69.29
782.448	11.95
782.63	34.47
782.812	81.58
782.993	128.68
783.175	128.68
783.357	-43.35
783.538	116.39
783.72	36.52
783.901	120.49
784.083	42.67
784.264	169.64
784.446	-47.44
784.627	-65.88
784.809	50.86
784.99	-59.73
785.172	30.38
785.353	44.71
785.535	100.01
785.716	-26.96
785.897	-14.68
786.079	22.19
786.26	85.67
786.441	54.95
786.623	-108.88
786.804	-0.34
786.985	73.39
787.167	171.69
787.348	-47.44
787.529	75.43
787.71	85.67
787.891	120.49
788.073	-94.55
788.254	-39.25
788.435	188.07
788.616	73.39
788.797	-24.92
788.978	16.04
789.159	61.1
789.34	32.43
789.522	13.99
789.703	34.47
789.884	57
790.065	54.95
790.246	134.82
790.427	-24.92
790.607	143.02
790.788	22.19
790.969	-39.25
791.15	65.19
791.331	1.71
791.512	18.09
791.693	-47.44
791.874	32.43
792.054	214.7
792.235	151.21
792.416	-47.44
792.597	-98.64
792.778	63.15
792.958	118.44
793.139	110.25
793.32	-4.44
793.5	-96.6
793.681	85.67
793.862	75.43
794.042	32.43
794.223	-26.96
794.404	67.24
794.584	-10.58
794.765	16.04
794.945	11.95
795.126	-39.25
795.306	24.23
795.487	26.28
795.667	-31.06
795.848	-29.01
796.028	-16.73
796.209	1.71
796.389	63.15
796.57	50.86
796.75	-26.96
796.93	-14.68
797.111	7.85
797.291	-10.58
797.471	93.87
797.652	-2.39
797.832	-31.06
798.012	138.92
798.192	-76.12
798.373	-139.6
798.553	13.99
798.733	22.19
798.913	-94.55
799.093	7.85
799.274	59.05
799.454	57
799.634	134.82
799.814	153.26
799.994	24.23
800.174	91.82
800.354	24.23
800.534	-147.8
800.714	97.96
800.894	-117.08
801.074	-100.69
801.254	-0.34
801.434	77.48
801.614	-31.06
801.794	-35.16
801.974	2027.15
802.154	-10.58
802.334	110.25
802.514	-80.21
802.693	-18.77
802.873	-37.2
803.053	130.73
803.233	40.62
803.413	7.85
803.592	-16.73
803.772	34.47
803.952	71.34
804.131	-51.54
804.311	32.43
804.491	116.39
804.67	-78.16
804.85	-29.01
805.03	46.76
805.209	42.67
805.389	-39.25
805.568	1.71
805.748	87.72
805.928	-47.44
806.107	77.48
806.287	26.28
806.466	145.06
806.646	-39.25
806.825	20.14
807.004	-8.53
807.184	65.19
807.363	13.99
807.543	48.81
807.722	-31.06
807.901	57
808.081	30.38
808.26	-121.17
808.439	1.71
808.619	79.53
808.798	-10.58
808.977	-2.39
809.156	63.15
809.336	69.29
809.515	57
809.694	-10.58
809.873	-4.44
810.052	77.48
810.231	95.91
810.411	-4.44
810.59	130.73
810.769	61.1
810.948	34.47
811.127	-78.16
811.306	50.86
811.485	-20.82
811.664	106.15
811.843	22.19
812.022	26.28
812.201	-24.92
812.38	-35.16
812.559	-39.25
812.737	61.1
812.916	-69.97
813.095	-94.55
813.274	-20.82
813.453	-53.59
813.632	48.81
813.811	104.11
813.989	-110.93
814.168	32.43
814.347	-12.63
814.526	-39.25
814.704	132.78
814.883	95.91
815.062	-35.16
815.24	28.33
815.419	11.95
815.598	65.19
815.776	-158.03
815.955	-6.49
816.133	-88.4
816.312	38.57
816.49	-57.68
816.669	26.28
816.847	-24.92
817.026	-29.01
817.204	-39.25
817.383	3.75
817.561	-98.64
817.74	20.14
817.918	46.76
818.097	20.14
818.275	-61.78
818.453	-12.63
818.632	46.76
818.81	-10.58
818.988	-94.55
819.167	-78.16
819.345	38.57
819.523	-18.77
819.701	-14.68
819.879	52.91
820.058	32.43
820.236	24.23
820.414	7.85
820.592	-37.2
820.77	-35.16
820.948	30.38
821.127	-82.26
821.305	28.33
821.483	-22.87
821.661	85.67
821.839	-26.96
822.017	-6.49
822.195	-10.58
822.373	118.44
822.551	38.57
822.729	5.8
822.907	-35.16
823.085	93.87
823.262	-12.63
823.44	-2.39
823.618	83.63
823.796	11.95
823.974	-12.63
824.152	-57.68
824.329	18.09
824.507	18.09
824.685	38.57
824.863	46.76
825.04	-22.87
825.218	1.71
825.396	65.19
825.574	-69.97
825.751	32.43
825.929	54.95
826.107	-82.26
826.284	-61.78
826.462	16.04
826.639	-84.31
826.817	-82.26
826.994	9.9
827.172	-74.07
827.349	118.44
827.527	28.33
827.704	140.97
827.882	30.38
828.059	7.85
828.237	59.05
828.414	32.43
828.591	-155.99
828.769	-4.44
828.946	-57.68
829.124	50.86
829.301	126.63
829.478	36.52
829.655	50.86
829.833	28.33
830.01	-119.12
830.187	50.86
830.364	65.19
830.542	13.99
830.719	89.77
830.896	69.29
831.073	-14.68
831.25	-18.77
831.427	16.04
831.604	48.81
831.782	-10.58
831.959	18.09
832.136	20.14
832.313	46.76
832.49	-39.25
832.667	-49.49
832.844	-61.78
833.021	130.73
833.198	38.57
833.374	30.38
833.551	30.38
833.728	46.76
833.905	32.43
834.082	-90.45
834.259	-0.34
834.436	61.1
834.612	-37.2
834.789	42.67
834.966	65.19
835.143	-22.87
835.319	-115.03
835.496	28.33
835.673	32.43
835.85	122.54
836.026	69.29
836.203	65.19
836.38	-45.4
836.556	-39.25
836.733	5.8
836.909	46.76
837.086	26.28
837.262	-94.55
837.439	-4.44
837.616	-49.49
837.792	44.71
837.968	-29.01
838.145	-139.6
838.321	22.19
838.498	38.57
838.674	-14.68
838.851	-4.44
839.027	-53.59
839.203	-2.39
839.38	-2.39
839.556	-26.96
839.732	59.05
839.909	32.43
840.085	63.15
840.261	-6.49
840.437	36.52
840.614	67.24
840.79	30.38
840.966	30.38
841.142	87.72
841.318	61.1
841.494	79.53
841.671	85.67
841.847	-57.68
842.023	-88.4
842.199	-4.44
842.375	134.82
842.551	-123.22
842.727	-53.59
842.903	128.68
843.079	-8.53
843.255	145.06
843.431	-26.96
843.607	83.63
843.783	-162.13
843.959	3.75
844.134	-74.07
844.31	54.95
844.486	-12.63
844.662	-22.87
844.838	-18.77
845.013	20.14
845.189	16.04
845.365	67.24
845.541	-57.68
845.716	-10.58
845.892	71.34
846.068	20.14
846.244	-22.87
846.419	46.76
846.595	9.9
846.77	-10.58
846.946	104.11
847.122	-24.92
847.297	-18.77
847.473	165.54
847.648	-106.84
847.824	-39.25
847.999	-53.59
848.175	-24.92
848.35	24.23
848.526	140.97
848.701	140.97
848.876	44.71
849.052	100.01
849.227	-12.63
849.403	-2.39
849.578	-4.44
849.753	5.8
849.929	13.99
850.104	3.75
850.279	11.95
850.454	-10.58
850.63	-16.73
850.805	26.28
850.98	-20.82
851.155	-39.25
851.33	-8.53
851.505	-59.73
851.681	122.54
851.856	-110.93
852.031	34.47
852.206	16.04
852.381	-72.02
852.556	-43.35
852.731	44.71
852.906	-2.39
853.081	30.38
853.256	116.39
853.431	5.8
853.606	-10.58
853.781	-61.78
853.956	-147.8
854.131	-8.53
854.305	-39.25
854.48	-69.97
854.655	-139.6
854.83	-55.64
855.005	-112.98
855.18	134.82
855.354	-33.11
855.529	-49.49
855.704	7.85
855.879	65.19
856.053	-67.92
856.228	38.57
856.403	-86.36
856.577	48.81
856.752	-37.2
856.926	1.71
857.101	-47.44
857.276	-57.68
857.45	69.29
857.625	120.49
857.799	97.96
857.974	-20.82
858.148	-96.6
858.323	-14.68
858.497	-14.68
858.672	-51.54
858.846	-51.54
859.02	36.52
859.195	-53.59
859.369	-53.59
859.543	-2.39
859.718	-0.34
859.892	18.09
860.066	-22.87
860.241	-53.59
860.415	-82.26
860.589	-0.34
860.763	-14.68
860.938	-37.2
861.112	38.57
861.286	-14.68
861.46	-10.58
861.634	-67.92
861.808	110.25
861.982	-29.01
862.157	-104.79
862.331	-14.68
862.505	-100.69
862.679	-72.02
862.853	18.09
863.027	-8.53
863.201	110.25
863.375	-49.49
863.549	3.75
863.722	-4.44
863.896	120.49
864.07	-24.92
864.244	13.99
864.418	46.76
864.592	-78.16
864.766	71.34
864.939	-51.54
865.113	-16.73
865.287	26.28
865.461	11.95
865.634	-0.34
865.808	-55.64
865.982	-20.82
866.156	-51.54
866.329	-125.27
866.503	57
866.676	57
866.85	-33.11
867.024	-69.97
867.197	30.38
867.371	63.15
867.544	69.29
867.718	-69.97
867.891	81.58
868.065	16.04
868.238	-31.06
868.412	69.29
868.585	120.49
868.759	-4.44
868.932	-4.44
869.105	-94.55
869.279	-43.35
869.452	44.71
869.625	-16.73
869.799	-94.55
869.972	-80.21
870.145	-41.3
870.319	108.2
870.492	-2.39
870.665	11.95
870.838	-74.07
871.011	-139.6
871.185	-22.87
871.358	-131.41
871.531	-57.68
871.704	-76.12
871.877	1.71
872.05	-67.92
872.223	-59.73
872.396	83.63
872.569	11.95
872.742	-29.01
872.915	67.24
873.088	-20.82
873.261	-53.59
873.434	73.39
873.607	1.71
873.78	48.81
873.953	-143.7
874.126	48.81
874.299	7.85
874.471	-94.55
874.644	-53.59
874.817	34.47
874.99	5.8
875.163	-24.92
875.335	16.04
875.508	-55.64
875.681	22.19
875.853	-53.59
876.026	-43.35
876.199	-14.68
876.371	52.91
876.544	-0.34
876.717	-45.4
876.889	32.43
877.062	30.38
877.234	-45.4
877.407	11.95
877.579	36.52
877.752	46.76
877.924	36.52
878.097	5.8
878.269	5.8
878.442	24.23
878.614	13.99
878.786	100.01
878.959	63.15
879.131	22.19
879.303	-69.97
879.476	-16.73
879.648	89.77
879.82	18.09
879.993	-96.6
880.165	-69.97
880.337	-55.64
880.509	36.52
880.681	-74.07
880.854	-14.68
881.026	73.39
881.198	186.02
881.37	-57.68
881.542	-51.54
881.714	-0.34
881.886	-65.88
882.058	7.85
882.23	9.9
882.402	20.14
882.574	28.33
882.746	28.33
882.918	112.3
883.09	57
883.262	36.52
883.434	-29.01
883.606	-82.26
883.778	16.04
883.95	126.63
884.122	11.95
884.293	118.44
884.465	34.47
884.637	-0.34
884.809	24.23
884.98	-14.68
885.152	40.62
885.324	110.25
885.496	-94.55
885.667	-2.39
885.839	-39.25
886.011	93.87
886.182	-41.3
886.354	42.67
886.525	-22.87
886.697	46.76
886.869	-135.51
887.04	-59.73
887.212	40.62
887.383	118.44
887.555	-61.78
887.726	-47.44
887.897	-59.73
888.069	-74.07
888.24	81.58
888.412	-24.92
888.583	18.09
888.754	16.04
888.926	-74.07
889.097	-69.97
889.268	-53.59
889.44	13.99
889.611	-84.31
889.782	-53.59
889.953	-65.88
890.125	95.91
890.296	-69.97
890.467	-18.77
890.638	-76.12
890.809	-55.64
890.98	-33.11
891.151	36.52
891.323	69.29
891.494	-39.25
891.665	-10.58
891.836	1.71
892.007	-112.98
892.178	-41.3
892.349	-45.4
892.52	-139.6
892.691	13.99
892.862	-26.96
893.032	-129.36
893.203	-57.68
893.374	18.09
893.545	34.47
893.716	-39.25
893.887	16.04
894.057	-2.39
894.228	-2.39
894.399	-145.75
894.57	36.52
894.74	59.05
894.911	9.9
895.082	-94.55
895.253	-49.49
895.423	7.85
895.594	-6.49
895.764	26.28
895.935	11.95
896.106	65.19
896.276	-29.01
896.447	-8.53
896.617	-59.73
896.788	1.71
896.958	-65.88
897.129	-2.39
897.299	-24.92
897.47	138.92
897.64	20.14
897.81	44.71
897.981	16.04
898.151	-55.64
898.322	102.06
898.492	63.15
898.662	-57.68
898.832	-31.06
899.003	24.23
899.173	61.1
899.343	-112.98
899.513	-80.21
