Data from USB4F104151__64__10-43-54-369.txt Node

Date: Wed Feb 26 10:43:54 EST 2025
User: louis
Spectrometer: USB4F10415
Trigger mode: 4
Integration Time (sec): 1.000000E-1
Scans to average: 1
Electric dark correction enabled: true
Nonlinearity correction enabled: false
Boxcar width: 0
XAxis mode: Wavelengths
Number of Pixels in Spectrum: 3648
>>>>>Begin Spectral Data<<<<<
178.204	-347.98
178.424	-347.98
178.644	-347.98
178.864	-403.28
179.084	-382.8
179.304	-91.99
179.524	-112.47
179.744	32.94
179.964	96.43
180.184	34.99
180.404	-26.45
180.624	14.51
180.844	12.46
181.064	-85.84
181.283	63.66
181.503	-26.45
181.723	88.23
181.943	-65.36
182.163	176.3
182.383	-26.45
182.602	100.52
182.822	139.43
183.042	84.14
183.262	80.04
183.482	16.55
183.701	59.56
183.921	45.23
184.141	-44.88
184.361	86.19
184.58	73.9
184.8	12.46
185.02	24.75
185.239	77.99
185.459	49.32
185.679	155.82
185.898	-40.79
186.118	80.04
186.338	32.94
186.557	164.01
186.777	-26.45
186.997	32.94
187.216	104.62
187.436	209.06
187.655	100.52
187.875	84.14
188.095	77.99
188.314	106.67
188.534	127.14
188.753	28.84
188.973	94.38
189.192	102.57
189.412	10.41
189.631	32.94
189.851	75.95
190.07	63.66
190.29	-61.27
190.509	-26.45
190.729	22.7
190.948	194.73
191.168	166.06
191.387	104.62
191.607	45.23
191.826	94.38
192.045	24.75
192.265	-8.02
192.484	100.52
192.704	12.46
192.923	-26.45
193.142	161.96
193.362	90.28
193.581	151.72
193.8	73.9
194.02	90.28
194.239	82.09
194.458	67.75
194.678	94.38
194.897	32.94
195.116	77.99
195.335	77.99
195.555	6.31
195.774	45.23
195.993	104.62
196.212	37.03
196.432	-3.93
196.651	-3.93
196.87	47.27
197.089	338.09
197.308	100.52
197.528	149.67
197.747	-44.88
197.966	71.85
198.185	77.99
198.404	14.51
198.623	168.1
198.842	92.33
199.062	202.92
199.281	137.38
199.5	92.33
199.719	24.75
199.938	22.7
200.157	102.57
200.376	141.48
200.595	106.67
200.814	59.56
201.033	24.75
201.252	151.72
201.471	0.17
201.69	102.57
201.909	108.71
202.128	71.85
202.347	63.66
202.566	-12.12
202.785	-63.32
203.004	-18.26
203.223	278.69
203.442	10.41
203.661	-32.6
203.879	18.6
204.098	141.48
204.317	22.7
204.536	149.67
204.755	51.37
204.974	151.72
205.193	32.94
205.411	207.02
205.63	100.52
205.849	0.17
206.068	49.32
206.287	-46.93
206.505	77.99
206.724	96.43
206.943	14.51
207.162	77.99
207.381	123.05
207.599	104.62
207.818	57.51
208.037	-46.93
208.255	16.55
208.474	153.77
208.693	100.52
208.911	37.03
209.13	141.48
209.349	129.19
209.567	37.03
209.786	-5.97
210.005	110.76
210.223	96.43
210.442	-51.03
210.661	102.57
210.879	112.81
211.098	63.66
211.316	53.42
211.535	137.38
211.753	49.32
211.972	80.04
212.191	-1.88
212.409	22.7
212.628	94.38
212.846	10.41
213.065	34.99
213.283	151.72
213.502	43.18
213.72	51.37
213.938	37.03
214.157	0.17
214.375	196.78
214.594	22.7
214.812	8.36
215.031	30.89
215.249	8.36
215.467	112.81
215.686	86.19
215.904	143.53
216.122	98.47
216.341	131.24
216.559	18.6
216.778	118.95
216.996	102.57
217.214	73.9
217.432	61.61
217.651	39.08
217.869	37.03
218.087	-1.88
218.306	53.42
218.524	96.43
218.742	77.99
218.96	166.06
219.179	0.17
219.397	37.03
219.615	274.6
219.833	110.76
220.051	43.18
220.27	118.95
220.488	67.75
220.706	92.33
220.924	6.31
221.142	-44.88
221.36	49.32
221.578	92.33
221.796	6.31
222.015	92.33
222.233	90.28
222.451	143.53
222.669	-3.93
222.887	96.43
223.105	20.65
223.323	-16.21
223.541	32.94
223.759	161.96
223.977	110.76
224.195	159.91
224.413	67.75
224.631	75.95
224.849	80.04
225.067	243.88
225.285	-5.97
225.503	4.27
225.721	-85.84
225.939	59.56
226.157	112.81
226.375	188.58
226.592	67.75
226.81	24.75
227.028	98.47
227.246	202.92
227.464	-1.88
227.682	121
227.9	45.23
228.117	106.67
228.335	86.19
228.553	55.47
228.771	14.51
228.989	73.9
229.206	102.57
229.424	-12.12
229.642	-8.02
229.86	-46.93
230.077	207.02
230.295	39.08
230.513	84.14
230.731	61.61
230.948	247.97
231.166	133.29
231.384	53.42
231.601	-34.64
231.819	235.69
232.037	-102.23
232.254	-73.56
232.472	0.17
232.689	67.75
232.907	161.96
233.125	-40.79
233.342	-14.17
233.56	-24.4
233.777	61.61
233.995	6.31
234.213	121
234.43	51.37
234.648	57.51
234.865	28.84
235.083	102.57
235.3	55.47
235.518	-20.31
235.735	159.91
235.953	24.75
236.17	84.14
236.388	63.66
236.605	116.9
236.822	133.29
237.04	178.34
237.257	16.55
237.475	-10.07
237.692	110.76
237.909	4.27
238.127	47.27
238.344	125.1
238.562	14.51
238.779	-48.98
238.996	-38.74
239.214	39.08
239.431	102.57
239.648	22.7
239.865	34.99
240.083	127.14
240.3	59.56
240.517	39.08
240.735	41.13
240.952	176.3
241.169	92.33
241.386	112.81
241.603	14.51
241.821	-46.93
242.038	127.14
242.255	143.53
242.472	-3.93
242.689	30.89
242.907	94.38
243.124	86.19
243.341	108.71
243.558	37.03
243.775	-18.26
243.992	-75.6
244.209	49.32
244.426	170.15
244.643	86.19
244.86	14.51
245.078	241.83
245.295	80.04
245.512	110.76
245.729	18.6
245.946	96.43
246.163	-38.74
246.38	-12.12
246.597	24.75
246.814	77.99
247.031	57.51
247.248	45.23
247.464	77.99
247.681	92.33
247.898	14.51
248.115	94.38
248.332	-42.84
248.549	86.19
248.766	129.19
248.983	100.52
249.2	106.67
249.417	65.71
249.633	22.7
249.85	57.51
250.067	112.81
250.284	4.27
250.501	94.38
250.717	73.9
250.934	-1.88
251.151	75.95
251.368	63.66
251.585	51.37
251.801	96.43
252.018	-75.6
252.235	41.13
252.451	-69.46
252.668	16.55
252.885	108.71
253.102	71.85
253.318	-20.31
253.535	86.19
253.752	108.71
253.968	32.94
254.185	43.18
254.401	39.08
254.618	30.89
254.835	-42.84
255.051	102.57
255.268	112.81
255.484	65.71
255.701	75.95
255.917	34.99
256.134	8.36
256.351	14.51
256.567	12.46
256.784	55.47
257	-18.26
257.217	106.67
257.433	123.05
257.65	32.94
257.866	118.95
258.082	-38.74
258.299	-42.84
258.515	57.51
258.732	57.51
258.948	-8.02
259.165	30.89
259.381	26.79
259.597	170.15
259.814	51.37
260.03	-14.17
260.246	-10.07
260.463	86.19
260.679	100.52
260.895	34.99
261.112	75.95
261.328	77.99
261.544	-40.79
261.761	178.34
261.977	6.31
262.193	-38.74
262.409	82.09
262.626	51.37
262.842	102.57
263.058	-1.88
263.274	82.09
263.49	96.43
263.707	96.43
263.923	82.09
264.139	-53.08
264.355	67.75
264.571	141.48
264.787	65.71
265.004	145.58
265.22	20.65
265.436	-20.31
265.652	6.31
265.868	-28.5
266.084	26.79
266.3	71.85
266.516	10.41
266.732	80.04
266.948	20.65
267.164	49.32
267.38	84.14
267.596	51.37
267.812	182.44
268.028	84.14
268.244	-14.17
268.46	59.56
268.676	10.41
268.892	12.46
269.108	26.79
269.324	-48.98
269.54	-81.75
269.756	135.34
269.972	-24.4
270.188	47.27
270.403	-46.93
270.619	71.85
270.835	55.47
271.051	-1.88
271.267	53.42
271.483	-5.97
271.698	125.1
271.914	94.38
272.13	65.71
272.346	47.27
272.562	-24.4
272.777	211.11
272.993	-28.5
273.209	-89.94
273.425	86.19
273.64	34.99
273.856	145.58
274.072	12.46
274.287	-124.76
274.503	112.81
274.719	80.04
274.934	67.75
275.15	-30.55
275.366	28.84
275.581	-8.02
275.797	22.7
276.012	49.32
276.228	4.27
276.444	26.79
276.659	127.14
276.875	47.27
277.09	77.99
277.306	28.84
277.521	53.42
277.737	37.03
277.952	22.7
278.168	92.33
278.383	53.42
278.599	49.32
278.814	45.23
279.03	30.89
279.245	82.09
279.461	65.71
279.676	121
279.892	-55.12
280.107	-42.84
280.322	-65.36
280.538	41.13
280.753	10.41
280.969	-10.07
281.184	37.03
281.399	196.78
281.615	32.94
281.83	141.48
282.045	-34.64
282.26	-5.97
282.476	73.9
282.691	123.05
282.906	139.43
283.122	45.23
283.337	69.8
283.552	137.38
283.767	-57.17
283.983	102.57
284.198	67.75
284.413	61.61
284.628	-63.32
284.843	32.94
285.058	86.19
285.274	30.89
285.489	28.84
285.704	123.05
285.919	-42.84
286.134	53.42
286.349	28.84
286.564	45.23
286.779	190.63
286.995	34.99
287.21	-135
287.425	118.95
287.64	30.89
287.855	37.03
288.07	12.46
288.285	225.45
288.5	141.48
288.715	84.14
288.93	145.58
289.145	8.36
289.36	104.62
289.575	-26.45
289.79	43.18
290.004	26.79
290.219	63.66
290.434	26.79
290.649	-42.84
290.864	-12.12
291.079	34.99
291.294	71.85
291.509	55.47
291.724	41.13
291.938	26.79
292.153	49.32
292.368	-20.31
292.583	61.61
292.798	75.95
293.012	34.99
293.227	102.57
293.442	-32.6
293.657	141.48
293.871	102.57
294.086	16.55
294.301	172.2
294.516	80.04
294.73	-28.5
294.945	-104.28
295.16	6.31
295.374	75.95
295.589	39.08
295.804	20.65
296.018	39.08
296.233	125.1
296.447	55.47
296.662	71.85
296.877	84.14
297.091	182.44
297.306	65.71
297.52	-5.97
297.735	88.23
297.949	57.51
298.164	106.67
298.378	47.27
298.593	10.41
298.807	-22.36
299.022	14.51
299.236	231.59
299.451	39.08
299.665	47.27
299.88	14.51
300.094	69.8
300.309	114.86
300.523	88.23
300.737	-26.45
300.952	16.55
301.166	75.95
301.381	-55.12
301.595	-55.12
301.809	-36.69
302.024	57.51
302.238	-26.45
302.452	125.1
302.667	57.51
302.881	204.97
303.095	133.29
303.309	71.85
303.524	30.89
303.738	49.32
303.952	-38.74
304.166	106.67
304.381	-94.04
304.595	139.43
304.809	-5.97
305.023	86.19
305.237	49.32
305.452	45.23
305.666	102.57
305.88	69.8
306.094	108.71
306.308	104.62
306.522	110.76
306.736	2.22
306.95	153.77
307.164	43.18
307.379	92.33
307.593	231.59
307.807	192.68
308.021	90.28
308.235	135.34
308.449	-87.89
308.663	59.56
308.877	149.67
309.091	16.55
309.305	75.95
309.519	-85.84
309.733	77.99
309.947	-65.36
310.161	49.32
310.374	127.14
310.588	145.58
310.802	-16.21
311.016	39.08
311.23	57.51
311.444	-20.31
311.658	139.43
311.872	121
312.085	164.01
312.299	153.77
312.513	172.2
312.727	37.03
312.941	26.79
313.154	84.14
313.368	57.51
313.582	32.94
313.796	123.05
314.009	0.17
314.223	73.9
314.437	108.71
314.651	45.23
314.864	-14.17
315.078	-71.51
315.292	-112.47
315.505	-10.07
315.719	98.47
315.933	137.38
316.146	-5.97
316.36	-30.55
316.573	129.19
316.787	6.31
317.001	92.33
317.214	-8.02
317.428	22.7
317.641	49.32
317.855	47.27
318.068	80.04
318.282	73.9
318.495	196.78
318.709	88.23
318.922	98.47
319.136	139.43
319.349	86.19
319.563	-28.5
319.776	94.38
319.99	20.65
320.203	96.43
320.417	-22.36
320.63	137.38
320.843	188.58
321.057	10.41
321.27	51.37
321.483	153.77
321.697	153.77
321.91	39.08
322.124	71.85
322.337	100.52
322.55	-24.4
322.763	90.28
322.977	10.41
323.19	41.13
323.403	-18.26
323.617	147.62
323.83	106.67
324.043	129.19
324.256	37.03
324.469	-16.21
324.683	116.9
324.896	73.9
325.109	28.84
325.322	-14.17
325.535	106.67
325.748	151.72
325.962	90.28
326.175	-1.88
326.388	127.14
326.601	39.08
326.814	8.36
327.027	22.7
327.24	151.72
327.453	-18.26
327.666	39.08
327.879	106.67
328.092	73.9
328.305	131.24
328.518	77.99
328.731	-71.51
328.944	12.46
329.157	75.95
329.37	43.18
329.583	186.54
329.796	129.19
330.009	-100.18
330.222	14.51
330.435	92.33
330.648	18.6
330.861	86.19
331.073	77.99
331.286	108.71
331.499	63.66
331.712	22.7
331.925	-1.88
332.138	59.56
332.35	166.06
332.563	2.22
332.776	92.33
332.989	-44.88
333.202	37.03
333.414	-65.36
333.627	47.27
333.84	-18.26
334.053	94.38
334.265	-1.88
334.478	73.9
334.691	51.37
334.903	12.46
335.116	22.7
335.329	-16.21
335.541	139.43
335.754	116.9
335.966	12.46
336.179	39.08
336.392	-36.69
336.604	61.61
336.817	135.34
337.029	32.94
337.242	57.51
337.454	43.18
337.667	8.36
337.88	178.34
338.092	-20.31
338.305	80.04
338.517	88.23
338.729	141.48
338.942	106.67
339.154	-55.12
339.367	-79.7
339.579	75.95
339.792	108.71
340.004	166.06
340.217	16.55
340.429	108.71
340.641	-42.84
340.854	26.79
341.066	-24.4
341.278	211.11
341.491	108.71
341.703	-36.69
341.915	-28.5
342.128	106.67
342.34	49.32
342.552	-20.31
342.764	77.99
342.977	-10.07
343.189	114.86
343.401	114.86
343.613	-46.93
343.826	55.47
344.038	-1.88
344.25	51.37
344.462	49.32
344.674	16.55
344.886	47.27
345.099	55.47
345.311	100.52
345.523	-12.12
345.735	-87.89
345.947	26.79
346.159	30.89
346.371	-10.07
346.583	10.41
346.795	207.02
347.007	-44.88
347.219	75.95
347.431	-34.64
347.643	69.8
347.855	39.08
348.067	149.67
348.279	22.7
348.491	37.03
348.703	94.38
348.915	32.94
349.127	80.04
349.339	145.58
349.551	-38.74
349.763	100.52
349.975	59.56
350.187	26.79
350.399	108.71
350.61	127.14
350.822	47.27
351.034	12.46
351.246	69.8
351.458	41.13
351.669	116.9
351.881	92.33
352.093	104.62
352.305	106.67
352.517	65.71
352.728	116.9
352.94	53.42
353.152	45.23
353.363	-44.88
353.575	77.99
353.787	200.87
353.999	39.08
354.21	178.34
354.422	-24.4
354.633	8.36
354.845	114.86
355.057	18.6
355.268	16.55
355.48	131.24
355.692	-5.97
355.903	47.27
356.115	14.51
356.326	-51.03
356.538	127.14
356.749	53.42
356.961	141.48
357.172	-38.74
357.384	57.51
357.595	200.87
357.807	-3.93
358.018	10.41
358.23	82.09
358.441	170.15
358.653	75.95
358.864	170.15
359.075	-38.74
359.287	49.32
359.498	133.29
359.709	108.71
359.921	26.79
360.132	59.56
360.344	41.13
360.555	8.36
360.766	88.23
360.977	-55.12
361.189	98.47
361.4	51.37
361.611	186.54
361.823	188.58
362.034	10.41
362.245	-46.93
362.456	77.99
362.667	125.1
362.879	-18.26
363.09	96.43
363.301	100.52
363.512	8.36
363.723	14.51
363.935	49.32
364.146	57.51
364.357	-48.98
364.568	-24.4
364.779	-65.36
364.99	96.43
365.201	-53.08
365.412	110.76
365.623	-141.14
365.834	57.51
366.045	14.51
366.256	51.37
366.467	77.99
366.678	-26.45
366.889	55.47
367.1	-10.07
367.311	127.14
367.522	-28.5
367.733	67.75
367.944	73.9
368.155	67.75
368.366	141.48
368.577	168.1
368.788	176.3
368.999	37.03
369.209	82.09
369.42	219.3
369.631	258.21
369.842	75.95
370.053	39.08
370.264	127.14
370.474	-36.69
370.685	49.32
370.896	80.04
371.107	207.02
371.317	47.27
371.528	57.51
371.739	133.29
371.95	49.32
372.16	84.14
372.371	-53.08
372.582	-10.07
372.792	47.27
373.003	45.23
373.214	16.55
373.424	84.14
373.635	-5.97
373.846	77.99
374.056	22.7
374.267	41.13
374.477	69.8
374.688	-14.17
374.898	37.03
375.109	110.76
375.319	26.79
375.53	45.23
375.74	131.24
375.951	39.08
376.161	71.85
376.372	96.43
376.582	34.99
376.793	45.23
377.003	-59.22
377.214	61.61
377.424	137.38
377.635	57.51
377.845	-18.26
378.055	143.53
378.266	14.51
378.476	57.51
378.686	71.85
378.897	121
379.107	157.86
379.317	84.14
379.528	-30.55
379.738	80.04
379.948	41.13
380.158	96.43
380.369	34.99
380.579	90.28
380.789	41.13
380.999	67.75
381.21	149.67
381.42	247.97
381.63	37.03
381.84	135.34
382.05	155.82
382.261	131.24
382.471	77.99
382.681	32.94
382.891	223.4
383.101	65.71
383.311	-20.31
383.521	-22.36
383.731	129.19
383.941	184.49
384.151	139.43
384.361	127.14
384.571	112.81
384.781	118.95
384.991	223.4
385.201	161.96
385.411	139.43
385.621	104.62
385.831	-20.31
386.041	10.41
386.251	20.65
386.461	227.5
386.671	14.51
386.881	96.43
387.091	53.42
387.301	94.38
387.511	71.85
387.72	2.22
387.93	86.19
388.14	0.17
388.35	106.67
388.56	174.25
388.769	98.47
388.979	71.85
389.189	30.89
389.399	32.94
389.609	108.71
389.818	166.06
390.028	77.99
390.238	161.96
390.447	34.99
390.657	73.9
390.867	32.94
391.076	-34.64
391.286	121
391.496	37.03
391.705	30.89
391.915	202.92
392.125	143.53
392.334	16.55
392.544	137.38
392.753	75.95
392.963	-51.03
393.172	-16.21
393.382	45.23
393.591	256.17
393.801	65.71
394.01	166.06
394.22	149.67
394.429	69.8
394.639	112.81
394.848	106.67
395.058	14.51
395.267	86.19
395.477	143.53
395.686	77.99
395.895	176.3
396.105	143.53
396.314	84.14
396.524	22.7
396.733	92.33
396.942	71.85
397.152	39.08
397.361	182.44
397.57	0.17
397.78	41.13
397.989	135.34
398.198	290.98
398.407	90.28
398.617	-10.07
398.826	129.19
399.035	-12.12
399.244	129.19
399.453	145.58
399.663	53.42
399.872	92.33
400.081	-71.51
400.29	110.76
400.499	-1.88
400.708	123.05
400.917	67.75
401.127	-34.64
401.336	47.27
401.545	243.88
401.754	133.29
401.963	157.86
402.172	53.42
402.381	18.6
402.59	53.42
402.799	55.47
403.008	127.14
403.217	170.15
403.426	39.08
403.635	-5.97
403.844	69.8
404.053	67.75
404.262	37.03
404.471	217.26
404.68	110.76
404.888	71.85
405.097	24.75
405.306	75.95
405.515	108.71
405.724	4.27
405.933	43.18
406.142	63.66
406.35	145.58
406.559	73.9
406.768	32.94
406.977	170.15
407.185	26.79
407.394	61.61
407.603	12.46
407.812	65.71
408.02	73.9
408.229	39.08
408.438	61.61
408.646	30.89
408.855	82.09
409.064	59.56
409.272	24.75
409.481	71.85
409.69	-20.31
409.898	-1.88
410.107	172.2
410.315	125.1
410.524	65.71
410.733	71.85
410.941	12.46
411.15	112.81
411.358	141.48
411.567	149.67
411.775	49.32
411.984	22.7
412.192	73.9
412.401	41.13
412.609	166.06
412.818	143.53
413.026	82.09
413.234	-38.74
413.443	82.09
413.651	80.04
413.86	20.65
414.068	94.38
414.276	161.96
414.485	55.47
414.693	182.44
414.901	164.01
415.11	-12.12
415.318	80.04
415.526	98.47
415.734	149.67
415.943	110.76
416.151	139.43
416.359	26.79
416.567	47.27
416.776	80.04
416.984	96.43
417.192	121
417.4	39.08
417.608	-18.26
417.817	6.31
418.025	164.01
418.233	198.82
418.441	37.03
418.649	45.23
418.857	141.48
419.065	204.97
419.273	51.37
419.481	202.92
419.689	131.24
419.897	73.9
420.105	-20.31
420.313	139.43
420.521	180.39
420.729	127.14
420.937	0.17
421.145	43.18
421.353	116.9
421.561	186.54
421.769	86.19
421.977	45.23
422.185	133.29
422.393	37.03
422.601	129.19
422.809	139.43
423.017	100.52
423.224	204.97
423.432	108.71
423.64	104.62
423.848	80.04
424.056	30.89
424.263	102.57
424.471	88.23
424.679	170.15
424.887	-16.21
425.094	127.14
425.302	131.24
425.51	77.99
425.718	127.14
425.925	77.99
426.133	32.94
426.341	223.4
426.548	20.65
426.756	37.03
426.964	92.33
427.171	22.7
427.379	161.96
427.586	96.43
427.794	168.1
428.001	133.29
428.209	151.72
428.417	186.54
428.624	155.82
428.832	112.81
429.039	135.34
429.247	108.71
429.454	71.85
429.662	180.39
429.869	112.81
430.076	63.66
430.284	221.35
430.491	125.1
430.699	223.4
430.906	254.12
431.114	112.81
431.321	164.01
431.528	141.48
431.736	223.4
431.943	170.15
432.15	182.44
432.358	178.34
432.565	282.79
432.772	37.03
432.979	280.74
433.187	71.85
433.394	155.82
433.601	194.73
433.808	313.51
434.016	225.45
434.223	219.3
434.43	235.69
434.637	295.08
434.844	286.89
435.052	256.17
435.259	286.89
435.466	264.36
435.673	237.74
435.88	274.6
436.087	342.18
436.294	286.89
436.501	350.37
436.708	305.32
436.915	276.65
437.122	342.18
437.329	227.5
437.537	354.47
437.743	325.8
437.95	311.46
438.157	323.75
438.364	391.33
438.571	307.37
438.778	379.04
438.985	434.34
439.192	487.59
439.399	352.42
439.606	428.2
439.813	485.54
440.02	514.21
440.227	647.33
440.433	577.7
440.64	538.79
440.847	438.44
441.054	528.55
441.261	649.38
441.467	551.07
441.674	526.5
441.881	635.04
442.088	684.19
442.294	759.97
442.501	823.45
442.708	821.41
442.914	784.54
443.121	858.27
443.328	741.54
443.534	897.18
443.741	948.38
443.948	788.64
444.154	993.44
444.361	1085.59
444.568	1005.72
444.774	1063.07
444.981	1001.63
445.187	1237.14
445.394	1132.7
445.6	1132.7
445.807	1312.92
446.013	1194.14
446.22	1157.27
446.426	1462.42
446.633	1443.99
446.839	1540.24
447.046	1382.55
447.252	1564.82
447.459	1484.95
447.665	1583.25
447.871	1779.86
448.078	1853.58
448.284	1734.8
448.491	1888.4
448.697	1941.65
448.903	1986.7
449.11	2156.68
449.316	2070.67
449.522	2273.42
449.728	2359.43
449.935	2506.88
450.141	2439.3
450.347	2726.02
450.553	2568.32
450.76	2674.82
450.966	2666.63
451.172	2822.27
451.378	2926.72
451.584	2996.35
451.791	3287.16
451.997	3348.6
452.203	3430.52
452.409	3596.4
452.615	3829.87
452.821	3639.41
453.027	3698.8
453.233	4241.51
453.44	4030.57
453.646	4481.13
453.852	4444.26
454.058	4563.05
454.264	4765.79
454.47	5093.47
454.676	5103.71
454.882	5488.73
455.088	5238.87
455.294	5656.66
455.5	6066.25
455.705	6215.76
455.911	6328.39
456.117	6266.96
456.323	6713.41
456.529	6836.29
456.735	7372.86
456.941	7741.49
457.147	7778.36
457.352	8032.3
457.558	8202.29
457.764	8663.08
457.97	9054.24
458.176	9256.99
458.381	9654.3
458.587	9926.68
458.793	10596.36
458.999	10334.22
459.204	11857.91
459.41	12036.08
459.616	11837.43
459.821	12908.52
460.027	13047.78
460.233	13539.29
460.438	13524.96
460.644	14733.26
460.85	14809.03
461.055	15083.46
461.261	16086.97
461.466	15650.75
461.672	16150.45
461.878	17887.13
462.083	17668
462.289	18175.89
462.494	18847.63
462.7	19036.04
462.905	19419.01
463.111	20572.02
463.316	21741.41
463.522	22167.38
463.727	22900.56
463.932	24004.41
464.138	24264.5
464.343	25593.64
464.549	25519.91
464.754	27803.39
464.959	28200.7
465.165	28727.03
465.37	28385.02
465.575	28397.31
465.781	30754.52
465.986	31336.14
466.191	30760.66
466.397	31395.53
466.602	30527.19
466.807	32034.5
467.012	32951.99
467.218	33640.11
467.423	33539.75
467.628	34295.46
467.833	36507.26
468.038	35468.94
468.244	35366.54
468.449	36808.31
468.654	35829.38
468.859	35843.72
469.064	35829.38
469.269	34959
469.474	35495.57
469.679	36112
469.885	35266.19
470.09	35690.12
470.295	35948.17
470.5	35204.75
470.705	35536.52
470.91	34545.31
471.115	34219.68
471.32	34465.44
471.525	34416.29
471.73	33578.67
471.935	33455.79
472.139	31864.52
472.344	32030.4
472.549	31676.1
472.754	31248.08
472.959	30529.24
473.164	29474.54
473.369	29167.34
473.574	30383.84
473.778	29388.52
473.983	28976.88
474.188	28520.18
474.393	27102.99
474.598	27146
474.802	26257.18
475.007	26132.25
475.212	25763.62
475.417	24706.87
475.621	24684.34
475.826	24096.57
476.031	23897.92
476.235	23414.6
476.44	23199.56
476.645	22558.55
476.849	22208.34
477.054	21968.73
477.259	21606.24
477.463	21448.55
477.668	20971.37
477.872	20901.74
478.077	20483.95
478.282	19920.76
478.486	19685.25
478.691	19265.41
478.895	19062.66
479.1	19201.93
479.304	19079.05
479.509	18208.66
479.713	18534.29
479.918	18057.11
480.122	17776.54
480.326	17893.27
480.531	17870.75
480.735	17684.38
480.94	17321.89
481.144	17563.55
481.348	16969.64
481.553	17024.93
481.757	16455.6
481.961	16859.05
482.166	17037.22
482.37	16633.77
482.574	16132.02
482.778	16193.46
482.983	16635.82
483.187	16099.25
483.391	15974.33
483.595	15607.74
483.8	15316.93
484.004	15673.28
484.208	15677.37
484.412	15243.2
484.616	15327.17
484.821	15214.53
485.025	14905.29
485.229	14739.4
485.433	14452.69
485.637	14542.8
485.841	14020.56
486.045	13887.45
486.249	13756.38
486.453	13512.67
486.657	13453.28
486.861	13234.14
487.065	12750.82
487.269	12906.47
487.473	12386.29
487.677	12529.64
487.881	12662.76
488.085	12167.15
488.289	12036.08
488.493	11489.28
488.697	11524.09
488.901	11593.72
489.105	11155.46
489.309	11102.21
489.512	10776.58
489.716	10539.02
489.92	10512.39
490.124	10272.78
490.328	10262.54
490.531	9895.96
490.735	9826.32
490.939	9609.24
491.143	9261.09
491.346	9115.68
491.55	9162.78
491.754	9074.72
491.958	8988.71
492.161	8681.51
492.365	8677.41
492.569	8185.9
492.772	8288.3
492.976	8235.05
493.18	8069.17
493.383	8321.07
493.587	7956.53
493.79	7725.11
493.994	7690.29
494.197	7600.18
494.401	7643.19
494.605	7430.2
494.808	7395.39
495.012	7311.42
495.215	7413.82
495.419	7491.64
495.622	6998.08
495.825	7145.53
496.029	6920.26
496.232	7149.63
496.436	7016.51
496.639	7229.5
496.843	7194.68
497.046	7120.96
497.249	7256.12
497.453	7200.83
497.656	7098.43
497.859	7145.53
498.063	7340.09
498.266	7139.39
498.469	6922.31
498.673	7131.2
498.876	7426.11
499.079	7311.42
499.282	7247.93
499.485	7694.39
499.689	7370.81
499.892	7678.01
500.095	7458.87
500.298	7698.49
500.501	7301.18
500.705	7546.94
500.908	7688.25
501.111	7872.56
501.314	8085.55
501.517	8106.03
501.72	7856.18
501.923	8157.23
502.126	8185.9
502.329	8175.66
502.532	8454.19
502.735	8460.33
502.938	8704.04
503.141	8695.85
503.344	8738.85
503.547	8964.13
503.75	9095.2
503.953	9050.14
504.156	9404.44
504.359	9433.11
504.562	9328.67
504.765	9865.24
504.968	9824.28
505.17	10172.43
505.373	9973.78
505.576	10340.36
505.779	10385.42
505.982	10172.43
506.185	10856.45
506.387	10981.38
506.59	11120.64
506.793	11354.11
506.996	11550.71
507.198	11921.4
507.401	11986.93
507.604	12054.51
507.807	12586.99
508.009	12701.67
508.212	13055.97
508.415	13277.15
508.617	13516.76
508.82	13750.23
509.022	13760.47
509.225	14208.98
509.428	14555.08
509.63	15038.41
509.833	14936.01
510.035	15652.8
510.238	15871.93
510.44	16191.41
510.643	16641.96
510.845	17084.33
511.048	17113
511.25	17627.04
511.453	18012.06
511.655	18794.38
511.858	18958.22
512.06	19466.11
512.262	19679.1
512.465	19896.19
512.667	20432.75
512.87	21079.91
513.072	21585.76
513.274	21890.91
513.477	22679.38
513.679	23103.31
513.881	23678.79
514.084	23996.22
514.286	24348.47
514.488	25026.35
514.69	25837.34
514.893	26408.73
515.095	26652.44
515.297	27160.33
515.499	27692.8
515.701	28169.98
515.904	29023.98
516.106	29857.51
516.308	29867.75
516.51	30826.2
516.712	30961.36
516.914	32329.41
517.116	32695.99
517.318	33044.15
517.52	33769.13
517.722	34049.7
517.925	35051.16
518.127	35882.63
518.329	36077.19
518.531	36376.19
518.733	37516.91
518.935	38137.44
519.136	38288.99
519.338	39302.74
519.54	39480.91
519.742	40351.3
519.944	40578.62
520.146	41889.32
520.348	42159.66
520.55	42606.11
520.752	42864.16
520.954	43838.99
521.155	43855.37
521.357	44535.3
521.559	45032.96
521.761	45639.15
521.963	46259.69
522.164	46519.78
522.366	46865.89
522.568	47703.51
522.77	47568.34
522.971	48203.21
523.173	48184.78
523.375	48659.91
523.576	48969.15
523.778	48831.94
523.98	49958.32
524.181	49581.49
524.383	49739.19
524.584	50257.32
524.786	50214.32
524.988	49692.08
525.189	50521.51
525.391	50290.09
525.592	50404.78
525.794	50607.53
525.995	50615.72
526.197	50179.5
526.398	50570.66
526.6	50478.5
526.801	50146.73
527.003	50359.72
527.204	49905.07
527.406	49647.03
527.607	50050.48
527.808	49589.69
528.01	48518.6
528.211	48983.49
528.412	49337.79
528.614	48821.7
528.815	48586.18
529.016	48213.45
529.218	47224.28
529.419	47263.19
529.62	46810.59
529.822	46401
530.023	46083.56
530.224	45596.15
530.425	45211.13
530.626	44355.08
530.828	44115.47
531.029	44983.8
531.23	43116.06
531.431	42835.49
531.632	42454.56
531.833	42481.19
532.035	41684.53
532.236	41285.17
532.437	40769.08
532.638	40103.49
532.839	40103.49
533.04	39409.23
533.241	38489.7
533.442	38645.34
533.643	37475.95
533.844	37504.62
534.045	36779.64
534.246	36341.38
534.447	36351.62
534.648	35659.4
534.849	35090.07
535.05	34463.39
535.251	34016.93
535.451	33812.13
535.652	33263.28
535.853	32708.28
536.054	32521.91
536.255	32143.04
536.456	31067.86
536.657	31375.05
536.857	30723.8
537.058	29832.93
537.259	29708.01
537.46	29626.09
537.66	29009.65
537.861	28530.42
538.062	28464.89
538.263	27899.65
538.463	27442.95
538.664	27358.99
538.865	27055.89
539.065	26695.44
539.266	25882.4
539.466	25894.69
539.667	25493.29
539.868	25704.23
540.068	25104.17
540.269	24866.61
540.469	24674.1
540.67	24090.43
540.87	23619.39
541.071	23320.39
541.271	23187.27
541.472	23211.85
541.672	23105.35
541.873	22587.22
542.073	21954.4
542.274	22216.54
542.474	21759.84
542.675	21499.75
542.875	21348.2
543.075	21026.67
543.276	20563.82
543.476	20883.31
543.676	20285.3
543.877	20107.13
544.077	20021.11
544.277	19801.98
544.478	19548.03
544.678	19371.91
544.878	18935.69
545.078	18919.31
545.279	18628.49
545.479	17991.58
545.679	17926.04
545.879	17915.8
546.079	17684.38
546.28	17422.24
546.48	17274.79
546.68	17278.88
546.88	16947.11
547.08	16897.96
547.28	16818.09
547.48	16353.2
547.68	16420.78
547.88	15943.61
548.081	16005.05
548.281	15566.78
548.481	15325.12
548.681	15105.99
548.881	15235.01
549.081	15019.97
549.28	14491.6
549.48	14518.22
549.68	14196.69
549.88	14198.74
550.08	13725.66
550.28	13553.63
550.48	13666.27
550.68	13506.52
550.88	13066.21
551.08	12863.46
551.279	12769.26
551.479	12382.19
551.679	12343.28
551.879	12144.63
552.079	12206.06
552.278	11937.78
552.478	11749.37
552.678	11511.8
552.878	11468.8
553.077	11180.03
553.277	10917.89
553.477	10854.41
553.676	10883.08
553.876	10762.25
554.076	10416.14
554.275	10070.03
554.475	9764.89
554.674	9873.43
554.874	9781.27
555.074	9396.25
555.273	9517.08
555.473	9113.63
555.672	8867.88
555.872	9015.33
556.071	8853.54
556.271	8857.64
556.47	8710.18
556.67	8269.87
556.869	8228.91
557.068	8159.28
557.268	8048.69
557.467	7841.84
557.667	7925.81
557.866	7444.54
558.065	7548.98
558.265	7409.72
558.464	7288.89
558.663	7243.84
558.863	7245.88
559.062	7036.99
559.261	6836.29
559.461	6821.95
559.66	6549.57
559.859	6580.29
560.058	6334.54
560.258	6172.75
560.457	6133.84
560.656	6105.17
560.855	5785.68
561.054	5892.18
561.253	5652.56
561.453	5808.21
561.652	5709.91
561.851	5634.13
562.05	5431.38
562.249	5285.98
562.448	5480.54
562.647	5189.72
562.846	5265.5
563.045	5234.78
563.244	4991.07
563.443	5023.84
563.642	4737.12
563.841	4825.19
564.04	4751.46
564.239	4651.11
564.438	4556.9
564.637	4315.24
564.836	4358.25
565.035	4399.21
565.234	4247.66
565.432	4253.8
565.631	4376.68
565.83	4020.33
566.029	4110.44
566.228	3987.57
566.427	4083.82
566.625	3893.36
566.824	3917.93
567.023	3831.92
567.222	3575.92
567.42	3639.41
567.619	3596.4
567.818	3608.69
568.016	3737.71
568.215	3545.2
568.414	3391.61
568.612	3252.35
568.811	3434.61
569.01	3266.68
569.208	3283.06
569.407	3213.43
569.605	3133.56
569.804	3117.18
570.002	3172.47
570.201	2926.72
570.4	2965.63
570.598	2824.32
570.797	3061.88
570.995	2959.49
571.193	2842.75
571.392	2807.94
571.59	2625.67
571.789	2648.19
571.987	2670.72
572.186	2685.06
572.384	2590.85
572.582	2533.51
572.781	2472.07
572.979	2361.48
573.177	2441.35
573.376	2373.77
573.574	2433.16
573.772	2289.8
573.971	2222.22
574.169	2238.6
574.367	2293.9
574.565	2146.44
574.763	2107.53
574.962	2179.21
575.16	2035.85
575.358	2007.18
575.556	2078.86
575.754	1990.8
575.952	1939.6
576.151	1947.79
576.349	1966.22
576.547	1677.46
576.745	1865.87
576.943	1886.35
577.141	1732.75
577.339	1679.51
577.537	1706.13
577.735	1732.75
577.933	1673.36
578.131	1566.87
578.329	1738.9
578.527	1595.54
578.725	1542.29
578.923	1503.38
579.121	1616.02
579.319	1355.93
579.516	1437.84
579.714	1525.91
579.912	1443.99
580.11	1276.06
580.308	1411.22
580.506	1382.55
580.704	1271.96
580.901	1165.46
581.099	1353.88
581.297	1306.77
581.495	1274.01
581.692	1187.99
581.89	1421.46
582.088	1071.26
582.285	1249.43
582.483	1208.47
582.681	1157.27
582.878	1149.08
583.076	1177.75
583.274	1009.82
583.471	1194.14
583.669	1079.45
583.866	972.96
584.064	1011.87
584.262	899.23
584.459	940.19
584.657	1128.6
584.854	1122.46
585.052	950.43
585.249	940.19
585.447	1056.92
585.644	925.85
585.841	948.38
586.039	927.9
586.236	956.57
586.434	868.51
586.631	774.3
586.828	880.8
587.026	845.98
587.223	764.06
587.42	841.89
587.618	958.62
587.815	841.89
588.012	901.28
588.21	739.49
588.407	891.04
588.604	786.59
588.801	751.78
588.999	719.01
589.196	835.74
589.393	739.49
589.59	727.2
589.787	749.73
589.984	749.73
590.182	676
590.379	702.62
590.576	712.86
590.773	682.14
590.97	714.91
591.167	751.78
591.364	725.15
591.561	686.24
591.758	764.06
591.955	745.63
592.152	700.58
592.349	737.44
592.546	671.9
592.743	653.47
592.94	635.04
593.137	676
593.334	747.68
593.531	870.56
593.727	747.68
593.924	649.38
594.121	706.72
594.318	759.97
594.515	768.16
594.712	772.25
594.908	823.45
595.105	606.37
595.302	649.38
595.499	706.72
595.696	757.92
595.892	721.06
596.089	882.85
596.286	743.58
596.482	903.32
596.679	831.65
596.876	766.11
597.072	864.41
597.269	864.41
597.466	954.52
597.662	880.8
597.859	911.52
598.055	897.18
598.252	940.19
598.448	1046.68
598.645	1063.07
598.841	1173.66
599.038	1294.49
599.234	1210.52
599.431	1220.76
599.627	1274.01
599.824	1294.49
600.02	1341.59
600.217	1337.49
600.413	1366.17
600.609	1482.9
600.806	1734.8
601.002	1638.55
601.198	1585.3
601.395	1816.72
601.591	1808.53
601.787	1829.01
601.984	1814.67
602.18	2074.76
602.376	2060.43
602.572	2269.32
602.769	2199.69
602.965	2314.38
603.161	2209.93
603.357	2547.84
603.553	2498.69
603.75	2545.8
603.946	2650.24
604.142	2758.78
604.338	3082.36
604.534	2984.06
604.73	2949.25
604.926	3096.7
605.122	3362.94
605.318	3426.42
605.514	3459.19
605.71	3481.72
605.906	3700.85
606.102	3856.5
606.298	3922.03
606.494	4075.63
606.69	4231.27
606.886	4376.68
607.082	4311.14
607.278	4425.83
607.474	4595.81
607.67	4722.79
607.866	4794.47
608.062	5113.95
608.257	5128.28
608.453	5107.8
608.649	5662.8
608.845	5462.1
609.041	5662.8
609.236	5883.98
609.432	5970
609.628	6107.21
609.824	6398.03
610.019	6445.13
610.215	6678.6
610.411	7131.2
610.606	7143.49
610.802	7239.74
610.998	7442.49
611.193	7688.25
611.389	7829.56
611.584	8198.19
611.78	8142.89
611.976	8517.67
612.171	8833.06
612.367	9095.2
612.562	8998.95
612.758	9242.65
612.953	9619.48
613.149	9832.47
613.344	9877.52
613.539	10680.33
613.735	10727.43
613.93	10868.74
614.126	11069.44
614.321	11608.06
614.517	11751.42
614.712	12296.18
614.907	12652.52
615.103	12761.06
615.298	12937.19
615.493	13404.13
615.688	13584.35
615.884	14260.18
616.079	14176.21
616.274	14905.29
616.47	15235.01
616.665	15400.9
616.86	15861.69
617.055	16189.36
617.25	16381.87
617.445	17313.7
617.641	17264.55
617.836	17797.02
618.031	17993.62
618.226	18974.6
618.421	19060.62
618.616	19965.82
618.811	20037.5
619.006	20694.89
619.201	20803.44
619.396	21747.55
619.591	21630.82
619.786	22706
619.981	22941.52
620.176	23627.59
620.371	23582.53
620.566	24430.39
620.761	25087.79
620.956	25655.08
621.151	25558.82
621.346	26558.23
621.541	26615.57
621.735	27399.94
621.93	27637.51
622.125	28641.01
622.32	28538.62
622.515	29320.94
622.709	29871.84
622.904	30117.6
623.099	31002.32
623.294	31911.62
623.488	32171.71
623.683	32880.31
623.878	32796.34
624.072	33644.2
624.267	34471.58
624.462	34410.14
624.656	34719.38
624.851	35481.23
625.046	36390.53
625.24	36556.41
625.435	37219.95
625.629	37523.05
625.824	38067.81
626.018	38803.03
626.213	38522.46
626.407	39333.46
626.602	39382.61
626.796	40015.43
626.991	40556.1
627.185	40941.11
627.38	41227.83
627.574	41414.19
627.768	41582.13
627.963	41721.39
628.157	41625.14
628.352	42157.61
628.546	41717.29
628.74	42599.97
628.935	41862.7
629.129	42307.11
629.323	41756.21
629.517	41631.28
629.712	41557.55
629.906	41176.63
630.1	40640.06
630.294	40521.28
630.489	40232.52
630.683	39773.77
630.877	39155.29
631.071	38338.15
631.265	38035.05
631.459	37254.77
631.653	36415.1
631.848	35532.43
632.042	34336.41
632.236	33984.16
632.43	33005.24
632.624	32700.09
632.818	31504.07
633.012	30086.88
633.206	29384.43
633.4	28974.83
633.594	27223.82
633.788	26898.19
633.982	26005.28
634.176	24944.43
634.369	24211.26
634.563	23301.96
634.757	22140.76
634.951	21469.03
635.145	20504.43
635.339	19580.8
635.533	19169.16
635.726	18458.51
635.92	17592.22
636.114	16650.16
636.308	16197.56
636.501	15454.14
636.695	15343.55
636.889	14106.58
637.083	13514.72
637.276	13230.05
637.47	12498.92
637.664	12193.78
637.857	11646.97
638.051	11307.01
638.244	10690.57
638.438	10242.06
638.632	9861.14
638.825	9295.9
639.019	9392.16
639.212	8828.96
639.406	8437.8
639.599	8235.05
639.793	7792.69
639.986	7534.65
640.18	7215.16
640.373	6983.74
640.567	6412.36
640.76	6365.26
640.954	6008.91
641.147	5820.5
641.34	5638.23
641.534	5371.99
641.727	5296.22
641.92	5046.37
642.114	4782.18
642.307	4536.42
642.5	4526.18
642.694	4337.77
642.887	4200.55
643.08	4184.17
643.273	3967.09
643.467	3520.63
643.66	3594.36
643.853	3444.85
644.046	3274.87
644.239	3102.84
644.432	2998.4
644.626	2959.49
644.819	2852.99
645.012	2740.35
645.205	2648.19
645.398	2545.8
645.591	2365.57
645.784	2283.66
645.977	2203.79
646.17	2232.46
646.363	1986.7
646.556	1919.12
646.749	2007.18
646.942	1859.73
647.135	1937.55
647.328	1757.33
647.521	1683.6
647.714	1675.41
647.907	1648.79
648.099	1441.94
648.292	1468.56
648.485	1378.45
648.678	1343.64
648.871	1263.77
649.064	1276.06
649.256	1089.69
649.449	1095.83
649.642	1147.03
649.835	1091.74
650.027	1003.68
650.22	981.15
650.413	874.65
650.605	1013.92
650.798	862.37
650.991	813.21
651.183	786.59
651.376	870.56
651.568	823.45
651.761	723.1
651.954	749.73
652.146	676
652.339	802.97
652.531	716.96
652.724	641.18
652.916	686.24
653.109	491.68
653.301	702.62
653.494	559.27
653.686	573.6
653.879	686.24
654.071	577.7
654.263	471.2
654.456	487.59
654.648	565.41
654.84	442.53
655.033	471.2
655.225	549.03
655.417	352.42
655.61	544.93
655.802	508.07
655.994	518.31
656.186	303.27
656.379	456.87
656.571	321.7
656.763	325.8
656.955	344.23
657.148	342.18
657.34	458.92
657.532	331.94
657.724	327.85
657.916	295.08
658.108	325.8
658.3	325.8
658.492	377
658.684	243.88
658.876	379.04
659.068	268.45
659.26	145.58
659.452	260.26
659.644	256.17
659.836	325.8
660.028	256.17
660.22	202.92
660.412	309.41
660.604	219.3
660.796	235.69
660.988	241.83
661.18	280.74
661.372	256.17
661.563	172.2
661.755	211.11
661.947	178.34
662.139	194.73
662.331	192.68
662.522	200.87
662.714	166.06
662.906	131.24
663.097	262.31
663.289	209.06
663.481	98.47
663.673	168.1
663.864	211.11
664.056	225.45
664.247	112.81
664.439	225.45
664.631	262.31
664.822	211.11
665.014	196.78
665.205	112.81
665.397	86.19
665.588	178.34
665.78	125.1
665.971	186.54
666.163	153.77
666.354	145.58
666.546	180.39
666.737	131.24
666.929	231.59
667.12	88.23
667.311	114.86
667.503	118.95
667.694	164.01
667.885	164.01
668.077	184.49
668.268	2.22
668.459	207.02
668.651	174.25
668.842	194.73
669.033	22.7
669.224	112.81
669.416	319.65
669.607	90.28
669.798	80.04
669.989	186.54
670.18	100.52
670.371	194.73
670.563	137.38
670.754	245.93
670.945	245.93
671.136	164.01
671.327	129.19
671.518	272.55
671.709	280.74
671.9	209.06
672.091	250.02
672.282	190.63
672.473	168.1
672.664	106.67
672.855	176.3
673.046	166.06
673.237	252.07
673.428	98.47
673.619	284.84
673.809	141.48
674	264.36
674.191	155.82
674.382	129.19
674.573	112.81
674.764	141.48
674.954	215.21
675.145	159.91
675.336	67.75
675.527	149.67
675.717	65.71
675.908	180.39
676.099	77.99
676.289	161.96
676.48	141.48
676.671	174.25
676.861	51.37
677.052	247.97
677.243	200.87
677.433	110.76
677.624	149.67
677.814	204.97
678.005	45.23
678.195	303.27
678.386	133.29
678.576	112.81
678.767	63.66
678.957	149.67
679.148	256.17
679.338	280.74
679.529	161.96
679.719	133.29
679.909	243.88
680.1	303.27
680.29	229.54
680.481	110.76
680.671	209.06
680.861	186.54
681.052	245.93
681.242	129.19
681.432	264.36
681.622	233.64
681.813	143.53
682.003	139.43
682.193	118.95
682.383	213.16
682.573	133.29
682.764	190.63
682.954	159.91
683.144	338.09
683.334	147.62
683.524	207.02
683.714	153.77
683.904	254.12
684.094	184.49
684.284	217.26
684.474	346.28
684.664	215.21
684.854	209.06
685.044	227.5
685.234	180.39
685.424	172.2
685.614	186.54
685.804	368.81
685.994	247.97
686.184	219.3
686.374	188.58
686.564	235.69
686.753	172.2
686.943	47.27
687.133	209.06
687.323	151.72
687.513	254.12
687.702	174.25
687.892	147.62
688.082	227.5
688.272	290.98
688.461	182.44
688.651	290.98
688.841	217.26
689.03	153.77
689.22	159.91
689.41	219.3
689.599	192.68
689.789	116.9
689.979	342.18
690.168	180.39
690.358	258.21
690.547	155.82
690.737	166.06
690.926	237.74
691.116	288.93
691.305	250.02
691.495	276.65
691.684	202.92
691.874	145.58
692.063	254.12
692.252	270.5
692.442	184.49
692.631	190.63
692.82	159.91
693.01	176.3
693.199	215.21
693.388	223.4
693.578	157.86
693.767	215.21
693.956	268.45
694.146	245.93
694.335	284.84
694.524	166.06
694.713	247.97
694.902	127.14
695.092	90.28
695.281	213.16
695.47	196.78
695.659	125.1
695.848	121
696.037	143.53
696.226	272.55
696.415	98.47
696.604	274.6
696.793	256.17
696.982	172.2
697.171	379.04
697.36	153.77
697.549	186.54
697.738	65.71
697.927	166.06
698.116	41.13
698.305	256.17
698.494	110.76
698.683	157.86
698.872	276.65
699.061	161.96
699.25	153.77
699.438	161.96
699.627	92.33
699.816	315.56
700.005	147.62
700.193	141.48
700.382	211.11
700.571	272.55
700.76	180.39
700.948	262.31
701.137	209.06
701.326	264.36
701.514	188.58
701.703	245.93
701.892	186.54
702.08	338.09
702.269	211.11
702.457	121
702.646	147.62
702.834	196.78
703.023	188.58
703.212	254.12
703.4	155.82
703.589	139.43
703.777	104.62
703.965	96.43
704.154	180.39
704.342	168.1
704.531	143.53
704.719	186.54
704.907	264.36
705.096	172.2
705.284	104.62
705.472	141.48
705.661	221.35
705.849	235.69
706.037	274.6
706.226	155.82
706.414	209.06
706.602	168.1
706.79	223.4
706.979	104.62
707.167	217.26
707.355	-26.45
707.543	178.34
707.731	149.67
707.919	194.73
708.107	137.38
708.296	174.25
708.484	202.92
708.672	98.47
708.86	127.14
709.048	164.01
709.236	125.1
709.424	190.63
709.612	145.58
709.8	59.56
709.988	149.67
710.176	321.7
710.364	282.79
710.551	161.96
710.739	145.58
710.927	209.06
711.115	276.65
711.303	250.02
711.491	159.91
711.679	129.19
711.866	270.5
712.054	211.11
712.242	221.35
712.43	252.07
712.617	90.28
712.805	227.5
712.993	198.82
713.181	69.8
713.368	258.21
713.556	164.01
713.744	125.1
713.931	344.23
714.119	258.21
714.306	141.48
714.494	149.67
714.682	204.97
714.869	73.9
715.057	157.86
715.244	116.9
715.432	159.91
715.619	121
715.807	133.29
715.994	159.91
716.182	209.06
716.369	225.45
716.556	209.06
716.744	106.67
716.931	94.38
717.119	188.58
717.306	129.19
717.493	155.82
717.681	139.43
717.868	204.97
718.055	217.26
718.242	139.43
718.43	217.26
718.617	293.03
718.804	184.49
718.991	301.22
719.179	204.97
719.366	276.65
719.553	211.11
719.74	250.02
719.927	141.48
720.114	225.45
720.301	180.39
720.488	157.86
720.676	137.38
720.863	243.88
721.05	344.23
721.237	235.69
721.424	252.07
721.611	161.96
721.798	49.32
721.985	190.63
722.172	284.84
722.358	207.02
722.545	274.6
722.732	204.97
722.919	258.21
723.106	241.83
723.293	237.74
723.48	254.12
723.667	110.76
723.853	200.87
724.04	211.11
724.227	237.74
724.414	129.19
724.6	250.02
724.787	305.32
724.974	323.75
725.161	260.26
725.347	223.4
725.534	141.48
725.72	190.63
725.907	321.7
726.094	264.36
726.28	190.63
726.467	247.97
726.653	110.76
726.84	340.13
727.027	282.79
727.213	186.54
727.4	209.06
727.586	237.74
727.773	202.92
727.959	182.44
728.145	274.6
728.332	202.92
728.518	207.02
728.705	256.17
728.891	264.36
729.077	213.16
729.264	137.38
729.45	186.54
729.636	295.08
729.823	168.1
730.009	256.17
730.195	280.74
730.382	303.27
730.568	157.86
730.754	256.17
730.94	286.89
731.126	245.93
731.313	247.97
731.499	227.5
731.685	256.17
731.871	217.26
732.057	166.06
732.243	264.36
732.429	280.74
732.615	309.41
732.801	264.36
732.987	268.45
733.173	233.64
733.359	168.1
733.545	202.92
733.731	299.17
733.917	286.89
734.103	276.65
734.289	250.02
734.475	159.91
734.661	424.1
734.847	190.63
735.033	217.26
735.219	268.45
735.404	276.65
735.59	192.68
735.776	219.3
735.962	247.97
736.148	245.93
736.333	307.37
736.519	182.44
736.705	178.34
736.89	297.13
737.076	290.98
737.262	196.78
737.447	188.58
737.633	202.92
737.819	280.74
738.004	237.74
738.19	258.21
738.375	247.97
738.561	327.85
738.747	243.88
738.932	188.58
739.118	426.15
739.303	262.31
739.489	344.23
739.674	161.96
739.859	94.38
740.045	190.63
740.23	194.73
740.416	100.52
740.601	254.12
740.786	235.69
740.972	143.53
741.157	170.15
741.342	145.58
741.528	141.48
741.713	338.09
741.898	172.2
742.084	264.36
742.269	325.8
742.454	256.17
742.639	307.37
742.824	166.06
743.01	245.93
743.195	348.33
743.38	166.06
743.565	200.87
743.75	247.97
743.935	288.93
744.12	260.26
744.305	147.62
744.49	176.3
744.675	266.41
744.86	250.02
745.045	243.88
745.23	321.7
745.415	258.21
745.6	331.94
745.785	157.86
745.97	274.6
746.155	250.02
746.34	223.4
746.525	227.5
746.71	264.36
746.895	151.72
747.079	151.72
747.264	168.1
747.449	229.54
747.634	274.6
747.819	243.88
748.003	141.48
748.188	84.14
748.373	336.04
748.557	194.73
748.742	200.87
748.927	250.02
749.111	211.11
749.296	166.06
749.481	221.35
749.665	174.25
749.85	133.29
750.034	235.69
750.219	225.45
750.404	159.91
750.588	231.59
750.773	108.71
750.957	241.83
751.141	145.58
751.326	254.12
751.51	137.38
751.695	241.83
751.879	178.34
752.064	313.51
752.248	202.92
752.432	276.65
752.617	266.41
752.801	293.03
752.985	116.9
753.17	333.99
753.354	114.86
753.538	225.45
753.722	188.58
753.907	149.67
754.091	88.23
754.275	176.3
754.459	108.71
754.643	94.38
754.828	155.82
755.012	178.34
755.196	65.71
755.38	192.68
755.564	159.91
755.748	104.62
755.932	184.49
756.116	215.21
756.3	159.91
756.484	75.95
756.668	180.39
756.852	16.55
757.036	104.62
757.22	186.54
757.404	143.53
757.588	100.52
757.772	194.73
757.956	82.09
758.14	252.07
758.323	86.19
758.507	217.26
758.691	151.72
758.875	194.73
759.059	233.64
759.242	112.81
759.426	155.82
759.61	168.1
759.794	45.23
759.977	147.62
760.161	311.46
760.345	143.53
760.528	127.14
760.712	190.63
760.895	145.58
761.079	217.26
761.263	43.18
761.446	59.56
761.63	133.29
761.813	110.76
761.997	77.99
762.18	77.99
762.364	133.29
762.547	-40.79
762.731	159.91
762.914	53.42
763.098	51.37
763.281	125.1
763.464	71.85
763.648	110.76
763.831	116.9
764.015	106.67
764.198	174.25
764.381	123.05
764.564	57.51
764.748	118.95
764.931	145.58
765.114	57.51
765.297	213.16
765.481	51.37
765.664	61.61
765.847	110.76
766.03	260.26
766.213	67.75
766.397	106.67
766.58	80.04
766.763	157.86
766.946	100.52
767.129	110.76
767.312	-40.79
767.495	118.95
767.678	45.23
767.861	84.14
768.044	106.67
768.227	104.62
768.41	82.09
768.593	108.71
768.776	61.61
768.959	69.8
769.142	118.95
769.324	53.42
769.507	100.52
769.69	12.46
769.873	121
770.056	258.21
770.239	151.72
770.421	131.24
770.604	86.19
770.787	127.14
770.97	73.9
771.152	37.03
771.335	98.47
771.518	26.79
771.7	202.92
771.883	256.17
772.066	-5.97
772.248	41.13
772.431	198.82
772.613	133.29
772.796	141.48
772.978	114.86
773.161	153.77
773.343	80.04
773.526	18.6
773.708	-24.4
773.891	-24.4
774.073	90.28
774.256	26.79
774.438	247.97
774.621	41.13
774.803	108.71
774.985	-22.36
775.168	180.39
775.35	108.71
775.532	112.81
775.715	-10.07
775.897	127.14
776.079	41.13
776.261	116.9
776.444	98.47
776.626	67.75
776.808	2.22
776.99	-44.88
777.173	34.99
777.355	88.23
777.537	104.62
777.719	137.38
777.901	22.7
778.083	-32.6
778.265	-20.31
778.447	121
778.629	22.7
778.811	-30.55
778.993	100.52
779.175	88.23
779.357	61.61
779.539	-110.42
779.721	34.99
779.903	127.14
780.085	49.32
780.267	114.86
780.449	106.67
780.631	125.1
780.812	170.15
780.994	84.14
781.176	63.66
781.358	39.08
781.54	71.85
781.721	92.33
781.903	108.71
782.085	57.51
782.267	98.47
782.448	-104.28
782.63	20.65
782.812	28.84
782.993	125.1
783.175	84.14
783.357	6.31
783.538	32.94
783.72	51.37
783.901	45.23
784.083	151.72
784.264	53.42
784.446	-75.6
784.627	43.18
784.809	65.71
784.99	55.47
785.172	45.23
785.353	14.51
785.535	43.18
785.716	8.36
785.897	45.23
786.079	28.84
786.26	94.38
786.441	73.9
786.623	-46.93
786.804	16.55
786.985	49.32
787.167	123.05
787.348	90.28
787.529	-3.93
787.71	194.73
787.891	129.19
788.073	108.71
788.254	-40.79
788.435	127.14
788.616	-10.07
788.797	-5.97
788.978	30.89
789.159	37.03
789.34	43.18
789.522	2.22
789.703	-75.6
789.884	45.23
790.065	86.19
790.246	125.1
790.427	30.89
790.607	96.43
790.788	139.43
790.969	-51.03
791.15	34.99
791.331	16.55
791.512	-38.74
791.693	-65.36
791.874	0.17
792.054	227.5
792.235	121
792.416	16.55
792.597	-34.64
792.778	65.71
792.958	135.34
793.139	73.9
793.32	34.99
793.5	8.36
793.681	121
793.862	102.57
794.042	34.99
794.223	-48.98
794.404	133.29
794.584	-69.46
794.765	-5.97
794.945	32.94
795.126	22.7
795.306	127.14
795.487	26.79
795.667	-14.17
795.848	59.56
796.028	106.67
796.209	47.27
796.389	172.2
796.57	32.94
796.75	-81.75
796.93	10.41
797.111	-57.17
797.291	-44.88
797.471	28.84
797.652	22.7
797.832	0.17
798.012	39.08
798.192	-8.02
798.373	-18.26
798.553	-36.69
798.733	12.46
798.913	47.27
799.093	-28.5
799.274	-40.79
799.454	77.99
799.634	127.14
799.814	43.18
799.994	34.99
800.174	86.19
800.354	-44.88
800.534	-108.37
800.714	98.47
800.894	-18.26
801.074	-114.52
801.254	-36.69
801.434	104.62
801.614	-8.02
801.794	-51.03
801.974	1693.84
802.154	-57.17
802.334	133.29
802.514	-8.02
802.693	-12.12
802.873	-10.07
803.053	135.34
803.233	34.99
803.413	20.65
803.592	10.41
803.772	-40.79
803.952	53.42
804.131	-59.22
804.311	26.79
804.491	104.62
804.67	24.75
804.85	-5.97
805.03	18.6
805.209	123.05
805.389	-28.5
805.568	-5.97
805.748	-1.88
805.928	22.7
806.107	30.89
806.287	43.18
806.466	32.94
806.646	14.51
806.825	104.62
807.004	8.36
807.184	127.14
807.363	20.65
807.543	114.86
807.722	24.75
807.901	135.34
808.081	118.95
808.26	-65.36
808.439	20.65
808.619	0.17
808.798	-14.17
808.977	-28.5
809.156	73.9
809.336	-83.8
809.515	30.89
809.694	12.46
809.873	-69.46
810.052	49.32
810.231	22.7
810.411	-14.17
810.59	133.29
810.769	20.65
810.948	22.7
811.127	-71.51
811.306	-1.88
811.485	59.56
811.664	86.19
811.843	-18.26
812.022	24.75
812.201	-22.36
812.38	10.41
812.559	-18.26
812.737	82.09
812.916	-143.19
813.095	-51.03
813.274	63.66
813.453	-67.41
813.632	37.03
813.811	71.85
813.989	-5.97
814.168	0.17
814.347	-5.97
814.526	-16.21
814.704	184.49
814.883	86.19
815.062	-51.03
815.24	6.31
815.419	-79.7
815.598	51.37
815.776	-118.61
815.955	-10.07
816.133	-42.84
816.312	20.65
816.49	18.6
816.669	18.6
816.847	14.51
817.026	53.42
817.204	6.31
817.383	-48.98
817.561	-48.98
817.74	53.42
817.918	43.18
818.097	-3.93
818.275	-42.84
818.453	57.51
818.632	12.46
818.81	10.41
818.988	-16.21
819.167	-89.94
819.345	-36.69
819.523	-108.37
819.701	10.41
819.879	37.03
820.058	69.8
820.236	67.75
820.414	41.13
820.592	-94.04
820.77	-22.36
820.948	26.79
821.127	-3.93
821.305	45.23
821.483	-59.22
821.661	90.28
821.839	59.56
822.017	4.27
822.195	-20.31
822.373	71.85
822.551	8.36
822.729	26.79
822.907	22.7
823.085	53.42
823.262	-12.12
823.44	-55.12
823.618	-46.93
823.796	45.23
823.974	-36.69
824.152	-8.02
824.329	125.1
824.507	108.71
824.685	100.52
824.863	-18.26
825.04	-40.79
825.218	88.23
825.396	8.36
825.574	55.47
825.751	8.36
825.929	61.61
826.107	-30.55
826.284	20.65
826.462	53.42
826.639	-51.03
826.817	-32.6
826.994	104.62
827.172	-24.4
827.349	129.19
827.527	94.38
827.704	8.36
827.882	159.91
828.059	-18.26
828.237	-10.07
828.414	45.23
828.591	-124.76
828.769	51.37
828.946	-102.23
829.124	92.33
829.301	118.95
829.478	2.22
829.655	30.89
829.833	-1.88
830.01	-122.71
830.187	18.6
830.364	61.61
830.542	47.27
830.719	108.71
830.896	6.31
831.073	-5.97
831.25	41.13
831.427	116.9
831.604	-18.26
831.782	-5.97
831.959	155.82
832.136	-14.17
832.313	-20.31
832.49	-46.93
832.667	22.7
832.844	-48.98
833.021	106.67
833.198	-32.6
833.374	-42.84
833.551	34.99
833.728	47.27
833.905	82.09
834.082	-120.66
834.259	4.27
834.436	61.61
834.612	-40.79
834.789	30.89
834.966	6.31
835.143	49.32
835.319	-32.6
835.496	94.38
835.673	-24.4
835.85	94.38
836.026	73.9
836.203	96.43
836.38	80.04
836.556	22.7
836.733	41.13
836.909	159.91
837.086	-24.4
837.262	-81.75
837.439	51.37
837.616	6.31
837.792	51.37
837.968	32.94
838.145	-22.36
838.321	-10.07
838.498	32.94
838.674	98.47
838.851	-12.12
839.027	-30.55
839.203	-10.07
839.38	37.03
839.556	-61.27
839.732	20.65
839.909	4.27
840.085	8.36
840.261	-5.97
840.437	39.08
840.614	-30.55
840.79	53.42
840.966	84.14
841.142	8.36
841.318	24.75
841.494	61.61
841.671	96.43
841.847	-53.08
842.023	-57.17
842.199	73.9
842.375	20.65
842.551	-87.89
842.727	59.56
842.903	161.96
843.079	-44.88
843.255	82.09
843.431	-1.88
843.607	92.33
843.783	-61.27
843.959	18.6
844.134	-75.6
844.31	82.09
844.486	-32.6
844.662	-44.88
844.838	8.36
845.013	14.51
845.189	6.31
845.365	-12.12
845.541	24.75
845.716	12.46
845.892	55.47
846.068	-32.6
846.244	-85.84
846.419	37.03
846.595	-16.21
846.77	-26.45
846.946	92.33
847.122	-18.26
847.297	-1.88
847.473	127.14
847.648	-100.18
847.824	32.94
847.999	20.65
848.175	4.27
848.35	18.6
848.526	104.62
848.701	121
848.876	80.04
849.052	63.66
849.227	26.79
849.403	34.99
849.578	-28.5
849.753	-57.17
849.929	-30.55
850.104	-89.94
850.279	86.19
850.454	28.84
850.63	116.9
850.805	96.43
850.98	22.7
851.155	12.46
851.33	26.79
851.505	-16.21
851.681	192.68
851.856	-151.38
852.031	57.51
852.206	125.1
852.381	-79.7
852.556	24.75
852.731	104.62
852.906	45.23
853.081	118.95
853.256	47.27
853.431	-55.12
853.606	-38.74
853.781	-73.56
853.956	-126.8
854.131	80.04
854.305	-135
854.48	-42.84
854.655	20.65
854.83	8.36
855.005	6.31
855.18	-10.07
855.354	28.84
855.529	-5.97
855.704	22.7
855.879	75.95
856.053	-5.97
856.228	90.28
856.403	-81.75
856.577	49.32
856.752	-182.1
856.926	-3.93
857.101	-12.12
857.276	-108.37
857.45	-34.64
857.625	-8.02
857.799	47.27
857.974	14.51
858.148	-87.89
858.323	-14.17
858.497	14.51
858.672	4.27
858.846	-38.74
859.02	73.9
859.195	-89.94
859.369	20.65
859.543	47.27
859.718	18.6
859.892	-8.02
860.066	24.75
860.241	6.31
860.415	-94.04
860.589	10.41
860.763	86.19
860.938	-77.65
861.112	26.79
861.286	-55.12
861.46	-12.12
861.634	-38.74
861.808	45.23
861.982	20.65
862.157	-36.69
862.331	-22.36
862.505	-5.97
862.679	-24.4
862.853	-36.69
863.027	96.43
863.201	141.48
863.375	-65.36
863.549	4.27
863.722	-3.93
863.896	65.71
864.07	16.55
864.244	-1.88
864.418	49.32
864.592	18.6
864.766	104.62
864.939	34.99
865.113	-1.88
865.287	26.79
865.461	-83.8
865.634	34.99
865.808	-14.17
865.982	20.65
866.156	-87.89
866.329	-98.13
866.503	-12.12
866.676	65.71
866.85	22.7
867.024	-40.79
867.197	53.42
867.371	-1.88
867.544	28.84
867.718	-34.64
867.891	121
868.065	-94.04
868.238	37.03
868.412	112.81
868.585	12.46
868.759	-110.42
868.932	20.65
869.105	-14.17
869.279	102.57
869.452	-104.28
869.625	-24.4
869.799	-40.79
869.972	-96.08
870.145	8.36
870.319	45.23
870.492	-40.79
870.665	-14.17
870.838	-8.02
871.011	-85.84
871.185	-48.98
871.358	-42.84
871.531	59.56
871.704	14.51
871.877	41.13
872.05	32.94
872.223	-1.88
872.396	32.94
872.569	104.62
872.742	-75.6
872.915	-5.97
873.088	2.22
873.261	-85.84
873.434	39.08
873.607	-3.93
873.78	47.27
873.953	-122.71
874.126	100.52
874.299	57.51
874.471	49.32
874.644	2.22
874.817	0.17
874.99	145.58
875.163	-38.74
875.335	82.09
875.508	-16.21
875.681	69.8
875.853	-14.17
876.026	-18.26
876.199	34.99
876.371	-10.07
876.544	20.65
876.717	24.75
876.889	57.51
877.062	28.84
877.234	0.17
877.407	-46.93
877.579	-55.12
877.752	73.9
877.924	26.79
878.097	8.36
878.269	-10.07
878.442	24.75
878.614	45.23
878.786	43.18
878.959	-48.98
879.131	8.36
879.303	-147.28
879.476	6.31
879.648	73.9
879.82	-30.55
879.993	-28.5
880.165	-26.45
880.337	-59.22
880.509	-55.12
880.681	-73.56
880.854	-22.36
881.026	-57.17
881.198	129.19
881.37	18.6
881.542	45.23
881.714	-73.56
881.886	-12.12
882.058	-34.64
882.23	16.55
882.402	-18.26
882.574	-59.22
882.746	61.61
882.918	65.71
883.09	94.38
883.262	-3.93
883.434	-10.07
883.606	-63.32
883.778	-16.21
883.95	41.13
884.122	-5.97
884.293	125.1
884.465	-20.31
884.637	32.94
884.809	-3.93
884.98	80.04
885.152	-28.5
885.324	12.46
885.496	-102.23
885.667	-75.6
885.839	-28.5
886.011	110.76
886.182	49.32
886.354	39.08
886.525	-1.88
886.697	34.99
886.869	-16.21
887.04	-34.64
887.212	114.86
887.383	127.14
887.555	24.75
887.726	-61.27
887.897	-59.22
888.069	26.79
888.24	20.65
888.412	26.79
888.583	57.51
888.754	-20.31
888.926	-48.98
889.097	-1.88
889.268	-118.61
889.44	-14.17
889.611	-48.98
889.782	-55.12
889.953	-59.22
890.125	92.33
890.296	-89.94
890.467	-16.21
890.638	8.36
890.809	45.23
890.98	-46.93
891.151	53.42
891.323	110.76
891.494	-83.8
891.665	-61.27
891.836	18.6
892.007	-22.36
892.178	6.31
892.349	77.99
892.52	-14.17
892.691	-53.08
892.862	28.84
893.032	-112.47
893.203	-63.32
893.374	84.14
893.545	88.23
893.716	-3.93
893.887	14.51
894.057	-46.93
894.228	-1.88
894.399	-102.23
894.57	34.99
894.74	-30.55
894.911	-38.74
895.082	-67.41
895.253	20.65
895.423	10.41
895.594	90.28
895.764	41.13
895.935	-12.12
896.106	75.95
896.276	-57.17
896.447	-12.12
896.617	-132.95
896.788	-42.84
896.958	-98.13
897.129	-26.45
897.299	-100.18
897.47	67.75
897.64	61.61
897.81	-32.6
897.981	53.42
898.151	-83.8
898.322	39.08
898.492	30.89
898.662	-112.47
898.832	4.27
899.003	24.75
899.173	10.41
899.343	-59.22
899.513	-40.79
