Data from USB4F104151__45__10-43-15-777.txt Node

Date: Wed Feb 26 10:43:15 EST 2025
User: louis
Spectrometer: USB4F10415
Trigger mode: 4
Integration Time (sec): 1.000000E-1
Scans to average: 1
Electric dark correction enabled: true
Nonlinearity correction enabled: false
Boxcar width: 0
XAxis mode: Wavelengths
Number of Pixels in Spectrum: 3648
>>>>>Begin Spectral Data<<<<<
178.204	-399.52
178.424	-399.52
178.644	-399.52
178.864	-352.42
179.084	-407.72
179.304	-26.79
179.524	-12.46
179.744	75.6
179.964	36.69
180.184	26.45
180.404	20.31
180.624	-26.79
180.844	-6.31
181.064	-59.56
181.283	24.4
181.503	-47.27
181.723	-4.27
181.943	-92.33
182.163	214.87
182.383	-10.41
182.602	120.66
182.822	178
183.042	79.7
183.262	46.93
183.482	38.74
183.701	48.98
183.921	18.26
184.141	5.97
184.361	87.89
184.58	71.51
184.8	-6.31
185.02	-24.75
185.239	81.75
185.459	161.62
185.679	153.43
185.898	-80.04
186.118	46.93
186.338	53.08
186.557	126.8
186.777	12.12
186.997	1.88
187.216	-24.75
187.436	171.86
187.655	71.51
187.875	46.93
188.095	40.79
188.314	178
188.534	130.9
188.753	-16.55
188.973	71.51
189.192	190.29
189.412	3.93
189.631	69.46
189.851	-4.27
190.07	126.8
190.29	44.88
190.509	3.93
190.729	24.4
190.948	175.95
191.168	206.67
191.387	122.71
191.607	63.32
191.826	98.13
192.045	-10.41
192.265	77.65
192.484	155.47
192.704	85.84
192.923	-24.75
193.142	212.82
193.362	161.62
193.581	130.9
193.8	79.7
194.02	171.86
194.239	77.65
194.458	137.04
194.678	75.6
194.897	-22.7
195.116	32.6
195.335	87.89
195.555	102.23
195.774	-18.6
195.993	126.8
196.212	-30.89
196.432	3.93
196.651	67.41
196.87	87.89
197.089	272.21
197.308	63.32
197.528	130.9
197.747	1.88
197.966	48.98
198.185	122.71
198.404	-0.17
198.623	102.23
198.842	139.09
199.062	65.36
199.281	32.6
199.5	116.56
199.719	61.27
199.938	34.64
200.157	135
200.376	143.19
200.595	161.62
200.814	65.36
201.033	-14.51
201.252	214.87
201.471	12.12
201.69	55.12
201.909	34.64
202.128	100.18
202.347	89.94
202.566	85.84
202.785	-0.17
203.004	-45.23
203.223	272.21
203.442	59.22
203.661	-12.46
203.879	112.47
204.098	145.24
204.317	-4.27
204.536	89.94
204.755	100.18
204.974	143.19
205.193	22.36
205.411	192.34
205.63	184.15
205.849	40.79
206.068	-30.89
206.287	22.36
206.505	120.66
206.724	3.93
206.943	-47.27
207.162	-82.09
207.381	73.56
207.599	-4.27
207.818	71.51
208.037	-0.17
208.255	28.5
208.474	30.55
208.693	55.12
208.911	5.97
209.13	100.18
209.349	51.03
209.567	143.19
209.786	110.42
210.005	30.55
210.223	108.37
210.442	-141.48
210.661	8.02
210.879	120.66
211.098	53.08
211.316	79.7
211.535	147.28
211.753	44.88
211.972	130.9
212.191	96.08
212.409	51.03
212.628	173.91
212.846	-6.31
213.065	71.51
213.283	16.21
213.502	42.84
213.72	63.32
213.938	44.88
214.157	-14.51
214.375	98.13
214.594	65.36
214.812	-8.36
215.031	36.69
215.249	8.02
215.467	57.17
215.686	1.88
215.904	157.52
216.122	112.47
216.341	137.04
216.559	91.99
216.778	83.8
216.996	173.91
217.214	91.99
217.432	-32.94
217.651	-71.85
217.869	-2.22
218.087	51.03
218.306	-2.22
218.524	65.36
218.742	57.17
218.96	94.04
219.179	71.51
219.397	-26.79
219.615	268.11
219.833	98.13
220.051	8.02
220.27	132.95
220.488	87.89
220.706	102.23
220.924	-30.89
221.142	-30.89
221.36	100.18
221.578	151.38
221.796	102.23
222.015	24.4
222.233	108.37
222.451	137.04
222.669	32.6
222.887	116.56
223.105	24.4
223.323	87.89
223.541	-2.22
223.759	38.74
223.977	89.94
224.195	116.56
224.413	139.09
224.631	18.26
224.849	51.03
225.067	180.05
225.285	3.93
225.503	44.88
225.721	-39.08
225.939	18.26
226.157	20.31
226.375	218.96
226.592	5.97
226.81	118.61
227.028	83.8
227.246	112.47
227.464	149.33
227.682	128.85
227.9	85.84
228.117	120.66
228.335	149.33
228.553	108.37
228.771	26.45
228.989	10.07
229.206	149.33
229.424	-53.42
229.642	102.23
229.86	38.74
230.077	98.13
230.295	48.98
230.513	118.61
230.731	57.17
230.948	153.43
231.166	175.95
231.384	-55.47
231.601	53.08
231.819	204.63
232.037	18.26
232.254	-49.32
232.472	79.7
232.689	-10.41
232.907	155.47
233.125	-30.89
233.342	-18.6
233.56	28.5
233.777	5.97
233.995	12.12
234.213	126.8
234.43	130.9
234.648	114.52
234.865	53.08
235.083	57.17
235.3	94.04
235.518	137.04
235.735	122.71
235.953	151.38
236.17	137.04
236.388	104.28
236.605	79.7
236.822	110.42
237.04	126.8
237.257	108.37
237.475	-53.42
237.692	75.6
237.909	53.08
238.127	57.17
238.344	48.98
238.562	57.17
238.779	-59.56
238.996	1.88
239.214	42.84
239.431	159.57
239.648	-6.31
239.865	149.33
240.083	73.56
240.3	73.56
240.517	48.98
240.735	-0.17
240.952	161.62
241.169	163.67
241.386	85.84
241.603	44.88
241.821	22.36
242.038	106.32
242.255	180.05
242.472	-2.22
242.689	87.89
242.907	75.6
243.124	85.84
243.341	36.69
243.558	79.7
243.775	-51.37
243.992	-141.48
244.209	69.46
244.426	221.01
244.643	57.17
244.86	24.4
245.078	130.9
245.295	32.6
245.512	85.84
245.729	18.26
245.946	132.95
246.163	16.21
246.38	114.52
246.597	106.32
246.814	42.84
247.031	126.8
247.248	1.88
247.464	106.32
247.681	-6.31
247.898	55.12
248.115	139.09
248.332	-22.7
248.549	143.19
248.766	155.47
248.983	96.08
249.2	79.7
249.417	65.36
249.633	-8.36
249.85	120.66
250.067	59.22
250.284	16.21
250.501	63.32
250.717	120.66
250.934	-24.75
251.151	1.88
251.368	108.37
251.585	106.32
251.801	132.95
252.018	-8.36
252.235	108.37
252.451	12.12
252.668	18.26
252.885	116.56
253.102	46.93
253.318	40.79
253.535	-0.17
253.752	-8.36
253.968	-34.99
254.185	-41.13
254.401	77.65
254.618	116.56
254.835	-71.85
255.051	106.32
255.268	108.37
255.484	102.23
255.701	85.84
255.917	89.94
256.134	-8.36
256.351	48.98
256.567	-53.42
256.784	104.28
257	-37.03
257.217	132.95
257.433	96.08
257.65	46.93
257.866	153.43
258.082	-6.31
258.299	-14.51
258.515	108.37
258.732	-32.94
258.948	-14.51
259.165	44.88
259.381	-57.51
259.597	48.98
259.814	59.22
260.03	14.17
260.246	59.22
260.463	91.99
260.679	149.33
260.895	24.4
261.112	69.46
261.328	48.98
261.544	-32.94
261.761	180.05
261.977	14.17
262.193	28.5
262.409	100.18
262.626	77.65
262.842	12.12
263.058	20.31
263.274	135
263.49	61.27
263.707	114.52
263.923	77.65
264.139	-43.18
264.355	118.61
264.571	137.04
264.787	65.36
265.004	130.9
265.22	30.55
265.436	32.6
265.652	46.93
265.868	163.67
266.084	-84.14
266.3	-2.22
266.516	-53.42
266.732	71.51
266.948	106.32
267.164	55.12
267.38	124.76
267.596	75.6
267.812	178
268.028	16.21
268.244	57.17
268.46	94.04
268.676	51.03
268.892	110.42
269.108	-10.41
269.324	-18.6
269.54	14.17
269.756	30.55
269.972	8.02
270.188	85.84
270.403	8.02
270.619	22.36
270.835	98.13
271.051	85.84
271.267	77.65
271.483	36.69
271.698	57.17
271.914	106.32
272.13	104.28
272.346	28.5
272.562	81.75
272.777	178
272.993	44.88
273.209	28.5
273.425	145.24
273.64	-41.13
273.856	108.37
274.072	40.79
274.287	42.84
274.503	128.85
274.719	137.04
274.934	-4.27
275.15	-49.32
275.366	-14.51
275.581	-4.27
275.797	55.12
276.012	44.88
276.228	81.75
276.444	55.12
276.659	128.85
276.875	-6.31
277.09	59.22
277.306	14.17
277.521	122.71
277.737	26.45
277.952	186.19
278.168	10.07
278.383	22.36
278.599	61.27
278.814	202.58
279.03	65.36
279.245	85.84
279.461	55.12
279.676	75.6
279.892	-32.94
280.107	-16.55
280.322	10.07
280.538	42.84
280.753	3.93
280.969	8.02
281.184	14.17
281.399	169.81
281.615	22.36
281.83	53.08
282.045	-2.22
282.26	-4.27
282.476	87.89
282.691	157.52
282.906	51.03
283.122	55.12
283.337	-4.27
283.552	77.65
283.767	75.6
283.983	175.95
284.198	139.09
284.413	114.52
284.628	-28.84
284.843	63.32
285.058	87.89
285.274	42.84
285.489	26.45
285.704	77.65
285.919	-14.51
286.134	18.26
286.349	106.32
286.564	96.08
286.779	206.67
286.995	-6.31
287.21	-16.55
287.425	120.66
287.64	-16.55
287.855	61.27
288.07	-16.55
288.285	114.52
288.5	190.29
288.715	96.08
288.93	22.36
289.145	-45.23
289.36	143.19
289.575	-12.46
289.79	167.76
290.004	14.17
290.219	157.52
290.434	63.32
290.649	8.02
290.864	30.55
291.079	46.93
291.294	135
291.509	130.9
291.724	55.12
291.938	22.36
292.153	48.98
292.368	20.31
292.583	57.17
292.798	165.71
293.012	40.79
293.227	20.31
293.442	91.99
293.657	126.8
293.871	126.8
294.086	51.03
294.301	227.15
294.516	124.76
294.73	24.4
294.945	3.93
295.16	81.75
295.374	178
295.589	114.52
295.804	73.56
296.018	75.6
296.233	141.14
296.447	63.32
296.662	65.36
296.877	143.19
297.091	77.65
297.306	3.93
297.52	32.6
297.735	77.65
297.949	22.36
298.164	26.45
298.378	36.69
298.593	-53.42
298.807	-43.18
299.022	81.75
299.236	173.91
299.451	24.4
299.665	30.55
299.88	96.08
300.094	71.51
300.309	16.21
300.523	42.84
300.737	65.36
300.952	69.46
301.166	-2.22
301.381	67.41
301.595	5.97
301.809	110.42
302.024	22.36
302.238	-47.27
302.452	182.1
302.667	-8.36
302.881	178
303.095	71.51
303.309	100.18
303.524	-16.55
303.738	28.5
303.952	-0.17
304.166	85.84
304.381	-73.9
304.595	184.15
304.809	-18.6
305.023	32.6
305.237	1.88
305.452	1.88
305.666	57.17
305.88	100.18
306.094	116.56
306.308	30.55
306.522	102.23
306.736	51.03
306.95	139.09
307.164	51.03
307.379	44.88
307.593	96.08
307.807	96.08
308.021	42.84
308.235	104.28
308.449	10.07
308.663	112.47
308.877	243.54
309.091	32.6
309.305	48.98
309.519	-57.51
309.733	137.04
309.947	-14.51
310.161	53.08
310.374	94.04
310.588	169.81
310.802	-8.36
311.016	3.93
311.23	106.32
311.444	-8.36
311.658	42.84
311.872	175.95
312.085	44.88
312.299	130.9
312.513	110.42
312.727	48.98
312.941	-53.42
313.154	81.75
313.368	94.04
313.582	106.32
313.796	149.33
314.009	79.7
314.223	132.95
314.437	42.84
314.651	96.08
314.864	67.41
315.078	14.17
315.292	-39.08
315.505	-71.85
315.719	108.37
315.933	28.5
316.146	20.31
316.36	24.4
316.573	42.84
316.787	87.89
317.001	91.99
317.214	3.93
317.428	77.65
317.641	-0.17
317.855	83.8
318.068	51.03
318.282	42.84
318.495	227.15
318.709	77.65
318.922	1.88
319.136	225.11
319.349	112.47
319.563	10.07
319.776	69.46
319.99	-61.61
320.203	87.89
320.417	55.12
320.63	194.39
320.843	200.53
321.057	71.51
321.27	67.41
321.483	118.61
321.697	167.76
321.91	36.69
322.124	130.9
322.337	114.52
322.55	16.21
322.763	57.17
322.977	-20.65
323.19	-34.99
323.403	34.64
323.617	32.6
323.83	141.14
324.043	46.93
324.256	128.85
324.469	55.12
324.683	120.66
324.896	-0.17
325.109	73.56
325.322	-43.18
325.535	135
325.748	98.13
325.962	12.12
326.175	26.45
326.388	120.66
326.601	114.52
326.814	10.07
327.027	126.8
327.24	243.54
327.453	-149.67
327.666	65.36
327.879	83.8
328.092	71.51
328.305	171.86
328.518	42.84
328.731	22.36
328.944	85.84
329.157	91.99
329.37	-28.84
329.583	221.01
329.796	151.38
330.009	-106.67
330.222	81.75
330.435	194.39
330.648	-12.46
330.861	102.23
331.073	20.31
331.286	163.67
331.499	57.17
331.712	-2.22
331.925	20.31
332.138	157.52
332.35	83.8
332.563	-51.37
332.776	186.19
332.989	-39.08
333.202	-4.27
333.414	5.97
333.627	-0.17
333.84	28.5
334.053	128.85
334.265	96.08
334.478	-16.55
334.691	18.26
334.903	32.6
335.116	22.36
335.329	81.75
335.541	81.75
335.754	175.95
335.966	79.7
336.179	67.41
336.392	24.4
336.604	1.88
336.817	42.84
337.029	94.04
337.242	-14.51
337.454	116.56
337.667	91.99
337.88	100.18
338.092	96.08
338.305	75.6
338.517	28.5
338.729	28.5
338.942	182.1
339.154	30.55
339.367	-18.6
339.579	122.71
339.792	51.03
340.004	42.84
340.217	63.32
340.429	75.6
340.641	-37.03
340.854	5.97
341.066	38.74
341.278	114.52
341.491	145.24
341.703	-4.27
341.915	114.52
342.128	130.9
342.34	106.32
342.552	-20.65
342.764	55.12
342.977	40.79
343.189	46.93
343.401	110.42
343.613	-61.61
343.826	42.84
344.038	-18.6
344.25	42.84
344.462	42.84
344.674	98.13
344.886	61.27
345.099	85.84
345.311	104.28
345.523	139.09
345.735	30.55
345.947	128.85
346.159	102.23
346.371	46.93
346.583	30.55
346.795	245.59
347.007	14.17
347.219	79.7
347.431	-30.89
347.643	63.32
347.855	-2.22
348.067	147.28
348.279	-22.7
348.491	-45.23
348.703	180.05
348.915	28.5
349.127	-22.7
349.339	20.31
349.551	55.12
349.763	147.28
349.975	10.07
350.187	126.8
350.399	139.09
350.61	67.41
350.822	83.8
351.034	118.61
351.246	110.42
351.458	51.03
351.669	51.03
351.881	120.66
352.093	141.14
352.305	186.19
352.517	118.61
352.728	77.65
352.94	81.75
353.152	38.74
353.363	-10.41
353.575	36.69
353.787	169.81
353.999	63.32
354.21	223.06
354.422	24.4
354.633	38.74
354.845	122.71
355.057	77.65
355.268	48.98
355.48	114.52
355.692	-45.23
355.903	38.74
356.115	3.93
356.326	-75.95
356.538	85.84
356.749	114.52
356.961	233.3
357.172	57.17
357.384	44.88
357.595	233.3
357.807	-2.22
358.018	-39.08
358.23	75.6
358.441	169.81
358.653	55.12
358.864	73.56
359.075	48.98
359.287	65.36
359.498	67.41
359.709	116.56
359.921	16.21
360.132	32.6
360.344	63.32
360.555	67.41
360.766	81.75
360.977	34.64
361.189	149.33
361.4	71.51
361.611	120.66
361.823	114.52
362.034	141.14
362.245	-65.71
362.456	-20.65
362.667	79.7
362.879	34.64
363.09	85.84
363.301	51.03
363.512	106.32
363.723	108.37
363.935	40.79
364.146	34.64
364.357	79.7
364.568	51.03
364.779	-92.33
364.99	85.84
365.201	32.6
365.412	149.33
365.623	-51.37
365.834	1.88
366.045	40.79
366.256	63.32
366.467	48.98
366.678	28.5
366.889	44.88
367.1	28.5
367.311	159.57
367.522	-28.84
367.733	73.56
367.944	116.56
368.155	38.74
368.366	-16.55
368.577	124.76
368.788	198.48
368.999	-14.51
369.209	65.36
369.42	243.54
369.631	284.5
369.842	100.18
370.053	12.12
370.264	44.88
370.474	-24.75
370.685	149.33
370.896	12.12
371.107	173.91
371.317	30.55
371.528	42.84
371.739	91.99
371.95	124.76
372.16	173.91
372.371	-22.7
372.582	18.26
372.792	118.61
373.003	61.27
373.214	87.89
373.424	65.36
373.635	-0.17
373.846	139.09
374.056	81.75
374.267	116.56
374.477	69.46
374.688	-0.17
374.898	96.08
375.109	147.28
375.319	104.28
375.53	151.38
375.74	112.47
375.951	8.02
376.161	132.95
376.372	135
376.582	30.55
376.793	87.89
377.003	16.21
377.214	24.4
377.424	77.65
377.635	-22.7
377.845	12.12
378.055	141.14
378.266	26.45
378.476	94.04
378.686	30.55
378.897	40.79
379.107	118.61
379.317	46.93
379.528	89.94
379.738	100.18
379.948	-112.81
380.158	100.18
380.369	79.7
380.579	14.17
380.789	65.36
380.999	83.8
381.21	120.66
381.42	169.81
381.63	18.26
381.84	100.18
382.05	132.95
382.261	126.8
382.471	149.33
382.681	28.5
382.891	145.24
383.101	100.18
383.311	10.07
383.521	55.12
383.731	163.67
383.941	108.37
384.151	44.88
384.361	-4.27
384.571	55.12
384.781	104.28
384.991	204.63
385.201	239.44
385.411	89.94
385.621	14.17
385.831	89.94
386.041	12.12
386.251	67.41
386.461	110.42
386.671	34.64
386.881	38.74
387.091	22.36
387.301	180.05
387.511	-24.75
387.72	114.52
387.93	126.8
388.14	-26.79
388.35	57.17
388.56	98.13
388.769	104.28
388.979	87.89
389.189	71.51
389.399	126.8
389.609	100.18
389.818	130.9
390.028	57.17
390.238	98.13
390.447	36.69
390.657	91.99
390.867	-24.75
391.076	-37.03
391.286	114.52
391.496	42.84
391.705	3.93
391.915	206.67
392.125	173.91
392.334	73.56
392.544	122.71
392.753	89.94
392.963	36.69
393.172	81.75
393.382	20.31
393.591	237.39
393.801	3.93
394.01	212.82
394.22	137.04
394.429	44.88
394.639	-24.75
394.848	48.98
395.058	94.04
395.267	22.36
395.477	-10.41
395.686	79.7
395.895	231.25
396.105	221.01
396.314	120.66
396.524	104.28
396.733	-32.94
396.942	79.7
397.152	135
397.361	94.04
397.57	42.84
397.78	65.36
397.989	91.99
398.198	282.45
398.407	59.22
398.617	108.37
398.826	126.8
399.035	26.45
399.244	155.47
399.453	18.26
399.663	44.88
399.872	89.94
400.081	1.88
400.29	218.96
400.499	5.97
400.708	104.28
400.917	-2.22
401.127	71.51
401.336	18.26
401.545	235.35
401.754	178
401.963	102.23
402.172	73.56
402.381	-24.75
402.59	122.71
402.799	55.12
403.008	198.48
403.217	85.84
403.426	61.27
403.635	-10.41
403.844	59.22
404.053	42.84
404.262	96.08
404.471	165.71
404.68	102.23
404.888	57.17
405.097	28.5
405.306	75.6
405.515	122.71
405.724	83.8
405.933	202.58
406.142	91.99
406.35	53.08
406.559	14.17
406.768	59.22
406.977	214.87
407.185	83.8
407.394	81.75
407.603	-65.71
407.812	-16.55
408.02	75.6
408.229	75.6
408.438	120.66
408.646	65.36
408.855	73.56
409.064	71.51
409.272	14.17
409.481	102.23
409.69	10.07
409.898	-32.94
410.107	122.71
410.315	124.76
410.524	-34.99
410.733	77.65
410.941	34.64
411.15	104.28
411.358	112.47
411.567	202.58
411.775	3.93
411.984	147.28
412.192	106.32
412.401	94.04
412.609	216.91
412.818	122.71
413.026	171.86
413.234	34.64
413.443	85.84
413.651	12.12
413.86	-10.41
414.068	161.62
414.276	198.48
414.485	14.17
414.693	157.52
414.901	173.91
415.11	186.19
415.318	57.17
415.526	48.98
415.734	36.69
415.943	96.08
416.151	126.8
416.359	55.12
416.567	85.84
416.776	38.74
416.984	108.37
417.192	182.1
417.4	20.31
417.608	-16.55
417.817	44.88
418.025	165.71
418.233	151.38
418.441	55.12
418.649	-30.89
418.857	106.32
419.065	155.47
419.273	-34.99
419.481	96.08
419.689	108.37
419.897	22.36
420.105	38.74
420.313	120.66
420.521	198.48
420.729	122.71
420.937	-24.75
421.145	53.08
421.353	190.29
421.561	214.87
421.769	120.66
421.977	91.99
422.185	94.04
422.393	110.42
422.601	157.52
422.809	110.42
423.017	110.42
423.224	94.04
423.432	190.29
423.64	71.51
423.848	132.95
424.056	34.64
424.263	110.42
424.471	180.05
424.679	122.71
424.887	-10.41
425.094	249.68
425.302	135
425.51	98.13
425.718	116.56
425.925	137.04
426.133	-41.13
426.341	192.34
426.548	42.84
426.756	116.56
426.964	163.67
427.171	34.64
427.379	155.47
427.586	130.9
427.794	132.95
428.001	163.67
428.209	128.85
428.417	192.34
428.624	175.95
428.832	57.17
429.039	71.51
429.247	75.6
429.454	143.19
429.662	227.15
429.869	221.01
430.076	110.42
430.284	178
430.491	225.11
430.699	200.53
430.906	178
431.114	175.95
431.321	114.52
431.528	81.75
431.736	253.78
431.943	182.1
432.15	229.2
432.358	229.2
432.565	296.78
432.772	69.46
432.979	235.35
433.187	202.58
433.394	229.2
433.601	194.39
433.808	264.02
434.016	225.11
434.223	194.39
434.43	178
434.637	298.83
434.844	352.08
435.052	268.11
435.259	292.69
435.466	345.94
435.673	255.83
435.88	331.6
436.087	360.27
436.294	429.9
436.501	317.26
436.708	290.64
436.915	329.55
437.122	356.18
437.329	423.76
437.537	415.57
437.743	374.61
437.95	431.95
438.157	397.14
438.364	526.16
438.571	358.22
438.778	481.1
438.985	460.62
439.192	577.36
439.399	466.77
439.606	589.64
439.813	579.4
440.02	626.51
440.227	776.01
440.433	683.85
440.64	659.28
440.847	649.04
441.054	651.08
441.261	866.12
441.467	720.71
441.674	649.04
441.881	739.15
442.088	837.45
442.294	849.74
442.501	900.94
442.708	982.85
442.914	1003.33
443.121	964.42
443.328	997.19
443.534	1058.63
443.741	991.05
443.948	913.22
444.154	1181.51
444.361	1277.76
444.568	1189.7
444.774	1191.75
444.981	1193.8
445.187	1328.96
445.394	1406.78
445.6	1343.3
445.807	1492.8
446.013	1441.6
446.22	1429.31
446.426	1613.63
446.633	1699.64
446.839	1810.23
447.046	1611.58
447.252	1892.15
447.459	1810.23
447.665	1953.59
447.871	2092.85
448.078	2225.97
448.284	2146.1
448.491	2303.79
448.697	2348.85
448.903	2477.87
449.11	2545.45
449.316	2445.1
449.522	2684.72
449.728	2869.03
449.935	2934.57
450.141	2813.74
450.347	3120.93
450.553	2944.81
450.76	3249.96
450.966	3352.35
451.172	3483.42
451.378	3708.7
451.584	3565.34
451.791	3960.6
451.997	4048.66
452.203	4077.34
452.409	4325.14
452.615	4409.11
452.821	4421.39
453.027	4597.52
453.233	5007.11
453.44	5043.98
453.646	5101.32
453.852	5207.81
454.058	5699.33
454.264	5785.34
454.47	6072.06
454.676	6256.37
454.882	6762.22
455.088	6448.88
455.294	6735.6
455.5	7175.91
455.705	7593.7
455.911	7261.93
456.117	7698.14
456.323	8120.03
456.529	8122.07
456.735	8599.25
456.941	8937.16
457.147	9303.75
457.352	9680.58
457.558	9809.6
457.764	10692.27
457.97	10536.63
458.176	11138.73
458.381	11740.83
458.587	12101.28
458.793	12553.88
458.999	12555.93
459.204	14030.46
459.41	14345.85
459.616	14409.34
459.821	15107.69
460.027	15795.81
460.233	16731.73
460.438	16627.29
460.644	17206.86
460.85	17606.22
461.055	18193.98
461.261	19314.22
461.466	18748.98
461.672	19201.58
461.878	21446.16
462.083	21192.21
462.289	21683.72
462.494	22314.5
462.7	22861.3
462.905	23240.18
463.111	24876.51
463.316	26205.64
463.522	26551.74
463.727	27424.18
463.932	28388.77
464.138	29316.5
464.343	30461.32
464.549	30659.97
464.754	32761.19
464.959	33772.88
465.165	34604.36
465.37	34096.46
465.575	34260.3
465.781	36674.85
465.986	37340.44
466.191	37014.82
466.397	37313.82
466.602	36457.77
466.807	38601.99
467.012	39136.51
467.218	39996.66
467.423	39376.12
467.628	40946.92
467.833	42872.01
468.038	42343.63
468.244	41678.04
468.449	43527.36
468.654	42792.14
468.859	42532.04
469.064	43066.56
469.269	41612.51
469.474	41837.78
469.679	43207.87
469.885	41884.89
470.09	42763.46
470.295	42974.41
470.5	41774.3
470.705	42372.3
470.91	40893.67
471.115	40725.74
471.32	41209.06
471.525	40903.91
471.73	40070.39
471.935	39841.01
472.139	37887.25
472.344	38616.33
472.549	37893.4
472.754	37457.18
472.959	36656.42
473.164	35024.19
473.369	34751.81
473.574	35835.19
473.778	35030.33
473.983	34200.91
474.188	33447.25
474.393	32767.33
474.598	32165.23
474.802	31272.31
475.007	31513.97
475.212	30825.85
475.417	29484.44
475.621	29279.64
475.826	28880.28
476.031	27966.89
476.235	27887.02
476.44	27739.57
476.645	27129.27
476.849	26664.38
477.054	26238.4
477.259	25650.64
477.463	25621.97
477.668	25005.53
477.872	24978.9
478.077	24294.88
478.282	23399.92
478.486	23264.75
478.691	23172.6
478.895	22873.59
479.1	22777.34
479.304	22633.98
479.509	21767.69
479.713	22310.4
479.918	21704.2
480.122	21517.84
480.326	21257.74
480.531	21380.62
480.735	20772.38
480.94	20833.82
481.144	21347.86
481.348	20463.13
481.553	20604.44
481.757	20037.16
481.961	20133.41
482.166	19975.72
482.37	20000.29
482.574	19279.41
482.778	19476.01
482.983	19613.23
483.187	19303.98
483.391	19250.74
483.595	18847.29
483.8	18507.32
484.004	18904.63
484.208	18697.78
484.412	18423.36
484.616	18245.18
484.821	18251.33
485.025	17415.76
485.229	17684.04
485.433	17098.32
485.637	17159.76
485.841	17008.21
486.045	16641.62
486.249	16772.69
486.453	16240.22
486.657	16094.82
486.861	15928.93
487.065	15263.34
487.269	15171.18
487.473	15013.49
487.677	15158.89
487.881	14943.86
488.085	14397.05
488.289	14364.28
488.493	13973.12
488.697	13860.48
488.901	13403.78
489.105	13129.36
489.309	13006.48
489.512	12975.76
489.716	12723.86
489.92	12414.62
490.124	12320.41
490.328	12054.17
490.531	11736.74
490.735	11585.19
490.939	11513.51
491.143	11177.64
491.346	10892.98
491.55	10944.17
491.754	10587.83
491.958	10755.76
492.161	10239.67
492.365	10170.04
492.569	9991.87
492.772	9932.48
492.976	9801.41
493.18	9578.18
493.383	9643.71
493.587	9533.12
493.79	9416.39
493.994	9113.29
494.197	9137.87
494.401	9031.37
494.605	8918.73
494.808	8920.78
495.012	8931.02
495.215	8996.56
495.419	8740.56
495.622	8578.77
495.825	8640.21
496.029	8580.82
496.232	8664.79
496.436	8357.59
496.639	8660.69
496.843	8490.71
497.046	8414.93
497.249	8636.11
497.453	8488.66
497.656	8287.96
497.859	8335.06
498.063	8480.47
498.266	8541.91
498.469	8402.65
498.673	8310.49
498.876	8632.02
499.079	8650.45
499.282	8492.76
499.485	8775.38
499.689	8591.06
499.892	8703.7
500.095	8554.19
500.298	9037.52
500.501	8849.1
500.705	8949.45
500.908	9092.81
501.111	9062.09
501.314	9209.54
501.517	9309.9
501.72	9473.73
501.923	9352.9
502.126	9438.92
502.329	9676.48
502.532	9860.8
502.735	10002.11
502.938	10217.15
503.141	10231.48
503.344	10282.68
503.547	10725.04
503.75	10567.35
503.953	10485.43
504.156	10895.02
504.359	10958.51
504.562	11171.5
504.765	11458.21
504.968	11351.72
505.17	11523.75
505.373	11560.61
505.576	11867.81
505.779	11980.45
505.982	12330.65
506.185	12705.43
506.387	12676.76
506.59	12811.92
506.793	13201.04
506.996	13289.1
507.198	13878.91
507.401	13979.26
507.604	14263.93
507.807	14560.89
508.009	14818.93
508.212	15095.41
508.415	15322.73
508.617	15507.05
508.82	15652.45
509.022	16076.38
509.225	16463.45
509.428	16545.37
509.63	17059.41
509.833	17237.58
510.035	17788.49
510.238	18335.29
510.44	18579
510.643	19359.28
510.845	19424.81
511.048	19807.78
511.25	20082.21
511.453	20610.59
511.655	21587.47
511.858	21726.73
512.06	22412.8
512.262	22746.62
512.465	22965.75
512.667	23631.34
512.87	24253.92
513.072	24282.59
513.274	25294.29
513.477	25697.74
513.679	26289.6
513.881	27084.22
514.084	27577.78
514.286	27895.21
514.488	28454.31
514.69	29506.96
514.893	29748.62
515.095	30360.97
515.297	31139.19
515.499	31399.29
515.701	31927.66
515.904	33004.89
516.106	33602.9
516.308	34133.32
516.51	35159.36
516.712	35431.74
516.914	36042.03
517.116	37362.97
517.318	37571.86
517.52	38243.6
517.722	38898.95
517.925	39740.66
518.127	40250.61
518.329	40903.91
518.531	41129.19
518.733	42443.98
518.935	43078.85
519.136	43293.89
519.338	44092.6
519.54	44874.92
519.742	45698.2
519.944	45872.28
520.146	46914.7
520.348	47613.05
520.55	47770.75
520.752	48219.25
520.954	48880.75
521.155	49290.34
521.357	50365.52
521.559	50642
521.761	51407.94
521.963	51487.81
522.164	51856.45
522.366	51946.56
522.568	52933.68
522.77	53247.02
522.971	54488.09
523.173	54217.75
523.375	54805.52
523.576	54273.05
523.778	54266.91
523.98	55127.05
524.181	55294.99
524.383	55419.91
524.584	55931.9
524.786	55745.54
524.988	55518.21
525.189	56151.04
525.391	56271.87
525.592	56462.33
525.794	55968.77
525.995	55974.91
526.197	56245.24
526.398	56296.44
526.6	55667.72
526.801	55892.99
527.003	55766.02
527.204	55421.96
527.406	55512.07
527.607	54869.01
527.808	55032.85
528.01	54187.03
528.211	54352.92
528.412	54572.05
528.614	54119.45
528.815	53455.91
529.016	53709.86
529.218	52304.95
529.419	52067.39
529.62	51647.55
529.822	51240.01
530.023	51131.47
530.224	50453.59
530.425	50066.52
530.626	49273.96
530.828	48489.59
531.029	48993.39
531.23	47981.69
531.431	47400.07
531.632	47121.54
531.833	46845.07
532.035	45874.33
532.236	45227.17
532.437	45212.84
532.638	44262.58
532.839	44258.48
533.04	43377.86
533.241	42538.19
533.442	42331.34
533.643	41563.36
533.844	40862.95
534.045	40705.26
534.246	40107.25
534.447	39611.64
534.648	38827.27
534.849	38501.64
535.05	37616.92
535.251	37285.15
535.451	36830.5
535.652	36304.17
535.853	36338.99
536.054	35740.98
536.255	35263.8
536.456	34288.97
536.657	34508.1
536.857	33697.11
537.058	33254.75
537.259	32761.19
537.46	32329.06
537.66	31911.28
537.861	31333.75
538.062	31118.71
538.263	30856.57
538.463	30123.4
538.664	29826.45
538.865	29502.87
539.065	29433.24
539.266	28573.09
539.466	28583.33
539.667	28001.71
539.868	28249.51
540.068	27258.29
540.269	26975.67
540.469	26822.08
540.67	26484.16
540.87	26172.87
541.071	25781.71
541.271	25417.17
541.472	25255.38
541.672	24952.28
541.873	24866.27
542.073	24104.42
542.274	24106.47
542.474	23739.88
542.675	23272.95
542.875	23430.64
543.075	22799.87
543.276	22490.62
543.476	22623.74
543.676	22457.85
543.877	22345.22
544.077	21769.74
544.277	21554.7
544.478	21343.76
544.678	20788.76
544.878	20786.71
545.078	20694.55
545.279	20264.48
545.479	19713.58
545.679	19887.65
545.879	19572.27
546.079	19236.4
546.28	19222.06
546.48	18959.92
546.68	18859.57
546.88	18654.78
547.08	18290.24
547.28	18132.54
547.48	17587.78
547.68	17624.65
547.88	17296.97
548.081	17358.41
548.281	16899.67
548.481	16770.65
548.681	16688.73
548.881	16328.28
549.081	16209.5
549.28	15871.59
549.48	15871.59
549.68	15398.51
549.88	15634.02
550.08	14777.97
550.28	14853.75
550.48	14812.79
550.68	14409.34
550.88	14407.29
551.08	14200.44
551.279	14001.79
551.479	13526.66
551.679	13407.88
551.879	13362.83
552.079	13205.13
552.278	12959.38
552.478	12932.75
552.678	12482.2
552.878	12541.59
553.077	12185.24
553.277	11579.04
553.477	11900.58
553.676	11863.71
553.876	11574.95
554.076	11257.51
554.275	10987.18
554.475	11034.28
554.674	10870.45
554.874	10467
555.074	10176.19
555.273	10184.38
555.473	10161.85
555.672	9885.37
555.872	9809.6
556.071	9739.97
556.271	9514.69
556.47	9201.35
556.67	9111.24
556.869	8994.51
557.068	9115.34
557.268	8681.17
557.467	8617.68
557.667	8414.93
557.866	8404.69
558.065	8136.41
558.265	7945.95
558.464	8007.39
558.663	7847.65
558.863	7775.97
559.062	7603.94
559.261	7413.48
559.461	7349.99
559.66	7280.36
559.859	7071.47
560.058	6870.76
560.258	6821.61
560.457	6649.58
560.656	6627.06
560.855	6274.81
561.054	6326
561.253	6412.02
561.453	6162.17
561.652	6235.89
561.851	6184.69
562.05	5869.31
562.249	5818.11
562.448	5834.49
562.647	5680.89
562.846	5691.13
563.045	5738.24
563.244	5517.06
563.443	5576.45
563.642	5205.77
563.841	5304.07
564.04	5183.24
564.239	5164.81
564.438	5125.9
564.637	4847.37
564.836	4687.63
565.035	4794.12
565.234	4744.97
565.432	4671.25
565.631	4671.25
565.83	4712.21
566.029	4366.1
566.228	4407.06
566.427	4482.83
566.625	4278.04
566.824	4206.36
567.023	4329.24
567.222	4060.95
567.42	3991.32
567.619	4108.05
567.818	3786.52
568.016	4032.28
568.215	3968.79
568.414	3712.8
568.612	3774.24
568.811	3665.69
569.01	3665.69
569.208	3471.14
569.407	3542.82
569.605	3520.29
569.804	3397.41
570.002	3376.93
570.201	3276.58
570.4	3393.31
570.598	3196.71
570.797	3118.89
570.995	3168.04
571.193	2942.76
571.392	3086.12
571.59	2924.33
571.789	3090.21
571.987	3032.87
572.186	2987.82
572.384	2819.88
572.582	2846.51
572.781	2830.12
572.979	2602.8
573.177	2735.92
573.376	2645.8
573.574	2752.3
573.772	2586.41
573.971	2457.39
574.169	2434.86
574.367	2543.41
574.565	2400.05
574.763	2328.37
574.962	2371.38
575.16	2281.27
575.358	2238.26
575.556	2236.21
575.754	2219.83
575.952	2180.92
576.151	2219.83
576.349	2103.09
576.547	1939.26
576.745	2105.14
576.943	2062.13
577.141	2060.09
577.339	1806.14
577.537	1982.26
577.735	2006.84
577.933	1838.91
578.131	1689.4
578.329	1908.54
578.527	1744.7
578.725	1722.17
578.923	1746.75
579.121	1734.46
579.319	1554.24
579.516	1685.31
579.714	1926.97
579.912	1562.43
580.11	1492.8
580.308	1513.28
580.506	1578.81
580.704	1476.41
580.901	1310.53
581.099	1529.66
581.297	1441.6
581.495	1513.28
581.692	1410.88
581.89	1550.14
582.088	1378.11
582.285	1331.01
582.483	1234.75
582.681	1296.19
582.878	1232.71
583.076	1390.4
583.274	1259.33
583.471	1224.51
583.669	1177.41
583.866	1144.64
584.064	1144.64
584.262	1113.92
584.459	1093.44
584.657	1118.02
584.854	1212.23
585.052	1204.03
585.249	1115.97
585.447	1197.89
585.644	960.33
585.841	1046.34
586.039	1113.92
586.236	1044.29
586.434	921.42
586.631	907.08
586.828	1052.49
587.026	1034.05
587.223	782.15
587.42	866.12
587.618	943.94
587.815	1011.53
588.012	921.42
588.21	886.6
588.407	874.31
588.604	1032.01
588.801	849.74
588.999	905.03
589.196	837.45
589.393	714.57
589.59	950.09
589.787	909.13
589.984	798.54
590.182	841.54
590.379	622.41
590.576	741.19
590.773	841.54
590.97	751.43
591.167	802.63
591.364	794.44
591.561	726.86
591.758	872.26
591.955	784.2
592.152	812.87
592.349	778.06
592.546	710.47
592.743	784.2
592.94	851.78
593.137	755.53
593.334	851.78
593.531	917.32
593.727	745.29
593.924	745.29
594.121	714.57
594.318	718.67
594.515	890.7
594.712	917.32
594.908	923.46
595.105	767.82
595.302	862.02
595.499	888.65
595.696	970.57
595.892	859.98
596.089	907.08
596.286	761.67
596.482	984.9
596.679	933.7
596.876	927.56
597.072	1021.77
597.269	876.36
597.466	1044.29
597.662	1050.44
597.859	948.04
598.055	1122.12
598.252	1134.4
598.448	1115.97
598.645	1175.36
598.841	1255.23
599.038	1453.89
599.234	1414.98
599.431	1406.78
599.627	1451.84
599.824	1589.05
600.02	1562.43
600.217	1580.86
600.413	1695.55
600.609	1646.4
600.806	1990.45
601.002	1902.39
601.198	1845.05
601.395	2080.57
601.591	2064.18
601.787	2002.74
601.984	2340.66
602.18	2393.9
602.376	2373.43
602.572	2404.14
602.769	2594.61
602.965	2553.65
603.161	2764.59
603.357	2828.07
603.553	3118.89
603.75	2975.53
603.946	3106.6
604.142	3348.26
604.338	3430.18
604.534	3438.37
604.73	3524.38
604.926	3680.03
605.122	3897.11
605.318	3890.97
605.514	4202.26
605.71	4144.92
605.906	4386.58
606.102	4273.94
606.298	4654.86
606.494	4755.21
606.69	4976.39
606.886	4929.29
607.082	5062.41
607.278	5308.16
607.474	5414.66
607.67	5623.55
607.866	5519.11
608.062	5854.97
608.257	5887.74
608.453	6293.24
608.649	6309.62
608.845	6397.68
609.041	6674.16
609.236	6835.95
609.432	7108.33
609.628	7255.78
609.824	7374.56
610.019	7497.44
610.215	7810.78
610.411	8224.47
610.606	8187.61
610.802	8228.57
610.998	8611.54
611.193	8998.6
611.389	8842.96
611.584	9256.65
611.78	9752.26
611.976	9744.06
612.171	10409.65
612.367	10356.41
612.562	10493.62
612.758	10712.75
612.953	10870.45
613.149	11466.41
613.344	11402.92
613.539	12119.71
613.735	12254.87
613.93	12660.37
614.126	13004.43
614.321	13399.69
614.517	13874.82
614.712	14003.84
614.907	14130.81
615.103	14577.27
615.298	14931.57
615.493	15529.58
615.688	15660.65
615.884	16510.55
616.079	16408.15
616.274	17337.93
616.47	17296.97
616.665	18140.74
616.86	18161.22
617.055	18798.13
617.25	19121.71
617.445	19985.96
617.641	19932.71
617.836	20680.22
618.031	20893.21
618.226	21663.24
618.421	22332.93
618.616	22982.13
618.811	22889.98
619.006	24047.08
619.201	24098.28
619.396	24614.37
619.591	25075.16
619.786	25722.32
619.981	26011.08
620.176	27143.61
620.371	26891.71
620.566	27913.64
620.761	28720.54
620.956	29156.76
621.151	29640.08
621.346	30508.42
621.541	30291.34
621.735	31724.91
621.93	31628.66
622.125	32353.64
622.32	32662.88
622.515	33867.09
622.709	34313.55
622.904	34616.65
623.099	35218.75
623.294	36291.88
623.488	36386.09
623.683	37698.84
623.878	37317.92
624.072	38225.17
624.267	38997.25
624.462	39556.35
624.656	39986.42
624.851	40545.51
625.046	41065.7
625.24	41915.61
625.435	42122.45
625.629	42501.32
625.824	43242.69
626.018	43973.81
626.213	44149.94
626.407	44764.33
626.602	44504.24
626.796	45821.08
626.991	45993.11
627.185	46353.55
627.38	46716.04
627.574	47107.21
627.768	46965.9
627.963	47053.96
628.157	47398.02
628.352	47887.48
628.546	47269
628.74	48231.54
628.935	47451.27
629.129	47936.63
629.323	47201.41
629.517	47172.74
629.712	46779.53
629.906	46623.89
630.1	45915.29
630.294	46316.69
630.489	45038.76
630.683	44831.91
630.877	43805.88
631.071	43089.09
631.265	42693.83
631.459	41856.21
631.653	40316.14
631.848	40248.56
632.042	39034.11
632.236	38411.53
632.43	37152.03
632.624	36644.13
632.818	35380.54
633.012	34096.46
633.206	33021.28
633.4	31952.24
633.594	30758.27
633.788	30098.83
633.982	28931.48
634.176	28229.03
634.369	26803.64
634.563	26066.38
634.757	24718.81
634.951	24346.08
635.145	23217.65
635.339	22289.92
635.533	21184.02
635.726	20581.92
635.92	19539.5
636.114	18808.37
636.308	18005.57
636.501	17493.58
636.695	16838.23
636.889	15742.57
637.083	15214.19
637.276	14737.01
637.47	13905.54
637.664	13508.23
637.857	13047.44
638.051	12453.53
638.244	11714.21
638.438	11597.48
638.632	10731.19
638.825	10378.93
639.019	10204.86
639.212	9711.3
639.406	9434.82
639.599	8873.68
639.793	8775.38
639.986	8271.58
640.18	8044.25
640.373	7603.94
640.567	7458.53
640.76	7132.9
640.954	6954.73
641.147	6457.07
641.34	6217.46
641.534	6125.3
641.727	5865.21
641.92	5480.19
642.114	5588.74
642.307	5193.48
642.5	5023.5
642.694	4718.35
642.887	4636.43
643.08	4640.53
643.273	4329.24
643.467	4075.29
643.66	3866.39
643.853	3790.62
644.046	3790.62
644.239	3495.71
644.432	3292.96
644.626	3106.6
644.819	3082.02
645.012	3063.59
645.205	2836.27
645.398	2973.48
645.591	2662.19
645.784	2627.37
645.977	2490.16
646.17	2350.9
646.363	2408.24
646.556	2211.64
646.749	2017.08
646.942	2045.75
647.135	1935.16
647.328	1849.15
647.521	1886.01
647.714	1658.68
647.907	1746.75
648.099	1595.2
648.292	1546.05
648.485	1570.62
648.678	1490.75
648.871	1376.06
649.064	1462.08
649.256	1271.62
649.449	1148.74
649.642	1152.84
649.835	1191.75
650.027	997.19
650.22	1111.88
650.413	964.42
650.605	1044.29
650.798	993.09
650.991	1023.81
651.183	939.85
651.376	855.88
651.568	905.03
651.761	755.53
651.954	825.16
652.146	757.58
652.339	814.92
652.531	839.5
652.724	745.29
652.916	644.94
653.109	589.64
653.301	802.63
653.494	685.9
653.686	661.32
653.879	667.47
654.071	646.99
654.263	483.15
654.456	563.02
654.648	665.42
654.84	569.16
655.033	462.67
655.225	644.94
655.417	407.38
655.61	489.29
655.802	495.44
655.994	565.07
656.186	395.09
656.379	546.64
656.571	350.03
656.763	407.38
656.955	380.75
657.148	374.61
657.34	470.86
657.532	331.6
657.724	427.85
657.916	364.37
658.108	333.65
658.3	370.51
658.492	397.14
658.684	239.44
658.876	431.95
659.068	192.34
659.26	214.87
659.452	311.12
659.644	390.99
659.836	444.24
660.028	259.92
660.22	159.57
660.412	323.41
660.604	304.98
660.796	243.54
660.988	399.18
661.18	325.46
661.372	337.74
661.563	210.77
661.755	259.92
661.947	137.04
662.139	276.31
662.331	214.87
662.522	229.2
662.714	151.38
662.906	141.14
663.097	163.67
663.289	206.67
663.481	145.24
663.673	206.67
663.864	175.95
664.056	259.92
664.247	175.95
664.439	276.31
664.631	147.28
664.822	280.4
665.014	178
665.205	149.33
665.397	188.24
665.588	182.1
665.78	229.2
665.971	186.19
666.163	175.95
666.354	194.39
666.546	223.06
666.737	167.76
666.929	175.95
667.12	175.95
667.311	167.76
667.503	194.39
667.694	157.52
667.885	182.1
668.077	184.15
668.268	118.61
668.459	116.56
668.651	212.82
668.842	102.23
669.033	124.76
669.224	40.79
669.416	384.85
669.607	151.38
669.798	89.94
669.989	315.22
670.18	194.39
670.371	122.71
670.563	98.13
670.754	221.01
670.945	255.83
671.136	194.39
671.327	122.71
671.518	218.96
671.709	204.63
671.9	186.19
672.091	278.35
672.282	190.29
672.473	196.43
672.664	38.74
672.855	204.63
673.046	132.95
673.237	216.91
673.428	229.2
673.619	198.48
673.809	149.33
674	198.48
674.191	206.67
674.382	135
674.573	116.56
674.764	182.1
674.954	251.73
675.145	137.04
675.336	163.67
675.527	202.58
675.717	55.12
675.908	194.39
676.099	139.09
676.289	208.72
676.48	67.41
676.671	192.34
676.861	182.1
677.052	196.43
677.243	71.51
677.433	167.76
677.624	198.48
677.814	161.62
678.005	182.1
678.195	225.11
678.386	102.23
678.576	202.58
678.767	73.56
678.957	210.77
679.148	145.24
679.338	290.64
679.529	198.48
679.719	178
679.909	280.4
680.1	292.69
680.29	239.44
680.481	145.24
680.671	329.55
680.861	231.25
681.052	296.78
681.242	159.57
681.432	204.63
681.622	182.1
681.813	114.52
682.003	261.97
682.193	118.61
682.383	249.68
682.573	239.44
682.764	163.67
682.954	268.11
683.144	268.11
683.334	139.09
683.524	253.78
683.714	276.31
683.904	216.91
684.094	188.24
684.284	276.31
684.474	401.23
684.664	274.26
684.854	241.49
685.044	274.26
685.234	284.5
685.424	321.36
685.614	261.97
685.804	438.09
685.994	270.16
686.184	270.16
686.374	227.15
686.564	218.96
686.753	221.01
686.943	200.53
687.133	268.11
687.323	249.68
687.513	360.27
687.702	268.11
687.892	223.06
688.082	223.06
688.272	362.32
688.461	225.11
688.651	431.95
688.841	304.98
689.03	235.35
689.22	317.26
689.41	255.83
689.599	272.21
689.789	190.29
689.979	323.41
690.168	294.74
690.358	317.26
690.547	255.83
690.737	323.41
690.926	243.54
691.116	302.93
691.305	264.02
691.495	372.56
691.684	132.95
691.874	104.28
692.063	274.26
692.252	255.83
692.442	278.35
692.631	206.67
692.82	292.69
693.01	229.2
693.199	204.63
693.388	223.06
693.578	221.01
693.767	307.02
693.956	270.16
694.146	268.11
694.335	272.21
694.524	251.73
694.713	214.87
694.902	235.35
695.092	264.02
695.281	194.39
695.47	257.87
695.659	186.19
695.848	237.39
696.037	268.11
696.226	300.88
696.415	309.07
696.604	347.98
696.793	292.69
696.982	194.39
697.171	327.5
697.36	141.14
697.549	196.43
697.738	143.19
697.927	122.71
698.116	233.3
698.305	278.35
698.494	311.12
698.683	161.62
698.872	399.18
699.061	194.39
699.25	247.63
699.438	151.38
699.627	190.29
699.816	274.26
700.005	180.05
700.193	264.02
700.382	309.07
700.571	278.35
700.76	347.98
700.948	257.87
701.137	227.15
701.326	259.92
701.514	85.84
701.703	175.95
701.892	237.39
702.08	347.98
702.269	165.71
702.457	145.24
702.646	184.15
702.834	268.11
703.023	266.07
703.212	212.82
703.4	178
703.589	135
703.777	202.58
703.965	159.57
704.154	261.97
704.342	192.34
704.531	137.04
704.719	255.83
704.907	307.02
705.096	188.24
705.284	104.28
705.472	208.72
705.661	229.2
705.849	206.67
706.037	315.22
706.226	251.73
706.414	296.78
706.602	71.51
706.79	264.02
706.979	143.19
707.167	200.53
707.355	108.37
707.543	223.06
707.731	255.83
707.919	153.43
708.107	221.01
708.296	235.35
708.484	184.15
708.672	268.11
708.86	298.83
709.048	239.44
709.236	100.18
709.424	325.46
709.612	257.87
709.8	26.45
709.988	225.11
710.176	292.69
710.364	321.36
710.551	198.48
710.739	225.11
710.927	171.86
711.115	241.49
711.303	259.92
711.491	341.84
711.679	157.52
711.866	253.78
712.054	182.1
712.242	245.59
712.43	264.02
712.617	212.82
712.805	247.63
712.993	243.54
713.181	89.94
713.368	272.21
713.556	208.72
713.744	290.64
713.931	370.51
714.119	261.97
714.306	235.35
714.494	188.24
714.682	231.25
714.869	159.57
715.057	227.15
715.244	137.04
715.432	229.2
715.619	274.26
715.807	180.05
715.994	214.87
716.182	268.11
716.369	278.35
716.556	231.25
716.744	137.04
716.931	139.09
717.119	255.83
717.306	272.21
717.493	309.07
717.681	272.21
717.868	184.15
718.055	280.4
718.242	239.44
718.43	259.92
718.617	356.18
718.804	251.73
718.991	323.41
719.179	343.89
719.366	243.54
719.553	272.21
719.74	264.02
719.927	225.11
720.114	241.49
720.301	212.82
720.488	151.38
720.676	202.58
720.863	356.18
721.05	397.14
721.237	345.94
721.424	325.46
721.611	247.63
721.798	210.77
721.985	182.1
722.172	227.15
722.358	257.87
722.545	292.69
722.732	284.5
722.919	376.66
723.106	274.26
723.293	309.07
723.48	245.59
723.667	190.29
723.853	290.64
724.04	253.78
724.227	335.7
724.414	155.47
724.6	309.07
724.787	390.99
724.974	409.42
725.161	372.56
725.347	237.39
725.534	321.36
725.72	259.92
725.907	311.12
726.094	352.08
726.28	241.49
726.467	268.11
726.653	161.62
726.84	382.8
727.027	356.18
727.213	204.63
727.4	376.66
727.586	333.65
727.773	307.02
727.959	253.78
728.145	292.69
728.332	315.22
728.518	282.45
728.705	327.5
728.891	282.45
729.077	280.4
729.264	255.83
729.45	274.26
729.636	345.94
729.823	221.01
730.009	333.65
730.195	286.54
730.382	290.64
730.568	286.54
730.754	347.98
730.94	335.7
731.126	266.07
731.313	335.7
731.499	173.91
731.685	425.81
731.871	331.6
732.057	233.3
732.243	339.79
732.429	311.12
732.615	413.52
732.801	343.89
732.987	284.5
733.173	276.31
733.359	268.11
733.545	323.41
733.731	288.59
733.917	380.75
734.103	268.11
734.289	393.04
734.475	268.11
734.661	431.95
734.847	270.16
735.033	212.82
735.219	425.81
735.404	251.73
735.59	315.22
735.776	302.93
735.962	251.73
736.148	341.84
736.333	341.84
736.519	356.18
736.705	292.69
736.89	251.73
737.076	294.74
737.262	153.43
737.447	268.11
737.633	337.74
737.819	370.51
738.004	266.07
738.19	264.02
738.375	300.88
738.561	442.19
738.747	309.07
738.932	235.35
739.118	436.05
739.303	397.14
739.489	325.46
739.674	206.67
739.859	227.15
740.045	372.56
740.23	337.74
740.416	231.25
740.601	304.98
740.786	237.39
740.972	227.15
741.157	300.88
741.342	304.98
741.528	159.57
741.713	358.22
741.898	235.35
742.084	325.46
742.269	239.44
742.454	278.35
742.639	331.6
742.824	249.68
743.01	395.09
743.195	458.57
743.38	231.25
743.565	261.97
743.75	345.94
743.935	259.92
744.12	292.69
744.305	198.48
744.49	276.31
744.675	196.43
744.86	245.59
745.045	284.5
745.23	266.07
745.415	282.45
745.6	386.9
745.785	206.67
745.97	347.98
746.155	212.82
746.34	317.26
746.525	302.93
746.71	378.7
746.895	296.78
747.079	145.24
747.264	264.02
747.449	239.44
747.634	302.93
747.819	202.58
748.003	190.29
748.188	155.47
748.373	309.07
748.557	317.26
748.742	337.74
748.927	221.01
749.111	237.39
749.296	196.43
749.481	333.65
749.665	157.52
749.85	251.73
750.034	237.39
750.219	229.2
750.404	204.63
750.588	229.2
750.773	204.63
750.957	237.39
751.141	180.05
751.326	239.44
751.51	247.63
751.695	239.44
751.879	202.58
752.064	354.13
752.248	261.97
752.432	280.4
752.617	270.16
752.801	221.01
752.985	218.96
753.17	337.74
753.354	227.15
753.538	276.31
753.722	268.11
753.907	118.61
754.091	159.57
754.275	200.53
754.459	67.41
754.643	135
754.828	190.29
755.012	225.11
755.196	120.66
755.38	202.58
755.564	184.15
755.748	235.35
755.932	167.76
756.116	200.53
756.3	173.91
756.484	124.76
756.668	259.92
756.852	51.03
757.036	178
757.22	198.48
757.404	139.09
757.588	147.28
757.772	184.15
757.956	132.95
758.14	317.26
758.323	147.28
758.507	221.01
758.691	85.84
758.875	198.48
759.059	225.11
759.242	149.33
759.426	184.15
759.61	245.59
759.794	143.19
759.977	274.26
760.161	304.98
760.345	292.69
760.528	212.82
760.712	186.19
760.895	180.05
761.079	91.99
761.263	63.32
761.446	116.56
761.63	112.47
761.813	145.24
761.997	65.36
762.18	26.45
762.364	180.05
762.547	91.99
762.731	55.12
762.914	137.04
763.098	122.71
763.281	120.66
763.464	87.89
763.648	149.33
763.831	126.8
764.015	12.12
764.198	204.63
764.381	89.94
764.564	163.67
764.748	182.1
764.931	188.24
765.114	98.13
765.297	132.95
765.481	36.69
765.664	118.61
765.847	175.95
766.03	173.91
766.213	63.32
766.397	124.76
766.58	100.18
766.763	173.91
766.946	104.28
767.129	94.04
767.312	69.46
767.495	163.67
767.678	106.32
767.861	137.04
768.044	63.32
768.227	12.12
768.41	44.88
768.593	89.94
768.776	89.94
768.959	32.6
769.142	261.97
769.324	75.6
769.507	102.23
769.69	110.42
769.873	36.69
770.056	218.96
770.239	139.09
770.421	167.76
770.604	202.58
770.787	120.66
770.97	128.85
771.152	55.12
771.335	192.34
771.518	-30.89
771.7	145.24
771.883	241.49
772.066	65.36
772.248	63.32
772.431	171.86
772.613	167.76
772.796	126.8
772.978	161.62
773.161	210.77
773.343	57.17
773.526	20.31
773.708	61.27
773.891	14.17
774.073	116.56
774.256	40.79
774.438	184.15
774.621	55.12
774.803	169.81
774.985	91.99
775.168	130.9
775.35	51.03
775.532	24.4
775.715	-4.27
775.897	-0.17
776.079	91.99
776.261	184.15
776.444	114.52
776.626	128.85
776.808	10.07
776.99	-6.31
777.173	81.75
777.355	34.64
777.537	108.37
777.719	85.84
777.901	114.52
778.083	44.88
778.265	12.12
778.447	155.47
778.629	-14.51
778.811	51.03
778.993	110.42
779.175	159.57
779.357	51.03
779.539	65.36
779.721	79.7
779.903	57.17
780.085	51.03
780.267	91.99
780.449	126.8
780.631	153.43
780.812	61.27
780.994	114.52
781.176	83.8
781.358	30.55
781.54	65.36
781.721	124.76
781.903	182.1
782.085	10.07
782.267	151.38
782.448	-4.27
782.63	28.5
782.812	130.9
782.993	98.13
783.175	169.81
783.357	112.47
783.538	100.18
783.72	-30.89
783.901	16.21
784.083	186.19
784.264	141.14
784.446	-55.47
784.627	-53.42
784.809	116.56
784.99	55.12
785.172	132.95
785.353	55.12
785.535	112.47
785.716	-110.76
785.897	-4.27
786.079	40.79
786.26	59.22
786.441	67.41
786.623	-22.7
786.804	-18.6
786.985	57.17
787.167	87.89
787.348	30.55
787.529	130.9
787.71	53.08
787.891	16.21
788.073	-26.79
788.254	-65.71
788.435	178
788.616	63.32
788.797	-47.27
788.978	28.5
789.159	-49.32
789.34	122.71
789.522	24.4
789.703	48.98
789.884	34.64
790.065	46.93
790.246	190.29
790.427	16.21
790.607	175.95
790.788	110.42
790.969	8.02
791.15	-4.27
791.331	126.8
791.512	22.36
791.693	-22.7
791.874	-49.32
792.054	206.67
792.235	65.36
792.416	67.41
792.597	-6.31
792.778	83.8
792.958	112.47
793.139	89.94
793.32	108.37
793.5	-6.31
793.681	139.09
793.862	61.27
794.042	53.08
794.223	-182.44
794.404	-73.9
794.584	-59.56
794.765	40.79
794.945	-20.65
795.126	98.13
795.306	104.28
795.487	91.99
795.667	12.12
795.848	32.6
796.028	24.4
796.209	14.17
796.389	106.32
796.57	26.45
796.75	-0.17
796.93	55.12
797.111	-2.22
797.291	-18.6
797.471	122.71
797.652	-16.55
797.832	26.45
798.012	94.04
798.192	44.88
798.373	-8.36
798.553	5.97
798.733	153.43
798.913	-67.75
799.093	104.28
799.274	67.41
799.454	75.6
799.634	118.61
799.814	67.41
799.994	40.79
800.174	18.26
800.354	53.08
800.534	-102.57
800.714	180.05
800.894	-75.95
801.074	-51.37
801.254	53.08
801.434	112.47
801.614	36.69
801.794	-20.65
801.974	1744.7
802.154	-59.56
802.334	38.74
802.514	42.84
802.693	-4.27
802.873	36.69
803.053	65.36
803.233	53.08
803.413	10.07
803.592	-43.18
803.772	-34.99
803.952	18.26
804.131	-45.23
804.311	96.08
804.491	143.19
804.67	1.88
804.85	16.21
805.03	102.23
805.209	63.32
805.389	-2.22
805.568	-2.22
805.748	12.12
805.928	-8.36
806.107	53.08
806.287	36.69
806.466	59.22
806.646	104.28
806.825	-12.46
807.004	14.17
807.184	69.46
807.363	61.27
807.543	94.04
807.722	-34.99
807.901	46.93
808.081	135
808.26	-118.95
808.439	1.88
808.619	-22.7
808.798	-71.85
808.977	42.84
809.156	106.32
809.336	59.22
809.515	100.18
809.694	-20.65
809.873	-2.22
810.052	120.66
810.231	106.32
810.411	34.64
810.59	106.32
810.769	77.65
810.948	51.03
811.127	-116.9
811.306	1.88
811.485	53.08
811.664	145.24
811.843	-39.08
812.022	20.31
812.201	20.31
812.38	40.79
812.559	12.12
812.737	10.07
812.916	-28.84
813.095	-82.09
813.274	63.32
813.453	5.97
813.632	104.28
813.811	3.93
813.989	-100.52
814.168	81.75
814.347	-65.71
814.526	12.12
814.704	102.23
814.883	96.08
815.062	-96.43
815.24	71.51
815.419	-6.31
815.598	34.64
815.776	-96.43
815.955	3.93
816.133	-125.1
816.312	-0.17
816.49	-20.65
816.669	14.17
816.847	38.74
817.026	28.5
817.204	-6.31
817.383	-43.18
817.561	26.45
817.74	59.22
817.918	55.12
818.097	22.36
818.275	-63.66
818.453	85.84
818.632	34.64
818.81	-12.46
818.988	-73.9
819.167	-65.71
819.345	57.17
819.523	14.17
819.701	-2.22
819.879	24.4
820.058	14.17
820.236	51.03
820.414	118.61
820.592	36.69
820.77	40.79
820.948	-47.27
821.127	-69.8
821.305	55.12
821.483	-10.41
821.661	85.84
821.839	-4.27
822.017	24.4
822.195	-26.79
822.373	79.7
822.551	28.5
822.729	94.04
822.907	-75.95
823.085	79.7
823.262	30.55
823.44	10.07
823.618	26.45
823.796	-22.7
823.974	-28.84
824.152	14.17
824.329	51.03
824.507	-8.36
824.685	87.89
824.863	30.55
825.04	30.55
825.218	153.43
825.396	-45.23
825.574	59.22
825.751	-4.27
825.929	89.94
826.107	-57.51
826.284	34.64
826.462	53.08
826.639	-32.94
826.817	-106.67
826.994	46.93
827.172	-65.71
827.349	202.58
827.527	20.31
827.704	53.08
827.882	96.08
828.059	-30.89
828.237	-34.99
828.414	112.47
828.591	-86.19
828.769	63.32
828.946	32.6
829.124	114.52
829.301	57.17
829.478	-39.08
829.655	55.12
829.833	44.88
830.01	-100.52
830.187	57.17
830.364	-6.31
830.542	1.88
830.719	135
830.896	53.08
831.073	-26.79
831.25	61.27
831.427	48.98
831.604	-80.04
831.782	-6.31
831.959	22.36
832.136	-41.13
832.313	65.36
832.49	-8.36
832.667	3.93
832.844	-26.79
833.021	63.32
833.198	-2.22
833.374	79.7
833.551	26.45
833.728	14.17
833.905	30.55
834.082	-104.62
834.259	77.65
834.436	100.18
834.612	-59.56
834.789	143.19
834.966	10.07
835.143	42.84
835.319	-94.38
835.496	-18.6
835.673	63.32
835.85	34.64
836.026	53.08
836.203	96.08
836.38	-10.41
836.556	1.88
836.733	16.21
836.909	100.18
837.086	79.7
837.262	-2.22
837.439	65.36
837.616	-6.31
837.792	14.17
837.968	-20.65
838.145	-86.19
838.321	5.97
838.498	34.64
838.674	22.36
838.851	67.41
839.027	-82.09
839.203	77.65
839.38	22.36
839.556	-51.37
839.732	112.47
839.909	61.27
840.085	83.8
840.261	-6.31
840.437	-0.17
840.614	-51.37
840.79	75.6
840.966	51.03
841.142	42.84
841.318	40.79
841.494	22.36
841.671	91.99
841.847	-24.75
842.023	-61.61
842.199	122.71
842.375	132.95
842.551	73.56
842.727	-49.32
842.903	165.71
843.079	-12.46
843.255	51.03
843.431	-37.03
843.607	83.8
843.783	-61.61
843.959	87.89
844.134	-37.03
844.31	59.22
844.486	-32.94
844.662	-43.18
844.838	26.45
845.013	3.93
845.189	118.61
845.365	10.07
845.541	-10.41
845.716	65.36
845.892	57.17
846.068	-20.65
846.244	-65.71
846.419	46.93
846.595	-39.08
846.77	-53.42
846.946	102.23
847.122	-6.31
847.297	-59.56
847.473	137.04
847.648	-4.27
847.824	8.02
847.999	-100.52
848.175	-10.41
848.35	-10.41
848.526	114.52
848.701	98.13
848.876	71.51
849.052	89.94
849.227	14.17
849.403	46.93
849.578	79.7
849.753	-49.32
849.929	16.21
850.104	-90.28
850.279	22.36
850.454	96.08
850.63	12.12
850.805	57.17
850.98	46.93
851.155	-26.79
851.33	20.31
851.505	-92.33
851.681	112.47
851.856	-61.61
852.031	55.12
852.206	48.98
852.381	-41.13
852.556	-8.36
852.731	-4.27
852.906	-16.55
853.081	-6.31
853.256	159.57
853.431	-16.55
853.606	-0.17
853.781	-80.04
853.956	-102.57
854.131	20.31
854.305	-28.84
854.48	55.12
854.655	-26.79
854.83	-39.08
855.005	20.31
855.18	55.12
855.354	38.74
855.529	108.37
855.704	-6.31
855.879	32.6
856.053	-92.33
856.228	-49.32
856.403	-24.75
856.577	81.75
856.752	-77.99
856.926	87.89
857.101	-39.08
857.276	-6.31
857.45	-16.55
857.625	40.79
857.799	-47.27
857.974	-12.46
858.148	-32.94
858.323	-16.55
858.497	14.17
858.672	-55.47
858.846	-30.89
859.02	87.89
859.195	-16.55
859.369	28.5
859.543	-67.75
859.718	44.88
859.892	8.02
860.066	63.32
860.241	-100.52
860.415	-69.8
860.589	-61.61
860.763	32.6
860.938	-26.79
861.112	16.21
861.286	67.41
861.46	26.45
861.634	-75.95
861.808	89.94
861.982	-63.66
862.157	-4.27
862.331	-43.18
862.505	-71.85
862.679	-118.95
862.853	-114.86
863.027	-37.03
863.201	206.67
863.375	-12.46
863.549	-10.41
863.722	44.88
863.896	114.52
864.07	-28.84
864.244	-0.17
864.418	79.7
864.592	30.55
864.766	18.26
864.939	30.55
865.113	1.88
865.287	46.93
865.461	-41.13
865.634	28.5
865.808	20.31
865.982	32.6
866.156	-41.13
866.329	-47.27
866.503	71.51
866.676	1.88
866.85	48.98
867.024	-34.99
867.197	36.69
867.371	-20.65
867.544	10.07
867.718	-43.18
867.891	55.12
868.065	-45.23
868.238	3.93
868.412	89.94
868.585	16.21
868.759	-98.47
868.932	1.88
869.105	-180.39
869.279	3.93
869.452	-63.66
869.625	32.6
869.799	42.84
869.972	-92.33
870.145	8.02
870.319	55.12
870.492	-94.38
870.665	-61.61
870.838	-57.51
871.011	-221.35
871.185	48.98
871.358	-30.89
871.531	26.45
871.704	-30.89
871.877	18.26
872.05	24.4
872.223	-14.51
872.396	110.42
872.569	40.79
872.742	-75.95
872.915	55.12
873.088	46.93
873.261	-80.04
873.434	120.66
873.607	18.26
873.78	120.66
873.953	-47.27
874.126	46.93
874.299	98.13
874.471	51.03
874.644	30.55
874.817	28.5
874.99	132.95
875.163	-20.65
875.335	48.98
875.508	-26.79
875.681	180.05
875.853	8.02
876.026	-47.27
876.199	71.51
876.371	48.98
876.544	-26.79
876.717	1.88
876.889	28.5
877.062	118.61
877.234	-92.33
877.407	-61.61
877.579	28.5
877.752	26.45
877.924	96.08
878.097	1.88
878.269	30.55
878.442	-4.27
878.614	-10.41
878.786	57.17
878.959	63.32
879.131	-18.6
879.303	-118.95
879.476	61.27
879.648	63.32
879.82	71.51
879.993	-10.41
880.165	51.03
880.337	-77.99
880.509	-41.13
880.681	-39.08
880.854	59.22
881.026	-16.55
881.198	137.04
881.37	40.79
881.542	57.17
881.714	-37.03
881.886	-34.99
882.058	-16.55
882.23	-2.22
882.402	-22.7
882.574	44.88
882.746	-20.65
882.918	81.75
883.09	12.12
883.262	-88.23
883.434	-30.89
883.606	-96.43
883.778	69.46
883.95	153.43
884.122	-73.9
884.293	71.51
884.465	46.93
884.637	130.9
884.809	8.02
884.98	3.93
885.152	61.27
885.324	36.69
885.496	-24.75
885.667	-41.13
885.839	10.07
886.011	110.42
886.182	79.7
886.354	57.17
886.525	42.84
886.697	30.55
886.869	-90.28
887.04	-14.51
887.212	73.56
887.383	137.04
887.555	-0.17
887.726	-16.55
887.897	-88.23
888.069	-6.31
888.24	18.26
888.412	-61.61
888.583	3.93
888.754	44.88
888.926	-98.47
889.097	-41.13
889.268	-98.47
889.44	38.74
889.611	-43.18
889.782	-63.66
889.953	8.02
890.125	83.8
890.296	-67.75
890.467	-47.27
890.638	10.07
890.809	18.26
890.98	-8.36
891.151	40.79
891.323	126.8
891.494	34.64
891.665	-10.41
891.836	-14.51
892.007	-6.31
892.178	8.02
892.349	79.7
892.52	12.12
892.691	10.07
892.862	-69.8
893.032	-129.19
893.203	-6.31
893.374	-8.36
893.545	44.88
893.716	-20.65
893.887	16.21
894.057	20.31
894.228	-80.04
894.399	-34.99
894.57	81.75
894.74	-16.55
894.911	94.04
895.082	-32.94
895.253	-24.75
895.423	57.17
895.594	120.66
895.764	16.21
895.935	-73.9
896.106	91.99
896.276	20.31
896.447	114.52
896.617	-69.8
896.788	-34.99
896.958	5.97
897.129	-14.51
897.299	-49.32
897.47	122.71
897.64	-20.65
897.81	-18.6
897.981	-24.75
898.151	-16.55
898.322	24.4
898.492	24.4
898.662	8.02
898.832	-57.51
899.003	-14.51
899.173	44.88
899.343	-16.55
899.513	-39.08
