Data from USB4F104151__275__11-20-47-231.txt Node

Date: Wed Feb 26 11:20:47 EST 2025
User: louis
Spectrometer: USB4F10415
Trigger mode: 4
Integration Time (sec): 1.000000E-1
Scans to average: 1
Electric dark correction enabled: true
Nonlinearity correction enabled: false
Boxcar width: 0
XAxis mode: Wavelengths
Number of Pixels in Spectrum: 3648
>>>>>Begin Spectral Data<<<<<
178.204	-361.13
178.424	-361.13
178.644	-361.13
178.864	-406.18
179.084	-359.08
179.304	-33.45
179.524	-66.22
179.744	85.33
179.964	46.42
180.184	46.42
180.404	95.57
180.624	-70.31
180.844	-17.07
181.064	-113.32
181.283	-15.02
181.503	-66.22
181.723	107.86
181.943	-133.8
182.163	136.53
182.383	-0.68
182.602	54.61
182.822	132.44
183.042	79.19
183.262	-17.07
183.482	-4.78
183.701	75.09
183.921	120.15
184.141	-25.26
184.361	128.34
184.58	75.09
184.8	77.14
185.02	9.56
185.239	87.38
185.459	58.71
185.679	140.63
185.898	-12.97
186.118	9.56
186.338	95.57
186.557	11.61
186.777	-31.4
186.997	-82.6
187.216	-51.88
187.436	216.4
187.655	77.14
187.875	122.2
188.095	109.91
188.314	140.63
188.534	146.77
188.753	-39.59
188.973	111.96
189.192	171.35
189.412	32.08
189.631	34.13
189.851	66.9
190.07	128.34
190.29	-66.22
190.509	7.51
190.729	71
190.948	124.24
191.168	234.83
191.387	81.24
191.607	-49.83
191.826	-27.31
192.045	-15.02
192.265	25.94
192.484	122.2
192.704	38.23
192.923	-74.41
193.142	218.45
193.362	134.48
193.581	64.85
193.8	120.15
194.02	83.28
194.239	66.9
194.458	189.78
194.678	62.8
194.897	-49.83
195.116	66.9
195.335	77.14
195.555	50.52
195.774	9.56
195.993	101.72
196.212	-21.16
196.432	-107.18
196.651	-35.5
196.87	-15.02
197.089	253.27
197.308	40.28
197.528	36.18
197.747	-8.87
197.966	56.66
198.185	116.05
198.404	-17.07
198.623	122.2
198.842	93.52
199.062	116.05
199.281	150.87
199.5	56.66
199.719	-8.87
199.938	34.13
200.157	68.95
200.376	64.85
200.595	163.15
200.814	30.04
201.033	42.32
201.252	144.72
201.471	77.14
201.69	93.52
201.909	-19.11
202.128	136.53
202.347	116.05
202.566	-4.78
202.785	-70.31
203.004	-12.97
203.223	247.12
203.442	52.56
203.661	-12.97
203.879	58.71
204.098	91.48
204.317	-12.97
204.536	62.8
204.755	99.67
204.974	118.1
205.193	27.99
205.411	150.87
205.63	66.9
205.849	23.89
206.068	23.89
206.287	-27.31
206.505	122.2
206.724	23.89
206.943	13.65
207.162	48.47
207.381	52.56
207.599	3.41
207.818	-19.11
208.037	-47.79
208.255	73.04
208.474	3.41
208.693	44.37
208.911	-27.31
209.13	130.39
209.349	66.9
209.567	62.8
209.786	75.09
210.005	89.43
210.223	97.62
210.442	-146.09
210.661	-41.64
210.879	-17.07
211.098	-25.26
211.316	32.08
211.535	64.85
211.753	-8.87
211.972	71
212.191	-27.31
212.409	40.28
212.628	58.71
212.846	-39.59
213.065	64.85
213.283	138.58
213.502	-31.4
213.72	-21.16
213.938	44.37
214.157	-47.79
214.375	85.33
214.594	73.04
214.812	87.38
215.031	34.13
215.249	23.89
215.467	91.48
215.686	9.56
215.904	132.44
216.122	25.94
216.341	187.73
216.559	-41.64
216.778	62.8
216.996	159.06
217.214	-4.78
217.432	19.8
217.651	-47.79
217.869	-10.92
218.087	71
218.306	9.56
218.524	60.76
218.742	-49.83
218.96	114
219.179	30.04
219.397	46.42
219.615	204.11
219.833	46.42
220.051	-37.55
220.27	77.14
220.488	105.81
220.706	44.37
220.924	58.71
221.142	99.67
221.36	-15.02
221.578	60.76
221.796	77.14
222.015	44.37
222.233	17.75
222.451	165.2
222.669	-25.26
222.887	-15.02
223.105	1.37
223.323	3.41
223.541	-41.64
223.759	56.66
223.977	40.28
224.195	197.97
224.413	87.38
224.631	103.76
224.849	19.8
225.067	159.06
225.285	-55.98
225.503	3.41
225.721	-129.7
225.939	44.37
226.157	50.52
226.375	290.13
226.592	42.32
226.81	62.8
227.028	152.92
227.246	71
227.464	120.15
227.682	130.39
227.9	101.72
228.117	21.85
228.335	73.04
228.553	50.52
228.771	23.89
228.989	75.09
229.206	95.57
229.424	17.75
229.642	32.08
229.86	23.89
230.077	103.76
230.295	-37.55
230.513	99.67
230.731	58.71
230.948	136.53
231.166	177.49
231.384	87.38
231.601	30.04
231.819	189.78
232.037	83.28
232.254	-4.78
232.472	34.13
232.689	-33.45
232.907	99.67
233.125	42.32
233.342	11.61
233.56	-68.27
233.777	64.85
233.995	9.56
234.213	77.14
234.43	132.44
234.648	38.23
234.865	-0.68
235.083	68.95
235.3	60.76
235.518	95.57
235.735	93.52
235.953	171.35
236.17	71
236.388	62.8
236.605	140.63
236.822	116.05
237.04	87.38
237.257	75.09
237.475	15.7
237.692	105.81
237.909	136.53
238.127	17.75
238.344	101.72
238.562	68.95
238.779	-92.84
238.996	-101.03
239.214	79.19
239.431	71
239.648	40.28
239.865	46.42
240.083	54.61
240.3	3.41
240.517	-31.4
240.735	30.04
240.952	161.11
241.169	122.2
241.386	124.24
241.603	66.9
241.821	-43.69
242.038	85.33
242.255	79.19
242.472	-43.69
242.689	23.89
242.907	89.43
243.124	1.37
243.341	38.23
243.558	9.56
243.775	-33.45
243.992	-98.99
244.209	21.85
244.426	179.54
244.643	30.04
244.86	15.7
245.078	83.28
245.295	34.13
245.512	34.13
245.729	-4.78
245.946	46.42
246.163	21.85
246.38	-19.11
246.597	124.24
246.814	42.32
247.031	93.52
247.248	89.43
247.464	60.76
247.681	30.04
247.898	62.8
248.115	42.32
248.332	-47.79
248.549	128.34
248.766	146.77
248.983	134.48
249.2	87.38
249.417	130.39
249.633	54.61
249.85	77.14
250.067	21.85
250.284	75.09
250.501	138.58
250.717	91.48
250.934	-27.31
251.151	32.08
251.368	3.41
251.585	9.56
251.801	120.15
252.018	-74.41
252.235	148.82
252.451	-39.59
252.668	-47.79
252.885	66.9
253.102	13.65
253.318	-10.92
253.535	27.99
253.752	66.9
253.968	64.85
254.185	-29.35
254.401	21.85
254.618	36.18
254.835	1.37
255.051	105.81
255.268	128.34
255.484	62.8
255.701	-39.59
255.917	52.56
256.134	-35.5
256.351	-10.92
256.567	64.85
256.784	19.8
257	-51.88
257.217	167.25
257.433	142.68
257.65	54.61
257.866	107.86
258.082	-21.16
258.299	-43.69
258.515	56.66
258.732	17.75
258.948	-25.26
259.165	52.56
259.381	-90.79
259.597	89.43
259.814	99.67
260.03	38.23
260.246	-21.16
260.463	83.28
260.679	157.01
260.895	56.66
261.112	62.8
261.328	3.41
261.544	36.18
261.761	200.02
261.977	-0.68
262.193	-96.94
262.409	107.86
262.626	44.37
262.842	11.61
263.058	-76.46
263.274	79.19
263.49	50.52
263.707	146.77
263.923	77.14
264.139	-47.79
264.355	32.08
264.571	42.32
264.787	-6.83
265.004	120.15
265.22	75.09
265.436	21.85
265.652	5.46
265.868	23.89
266.084	9.56
266.3	21.85
266.516	-62.12
266.732	52.56
266.948	42.32
267.164	101.72
267.38	124.24
267.596	64.85
267.812	161.11
268.028	99.67
268.244	1.37
268.46	62.8
268.676	1.37
268.892	54.61
269.108	-62.12
269.324	-12.97
269.54	-4.78
269.756	134.48
269.972	-39.59
270.188	81.24
270.403	21.85
270.619	-15.02
270.835	44.37
271.051	23.89
271.267	15.7
271.483	60.76
271.698	132.44
271.914	23.89
272.13	118.1
272.346	-10.92
272.562	13.65
272.777	152.92
272.993	40.28
273.209	-10.92
273.425	75.09
273.64	-82.6
273.856	136.53
274.072	40.28
274.287	13.65
274.503	60.76
274.719	42.32
274.934	38.23
275.15	-27.31
275.366	-21.16
275.581	19.8
275.797	54.61
276.012	111.96
276.228	25.94
276.444	71
276.659	185.68
276.875	-70.31
277.09	-27.31
277.306	30.04
277.521	85.33
277.737	15.7
277.952	177.49
278.168	-6.83
278.383	56.66
278.599	91.48
278.814	85.33
279.03	7.51
279.245	202.07
279.461	17.75
279.676	75.09
279.892	-84.65
280.107	-47.79
280.322	52.56
280.538	11.61
280.753	-53.93
280.969	79.19
281.184	48.47
281.399	163.15
281.615	85.33
281.83	146.77
282.045	-101.03
282.26	-37.55
282.476	-41.64
282.691	103.76
282.906	95.57
283.122	48.47
283.337	-23.21
283.552	34.13
283.767	19.8
283.983	64.85
284.198	9.56
284.413	19.8
284.628	-66.22
284.843	73.04
285.058	48.47
285.274	25.94
285.489	34.13
285.704	40.28
285.919	-8.87
286.134	83.28
286.349	25.94
286.564	23.89
286.779	175.44
286.995	-23.21
287.21	17.75
287.425	95.57
287.64	44.37
287.855	120.15
288.07	-68.27
288.285	101.72
288.5	142.68
288.715	97.62
288.93	-27.31
289.145	34.13
289.36	134.48
289.575	32.08
289.79	83.28
290.004	-8.87
290.219	83.28
290.434	5.46
290.649	-2.73
290.864	-21.16
291.079	11.61
291.294	-0.68
291.509	54.61
291.724	56.66
291.938	-10.92
292.153	36.18
292.368	17.75
292.583	120.15
292.798	64.85
293.012	48.47
293.227	75.09
293.442	23.89
293.657	111.96
293.871	197.97
294.086	3.41
294.301	120.15
294.516	99.67
294.73	56.66
294.945	-0.68
295.16	1.37
295.374	148.82
295.589	101.72
295.804	15.7
296.018	66.9
296.233	103.76
296.447	40.28
296.662	68.95
296.877	120.15
297.091	75.09
297.306	95.57
297.52	40.28
297.735	68.95
297.949	77.14
298.164	36.18
298.378	56.66
298.593	-6.83
298.807	30.04
299.022	85.33
299.236	171.35
299.451	-33.45
299.665	36.18
299.88	56.66
300.094	93.52
300.309	50.52
300.523	64.85
300.737	23.89
300.952	27.99
301.166	146.77
301.381	-60.07
301.595	54.61
301.809	93.52
302.024	75.09
302.238	9.56
302.452	97.62
302.667	62.8
302.881	52.56
303.095	187.73
303.309	40.28
303.524	-47.79
303.738	38.23
303.952	-33.45
304.166	114
304.381	3.41
304.595	91.48
304.809	-0.68
305.023	34.13
305.237	11.61
305.452	68.95
305.666	111.96
305.88	42.32
306.094	150.87
306.308	32.08
306.522	120.15
306.736	71
306.95	54.61
307.164	23.89
307.379	17.75
307.593	25.94
307.807	97.62
308.021	97.62
308.235	89.43
308.449	-82.6
308.663	116.05
308.877	247.12
309.091	66.9
309.305	134.48
309.519	-109.22
309.733	128.34
309.947	-64.17
310.161	66.9
310.374	111.96
310.588	150.87
310.802	-10.92
311.016	-8.87
311.23	13.65
311.444	-0.68
311.658	40.28
311.872	56.66
312.085	150.87
312.299	148.82
312.513	140.63
312.727	68.95
312.941	-68.27
313.154	48.47
313.368	64.85
313.582	7.51
313.796	89.43
314.009	40.28
314.223	103.76
314.437	56.66
314.651	171.35
314.864	-70.31
315.078	-10.92
315.292	-6.83
315.505	97.62
315.719	75.09
315.933	128.34
316.146	-10.92
316.36	-19.11
316.573	169.3
316.787	120.15
317.001	179.54
317.214	-12.97
317.428	95.57
317.641	-12.97
317.855	-53.93
318.068	15.7
318.282	54.61
318.495	152.92
318.709	122.2
318.922	-23.21
319.136	222.55
319.349	111.96
319.563	1.37
319.776	136.53
319.99	-80.55
320.203	85.33
320.417	42.32
320.63	169.3
320.843	138.58
321.057	77.14
321.27	23.89
321.483	91.48
321.697	179.54
321.91	48.47
322.124	-4.78
322.337	68.95
322.55	-10.92
322.763	48.47
322.977	-2.73
323.19	68.95
323.403	60.76
323.617	146.77
323.83	101.72
324.043	-8.87
324.256	85.33
324.469	1.37
324.683	107.86
324.896	-4.78
325.109	-12.97
325.322	-47.79
325.535	50.52
325.748	116.05
325.962	19.8
326.175	81.24
326.388	44.37
326.601	21.85
326.814	27.99
327.027	36.18
327.24	185.68
327.453	13.65
327.666	95.57
327.879	134.48
328.092	122.2
328.305	111.96
328.518	-43.69
328.731	-15.02
328.944	30.04
329.157	93.52
329.37	-17.07
329.583	126.29
329.796	118.1
330.009	-96.94
330.222	81.24
330.435	159.06
330.648	9.56
330.861	-19.11
331.073	44.37
331.286	95.57
331.499	23.89
331.712	9.56
331.925	1.37
332.138	9.56
332.35	-0.68
332.563	42.32
332.776	204.11
332.989	-72.36
333.202	5.46
333.414	46.42
333.627	103.76
333.84	15.7
334.053	23.89
334.265	40.28
334.478	-29.35
334.691	93.52
334.903	87.38
335.116	56.66
335.329	25.94
335.541	144.72
335.754	161.11
335.966	44.37
336.179	13.65
336.392	-6.83
336.604	75.09
336.817	66.9
337.029	132.44
337.242	17.75
337.454	103.76
337.667	5.46
337.88	212.31
338.092	60.76
338.305	81.24
338.517	1.37
338.729	50.52
338.942	161.11
339.154	-125.61
339.367	-70.31
339.579	97.62
339.792	-10.92
340.004	66.9
340.217	40.28
340.429	71
340.641	48.47
340.854	19.8
341.066	77.14
341.278	101.72
341.491	152.92
341.703	13.65
341.915	-0.68
342.128	122.2
342.34	89.43
342.552	-19.11
342.764	30.04
342.977	42.32
343.189	60.76
343.401	27.99
343.613	-64.17
343.826	56.66
344.038	-31.4
344.25	36.18
344.462	-86.7
344.674	103.76
344.886	66.9
345.099	56.66
345.311	118.1
345.523	21.85
345.735	-64.17
345.947	83.28
346.159	-15.02
346.371	64.85
346.583	13.65
346.795	187.73
347.007	-51.88
347.219	87.38
347.431	17.75
347.643	128.34
347.855	-133.8
348.067	154.96
348.279	-76.46
348.491	30.04
348.703	150.87
348.915	101.72
349.127	34.13
349.339	54.61
349.551	48.47
349.763	126.29
349.975	50.52
350.187	146.77
350.399	144.72
350.61	58.71
350.822	-2.73
351.034	89.43
351.246	66.9
351.458	79.19
351.669	89.43
351.881	105.81
352.093	77.14
352.305	97.62
352.517	142.68
352.728	97.62
352.94	52.56
353.152	136.53
353.363	-23.21
353.575	103.76
353.787	173.39
353.999	42.32
354.21	218.45
354.422	23.89
354.633	1.37
354.845	15.7
355.057	27.99
355.268	75.09
355.48	144.72
355.692	13.65
355.903	-4.78
356.115	5.46
356.326	-70.31
356.538	200.02
356.749	116.05
356.961	68.95
357.172	17.75
357.384	-35.5
357.595	236.88
357.807	17.75
358.018	-6.83
358.23	87.38
358.441	236.88
358.653	122.2
358.864	44.37
359.075	-31.4
359.287	19.8
359.498	165.2
359.709	68.95
359.921	46.42
360.132	202.07
360.344	85.33
360.555	13.65
360.766	75.09
360.977	95.57
361.189	48.47
361.4	62.8
361.611	107.86
361.823	50.52
362.034	73.04
362.245	-29.35
362.456	3.41
362.667	95.57
362.879	-60.07
363.09	60.76
363.301	81.24
363.512	-15.02
363.723	9.56
363.935	11.61
364.146	140.63
364.357	3.41
364.568	48.47
364.779	-74.41
364.99	175.44
365.201	5.46
365.412	116.05
365.623	-12.97
365.834	32.08
366.045	42.32
366.256	95.57
366.467	126.29
366.678	66.9
366.889	93.52
367.1	15.7
367.311	165.2
367.522	15.7
367.733	103.76
367.944	111.96
368.155	21.85
368.366	83.28
368.577	27.99
368.788	21.85
368.999	-19.11
369.209	-49.83
369.42	197.97
369.631	240.98
369.842	111.96
370.053	1.37
370.264	111.96
370.474	-49.83
370.685	95.57
370.896	-47.79
371.107	142.68
371.317	77.14
371.528	66.9
371.739	206.16
371.95	81.24
372.16	150.87
372.371	-64.17
372.582	36.18
372.792	60.76
373.003	79.19
373.214	105.81
373.424	89.43
373.635	-47.79
373.846	136.53
374.056	48.47
374.267	128.34
374.477	87.38
374.688	17.75
374.898	66.9
375.109	21.85
375.319	-8.87
375.53	124.24
375.74	34.13
375.951	52.56
376.161	60.76
376.372	114
376.582	-31.4
376.793	60.76
377.003	-72.36
377.214	-4.78
377.424	114
377.635	87.38
377.845	9.56
378.055	140.63
378.266	-31.4
378.476	-8.87
378.686	50.52
378.897	30.04
379.107	140.63
379.317	23.89
379.528	-41.64
379.738	85.33
379.948	-55.98
380.158	105.81
380.369	5.46
380.579	75.09
380.789	56.66
380.999	17.75
381.21	126.29
381.42	177.49
381.63	17.75
381.84	77.14
382.05	81.24
382.261	148.82
382.471	167.25
382.681	62.8
382.891	107.86
383.101	107.86
383.311	30.04
383.521	-49.83
383.731	91.48
383.941	124.24
384.151	126.29
384.361	-96.94
384.571	36.18
384.781	44.37
384.991	224.59
385.201	183.63
385.411	142.68
385.621	11.61
385.831	95.57
386.041	109.91
386.251	-12.97
386.461	111.96
386.671	36.18
386.881	44.37
387.091	21.85
387.301	25.94
387.511	7.51
387.72	17.75
387.93	105.81
388.14	-33.45
388.35	81.24
388.56	85.33
388.769	154.96
388.979	7.51
389.189	60.76
389.399	81.24
389.609	103.76
389.818	126.29
390.028	87.38
390.238	34.13
390.447	40.28
390.657	38.23
390.867	-0.68
391.076	-98.99
391.286	54.61
391.496	-6.83
391.705	71
391.915	173.39
392.125	161.11
392.334	1.37
392.544	138.58
392.753	46.42
392.963	11.61
393.172	23.89
393.382	9.56
393.591	171.35
393.801	-21.16
394.01	105.81
394.22	124.24
394.429	-21.16
394.639	13.65
394.848	68.95
395.058	101.72
395.267	36.18
395.477	56.66
395.686	23.89
395.895	167.25
396.105	148.82
396.314	197.97
396.524	40.28
396.733	25.94
396.942	130.39
397.152	52.56
397.361	99.67
397.57	87.38
397.78	42.32
397.989	44.37
398.198	175.44
398.407	34.13
398.617	36.18
398.826	38.23
399.035	42.32
399.244	124.24
399.453	79.19
399.663	58.71
399.872	130.39
400.081	-6.83
400.29	122.2
400.499	103.76
400.708	128.34
400.917	32.08
401.127	46.42
401.336	19.8
401.545	175.44
401.754	163.15
401.963	126.29
402.172	79.19
402.381	3.41
402.59	34.13
402.799	66.9
403.008	146.77
403.217	-0.68
403.426	107.86
403.635	-12.97
403.844	60.76
404.053	73.04
404.262	36.18
404.471	54.61
404.68	44.37
404.888	9.56
405.097	36.18
405.306	58.71
405.515	114
405.724	15.7
405.933	163.15
406.142	79.19
406.35	81.24
406.559	79.19
406.768	71
406.977	64.85
407.185	62.8
407.394	-29.35
407.603	-105.13
407.812	99.67
408.02	79.19
408.229	1.37
408.438	60.76
408.646	64.85
408.855	-29.35
409.064	132.44
409.272	64.85
409.481	81.24
409.69	-12.97
409.898	3.41
410.107	138.58
410.315	89.43
410.524	44.37
410.733	109.91
410.941	25.94
411.15	93.52
411.358	181.59
411.567	126.29
411.775	62.8
411.984	83.28
412.192	91.48
412.401	36.18
412.609	132.44
412.818	134.48
413.026	68.95
413.234	58.71
413.443	118.1
413.651	48.47
413.86	40.28
414.068	173.39
414.276	175.44
414.485	13.65
414.693	191.83
414.901	224.59
415.11	103.76
415.318	114
415.526	71
415.734	103.76
415.943	60.76
416.151	17.75
416.359	19.8
416.567	40.28
416.776	46.42
416.984	146.77
417.192	169.3
417.4	116.05
417.608	-23.21
417.817	-10.92
418.025	23.89
418.233	191.83
418.441	-23.21
418.649	-33.45
418.857	111.96
419.065	152.92
419.273	-8.87
419.481	77.14
419.689	56.66
419.897	34.13
420.105	-109.22
420.313	146.77
420.521	157.01
420.729	103.76
420.937	40.28
421.145	5.46
421.353	89.43
421.561	212.31
421.769	46.42
421.977	1.37
422.185	142.68
422.393	103.76
422.601	73.04
422.809	122.2
423.017	46.42
423.224	7.51
423.432	126.29
423.64	15.7
423.848	179.54
424.056	-2.73
424.263	150.87
424.471	30.04
424.679	136.53
424.887	-31.4
425.094	111.96
425.302	81.24
425.51	66.9
425.718	138.58
425.925	120.15
426.133	7.51
426.341	206.16
426.548	25.94
426.756	75.09
426.964	64.85
427.171	11.61
427.379	161.11
427.586	111.96
427.794	99.67
428.001	91.48
428.209	68.95
428.417	128.34
428.624	73.04
428.832	105.81
429.039	7.51
429.247	122.2
429.454	181.59
429.662	173.39
429.869	118.1
430.076	101.72
430.284	187.73
430.491	116.05
430.699	93.52
430.906	148.82
431.114	122.2
431.321	114
431.528	234.83
431.736	193.87
431.943	202.07
432.15	177.49
432.358	140.63
432.565	304.46
432.772	5.46
432.979	185.68
433.187	77.14
433.394	222.55
433.601	83.28
433.808	224.59
434.016	228.69
434.223	230.74
434.43	189.78
434.637	255.31
434.844	240.98
435.052	300.37
435.259	247.12
435.466	259.41
435.673	206.16
435.88	253.27
436.087	275.79
436.294	267.6
436.501	322.9
436.708	220.5
436.915	269.65
437.122	343.38
437.329	210.26
437.537	320.85
437.743	290.13
437.95	390.48
438.157	367.95
438.364	238.93
438.571	363.86
438.778	476.49
438.985	400.72
439.192	406.86
439.399	372.05
439.606	445.77
439.813	437.58
440.02	435.53
440.227	582.99
440.433	437.58
440.64	480.59
440.847	361.81
441.054	527.69
441.261	529.74
441.467	515.41
441.674	439.63
441.881	646.48
442.088	529.74
442.294	531.79
442.501	730.44
442.708	732.49
442.914	615.76
443.121	748.87
443.328	734.54
443.534	914.76
443.741	847.18
443.948	775.5
444.154	828.74
444.361	1066.31
444.568	945.48
444.774	994.63
444.981	886.09
445.187	1068.36
445.394	935.24
445.6	970.05
445.807	1117.51
446.013	1123.65
446.22	1068.36
446.426	1246.53
446.633	1224
446.839	1430.85
447.046	1228.1
447.252	1371.46
447.459	1332.55
447.665	1510.72
447.871	1602.88
448.078	1598.78
448.284	1668.41
448.491	1754.43
448.697	1819.96
448.903	1803.58
449.11	1848.63
449.316	1848.63
449.522	2026.81
449.728	2139.44
449.935	2129.2
450.141	2196.79
450.347	2368.82
450.553	2272.56
450.76	2368.82
450.966	2471.22
451.172	2669.87
451.378	2716.97
451.584	2780.46
451.791	2862.38
451.997	2975.02
452.203	3081.51
452.409	3306.79
452.615	3280.16
452.821	3138.85
453.027	3212.58
453.233	3800.35
453.44	3589.41
453.646	3857.69
453.852	3984.66
454.058	4164.89
454.264	4242.71
454.47	4449.55
454.676	4420.88
454.882	5002.51
455.088	4783.37
455.294	5053.7
455.5	5356.8
455.705	5786.88
455.911	5604.61
456.117	5817.6
456.323	5883.13
456.529	5971.19
456.735	6503.67
456.941	6659.31
457.147	6939.88
457.352	7165.16
457.558	7331.05
457.764	7802.08
457.97	7947.48
458.176	8213.72
458.381	8412.37
458.587	8901.84
458.793	9211.08
458.999	9028.81
459.204	10333.37
459.41	10757.3
459.616	10448.05
459.821	11328.68
460.027	11830.43
460.233	12301.47
460.438	12426.39
460.644	13067.41
460.85	13008.01
461.055	13399.18
461.261	14236.8
461.466	13956.22
461.672	14191.74
461.878	15854.69
462.083	15606.89
462.289	16176.22
462.494	16763.99
462.7	16888.92
462.905	17040.47
463.111	18652.22
463.316	19407.92
463.522	19794.98
463.727	20380.7
463.932	20976.66
464.138	21896.2
464.343	23006.2
464.549	22707.19
464.754	24665.05
464.959	25101.27
465.165	25777.1
465.37	25242.58
465.575	25482.19
465.781	27329.46
465.986	27804.59
466.191	27315.12
466.397	27960.23
466.602	27001.79
466.807	28654.5
467.012	29434.77
467.218	29899.66
467.423	29647.76
467.628	30571.39
467.833	32418.66
468.038	31417.21
468.244	31439.73
468.449	32846.69
468.654	32240.49
468.859	31824.75
469.064	31982.45
469.269	31216.5
469.474	31497.08
469.679	32344.94
469.885	31783.79
470.09	31998.83
470.295	32164.71
470.5	31304.57
470.705	32045.93
470.91	30677.89
471.115	30503.81
471.32	30802.82
471.525	30886.78
471.73	30192.52
471.935	29875.09
472.139	28658.59
472.344	28847.01
472.549	28707.74
472.754	27823.02
472.959	27710.38
473.164	26424.26
473.369	26086.34
473.574	27057.08
473.778	26248.13
473.983	25668.56
474.188	25621.45
474.393	24026.09
474.598	24253.41
474.802	23497.71
475.007	23247.86
475.212	23092.21
475.417	22193.15
475.621	21763.08
475.826	21781.51
476.031	21011.48
476.235	20587.55
476.44	20659.23
476.645	20065.32
476.849	20255.78
477.054	19676.2
477.259	19076.15
477.463	19282.99
477.668	18426.94
477.872	18721.85
478.077	18103.36
478.282	17624.14
478.486	17513.55
478.691	17292.37
478.895	17007.7
479.1	17007.7
479.304	17142.86
479.509	16370.78
479.713	16616.54
479.918	16268.38
480.122	15877.22
480.326	16153.69
480.531	15823.97
480.735	15819.88
480.94	15371.37
481.144	16082.02
481.348	15238.25
481.553	15078.51
481.757	14828.66
481.961	14797.94
482.166	15199.34
482.37	14992.5
482.574	14488.7
482.778	14627.96
482.983	14746.74
483.187	14343.29
483.391	14152.83
483.595	13978.75
483.8	13896.83
484.004	13958.27
484.208	13925.5
484.412	13677.7
484.616	13300.87
484.821	13298.83
485.025	13057.17
485.229	13139.08
485.433	12627.09
485.637	12741.78
485.841	12424.34
486.045	12397.72
486.249	12106.91
486.453	12037.28
486.657	11883.68
486.861	11850.91
487.065	11404.46
487.269	11504.81
487.473	10874.03
487.677	10990.77
487.881	11193.51
488.085	10742.96
488.289	10599.6
488.493	10198.2
488.697	10323.13
488.901	10147
489.105	9979.07
489.309	9764.03
489.512	9723.07
489.716	9456.84
489.92	9256.14
490.124	8899.79
490.328	9075.91
490.531	8719.57
490.735	8850.64
490.939	8527.06
491.143	8303.83
491.346	8252.63
491.55	8146.14
491.754	7853.28
491.958	7740.64
492.161	7615.71
492.365	7562.47
492.569	7410.92
492.772	7339.24
492.976	7298.28
493.18	7113.96
493.383	7120.1
493.587	7124.2
493.79	6991.08
493.994	6804.72
494.197	6612.21
494.401	6823.15
494.605	6630.64
494.808	6538.48
495.012	6579.44
495.215	6489.33
495.419	6440.18
495.622	6294.77
495.825	6350.07
496.029	6210.81
496.232	6419.7
496.436	6323.44
496.639	6321.4
496.843	6135.03
497.046	6163.7
497.249	6503.67
497.453	6247.67
497.656	6221.05
497.859	6241.53
498.063	6178.04
498.266	6388.98
498.469	6024.44
498.673	6198.52
498.876	6485.23
499.079	6128.89
499.282	6212.85
499.485	6673.65
499.689	6382.84
499.892	6518
500.095	6415.6
500.298	6601.97
500.501	6407.41
500.705	6569.2
500.908	6669.55
501.111	6790.38
501.314	6794.48
501.517	6890.73
501.72	6911.21
501.923	6855.92
502.126	7060.71
502.329	7113.96
502.532	7126.25
502.735	7222.5
502.938	7478.5
503.141	7275.75
503.344	7541.99
503.547	7601.38
503.75	7748.83
503.953	7871.71
504.156	7787.74
504.359	7900.38
504.562	7982.3
504.765	8080.6
504.968	8207.58
505.17	8361.17
505.373	8715.47
505.576	8881.36
505.779	8754.38
505.982	8998.09
506.185	9333.96
506.387	9331.91
506.59	9579.72
506.793	9837.76
506.996	9905.34
507.198	10034.36
507.401	10228.92
507.604	10458.29
507.807	10648.75
508.009	10740.91
508.212	11087.02
508.415	11207.85
508.617	11420.84
508.82	11578.53
509.022	11672.74
509.225	12268.7
509.428	12448.92
509.63	12584.09
509.833	12784.79
510.035	13276.3
510.238	13259.91
510.44	13788.29
510.643	13948.03
510.845	14421.11
511.048	14560.38
511.25	15010.93
511.453	15019.12
511.655	15756.39
511.858	15920.23
512.06	16354.4
512.262	16819.28
512.465	16880.72
512.667	17550.41
512.87	17572.94
513.072	17974.34
513.274	18486.33
513.477	19096.63
513.679	19405.87
513.881	19674.15
514.084	20368.41
514.286	20431.9
514.488	21046.29
514.69	21756.94
514.893	21935.11
515.095	22537.21
515.297	22823.93
515.499	23254
515.701	23749.61
515.904	24413.15
516.106	25045.98
516.308	25523.15
516.51	26139.59
516.712	26328
516.914	26864.57
517.116	27648.94
517.318	27904.94
517.52	28629.92
517.722	29037.47
517.925	29422.48
518.127	30178.18
518.329	30223.24
518.531	30665.6
518.733	31404.92
518.935	31882.09
519.136	32471.91
519.338	33043.29
519.54	33188.7
519.742	34304.84
519.944	34626.37
520.146	35255.1
520.348	35906.35
520.55	35967.79
520.752	36573.99
520.954	37102.37
521.155	37364.51
521.357	37757.72
521.559	38116.11
521.761	38966.02
521.963	39099.14
522.164	39496.44
522.366	39699.19
522.568	40438.51
522.77	40241.9
522.971	41114.34
523.173	40579.82
523.375	41439.96
523.576	41315.04
523.778	41915.09
523.98	42279.63
524.181	42652.36
524.383	42455.76
524.584	42967.75
524.786	42799.82
524.988	42588.88
525.189	43262.66
525.391	43281.09
525.592	43055.81
525.794	43233.99
525.995	43358.91
526.197	43076.29
526.398	42912.45
526.6	43348.67
526.801	42676.94
527.003	42590.92
527.204	43137.73
527.406	42920.65
527.607	42687.18
527.808	42799.82
528.01	41784.02
528.211	42042.07
528.412	42273.49
528.614	41927.38
528.815	41290.46
529.016	41517.79
529.218	40766.18
529.419	40794.85
529.62	40018.67
529.822	39897.84
530.023	39344.89
530.224	39443.2
530.425	39136
530.626	38128.4
530.828	37407.51
531.029	38304.52
531.23	37317.4
531.431	36471.59
531.632	36713.25
531.833	36211.5
532.035	35808.05
532.236	35652.41
532.437	34949.95
532.638	34368.33
532.839	34306.89
533.04	34026.32
533.241	32985.95
533.442	33340.25
533.643	32471.91
533.844	32101.23
534.045	32013.16
534.246	31046.52
534.447	30671.75
534.648	30344.07
534.849	30393.22
535.05	29655.95
535.251	29154.2
535.451	28799.9
535.652	28638.11
535.853	28371.88
536.054	27773.87
536.255	27749.29
536.456	26665.92
536.657	26950.59
536.857	26057.67
537.058	25992.14
537.259	25844.68
537.46	25299.92
537.66	24972.25
537.861	24892.38
538.062	24421.34
538.263	24015.85
538.463	23524.33
538.664	23368.69
538.865	23137.27
539.065	22932.47
539.266	22303.74
539.466	22369.28
539.667	22092.8
539.868	22084.61
540.068	21652.49
540.269	21296.14
540.469	21140.5
540.67	20874.26
540.87	20691.99
541.071	20282.4
541.271	20046.88
541.472	19756.07
541.672	19500.08
541.873	19338.29
542.073	18730.04
542.274	19045.43
542.474	19076.15
542.675	18607.16
542.875	18555.96
543.075	18129.98
543.276	17648.71
543.476	17577.03
543.676	17407.05
543.877	17724.49
544.077	17448.01
544.277	17216.59
544.478	16819.28
544.678	16698.45
544.878	16385.12
545.078	16522.33
545.279	15905.89
545.479	15631.46
545.679	15815.78
545.879	15328.36
546.079	15428.71
546.28	14976.11
546.48	14660.73
546.68	14826.61
546.88	14634.1
547.08	14511.22
547.28	14396.54
547.48	14060.67
547.68	14173.31
547.88	13737.09
548.081	13862.02
548.281	13411.46
548.481	13137.04
548.681	13100.17
548.881	12878.99
549.081	13079.69
549.28	12776.59
549.48	12436.63
549.68	12405.91
549.88	12323.99
550.08	11973.79
550.28	11685.03
550.48	11732.13
550.68	11738.27
550.88	11185.32
551.08	11101.36
551.279	11068.59
551.479	10788.02
551.679	10800.3
551.879	10478.77
552.079	10403
552.278	10267.83
552.478	10169.53
552.678	10042.56
552.878	9960.64
553.077	9651.39
553.277	9534.66
553.477	9407.69
553.676	9129.16
553.876	8969.42
554.076	8713.42
554.275	8899.79
554.475	8633.55
554.674	8522.96
554.874	8615.12
555.074	8164.57
555.273	8199.38
555.473	7984.35
555.672	7871.71
555.872	7615.71
556.071	7736.54
556.271	7507.17
556.47	7365.86
556.67	7206.12
556.869	7089.39
557.068	6919.4
557.268	6819.05
557.467	6665.46
557.667	6708.46
557.866	6774
558.065	6591.73
558.265	6358.26
558.464	6386.93
558.663	6081.78
558.863	6169.85
559.062	6165.75
559.261	5831.93
559.461	5870.84
559.66	5782.78
559.859	5532.93
560.058	5358.85
560.258	5424.39
560.457	5315.84
560.656	5432.58
560.855	5068.04
561.054	5082.38
561.253	4975.88
561.453	4959.5
561.652	4920.59
561.851	4957.45
562.05	4803.85
562.249	4646.16
562.448	4605.2
562.647	4422.93
562.846	4506.9
563.045	4388.11
563.244	4164.89
563.443	4252.95
563.642	4037.91
563.841	4308.24
564.04	4054.3
564.239	4052.25
564.438	3843.35
564.637	3689.76
564.836	3755.29
565.035	3847.45
565.234	3792.16
565.432	3665.18
565.631	3659.04
565.83	3562.78
566.029	3521.82
566.228	3507.49
566.427	3624.22
566.625	3335.46
566.824	3294.5
567.023	3288.36
567.222	3220.77
567.42	3231.01
567.619	3155.24
567.818	2987.3
568.016	3142.95
568.215	3071.27
568.414	2954.54
568.612	2925.86
568.811	2950.44
569.01	2739.5
569.208	2745.64
569.407	2919.72
569.605	2749.74
569.804	2624.81
570.002	2710.83
570.201	2522.41
570.4	2506.03
570.598	2512.18
570.797	2487.6
570.995	2413.87
571.193	2342.19
571.392	2420.02
571.59	2323.76
571.789	2307.38
571.987	2397.49
572.186	2450.74
572.384	2166.07
572.582	2127.16
572.781	2227.51
572.979	1983.8
573.177	1994.04
573.376	2006.33
573.574	2188.6
573.772	1979.7
573.971	1805.63
574.169	1758.52
574.367	1969.46
574.565	1770.81
574.763	1791.29
574.962	1932.6
575.16	1684.8
575.358	1705.28
575.556	1680.7
575.754	1656.12
575.952	1758.52
576.151	1563.97
576.349	1684.8
576.547	1459.52
576.745	1617.21
576.943	1570.11
577.141	1488.19
577.339	1404.22
577.537	1504.57
577.735	1496.38
577.933	1477.95
578.131	1285.44
578.329	1402.18
578.527	1322.31
578.725	1240.39
578.923	1242.43
579.121	1320.26
579.319	1217.86
579.516	1195.33
579.714	1436.99
579.912	1242.43
580.11	1215.81
580.308	1203.52
580.506	1097.03
580.704	1062.21
580.901	1025.35
581.099	1207.62
581.297	1051.97
581.495	1066.31
581.692	1021.25
581.89	1144.13
582.088	1097.03
582.285	1011.01
582.483	949.57
582.681	980.29
582.878	1004.87
583.076	943.43
583.274	978.25
583.471	1008.97
583.669	937.29
583.866	830.79
584.064	873.8
584.262	808.27
584.459	849.22
584.657	861.51
584.854	886.09
585.052	963.91
585.249	877.9
585.447	843.08
585.644	699.72
585.841	847.18
586.039	791.88
586.236	881.99
586.434	709.96
586.631	652.62
586.828	759.11
587.026	771.4
587.223	599.37
587.42	701.77
587.618	769.35
587.815	748.87
588.012	671.05
588.21	716.11
588.407	697.67
588.604	656.72
588.801	613.71
588.999	718.15
589.196	660.81
589.393	562.51
589.59	683.34
589.787	607.56
589.984	675.15
590.182	666.96
590.379	599.37
590.576	554.32
590.773	564.56
590.97	589.13
591.167	650.57
591.364	609.61
591.561	539.98
591.758	783.69
591.955	644.43
592.152	617.8
592.349	562.51
592.546	587.08
592.743	595.28
592.94	566.6
593.137	542.03
593.334	703.82
593.531	576.84
593.727	617.8
593.924	564.56
594.121	580.94
594.318	591.18
594.515	660.81
594.712	671.05
594.908	669
595.105	486.73
595.302	605.52
595.499	648.52
595.696	734.54
595.892	666.96
596.089	734.54
596.286	548.17
596.482	734.54
596.679	709.96
596.876	611.66
597.072	695.63
597.269	636.24
597.466	685.39
597.662	695.63
597.859	746.83
598.055	736.59
598.252	918.86
598.448	937.29
598.645	955.72
598.841	900.42
599.038	1043.78
599.234	1178.95
599.431	1004.87
599.627	1088.84
599.824	1234.24
600.02	1097.03
600.217	1113.41
600.413	1238.34
600.609	1271.11
600.806	1465.66
601.002	1449.28
601.198	1340.74
601.395	1525.05
601.591	1518.91
601.787	1699.13
601.984	1686.84
602.18	1699.13
602.376	1832.25
602.572	1787.19
602.769	1977.66
602.965	1903.93
603.161	2082.1
603.357	2118.97
603.553	2155.83
603.75	2157.88
603.946	2338.1
604.142	2366.77
604.338	2624.81
604.534	2491.7
604.73	2575.66
604.926	2639.15
605.122	2788.65
605.318	2755.88
605.514	2987.3
605.71	3050.79
605.906	3161.38
606.102	3142.95
606.298	3388.71
606.494	3495.2
606.69	3595.55
606.886	3685.66
607.082	3656.99
607.278	3892.51
607.474	3986.71
607.67	4035.86
607.866	4039.96
608.062	4279.57
608.257	4396.31
608.453	4443.41
608.649	4715.79
608.845	4658.45
609.041	4863.24
609.236	5201.16
609.432	5168.39
609.628	5174.53
609.824	5408
610.019	5520.64
610.215	5735.68
610.411	5989.63
610.606	6061.3
610.802	6178.04
610.998	6331.64
611.193	6581.49
611.389	6647.02
611.584	6704.37
611.78	6782.19
611.976	7073
612.171	7519.46
612.367	7580.9
612.562	7650.53
612.758	7810.27
612.953	8019.16
613.149	8361.17
613.344	8522.96
613.539	8754.38
613.735	8801.49
613.93	9329.86
614.126	9333.96
614.321	9829.57
614.517	9927.87
614.712	10081.47
614.907	10368.18
615.103	10640.56
615.298	10869.94
615.493	11162.8
615.688	11338.92
615.884	12006.56
616.079	11975.84
616.274	12270.75
616.47	12776.59
616.665	13040.78
616.86	13345.93
617.055	13599.88
617.25	13802.63
617.445	14367.87
617.641	14451.83
617.836	15182.96
618.031	15156.33
618.226	16133.22
618.421	16067.68
618.616	16731.22
618.811	16864.34
619.006	17540.17
619.201	17488.97
619.396	18162.75
619.591	17921.09
619.786	18816.05
619.981	19239.98
620.176	19799.08
620.371	19993.64
620.566	20479
620.761	20874.26
620.956	21308.43
621.151	21402.64
621.346	22123.52
621.541	22158.34
621.735	22842.36
621.93	22981.62
622.125	23600.11
622.32	23636.97
622.515	24595.42
622.709	24992.73
622.904	25631.69
623.099	25572.3
623.294	26444.74
623.488	26604.48
623.683	27296.69
623.878	27173.81
624.072	28101.54
624.267	28672.93
624.462	28834.72
624.656	29100.95
624.851	29703.06
625.046	30073.74
625.24	30575.49
625.435	30997.37
625.629	31267.7
625.824	31980.4
626.018	32146.28
626.213	32150.38
626.407	33196.89
626.602	32920.42
626.796	33925.97
626.991	34155.34
627.185	34253.64
627.38	34452.3
627.574	34769.73
627.768	34849.6
627.963	34925.38
628.157	35337.02
628.352	35423.03
628.546	35136.32
628.74	35801.91
628.935	35267.39
629.129	35197.76
629.323	35085.12
629.517	34646.85
629.712	34777.92
629.906	34562.89
630.1	34456.39
630.294	33923.92
630.489	33162.08
630.683	33262.43
630.877	32951.13
631.071	32263.02
631.265	31658.87
631.459	30843.77
631.653	30423.94
631.848	29653.9
632.042	28806.05
632.236	28750.75
632.43	27567.02
632.624	27036.6
632.818	26246.08
633.012	25048.02
633.206	24445.92
633.4	23935.98
633.594	22713.34
633.788	22506.49
633.982	21486.61
634.176	20890.65
634.369	19956.77
634.563	19266.61
634.757	18410.56
634.951	18021.44
635.145	17138.77
635.339	16530.52
635.533	16002.15
635.726	15508.58
635.92	14507.13
636.114	14158.97
636.308	13378.7
636.501	12688.53
636.695	12649.62
636.889	11967.65
637.083	11406.5
637.276	10994.86
637.47	10503.35
637.664	9979.07
637.857	9923.77
638.051	9487.56
638.244	8934.6
638.438	8582.35
638.632	8219.86
638.825	7683.3
639.019	7539.94
639.212	7357.67
639.406	7150.82
639.599	6673.65
639.793	6350.07
639.986	6245.62
640.18	6075.64
640.373	5831.93
640.567	5276.93
640.76	5381.38
640.954	5221.64
641.147	4879.63
641.34	4799.76
641.534	4367.63
641.727	4410.64
641.92	4363.54
642.114	4015.38
642.307	3876.12
642.5	3843.35
642.694	3403.04
642.887	3491.1
643.08	3403.04
643.273	3364.13
643.467	3073.32
643.66	2880.81
643.853	2694.44
644.046	2735.4
644.239	2639.15
644.432	2575.66
644.626	2358.58
644.819	2278.71
645.012	2290.99
645.205	2221.36
645.398	2149.68
645.591	1965.37
645.784	1944.89
645.977	1795.39
646.17	1768.76
646.363	1815.87
646.556	1602.88
646.749	1473.85
646.942	1557.82
647.135	1441.09
647.328	1406.27
647.521	1432.9
647.714	1320.26
647.907	1289.54
648.099	1172.8
648.292	1283.39
648.485	1068.36
648.678	1060.17
648.871	1066.31
649.064	1002.82
649.256	1008.97
649.449	890.18
649.642	830.79
649.835	791.88
650.027	785.74
650.22	867.66
650.413	804.17
650.605	814.41
650.798	716.11
650.991	664.91
651.183	726.35
651.376	750.92
651.568	636.24
651.761	582.99
651.954	638.28
652.146	537.93
652.339	640.33
652.531	646.48
652.724	544.08
652.916	406.86
653.109	292.18
653.301	562.51
653.494	513.36
653.686	499.02
653.879	554.32
654.071	509.26
654.263	374.1
654.456	441.68
654.648	507.21
654.84	394.58
655.033	353.62
655.225	488.78
655.417	247.12
655.61	585.04
655.802	314.7
655.994	441.68
656.186	245.07
656.379	382.29
656.571	261.46
656.763	292.18
656.955	232.79
657.148	279.89
657.34	509.26
657.532	230.74
657.724	238.93
657.916	302.42
658.108	386.38
658.3	263.51
658.492	279.89
658.684	245.07
658.876	265.55
659.068	216.4
659.26	206.16
659.452	206.16
659.644	290.13
659.836	372.05
660.028	263.51
660.22	195.92
660.412	154.96
660.604	220.5
660.796	216.4
660.988	281.94
661.18	214.35
661.372	247.12
661.563	222.55
661.755	259.41
661.947	124.24
662.139	116.05
662.331	202.07
662.522	181.59
662.714	152.92
662.906	177.49
663.097	202.07
663.289	144.72
663.481	23.89
663.673	175.44
663.864	120.15
664.056	204.11
664.247	25.94
664.439	154.96
664.631	169.3
664.822	222.55
665.014	163.15
665.205	97.62
665.397	175.44
665.588	216.4
665.78	191.83
665.971	228.69
666.163	169.3
666.354	210.26
666.546	42.32
666.737	116.05
666.929	189.78
667.12	107.86
667.311	132.44
667.503	148.82
667.694	187.73
667.885	157.01
668.077	224.59
668.268	25.94
668.459	116.05
668.651	138.58
668.842	165.2
669.033	107.86
669.224	130.39
669.416	329.04
669.607	85.33
669.798	62.8
669.989	181.59
670.18	195.92
670.371	197.97
670.563	46.42
670.754	193.87
670.945	230.74
671.136	144.72
671.327	134.48
671.518	298.32
671.709	257.36
671.9	197.97
672.091	226.64
672.282	189.78
672.473	148.82
672.664	27.99
672.855	171.35
673.046	193.87
673.237	148.82
673.428	152.92
673.619	279.89
673.809	95.57
674	245.07
674.191	230.74
674.382	175.44
674.573	124.24
674.764	204.11
674.954	189.78
675.145	91.48
675.336	140.63
675.527	183.63
675.717	148.82
675.908	173.39
676.099	136.53
676.289	214.35
676.48	85.33
676.671	148.82
676.861	107.86
677.052	152.92
677.243	120.15
677.433	83.28
677.624	173.39
677.814	183.63
678.005	142.68
678.195	337.23
678.386	132.44
678.576	187.73
678.767	97.62
678.957	218.45
679.148	312.66
679.338	302.42
679.529	226.64
679.719	111.96
679.909	193.87
680.1	273.75
680.29	228.69
680.481	83.28
680.671	245.07
680.861	230.74
681.052	226.64
681.242	236.88
681.432	275.79
681.622	228.69
681.813	116.05
682.003	163.15
682.193	128.34
682.383	204.11
682.573	126.29
682.764	163.15
682.954	220.5
683.144	310.61
683.334	204.11
683.524	220.5
683.714	329.04
683.904	335.18
684.094	308.56
684.284	232.79
684.474	345.42
684.664	326.99
684.854	257.36
685.044	253.27
685.234	312.66
685.424	206.16
685.614	130.39
685.804	349.52
685.994	300.37
686.184	210.26
686.374	394.58
686.564	181.59
686.753	165.2
686.943	150.87
687.133	191.83
687.323	249.17
687.513	271.7
687.702	314.7
687.892	238.93
688.082	281.94
688.272	302.42
688.461	259.41
688.651	306.51
688.841	298.32
689.03	208.21
689.22	183.63
689.41	302.42
689.599	228.69
689.789	220.5
689.979	380.24
690.168	218.45
690.358	206.16
690.547	265.55
690.737	320.85
690.926	245.07
691.116	222.55
691.305	320.85
691.495	273.75
691.684	189.78
691.874	245.07
692.063	197.97
692.252	294.22
692.442	286.03
692.631	220.5
692.82	226.64
693.01	249.17
693.199	220.5
693.388	290.13
693.578	255.31
693.767	306.51
693.956	230.74
694.146	216.4
694.335	210.26
694.524	200.02
694.713	249.17
694.902	185.68
695.092	224.59
695.281	224.59
695.47	181.59
695.659	171.35
695.848	240.98
696.037	114
696.226	281.94
696.415	179.54
696.604	296.27
696.793	320.85
696.982	177.49
697.171	286.03
697.36	195.92
697.549	150.87
697.738	179.54
697.927	114
698.116	167.25
698.305	263.51
698.494	255.31
698.683	161.11
698.872	355.66
699.061	138.58
699.25	138.58
699.438	236.88
699.627	216.4
699.816	341.33
700.005	64.85
700.193	138.58
700.382	269.65
700.571	271.7
700.76	279.89
700.948	296.27
701.137	281.94
701.326	265.55
701.514	169.3
701.703	294.22
701.892	296.27
702.08	310.61
702.269	181.59
702.457	97.62
702.646	288.08
702.834	247.12
703.023	218.45
703.212	294.22
703.4	202.07
703.589	122.2
703.777	236.88
703.965	93.52
704.154	238.93
704.342	169.3
704.531	210.26
704.719	247.12
704.907	331.09
705.096	161.11
705.284	99.67
705.472	195.92
705.661	204.11
705.849	243.03
706.037	296.27
706.226	183.63
706.414	288.08
706.602	85.33
706.79	296.27
706.979	247.12
707.167	197.97
707.355	132.44
707.543	163.15
707.731	339.28
707.919	152.92
708.107	152.92
708.296	181.59
708.484	187.73
708.672	279.89
708.86	310.61
709.048	177.49
709.236	200.02
709.424	302.42
709.612	232.79
709.8	103.76
709.988	187.73
710.176	322.9
710.364	279.89
710.551	177.49
710.739	163.15
710.927	150.87
711.115	226.64
711.303	236.88
711.491	314.7
711.679	202.07
711.866	249.17
712.054	204.11
712.242	243.03
712.43	337.23
712.617	208.21
712.805	275.79
712.993	159.06
713.181	132.44
713.368	234.83
713.556	261.46
713.744	81.24
713.931	431.44
714.119	290.13
714.306	197.97
714.494	150.87
714.682	238.93
714.869	130.39
715.057	183.63
715.244	144.72
715.432	218.45
715.619	202.07
715.807	212.31
715.994	218.45
716.182	195.92
716.369	290.13
716.556	294.22
716.744	161.11
716.931	126.29
717.119	255.31
717.306	240.98
717.493	259.41
717.681	152.92
717.868	232.79
718.055	171.35
718.242	249.17
718.43	302.42
718.617	298.32
718.804	249.17
718.991	335.18
719.179	245.07
719.366	253.27
719.553	333.14
719.74	288.08
719.927	148.82
720.114	208.21
720.301	200.02
720.488	243.03
720.676	259.41
720.863	216.4
721.05	333.14
721.237	271.7
721.424	232.79
721.611	234.83
721.798	146.77
721.985	210.26
722.172	200.02
722.358	306.51
722.545	339.28
722.732	257.36
722.919	312.66
723.106	279.89
723.293	253.27
723.48	306.51
723.667	183.63
723.853	408.91
724.04	339.28
724.227	396.62
724.414	220.5
724.6	286.03
724.787	359.76
724.974	447.82
725.161	349.52
725.347	167.25
725.534	267.6
725.72	247.12
725.907	329.04
726.094	329.04
726.28	308.56
726.467	251.22
726.653	253.27
726.84	357.71
727.027	353.62
727.213	269.65
727.4	324.94
727.586	339.28
727.773	218.45
727.959	294.22
728.145	304.46
728.332	288.08
728.518	253.27
728.705	372.05
728.891	247.12
729.077	320.85
729.264	159.06
729.45	152.92
729.636	392.53
729.823	275.79
730.009	337.23
730.195	324.94
730.382	257.36
730.568	212.31
730.754	271.7
730.94	271.7
731.126	312.66
731.313	355.66
731.499	320.85
731.685	337.23
731.871	236.88
732.057	372.05
732.243	363.86
732.429	263.51
732.615	365.9
732.801	314.7
732.987	259.41
733.173	271.7
733.359	271.7
733.545	216.4
733.731	232.79
733.917	308.56
734.103	306.51
734.289	263.51
734.475	296.27
734.661	406.86
734.847	365.9
735.033	302.42
735.219	341.33
735.404	218.45
735.59	277.84
735.776	269.65
735.962	322.9
736.148	404.82
736.333	363.86
736.519	308.56
736.705	312.66
736.89	277.84
737.076	257.36
737.262	243.03
737.447	279.89
737.633	298.32
737.819	324.94
738.004	306.51
738.19	296.27
738.375	339.28
738.561	347.47
738.747	302.42
738.932	197.97
739.118	417.1
739.303	355.66
739.489	331.09
739.674	195.92
739.859	224.59
740.045	376.14
740.23	335.18
740.416	136.53
740.601	349.52
740.786	329.04
740.972	224.59
741.157	204.11
741.342	275.79
741.528	210.26
741.713	331.09
741.898	240.98
742.084	283.99
742.269	300.37
742.454	400.72
742.639	361.81
742.824	322.9
743.01	357.71
743.195	472.4
743.38	292.18
743.565	286.03
743.75	259.41
743.935	335.18
744.12	320.85
744.305	177.49
744.49	255.31
744.675	275.79
744.86	234.83
745.045	314.7
745.23	253.27
745.415	200.02
745.6	322.9
745.785	255.31
745.97	359.76
746.155	308.56
746.34	324.94
746.525	251.22
746.71	404.82
746.895	157.01
747.079	216.4
747.264	189.78
747.449	363.86
747.634	398.67
747.819	316.75
748.003	265.55
748.188	161.11
748.373	257.36
748.557	347.47
748.742	269.65
748.927	243.03
749.111	206.16
749.296	177.49
749.481	308.56
749.665	232.79
749.85	154.96
750.034	245.07
750.219	240.98
750.404	177.49
750.588	316.75
750.773	161.11
750.957	273.75
751.141	183.63
751.326	306.51
751.51	214.35
751.695	267.6
751.879	204.11
752.064	349.52
752.248	243.03
752.432	238.93
752.617	329.04
752.801	251.22
752.985	267.6
753.17	300.37
753.354	263.51
753.538	216.4
753.722	195.92
753.907	210.26
754.091	154.96
754.275	189.78
754.459	116.05
754.643	150.87
754.828	226.64
755.012	220.5
755.196	247.12
755.38	251.22
755.564	185.68
755.748	232.79
755.932	220.5
756.116	275.79
756.3	204.11
756.484	183.63
756.668	273.75
756.852	105.81
757.036	202.07
757.22	66.9
757.404	103.76
757.588	126.29
757.772	208.21
757.956	173.39
758.14	298.32
758.323	253.27
758.507	167.25
758.691	177.49
758.875	206.16
759.059	234.83
759.242	167.25
759.426	122.2
759.61	111.96
759.794	163.15
759.977	202.07
760.161	316.75
760.345	249.17
760.528	212.31
760.712	259.41
760.895	140.63
761.079	152.92
761.263	103.76
761.446	73.04
761.63	216.4
761.813	232.79
761.997	169.3
762.18	243.03
762.364	187.73
762.547	99.67
762.731	163.15
762.914	85.33
763.098	93.52
763.281	101.72
763.464	128.34
763.648	64.85
763.831	146.77
764.015	50.52
764.198	202.07
764.381	118.1
764.564	154.96
764.748	167.25
764.931	181.59
765.114	148.82
765.297	142.68
765.481	40.28
765.664	148.82
765.847	85.33
766.03	249.17
766.213	83.28
766.397	91.48
766.58	17.75
766.763	167.25
766.946	85.33
767.129	114
767.312	71
767.495	60.76
767.678	109.91
767.861	195.92
768.044	146.77
768.227	93.52
768.41	122.2
768.593	91.48
768.776	132.44
768.959	114
769.142	187.73
769.324	77.14
769.507	99.67
769.69	152.92
769.873	138.58
770.056	200.02
770.239	77.14
770.421	193.87
770.604	173.39
770.787	134.48
770.97	103.76
771.152	62.8
771.335	159.06
771.518	-10.92
771.7	118.1
771.883	134.48
772.066	36.18
772.248	97.62
772.431	216.4
772.613	249.17
772.796	40.28
772.978	23.89
773.161	210.26
773.343	71
773.526	93.52
773.708	32.08
773.891	-41.64
774.073	30.04
774.256	128.34
774.438	255.31
774.621	9.56
774.803	148.82
774.985	42.32
775.168	58.71
775.35	197.97
775.532	109.91
775.715	71
775.897	157.01
776.079	68.95
776.261	202.07
776.444	81.24
776.626	75.09
776.808	93.52
776.99	73.04
777.173	148.82
777.355	54.61
777.537	91.48
777.719	136.53
777.901	46.42
778.083	21.85
778.265	-76.46
778.447	120.15
778.629	19.8
778.811	142.68
778.993	159.06
779.175	62.8
779.357	48.47
779.539	23.89
779.721	60.76
779.903	128.34
780.085	50.52
780.267	77.14
780.449	13.65
780.631	91.48
780.812	165.2
780.994	114
781.176	75.09
781.358	1.37
781.54	152.92
781.721	187.73
781.903	25.94
782.085	-15.02
782.267	165.2
782.448	-45.74
782.63	75.09
782.812	68.95
782.993	103.76
783.175	122.2
783.357	60.76
783.538	62.8
783.72	30.04
783.901	66.9
784.083	128.34
784.264	107.86
784.446	-31.4
784.627	13.65
784.809	23.89
784.99	11.61
785.172	103.76
785.353	46.42
785.535	52.56
785.716	19.8
785.897	44.37
786.079	9.56
786.26	58.71
786.441	34.13
786.623	-53.93
786.804	1.37
786.985	13.65
787.167	77.14
787.348	38.23
787.529	-4.78
787.71	138.58
787.891	83.28
788.073	-12.97
788.254	-31.4
788.435	159.06
788.616	36.18
788.797	-2.73
788.978	44.37
789.159	17.75
789.34	146.77
789.522	30.04
789.703	17.75
789.884	105.81
790.065	89.43
790.246	169.3
790.427	-55.98
790.607	144.72
790.788	128.34
790.969	-53.93
791.15	99.67
791.331	5.46
791.512	-23.21
791.693	21.85
791.874	-8.87
792.054	232.79
792.235	140.63
792.416	13.65
792.597	7.51
792.778	46.42
792.958	103.76
793.139	91.48
793.32	73.04
793.5	-10.92
793.681	79.19
793.862	36.18
794.042	27.99
794.223	-15.02
794.404	-39.59
794.584	-43.69
794.765	27.99
794.945	-0.68
795.126	103.76
795.306	103.76
795.487	23.89
795.667	23.89
795.848	71
796.028	-21.16
796.209	66.9
796.389	120.15
796.57	-49.83
796.75	-4.78
796.93	-12.97
797.111	3.41
797.291	34.13
797.471	79.19
797.652	-53.93
797.832	-78.51
798.012	48.47
798.192	-78.51
798.373	-70.31
798.553	-2.73
798.733	134.48
798.913	-45.74
799.093	30.04
799.274	64.85
799.454	73.04
799.634	109.91
799.814	81.24
799.994	91.48
800.174	93.52
800.354	5.46
800.534	-60.07
800.714	132.44
800.894	-62.12
801.074	-60.07
801.254	-17.07
801.434	140.63
801.614	73.04
801.794	38.23
801.974	1867.06
802.154	-23.21
802.334	130.39
802.514	-25.26
802.693	79.19
802.873	23.89
803.053	114
803.233	64.85
803.413	5.46
803.592	-49.83
803.772	38.23
803.952	-45.74
804.131	-88.75
804.311	50.52
804.491	157.01
804.67	-82.6
804.85	-19.11
805.03	81.24
805.209	-53.93
805.389	1.37
805.568	-12.97
805.748	19.8
805.928	54.61
806.107	1.37
806.287	54.61
806.466	73.04
806.646	-6.83
806.825	77.14
807.004	-17.07
807.184	15.7
807.363	58.71
807.543	27.99
807.722	3.41
807.901	56.66
808.081	120.15
808.26	-113.32
808.439	23.89
808.619	-25.26
808.798	-68.27
808.977	9.56
809.156	1.37
809.336	-4.78
809.515	134.48
809.694	3.41
809.873	-53.93
810.052	120.15
810.231	89.43
810.411	44.37
810.59	56.66
810.769	19.8
810.948	79.19
811.127	-135.85
811.306	-25.26
811.485	-58.03
811.664	64.85
811.843	30.04
812.022	-35.5
812.201	-17.07
812.38	73.04
812.559	17.75
812.737	-0.68
812.916	-29.35
813.095	-72.36
813.274	44.37
813.453	13.65
813.632	5.46
813.811	36.18
813.989	-84.65
814.168	15.7
814.347	-78.51
814.526	-4.78
814.704	89.43
814.883	202.07
815.062	60.76
815.24	27.99
815.419	-68.27
815.598	52.56
815.776	-41.64
815.955	-58.03
816.133	-76.46
816.312	89.43
816.49	-33.45
816.669	19.8
816.847	-51.88
817.026	5.46
817.204	36.18
817.383	34.13
817.561	17.75
817.74	42.32
817.918	50.52
818.097	-53.93
818.275	-82.6
818.453	93.52
818.632	25.94
818.81	-66.22
818.988	-37.55
819.167	-19.11
819.345	-58.03
819.523	-15.02
819.701	-25.26
819.879	73.04
820.058	66.9
820.236	-25.26
820.414	3.41
820.592	17.75
820.77	21.85
820.948	-19.11
821.127	-23.21
821.305	114
821.483	9.56
821.661	97.62
821.839	99.67
822.017	-105.13
822.195	-12.97
822.373	144.72
822.551	13.65
822.729	-8.87
822.907	52.56
823.085	-27.31
823.262	71
823.44	-0.68
823.618	30.04
823.796	-21.16
823.974	38.23
824.152	-31.4
824.329	-2.73
824.507	128.34
824.685	38.23
824.863	-10.92
825.04	36.18
825.218	81.24
825.396	-35.5
825.574	83.28
825.751	79.19
825.929	48.47
826.107	-49.83
826.284	73.04
826.462	60.76
826.639	-41.64
826.817	-53.93
826.994	-21.16
827.172	-35.5
827.349	116.05
827.527	44.37
827.704	40.28
827.882	97.62
828.059	21.85
828.237	-23.21
828.414	140.63
828.591	-123.56
828.769	30.04
828.946	-41.64
829.124	81.24
829.301	71
829.478	-15.02
829.655	62.8
829.833	3.41
830.01	-43.69
830.187	38.23
830.364	19.8
830.542	-0.68
830.719	48.47
830.896	1.37
831.073	42.32
831.25	34.13
831.427	27.99
831.604	7.51
831.782	48.47
831.959	79.19
832.136	-47.79
832.313	56.66
832.49	-58.03
832.667	-43.69
832.844	-33.45
833.021	161.11
833.198	-78.51
833.374	99.67
833.551	68.95
833.728	44.37
833.905	103.76
834.082	-123.56
834.259	3.41
834.436	109.91
834.612	-58.03
834.789	-19.11
834.966	75.09
835.143	42.32
835.319	-125.61
835.496	64.85
835.673	9.56
835.85	64.85
836.026	48.47
836.203	38.23
836.38	-21.16
836.556	-47.79
836.733	-37.55
836.909	66.9
837.086	-58.03
837.262	-176.81
837.439	-35.5
837.616	-62.12
837.792	-66.22
837.968	66.9
838.145	-254.63
838.321	-23.21
838.498	21.85
838.674	46.42
838.851	60.76
839.027	52.56
839.203	52.56
839.38	25.94
839.556	-62.12
839.732	87.38
839.909	54.61
840.085	27.99
840.261	-76.46
840.437	-64.17
840.614	-55.98
840.79	46.42
840.966	136.53
841.142	58.71
841.318	75.09
841.494	75.09
841.671	21.85
841.847	-35.5
842.023	-74.41
842.199	64.85
842.375	109.91
842.551	-107.18
842.727	-23.21
842.903	159.06
843.079	-64.17
843.255	77.14
843.431	-53.93
843.607	44.37
843.783	-172.71
843.959	25.94
844.134	-70.31
844.31	134.48
844.486	-27.31
844.662	-23.21
844.838	-8.87
845.013	68.95
845.189	62.8
845.365	-25.26
845.541	-23.21
845.716	13.65
845.892	97.62
846.068	-60.07
846.244	-35.5
846.419	40.28
846.595	-21.16
846.77	48.47
846.946	58.71
847.122	-2.73
847.297	-58.03
847.473	142.68
847.648	-64.17
847.824	85.33
847.999	-158.38
848.175	-64.17
848.35	-2.73
848.526	36.18
848.701	87.38
848.876	5.46
849.052	95.57
849.227	-29.35
849.403	-2.73
849.578	-12.97
849.753	103.76
849.929	15.7
850.104	-148.14
850.279	11.61
850.454	-41.64
850.63	42.32
850.805	-33.45
850.98	-53.93
851.155	13.65
851.33	56.66
851.505	-76.46
851.681	173.39
851.856	-62.12
852.031	105.81
852.206	34.13
852.381	-58.03
852.556	1.37
852.731	-17.07
852.906	48.47
853.081	44.37
853.256	95.57
853.431	-31.4
853.606	101.72
853.781	-76.46
853.956	-144.04
854.131	75.09
854.305	-51.88
854.48	-27.31
854.655	-49.83
854.83	-0.68
855.005	3.41
855.18	-33.45
855.354	1.37
855.529	3.41
855.704	-60.07
855.879	75.09
856.053	-70.31
856.228	7.51
856.403	-35.5
856.577	60.76
856.752	-137.9
856.926	-39.59
857.101	13.65
857.276	-60.07
857.45	-33.45
857.625	44.37
857.799	-2.73
857.974	46.42
858.148	-21.16
858.323	-4.78
858.497	-70.31
858.672	36.18
858.846	-74.41
859.02	44.37
859.195	-47.79
859.369	15.7
859.543	-6.83
859.718	23.89
859.892	71
860.066	111.96
860.241	-111.27
860.415	21.85
860.589	-29.35
860.763	-25.26
860.938	-0.68
861.112	9.56
861.286	-94.89
861.46	-35.5
861.634	21.85
861.808	44.37
861.982	-150.18
862.157	-64.17
862.331	3.41
862.505	-88.75
862.679	-31.4
862.853	-64.17
863.027	-76.46
863.201	81.24
863.375	17.75
863.549	-6.83
863.722	-51.88
863.896	73.04
864.07	-39.59
864.244	19.8
864.418	52.56
864.592	13.65
864.766	-10.92
864.939	-31.4
865.113	-8.87
865.287	58.71
865.461	-119.46
865.634	-25.26
865.808	-29.35
865.982	-0.68
866.156	-96.94
866.329	-84.65
866.503	34.13
866.676	105.81
866.85	71
867.024	-35.5
867.197	-6.83
867.371	1.37
867.544	126.29
867.718	-70.31
867.891	73.04
868.065	-53.93
868.238	-2.73
868.412	68.95
868.585	71
868.759	-66.22
868.932	-23.21
869.105	-92.84
869.279	-0.68
869.452	-68.27
869.625	107.86
869.799	-41.64
869.972	-125.61
870.145	-49.83
870.319	114
870.492	-47.79
870.665	-62.12
870.838	5.46
871.011	-201.38
871.185	-10.92
871.358	-80.55
871.531	9.56
871.704	25.94
871.877	-6.83
872.05	-23.21
872.223	-41.64
872.396	36.18
872.569	-25.26
872.742	-103.08
872.915	44.37
873.088	-6.83
873.261	-39.59
873.434	68.95
873.607	-47.79
873.78	73.04
873.953	-74.41
874.126	7.51
874.299	42.32
874.471	-27.31
874.644	-47.79
874.817	13.65
874.99	109.91
875.163	-86.7
875.335	5.46
875.508	-70.31
875.681	79.19
875.853	-23.21
876.026	23.89
876.199	93.52
876.371	23.89
876.544	30.04
876.717	83.28
876.889	-90.79
877.062	60.76
877.234	-53.93
877.407	-19.11
877.579	-19.11
877.752	3.41
877.924	44.37
878.097	81.24
878.269	114
878.442	23.89
878.614	-0.68
878.786	44.37
878.959	-27.31
879.131	-8.87
879.303	-127.66
879.476	-82.6
879.648	73.04
879.82	101.72
879.993	-17.07
880.165	-6.83
880.337	-51.88
880.509	27.99
880.681	-74.41
880.854	-10.92
881.026	99.67
881.198	126.29
881.37	7.51
881.542	-41.64
881.714	-27.31
881.886	21.85
882.058	-10.92
882.23	66.9
882.402	-70.31
882.574	38.23
882.746	19.8
882.918	91.48
883.09	50.52
883.262	58.71
883.434	25.94
883.606	-94.89
883.778	17.75
883.95	138.58
884.122	-12.97
884.293	83.28
884.465	48.47
884.637	44.37
884.809	-41.64
884.98	11.61
885.152	83.28
885.324	68.95
885.496	-66.22
885.667	-43.69
885.839	-84.65
886.011	79.19
886.182	77.14
886.354	23.89
886.525	13.65
886.697	38.23
886.869	-27.31
887.04	-31.4
887.212	83.28
887.383	142.68
887.555	-31.4
887.726	-15.02
887.897	-66.22
888.069	-21.16
888.24	42.32
888.412	11.61
888.583	38.23
888.754	34.13
888.926	-31.4
889.097	68.95
889.268	-86.7
889.44	-10.92
889.611	-64.17
889.782	-94.89
889.953	-51.88
890.125	105.81
890.296	-31.4
890.467	-39.59
890.638	9.56
890.809	83.28
890.98	-29.35
891.151	27.99
891.323	101.72
891.494	21.85
891.665	-19.11
891.836	-6.83
892.007	48.47
892.178	5.46
892.349	-15.02
892.52	-72.36
892.691	54.61
892.862	-4.78
893.032	-72.36
893.203	-96.94
893.374	75.09
893.545	17.75
893.716	-82.6
893.887	1.37
894.057	-23.21
894.228	42.32
894.399	-66.22
894.57	107.86
894.74	-10.92
894.911	13.65
895.082	-43.69
895.253	-66.22
895.423	36.18
895.594	101.72
895.764	21.85
895.935	-4.78
896.106	-35.5
896.276	-86.7
896.447	-43.69
896.617	-84.65
896.788	-31.4
896.958	-2.73
897.129	50.52
897.299	-105.13
897.47	36.18
897.64	32.08
897.81	-60.07
897.981	27.99
898.151	-90.79
898.322	-66.22
898.492	60.76
898.662	-96.94
898.832	-12.97
899.003	-78.51
899.173	21.85
899.343	-51.88
899.513	-68.27
