Data from USB4F104151__276__11-20-47-831.txt Node

Date: Wed Feb 26 11:20:47 EST 2025
User: louis
Spectrometer: USB4F10415
Trigger mode: 4
Integration Time (sec): 1.000000E-1
Scans to average: 1
Electric dark correction enabled: true
Nonlinearity correction enabled: false
Boxcar width: 0
XAxis mode: Wavelengths
Number of Pixels in Spectrum: 3648
>>>>>Begin Spectral Data<<<<<
178.204	-393.04
178.424	-393.04
178.644	-393.04
178.864	-399.18
179.084	-366.42
179.304	59.56
179.524	-51.03
179.744	-18.26
179.964	51.37
180.184	22.7
180.404	39.08
180.624	-22.36
180.844	37.03
181.064	-71.51
181.283	-24.4
181.503	-44.88
181.723	22.7
181.943	-120.66
182.163	170.15
182.383	-20.31
182.602	22.7
182.822	211.11
183.042	-40.79
183.262	-12.12
183.482	67.75
183.701	69.8
183.921	57.51
184.141	-149.33
184.361	92.33
184.58	20.65
184.8	55.47
185.02	45.23
185.239	100.52
185.459	-8.02
185.679	143.53
185.898	-108.37
186.118	47.27
186.338	-42.84
186.557	131.24
186.777	-128.85
186.997	-3.93
187.216	18.6
187.436	157.86
187.655	80.04
187.875	98.47
188.095	135.34
188.314	65.71
188.534	90.28
188.753	-87.89
188.973	157.86
189.192	188.58
189.412	-10.07
189.631	12.46
189.851	82.09
190.07	114.86
190.29	-40.79
190.509	-61.27
190.729	-1.88
190.948	123.05
191.168	317.61
191.387	45.23
191.607	61.61
191.826	49.32
192.045	0.17
192.265	-1.88
192.484	-10.07
192.704	55.47
192.923	-26.45
193.142	180.39
193.362	174.25
193.581	157.86
193.8	30.89
194.02	49.32
194.239	20.65
194.458	118.95
194.678	30.89
194.897	2.22
195.116	2.22
195.335	69.8
195.555	39.08
195.774	-48.98
195.993	123.05
196.212	67.75
196.432	20.65
196.651	-40.79
196.87	-59.22
197.089	262.31
197.308	49.32
197.528	131.24
197.747	-57.17
197.966	73.9
198.185	118.95
198.404	-73.56
198.623	94.38
198.842	125.1
199.062	110.76
199.281	16.55
199.5	6.31
199.719	61.61
199.938	71.85
200.157	88.23
200.376	75.95
200.595	71.85
200.814	55.47
201.033	4.27
201.252	129.19
201.471	114.86
201.69	149.67
201.909	-5.97
202.128	114.86
202.347	112.81
202.566	51.37
202.785	-3.93
203.004	-53.08
203.223	237.74
203.442	37.03
203.661	-34.64
203.879	90.28
204.098	131.24
204.317	-96.08
204.536	112.81
204.755	123.05
204.974	125.1
205.193	-28.5
205.411	182.44
205.63	108.71
205.849	12.46
206.068	57.51
206.287	41.13
206.505	65.71
206.724	-114.52
206.943	2.22
207.162	86.19
207.381	143.53
207.599	8.36
207.818	34.99
208.037	-8.02
208.255	30.89
208.474	8.36
208.693	55.47
208.911	63.66
209.13	196.78
209.349	116.9
209.567	84.14
209.786	45.23
210.005	57.51
210.223	-5.97
210.442	-104.28
210.661	12.46
210.879	8.36
211.098	37.03
211.316	30.89
211.535	53.42
211.753	104.62
211.972	61.61
212.191	90.28
212.409	100.52
212.628	125.1
212.846	-8.02
213.065	47.27
213.283	149.67
213.502	-12.12
213.72	116.9
213.938	-3.93
214.157	34.99
214.375	123.05
214.594	-44.88
214.812	108.71
215.031	4.27
215.249	98.47
215.467	0.17
215.686	2.22
215.904	92.33
216.122	-1.88
216.341	114.86
216.559	14.51
216.778	94.38
216.996	118.95
217.214	-55.12
217.432	18.6
217.651	-48.98
217.869	-20.31
218.087	75.95
218.306	-65.36
218.524	49.32
218.742	47.27
218.96	92.33
219.179	49.32
219.397	4.27
219.615	237.74
219.833	147.62
220.051	32.94
220.27	100.52
220.488	155.82
220.706	69.8
220.924	20.65
221.142	-16.21
221.36	-5.97
221.578	61.61
221.796	12.46
222.015	-1.88
222.233	41.13
222.451	194.73
222.669	-91.99
222.887	88.23
223.105	14.51
223.323	63.66
223.541	-94.04
223.759	34.99
223.977	-38.74
224.195	141.48
224.413	45.23
224.631	10.41
224.849	125.1
225.067	164.01
225.285	-85.84
225.503	65.71
225.721	-65.36
225.939	6.31
226.157	-30.55
226.375	241.83
226.592	6.31
226.81	22.7
227.028	75.95
227.246	127.14
227.464	125.1
227.682	112.81
227.9	41.13
228.117	37.03
228.335	88.23
228.553	57.51
228.771	82.09
228.989	67.75
229.206	90.28
229.424	10.41
229.642	-26.45
229.86	-40.79
230.077	147.62
230.295	55.47
230.513	88.23
230.731	-16.21
230.948	92.33
231.166	159.91
231.384	2.22
231.601	-32.6
231.819	100.52
232.037	-67.41
232.254	-44.88
232.472	22.7
232.689	-12.12
232.907	84.14
233.125	39.08
233.342	-108.37
233.56	-5.97
233.777	-24.4
233.995	-3.93
234.213	73.9
234.43	141.48
234.648	-10.07
234.865	49.32
235.083	-1.88
235.3	0.17
235.518	106.67
235.735	194.73
235.953	98.47
236.17	45.23
236.388	6.31
236.605	104.62
236.822	129.19
237.04	77.99
237.257	30.89
237.475	-79.7
237.692	39.08
237.909	131.24
238.127	57.51
238.344	24.75
238.562	43.18
238.779	-61.27
238.996	-83.8
239.214	-8.02
239.431	57.51
239.648	43.18
239.865	112.81
240.083	86.19
240.3	-71.51
240.517	10.41
240.735	98.47
240.952	145.58
241.169	65.71
241.386	131.24
241.603	80.04
241.821	-20.31
242.038	41.13
242.255	112.81
242.472	-26.45
242.689	135.34
242.907	69.8
243.124	77.99
243.341	-18.26
243.558	45.23
243.775	-63.32
243.992	4.27
244.209	30.89
244.426	223.4
244.643	133.29
244.86	10.41
245.078	116.9
245.295	137.38
245.512	49.32
245.729	-26.45
245.946	65.71
246.163	69.8
246.38	43.18
246.597	80.04
246.814	24.75
247.031	49.32
247.248	47.27
247.464	94.38
247.681	108.71
247.898	127.14
248.115	-22.36
248.332	-51.03
248.549	139.43
248.766	96.43
248.983	125.1
249.2	39.08
249.417	118.95
249.633	16.55
249.85	96.43
250.067	114.86
250.284	98.47
250.501	8.36
250.717	69.8
250.934	-48.98
251.151	32.94
251.368	18.6
251.585	69.8
251.801	2.22
252.018	-22.36
252.235	135.34
252.451	-48.98
252.668	59.56
252.885	147.62
253.102	63.66
253.318	-30.55
253.535	37.03
253.752	10.41
253.968	92.33
254.185	-67.41
254.401	47.27
254.618	71.85
254.835	4.27
255.051	145.58
255.268	75.95
255.484	32.94
255.701	-1.88
255.917	123.05
256.134	-14.17
256.351	57.51
256.567	-32.6
256.784	4.27
257	-71.51
257.217	145.58
257.433	96.43
257.65	45.23
257.866	94.38
258.082	-34.64
258.299	-57.17
258.515	67.75
258.732	59.56
258.948	20.65
259.165	18.6
259.381	49.32
259.597	12.46
259.814	20.65
260.03	24.75
260.246	22.7
260.463	182.44
260.679	53.42
260.895	69.8
261.112	67.75
261.328	69.8
261.544	-67.41
261.761	223.4
261.977	10.41
262.193	-73.56
262.409	55.47
262.626	24.75
262.842	53.42
263.058	-55.12
263.274	100.52
263.49	26.79
263.707	82.09
263.923	10.41
264.139	-96.08
264.355	4.27
264.571	49.32
264.787	73.9
265.004	186.54
265.22	14.51
265.436	-63.32
265.652	82.09
265.868	24.75
266.084	8.36
266.3	61.61
266.516	-38.74
266.732	86.19
266.948	30.89
267.164	6.31
267.38	125.1
267.596	61.61
267.812	178.34
268.028	16.55
268.244	10.41
268.46	55.47
268.676	14.51
268.892	96.43
269.108	-63.32
269.324	-26.45
269.54	-40.79
269.756	139.43
269.972	-63.32
270.188	-18.26
270.403	6.31
270.619	-5.97
270.835	94.38
271.051	10.41
271.267	-22.36
271.483	-46.93
271.698	90.28
271.914	69.8
272.13	63.66
272.346	22.7
272.562	51.37
272.777	125.1
272.993	10.41
273.209	-24.4
273.425	26.79
273.64	-79.7
273.856	71.85
274.072	100.52
274.287	-18.26
274.503	45.23
274.719	180.39
274.934	-40.79
275.15	0.17
275.366	12.46
275.581	-20.31
275.797	-12.12
276.012	30.89
276.228	-34.64
276.444	2.22
276.659	166.06
276.875	-3.93
277.09	45.23
277.306	-5.97
277.521	59.56
277.737	65.71
277.952	133.29
278.168	8.36
278.383	116.9
278.599	26.79
278.814	-1.88
279.03	10.41
279.245	131.24
279.461	26.79
279.676	86.19
279.892	-22.36
280.107	-85.84
280.322	-61.27
280.538	123.05
280.753	-28.5
280.969	67.75
281.184	16.55
281.399	108.71
281.615	14.51
281.83	69.8
282.045	-108.37
282.26	-40.79
282.476	-40.79
282.691	98.47
282.906	102.57
283.122	153.77
283.337	-12.12
283.552	67.75
283.767	-40.79
283.983	118.95
284.198	37.03
284.413	12.46
284.628	-34.64
284.843	18.6
285.058	114.86
285.274	10.41
285.489	-32.6
285.704	84.14
285.919	-8.02
286.134	55.47
286.349	41.13
286.564	37.03
286.779	131.24
286.995	84.14
287.21	-55.12
287.425	98.47
287.64	-24.4
287.855	65.71
288.07	-55.12
288.285	57.51
288.5	121
288.715	57.51
288.93	-22.36
289.145	2.22
289.36	182.44
289.575	18.6
289.79	41.13
290.004	47.27
290.219	84.14
290.434	34.99
290.649	-55.12
290.864	-40.79
291.079	30.89
291.294	-30.55
291.509	112.81
291.724	41.13
291.938	14.51
292.153	65.71
292.368	45.23
292.583	49.32
292.798	12.46
293.012	96.43
293.227	6.31
293.442	37.03
293.657	133.29
293.871	114.86
294.086	118.95
294.301	196.78
294.516	133.29
294.73	-14.17
294.945	-55.12
295.16	12.46
295.374	49.32
295.589	104.62
295.804	-42.84
296.018	104.62
296.233	123.05
296.447	-8.02
296.662	45.23
296.877	186.54
297.091	131.24
297.306	18.6
297.52	80.04
297.735	96.43
297.949	22.7
298.164	59.56
298.378	6.31
298.593	-40.79
298.807	-8.02
299.022	18.6
299.236	112.81
299.451	-96.08
299.665	24.75
299.88	65.71
300.094	55.47
300.309	0.17
300.523	139.43
300.737	-20.31
300.952	82.09
301.166	47.27
301.381	-10.07
301.595	-42.84
301.809	-1.88
302.024	49.32
302.238	-91.99
302.452	194.73
302.667	20.65
302.881	149.67
303.095	110.76
303.309	143.53
303.524	45.23
303.738	63.66
303.952	-18.26
304.166	57.51
304.381	-100.18
304.595	133.29
304.809	-8.02
305.023	57.51
305.237	4.27
305.452	77.99
305.666	104.62
305.88	6.31
306.094	32.94
306.308	104.62
306.522	45.23
306.736	18.6
306.95	69.8
307.164	53.42
307.379	63.66
307.593	104.62
307.807	135.34
308.021	51.37
308.235	18.6
308.449	-12.12
308.663	32.94
308.877	299.17
309.091	14.51
309.305	51.37
309.519	-100.18
309.733	94.38
309.947	-67.41
310.161	114.86
310.374	71.85
310.588	166.06
310.802	-1.88
311.016	20.65
311.23	45.23
311.444	-5.97
311.658	39.08
311.872	61.61
312.085	47.27
312.299	108.71
312.513	131.24
312.727	53.42
312.941	-98.13
313.154	59.56
313.368	-10.07
313.582	34.99
313.796	28.84
314.009	-5.97
314.223	121
314.437	86.19
314.651	59.56
314.864	8.36
315.078	-104.28
315.292	-55.12
315.505	49.32
315.719	71.85
315.933	41.13
316.146	-67.41
316.36	-18.26
316.573	110.76
316.787	12.46
317.001	59.56
317.214	-30.55
317.428	-1.88
317.641	-51.03
317.855	73.9
318.068	86.19
318.282	75.95
318.495	133.29
318.709	88.23
318.922	-14.17
319.136	137.38
319.349	47.27
319.563	10.41
319.776	86.19
319.99	0.17
320.203	10.41
320.417	30.89
320.63	86.19
320.843	207.02
321.057	112.81
321.27	-26.45
321.483	96.43
321.697	200.87
321.91	59.56
322.124	104.62
322.337	108.71
322.55	-16.21
322.763	6.31
322.977	-48.98
323.19	10.41
323.403	69.8
323.617	22.7
323.83	82.09
324.043	-10.07
324.256	98.47
324.469	-22.36
324.683	153.77
324.896	26.79
325.109	96.43
325.322	-79.7
325.535	16.55
325.748	102.57
325.962	37.03
326.175	116.9
326.388	118.95
326.601	198.82
326.814	18.6
327.027	71.85
327.24	178.34
327.453	-108.37
327.666	92.33
327.879	207.02
328.092	43.18
328.305	84.14
328.518	-83.8
328.731	-26.45
328.944	30.89
329.157	-22.36
329.37	-75.6
329.583	129.19
329.796	147.62
330.009	-8.02
330.222	47.27
330.435	184.49
330.648	65.71
330.861	4.27
331.073	28.84
331.286	104.62
331.499	43.18
331.712	98.47
331.925	6.31
332.138	30.89
332.35	168.1
332.563	34.99
332.776	102.57
332.989	18.6
333.202	55.47
333.414	71.85
333.627	100.52
333.84	10.41
334.053	63.66
334.265	-12.12
334.478	71.85
334.691	0.17
334.903	55.47
335.116	26.79
335.329	8.36
335.541	-14.17
335.754	164.01
335.966	-3.93
336.179	80.04
336.392	18.6
336.604	-81.75
336.817	47.27
337.029	110.76
337.242	49.32
337.454	127.14
337.667	12.46
337.88	123.05
338.092	73.9
338.305	125.1
338.517	63.66
338.729	114.86
338.942	98.47
339.154	-32.6
339.367	12.46
339.579	108.71
339.792	-44.88
340.004	51.37
340.217	63.66
340.429	96.43
340.641	-22.36
340.854	-61.27
341.066	26.79
341.278	67.75
341.491	209.06
341.703	168.1
341.915	-44.88
342.128	92.33
342.34	80.04
342.552	-77.65
342.764	49.32
342.977	53.42
343.189	82.09
343.401	67.75
343.613	-26.45
343.826	28.84
344.038	18.6
344.25	129.19
344.462	-46.93
344.674	139.43
344.886	43.18
345.099	116.9
345.311	30.89
345.523	-36.69
345.735	-79.7
345.947	51.37
346.159	4.27
346.371	37.03
346.583	-57.17
346.795	147.62
347.007	12.46
347.219	73.9
347.431	133.29
347.643	106.67
347.855	59.56
348.067	65.71
348.279	18.6
348.491	-1.88
348.703	69.8
348.915	-26.45
349.127	-34.64
349.339	18.6
349.551	-5.97
349.763	98.47
349.975	-26.45
350.187	82.09
350.399	84.14
350.61	47.27
350.822	0.17
351.034	49.32
351.246	0.17
351.458	98.47
351.669	34.99
351.881	77.99
352.093	88.23
352.305	161.96
352.517	104.62
352.728	104.62
352.94	121
353.152	59.56
353.363	-61.27
353.575	-12.12
353.787	141.48
353.999	112.81
354.21	190.63
354.422	-8.02
354.633	30.89
354.845	82.09
355.057	53.42
355.268	-14.17
355.48	73.9
355.692	4.27
355.903	24.75
356.115	-69.46
356.326	-51.03
356.538	219.3
356.749	112.81
356.961	207.02
357.172	77.99
357.384	-51.03
357.595	186.54
357.807	4.27
358.018	30.89
358.23	8.36
358.441	131.24
358.653	108.71
358.864	45.23
359.075	-38.74
359.287	80.04
359.498	69.8
359.709	32.94
359.921	0.17
360.132	28.84
360.344	6.31
360.555	-12.12
360.766	-30.55
360.977	-36.69
361.189	133.29
361.4	4.27
361.611	65.71
361.823	118.95
362.034	49.32
362.245	-73.56
362.456	0.17
362.667	94.38
362.879	51.37
363.09	80.04
363.301	18.6
363.512	86.19
363.723	10.41
363.935	-28.5
364.146	104.62
364.357	-12.12
364.568	57.51
364.779	8.36
364.99	71.85
365.201	-10.07
365.412	153.77
365.623	-71.51
365.834	71.85
366.045	39.08
366.256	88.23
366.467	104.62
366.678	-46.93
366.889	90.28
367.1	-22.36
367.311	112.81
367.522	10.41
367.733	133.29
367.944	139.43
368.155	53.42
368.366	63.66
368.577	94.38
368.788	118.95
368.999	26.79
369.209	37.03
369.42	266.41
369.631	260.26
369.842	123.05
370.053	32.94
370.264	110.76
370.474	-36.69
370.685	104.62
370.896	14.51
371.107	123.05
371.317	106.67
371.528	59.56
371.739	131.24
371.95	110.76
372.16	127.14
372.371	-42.84
372.582	-46.93
372.792	86.19
373.003	18.6
373.214	49.32
373.424	71.85
373.635	-26.45
373.846	159.91
374.056	20.65
374.267	88.23
374.477	108.71
374.688	-36.69
374.898	151.72
375.109	75.95
375.319	22.7
375.53	161.96
375.74	88.23
375.951	49.32
376.161	14.51
376.372	116.9
376.582	-20.31
376.793	84.14
377.003	16.55
377.214	2.22
377.424	51.37
377.635	4.27
377.845	45.23
378.055	170.15
378.266	22.7
378.476	10.41
378.686	47.27
378.897	-18.26
379.107	67.75
379.317	73.9
379.528	55.47
379.738	147.62
379.948	0.17
380.158	80.04
380.369	137.38
380.579	22.7
380.789	53.42
380.999	69.8
381.21	102.57
381.42	155.82
381.63	47.27
381.84	75.95
382.05	-3.93
382.261	110.76
382.471	145.58
382.681	-28.5
382.891	108.71
383.101	90.28
383.311	-110.42
383.521	12.46
383.731	143.53
383.941	114.86
384.151	-18.26
384.361	-1.88
384.571	102.57
384.781	-12.12
384.991	82.09
385.201	153.77
385.411	118.95
385.621	69.8
385.831	100.52
386.041	141.48
386.251	26.79
386.461	145.58
386.671	0.17
386.881	26.79
387.091	106.67
387.301	30.89
387.511	14.51
387.72	65.71
387.93	61.61
388.14	-73.56
388.35	114.86
388.56	96.43
388.769	116.9
388.979	61.61
389.189	-63.32
389.399	98.47
389.609	104.62
389.818	159.91
390.028	10.41
390.238	49.32
390.447	55.47
390.657	59.56
390.867	-12.12
391.076	-40.79
391.286	73.9
391.496	96.43
391.705	-32.6
391.915	194.73
392.125	110.76
392.334	37.03
392.544	127.14
392.753	2.22
392.963	-8.02
393.172	10.41
393.382	-3.93
393.591	166.06
393.801	22.7
394.01	139.43
394.22	67.75
394.429	2.22
394.639	20.65
394.848	-1.88
395.058	-71.51
395.267	53.42
395.477	80.04
395.686	-22.36
395.895	186.54
396.105	73.9
396.314	98.47
396.524	37.03
396.733	26.79
396.942	104.62
397.152	88.23
397.361	47.27
397.57	34.99
397.78	77.99
397.989	84.14
398.198	116.9
398.407	100.52
398.617	80.04
398.826	106.67
399.035	-8.02
399.244	73.9
399.453	114.86
399.663	28.84
399.872	73.9
400.081	10.41
400.29	47.27
400.499	16.55
400.708	121
400.917	12.46
401.127	45.23
401.336	45.23
401.545	161.96
401.754	116.9
401.963	28.84
402.172	-28.5
402.381	-14.17
402.59	0.17
402.799	32.94
403.008	98.47
403.217	30.89
403.426	116.9
403.635	-32.6
403.844	73.9
404.053	-5.97
404.262	12.46
404.471	149.67
404.68	73.9
404.888	49.32
405.097	84.14
405.306	-14.17
405.515	108.71
405.724	16.55
405.933	34.99
406.142	57.51
406.35	198.82
406.559	-12.12
406.768	98.47
406.977	75.95
407.185	116.9
407.394	75.95
407.603	-77.65
407.812	16.55
408.02	127.14
408.229	-20.31
408.438	30.89
408.646	-59.22
408.855	-12.12
409.064	80.04
409.272	51.37
409.481	75.95
409.69	-79.7
409.898	-42.84
410.107	69.8
410.315	143.53
410.524	34.99
410.733	43.18
410.941	4.27
411.15	141.48
411.358	116.9
411.567	86.19
411.775	47.27
411.984	67.75
412.192	104.62
412.401	-1.88
412.609	63.66
412.818	147.62
413.026	67.75
413.234	39.08
413.443	-10.07
413.651	6.31
413.86	135.34
414.068	135.34
414.276	188.58
414.485	22.7
414.693	139.43
414.901	155.82
415.11	39.08
415.318	-10.07
415.526	80.04
415.734	116.9
415.943	65.71
416.151	127.14
416.359	34.99
416.567	10.41
416.776	63.66
416.984	73.9
417.192	178.34
417.4	-14.17
417.608	12.46
417.817	-8.02
418.025	71.85
418.233	172.2
418.441	14.51
418.649	-20.31
418.857	26.79
419.065	153.77
419.273	69.8
419.481	98.47
419.689	-5.97
419.897	26.79
420.105	-46.93
420.313	141.48
420.521	159.91
420.729	157.86
420.937	-1.88
421.145	2.22
421.353	129.19
421.561	155.82
421.769	121
421.977	57.51
422.185	45.23
422.393	4.27
422.601	125.1
422.809	6.31
423.017	90.28
423.224	106.67
423.432	94.38
423.64	2.22
423.848	231.59
424.056	-10.07
424.263	129.19
424.471	-28.5
424.679	147.62
424.887	-18.26
425.094	90.28
425.302	90.28
425.51	32.94
425.718	39.08
425.925	98.47
426.133	18.6
426.341	217.26
426.548	127.14
426.756	12.46
426.964	94.38
427.171	8.36
427.379	143.53
427.586	28.84
427.794	180.39
428.001	63.66
428.209	94.38
428.417	196.78
428.624	190.63
428.832	86.19
429.039	47.27
429.247	75.95
429.454	63.66
429.662	276.65
429.869	80.04
430.076	157.86
430.284	125.1
430.491	217.26
430.699	141.48
430.906	217.26
431.114	184.49
431.321	149.67
431.528	112.81
431.736	86.19
431.943	147.62
432.15	178.34
432.358	157.86
432.565	299.17
432.772	-3.93
432.979	176.3
433.187	123.05
433.394	200.87
433.601	172.2
433.808	190.63
434.016	182.44
434.223	207.02
434.43	159.91
434.637	223.4
434.844	188.58
435.052	178.34
435.259	301.22
435.466	284.84
435.673	211.11
435.88	174.25
436.087	266.41
436.294	272.55
436.501	338.09
436.708	272.55
436.915	301.22
437.122	329.89
437.329	202.92
437.537	315.56
437.743	270.5
437.95	452.77
438.157	286.89
438.364	252.07
438.571	368.81
438.778	446.63
438.985	344.23
439.192	321.7
439.399	364.71
439.606	358.57
439.813	372.9
440.02	452.77
440.227	536.74
440.433	411.81
440.64	430.24
440.847	350.37
441.054	477.35
441.261	569.51
441.467	522.4
441.674	436.39
441.881	663.71
442.088	485.54
442.294	600.23
442.501	700.58
442.708	669.86
442.914	727.2
443.121	669.86
443.328	743.58
443.534	753.82
443.741	778.4
443.948	747.68
444.154	774.3
444.361	970.91
444.568	868.51
444.774	929.95
444.981	784.54
445.187	1130.65
445.394	878.75
445.6	975
445.807	1136.79
446.013	1075.35
446.22	1042.59
446.426	1249.43
446.633	1206.42
446.839	1484.95
447.046	1153.18
447.252	1560.72
447.459	1357.97
447.665	1351.83
447.871	1583.25
448.078	1618.07
448.284	1646.74
448.491	1689.74
448.697	1872.01
448.903	1925.26
449.11	1968.27
449.316	1923.21
449.522	2009.23
449.728	2160.78
449.935	2183.31
450.141	2287.75
450.347	2406.53
450.553	2363.53
450.76	2341
450.966	2429.06
451.172	2527.36
451.378	2693.25
451.584	2742.4
451.791	2945.15
451.997	3162.23
452.203	2996.35
452.409	3229.82
452.615	3391.61
452.821	3264.63
453.027	3311.74
453.233	3723.38
453.44	3743.86
453.646	3760.24
453.852	3995.76
454.058	4130.92
454.264	4175.98
454.47	4485.22
454.676	4479.08
454.882	4954.21
455.088	4716.64
455.294	5042.27
455.5	5257.31
455.705	5603.41
455.911	5673.04
456.117	5742.68
456.323	6023.25
456.529	6047.82
456.735	6551.62
456.941	6713.41
457.147	6922.31
457.352	7104.57
457.558	7401.53
457.764	7755.83
457.97	7921.71
458.176	8448.04
458.381	8597.54
458.587	8880.16
458.793	9316.38
458.999	9191.45
459.204	10430.48
459.41	10700.81
459.616	10575.88
459.821	11112.45
460.027	11892.73
460.233	12173.3
460.438	12277.74
460.644	12939.24
460.85	13228
461.055	13643.74
461.261	14292.94
461.466	13850.58
461.672	14270.42
461.878	15964.09
462.083	15669.18
462.289	16277.43
462.494	16893.86
462.7	16836.52
462.905	16990.12
463.111	18270.1
463.316	19480.45
463.522	19619.71
463.727	20258.68
463.932	21231.46
464.138	21843.81
464.343	22691.66
464.549	22794.06
464.754	24807.22
464.959	25259.82
465.165	25614.12
465.37	25265.96
465.575	25642.79
465.781	26883.86
465.986	27979.52
466.191	27868.93
466.397	28114.69
466.602	27301.64
466.807	28712.69
467.012	29322.99
467.218	29644.52
467.423	29769.44
467.628	30457.56
467.833	31878.85
468.038	31786.69
468.244	31100.62
468.449	32681.66
468.654	31938.24
468.859	31864.52
469.064	32005.83
469.269	31491.79
469.474	31665.86
469.679	32579.26
469.885	31528.65
470.09	32343.74
470.295	32440
470.5	31469.26
470.705	31780.55
470.91	30742.23
471.115	30580.44
471.32	30955.22
471.525	30875.35
471.73	29845.22
471.935	29624.04
472.139	28651.25
472.344	28743.41
472.549	28122.88
472.754	27954.94
472.959	27504.39
473.164	26244.89
473.369	26033.95
473.574	26767.12
473.778	26543.89
473.983	25863.97
474.188	25214.76
474.393	24295.22
474.598	23981.88
474.802	24092.48
475.007	23465.8
475.212	23117.64
475.417	22320.98
475.621	22013.79
475.826	21618.53
476.031	21317.48
476.235	20815.73
476.44	20782.96
476.645	20256.63
476.849	20154.23
477.054	19894.14
477.259	19265.41
477.463	19027.85
477.668	18900.87
477.872	18595.73
478.077	18333.59
478.282	17614.75
478.486	17399.71
478.691	17242.02
478.895	17110.95
479.1	17162.15
479.304	17020.84
479.509	15974.33
479.713	16514.99
479.918	16207.8
480.122	15935.42
480.326	16129.97
480.531	15980.47
480.735	15638.46
480.94	15327.17
481.144	15925.18
481.348	15318.98
481.553	15241.15
481.757	14763.98
481.961	14806.98
482.166	15235.01
482.37	15017.93
482.574	14673.87
482.778	14528.46
482.983	14821.32
483.187	14182.35
483.391	14243.79
483.595	14092.24
483.8	14006.23
484.004	13918.17
484.208	13918.17
484.412	13664.22
484.616	13711.32
484.821	13402.08
485.025	13066.21
485.229	13203.43
485.433	12799.98
485.637	12720.1
485.841	12347.37
486.045	12330.99
486.249	12388.33
486.453	12036.08
486.657	12029.94
486.861	11775.99
487.065	11433.98
487.269	11397.12
487.473	10907.65
487.677	11073.54
487.881	11294.72
488.085	10569.74
488.289	10547.21
488.493	10319.89
488.697	10362.89
488.901	10262.54
489.105	9996.31
489.309	9820.18
489.512	9859.09
489.716	9248.8
489.92	9168.93
490.124	9058.34
490.328	9105.44
490.531	8663.08
490.735	8783.91
490.939	8478.76
491.143	8269.87
491.346	8146.99
491.55	7864.37
491.754	7970.87
491.958	7755.83
492.161	7651.38
492.365	7544.89
492.569	7360.57
492.772	7245.88
492.976	7389.24
493.18	7194.68
493.383	7086.14
493.587	7053.38
493.79	7118.91
493.994	6871.11
494.197	6633.54
494.401	6766.66
494.605	6504.52
494.808	6553.67
495.012	6545.48
495.215	6479.94
495.419	6420.55
495.622	6414.41
495.825	6254.67
496.029	6254.67
496.232	6404.17
496.436	6117.45
496.639	6277.19
496.843	6113.36
497.046	6178.89
497.249	6373.45
497.453	6357.07
497.656	6207.56
497.859	6103.12
498.063	6150.22
498.266	6492.23
498.469	6185.04
498.673	6162.51
498.876	6326.35
499.079	6324.3
499.282	6369.35
499.485	6662.21
499.689	6375.5
499.892	6582.34
500.095	6318.15
500.298	6438.98
500.501	6457.42
500.705	6559.81
500.908	6694.98
501.111	6598.73
501.314	6897.73
501.517	6883.39
501.72	6858.82
501.923	7014.46
502.126	6897.73
502.329	7026.75
502.532	7348.28
502.735	7168.06
502.938	7510.07
503.141	7301.18
503.344	7356.47
503.547	7649.33
503.75	7540.79
503.953	7880.75
504.156	8007.73
504.359	8058.93
504.562	8048.69
504.765	8237.1
504.968	8333.36
505.17	8398.89
505.373	8388.65
505.576	8859.68
505.779	8804.39
505.982	9003.04
506.185	9285.66
506.387	9297.95
506.59	9494.55
506.793	9525.27
506.996	9709.59
507.198	10231.82
507.401	10291.21
507.604	10389.52
507.807	10674.18
508.009	10819.59
508.212	10962.95
508.415	11106.31
508.617	11270.14
508.82	11620.35
509.022	11767.8
509.225	12074.99
509.428	12148.72
509.63	12492.78
509.833	12691.43
510.035	13492.19
510.238	13338.59
510.44	13506.52
510.643	13723.61
510.845	14206.93
511.048	14344.14
511.25	14778.31
511.453	15130.56
511.655	15814.59
511.858	16062.39
512.06	16027.57
512.262	16598.96
512.465	16840.62
512.667	17332.13
512.87	17405.86
513.072	18175.89
513.274	18657.17
513.477	19023.75
513.679	19500.93
513.881	19586.94
514.084	20156.28
514.286	20385.65
514.488	20983.66
514.69	21636.96
514.893	22034.27
515.095	22407
515.297	22976.33
515.499	23457.6
515.701	23762.75
515.904	24610.61
516.106	24702.77
516.308	25333.54
516.51	26201.88
516.712	26257.18
516.914	26910.48
517.116	27557.64
517.318	28053.25
517.52	28471.03
517.722	29050.61
517.925	29619.94
518.127	30377.69
518.329	30777.05
518.531	30707.41
518.733	31624.9
518.935	32040.64
519.136	32747.19
519.338	32857.78
519.54	33668.78
519.742	34266.78
519.944	34819.74
520.146	35415.69
520.348	35612.3
520.55	35987.08
520.752	36667
520.954	37168.76
521.155	37062.26
521.357	37983.85
521.559	38483.55
521.761	38813.27
521.963	39362.13
522.164	39364.18
522.366	39884.36
522.568	40240.71
522.77	40652.35
522.971	41377.33
523.173	40832.57
523.375	41565.74
523.576	41309.75
523.778	41608.75
523.98	42313.25
524.181	42659.36
524.383	42352.16
524.584	43300.37
524.786	42954.27
524.988	42595.87
525.189	43261.46
525.391	43406.87
525.592	43472.4
525.794	43009.56
525.995	43408.92
526.197	43294.23
526.398	43152.92
526.6	43210.26
526.801	43232.79
527.003	42796.57
527.204	42804.77
527.406	43761.17
527.607	42571.3
527.808	42274.34
528.01	41932.33
528.211	41881.13
528.412	42579.49
528.614	41547.31
528.815	41670.19
529.016	41512.5
529.218	40855.1
529.419	40697.41
529.62	40480.32
529.822	39894.6
530.023	39687.76
530.224	39288.4
530.425	38882.91
530.626	38444.64
530.828	38178.4
531.029	38321.76
531.23	37011.06
531.431	36515.45
531.632	36619.9
531.833	36447.87
532.035	35894.92
532.236	35407.5
532.437	35073.68
532.638	34393.76
532.839	34186.91
533.04	34211.49
533.241	33425.07
533.442	32943.8
533.643	32734.9
533.844	31993.54
534.045	31706.82
534.246	31176.4
534.447	31153.87
534.648	30426.84
534.849	30125.79
535.05	29310.7
535.251	29527.78
535.451	28962.54
535.652	28391.16
535.853	28086.01
536.054	27549.45
536.255	27469.58
536.456	26926.86
536.657	26754.83
536.857	26224.41
537.058	26068.76
537.259	25534.25
537.46	25409.32
537.66	24952.62
537.861	24778.54
538.062	24395.57
538.263	24051.52
538.463	23717.7
538.664	23349.06
538.865	23088.97
539.065	22798.16
539.266	22464.34
539.466	22450
539.667	21960.54
539.868	21700.45
540.068	21546.85
540.269	21165.93
540.469	20848.49
540.67	20709.23
540.87	20463.47
541.071	20252.53
541.271	19959.67
541.472	19744.64
541.672	19675.01
541.873	19181.45
542.073	18909.07
542.274	19001.22
542.474	18548.62
542.675	18515.86
542.875	18411.41
543.075	17870.75
543.276	17747.87
543.476	17797.02
543.676	17641.37
543.877	17452.96
544.077	17039.27
544.277	16938.92
544.478	16703.4
544.678	16619.44
544.878	16381.87
545.078	16093.11
545.279	15921.08
545.479	15820.73
545.679	15511.49
545.879	15304.64
546.079	15376.32
546.28	14962.63
546.48	14991.3
546.68	14987.21
546.88	14436.3
547.08	14553.04
547.28	14315.47
547.48	13938.65
547.68	14075.86
547.88	13580.25
548.081	13778.9
548.281	13453.28
548.481	13228
548.681	13101.03
548.881	13060.07
549.081	12787.69
549.28	12357.61
549.48	12421.1
549.68	12212.21
549.88	12142.58
550.08	11806.71
550.28	11622.39
550.48	11696.12
550.68	11362.3
550.88	11124.74
551.08	11147.26
551.279	11151.36
551.479	10786.82
551.679	10846.21
551.879	10455.05
552.079	10606.6
552.278	10168.34
552.478	10047.51
552.678	10080.27
552.878	9715.73
553.077	9818.13
553.277	9406.49
553.477	9523.23
553.676	9410.59
553.876	9113.63
554.076	8949.79
554.275	8732.71
554.475	8448.04
554.674	8497.19
554.874	8423.47
555.074	8204.33
555.273	8175.66
555.473	8054.83
555.672	7829.56
555.872	7804.98
556.071	7665.72
556.271	7688.25
556.47	7311.42
556.67	7133.25
556.869	7348.28
557.068	7049.28
557.268	6916.16
557.467	6828.1
557.667	6748.23
557.866	6570.05
558.065	6600.77
558.265	6281.29
558.464	6260.81
558.663	6099.02
558.863	6150.22
559.062	6008.91
559.261	5804.11
559.461	5793.87
559.66	5535.83
559.859	5513.3
560.058	5247.07
560.258	5226.59
560.457	5326.94
560.656	5527.64
560.855	5036.13
561.054	5199.96
561.253	5032.03
561.453	4931.68
561.652	4849.76
561.851	4911.2
562.05	4841.57
562.249	4411.5
562.448	4644.96
562.647	4393.06
562.846	4331.62
563.045	4444.26
563.244	4194.41
563.443	4210.79
563.642	4069.48
563.841	4194.41
564.04	4010.09
564.239	3944.56
564.438	3866.74
564.637	3897.46
564.836	3825.78
565.035	3840.11
565.234	3618.93
565.432	3618.93
565.631	3641.46
565.83	3508.34
566.029	3354.74
566.228	3428.47
566.427	3530.87
566.625	3115.13
566.824	3281.02
567.023	3270.78
567.222	3117.18
567.42	3199.1
567.619	3065.98
567.818	3070.08
568.016	3123.32
568.215	3061.88
568.414	3022.97
568.612	2951.29
568.811	2814.08
569.01	2789.5
569.208	2762.88
569.407	2850.94
569.605	2666.63
569.804	2701.44
570.002	2603.14
570.201	2513.03
570.4	2648.19
570.598	2502.79
570.797	2480.26
570.995	2279.56
571.193	2443.4
571.392	2424.97
571.59	2128.01
571.789	2369.67
571.987	2312.33
572.186	2199.69
572.384	2216.07
572.582	2209.93
572.781	2238.6
572.979	1927.31
573.177	2099.34
573.376	2072.72
573.574	2093.19
573.772	1974.41
573.971	1869.97
574.169	1826.96
574.367	1796.24
574.565	1882.25
574.763	1820.81
574.962	1849.49
575.16	1714.32
575.358	1734.8
575.556	1677.46
575.754	1640.59
575.952	1693.84
576.151	1628.31
576.349	1702.03
576.547	1513.62
576.745	1546.39
576.943	1562.77
577.141	1454.23
577.339	1347.73
577.537	1353.88
577.735	1570.96
577.933	1509.52
578.131	1347.73
578.329	1380.5
578.527	1411.22
578.725	1298.58
578.923	1249.43
579.121	1394.84
579.319	1132.7
579.516	1216.66
579.714	1497.24
579.912	1224.86
580.11	1136.79
580.308	1200.28
580.506	1161.37
580.704	966.81
580.901	1056.92
581.099	1280.15
581.297	1067.16
581.495	1142.94
581.692	1040.54
581.89	1101.98
582.088	1075.35
582.285	1001.63
582.483	936.09
582.681	1020.06
582.878	1007.77
583.076	827.55
583.274	901.28
583.471	940.19
583.669	942.24
583.866	768.16
584.064	919.71
584.262	837.79
584.459	839.84
584.657	907.42
584.854	862.37
585.052	858.27
585.249	909.47
585.447	880.8
585.644	706.72
585.841	837.79
586.039	872.61
586.236	848.03
586.434	731.3
586.631	737.44
586.828	628.9
587.026	770.21
587.223	592.03
587.42	635.04
587.618	702.62
587.815	833.69
588.012	616.61
588.21	749.73
588.407	786.59
588.604	698.53
588.801	512.16
588.999	614.56
589.196	614.56
589.393	577.7
589.59	637.09
589.787	598.18
589.984	651.42
590.182	680.1
590.379	491.68
590.576	487.59
590.773	559.27
590.97	614.56
591.167	612.51
591.364	538.79
591.561	618.66
591.758	673.95
591.955	577.7
592.152	655.52
592.349	555.17
592.546	618.66
592.743	499.88
592.94	587.94
593.137	594.08
593.334	632.99
593.531	723.1
593.727	587.94
593.924	616.61
594.121	622.75
594.318	530.59
594.515	575.65
594.712	735.39
594.908	759.97
595.105	503.97
595.302	583.84
595.499	622.75
595.696	729.25
595.892	536.74
596.089	673.95
596.286	639.14
596.482	753.82
596.679	786.59
596.876	739.49
597.072	776.35
597.269	706.72
597.466	755.87
597.662	725.15
597.859	698.53
598.055	831.65
598.252	897.18
598.448	909.47
598.645	944.28
598.841	1026.2
599.038	1087.64
599.234	1130.65
599.431	1144.99
599.627	1095.83
599.824	1058.97
600.02	1104.03
600.217	1241.24
600.413	1382.55
600.609	1284.25
600.806	1448.08
601.002	1296.53
601.198	1351.83
601.395	1566.87
601.591	1460.37
601.787	1566.87
601.984	1677.46
602.18	1763.47
602.376	1779.86
602.572	1831.05
602.769	1996.94
602.965	1902.73
603.161	2064.52
603.357	2246.79
603.553	2269.32
603.75	2082.95
603.946	2222.22
604.142	2324.62
604.338	2517.12
604.534	2443.4
604.73	2504.84
604.926	2730.11
605.122	2963.58
605.318	2855.04
605.514	2998.4
605.71	3000.44
605.906	3211.39
606.102	3090.56
606.298	3338.36
606.494	3559.54
606.69	3528.82
606.886	3588.21
607.082	3711.09
607.278	3854.45
607.474	3889.26
607.67	4024.43
607.866	4040.81
608.062	4452.45
608.257	4548.71
608.453	4558.95
608.649	4692.07
608.845	4595.81
609.041	4728.93
609.236	4837.47
609.432	5308.51
609.628	5320.79
609.824	5470.3
610.019	5357.66
610.215	5701.72
610.411	5847.12
610.606	6084.69
610.802	6076.49
610.998	6375.5
611.193	6645.83
611.389	6508.62
611.584	6852.67
611.78	6938.69
611.976	7090.24
612.171	7415.87
612.367	7600.18
612.562	7882.8
612.758	7862.32
612.953	7825.46
613.149	8190
613.344	8482.86
613.539	8812.58
613.735	9134.11
613.93	9097.25
614.126	9404.44
614.321	9717.78
614.517	10053.65
614.712	10055.7
614.907	10606.6
615.103	10573.83
615.298	11026.43
615.493	11337.73
615.688	11266.05
615.884	11935.73
616.079	12091.38
616.274	12490.73
616.47	12648.43
616.665	13021.16
616.86	13199.33
617.055	13758.42
617.25	13850.58
617.445	14432.21
617.641	14725.07
617.836	14827.46
618.031	15241.15
618.226	15906.74
618.421	16017.33
618.616	16664.49
618.811	16908.2
619.006	17477.54
619.201	17311.65
619.396	18147.22
619.591	18089.88
619.786	18880.39
619.981	19126.15
620.176	19711.87
620.371	19857.28
620.566	20428.66
620.761	20612.98
620.956	21329.77
621.151	21569.38
621.346	22077.27
621.541	21897.05
621.735	23183.18
621.93	23054.15
622.125	23635.78
622.32	23629.63
622.515	24723.25
622.709	25130.8
622.904	25403.18
623.099	25728.8
623.294	26271.51
623.488	26720.02
623.683	27156.24
623.878	27250.44
624.072	28342.01
624.267	28663.54
624.462	28952.3
624.656	28978.93
624.851	30164.7
625.046	30097.12
625.24	30766.81
625.435	31024.85
625.629	31428.3
625.824	31510.22
626.018	32538.3
626.213	32214.72
626.407	33121.97
626.602	32759.48
626.796	33853.09
626.991	33945.25
627.185	34356.89
627.38	34160.29
627.574	34819.74
627.768	34920.09
627.963	35065.49
628.157	34854.55
628.352	35288.72
628.546	34770.58
628.74	35716.75
628.935	35368.59
629.129	35333.78
629.323	34942.61
629.517	34774.68
629.712	34766.49
629.906	34610.84
630.1	34197.15
630.294	34160.29
630.489	33312.43
630.683	33521.32
630.877	32384.7
631.071	31794.89
631.265	32036.55
631.459	31063.76
631.653	30457.56
631.848	29779.68
632.042	28999.41
632.236	28634.87
632.43	27625.22
632.624	27338.51
632.818	26318.62
633.012	25446.18
633.206	24422.2
633.4	24002.36
633.594	22863.69
633.788	22325.08
633.982	21600.1
634.176	21012.33
634.369	19890.04
634.563	19392.39
634.757	18530.19
634.951	17979.29
635.145	17375.14
635.339	16658.35
635.533	15959.99
635.726	15609.79
635.92	14385.1
636.114	13995.99
636.308	13406.17
636.501	12978.15
636.695	12505.07
636.889	11581.43
637.083	11483.13
637.276	11091.97
637.47	10700.81
637.664	10123.28
637.857	9730.07
638.051	9164.83
638.244	8759.33
638.438	8615.98
638.632	8300.59
638.825	7745.59
639.019	7495.74
639.212	7141.44
639.406	7032.9
639.599	6781
639.793	6584.39
639.986	6254.67
640.18	6010.96
640.373	5654.61
640.567	5455.96
640.76	5228.63
640.954	5066.85
641.147	4833.38
641.34	4714.59
641.534	4427.88
641.727	4319.34
641.92	4231.27
642.114	4094.06
642.307	3954.8
642.5	3676.27
642.694	3610.74
642.887	3475.57
643.08	3528.82
643.273	3278.97
643.467	3160.19
643.66	2877.57
643.853	2881.66
644.046	2738.3
644.239	2746.5
644.432	2496.64
644.626	2314.38
644.819	2250.89
645.012	2250.89
645.205	2220.17
645.398	2293.9
645.591	2089.1
645.784	1841.29
645.977	1818.77
646.17	1777.81
646.363	1599.63
646.556	1562.77
646.749	1536.15
646.942	1554.58
647.135	1530
647.328	1345.69
647.521	1550.48
647.714	1284.25
647.907	1351.83
648.099	1218.71
648.292	1218.71
648.485	1163.42
648.678	1067.16
648.871	1034.39
649.064	1087.64
649.256	972.96
649.449	977.05
649.642	839.84
649.835	747.68
650.027	805.02
650.22	905.37
650.413	790.69
650.605	776.35
650.798	649.38
650.991	686.24
651.183	702.62
651.376	704.67
651.568	665.76
651.761	561.31
651.954	665.76
652.146	604.32
652.339	676
652.531	647.33
652.724	489.64
652.916	483.49
653.109	366.76
653.301	557.22
653.494	512.16
653.686	485.54
653.879	557.22
654.071	485.54
654.263	370.85
654.456	411.81
654.648	456.87
654.84	491.68
655.033	385.19
655.225	438.44
655.417	258.21
655.61	495.78
655.802	430.24
655.994	483.49
656.186	229.54
656.379	436.39
656.571	370.85
656.763	340.13
656.955	229.54
657.148	282.79
657.34	354.47
657.532	293.03
657.724	274.6
657.916	315.56
658.108	333.99
658.3	233.64
658.492	313.51
658.684	262.31
658.876	290.98
659.068	182.44
659.26	149.67
659.452	235.69
659.644	266.41
659.836	348.33
660.028	252.07
660.22	147.62
660.412	192.68
660.604	159.91
660.796	204.97
660.988	270.5
661.18	170.15
661.372	295.08
661.563	204.97
661.755	274.6
661.947	96.43
662.139	141.48
662.331	243.88
662.522	200.87
662.714	137.38
662.906	90.28
663.097	209.06
663.289	114.86
663.481	59.56
663.673	172.2
663.864	141.48
664.056	225.45
664.247	155.82
664.439	182.44
664.631	141.48
664.822	172.2
665.014	209.06
665.205	139.43
665.397	86.19
665.588	147.62
665.78	155.82
665.971	159.91
666.163	133.29
666.354	188.58
666.546	69.8
666.737	90.28
666.929	102.57
667.12	86.19
667.311	161.96
667.503	131.24
667.694	186.54
667.885	174.25
668.077	182.44
668.268	112.81
668.459	225.45
668.651	102.57
668.842	196.78
669.033	129.19
669.224	18.6
669.416	270.5
669.607	94.38
669.798	123.05
669.989	321.7
670.18	104.62
670.371	166.06
670.563	37.03
670.754	280.74
670.945	135.34
671.136	237.74
671.327	47.27
671.518	194.73
671.709	227.5
671.9	194.73
672.091	233.64
672.282	110.76
672.473	145.58
672.664	55.47
672.855	92.33
673.046	135.34
673.237	141.48
673.428	143.53
673.619	180.39
673.809	190.63
674	80.04
674.191	200.87
674.382	116.9
674.573	71.85
674.764	145.58
674.954	256.17
675.145	92.33
675.336	102.57
675.527	102.57
675.717	131.24
675.908	28.84
676.099	51.37
676.289	161.96
676.48	26.79
676.671	153.77
676.861	168.1
677.052	166.06
677.243	217.26
677.433	84.14
677.624	202.92
677.814	174.25
678.005	118.95
678.195	247.97
678.386	110.76
678.576	159.91
678.767	157.86
678.957	188.58
679.148	299.17
679.338	333.99
679.529	233.64
679.719	221.35
679.909	295.08
680.1	266.41
680.29	243.88
680.481	159.91
680.671	260.26
680.861	237.74
681.052	213.16
681.242	143.53
681.432	354.47
681.622	256.17
681.813	133.29
682.003	266.41
682.193	137.38
682.383	166.06
682.573	225.45
682.764	293.03
682.954	235.69
683.144	323.75
683.334	180.39
683.524	184.49
683.714	215.21
683.904	290.98
684.094	168.1
684.284	207.02
684.474	309.41
684.664	194.73
684.854	280.74
685.044	270.5
685.234	194.73
685.424	235.69
685.614	127.14
685.804	428.2
685.994	342.18
686.184	198.82
686.374	274.6
686.564	221.35
686.753	307.37
686.943	202.92
687.133	264.36
687.323	237.74
687.513	282.79
687.702	225.45
687.892	254.12
688.082	231.59
688.272	231.59
688.461	178.34
688.651	377
688.841	286.89
689.03	223.4
689.22	213.16
689.41	313.51
689.599	282.79
689.789	178.34
689.979	299.17
690.168	215.21
690.358	229.54
690.547	254.12
690.737	327.85
690.926	217.26
691.116	262.31
691.305	317.61
691.495	297.13
691.684	182.44
691.874	211.11
692.063	241.83
692.252	280.74
692.442	264.36
692.631	186.54
692.82	196.78
693.01	256.17
693.199	219.3
693.388	315.56
693.578	170.15
693.767	288.93
693.956	311.46
694.146	190.63
694.335	211.11
694.524	180.39
694.713	278.69
694.902	186.54
695.092	137.38
695.281	272.55
695.47	168.1
695.659	137.38
695.848	207.02
696.037	170.15
696.226	301.22
696.415	229.54
696.604	295.08
696.793	278.69
696.982	202.92
697.171	282.79
697.36	143.53
697.549	196.78
697.738	112.81
697.927	243.88
698.116	129.19
698.305	352.42
698.494	207.02
698.683	129.19
698.872	293.03
699.061	262.31
699.25	186.54
699.438	207.02
699.627	98.47
699.816	254.12
700.005	149.67
700.193	168.1
700.382	247.97
700.571	215.21
700.76	225.45
700.948	252.07
701.137	307.37
701.326	290.98
701.514	180.39
701.703	209.06
701.892	235.69
702.08	327.85
702.269	180.39
702.457	164.01
702.646	264.36
702.834	241.83
703.023	317.61
703.212	268.45
703.4	207.02
703.589	190.63
703.777	186.54
703.965	166.06
704.154	166.06
704.342	202.92
704.531	219.3
704.719	245.93
704.907	247.97
705.096	92.33
705.284	170.15
705.472	166.06
705.661	235.69
705.849	268.45
706.037	284.84
706.226	182.44
706.414	293.03
706.602	77.99
706.79	241.83
706.979	204.97
707.167	288.93
707.355	94.38
707.543	184.49
707.731	258.21
707.919	245.93
708.107	198.82
708.296	153.77
708.484	245.93
708.672	202.92
708.86	239.78
709.048	164.01
709.236	202.92
709.424	241.83
709.612	288.93
709.8	129.19
709.988	186.54
710.176	286.89
710.364	270.5
710.551	245.93
710.739	227.5
710.927	215.21
711.115	262.31
711.303	264.36
711.491	231.59
711.679	233.64
711.866	262.31
712.054	233.64
712.242	262.31
712.43	270.5
712.617	229.54
712.805	274.6
712.993	227.5
713.181	155.82
713.368	237.74
713.556	190.63
713.744	182.44
713.931	319.65
714.119	286.89
714.306	155.82
714.494	247.97
714.682	231.59
714.869	102.57
715.057	153.77
715.244	186.54
715.432	239.78
715.619	200.87
715.807	188.58
715.994	235.69
716.182	219.3
716.369	284.84
716.556	290.98
716.744	151.72
716.931	184.49
717.119	252.07
717.306	276.65
717.493	211.11
717.681	266.41
717.868	229.54
718.055	270.5
718.242	272.55
718.43	237.74
718.617	381.09
718.804	264.36
718.991	260.26
719.179	282.79
719.366	278.69
719.553	305.32
719.74	227.5
719.927	315.56
720.114	317.61
720.301	133.29
720.488	161.96
720.676	178.34
720.863	397.48
721.05	348.33
721.237	350.37
721.424	336.04
721.611	252.07
721.798	260.26
721.985	161.96
722.172	194.73
722.358	174.25
722.545	307.37
722.732	331.94
722.919	327.85
723.106	301.22
723.293	313.51
723.48	295.08
723.667	229.54
723.853	280.74
724.04	358.57
724.227	295.08
724.414	256.17
724.6	237.74
724.787	383.14
724.974	405.67
725.161	217.26
725.347	164.01
725.534	309.41
725.72	342.18
725.907	430.24
726.094	305.32
726.28	239.78
726.467	200.87
726.653	202.92
726.84	370.85
727.027	399.52
727.213	243.88
727.4	284.84
727.586	346.28
727.773	223.4
727.959	311.46
728.145	239.78
728.332	305.32
728.518	237.74
728.705	309.41
728.891	266.41
729.077	362.66
729.264	239.78
729.45	329.89
729.636	313.51
729.823	340.13
730.009	305.32
730.195	377
730.382	383.14
730.568	252.07
730.754	344.23
730.94	243.88
731.126	293.03
731.313	262.31
731.499	270.5
731.685	389.28
731.871	278.69
732.057	325.8
732.243	321.7
732.429	348.33
732.615	448.68
732.801	293.03
732.987	227.5
733.173	313.51
733.359	198.82
733.545	393.38
733.731	307.37
733.917	379.04
734.103	342.18
734.289	352.42
734.475	202.92
734.661	442.53
734.847	317.61
735.033	379.04
735.219	315.56
735.404	241.83
735.59	303.27
735.776	276.65
735.962	354.47
736.148	358.57
736.333	284.84
736.519	348.33
736.705	252.07
736.89	241.83
737.076	295.08
737.262	290.98
737.447	209.06
737.633	352.42
737.819	346.28
738.004	243.88
738.19	254.12
738.375	377
738.561	280.74
738.747	264.36
738.932	219.3
739.118	395.43
739.303	356.52
739.489	313.51
739.674	250.02
739.859	211.11
740.045	389.28
740.23	256.17
740.416	200.87
740.601	284.84
740.786	379.04
740.972	221.35
741.157	221.35
741.342	137.38
741.528	315.56
741.713	321.7
741.898	282.79
742.084	411.81
742.269	288.93
742.454	325.8
742.639	315.56
742.824	297.13
743.01	432.29
743.195	454.82
743.38	336.04
743.565	340.13
743.75	403.62
743.935	354.47
744.12	331.94
744.305	250.02
744.49	202.92
744.675	295.08
744.86	336.04
745.045	348.33
745.23	282.79
745.415	217.26
745.6	413.86
745.785	241.83
745.97	432.29
746.155	299.17
746.34	338.09
746.525	231.59
746.71	342.18
746.895	237.74
747.079	278.69
747.264	303.27
747.449	336.04
747.634	432.29
747.819	305.32
748.003	223.4
748.188	182.44
748.373	303.27
748.557	260.26
748.742	270.5
748.927	225.45
749.111	297.13
749.296	202.92
749.481	254.12
749.665	239.78
749.85	231.59
750.034	245.93
750.219	323.75
750.404	266.41
750.588	223.4
750.773	192.68
750.957	243.88
751.141	282.79
751.326	284.84
751.51	178.34
751.695	182.44
751.879	239.78
752.064	417.96
752.248	268.45
752.432	387.24
752.617	266.41
752.801	278.69
752.985	159.91
753.17	307.37
753.354	282.79
753.538	118.95
753.722	168.1
753.907	217.26
754.091	112.81
754.275	278.69
754.459	127.14
754.643	137.38
754.828	194.73
755.012	317.61
755.196	168.1
755.38	260.26
755.564	131.24
755.748	227.5
755.932	202.92
756.116	305.32
756.3	213.16
756.484	221.35
756.668	319.65
756.852	94.38
757.036	207.02
757.22	168.1
757.404	108.71
757.588	121
757.772	141.48
757.956	207.02
758.14	299.17
758.323	194.73
758.507	149.67
758.691	112.81
758.875	202.92
759.059	217.26
759.242	80.04
759.426	149.67
759.61	184.49
759.794	131.24
759.977	243.88
760.161	358.57
760.345	305.32
760.528	245.93
760.712	174.25
760.895	196.78
761.079	121
761.263	108.71
761.446	37.03
761.63	116.9
761.813	254.12
761.997	102.57
762.18	168.1
762.364	204.97
762.547	53.42
762.731	69.8
762.914	233.64
763.098	123.05
763.281	55.47
763.464	63.66
763.648	116.9
763.831	106.67
764.015	153.77
764.198	186.54
764.381	186.54
764.564	168.1
764.748	123.05
764.931	176.3
765.114	112.81
765.297	256.17
765.481	49.32
765.664	98.47
765.847	155.82
766.03	186.54
766.213	24.75
766.397	37.03
766.58	80.04
766.763	186.54
766.946	149.67
767.129	80.04
767.312	69.8
767.495	6.31
767.678	125.1
767.861	139.43
768.044	114.86
768.227	57.51
768.41	59.56
768.593	121
768.776	151.72
768.959	145.58
769.142	231.59
769.324	67.75
769.507	137.38
769.69	118.95
769.873	98.47
770.056	293.03
770.239	166.06
770.421	172.2
770.604	82.09
770.787	123.05
770.97	112.81
771.152	88.23
771.335	157.86
771.518	75.95
771.7	172.2
771.883	231.59
772.066	26.79
772.248	110.76
772.431	219.3
772.613	116.9
772.796	73.9
772.978	137.38
773.161	209.06
773.343	96.43
773.526	94.38
773.708	-79.7
773.891	28.84
774.073	67.75
774.256	53.42
774.438	143.53
774.621	110.76
774.803	127.14
774.985	37.03
775.168	75.95
775.35	43.18
775.532	69.8
775.715	14.51
775.897	57.51
776.079	51.37
776.261	157.86
776.444	67.75
776.626	100.52
776.808	147.62
776.99	6.31
777.173	73.9
777.355	53.42
777.537	-3.93
777.719	125.1
777.901	96.43
778.083	45.23
778.265	-22.36
778.447	110.76
778.629	4.27
778.811	57.51
778.993	161.96
779.175	84.14
779.357	63.66
779.539	-96.08
779.721	110.76
779.903	145.58
780.085	16.55
780.267	43.18
780.449	57.51
780.631	108.71
780.812	61.61
780.994	-34.64
781.176	-24.4
781.358	45.23
781.54	75.95
781.721	26.79
781.903	108.71
782.085	63.66
782.267	161.96
782.448	-98.13
782.63	6.31
782.812	77.99
782.993	127.14
783.175	43.18
783.357	61.61
783.538	159.91
783.72	-16.21
783.901	71.85
784.083	63.66
784.264	139.43
784.446	-48.98
784.627	14.51
784.809	61.61
784.99	-3.93
785.172	108.71
785.353	39.08
785.535	61.61
785.716	12.46
785.897	2.22
786.079	-22.36
786.26	20.65
786.441	49.32
786.623	-114.52
786.804	-14.17
786.985	41.13
787.167	131.24
787.348	47.27
787.529	53.42
787.71	147.62
787.891	18.6
788.073	-53.08
788.254	-34.64
788.435	123.05
788.616	84.14
788.797	-38.74
788.978	86.19
789.159	-32.6
789.34	114.86
789.522	-5.97
789.703	-32.6
789.884	12.46
790.065	114.86
790.246	96.43
790.427	20.65
790.607	166.06
790.788	166.06
790.969	-71.51
791.15	161.96
791.331	8.36
791.512	10.41
791.693	34.99
791.874	10.41
792.054	198.82
792.235	94.38
792.416	26.79
792.597	-53.08
792.778	94.38
792.958	57.51
793.139	34.99
793.32	106.67
793.5	-102.23
793.681	125.1
793.862	53.42
794.042	51.37
794.223	-71.51
794.404	43.18
794.584	-24.4
794.765	39.08
794.945	10.41
795.126	18.6
795.306	55.47
795.487	-36.69
795.667	4.27
795.848	57.51
796.028	67.75
796.209	-26.45
796.389	67.75
796.57	26.79
796.75	18.6
796.93	-16.21
797.111	77.99
797.291	-42.84
797.471	86.19
797.652	-3.93
797.832	-14.17
798.012	65.71
798.192	-3.93
798.373	-135
798.553	-14.17
798.733	114.86
798.913	26.79
799.093	-57.17
799.274	100.52
799.454	110.76
799.634	45.23
799.814	75.95
799.994	16.55
800.174	47.27
800.354	63.66
800.534	-53.08
800.714	14.51
800.894	22.7
801.074	-34.64
801.254	-22.36
801.434	39.08
801.614	-46.93
801.794	-57.17
801.974	1906.83
802.154	26.79
802.334	82.09
802.514	-34.64
802.693	-20.31
802.873	-26.45
803.053	88.23
803.233	28.84
803.413	-42.84
803.592	-34.64
803.772	-63.32
803.952	-34.64
804.131	-28.5
804.311	108.71
804.491	71.85
804.67	-120.66
804.85	8.36
805.03	30.89
805.209	96.43
805.389	86.19
805.568	-40.79
805.748	4.27
805.928	-28.5
806.107	67.75
806.287	4.27
806.466	51.37
806.646	22.7
806.825	10.41
807.004	-59.22
807.184	104.62
807.363	98.47
807.543	-22.36
807.722	-22.36
807.901	92.33
808.081	26.79
808.26	-59.22
808.439	49.32
808.619	-5.97
808.798	-51.03
808.977	61.61
809.156	151.72
809.336	-12.12
809.515	112.81
809.694	-22.36
809.873	49.32
810.052	59.56
810.231	121
810.411	86.19
810.59	106.67
810.769	-18.26
810.948	84.14
811.127	-79.7
811.306	-46.93
811.485	-14.17
811.664	102.57
811.843	32.94
812.022	55.47
812.201	-28.5
812.38	0.17
812.559	-10.07
812.737	34.99
812.916	-3.93
813.095	-65.36
813.274	-44.88
813.453	20.65
813.632	55.47
813.811	75.95
813.989	-100.18
814.168	16.55
814.347	-30.55
814.526	22.7
814.704	149.67
814.883	116.9
815.062	-20.31
815.24	16.55
815.419	-102.23
815.598	47.27
815.776	-118.61
815.955	-75.6
816.133	-53.08
816.312	-10.07
816.49	-14.17
816.669	2.22
816.847	18.6
817.026	8.36
817.204	-18.26
817.383	-77.65
817.561	-63.32
817.74	37.03
817.918	22.7
818.097	-5.97
818.275	-28.5
818.453	55.47
818.632	53.42
818.81	-44.88
818.988	14.51
819.167	-22.36
819.345	-46.93
819.523	-71.51
819.701	34.99
819.879	-63.32
820.058	6.31
820.236	24.75
820.414	-8.02
820.592	12.46
820.77	-20.31
820.948	14.51
821.127	-1.88
821.305	30.89
821.483	-85.84
821.661	131.24
821.839	-48.98
822.017	24.75
822.195	-73.56
822.373	65.71
822.551	37.03
822.729	65.71
822.907	2.22
823.085	47.27
823.262	10.41
823.44	-44.88
823.618	16.55
823.796	16.55
823.974	34.99
824.152	-40.79
824.329	6.31
824.507	30.89
824.685	-18.26
824.863	-10.07
825.04	-30.55
825.218	6.31
825.396	-16.21
825.574	0.17
825.751	57.51
825.929	65.71
826.107	-51.03
826.284	-57.17
826.462	53.42
826.639	-59.22
826.817	-91.99
826.994	-53.08
827.172	-44.88
827.349	104.62
827.527	51.37
827.704	-16.21
827.882	30.89
828.059	2.22
828.237	-40.79
828.414	37.03
828.591	-106.32
828.769	14.51
828.946	-71.51
829.124	55.47
829.301	65.71
829.478	-73.56
829.655	69.8
829.833	10.41
830.01	-145.24
830.187	43.18
830.364	-38.74
830.542	43.18
830.719	96.43
830.896	82.09
831.073	-10.07
831.25	69.8
831.427	73.9
831.604	6.31
831.782	-10.07
831.959	16.55
832.136	-30.55
832.313	51.37
832.49	-44.88
832.667	-18.26
832.844	-28.5
833.021	149.67
833.198	73.9
833.374	16.55
833.551	-40.79
833.728	-69.46
833.905	59.56
834.082	6.31
834.259	-18.26
834.436	106.67
834.612	-96.08
834.789	10.41
834.966	2.22
835.143	14.51
835.319	-40.79
835.496	-3.93
835.673	12.46
835.85	2.22
836.026	53.42
836.203	51.37
836.38	-28.5
836.556	24.75
836.733	-75.6
836.909	51.37
837.086	-42.84
837.262	-51.03
837.439	-3.93
837.616	-65.36
837.792	-12.12
837.968	37.03
838.145	-85.84
838.321	30.89
838.498	16.55
838.674	57.51
838.851	57.51
839.027	2.22
839.203	8.36
839.38	75.95
839.556	-36.69
839.732	67.75
839.909	-22.36
840.085	108.71
840.261	-46.93
840.437	14.51
840.614	-53.08
840.79	92.33
840.966	24.75
841.142	-5.97
841.318	26.79
841.494	41.13
841.671	75.95
841.847	4.27
842.023	-81.75
842.199	49.32
842.375	108.71
842.551	-65.36
842.727	-16.21
842.903	94.38
843.079	-34.64
843.255	80.04
843.431	-12.12
843.607	57.51
843.783	-112.47
843.959	22.7
844.134	-34.64
844.31	129.19
844.486	-16.21
844.662	-61.27
844.838	-16.21
845.013	-30.55
845.189	43.18
845.365	16.55
845.541	-48.98
845.716	-55.12
845.892	47.27
846.068	-71.51
846.244	-57.17
846.419	-3.93
846.595	-141.14
846.77	-85.84
846.946	-16.21
847.122	-98.13
847.297	-159.57
847.473	92.33
847.648	-87.89
847.824	6.31
847.999	-120.66
848.175	-30.55
848.35	-3.93
848.526	106.67
848.701	98.47
848.876	71.85
849.052	10.41
849.227	26.79
849.403	-16.21
849.578	-67.41
849.753	-24.4
849.929	-24.4
850.104	-42.84
850.279	-16.21
850.454	-8.02
850.63	20.65
850.805	10.41
850.98	-1.88
851.155	43.18
851.33	34.99
851.505	-67.41
851.681	106.67
851.856	-108.37
852.031	14.51
852.206	-18.26
852.381	-96.08
852.556	-75.6
852.731	32.94
852.906	55.47
853.081	41.13
853.256	100.52
853.431	-22.36
853.606	-8.02
853.781	-51.03
853.956	-151.38
854.131	18.6
854.305	-55.12
854.48	-14.17
854.655	-57.17
854.83	-67.41
855.005	-59.22
855.18	-77.65
855.354	-51.03
855.529	37.03
855.704	-18.26
855.879	49.32
856.053	-34.64
856.228	41.13
856.403	-83.8
856.577	47.27
856.752	-124.76
856.926	10.41
857.101	88.23
857.276	-120.66
857.45	-22.36
857.625	-22.36
857.799	24.75
857.974	-5.97
858.148	-116.56
858.323	-71.51
858.497	-61.27
858.672	-98.13
858.846	-46.93
859.02	12.46
859.195	-1.88
859.369	-34.64
859.543	-42.84
859.718	-12.12
859.892	73.9
860.066	2.22
860.241	-8.02
860.415	-100.18
860.589	6.31
860.763	-3.93
860.938	8.36
861.112	34.99
861.286	-1.88
861.46	-48.98
861.634	-14.17
861.808	92.33
861.982	-59.22
862.157	-55.12
862.331	-63.32
862.505	-159.57
862.679	-104.28
862.853	-116.56
863.027	-10.07
863.201	153.77
863.375	2.22
863.549	98.47
863.722	-16.21
863.896	82.09
864.07	-128.85
864.244	-65.36
864.418	-42.84
864.592	-10.07
864.766	-42.84
864.939	63.66
865.113	-165.71
865.287	51.37
865.461	-106.32
865.634	69.8
865.808	-46.93
865.982	-16.21
866.156	-87.89
866.329	-141.14
866.503	-20.31
866.676	45.23
866.85	20.65
867.024	-10.07
867.197	43.18
867.371	41.13
867.544	-1.88
867.718	-114.52
867.891	37.03
868.065	-73.56
868.238	30.89
868.412	96.43
868.585	20.65
868.759	6.31
868.932	-8.02
869.105	-102.23
869.279	30.89
869.452	-28.5
869.625	24.75
869.799	-55.12
869.972	-26.45
870.145	18.6
870.319	69.8
870.492	-94.04
870.665	-46.93
870.838	-5.97
871.011	-124.76
871.185	-36.69
871.358	-106.32
871.531	24.75
871.704	-87.89
871.877	45.23
872.05	30.89
872.223	-51.03
872.396	45.23
872.569	65.71
872.742	-137.04
872.915	-61.27
873.088	-3.93
873.261	-42.84
873.434	-94.04
873.607	-40.79
873.78	53.42
873.953	-100.18
874.126	-44.88
874.299	18.6
874.471	-28.5
874.644	-51.03
874.817	-18.26
874.99	151.72
875.163	4.27
875.335	-24.4
875.508	51.37
875.681	82.09
875.853	-26.45
876.026	-28.5
876.199	-14.17
876.371	4.27
876.544	-71.51
876.717	39.08
876.889	18.6
877.062	0.17
877.234	-75.6
877.407	-30.55
877.579	6.31
877.752	18.6
877.924	12.46
878.097	-8.02
878.269	-63.32
878.442	39.08
878.614	-44.88
878.786	30.89
878.959	6.31
879.131	16.55
879.303	-147.28
879.476	-57.17
879.648	65.71
879.82	-67.41
879.993	-51.03
880.165	6.31
880.337	-89.94
880.509	26.79
880.681	-61.27
880.854	-30.55
881.026	61.61
881.198	75.95
881.37	51.37
881.542	-30.55
881.714	14.51
881.886	-55.12
882.058	20.65
882.23	6.31
882.402	-67.41
882.574	77.99
882.746	106.67
882.918	10.41
883.09	69.8
883.262	-51.03
883.434	-51.03
883.606	-128.85
883.778	-1.88
883.95	112.81
884.122	-5.97
884.293	28.84
884.465	14.51
884.637	-20.31
884.809	-36.69
884.98	26.79
885.152	0.17
885.324	80.04
885.496	-102.23
885.667	-46.93
885.839	71.85
886.011	112.81
886.182	18.6
886.354	-16.21
886.525	30.89
886.697	139.43
886.869	-77.65
887.04	-38.74
887.212	59.56
887.383	69.8
887.555	51.37
887.726	-73.56
887.897	8.36
888.069	18.6
888.24	125.1
888.412	-67.41
888.583	-91.99
888.754	-12.12
888.926	-108.37
889.097	-77.65
889.268	-151.38
889.44	39.08
889.611	-89.94
889.782	-51.03
889.953	-12.12
890.125	131.24
890.296	-59.22
890.467	-55.12
890.638	-30.55
890.809	-8.02
890.98	-83.8
891.151	43.18
891.323	108.71
891.494	-5.97
891.665	-10.07
891.836	-89.94
892.007	-38.74
892.178	-32.6
892.349	-20.31
892.52	-55.12
892.691	30.89
892.862	-57.17
893.032	-120.66
893.203	-75.6
893.374	65.71
893.545	14.51
893.716	-46.93
893.887	43.18
894.057	18.6
894.228	41.13
894.399	-85.84
894.57	155.82
894.74	14.51
894.911	10.41
895.082	-46.93
895.253	-69.46
895.423	-75.6
895.594	82.09
895.764	-22.36
895.935	-85.84
896.106	100.52
896.276	-40.79
896.447	-40.79
896.617	-126.8
896.788	-12.12
896.958	-16.21
897.129	-44.88
897.299	-79.7
897.47	55.47
897.64	34.99
897.81	-14.17
897.981	-71.51
898.151	-32.6
898.322	84.14
898.492	4.27
898.662	-155.47
898.832	-87.89
899.003	-59.22
899.173	45.23
899.343	-26.45
899.513	-163.67
