Data from USB4F104151__227__11-06-15-226.txt Node

Date: Wed Feb 26 11:06:15 EST 2025
User: louis
Spectrometer: USB4F10415
Trigger mode: 4
Integration Time (sec): 1.000000E-1
Scans to average: 1
Electric dark correction enabled: true
Nonlinearity correction enabled: false
Boxcar width: 0
XAxis mode: Wavelengths
Number of Pixels in Spectrum: 3648
>>>>>Begin Spectral Data<<<<<
178.204	-376.66
178.424	-376.66
178.644	-376.66
178.864	-403.28
179.084	-399.18
179.304	-3.93
179.524	-141.14
179.744	-24.4
179.964	32.94
180.184	69.8
180.404	57.51
180.624	-1.88
180.844	-32.6
181.064	20.65
181.283	-14.17
181.503	-26.45
181.723	63.66
181.943	-147.28
182.163	184.49
182.383	-10.07
182.602	39.08
182.822	145.58
183.042	51.37
183.262	-3.93
183.482	-3.93
183.701	55.47
183.921	10.41
184.141	-53.08
184.361	65.71
184.58	4.27
184.8	-20.31
185.02	-18.26
185.239	118.95
185.459	104.62
185.679	71.85
185.898	-94.04
186.118	90.28
186.338	30.89
186.557	75.95
186.777	-53.08
186.997	-14.17
187.216	6.31
187.436	159.91
187.655	12.46
187.875	161.96
188.095	53.42
188.314	168.1
188.534	118.95
188.753	0.17
188.973	59.56
189.192	143.53
189.412	-3.93
189.631	53.42
189.851	8.36
190.07	200.87
190.29	-12.12
190.509	18.6
190.729	-8.02
190.948	172.2
191.168	204.97
191.387	94.38
191.607	-3.93
191.826	80.04
192.045	51.37
192.265	-12.12
192.484	92.33
192.704	90.28
192.923	-65.36
193.142	135.34
193.362	147.62
193.581	112.81
193.8	41.13
194.02	127.14
194.239	141.48
194.458	90.28
194.678	53.42
194.897	92.33
195.116	28.84
195.335	34.99
195.555	12.46
195.774	43.18
195.993	57.51
196.212	92.33
196.432	-10.07
196.651	-77.65
196.87	2.22
197.089	252.07
197.308	32.94
197.528	114.86
197.747	-67.41
197.966	51.37
198.185	135.34
198.404	-3.93
198.623	145.58
198.842	145.58
199.062	30.89
199.281	118.95
199.5	69.8
199.719	139.43
199.938	92.33
200.157	61.61
200.376	45.23
200.595	84.14
200.814	28.84
201.033	12.46
201.252	92.33
201.471	45.23
201.69	37.03
201.909	28.84
202.128	45.23
202.347	86.19
202.566	32.94
202.785	-3.93
203.004	-12.12
203.223	319.65
203.442	49.32
203.661	-69.46
203.879	43.18
204.098	182.44
204.317	-44.88
204.536	80.04
204.755	80.04
204.974	139.43
205.193	-24.4
205.411	190.63
205.63	57.51
205.849	57.51
206.068	41.13
206.287	-18.26
206.505	88.23
206.724	73.9
206.943	-1.88
207.162	-5.97
207.381	116.9
207.599	24.75
207.818	61.61
208.037	-12.12
208.255	59.56
208.474	2.22
208.693	12.46
208.911	96.43
209.13	75.95
209.349	69.8
209.567	32.94
209.786	80.04
210.005	104.62
210.223	77.99
210.442	-130.9
210.661	14.51
210.879	102.57
211.098	24.75
211.316	80.04
211.535	65.71
211.753	69.8
211.972	20.65
212.191	32.94
212.409	-12.12
212.628	26.79
212.846	-12.12
213.065	41.13
213.283	71.85
213.502	84.14
213.72	26.79
213.938	32.94
214.157	80.04
214.375	65.71
214.594	16.55
214.812	75.95
215.031	84.14
215.249	108.71
215.467	45.23
215.686	86.19
215.904	51.37
216.122	49.32
216.341	102.57
216.559	30.89
216.778	133.29
216.996	194.73
217.214	67.75
217.432	41.13
217.651	-28.5
217.869	61.61
218.087	69.8
218.306	-1.88
218.524	-36.69
218.742	6.31
218.96	106.67
219.179	-20.31
219.397	-14.17
219.615	243.88
219.833	57.51
220.051	-42.84
220.27	71.85
220.488	39.08
220.706	55.47
220.924	-48.98
221.142	-18.26
221.36	90.28
221.578	-20.31
221.796	51.37
222.015	30.89
222.233	34.99
222.451	123.05
222.669	-28.5
222.887	65.71
223.105	-5.97
223.323	24.75
223.541	-102.23
223.759	10.41
223.977	37.03
224.195	106.67
224.413	176.3
224.631	61.61
224.849	28.84
225.067	116.9
225.285	-67.41
225.503	-3.93
225.721	-122.71
225.939	28.84
226.157	12.46
226.375	184.49
226.592	92.33
226.81	43.18
227.028	157.86
227.246	96.43
227.464	82.09
227.682	129.19
227.9	45.23
228.117	-5.97
228.335	77.99
228.553	4.27
228.771	-16.21
228.989	53.42
229.206	53.42
229.424	34.99
229.642	8.36
229.86	-59.22
230.077	121
230.295	28.84
230.513	133.29
230.731	16.55
230.948	145.58
231.166	139.43
231.384	-14.17
231.601	32.94
231.819	180.39
232.037	67.75
232.254	-28.5
232.472	16.55
232.689	-8.02
232.907	104.62
233.125	-14.17
233.342	-96.08
233.56	-22.36
233.777	30.89
233.995	10.41
234.213	127.14
234.43	80.04
234.648	45.23
234.865	-22.36
235.083	133.29
235.3	26.79
235.518	53.42
235.735	192.68
235.953	80.04
236.17	28.84
236.388	4.27
236.605	8.36
236.822	118.95
237.04	159.91
237.257	82.09
237.475	-51.03
237.692	94.38
237.909	32.94
238.127	-51.03
238.344	98.47
238.562	22.7
238.779	-51.03
238.996	-73.56
239.214	-1.88
239.431	24.75
239.648	-34.64
239.865	43.18
240.083	73.9
240.3	-22.36
240.517	73.9
240.735	51.37
240.952	161.96
241.169	102.57
241.386	20.65
241.603	-53.08
241.821	71.85
242.038	41.13
242.255	114.86
242.472	-26.45
242.689	110.76
242.907	96.43
243.124	-46.93
243.341	-48.98
243.558	10.41
243.775	-24.4
243.992	-34.64
244.209	82.09
244.426	196.78
244.643	98.47
244.86	45.23
245.078	131.24
245.295	86.19
245.512	32.94
245.729	-79.7
245.946	63.66
246.163	16.55
246.38	-10.07
246.597	28.84
246.814	71.85
247.031	43.18
247.248	39.08
247.464	45.23
247.681	77.99
247.898	67.75
248.115	28.84
248.332	-5.97
248.549	100.52
248.766	96.43
248.983	45.23
249.2	43.18
249.417	161.96
249.633	20.65
249.85	102.57
250.067	-28.5
250.284	49.32
250.501	94.38
250.717	94.38
250.934	30.89
251.151	-8.02
251.368	37.03
251.585	26.79
251.801	59.56
252.018	-36.69
252.235	71.85
252.451	-77.65
252.668	63.66
252.885	125.1
253.102	77.99
253.318	2.22
253.535	43.18
253.752	49.32
253.968	-53.08
254.185	-65.36
254.401	168.1
254.618	77.99
254.835	-46.93
255.051	137.38
255.268	61.61
255.484	37.03
255.701	73.9
255.917	20.65
256.134	-3.93
256.351	84.14
256.567	-55.12
256.784	37.03
257	-34.64
257.217	139.43
257.433	34.99
257.65	73.9
257.866	82.09
258.082	-102.23
258.299	-89.94
258.515	28.84
258.732	0.17
258.948	-16.21
259.165	57.51
259.381	-32.6
259.597	75.95
259.814	0.17
260.03	24.75
260.246	28.84
260.463	53.42
260.679	65.71
260.895	69.8
261.112	22.7
261.328	28.84
261.544	-1.88
261.761	121
261.977	45.23
262.193	-38.74
262.409	106.67
262.626	14.51
262.842	32.94
263.058	18.6
263.274	174.25
263.49	45.23
263.707	-1.88
263.923	61.61
264.139	-53.08
264.355	2.22
264.571	108.71
264.787	71.85
265.004	137.38
265.22	110.76
265.436	-32.6
265.652	49.32
265.868	75.95
266.084	-38.74
266.3	8.36
266.516	-28.5
266.732	69.8
266.948	24.75
267.164	6.31
267.38	114.86
267.596	51.37
267.812	159.91
268.028	55.47
268.244	43.18
268.46	51.37
268.676	16.55
268.892	63.66
269.108	-38.74
269.324	-1.88
269.54	20.65
269.756	100.52
269.972	65.71
270.188	30.89
270.403	-38.74
270.619	-14.17
270.835	104.62
271.051	6.31
271.267	-38.74
271.483	-16.21
271.698	71.85
271.914	26.79
272.13	121
272.346	4.27
272.562	80.04
272.777	110.76
272.993	20.65
273.209	24.75
273.425	80.04
273.64	-36.69
273.856	43.18
274.072	2.22
274.287	43.18
274.503	84.14
274.719	75.95
274.934	-30.55
275.15	-118.61
275.366	69.8
275.581	6.31
275.797	-14.17
276.012	-30.55
276.228	-1.88
276.444	-32.6
276.659	157.86
276.875	-22.36
277.09	39.08
277.306	30.89
277.521	100.52
277.737	2.22
277.952	84.14
278.168	-18.26
278.383	14.51
278.599	77.99
278.814	100.52
279.03	53.42
279.245	131.24
279.461	8.36
279.676	53.42
279.892	-65.36
280.107	14.51
280.322	-53.08
280.538	116.9
280.753	8.36
280.969	-8.02
281.184	8.36
281.399	147.62
281.615	14.51
281.83	80.04
282.045	-40.79
282.26	-34.64
282.476	49.32
282.691	157.86
282.906	80.04
283.122	-69.46
283.337	12.46
283.552	86.19
283.767	-42.84
283.983	92.33
284.198	92.33
284.413	24.75
284.628	-81.75
284.843	32.94
285.058	110.76
285.274	-22.36
285.489	-1.88
285.704	37.03
285.919	73.9
286.134	-14.17
286.349	16.55
286.564	0.17
286.779	211.11
286.995	26.79
287.21	-81.75
287.425	110.76
287.64	14.51
287.855	14.51
288.07	-40.79
288.285	67.75
288.5	98.47
288.715	65.71
288.93	14.51
289.145	-57.17
289.36	26.79
289.575	90.28
289.79	155.82
290.004	16.55
290.219	137.38
290.434	43.18
290.649	-5.97
290.864	6.31
291.079	-10.07
291.294	32.94
291.509	-5.97
291.724	-20.31
291.938	-65.36
292.153	71.85
292.368	43.18
292.583	55.47
292.798	-26.45
293.012	43.18
293.227	88.23
293.442	0.17
293.657	55.47
293.871	108.71
294.086	34.99
294.301	168.1
294.516	88.23
294.73	71.85
294.945	2.22
295.16	-8.02
295.374	143.53
295.589	98.47
295.804	-10.07
296.018	18.6
296.233	123.05
296.447	4.27
296.662	-16.21
296.877	127.14
297.091	186.54
297.306	-3.93
297.52	-32.6
297.735	22.7
297.949	51.37
298.164	55.47
298.378	80.04
298.593	-96.08
298.807	-14.17
299.022	-28.5
299.236	170.15
299.451	39.08
299.665	65.71
299.88	14.51
300.094	22.7
300.309	34.99
300.523	32.94
300.737	-42.84
300.952	22.7
301.166	73.9
301.381	45.23
301.595	-5.97
301.809	-8.02
302.024	32.94
302.238	-44.88
302.452	153.77
302.667	90.28
302.881	143.53
303.095	88.23
303.309	-3.93
303.524	-8.02
303.738	4.27
303.952	-20.31
304.166	67.75
304.381	-147.28
304.595	121
304.809	-44.88
305.023	0.17
305.237	30.89
305.452	-14.17
305.666	-10.07
305.88	43.18
306.094	-3.93
306.308	53.42
306.522	82.09
306.736	8.36
306.95	110.76
307.164	45.23
307.379	-18.26
307.593	168.1
307.807	88.23
308.021	174.25
308.235	41.13
308.449	-91.99
308.663	116.9
308.877	219.3
309.091	65.71
309.305	123.05
309.519	-104.28
309.733	80.04
309.947	-81.75
310.161	84.14
310.374	125.1
310.588	121
310.802	-12.12
311.016	-26.45
311.23	106.67
311.444	53.42
311.658	20.65
311.872	161.96
312.085	92.33
312.299	123.05
312.513	139.43
312.727	73.9
312.941	6.31
313.154	45.23
313.368	14.51
313.582	71.85
313.796	59.56
314.009	14.51
314.223	116.9
314.437	59.56
314.651	73.9
314.864	-32.6
315.078	12.46
315.292	6.31
315.505	32.94
315.719	90.28
315.933	-1.88
316.146	-48.98
316.36	-71.51
316.573	178.34
316.787	59.56
317.001	71.85
317.214	-44.88
317.428	63.66
317.641	-26.45
317.855	2.22
318.068	18.6
318.282	61.61
318.495	176.3
318.709	67.75
318.922	-24.4
319.136	104.62
319.349	106.67
319.563	41.13
319.776	26.79
319.99	14.51
320.203	90.28
320.417	26.79
320.63	71.85
320.843	90.28
321.057	90.28
321.27	8.36
321.483	123.05
321.697	147.62
321.91	47.27
322.124	75.95
322.337	14.51
322.55	28.84
322.763	53.42
322.977	45.23
323.19	-14.17
323.403	61.61
323.617	67.75
323.83	104.62
324.043	-118.61
324.256	135.34
324.469	-69.46
324.683	141.48
324.896	73.9
325.109	-12.12
325.322	-69.46
325.535	153.77
325.748	84.14
325.962	51.37
326.175	47.27
326.388	94.38
326.601	102.57
326.814	4.27
327.027	51.37
327.24	198.82
327.453	-89.94
327.666	135.34
327.879	125.1
328.092	53.42
328.305	41.13
328.518	28.84
328.731	10.41
328.944	20.65
329.157	71.85
329.37	8.36
329.583	125.1
329.796	196.78
330.009	-46.93
330.222	20.65
330.435	67.75
330.648	88.23
330.861	71.85
331.073	69.8
331.286	24.75
331.499	118.95
331.712	59.56
331.925	-32.6
332.138	-5.97
332.35	123.05
332.563	-22.36
332.776	135.34
332.989	8.36
333.202	-5.97
333.414	0.17
333.627	24.75
333.84	51.37
334.053	77.99
334.265	2.22
334.478	34.99
334.691	28.84
334.903	53.42
335.116	24.75
335.329	100.52
335.541	30.89
335.754	182.44
335.966	86.19
336.179	20.65
336.392	-51.03
336.604	34.99
336.817	51.37
337.029	24.75
337.242	98.47
337.454	92.33
337.667	106.67
337.88	133.29
338.092	98.47
338.305	71.85
338.517	22.7
338.729	65.71
338.942	133.29
339.154	-53.08
339.367	-77.65
339.579	34.99
339.792	24.75
340.004	121
340.217	4.27
340.429	30.89
340.641	-46.93
340.854	-46.93
341.066	8.36
341.278	92.33
341.491	155.82
341.703	71.85
341.915	-32.6
342.128	57.51
342.34	20.65
342.552	-42.84
342.764	-24.4
342.977	6.31
343.189	77.99
343.401	80.04
343.613	-69.46
343.826	37.03
344.038	32.94
344.25	106.67
344.462	-126.8
344.674	82.09
344.886	30.89
345.099	135.34
345.311	32.94
345.523	-12.12
345.735	-81.75
345.947	22.7
346.159	22.7
346.371	39.08
346.583	6.31
346.795	133.29
347.007	-3.93
347.219	90.28
347.431	80.04
347.643	57.51
347.855	-40.79
348.067	116.9
348.279	-42.84
348.491	59.56
348.703	82.09
348.915	47.27
349.127	-61.27
349.339	98.47
349.551	-67.41
349.763	133.29
349.975	18.6
350.187	69.8
350.399	147.62
350.61	118.95
350.822	0.17
351.034	57.51
351.246	108.71
351.458	61.61
351.669	4.27
351.881	39.08
352.093	133.29
352.305	166.06
352.517	71.85
352.728	92.33
352.94	73.9
353.152	116.9
353.363	22.7
353.575	149.67
353.787	143.53
353.999	82.09
354.21	133.29
354.422	-30.55
354.633	39.08
354.845	135.34
355.057	94.38
355.268	73.9
355.48	121
355.692	-73.56
355.903	34.99
356.115	-16.21
356.326	-124.76
356.538	57.51
356.749	77.99
356.961	94.38
357.172	26.79
357.384	20.65
357.595	204.97
357.807	-24.4
358.018	22.7
358.23	59.56
358.441	77.99
358.653	43.18
358.864	34.99
359.075	34.99
359.287	8.36
359.498	116.9
359.709	63.66
359.921	61.61
360.132	63.66
360.344	63.66
360.555	-18.26
360.766	71.85
360.977	75.95
361.189	106.67
361.4	12.46
361.611	188.58
361.823	161.96
362.034	-40.79
362.245	-32.6
362.456	47.27
362.667	57.51
362.879	-71.51
363.09	63.66
363.301	26.79
363.512	73.9
363.723	16.55
363.935	2.22
364.146	59.56
364.357	-14.17
364.568	77.99
364.779	-130.9
364.99	96.43
365.201	30.89
365.412	80.04
365.623	-75.6
365.834	32.94
366.045	57.51
366.256	108.71
366.467	6.31
366.678	22.7
366.889	108.71
367.1	39.08
367.311	86.19
367.522	6.31
367.733	80.04
367.944	2.22
368.155	20.65
368.366	90.28
368.577	137.38
368.788	118.95
368.999	0.17
369.209	4.27
369.42	164.01
369.631	223.4
369.842	84.14
370.053	18.6
370.264	69.8
370.474	-96.08
370.685	73.9
370.896	41.13
371.107	135.34
371.317	-51.03
371.528	45.23
371.739	63.66
371.95	61.61
372.16	86.19
372.371	-8.02
372.582	47.27
372.792	32.94
373.003	98.47
373.214	30.89
373.424	41.13
373.635	-34.64
373.846	129.19
374.056	94.38
374.267	49.32
374.477	69.8
374.688	26.79
374.898	20.65
375.109	45.23
375.319	-5.97
375.53	127.14
375.74	145.58
375.951	67.75
376.161	39.08
376.372	43.18
376.582	-32.6
376.793	73.9
377.003	-57.17
377.214	-34.64
377.424	57.51
377.635	16.55
377.845	-20.31
378.055	161.96
378.266	-44.88
378.476	65.71
378.686	116.9
378.897	153.77
379.107	63.66
379.317	57.51
379.528	12.46
379.738	39.08
379.948	-79.7
380.158	135.34
380.369	59.56
380.579	114.86
380.789	26.79
380.999	102.57
381.21	53.42
381.42	164.01
381.63	37.03
381.84	110.76
382.05	41.13
382.261	71.85
382.471	166.06
382.681	4.27
382.891	180.39
383.101	34.99
383.311	-32.6
383.521	6.31
383.731	94.38
383.941	65.71
384.151	108.71
384.361	80.04
384.571	57.51
384.781	110.76
384.991	143.53
385.201	233.64
385.411	82.09
385.621	28.84
385.831	55.47
386.041	28.84
386.251	-5.97
386.461	80.04
386.671	-24.4
386.881	127.14
387.091	-8.02
387.301	90.28
387.511	8.36
387.72	125.1
387.93	34.99
388.14	-10.07
388.35	116.9
388.56	71.85
388.769	102.57
388.979	53.42
389.189	10.41
389.399	-12.12
389.609	92.33
389.818	65.71
390.028	121
390.238	71.85
390.447	-3.93
390.657	116.9
390.867	65.71
391.076	-108.37
391.286	65.71
391.496	-20.31
391.705	34.99
391.915	139.43
392.125	110.76
392.334	100.52
392.544	139.43
392.753	108.71
392.963	18.6
393.172	96.43
393.382	37.03
393.591	84.14
393.801	65.71
394.01	127.14
394.22	51.37
394.429	110.76
394.639	61.61
394.848	30.89
395.058	112.81
395.267	63.66
395.477	127.14
395.686	45.23
395.895	209.06
396.105	157.86
396.314	53.42
396.524	28.84
396.733	127.14
396.942	90.28
397.152	71.85
397.361	43.18
397.57	49.32
397.78	39.08
397.989	102.57
398.198	204.97
398.407	20.65
398.617	59.56
398.826	59.56
399.035	55.47
399.244	161.96
399.453	16.55
399.663	94.38
399.872	84.14
400.081	51.37
400.29	125.1
400.499	28.84
400.708	149.67
400.917	-20.31
401.127	-61.27
401.336	-20.31
401.545	161.96
401.754	184.49
401.963	131.24
402.172	24.75
402.381	-26.45
402.59	8.36
402.799	61.61
403.008	82.09
403.217	34.99
403.426	28.84
403.635	-57.17
403.844	-18.26
404.053	30.89
404.262	28.84
404.471	186.54
404.68	90.28
404.888	67.75
405.097	43.18
405.306	51.37
405.515	82.09
405.724	18.6
405.933	114.86
406.142	102.57
406.35	127.14
406.559	73.9
406.768	73.9
406.977	223.4
407.185	112.81
407.394	129.19
407.603	-18.26
407.812	14.51
408.02	112.81
408.229	10.41
408.438	94.38
408.646	20.65
408.855	96.43
409.064	94.38
409.272	8.36
409.481	98.47
409.69	-32.6
409.898	-26.45
410.107	4.27
410.315	84.14
410.524	51.37
410.733	-12.12
410.941	10.41
411.15	92.33
411.358	32.94
411.567	186.54
411.775	88.23
411.984	61.61
412.192	102.57
412.401	-20.31
412.609	204.97
412.818	96.43
413.026	102.57
413.234	34.99
413.443	-10.07
413.651	-8.02
413.86	-16.21
414.068	178.34
414.276	159.91
414.485	18.6
414.693	153.77
414.901	331.94
415.11	20.65
415.318	131.24
415.526	0.17
415.734	86.19
415.943	47.27
416.151	139.43
416.359	-26.45
416.567	133.29
416.776	43.18
416.984	53.42
417.192	159.91
417.4	22.7
417.608	110.76
417.817	-14.17
418.025	88.23
418.233	280.74
418.441	8.36
418.649	-10.07
418.857	82.09
419.065	178.34
419.273	30.89
419.481	22.7
419.689	41.13
419.897	14.51
420.105	61.61
420.313	90.28
420.521	170.15
420.729	166.06
420.937	4.27
421.145	12.46
421.353	90.28
421.561	51.37
421.769	43.18
421.977	51.37
422.185	133.29
422.393	26.79
422.601	88.23
422.809	22.7
423.017	139.43
423.224	63.66
423.432	125.1
423.64	16.55
423.848	182.44
424.056	0.17
424.263	139.43
424.471	32.94
424.679	196.78
424.887	-44.88
425.094	137.38
425.302	96.43
425.51	32.94
425.718	49.32
425.925	86.19
426.133	71.85
426.341	139.43
426.548	49.32
426.756	61.61
426.964	102.57
427.171	24.75
427.379	77.99
427.586	104.62
427.794	90.28
428.001	164.01
428.209	145.58
428.417	258.21
428.624	184.49
428.832	102.57
429.039	96.43
429.247	73.9
429.454	69.8
429.662	198.82
429.869	131.24
430.076	159.91
430.284	215.21
430.491	278.69
430.699	157.86
430.906	178.34
431.114	96.43
431.321	237.74
431.528	65.71
431.736	196.78
431.943	194.73
432.15	149.67
432.358	196.78
432.565	198.82
432.772	53.42
432.979	153.77
433.187	110.76
433.394	252.07
433.601	123.05
433.808	221.35
434.016	284.84
434.223	184.49
434.43	153.77
434.637	243.88
434.844	245.93
435.052	223.4
435.259	264.36
435.466	243.88
435.673	268.45
435.88	245.93
436.087	309.41
436.294	438.44
436.501	237.74
436.708	256.17
436.915	317.61
437.122	325.8
437.329	270.5
437.537	295.08
437.743	383.14
437.95	362.66
438.157	362.66
438.364	362.66
438.571	340.13
438.778	401.57
438.985	510.11
439.192	499.88
439.399	381.09
439.606	497.83
439.813	495.78
440.02	559.27
440.227	628.9
440.433	557.22
440.64	520.35
440.847	503.97
441.054	551.07
441.261	700.58
441.467	534.69
441.674	690.34
441.881	745.63
442.088	639.14
442.294	778.4
442.501	684.19
442.708	786.59
442.914	798.88
443.121	1001.63
443.328	780.45
443.534	942.24
443.741	807.07
443.948	819.36
444.154	954.52
444.361	1183.9
444.568	1032.35
444.774	1024.16
444.981	964.76
445.187	1278.1
445.394	1106.07
445.6	1079.45
445.807	1284.25
446.013	1276.06
446.22	1276.06
446.426	1388.69
446.633	1423.51
446.839	1669.27
447.046	1513.62
447.252	1613.97
447.459	1624.21
447.665	1613.97
447.871	1800.34
448.078	2050.19
448.284	1878.16
448.491	1831.05
448.697	2144.39
448.903	2232.46
449.11	2326.66
449.316	2205.83
449.522	2334.86
449.728	2384.01
449.935	2453.64
450.141	2556.04
450.347	2910.33
450.553	2699.39
450.76	2666.63
450.966	2934.91
451.172	2984.06
451.378	3000.44
451.584	3135.61
451.791	3477.62
451.997	3391.61
452.203	3580.02
452.409	3795.06
452.615	3981.42
452.821	3917.93
453.027	3756.15
453.233	4302.95
453.44	4147.31
453.646	4434.02
453.852	4675.68
454.058	4784.23
454.264	4923.49
454.47	5367.9
454.676	5206.11
454.882	5779.54
455.088	5527.64
455.294	5789.78
455.5	6156.36
455.705	6326.35
455.911	6459.46
456.117	6733.89
456.323	6918.21
456.529	6955.07
456.735	7630.9
456.941	7991.34
457.147	7964.72
457.352	8304.68
457.558	8527.91
457.764	9091.1
457.97	9345.05
458.176	9637.91
458.381	10145.81
458.587	10461.2
458.793	10858.5
458.999	10872.84
459.204	12232.69
459.41	12763.11
459.616	12566.51
459.821	13176.8
460.027	13973.46
460.233	14417.87
460.438	14405.58
460.644	15310.79
460.85	15349.7
461.055	15810.49
461.261	16967.59
461.466	16361.39
461.672	16568.24
461.878	18700.17
462.083	18653.07
462.289	18839.44
462.494	19644.29
462.7	19935.1
462.905	20152.18
463.111	21679.97
463.316	22703.95
463.522	22978.38
463.727	24102.71
463.932	24799.02
464.138	25954.08
464.343	26861.33
464.549	26758.93
464.754	28657.4
464.959	29187.82
465.165	30043.87
465.37	30404.31
465.575	29728.49
465.781	31688.39
465.986	32892.6
466.191	32116.42
466.397	32812.73
466.602	32286.4
466.807	33642.15
467.012	34516.64
467.218	34940.57
467.423	35020.44
467.628	35808.9
467.833	37887.59
468.038	37045.88
468.244	36677.24
468.449	38348.39
468.654	37801.58
468.859	37615.21
469.064	37535.34
469.269	36759.16
469.474	37148.28
469.679	38270.56
469.885	37076.6
470.09	37748.33
470.295	37693.04
470.5	36554.36
470.705	37326.45
470.91	36447.87
471.115	36009.61
471.32	36447.87
471.525	36025.99
471.73	35407.5
471.935	35182.23
472.139	33509.04
472.344	33609.39
472.549	33611.43
472.754	32726.71
472.959	32165.57
473.164	30975.7
473.369	30697.17
473.574	31891.14
473.778	30955.22
473.983	30267.1
474.188	29785.83
474.393	28466.94
474.598	28339.96
474.802	27604.74
475.007	27414.28
475.212	27062.03
475.417	26060.57
475.621	25753.38
475.826	25538.34
476.031	24907.57
476.235	24360.76
476.44	24426.29
476.645	23695.17
476.849	23789.38
477.054	23174.99
477.259	22495.06
477.463	22656.85
477.668	21950.3
477.872	21835.61
478.077	21366.63
478.282	20780.91
478.486	20467.57
478.691	20434.8
478.895	20100.98
479.1	20017.02
479.304	19918.71
479.509	18884.49
479.713	19386.24
479.918	19003.27
480.122	18677.65
480.326	18696.08
480.531	18696.08
480.735	18309.01
480.94	18403.22
481.144	18751.37
481.348	17887.13
481.553	18038.68
481.757	17295.27
481.961	17805.21
482.166	17631.13
482.37	17393.57
482.574	17141.67
482.778	17225.64
482.983	17409.95
483.187	16627.63
483.391	16852.91
483.595	16482.22
483.8	16261.04
484.004	16379.82
484.208	16381.87
484.412	16058.29
484.616	15845.3
484.821	15896.5
485.025	15396.8
485.229	15704
485.433	15155.14
485.637	14907.34
485.841	14827.46
486.045	14428.11
486.249	14438.35
486.453	14149.59
486.657	13967.32
486.861	13905.88
487.065	13324.26
487.269	13481.95
487.473	12978.15
487.677	13180.9
487.881	12912.61
488.085	12658.67
488.289	12716.01
488.493	12019.7
488.697	12134.39
488.901	11968.5
489.105	11458.56
489.309	11438.08
489.512	11296.77
489.716	11098.11
489.92	10709
490.124	10592.27
490.328	10635.27
490.531	10496.01
490.735	10197.01
490.939	9934.87
491.143	9662.49
491.346	9500.7
491.55	9488.41
491.754	9312.28
491.958	9273.37
492.161	9035.81
492.365	8714.28
492.569	8620.07
492.772	8529.96
492.976	8544.3
493.18	8413.23
493.383	8347.69
493.587	8183.85
493.79	8337.45
493.994	7784.5
494.197	7856.18
494.401	7809.08
494.605	7589.94
494.808	7821.36
495.012	7680.05
495.215	7618.61
495.419	7602.23
495.622	7295.04
495.825	7364.67
496.029	7383.1
496.232	7548.98
496.436	7116.86
496.639	7485.5
496.843	7282.75
497.046	7209.02
497.249	7532.6
497.453	7166.01
497.656	7247.93
497.859	7241.79
498.063	7137.34
498.266	7391.29
498.469	7209.02
498.673	7153.73
498.876	7290.94
499.079	7446.59
499.282	7344.19
499.485	7669.81
499.689	7446.59
499.892	7348.28
500.095	7512.12
500.298	7835.7
500.501	7456.82
500.705	7680.05
500.908	7764.02
501.111	7872.56
501.314	8038.45
501.517	8052.78
501.72	7999.54
501.923	8028.21
502.126	8257.58
502.329	8312.88
502.532	8591.4
502.735	8491.05
502.938	8728.61
503.141	8650.79
503.344	8810.53
503.547	9082.91
503.75	8845.35
503.953	9127.97
504.156	9281.57
504.359	9416.73
504.562	9472.03
504.765	9623.58
504.968	9744.41
505.17	10037.27
505.373	10055.7
505.576	10336.27
505.779	10387.47
505.982	10477.58
506.185	10729.48
506.387	10807.3
506.59	11059.2
506.793	11362.3
506.996	11608.06
507.198	11870.2
507.401	12001.27
507.604	12195.82
507.807	12369.9
508.009	12773.35
508.212	13248.48
508.415	13203.43
508.617	13608.92
508.82	13578.2
509.022	13780.95
509.225	14264.27
509.428	14757.83
509.63	14821.32
509.833	14987.21
510.035	15656.89
510.238	15820.73
510.44	15884.22
510.643	16644.01
510.845	16846.76
511.048	17106.85
511.25	17606.56
511.453	17856.41
511.655	18839.44
511.858	18861.96
512.06	19138.44
512.262	19429.25
512.465	19623.81
512.667	20514.67
512.87	20950.89
513.072	21350.24
513.274	22079.32
513.477	22271.83
513.679	22777.68
513.881	23217.99
514.084	23912.25
514.286	24381.24
514.488	24444.73
514.69	25442.09
514.893	25966.37
515.095	26408.73
515.297	27080.46
515.499	27516.68
515.701	28227.32
515.904	28888.82
516.106	29454.06
516.308	29941.47
516.51	30871.25
516.712	31336.14
516.914	31753.93
517.116	32636.6
517.318	33066.67
517.52	33584.81
517.722	33830.57
517.925	34768.54
518.127	35600.01
518.329	36210.31
518.531	36214.4
518.733	37535.34
518.935	37703.28
519.136	37811.82
519.338	38981.21
519.54	39663.18
519.742	40310.34
519.944	40449.6
520.146	41645.62
520.348	42032.68
520.55	42247.72
520.752	42845.72
520.954	44187.14
521.155	43767.31
521.357	44422.66
521.559	44899.84
521.761	45854.19
521.963	45680.11
522.164	46441.96
522.366	46788.06
522.568	47463.89
522.77	47392.22
522.971	48385.48
523.173	47904.21
523.375	48567.75
523.576	48559.56
523.778	48627.14
523.98	49501.62
524.181	49503.67
524.383	49577.4
524.584	50322.86
524.786	49587.64
524.988	49769.91
525.189	50496.94
525.391	50247.08
525.592	50058.67
525.794	50142.64
525.995	50369.96
526.197	49845.68
526.398	50587.05
526.6	50206.12
526.801	50302.38
527.003	49661.36
527.204	49583.54
527.406	50148.78
527.607	49337.79
527.808	49724.85
528.01	48442.82
528.211	48602.57
528.412	49034.69
528.614	48451.02
528.815	48033.23
529.016	48152.01
529.218	46626.28
529.419	47293.91
529.62	46384.61
529.822	45868.53
530.023	45954.54
530.224	45409.78
530.425	45401.59
530.626	44170.76
530.828	43734.54
531.029	43984.4
531.23	42923.55
531.431	42808.86
531.632	42118.7
531.833	41967.15
532.035	41190.97
532.236	40742.46
532.437	40592.96
532.638	40035.91
532.839	39245.4
533.04	39265.88
533.241	38258.27
533.442	38258.27
533.643	37754.47
533.844	37111.41
534.045	36476.54
534.246	35669.64
534.447	35526.28
534.648	35188.37
534.849	34553.5
535.05	34178.72
535.251	33965.73
535.451	32769.72
535.652	32902.84
535.853	32612.03
536.054	32061.12
536.255	31663.82
536.456	30713.56
536.657	30930.64
536.857	30142.17
537.058	29714.15
537.259	29652.71
537.46	29058.8
537.66	28733.17
537.861	28536.57
538.062	28301.05
538.263	27766.53
538.463	27154.19
538.664	26898.19
538.865	26642.2
539.065	26668.82
539.266	25966.37
539.466	25861.92
539.667	25052.97
539.868	25292.58
540.068	24633.14
540.269	24330.04
540.469	23998.27
540.67	23615.3
540.87	23547.72
541.071	23304.01
541.271	23054.15
541.472	23058.25
541.672	22501.2
541.873	22120.28
542.073	21538.66
542.274	21788.51
542.474	21483.36
542.675	21110.63
542.875	21028.71
543.075	20615.02
543.276	20418.42
543.476	20320.12
543.676	20041.59
543.877	19840.89
544.077	19668.86
544.277	19918.71
544.478	19257.22
544.678	19060.62
544.878	18968.46
545.078	18741.13
545.279	18251.67
545.479	18239.38
545.679	18071.45
545.879	17858.46
546.079	17579.93
546.28	17328.03
546.48	17438.62
546.68	17067.94
546.88	16732.08
547.08	16601.01
547.28	16439.22
547.48	16318.39
547.68	16512.94
547.88	15880.12
548.081	15728.57
548.281	15509.44
548.481	15099.84
548.681	15237.06
548.881	14761.93
549.081	14671.82
549.28	14501.84
549.48	14444.49
549.68	13873.11
549.88	14313.42
550.08	13518.81
550.28	13666.27
550.48	13316.06
550.68	13369.31
550.88	13017.06
551.08	13068.26
551.279	12642.28
551.479	12265.46
551.679	12478.44
551.879	12087.28
552.079	12068.85
552.278	11921.4
552.478	11862.01
552.678	11509.76
552.878	11393.02
553.077	11065.35
553.277	10954.76
553.477	10659.85
553.676	10670.09
553.876	10504.2
554.076	10301.45
554.275	10076.18
554.475	10002.45
554.674	10027.03
554.874	9609.24
555.074	9568.28
555.273	9412.64
555.473	9265.18
555.672	9021.47
555.872	9039.9
556.071	8857.64
556.271	8767.52
556.47	8706.09
556.67	8296.49
556.869	8245.29
557.068	8276.01
557.268	7856.18
557.467	7899.19
557.667	7882.8
557.866	7587.89
558.065	7360.57
558.265	7188.54
558.464	7123.01
558.663	7166.01
558.863	6760.52
559.062	7090.24
559.261	6748.23
559.461	7022.66
559.66	6703.17
559.859	6512.71
560.058	6215.76
560.258	6135.89
560.457	5974.1
560.656	6099.02
560.855	5890.13
561.054	5939.28
561.253	5744.72
561.453	5632.08
561.652	5795.92
561.851	5742.68
562.05	5271.64
562.249	5285.98
562.448	5288.03
562.647	5097.56
562.846	5136.48
563.045	5105.76
563.244	4993.12
563.443	4933.73
563.642	4972.64
563.841	4794.47
564.04	4728.93
564.239	4718.69
564.438	4565.09
564.637	4292.71
564.836	4376.68
565.035	4204.65
565.234	4327.53
565.432	4309.1
565.631	4229.23
565.83	4200.55
566.029	4067.44
566.228	4073.58
566.427	3950.7
566.625	3784.82
566.824	3809.39
567.023	3840.11
567.222	3747.95
567.42	3633.27
567.619	3612.79
567.818	3643.51
568.016	3823.73
568.215	3373.18
568.414	3598.45
568.612	3293.3
568.811	3354.74
569.01	3346.55
569.208	3238.01
569.407	3252.35
569.605	3272.82
569.804	3020.92
570.002	2984.06
570.201	3016.83
570.4	3053.69
570.598	2994.3
570.797	2945.15
570.995	2824.32
571.193	2777.22
571.392	2816.13
571.59	2629.76
571.789	2785.41
571.987	2597
572.186	2773.12
572.384	2607.23
572.582	2558.08
572.781	2553.99
572.979	2384.01
573.177	2365.57
573.376	2361.48
573.574	2345.09
573.772	2232.46
573.971	2273.42
574.169	2171.02
574.367	2236.55
574.565	2154.63
574.763	2222.22
574.962	2066.57
575.16	2089.1
575.358	2035.85
575.556	1958.03
575.754	1974.41
575.952	1929.36
576.151	1949.84
576.349	2019.47
576.547	1704.08
576.745	1841.29
576.943	1851.53
577.141	1699.98
577.339	1761.42
577.537	1697.94
577.735	1790.1
577.933	1767.57
578.131	1505.43
578.329	1591.44
578.527	1550.48
578.725	1603.73
578.923	1347.73
579.121	1581.2
579.319	1382.55
579.516	1484.95
579.714	1605.78
579.912	1413.27
580.11	1370.26
580.308	1327.25
580.506	1271.96
580.704	1235.1
580.901	1329.3
581.099	1521.81
581.297	1335.45
581.495	1353.88
581.692	1233.05
581.89	1335.45
582.088	1179.8
582.285	1179.8
582.483	1151.13
582.681	1153.18
582.878	1185.94
583.076	1222.81
583.274	1036.44
583.471	1220.76
583.669	1089.69
583.866	1028.25
584.064	1026.2
584.262	1011.87
584.459	913.56
584.657	927.9
584.854	985.24
585.052	936.09
585.249	1009.82
585.447	968.86
585.644	811.17
585.841	968.86
586.039	932
586.236	903.32
586.434	792.73
586.631	866.46
586.828	800.93
587.026	829.6
587.223	684.19
587.42	805.02
587.618	784.54
587.815	940.19
588.012	778.4
588.21	721.06
588.407	860.32
588.604	813.21
588.801	630.95
588.999	731.3
589.196	825.5
589.393	733.34
589.59	778.4
589.787	737.44
589.984	696.48
590.182	737.44
590.379	678.05
590.576	739.49
590.773	663.71
590.97	610.47
591.167	821.41
591.364	725.15
591.561	651.42
591.758	825.5
591.955	665.76
592.152	628.9
592.349	676
592.546	587.94
592.743	630.95
592.94	692.38
593.137	776.35
593.334	712.86
593.531	745.63
593.727	757.92
593.924	663.71
594.121	684.19
594.318	618.66
594.515	727.2
594.712	794.78
594.908	829.6
595.105	651.42
595.302	796.83
595.499	700.58
595.696	868.51
595.892	739.49
596.089	858.27
596.286	686.24
596.482	786.59
596.679	872.61
596.876	815.26
597.072	762.02
597.269	823.45
597.466	874.65
597.662	942.24
597.859	864.41
598.055	895.13
598.252	995.48
598.448	1038.49
598.645	1116.31
598.841	1108.12
599.038	1153.18
599.234	1280.15
599.431	1355.93
599.627	1226.9
599.824	1335.45
600.02	1464.47
600.217	1298.58
600.413	1480.85
600.609	1347.73
600.806	1761.42
601.002	1777.81
601.198	1685.65
601.395	1814.67
601.591	1763.47
601.787	1917.07
601.984	2005.13
602.18	1968.27
602.376	2019.47
602.572	2232.46
602.769	2377.86
602.965	2345.09
603.161	2492.55
603.357	2601.09
603.553	2580.61
603.75	2572.42
603.946	2611.33
604.142	2777.22
604.338	3068.03
604.534	2869.37
604.73	3156.09
604.926	3184.76
605.122	3440.76
605.318	3334.26
605.514	3473.53
605.71	3676.27
605.906	3831.92
606.102	3715.19
606.298	4042.86
606.494	4124.78
606.69	4245.61
606.886	4247.66
607.082	4288.62
607.278	4655.2
607.474	4565.09
607.67	4812.9
607.866	4812.9
608.062	5152.86
608.257	5167.2
608.453	5249.11
608.649	5591.13
608.845	5496.92
609.041	5849.17
609.236	5902.42
609.432	5970
609.628	6158.41
609.824	6451.27
610.019	6608.97
610.215	6635.59
610.411	7049.28
610.606	7073.85
610.802	7303.23
610.998	7565.37
611.193	7651.38
611.389	7704.63
611.584	8063.02
611.78	8218.67
611.976	8343.6
612.171	8611.88
612.367	9091.1
612.562	8990.75
612.758	9156.64
612.953	9340.96
613.149	9953.3
613.344	9947.15
613.539	10199.06
613.735	10782.73
613.93	10932.23
614.126	11032.58
614.321	11528.19
614.517	11911.16
614.712	11982.84
614.907	12242.93
615.103	12765.16
615.298	12875.75
615.493	13189.09
615.688	13737.95
615.884	14122.96
616.079	14196.69
616.274	14761.93
616.47	14966.73
616.665	15359.94
616.86	15677.37
617.055	16074.68
617.25	16453.55
617.445	17215.4
617.641	17328.03
617.836	18100.12
618.031	18186.13
618.226	18835.34
618.421	19275.65
618.616	19888
618.811	19808.12
619.006	20635.5
619.201	20819.82
619.396	21258.09
619.591	21413.73
619.786	22583.12
619.981	22253.4
620.176	23551.81
620.371	23301.96
620.566	24327.99
620.761	24577.84
620.956	25204.52
621.151	25382.7
621.346	26447.64
621.541	26490.65
621.735	27252.49
621.93	27191.05
622.125	28212.99
622.32	28200.7
622.515	28804.85
622.709	29376.23
622.904	30140.13
623.099	30570.2
623.294	31342.28
623.488	31391.44
623.683	32224.96
623.878	32487.1
624.072	33255.09
624.267	33506.99
624.462	34043.56
624.656	34004.64
624.851	35171.99
625.046	35653.26
625.24	36318.85
625.435	36648.57
625.629	36908.66
625.824	37537.39
626.018	38100.58
626.213	37762.67
626.407	38979.16
626.602	38710.88
626.796	39728.72
626.991	39919.18
627.185	39939.66
627.38	40359.49
627.574	40613.44
627.768	40236.61
627.963	40992.31
628.157	40535.62
628.352	41197.11
628.546	40496.7
628.74	41438.77
628.935	40791.61
629.129	41434.67
629.323	40287.81
629.517	40451.65
629.712	40347.2
629.906	40318.53
630.1	39190.1
630.294	39452.24
630.489	38852.19
630.683	38733.4
630.877	37590.64
631.071	36599.42
631.265	36243.07
631.459	35557
631.653	34813.59
631.848	34090.66
632.042	33263.28
632.236	32845.49
632.43	31727.3
632.624	31209.17
632.818	29951.71
633.012	28997.36
633.206	27950.85
633.4	27612.93
633.594	26070.81
633.788	25601.83
633.982	24643.38
634.176	23527.24
634.369	22644.56
634.563	21968.73
634.757	20709.23
634.951	20117.37
635.145	19556.22
635.339	18810.76
635.533	18122.65
635.726	17452.96
635.92	16359.35
636.114	15890.36
636.308	15165.38
636.501	14565.32
636.695	14374.86
636.889	13367.26
637.083	12838.89
637.276	12359.66
637.47	11890.68
637.664	11307.01
637.857	10774.53
638.051	10465.29
638.244	10053.65
638.438	9711.64
638.632	9390.11
638.825	8978.47
639.019	8581.16
639.212	8142.89
639.406	8097.84
639.599	7499.83
639.793	7327.8
639.986	7084.09
640.18	6879.3
640.373	6355.02
640.567	6355.02
640.76	5912.66
640.954	5869.65
641.147	5460.06
641.34	5267.55
641.534	5130.33
641.727	5072.99
641.92	4728.93
642.114	4698.21
642.307	4460.65
642.5	4321.38
642.694	3956.85
642.887	3811.44
643.08	3954.8
643.273	3682.42
643.467	3659.89
643.66	3207.29
643.853	3227.77
644.046	3168.38
644.239	2936.96
644.432	2762.88
644.626	2578.56
644.819	2652.29
645.012	2455.69
645.205	2564.23
645.398	2474.12
645.591	2285.7
645.784	2158.73
645.977	1968.27
646.17	2111.63
646.363	1863.82
646.556	1847.44
646.749	1656.98
646.942	1695.89
647.135	1792.14
647.328	1548.44
647.521	1626.26
647.714	1425.56
647.907	1470.61
648.099	1349.78
648.292	1329.3
648.485	1366.17
648.678	1163.42
648.871	1241.24
649.064	1028.25
649.256	1067.16
649.449	1040.54
649.642	950.43
649.835	927.9
650.027	802.97
650.22	962.72
650.413	893.09
650.605	938.14
650.798	872.61
650.991	848.03
651.183	782.49
651.376	823.45
651.568	759.97
651.761	688.29
651.954	698.53
652.146	641.18
652.339	768.16
652.531	620.71
652.724	563.36
652.916	589.99
653.109	395.43
653.301	624.8
653.494	577.7
653.686	542.88
653.879	651.42
654.071	546.98
654.263	417.96
654.456	354.47
654.648	549.03
654.84	532.64
655.033	424.1
655.225	440.48
655.417	364.71
655.61	534.69
655.802	499.88
655.994	501.92
656.186	342.18
656.379	354.47
656.571	350.37
656.763	293.03
656.955	346.28
657.148	315.56
657.34	368.81
657.532	260.26
657.724	315.56
657.916	297.13
658.108	415.91
658.3	272.55
658.492	338.09
658.684	280.74
658.876	272.55
659.068	149.67
659.26	176.3
659.452	159.91
659.644	245.93
659.836	331.94
660.028	174.25
660.22	166.06
660.412	213.16
660.604	192.68
660.796	297.13
660.988	274.6
661.18	202.92
661.372	268.45
661.563	145.58
661.755	80.04
661.947	166.06
662.139	133.29
662.331	202.92
662.522	196.78
662.714	104.62
662.906	123.05
663.097	123.05
663.289	82.09
663.481	61.61
663.673	211.11
663.864	127.14
664.056	198.82
664.247	121
664.439	254.12
664.631	192.68
664.822	268.45
665.014	178.34
665.205	176.3
665.397	96.43
665.588	133.29
665.78	125.1
665.971	217.26
666.163	194.73
666.354	192.68
666.546	86.19
666.737	133.29
666.929	80.04
667.12	123.05
667.311	170.15
667.503	137.38
667.694	155.82
667.885	137.38
668.077	172.2
668.268	47.27
668.459	108.71
668.651	131.24
668.842	164.01
669.033	45.23
669.224	43.18
669.416	340.13
669.607	8.36
669.798	110.76
669.989	221.35
670.18	39.08
670.371	157.86
670.563	53.42
670.754	211.11
670.945	118.95
671.136	211.11
671.327	51.37
671.518	186.54
671.709	305.32
671.9	123.05
672.091	221.35
672.282	125.1
672.473	168.1
672.664	22.7
672.855	77.99
673.046	153.77
673.237	217.26
673.428	90.28
673.619	166.06
673.809	104.62
674	225.45
674.191	182.44
674.382	110.76
674.573	125.1
674.764	159.91
674.954	149.67
675.145	59.56
675.336	116.9
675.527	116.9
675.717	77.99
675.908	133.29
676.099	127.14
676.289	127.14
676.48	32.94
676.671	164.01
676.861	96.43
677.052	114.86
677.243	86.19
677.433	34.99
677.624	166.06
677.814	127.14
678.005	55.47
678.195	198.82
678.386	-12.12
678.576	100.52
678.767	75.95
678.957	151.72
679.148	176.3
679.338	286.89
679.529	174.25
679.719	155.82
679.909	190.63
680.1	241.83
680.29	174.25
680.481	57.51
680.671	317.61
680.861	172.2
681.052	168.1
681.242	149.67
681.432	133.29
681.622	211.11
681.813	77.99
682.003	161.96
682.193	55.47
682.383	106.67
682.573	110.76
682.764	118.95
682.954	180.39
683.144	233.64
683.334	176.3
683.524	131.24
683.714	192.68
683.904	157.86
684.094	188.58
684.284	204.97
684.474	252.07
684.664	182.44
684.854	102.57
685.044	184.49
685.234	182.44
685.424	184.49
685.614	127.14
685.804	184.49
685.994	221.35
686.184	131.24
686.374	176.3
686.564	170.15
686.753	184.49
686.943	110.76
687.133	96.43
687.323	178.34
687.513	227.5
687.702	151.72
687.892	153.77
688.082	307.37
688.272	256.17
688.461	159.91
688.651	313.51
688.841	151.72
689.03	92.33
689.22	155.82
689.41	219.3
689.599	184.49
689.789	196.78
689.979	159.91
690.168	182.44
690.358	221.35
690.547	145.58
690.737	221.35
690.926	188.58
691.116	145.58
691.305	270.5
691.495	196.78
691.684	121
691.874	149.67
692.063	155.82
692.252	309.41
692.442	260.26
692.631	215.21
692.82	86.19
693.01	190.63
693.199	102.57
693.388	231.59
693.578	161.96
693.767	213.16
693.956	168.1
694.146	116.9
694.335	182.44
694.524	149.67
694.713	219.3
694.902	192.68
695.092	88.23
695.281	178.34
695.47	143.53
695.659	112.81
695.848	209.06
696.037	135.34
696.226	188.58
696.415	192.68
696.604	344.23
696.793	157.86
696.982	174.25
697.171	333.99
697.36	143.53
697.549	194.73
697.738	112.81
697.927	135.34
698.116	137.38
698.305	202.92
698.494	129.19
698.683	53.42
698.872	333.99
699.061	155.82
699.25	137.38
699.438	166.06
699.627	149.67
699.816	309.41
700.005	90.28
700.193	198.82
700.382	207.02
700.571	223.4
700.76	217.26
700.948	256.17
701.137	121
701.326	286.89
701.514	92.33
701.703	217.26
701.892	127.14
702.08	344.23
702.269	161.96
702.457	73.9
702.646	164.01
702.834	125.1
703.023	215.21
703.212	243.88
703.4	180.39
703.589	143.53
703.777	118.95
703.965	118.95
704.154	84.14
704.342	67.75
704.531	178.34
704.719	198.82
704.907	311.46
705.096	123.05
705.284	106.67
705.472	229.54
705.661	182.44
705.849	270.5
706.037	215.21
706.226	110.76
706.414	176.3
706.602	155.82
706.79	282.79
706.979	90.28
707.167	168.1
707.355	67.75
707.543	108.71
707.731	219.3
707.919	125.1
708.107	88.23
708.296	129.19
708.484	69.8
708.672	194.73
708.86	176.3
709.048	118.95
709.236	153.77
709.424	127.14
709.612	198.82
709.8	92.33
709.988	141.48
710.176	286.89
710.364	211.11
710.551	106.67
710.739	137.38
710.927	127.14
711.115	192.68
711.303	188.58
711.491	239.78
711.679	137.38
711.866	219.3
712.054	108.71
712.242	239.78
712.43	223.4
712.617	98.47
712.805	254.12
712.993	104.62
713.181	51.37
713.368	295.08
713.556	125.1
713.744	-3.93
713.931	331.94
714.119	174.25
714.306	125.1
714.494	108.71
714.682	182.44
714.869	-20.31
715.057	223.4
715.244	53.42
715.432	211.11
715.619	153.77
715.807	159.91
715.994	190.63
716.182	129.19
716.369	256.17
716.556	194.73
716.744	26.79
716.931	90.28
717.119	147.62
717.306	174.25
717.493	202.92
717.681	53.42
717.868	209.06
718.055	176.3
718.242	186.54
718.43	196.78
718.617	237.74
718.804	84.14
718.991	329.89
719.179	178.34
719.366	264.36
719.553	229.54
719.74	143.53
719.927	139.43
720.114	202.92
720.301	98.47
720.488	106.67
720.676	92.33
720.863	350.37
721.05	280.74
721.237	215.21
721.424	260.26
721.611	239.78
721.798	188.58
721.985	77.99
722.172	121
722.358	157.86
722.545	250.02
722.732	174.25
722.919	295.08
723.106	258.21
723.293	235.69
723.48	164.01
723.667	153.77
723.853	235.69
724.04	247.97
724.227	237.74
724.414	149.67
724.6	233.64
724.787	286.89
724.974	309.41
725.161	219.3
725.347	135.34
725.534	184.49
725.72	293.03
725.907	188.58
726.094	258.21
726.28	215.21
726.467	164.01
726.653	125.1
726.84	315.56
727.027	344.23
727.213	121
727.4	209.06
727.586	221.35
727.773	190.63
727.959	202.92
728.145	254.12
728.332	221.35
728.518	104.62
728.705	202.92
728.891	164.01
729.077	157.86
729.264	127.14
729.45	176.3
729.636	268.45
729.823	223.4
730.009	262.31
730.195	235.69
730.382	180.39
730.568	215.21
730.754	266.41
730.94	221.35
731.126	202.92
731.313	221.35
731.499	102.57
731.685	338.09
731.871	166.06
732.057	147.62
732.243	247.97
732.429	270.5
732.615	276.65
732.801	225.45
732.987	135.34
733.173	174.25
733.359	176.3
733.545	268.45
733.731	190.63
733.917	229.54
734.103	204.97
734.289	245.93
734.475	143.53
734.661	282.79
734.847	188.58
735.033	176.3
735.219	172.2
735.404	184.49
735.59	129.19
735.776	202.92
735.962	272.55
736.148	270.5
736.333	364.71
736.519	209.06
736.705	178.34
736.89	247.97
737.076	217.26
737.262	219.3
737.447	225.45
737.633	241.83
737.819	174.25
738.004	174.25
738.19	176.3
738.375	223.4
738.561	319.65
738.747	225.45
738.932	186.54
739.118	364.71
739.303	274.6
739.489	207.02
739.674	196.78
739.859	170.15
740.045	317.61
740.23	280.74
740.416	82.09
740.601	215.21
740.786	219.3
740.972	112.81
741.157	250.02
741.342	123.05
741.528	55.47
741.713	282.79
741.898	161.96
742.084	233.64
742.269	172.2
742.454	278.69
742.639	235.69
742.824	184.49
743.01	305.32
743.195	295.08
743.38	155.82
743.565	223.4
743.75	227.5
743.935	297.13
744.12	288.93
744.305	176.3
744.49	184.49
744.675	190.63
744.86	215.21
745.045	114.86
745.23	170.15
745.415	151.72
745.6	235.69
745.785	114.86
745.97	336.04
746.155	231.59
746.34	223.4
746.525	270.5
746.71	278.69
746.895	161.96
747.079	80.04
747.264	209.06
747.449	237.74
747.634	264.36
747.819	209.06
748.003	92.33
748.188	106.67
748.373	213.16
748.557	223.4
748.742	166.06
748.927	176.3
749.111	127.14
749.296	215.21
749.481	262.31
749.665	184.49
749.85	110.76
750.034	164.01
750.219	153.77
750.404	123.05
750.588	129.19
750.773	157.86
750.957	207.02
751.141	166.06
751.326	143.53
751.51	121
751.695	209.06
751.879	188.58
752.064	297.13
752.248	182.44
752.432	213.16
752.617	147.62
752.801	227.5
752.985	159.91
753.17	260.26
753.354	151.72
753.538	84.14
753.722	116.9
753.907	114.86
754.091	63.66
754.275	161.96
754.459	69.8
754.643	77.99
754.828	207.02
755.012	61.61
755.196	63.66
755.38	170.15
755.564	114.86
755.748	121
755.932	176.3
756.116	202.92
756.3	170.15
756.484	43.18
756.668	227.5
756.852	28.84
757.036	172.2
757.22	45.23
757.404	104.62
757.588	102.57
757.772	155.82
757.956	63.66
758.14	221.35
758.323	102.57
758.507	217.26
758.691	194.73
758.875	188.58
759.059	196.78
759.242	71.85
759.426	135.34
759.61	121
759.794	77.99
759.977	131.24
760.161	327.85
760.345	141.48
760.528	147.62
760.712	143.53
760.895	155.82
761.079	43.18
761.263	110.76
761.446	88.23
761.63	71.85
761.813	131.24
761.997	24.75
762.18	98.47
762.364	235.69
762.547	41.13
762.731	-24.4
762.914	96.43
763.098	63.66
763.281	98.47
763.464	20.65
763.648	121
763.831	90.28
764.015	8.36
764.198	211.11
764.381	96.43
764.564	102.57
764.748	98.47
764.931	61.61
765.114	98.47
765.297	129.19
765.481	77.99
765.664	69.8
765.847	102.57
766.03	196.78
766.213	49.32
766.397	41.13
766.58	43.18
766.763	153.77
766.946	-14.17
767.129	20.65
767.312	59.56
767.495	57.51
767.678	14.51
767.861	77.99
768.044	73.9
768.227	67.75
768.41	61.61
768.593	129.19
768.776	143.53
768.959	6.31
769.142	174.25
769.324	51.37
769.507	141.48
769.69	65.71
769.873	106.67
770.056	196.78
770.239	37.03
770.421	4.27
770.604	143.53
770.787	12.46
770.97	106.67
771.152	-24.4
771.335	86.19
771.518	59.56
771.7	247.97
771.883	237.74
772.066	45.23
772.248	71.85
772.431	139.43
772.613	127.14
772.796	121
772.978	125.1
773.161	200.87
773.343	57.51
773.526	26.79
773.708	-42.84
773.891	-67.41
774.073	32.94
774.256	133.29
774.438	186.54
774.621	75.95
774.803	121
774.985	53.42
775.168	166.06
775.35	4.27
775.532	108.71
775.715	-30.55
775.897	90.28
776.079	41.13
776.261	73.9
776.444	59.56
776.626	-36.69
776.808	-24.4
776.99	-5.97
777.173	14.51
777.355	51.37
777.537	47.27
777.719	141.48
777.901	-12.12
778.083	41.13
778.265	-32.6
778.447	82.09
778.629	-26.45
778.811	34.99
778.993	22.7
779.175	141.48
779.357	153.77
779.539	-8.02
779.721	24.75
779.903	34.99
780.085	-16.21
780.267	100.52
780.449	-1.88
780.631	96.43
780.812	174.25
780.994	12.46
781.176	-40.79
781.358	-5.97
781.54	-53.08
781.721	147.62
781.903	116.9
782.085	-8.02
782.267	121
782.448	-40.79
782.63	10.41
782.812	10.41
782.993	30.89
783.175	77.99
783.357	-1.88
783.538	34.99
783.72	-42.84
783.901	-5.97
784.083	96.43
784.264	110.76
784.446	-71.51
784.627	-42.84
784.809	114.86
784.99	53.42
785.172	96.43
785.353	41.13
785.535	-30.55
785.716	2.22
785.897	-24.4
786.079	82.09
786.26	-24.4
786.441	104.62
786.623	-65.36
786.804	-32.6
786.985	39.08
787.167	-3.93
787.348	-24.4
787.529	28.84
787.71	141.48
787.891	47.27
788.073	-5.97
788.254	-65.36
788.435	137.38
788.616	14.51
788.797	-42.84
788.978	6.31
789.159	24.75
789.34	61.61
789.522	45.23
789.703	-16.21
789.884	2.22
790.065	39.08
790.246	211.11
790.427	-12.12
790.607	43.18
790.788	75.95
790.969	6.31
791.15	20.65
791.331	-5.97
791.512	-8.02
791.693	0.17
791.874	6.31
792.054	176.3
792.235	151.72
792.416	-32.6
792.597	-22.36
792.778	53.42
792.958	131.24
793.139	6.31
793.32	-8.02
793.5	-38.74
793.681	123.05
793.862	26.79
794.042	30.89
794.223	-57.17
794.404	-8.02
794.584	-44.88
794.765	28.84
794.945	45.23
795.126	82.09
795.306	63.66
795.487	-1.88
795.667	2.22
795.848	34.99
796.028	-40.79
796.209	12.46
796.389	39.08
796.57	59.56
796.75	-48.98
796.93	-1.88
797.111	-12.12
797.291	20.65
797.471	-1.88
797.652	-5.97
797.832	-28.5
798.012	92.33
798.192	-16.21
798.373	-57.17
798.553	43.18
798.733	43.18
798.913	-73.56
799.093	-14.17
799.274	16.55
799.454	24.75
799.634	102.57
799.814	149.67
799.994	80.04
800.174	-32.6
800.354	18.6
800.534	-57.17
800.714	0.17
800.894	-22.36
801.074	-75.6
801.254	22.7
801.434	82.09
801.614	14.51
801.794	-77.65
801.974	1845.39
802.154	-26.45
802.334	118.95
802.514	-20.31
802.693	12.46
802.873	-1.88
803.053	41.13
803.233	65.71
803.413	6.31
803.592	14.51
803.772	-44.88
803.952	-34.64
804.131	-61.27
804.311	55.47
804.491	96.43
804.67	-94.04
804.85	0.17
805.03	6.31
805.209	106.67
805.389	-5.97
805.568	-26.45
805.748	20.65
805.928	8.36
806.107	-5.97
806.287	-20.31
806.466	-3.93
806.646	0.17
806.825	8.36
807.004	-10.07
807.184	16.55
807.363	67.75
807.543	-8.02
807.722	-5.97
807.901	151.72
808.081	159.91
808.26	-108.37
808.439	59.56
808.619	20.65
808.798	-46.93
808.977	61.61
809.156	84.14
809.336	32.94
809.515	53.42
809.694	-40.79
809.873	-28.5
810.052	-40.79
810.231	28.84
810.411	-8.02
810.59	100.52
810.769	-40.79
810.948	30.89
811.127	-128.85
811.306	24.75
811.485	-14.17
811.664	104.62
811.843	2.22
812.022	71.85
812.201	-40.79
812.38	-30.55
812.559	10.41
812.737	8.36
812.916	-75.6
813.095	10.41
813.274	57.51
813.453	-48.98
813.632	145.58
813.811	69.8
813.989	-118.61
814.168	10.41
814.347	-44.88
814.526	-10.07
814.704	32.94
814.883	104.62
815.062	-77.65
815.24	-57.17
815.419	-112.47
815.598	-1.88
815.776	-108.37
815.955	-20.31
816.133	-214.87
816.312	18.6
816.49	-32.6
816.669	73.9
816.847	14.51
817.026	59.56
817.204	-16.21
817.383	-5.97
817.561	-120.66
817.74	12.46
817.918	0.17
818.097	-8.02
818.275	-14.17
818.453	-10.07
818.632	-69.46
818.81	8.36
818.988	-42.84
819.167	-10.07
819.345	-20.31
819.523	-16.21
819.701	53.42
819.879	18.6
820.058	-20.31
820.236	16.55
820.414	4.27
820.592	-32.6
820.77	30.89
820.948	-65.36
821.127	-61.27
821.305	6.31
821.483	-77.65
821.661	6.31
821.839	-1.88
822.017	-40.79
822.195	18.6
822.373	102.57
822.551	-44.88
822.729	73.9
822.907	30.89
823.085	65.71
823.262	12.46
823.44	37.03
823.618	49.32
823.796	-36.69
823.974	-5.97
824.152	-26.45
824.329	26.79
824.507	73.9
824.685	34.99
824.863	-63.32
825.04	10.41
825.218	-1.88
825.396	82.09
825.574	71.85
825.751	-12.12
825.929	67.75
826.107	-48.98
826.284	-5.97
826.462	-3.93
826.639	-67.41
826.817	-67.41
826.994	-3.93
827.172	-102.23
827.349	94.38
827.527	34.99
827.704	-16.21
827.882	98.47
828.059	-5.97
828.237	-98.13
828.414	141.48
828.591	-132.95
828.769	43.18
828.946	6.31
829.124	71.85
829.301	6.31
829.478	-34.64
829.655	37.03
829.833	-40.79
830.01	-104.28
830.187	100.52
830.364	43.18
830.542	-36.69
830.719	100.52
830.896	-30.55
831.073	-5.97
831.25	18.6
831.427	12.46
831.604	32.94
831.782	6.31
831.959	30.89
832.136	-34.64
832.313	-5.97
832.49	2.22
832.667	77.99
832.844	-10.07
833.021	108.71
833.198	41.13
833.374	34.99
833.551	12.46
833.728	49.32
833.905	96.43
834.082	-157.52
834.259	12.46
834.436	137.38
834.612	-53.08
834.789	98.47
834.966	32.94
835.143	-30.55
835.319	-89.94
835.496	135.34
835.673	61.61
835.85	45.23
836.026	-36.69
836.203	77.99
836.38	-48.98
836.556	-26.45
836.733	-71.51
836.909	61.61
837.086	28.84
837.262	-89.94
837.439	16.55
837.616	-14.17
837.792	0.17
837.968	-5.97
838.145	-116.56
838.321	-44.88
838.498	24.75
838.674	86.19
838.851	47.27
839.027	-46.93
839.203	4.27
839.38	34.99
839.556	-20.31
839.732	55.47
839.909	-16.21
840.085	20.65
840.261	-71.51
840.437	-3.93
840.614	-79.7
840.79	49.32
840.966	90.28
841.142	-44.88
841.318	-77.65
841.494	16.55
841.671	57.51
841.847	-51.03
842.023	-159.57
842.199	28.84
842.375	102.57
842.551	-75.6
842.727	-57.17
842.903	73.9
843.079	-65.36
843.255	110.76
843.431	-32.6
843.607	8.36
843.783	-79.7
843.959	-32.6
844.134	-55.12
844.31	182.44
844.486	80.04
844.662	-42.84
844.838	10.41
845.013	47.27
845.189	-46.93
845.365	14.51
845.541	59.56
845.716	-8.02
845.892	118.95
846.068	-36.69
846.244	-77.65
846.419	37.03
846.595	-77.65
846.77	-46.93
846.946	37.03
847.122	6.31
847.297	0.17
847.473	84.14
847.648	-77.65
847.824	20.65
847.999	-135
848.175	-32.6
848.35	22.7
848.526	86.19
848.701	75.95
848.876	28.84
849.052	51.37
849.227	2.22
849.403	-24.4
849.578	-71.51
849.753	14.51
849.929	14.51
850.104	-128.85
850.279	4.27
850.454	69.8
850.63	82.09
850.805	82.09
850.98	22.7
851.155	-22.36
851.33	-44.88
851.505	-55.12
851.681	86.19
851.856	-48.98
852.031	49.32
852.206	86.19
852.381	-32.6
852.556	-12.12
852.731	4.27
852.906	77.99
853.081	-38.74
853.256	69.8
853.431	-96.08
853.606	-28.5
853.781	-79.7
853.956	-110.42
854.131	-16.21
854.305	16.55
854.48	-48.98
854.655	-22.36
854.83	4.27
855.005	-87.89
855.18	-8.02
855.354	10.41
855.529	22.7
855.704	-42.84
855.879	61.61
856.053	-126.8
856.228	32.94
856.403	8.36
856.577	104.62
856.752	-104.28
856.926	-36.69
857.101	41.13
857.276	4.27
857.45	6.31
857.625	67.75
857.799	41.13
857.974	-48.98
858.148	-114.52
858.323	-44.88
858.497	-42.84
858.672	-16.21
858.846	-77.65
859.02	104.62
859.195	-98.13
859.369	-28.5
859.543	75.95
859.718	-1.88
859.892	34.99
860.066	-89.94
860.241	-18.26
860.415	-10.07
860.589	-69.46
860.763	-63.32
860.938	-10.07
861.112	49.32
861.286	53.42
861.46	-22.36
861.634	-69.46
861.808	30.89
861.982	8.36
862.157	-149.33
862.331	-36.69
862.505	-55.12
862.679	-61.27
862.853	-1.88
863.027	-61.27
863.201	127.14
863.375	-132.95
863.549	-20.31
863.722	-18.26
863.896	98.47
864.07	-24.4
864.244	-26.45
864.418	61.61
864.592	12.46
864.766	39.08
864.939	-22.36
865.113	32.94
865.287	71.85
865.461	-40.79
865.634	-55.12
865.808	-22.36
865.982	-102.23
866.156	-100.18
866.329	-69.46
866.503	102.57
866.676	22.7
866.85	-20.31
867.024	-81.75
867.197	57.51
867.371	30.89
867.544	26.79
867.718	-110.42
867.891	49.32
868.065	-116.56
868.238	-44.88
868.412	14.51
868.585	18.6
868.759	-112.47
868.932	-42.84
869.105	-112.47
869.279	4.27
869.452	-34.64
869.625	49.32
869.799	-34.64
869.972	-120.66
870.145	-79.7
870.319	118.95
870.492	-24.4
870.665	-26.45
870.838	-63.32
871.011	-139.09
871.185	-16.21
871.358	-5.97
871.531	4.27
871.704	-106.32
871.877	-12.12
872.05	-85.84
872.223	-42.84
872.396	51.37
872.569	41.13
872.742	-71.51
872.915	37.03
873.088	-48.98
873.261	-34.64
873.434	-18.26
873.607	-46.93
873.78	80.04
873.953	-100.18
874.126	-5.97
874.299	34.99
874.471	-53.08
874.644	-91.99
874.817	-10.07
874.99	49.32
875.163	-10.07
875.335	92.33
875.508	-96.08
875.681	61.61
875.853	-42.84
876.026	-42.84
876.199	-61.27
876.371	30.89
876.544	-18.26
876.717	-48.98
876.889	-57.17
877.062	-40.79
877.234	-106.32
877.407	-59.22
877.579	4.27
877.752	-12.12
877.924	49.32
878.097	-12.12
878.269	28.84
878.442	-22.36
878.614	26.79
878.786	-36.69
878.959	-16.21
879.131	18.6
879.303	-112.47
879.476	-48.98
879.648	106.67
879.82	-32.6
879.993	-10.07
880.165	-69.46
880.337	-79.7
880.509	-5.97
880.681	-106.32
880.854	-63.32
881.026	39.08
881.198	57.51
881.37	-59.22
881.542	-44.88
881.714	-16.21
881.886	-40.79
882.058	37.03
882.23	10.41
882.402	37.03
882.574	34.99
882.746	0.17
882.918	61.61
883.09	39.08
883.262	-8.02
883.434	-14.17
883.606	-116.56
883.778	41.13
883.95	145.58
884.122	-61.27
884.293	77.99
884.465	-24.4
884.637	65.71
884.809	-83.8
884.98	18.6
885.152	8.36
885.324	86.19
885.496	-22.36
885.667	-5.97
885.839	-89.94
886.011	73.9
886.182	14.51
886.354	39.08
886.525	-18.26
886.697	26.79
886.869	-48.98
887.04	-85.84
887.212	100.52
887.383	147.62
887.555	-71.51
887.726	-12.12
887.897	-100.18
888.069	-3.93
888.24	57.51
888.412	28.84
888.583	-44.88
888.754	-55.12
888.926	-38.74
889.097	-32.6
889.268	-114.52
889.44	0.17
889.611	-100.18
889.782	-46.93
889.953	-28.5
890.125	43.18
890.296	-1.88
890.467	6.31
890.638	-3.93
890.809	-26.45
890.98	-44.88
891.151	86.19
891.323	61.61
891.494	18.6
891.665	-22.36
891.836	-20.31
892.007	-10.07
892.178	51.37
892.349	0.17
892.52	-48.98
892.691	77.99
892.862	12.46
893.032	-110.42
893.203	-8.02
893.374	-18.26
893.545	106.67
893.716	-85.84
893.887	34.99
894.057	-89.94
894.228	-55.12
894.399	-98.13
894.57	77.99
894.74	-20.31
894.911	-38.74
895.082	-5.97
895.253	-114.52
895.423	18.6
895.594	43.18
895.764	26.79
895.935	-32.6
896.106	24.75
896.276	-102.23
896.447	20.65
896.617	-69.46
896.788	-94.04
896.958	-126.8
897.129	-30.55
897.299	-124.76
897.47	65.71
897.64	-10.07
897.81	-32.6
897.981	69.8
898.151	-71.51
898.322	4.27
898.492	24.75
898.662	-110.42
898.832	8.36
899.003	12.46
899.173	73.9
899.343	-71.51
899.513	-69.46
