Data from USB4F104151__31__10-42-28-782.txt Node

Date: Wed Feb 26 10:42:28 EST 2025
User: louis
Spectrometer: USB4F10415
Trigger mode: 4
Integration Time (sec): 1.000000E-1
Scans to average: 1
Electric dark correction enabled: true
Nonlinearity correction enabled: false
Boxcar width: 0
XAxis mode: Wavelengths
Number of Pixels in Spectrum: 3648
>>>>>Begin Spectral Data<<<<<
178.204	-342.35
178.424	-342.35
178.644	-342.35
178.864	-354.64
179.084	-426.32
179.304	-0.34
179.524	11.95
179.744	-10.58
179.964	30.38
180.184	104.11
180.404	3.75
180.624	-12.63
180.844	52.91
181.064	-117.08
181.283	32.43
181.503	-86.36
181.723	-8.53
181.943	-45.4
182.163	102.06
182.383	44.71
182.602	130.73
182.822	16.04
183.042	1.71
183.262	30.38
183.482	-4.44
183.701	34.47
183.921	44.71
184.141	-31.06
184.361	26.28
184.58	7.85
184.8	36.52
185.02	24.23
185.239	69.29
185.459	54.95
185.679	202.41
185.898	-82.26
186.118	28.33
186.338	75.43
186.557	110.25
186.777	-45.4
186.997	-76.12
187.216	24.23
187.436	253.61
187.655	108.2
187.875	120.49
188.095	67.24
188.314	157.35
188.534	85.67
188.753	-45.4
188.973	108.2
189.192	167.59
189.412	114.34
189.631	-4.44
189.851	118.44
190.07	79.53
190.29	-41.3
190.509	-14.68
190.729	-24.92
190.948	157.35
191.168	317.09
191.387	110.25
191.607	93.87
191.826	50.86
192.045	20.14
192.265	65.19
192.484	11.95
192.704	44.71
192.923	-24.92
193.142	165.54
193.362	167.59
193.581	71.34
193.8	26.28
194.02	81.58
194.239	18.09
194.458	57
194.678	22.19
194.897	34.47
195.116	126.63
195.335	83.63
195.555	132.78
195.774	38.57
195.993	112.3
196.212	69.29
196.432	-12.63
196.651	-2.39
196.87	81.58
197.089	308.9
197.308	59.05
197.528	128.68
197.747	-51.54
197.966	20.14
198.185	130.73
198.404	16.04
198.623	167.59
198.842	153.26
199.062	91.82
199.281	122.54
199.5	126.63
199.719	95.91
199.938	22.19
200.157	52.91
200.376	54.95
200.595	204.46
200.814	48.81
201.033	34.47
201.252	124.58
201.471	38.57
201.69	89.77
201.909	48.81
202.128	104.11
202.347	83.63
202.566	-0.34
202.785	-104.79
203.004	16.04
203.223	237.22
203.442	-12.63
203.661	5.8
203.879	116.39
204.098	110.25
204.317	-37.2
204.536	95.91
204.755	89.77
204.974	165.54
205.193	57
205.411	124.58
205.63	95.91
205.849	34.47
206.068	67.24
206.287	28.33
206.505	169.64
206.724	89.77
206.943	-51.54
207.162	32.43
207.381	73.39
207.599	11.95
207.818	61.1
208.037	-18.77
208.255	83.63
208.474	81.58
208.693	24.23
208.911	34.47
209.13	118.44
209.349	61.1
209.567	73.39
209.786	106.15
210.005	97.96
210.223	61.1
210.442	-137.56
210.661	-24.92
210.879	75.43
211.098	81.58
211.316	-2.39
211.535	46.76
211.753	65.19
211.972	44.71
212.191	42.67
212.409	-0.34
212.628	97.96
212.846	11.95
213.065	69.29
213.283	79.53
213.502	71.34
213.72	-4.44
213.938	71.34
214.157	-14.68
214.375	124.58
214.594	48.81
214.812	155.3
215.031	22.19
215.249	81.58
215.467	108.2
215.686	22.19
215.904	59.05
216.122	87.72
216.341	61.1
216.559	44.71
216.778	69.29
216.996	140.97
217.214	1.71
217.432	-26.96
217.651	-100.69
217.869	81.58
218.087	34.47
218.306	48.81
218.524	24.23
218.742	-41.3
218.96	9.9
219.179	95.91
219.397	106.15
219.615	194.22
219.833	91.82
220.051	-29.01
220.27	52.91
220.488	151.21
220.706	-47.44
220.924	-47.44
221.142	-24.92
221.36	59.05
221.578	30.38
221.796	59.05
222.015	1.71
222.233	30.38
222.451	143.02
222.669	3.75
222.887	36.52
223.105	-51.54
223.323	5.8
223.541	18.09
223.759	69.29
223.977	59.05
224.195	171.69
224.413	124.58
224.631	89.77
224.849	97.96
225.067	149.16
225.285	40.62
225.503	-26.96
225.721	-74.07
225.939	46.76
226.157	87.72
226.375	231.08
226.592	-88.4
226.81	1.71
227.028	104.11
227.246	120.49
227.464	138.92
227.682	-18.77
227.9	108.2
228.117	85.67
228.335	91.82
228.553	57
228.771	13.99
228.989	63.15
229.206	71.34
229.424	-24.92
229.642	20.14
229.86	-2.39
230.077	147.11
230.295	71.34
230.513	157.35
230.731	91.82
230.948	169.64
231.166	159.4
231.384	16.04
231.601	-45.4
231.819	183.98
232.037	9.9
232.254	22.19
232.472	-2.39
232.689	-8.53
232.907	134.82
233.125	44.71
233.342	-29.01
233.56	-57.68
233.777	-47.44
233.995	42.67
234.213	40.62
234.43	114.34
234.648	18.09
234.865	-10.58
235.083	30.38
235.3	11.95
235.518	59.05
235.735	181.93
235.953	40.62
236.17	36.52
236.388	-8.53
236.605	28.33
236.822	73.39
237.04	114.34
237.257	93.87
237.475	-12.63
237.692	-16.73
237.909	140.97
238.127	-10.58
238.344	138.92
238.562	73.39
238.779	-47.44
238.996	-4.44
239.214	28.33
239.431	28.33
239.648	-12.63
239.865	40.62
240.083	38.57
240.3	-45.4
240.517	87.72
240.735	40.62
240.952	155.3
241.169	130.73
241.386	59.05
241.603	1.71
241.821	28.33
242.038	122.54
242.255	71.34
242.472	18.09
242.689	128.68
242.907	100.01
243.124	57
243.341	-4.44
243.558	42.67
243.775	-39.25
243.992	-26.96
244.209	128.68
244.426	145.06
244.643	24.23
244.86	65.19
245.078	145.06
245.295	73.39
245.512	61.1
245.729	-4.44
245.946	50.86
246.163	71.34
246.38	48.81
246.597	11.95
246.814	28.33
247.031	16.04
247.248	50.86
247.464	138.92
247.681	116.39
247.898	32.43
248.115	87.72
248.332	-29.01
248.549	140.97
248.766	214.7
248.983	97.96
249.2	9.9
249.417	95.91
249.633	28.33
249.85	130.73
250.067	28.33
250.284	79.53
250.501	128.68
250.717	26.28
250.934	-14.68
251.151	73.39
251.368	5.8
251.585	42.67
251.801	73.39
252.018	-35.16
252.235	134.82
252.451	-67.92
252.668	-10.58
252.885	116.39
253.102	67.24
253.318	34.47
253.535	28.33
253.752	108.2
253.968	44.71
254.185	-14.68
254.401	36.52
254.618	48.81
254.835	46.76
255.051	112.3
255.268	128.68
255.484	97.96
255.701	120.49
255.917	91.82
256.134	-18.77
256.351	11.95
256.567	7.85
256.784	3.75
257	44.71
257.217	136.87
257.433	71.34
257.65	91.82
257.866	106.15
258.082	-12.63
258.299	-6.49
258.515	120.49
258.732	97.96
258.948	-24.92
259.165	7.85
259.381	-20.82
259.597	42.67
259.814	122.54
260.03	50.86
260.246	57
260.463	128.68
260.679	71.34
260.895	67.24
261.112	46.76
261.328	73.39
261.544	57
261.761	163.5
261.977	40.62
262.193	-16.73
262.409	110.25
262.626	69.29
262.842	20.14
263.058	34.47
263.274	159.4
263.49	79.53
263.707	100.01
263.923	147.11
264.139	-51.54
264.355	120.49
264.571	157.35
264.787	167.59
265.004	149.16
265.22	40.62
265.436	-63.83
265.652	1.71
265.868	50.86
266.084	-74.07
266.3	30.38
266.516	-39.25
266.732	18.09
266.948	50.86
267.164	67.24
267.38	132.78
267.596	85.67
267.812	222.89
268.028	18.09
268.244	-0.34
268.46	73.39
268.676	59.05
268.892	79.53
269.108	34.47
269.324	18.09
269.54	-43.35
269.756	128.68
269.972	-33.11
270.188	89.77
270.403	13.99
270.619	-29.01
270.835	114.34
271.051	-6.49
271.267	-26.96
271.483	22.19
271.698	147.11
271.914	65.19
272.13	79.53
272.346	-61.78
272.562	48.81
272.777	108.2
272.993	67.24
273.209	1.71
273.425	83.63
273.64	26.28
273.856	138.92
274.072	-39.25
274.287	48.81
274.503	46.76
274.719	91.82
274.934	18.09
275.15	-16.73
275.366	18.09
275.581	-72.02
275.797	-22.87
276.012	40.62
276.228	-20.82
276.444	40.62
276.659	112.3
276.875	-2.39
277.09	-4.44
277.306	26.28
277.521	42.67
277.737	120.49
277.952	79.53
278.168	44.71
278.383	71.34
278.599	48.81
278.814	181.93
279.03	22.19
279.245	126.63
279.461	-4.44
279.676	85.67
279.892	-4.44
280.107	-47.44
280.322	-20.82
280.538	134.82
280.753	50.86
280.969	38.57
281.184	114.34
281.399	177.83
281.615	42.67
281.83	46.76
282.045	-2.39
282.26	-2.39
282.476	163.5
282.691	36.52
282.906	59.05
283.122	59.05
283.337	-92.5
283.552	100.01
283.767	95.91
283.983	200.36
284.198	67.24
284.413	95.91
284.628	-10.58
284.843	34.47
285.058	147.11
285.274	77.48
285.489	-8.53
285.704	87.72
285.919	30.38
286.134	36.52
286.349	65.19
286.564	71.34
286.779	136.87
286.995	89.77
287.21	-59.73
287.425	120.49
287.64	-67.92
287.855	73.39
288.07	-37.2
288.285	132.78
288.5	126.63
288.715	110.25
288.93	1.71
289.145	16.04
289.36	97.96
289.575	52.91
289.79	157.35
290.004	-20.82
290.219	145.06
290.434	-2.39
290.649	16.04
290.864	46.76
291.079	95.91
291.294	44.71
291.509	128.68
291.724	48.81
291.938	9.9
292.153	65.19
292.368	34.47
292.583	173.74
292.798	100.01
293.012	65.19
293.227	91.82
293.442	-14.68
293.657	79.53
293.871	138.92
294.086	77.48
294.301	190.12
294.516	120.49
294.73	-18.77
294.945	-37.2
295.16	73.39
295.374	140.97
295.589	130.73
295.804	-37.2
296.018	7.85
296.233	140.97
296.447	136.87
296.662	-45.4
296.877	71.34
297.091	54.95
297.306	24.23
297.52	-16.73
297.735	57
297.949	108.2
298.164	95.91
298.378	85.67
298.593	-84.31
298.807	-6.49
299.022	16.04
299.236	140.97
299.451	-37.2
299.665	-39.25
299.88	30.38
300.094	34.47
300.309	75.43
300.523	97.96
300.737	-10.58
300.952	61.1
301.166	151.21
301.381	48.81
301.595	-8.53
301.809	36.52
302.024	-16.73
302.238	-18.77
302.452	136.87
302.667	63.15
302.881	157.35
303.095	50.86
303.309	63.15
303.524	-6.49
303.738	30.38
303.952	20.14
304.166	91.82
304.381	-53.59
304.595	130.73
304.809	32.43
305.023	91.82
305.237	40.62
305.452	36.52
305.666	171.69
305.88	48.81
306.094	100.01
306.308	100.01
306.522	85.67
306.736	85.67
306.95	40.62
307.164	-10.58
307.379	3.75
307.593	140.97
307.807	106.15
308.021	97.96
308.235	57
308.449	-82.26
308.663	95.91
308.877	255.65
309.091	40.62
309.305	157.35
309.519	-41.3
309.733	91.82
309.947	-110.93
310.161	18.09
310.374	159.4
310.588	190.12
310.802	-16.73
311.016	22.19
311.23	42.67
311.444	9.9
311.658	22.19
311.872	153.26
312.085	128.68
312.299	116.39
312.513	147.11
312.727	30.38
312.941	-55.64
313.154	71.34
313.368	-6.49
313.582	38.57
313.796	165.54
314.009	20.14
314.223	155.3
314.437	22.19
314.651	126.63
314.864	42.67
315.078	-22.87
315.292	-20.82
315.505	16.04
315.719	5.8
315.933	36.52
316.146	-24.92
316.36	-39.25
316.573	116.39
316.787	108.2
317.001	54.95
317.214	-29.01
317.428	124.58
317.641	-10.58
317.855	30.38
318.068	9.9
318.282	-12.63
318.495	167.59
318.709	26.28
318.922	-8.53
319.136	118.44
319.349	124.58
319.563	-18.77
319.776	165.54
319.99	-94.55
320.203	106.15
320.417	67.24
320.63	95.91
320.843	216.74
321.057	50.86
321.27	46.76
321.483	114.34
321.697	208.55
321.91	11.95
322.124	42.67
322.337	104.11
322.55	28.33
322.763	63.15
322.977	100.01
323.19	7.85
323.403	120.49
323.617	91.82
323.83	151.21
324.043	114.34
324.256	77.48
324.469	-45.4
324.683	85.67
324.896	75.43
325.109	59.05
325.322	-47.44
325.535	67.24
325.748	54.95
325.962	11.95
326.175	75.43
326.388	71.34
326.601	151.21
326.814	13.99
327.027	40.62
327.24	108.2
327.453	-39.25
327.666	87.72
327.879	196.26
328.092	114.34
328.305	40.62
328.518	83.63
328.731	50.86
328.944	52.91
329.157	110.25
329.37	-16.73
329.583	263.85
329.796	112.3
330.009	13.99
330.222	85.67
330.435	106.15
330.648	83.63
330.861	106.15
331.073	69.29
331.286	67.24
331.499	65.19
331.712	16.04
331.925	95.91
332.138	118.44
332.35	57
332.563	-98.64
332.776	136.87
332.989	40.62
333.202	20.14
333.414	65.19
333.627	57
333.84	-22.87
334.053	165.54
334.265	100.01
334.478	36.52
334.691	9.9
334.903	46.76
335.116	83.63
335.329	108.2
335.541	83.63
335.754	167.59
335.966	7.85
336.179	18.09
336.392	24.23
336.604	38.57
336.817	97.96
337.029	91.82
337.242	153.26
337.454	44.71
337.667	20.14
337.88	122.54
338.092	77.48
338.305	138.92
338.517	-8.53
338.729	54.95
338.942	157.35
339.154	-74.07
339.367	-39.25
339.579	97.96
339.792	13.99
340.004	132.78
340.217	73.39
340.429	59.05
340.641	42.67
340.854	1.71
341.066	24.23
341.278	71.34
341.491	263.85
341.703	22.19
341.915	5.8
342.128	100.01
342.34	87.72
342.552	30.38
342.764	89.77
342.977	48.81
343.189	116.39
343.401	44.71
343.613	-61.78
343.826	89.77
344.038	-8.53
344.25	100.01
344.462	32.43
344.674	79.53
344.886	95.91
345.099	59.05
345.311	114.34
345.523	-72.02
345.735	-57.68
345.947	30.38
346.159	-2.39
346.371	32.43
346.583	42.67
346.795	75.43
347.007	42.67
347.219	71.34
347.431	59.05
347.643	122.54
347.855	26.28
348.067	145.06
348.279	-45.4
348.491	16.04
348.703	143.02
348.915	38.57
349.127	-45.4
349.339	5.8
349.551	-39.25
349.763	93.87
349.975	34.47
350.187	157.35
350.399	106.15
350.61	171.69
350.822	13.99
351.034	52.91
351.246	155.3
351.458	91.82
351.669	145.06
351.881	161.45
352.093	153.26
352.305	126.63
352.517	89.77
352.728	114.34
352.94	30.38
353.152	71.34
353.363	9.9
353.575	118.44
353.787	177.83
353.999	128.68
354.21	126.63
354.422	-2.39
354.633	13.99
354.845	46.76
355.057	46.76
355.268	3.75
355.48	102.06
355.692	-0.34
355.903	91.82
356.115	-29.01
356.326	-125.27
356.538	143.02
356.749	220.84
356.961	183.98
357.172	40.62
357.384	67.24
357.595	208.55
357.807	3.75
358.018	7.85
358.23	54.95
358.441	143.02
358.653	136.87
358.864	-0.34
359.075	-53.59
359.287	85.67
359.498	97.96
359.709	161.45
359.921	52.91
360.132	95.91
360.344	102.06
360.555	89.77
360.766	-31.06
360.977	38.57
361.189	159.4
361.4	52.91
361.611	114.34
361.823	100.01
362.034	63.15
362.245	24.23
362.456	9.9
362.667	112.3
362.879	-8.53
363.09	79.53
363.301	114.34
363.512	7.85
363.723	79.53
363.935	-49.49
364.146	106.15
364.357	77.48
364.568	83.63
364.779	-78.16
364.99	132.78
365.201	-10.58
365.412	143.02
365.623	-90.45
365.834	22.19
366.045	124.58
366.256	163.5
366.467	183.98
366.678	-47.44
366.889	65.19
367.1	-59.73
367.311	87.72
367.522	118.44
367.733	73.39
367.944	26.28
368.155	16.04
368.366	61.1
368.577	34.47
368.788	163.5
368.999	97.96
369.209	54.95
369.42	167.59
369.631	222.89
369.842	132.78
370.053	16.04
370.264	-4.44
370.474	-18.77
370.685	48.81
370.896	11.95
371.107	181.93
371.317	81.58
371.528	32.43
371.739	91.82
371.95	91.82
372.16	71.34
372.371	-35.16
372.582	24.23
372.792	73.39
373.003	5.8
373.214	83.63
373.424	120.49
373.635	-0.34
373.846	87.72
374.056	3.75
374.267	16.04
374.477	18.09
374.688	40.62
374.898	54.95
375.109	34.47
375.319	75.43
375.53	116.39
375.74	44.71
375.951	-4.44
376.161	118.44
376.372	112.3
376.582	-0.34
376.793	46.76
377.003	102.06
377.214	-49.49
377.424	63.15
377.635	100.01
377.845	30.38
378.055	118.44
378.266	38.57
378.476	-4.44
378.686	97.96
378.897	71.34
379.107	134.82
379.317	95.91
379.528	42.67
379.738	153.26
379.948	-35.16
380.158	89.77
380.369	104.11
380.579	120.49
380.789	34.47
380.999	83.63
381.21	73.39
381.42	292.52
381.63	-37.2
381.84	52.91
382.05	95.91
382.261	104.11
382.471	155.3
382.681	40.62
382.891	147.11
383.101	120.49
383.311	28.33
383.521	-39.25
383.731	73.39
383.941	138.92
384.151	118.44
384.361	50.86
384.571	38.57
384.781	71.34
384.991	208.55
385.201	229.03
385.411	100.01
385.621	65.19
385.831	67.24
386.041	59.05
386.251	71.34
386.461	177.83
386.671	7.85
386.881	149.16
387.091	30.38
387.301	147.11
387.511	77.48
387.72	54.95
387.93	130.73
388.14	-4.44
388.35	124.58
388.56	75.43
388.769	134.82
388.979	77.48
389.189	24.23
389.399	77.48
389.609	65.19
389.818	118.44
390.028	77.48
390.238	87.72
390.447	95.91
390.657	38.57
390.867	-69.97
391.076	-39.25
391.286	32.43
391.496	36.52
391.705	97.96
391.915	143.02
392.125	124.58
392.334	36.52
392.544	167.59
392.753	63.15
392.963	-6.49
393.172	91.82
393.382	57
393.591	171.69
393.801	44.71
394.01	188.07
394.22	122.54
394.429	36.52
394.639	79.53
394.848	89.77
395.058	130.73
395.267	91.82
395.477	87.72
395.686	128.68
395.895	175.78
396.105	263.85
396.314	54.95
396.524	7.85
396.733	3.75
396.942	149.16
397.152	106.15
397.361	104.11
397.57	97.96
397.78	30.38
397.989	89.77
398.198	212.65
398.407	52.91
398.617	-20.82
398.826	112.3
399.035	34.47
399.244	71.34
399.453	46.76
399.663	54.95
399.872	128.68
400.081	-10.58
400.29	79.53
400.499	18.09
400.708	110.25
400.917	-29.01
401.127	134.82
401.336	65.19
401.545	229.03
401.754	108.2
401.963	71.34
402.172	13.99
402.381	9.9
402.59	50.86
402.799	118.44
403.008	177.83
403.217	91.82
403.426	83.63
403.635	-84.31
403.844	18.09
404.053	143.02
404.262	16.04
404.471	169.64
404.68	30.38
404.888	22.19
405.097	22.19
405.306	77.48
405.515	79.53
405.724	24.23
405.933	157.35
406.142	173.74
406.35	171.69
406.559	89.77
406.768	20.14
406.977	198.31
407.185	44.71
407.394	79.53
407.603	-43.35
407.812	22.19
408.02	188.07
408.229	87.72
408.438	114.34
408.646	-39.25
408.855	102.06
409.064	34.47
409.272	112.3
409.481	110.25
409.69	3.75
409.898	38.57
410.107	143.02
410.315	93.87
410.524	-22.87
410.733	67.24
410.941	48.81
411.15	204.46
411.358	61.1
411.567	155.3
411.775	77.48
411.984	65.19
412.192	81.58
412.401	65.19
412.609	157.35
412.818	130.73
413.026	48.81
413.234	1.71
413.443	50.86
413.651	7.85
413.86	42.67
414.068	151.21
414.276	165.54
414.485	32.43
414.693	202.41
414.901	224.94
415.11	42.67
415.318	167.59
415.526	93.87
415.734	116.39
415.943	34.47
416.151	81.58
416.359	75.43
416.567	67.24
416.776	167.59
416.984	159.4
417.192	198.31
417.4	54.95
417.608	7.85
417.817	30.38
418.025	59.05
418.233	208.55
418.441	-49.49
418.649	40.62
418.857	89.77
419.065	163.5
419.273	46.76
419.481	65.19
419.689	28.33
419.897	-22.87
420.105	24.23
420.313	126.63
420.521	169.64
420.729	171.69
420.937	153.26
421.145	-37.2
421.353	165.54
421.561	239.27
421.769	145.06
421.977	20.14
422.185	116.39
422.393	79.53
422.601	69.29
422.809	75.43
423.017	120.49
423.224	110.25
423.432	188.07
423.64	-18.77
423.848	143.02
424.056	65.19
424.263	132.78
424.471	18.09
424.679	97.96
424.887	28.33
425.094	116.39
425.302	65.19
425.51	9.9
425.718	140.97
425.925	63.15
426.133	38.57
426.341	218.79
426.548	34.47
426.756	57
426.964	93.87
427.171	136.87
427.379	143.02
427.586	157.35
427.794	97.96
428.001	106.15
428.209	130.73
428.417	171.69
428.624	177.83
428.832	153.26
429.039	161.45
429.247	124.58
429.454	159.4
429.662	253.61
429.869	128.68
430.076	157.35
430.284	220.84
430.491	241.32
430.699	155.3
430.906	206.5
431.114	155.3
431.321	169.64
431.528	124.58
431.736	132.78
431.943	243.37
432.15	179.88
432.358	151.21
432.565	347.81
432.772	122.54
432.979	239.27
433.187	188.07
433.394	327.33
433.601	188.07
433.808	349.86
434.016	329.38
434.223	331.43
434.43	220.84
434.637	298.66
434.844	403.11
435.052	272.04
435.259	300.71
435.466	353.96
435.673	325.29
435.88	380.58
436.087	423.59
436.294	407.2
436.501	386.72
436.708	349.86
436.915	407.2
437.122	466.6
437.329	368.29
437.537	439.97
437.743	480.93
437.95	517.79
438.157	497.32
438.364	485.03
438.571	523.94
438.778	501.41
438.985	501.41
439.192	530.08
439.399	546.47
439.606	523.94
439.813	669.34
440.02	708.26
440.227	800.41
440.433	728.74
440.64	710.3
440.847	738.98
441.054	839.33
441.261	845.47
441.467	784.03
441.674	790.17
441.881	868
442.088	726.69
442.294	937.63
442.501	988.83
442.708	988.83
442.914	1017.5
443.121	1136.28
443.328	1103.51
443.534	1218.2
443.741	1218.2
443.948	1173.14
444.154	1318.55
444.361	1408.66
444.568	1308.31
444.774	1349.27
444.981	1285.78
445.187	1545.88
445.394	1633.94
445.6	1580.69
445.807	1814.16
446.013	1697.42
446.22	1586.83
446.426	1861.26
446.633	1918.61
446.839	2229.9
447.046	1896.08
447.252	2129.55
447.459	2203.27
447.665	2113.16
447.871	2301.58
448.078	2498.18
448.284	2504.32
448.491	2643.59
448.697	2715.27
448.903	2807.42
449.11	3102.33
449.316	2823.81
449.522	3073.66
449.728	3155.58
449.935	3425.91
450.141	3436.15
450.347	3606.13
450.553	3565.17
450.76	3718.77
450.966	3833.46
451.172	3915.37
451.378	4218.47
451.584	4216.43
451.791	4656.74
451.997	4693.6
452.203	4796
452.409	4859.49
452.615	5121.63
452.821	4941.41
453.027	5160.54
453.233	5629.52
453.44	5611.09
453.646	5842.51
453.852	6110.8
454.058	6383.18
454.264	6469.19
454.47	6893.12
454.676	7214.65
454.882	7740.98
455.088	7153.21
455.294	7644.73
455.5	8357.42
455.705	8662.57
455.911	8443.43
456.117	8828.45
456.323	9297.44
456.529	9195.04
456.735	10016.27
456.941	10403.34
457.147	10784.26
457.352	10956.29
457.558	11165.18
457.764	11894.26
457.97	12273.14
458.176	12850.66
458.381	13426.14
458.587	13809.11
458.793	14372.3
458.999	14478.8
459.204	16055.73
459.41	17012.14
459.616	16598.45
459.821	17532.32
460.027	18341.27
460.233	19160.45
460.438	19295.62
460.644	20315.51
460.85	20546.93
461.055	21491.04
461.261	22396.24
461.466	22103.39
461.672	22078.81
461.878	24923.44
462.083	24481.08
462.289	25185.58
462.494	26240.28
462.7	26451.22
462.905	26565.91
463.111	28951.79
463.316	30246.11
463.522	30702.81
463.727	31845.57
463.932	32863.41
464.138	34180.26
464.343	35224.72
464.549	35159.19
464.754	38227.04
464.959	39081.05
465.165	39939.15
465.37	39558.22
465.575	39459.92
465.781	42325.03
465.986	43226.14
466.191	42775.58
466.397	42777.63
466.602	42200.1
466.807	44569.6
467.012	45280.25
467.218	46216.17
467.423	46126.06
467.628	47328.22
467.833	49660.85
468.038	48937.92
468.244	48024.53
468.449	50359.21
468.654	49445.82
468.859	49269.69
469.064	49544.12
469.269	48200.65
469.474	48774.08
469.679	50000.82
469.885	48907.2
470.09	49607.61
470.295	49499.06
470.5	48397.26
470.705	48720.84
470.91	47156.19
471.115	47031.26
471.32	47987.66
471.525	46932.96
471.73	46369.77
471.935	45749.23
472.139	44510.21
472.344	44602.37
472.549	44067.85
472.754	43277.33
472.959	42142.76
473.164	40727.61
473.369	40426.56
473.574	41464.88
473.778	40762.43
473.983	39869.51
474.188	39031.9
474.393	37403.76
474.598	37241.97
474.802	36660.35
475.007	36172.93
475.212	35740.81
475.417	34124.96
475.621	33793.19
475.826	33604.78
476.031	33256.62
476.235	32070.85
476.44	31984.83
476.645	31378.64
476.849	31182.03
477.054	30758.1
477.259	30037.22
477.463	29879.52
477.668	28734.71
477.872	28964.08
478.077	28235
478.282	27364.62
478.486	27397.38
478.691	27137.29
478.895	26699.03
479.1	26739.99
479.304	26207.51
479.509	25517.35
479.713	25834.78
479.918	25505.06
480.122	24634.67
480.326	25070.89
480.531	24679.73
480.735	24331.58
480.94	24141.11
481.144	25124.14
481.348	23285.06
481.553	23872.83
481.757	23024.97
481.961	23301.45
482.166	23778.62
482.37	23117.13
482.574	22560.08
482.778	22400.34
482.983	22996.3
483.187	22375.77
483.391	22535.51
483.595	21714.27
483.8	21712.22
484.004	21818.72
484.208	21710.18
484.412	21319.01
484.616	21222.76
484.821	21056.87
485.025	20393.33
485.229	20491.63
485.433	20110.71
485.637	20057.46
485.841	19479.94
486.045	19336.58
486.249	19379.59
486.453	18761.1
486.657	18634.13
486.861	18556.3
487.065	18032.02
487.269	17917.34
487.473	17028.52
487.677	17558.94
487.881	17276.32
488.085	16780.71
488.289	16330.16
488.493	15920.57
488.697	16111.03
488.901	15885.75
489.105	15431.1
489.309	15029.7
489.512	15058.37
489.716	14656.97
489.92	14405.07
490.124	14081.49
490.328	14077.4
490.531	13555.16
490.735	13592.03
490.939	13071.84
491.143	12887.53
491.346	12453.36
491.55	12367.34
491.754	12348.91
491.958	11996.66
492.161	12129.78
492.365	11660.79
492.569	11544.06
492.772	11292.16
492.976	11431.42
493.18	11027.97
493.383	11036.16
493.587	10819.08
493.79	10739.21
493.994	10429.96
494.197	10309.13
494.401	10268.17
494.605	10143.25
494.808	10270.22
495.012	9879.06
495.215	9965.07
495.419	10051.09
495.622	9764.37
495.825	9838.1
496.029	9645.59
496.232	9719.32
496.436	9131.55
496.639	9829.91
496.843	9582.1
497.046	9453.08
497.249	9565.72
497.453	9553.43
497.656	9362.97
497.859	9436.7
498.063	9506.33
498.266	9528.86
498.469	9385.5
498.673	9500.19
498.876	9555.48
499.079	9524.76
499.282	9522.71
499.485	9901.59
499.689	9643.54
499.892	9909.78
500.095	9754.13
500.298	9905.68
500.501	9903.64
500.705	9829.91
500.908	10149.39
501.111	10202.64
501.314	10221.07
501.517	10575.37
501.72	10339.85
501.923	10307.09
502.126	10597.9
502.329	10917.38
502.532	10884.61
502.735	11027.97
502.938	11023.87
503.141	11159.04
503.344	11208.19
503.547	11259.39
503.75	11279.87
503.953	11597.31
504.156	11898.36
504.359	12015.09
504.562	12146.16
504.765	12232.18
504.968	12402.16
505.17	12578.28
505.373	12662.25
505.576	12940.77
505.779	13006.31
505.982	13278.69
506.185	13721.05
506.387	13762.01
506.59	14153.17
506.793	14110.16
506.996	14378.45
507.198	14841.29
507.401	15089.09
507.604	15242.69
507.807	15611.32
508.009	15730.11
508.212	15816.12
508.415	16381.36
508.617	16868.78
508.82	16942.5
509.022	17331.62
509.225	17810.84
509.428	17991.06
509.63	18218.39
509.833	18599.31
510.035	19348.87
510.238	19606.91
510.44	20176.25
510.643	20417.91
510.845	20796.78
511.048	20782.45
511.25	21618.02
511.453	22029.66
511.655	22920.52
511.858	23084.36
512.06	23665.99
512.262	23936.32
512.465	24397.11
512.667	25109.8
512.87	25455.91
513.072	25875.74
513.274	26928.4
513.477	27053.33
513.679	27995.39
513.881	28663.03
514.084	29568.23
514.286	29869.28
514.488	30311.64
514.69	31253.71
514.893	31452.36
515.095	31907.01
515.297	32961.72
515.499	33354.93
515.701	34280.61
515.904	35511.44
516.106	35593.36
516.308	36729.98
516.51	37137.52
516.712	37481.58
516.914	38198.37
517.116	39029.85
517.318	39844.94
517.52	40602.69
517.722	41096.25
517.925	42015.79
518.127	42849.31
518.329	43469.84
518.531	43420.69
518.733	45009.92
518.935	45202.42
519.136	45693.94
519.338	46994.4
519.54	47393.75
519.742	48339.91
519.944	48737.22
520.146	49386.43
520.348	50303.92
520.55	50666.41
520.752	50889.63
520.954	52181.9
521.155	52507.53
521.357	52945.79
521.559	53529.47
521.761	54725.48
521.963	54606.7
522.164	55231.33
522.366	55153.51
522.568	55989.08
522.77	56353.61
522.971	57449.28
523.173	56630.09
523.375	57342.78
523.576	57248.58
523.778	57461.57
523.98	58334
524.181	58149.68
524.383	58809.13
524.584	58919.72
524.786	59124.52
524.988	58688.3
525.189	58901.29
525.391	59630.36
525.592	59050.79
525.794	59349.79
525.995	59087.65
526.197	58696.49
526.398	59040.55
526.6	59165.48
526.801	59018.02
527.003	59321.12
527.204	58084.15
527.406	58567.47
527.607	58612.52
527.808	58073.91
528.01	56558.41
528.211	57277.25
528.412	57541.44
528.614	56783.69
528.815	56724.3
529.016	56404.81
529.218	55393.12
529.419	55274.34
529.62	54541.16
529.822	54295.41
530.023	53887.86
530.224	53396.35
530.425	53066.62
530.626	51800.98
530.828	51448.73
531.029	51760.02
531.23	50899.87
531.431	49992.62
531.632	50021.3
531.833	49527.73
532.035	48638.92
532.236	48253.9
532.437	47453.14
532.638	46623.72
532.839	46918.62
533.04	46248.94
533.241	45020.16
533.442	45308.92
533.643	44221.45
533.844	43584.53
534.045	43295.77
534.246	42157.1
534.447	42322.98
534.648	41223.22
534.849	41063.48
535.05	40557.63
535.251	39590.99
535.451	39242.84
535.652	38755.42
535.853	37747.82
536.054	37813.35
536.255	37190.77
536.456	36209.79
536.657	36576.38
536.857	35605.64
537.058	35409.04
537.259	35107.99
537.46	34622.62
537.66	33631.4
537.861	33739.94
538.062	33172.66
538.263	32634.04
538.463	32122.05
538.664	31689.93
538.865	31509.71
539.065	31468.75
539.266	30631.13
539.466	30516.44
539.667	29447.4
539.868	29566.18
540.068	29064.43
540.269	28828.91
540.469	28933.36
540.67	28269.82
540.87	27663.62
541.071	27612.42
541.271	27219.21
541.472	26727.7
541.672	26588.44
541.873	25969.95
542.073	25656.61
542.274	26055.97
542.474	25523.49
542.675	25029.93
542.875	25021.74
543.075	24511.8
543.276	24155.45
543.476	24026.43
543.676	23774.53
543.877	23283.02
544.077	23143.75
544.277	22824.27
544.478	22572.37
544.678	22674.77
544.878	22439.25
545.078	22152.54
545.279	21835.1
545.479	21417.32
545.679	20997.48
545.879	21314.92
546.079	20714.86
546.28	20618.61
546.48	20223.35
546.68	20184.44
546.88	19985.79
547.08	19647.87
547.28	19285.38
547.48	18744.72
547.68	18683.28
547.88	18515.34
548.081	18644.37
548.281	18124.18
548.481	17771.93
548.681	17839.51
548.881	17382.82
549.081	17323.43
549.28	16962.98
549.48	16858.54
549.68	16514.48
549.88	16281.01
550.08	16170.42
550.28	15967.67
550.48	15662.52
550.68	15726.01
550.88	15254.98
551.08	15046.09
551.279	15041.99
551.479	14759.37
551.679	14665.16
551.879	14157.27
552.079	14104.02
552.278	13977.05
552.478	13661.66
552.678	13376.99
552.878	13471.2
553.077	13215.2
553.277	12819.94
553.477	12705.26
553.676	12525.04
553.876	12398.06
554.076	12144.11
554.275	11877.88
554.475	11509.24
554.674	11607.55
554.874	11431.42
555.074	11142.66
555.273	10901
555.473	11079.17
555.672	10571.27
555.872	10286.61
556.071	10221.07
556.271	10262.03
556.47	9797.14
556.67	9731.61
556.869	9627.16
557.068	9276.96
557.268	9391.64
557.467	9258.53
557.667	9004.58
557.866	8926.75
558.065	8668.71
558.265	8492.59
558.464	8455.72
558.663	8279.6
558.863	8300.08
559.062	8191.53
559.261	7943.73
559.461	7839.28
559.66	7573.05
559.859	7642.68
560.058	7423.55
560.258	7282.24
560.457	7147.07
560.656	7349.82
560.855	6897.22
561.054	7034.43
561.253	6690.37
561.453	6981.18
561.652	6585.93
561.851	6493.77
562.05	6407.75
562.249	6207.05
562.448	6137.42
562.647	5977.68
562.846	6069.84
563.045	6010.45
563.244	5744.21
563.443	5881.42
563.642	5760.59
563.841	5682.77
564.04	5389.91
564.239	5502.55
564.438	5402.2
564.637	5178.97
564.836	5242.46
565.035	5170.78
565.234	5062.24
565.432	5037.66
565.631	5017.18
565.83	4925.02
566.029	4810.34
566.228	4634.21
566.427	4736.61
566.625	4488.81
566.824	4576.87
567.023	4421.22
567.222	4263.53
567.42	4394.6
567.619	4261.48
567.818	4259.43
568.016	4333.16
568.215	3962.48
568.414	4232.81
568.612	4099.69
568.811	4142.7
569.01	3968.62
569.208	3800.69
569.407	3870.32
569.605	3792.5
569.804	3718.77
570.002	3679.86
570.201	3415.67
570.4	3536.5
570.598	3501.69
570.797	3339.9
570.995	3407.48
571.193	3237.5
571.392	3260.02
571.59	3149.43
571.789	3247.74
571.987	3141.24
572.186	3128.95
572.384	3049.08
572.582	3098.24
572.781	2901.63
572.979	2700.93
573.177	2889.34
573.376	2889.34
573.574	2821.76
573.772	2713.22
573.971	2631.3
574.169	2541.19
574.367	2606.72
574.565	2510.47
574.763	2549.38
574.962	2520.71
575.16	2387.59
575.358	2303.62
575.556	2381.45
575.754	2420.36
575.952	2356.87
576.151	2338.44
576.349	2225.8
576.547	2104.97
576.745	2272.9
576.943	2150.03
577.141	2068.11
577.339	1941.13
577.537	2076.3
577.735	2098.83
577.933	1934.99
578.131	1822.35
578.329	2109.07
578.527	1922.7
578.725	1914.51
578.923	1783.44
579.121	1830.54
579.319	1709.71
579.516	1693.33
579.714	1879.69
579.912	1746.58
580.11	1646.23
580.308	1590.93
580.506	1635.99
580.704	1621.65
580.901	1480.34
581.099	1691.28
581.297	1498.77
581.495	1502.87
581.692	1441.43
581.89	1644.18
582.088	1429.14
582.285	1392.28
582.483	1373.85
582.681	1377.94
582.878	1324.69
583.076	1312.41
583.274	1441.43
583.471	1427.09
583.669	1275.54
583.866	1304.21
584.064	1128.09
584.262	1175.19
584.459	1119.9
584.657	1160.86
584.854	1371.8
585.052	1218.2
585.249	1218.2
585.447	1132.19
585.644	1003.16
585.841	1201.82
586.039	1101.47
586.236	1101.47
586.434	1048.22
586.631	1091.23
586.828	970.4
587.026	988.83
587.223	900.76
587.42	923.29
587.618	915.1
587.815	1158.81
588.012	1027.74
588.21	917.15
588.407	1060.51
588.604	921.24
588.801	1019.55
588.999	886.43
589.196	976.54
589.393	792.22
589.59	841.37
589.787	970.4
589.984	898.72
590.182	863.9
590.379	798.37
590.576	843.42
590.773	870.05
590.97	822.94
591.167	861.85
591.364	925.34
591.561	843.42
591.758	951.96
591.955	876.19
592.152	849.57
592.349	847.52
592.546	781.98
592.743	730.78
592.94	876.19
593.137	788.13
593.334	904.86
593.531	917.15
593.727	892.57
593.924	841.37
594.121	906.91
594.318	835.23
594.515	872.09
594.712	1042.07
594.908	925.34
595.105	689.82
595.302	913.05
595.499	956.06
595.696	1033.88
595.892	777.89
596.089	937.63
596.286	941.72
596.482	1113.75
596.679	1064.6
596.876	1027.74
597.072	1154.71
597.269	994.97
597.466	1109.66
597.662	1126.04
597.859	1244.82
598.055	1244.82
598.252	1318.55
598.448	1310.36
598.645	1511.06
598.841	1461.91
599.038	1590.93
599.234	1648.27
599.431	1498.77
599.627	1654.42
599.824	1691.28
600.02	1627.79
600.217	1738.38
600.413	1877.65
600.609	1980.04
600.806	2195.08
601.002	2035.34
601.198	2127.5
601.395	2297.48
601.591	2279.05
601.787	2518.66
601.984	2535.04
602.18	2651.78
602.376	2619.01
602.572	2875.01
602.769	2932.35
602.965	2950.78
603.161	3018.36
603.357	3174.01
603.553	3452.53
603.75	3374.71
603.946	3503.73
604.142	3706.48
604.338	3931.76
604.534	3929.71
604.73	4101.74
604.926	4093.55
605.122	4419.18
605.318	4468.33
605.514	4656.74
605.71	4599.4
605.906	4900.45
606.102	4888.16
606.298	5256.79
606.494	5502.55
606.69	5574.23
606.886	5774.93
607.082	5598.81
607.278	5869.14
607.474	5967.44
607.67	6522.44
607.866	6313.55
608.062	6790.72
608.257	6886.98
608.453	6932.03
608.649	7155.26
608.845	7439.93
609.041	7450.17
609.236	7892.53
609.432	7910.96
609.628	8142.38
609.824	8681
610.019	8590.89
610.215	9061.92
610.411	9199.13
610.606	9606.68
610.802	9598.49
610.998	9819.67
611.193	10184.21
611.389	10389
611.584	10597.9
611.78	10702.34
611.976	11286.01
612.171	11591.16
612.367	11845.11
612.562	12049.91
612.758	12514.8
612.953	12615.15
613.149	13077.99
613.344	13309.41
613.539	13886.93
613.735	14177.75
613.93	14609.87
614.126	14636.49
614.321	15541.69
614.517	15523.26
614.712	16070.07
614.907	16582.06
615.103	17071.53
615.298	17182.12
615.493	17903
615.688	18107.8
615.884	18816.4
616.079	18869.64
616.274	19762.56
616.47	19969.4
616.665	20481.39
616.86	21183.85
617.055	21618.02
617.25	22025.56
617.445	22936.91
617.641	22908.24
617.836	24087.87
618.031	23835.97
618.226	25103.66
618.421	25533.73
618.616	26234.14
618.811	26422.55
619.006	27643.14
619.201	27444.49
619.396	28605.69
619.591	28482.81
619.786	29545.7
619.981	29908.19
620.176	30950.61
620.371	31087.82
620.566	31911.11
620.761	32732.34
620.956	33713.32
621.151	33680.55
621.346	34782.36
621.541	34630.81
621.735	36353.15
621.93	36152.45
622.125	37500.01
622.32	37614.7
622.515	38808.67
622.709	39265.36
622.904	40033.35
623.099	40797.24
623.294	41501.75
623.488	41602.1
623.683	42988.57
623.878	42566.69
624.072	44065.8
624.267	44981.24
624.462	45243.38
624.656	45609.97
624.851	46463.97
625.046	46797.79
625.24	47723.47
625.435	48395.21
625.629	49433.53
625.824	49773.49
626.018	50211.76
626.213	49941.42
626.407	51438.49
626.602	50893.73
626.796	52380.56
626.991	52603.78
627.185	53146.5
627.38	53177.22
627.574	53453.69
627.768	53662.58
627.963	54049.65
628.157	54446.96
628.352	54680.42
628.546	54231.92
628.74	55075.68
628.935	54123.38
629.129	54592.36
629.323	54229.87
629.517	54094.71
629.712	53531.51
629.906	53484.41
630.1	52325.26
630.294	52325.26
630.489	51329.95
630.683	51268.51
630.877	49789.87
631.071	49185.72
631.265	48815.04
631.459	47686.61
631.653	46212.07
631.848	46189.55
632.042	44872.7
632.236	44334.09
632.43	42419.24
632.624	42007.59
632.818	40516.67
633.012	38984.79
633.206	38407.26
633.4	37096.56
633.594	35450
633.788	34909.33
633.982	33377.45
634.176	32502.97
634.369	30686.42
634.563	29738.21
634.757	28757.24
634.951	27696.39
635.145	26809.62
635.339	25576.74
635.533	24524.08
635.726	23555.4
635.92	22093.15
636.114	21718.37
636.308	20823.4
636.501	20004.22
636.695	19273.09
636.889	18355.6
637.083	17612.19
637.276	16817.58
637.47	16119.22
637.664	15656.38
637.857	15048.13
638.051	14421.45
638.244	13817.3
638.438	13235.68
638.632	12821.99
638.825	12013.04
639.019	11978.23
639.212	11193.86
639.406	10737.16
639.599	10325.52
639.793	9934.36
639.986	9524.76
640.18	9217.57
640.373	8947.23
640.567	8517.16
640.76	8199.73
640.954	7794.23
641.147	7546.42
641.34	7380.54
641.534	7112.25
641.727	6749.76
641.92	6594.12
642.114	6073.93
642.307	6129.23
642.5	5885.52
642.694	5404.25
642.887	5213.79
643.08	5367.38
643.273	4998.75
643.467	4796
643.66	4472.42
643.853	4423.27
644.046	4210.28
644.239	4165.23
644.432	3942
644.626	3634.8
644.819	3444.34
645.012	3495.54
645.205	3333.75
645.398	3360.38
645.591	3106.43
645.784	3038.84
645.977	2745.98
646.17	2940.54
646.363	2596.48
646.556	2539.14
646.749	2500.23
646.942	2422.41
647.135	2371.21
647.328	2127.5
647.521	2078.35
647.714	2043.53
647.907	1906.32
648.099	1771.15
648.292	1992.33
648.485	1695.38
648.678	1678.99
648.871	1656.47
649.064	1580.69
649.256	1341.08
649.449	1347.22
649.642	1410.71
649.835	1298.07
650.027	1236.63
650.22	1265.3
650.413	1281.69
650.605	1218.2
650.798	1093.27
650.991	1054.36
651.183	1109.66
651.376	1087.13
651.568	1066.65
651.761	997.02
651.954	1009.31
652.146	962.2
652.339	929.44
652.531	919.2
652.724	728.74
652.916	738.98
653.109	665.25
653.301	800.41
653.494	806.56
653.686	661.15
653.879	779.93
654.071	794.27
654.263	700.06
654.456	710.3
654.648	747.17
654.84	661.15
655.033	505.51
655.225	614.05
655.417	452.26
655.61	659.1
655.802	700.06
655.994	583.33
656.186	454.31
656.379	525.99
656.571	417.44
656.763	495.27
656.955	417.44
657.148	380.58
657.34	601.76
657.532	386.72
657.724	409.25
657.916	437.92
658.108	442.02
658.3	513.7
658.492	448.16
658.684	319.14
658.876	353.96
659.068	292.52
659.26	284.33
659.452	249.51
659.644	315.05
659.836	419.49
660.028	366.25
660.22	253.61
660.412	319.14
660.604	288.42
660.796	335.53
660.988	366.25
661.18	337.57
661.372	353.96
661.563	274.09
661.755	294.57
661.947	212.65
662.139	253.61
662.331	302.76
662.522	263.85
662.714	161.45
662.906	161.45
663.097	245.41
663.289	161.45
663.481	85.67
663.673	265.89
663.864	233.13
664.056	190.12
664.247	179.88
664.439	337.57
664.631	210.6
664.822	188.07
665.014	224.94
665.205	151.21
665.397	175.78
665.588	257.7
665.78	179.88
665.971	229.03
666.163	188.07
666.354	269.99
666.546	69.29
666.737	167.59
666.929	206.5
667.12	186.02
667.311	269.99
667.503	85.67
667.694	147.11
667.885	265.89
668.077	212.65
668.268	151.21
668.459	149.16
668.651	192.17
668.842	138.92
669.033	188.07
669.224	89.77
669.416	329.38
669.607	149.16
669.798	122.54
669.989	229.03
670.18	202.41
670.371	220.84
670.563	122.54
670.754	272.04
670.945	188.07
671.136	186.02
671.327	159.4
671.518	317.09
671.709	288.42
671.9	269.99
672.091	272.04
672.282	247.46
672.473	159.4
672.664	149.16
672.855	192.17
673.046	192.17
673.237	302.76
673.428	206.5
673.619	210.6
673.809	208.55
674	292.52
674.191	208.55
674.382	157.35
674.573	169.64
674.764	206.5
674.954	222.89
675.145	169.64
675.336	229.03
675.527	165.54
675.717	155.3
675.908	112.3
676.099	124.58
676.289	194.22
676.48	91.82
676.671	145.06
676.861	159.4
677.052	183.98
677.243	190.12
677.433	165.54
677.624	149.16
677.814	229.03
678.005	226.98
678.195	349.86
678.386	149.16
678.576	259.75
678.767	157.35
678.957	159.4
679.148	276.13
679.338	351.91
679.529	259.75
679.719	202.41
679.909	274.09
680.1	247.46
680.29	280.23
680.481	118.44
680.671	349.86
680.861	198.31
681.052	243.37
681.242	145.06
681.432	208.55
681.622	321.19
681.813	196.26
682.003	222.89
682.193	183.98
682.383	237.22
682.573	173.74
682.764	202.41
682.954	298.66
683.144	296.61
683.334	222.89
683.524	235.18
683.714	239.27
683.904	292.52
684.094	212.65
684.284	269.99
684.474	329.38
684.664	282.28
684.854	294.57
685.044	200.36
685.234	226.98
685.424	358.05
685.614	261.8
685.804	325.29
685.994	274.09
686.184	226.98
686.374	292.52
686.564	202.41
686.753	231.08
686.943	138.92
687.133	292.52
687.323	239.27
687.513	239.27
687.702	290.47
687.892	224.94
688.082	290.47
688.272	382.63
688.461	274.09
688.651	345.77
688.841	251.56
689.03	183.98
689.22	194.22
689.41	253.61
689.599	231.08
689.789	194.22
689.979	405.16
690.168	212.65
690.358	302.76
690.547	224.94
690.737	284.33
690.926	241.32
691.116	190.12
691.305	343.72
691.495	341.67
691.684	163.5
691.874	204.46
692.063	192.17
692.252	274.09
692.442	349.86
692.631	196.26
692.82	128.68
693.01	237.22
693.199	171.69
693.388	235.18
693.578	140.97
693.767	272.04
693.956	325.29
694.146	222.89
694.335	261.8
694.524	237.22
694.713	313
694.902	165.54
695.092	214.7
695.281	269.99
695.47	194.22
695.659	239.27
695.848	210.6
696.037	130.73
696.226	226.98
696.415	165.54
696.604	298.66
696.793	343.72
696.982	188.07
697.171	362.15
697.36	188.07
697.549	216.74
697.738	77.48
697.927	179.88
698.116	194.22
698.305	292.52
698.494	292.52
698.683	214.7
698.872	446.12
699.061	200.36
699.25	247.46
699.438	249.51
699.627	77.48
699.816	300.71
700.005	122.54
700.193	177.83
700.382	263.85
700.571	212.65
700.76	253.61
700.948	278.18
701.137	224.94
701.326	247.46
701.514	136.87
701.703	163.5
701.892	272.04
702.08	425.64
702.269	183.98
702.457	138.92
702.646	214.7
702.834	220.84
703.023	267.94
703.212	255.65
703.4	257.7
703.589	165.54
703.777	196.26
703.965	190.12
704.154	210.6
704.342	157.35
704.531	165.54
704.719	249.51
704.907	276.13
705.096	208.55
705.284	173.74
705.472	255.65
705.661	212.65
705.849	276.13
706.037	319.14
706.226	218.79
706.414	224.94
706.602	61.1
706.79	319.14
706.979	196.26
707.167	202.41
707.355	77.48
707.543	194.22
707.731	298.66
707.919	175.78
708.107	151.21
708.296	122.54
708.484	151.21
708.672	255.65
708.86	255.65
709.048	175.78
709.236	143.02
709.424	310.95
709.612	255.65
709.8	91.82
709.988	120.49
710.176	269.99
710.364	300.71
710.551	183.98
710.739	220.84
710.927	196.26
711.115	188.07
711.303	257.7
711.491	269.99
711.679	171.69
711.866	298.66
712.054	202.41
712.242	155.3
712.43	294.57
712.617	294.57
712.805	313
712.993	206.5
713.181	77.48
713.368	265.89
713.556	257.7
713.744	140.97
713.931	405.16
714.119	229.03
714.306	181.93
714.494	261.8
714.682	175.78
714.869	122.54
715.057	237.22
715.244	89.77
715.432	218.79
715.619	132.78
715.807	165.54
715.994	134.82
716.182	265.89
716.369	278.18
716.556	306.85
716.744	95.91
716.931	151.21
717.119	306.85
717.306	208.55
717.493	294.57
717.681	171.69
717.868	159.4
718.055	302.76
718.242	151.21
718.43	251.56
718.617	286.37
718.804	210.6
718.991	298.66
719.179	261.8
719.366	272.04
719.553	233.13
719.74	255.65
719.927	167.59
720.114	294.57
720.301	183.98
720.488	186.02
720.676	210.6
720.863	292.52
721.05	401.06
721.237	226.98
721.424	259.75
721.611	290.47
721.798	237.22
721.985	222.89
722.172	251.56
722.358	169.64
722.545	308.9
722.732	294.57
722.919	401.06
723.106	257.7
723.293	212.65
723.48	204.46
723.667	157.35
723.853	263.85
724.04	267.94
724.227	292.52
724.414	204.46
724.6	278.18
724.787	335.53
724.974	407.2
725.161	239.27
725.347	190.12
725.534	194.22
725.72	306.85
725.907	253.61
726.094	306.85
726.28	210.6
726.467	216.74
726.653	214.7
726.84	341.67
727.027	327.33
727.213	241.32
727.4	229.03
727.586	257.7
727.773	265.89
727.959	241.32
728.145	265.89
728.332	247.46
728.518	263.85
728.705	313
728.891	315.05
729.077	290.47
729.264	269.99
729.45	224.94
729.636	384.68
729.823	325.29
730.009	302.76
730.195	290.47
730.382	315.05
730.568	183.98
730.754	292.52
730.94	247.46
731.126	210.6
731.313	315.05
731.499	190.12
731.685	341.67
731.871	243.37
732.057	284.33
732.243	302.76
732.429	366.25
732.615	329.38
732.801	255.65
732.987	325.29
733.173	284.33
733.359	259.75
733.545	251.56
733.731	288.42
733.917	337.57
734.103	339.62
734.289	288.42
734.475	196.26
734.661	376.48
734.847	233.13
735.033	257.7
735.219	255.65
735.404	276.13
735.59	306.85
735.776	251.56
735.962	272.04
736.148	292.52
736.333	380.58
736.519	310.95
736.705	304.81
736.89	304.81
737.076	284.33
737.262	204.46
737.447	237.22
737.633	282.28
737.819	392.87
738.004	323.24
738.19	296.61
738.375	345.77
738.561	376.48
738.747	251.56
738.932	235.18
739.118	464.55
739.303	321.19
739.489	360.1
739.674	257.7
739.859	290.47
740.045	315.05
740.23	300.71
740.416	89.77
740.601	239.27
740.786	358.05
740.972	257.7
741.157	325.29
741.342	198.31
741.528	153.26
741.713	323.24
741.898	257.7
742.084	245.41
742.269	313
742.454	302.76
742.639	333.48
742.824	302.76
743.01	409.25
743.195	425.64
743.38	313
743.565	220.84
743.75	175.78
743.935	343.72
744.12	411.3
744.305	304.81
744.49	239.27
744.675	251.56
744.86	267.94
745.045	319.14
745.23	224.94
745.415	292.52
745.6	382.63
745.785	149.16
745.97	294.57
746.155	255.65
746.34	386.72
746.525	284.33
746.71	437.92
746.895	194.22
747.079	198.31
747.264	253.61
747.449	341.67
747.634	304.81
747.819	329.38
748.003	100.01
748.188	198.31
748.373	319.14
748.557	224.94
748.742	253.61
748.927	239.27
749.111	179.88
749.296	151.21
749.481	290.47
749.665	186.02
749.85	249.51
750.034	288.42
750.219	161.45
750.404	249.51
750.588	255.65
750.773	194.22
750.957	263.85
751.141	263.85
751.326	220.84
751.51	151.21
751.695	171.69
751.879	210.6
752.064	358.05
752.248	194.22
752.432	288.42
752.617	343.72
752.801	319.14
752.985	192.17
753.17	231.08
753.354	175.78
753.538	147.11
753.722	229.03
753.907	190.12
754.091	95.91
754.275	231.08
754.459	112.3
754.643	216.74
754.828	267.94
755.012	257.7
755.196	118.44
755.38	216.74
755.564	179.88
755.748	220.84
755.932	171.69
756.116	200.36
756.3	261.8
756.484	175.78
756.668	269.99
756.852	59.05
757.036	124.58
757.22	186.02
757.404	145.06
757.588	161.45
757.772	210.6
757.956	143.02
758.14	362.15
758.323	202.41
758.507	292.52
758.691	149.16
758.875	261.8
759.059	308.9
759.242	120.49
759.426	190.12
759.61	171.69
759.794	108.2
759.977	165.54
760.161	356.01
760.345	192.17
760.528	231.08
760.712	222.89
760.895	226.98
761.079	198.31
761.263	73.39
761.446	30.38
761.63	89.77
761.813	210.6
761.997	85.67
762.18	89.77
762.364	165.54
762.547	38.57
762.731	79.53
762.914	188.07
763.098	118.44
763.281	75.43
763.464	97.96
763.648	106.15
763.831	173.74
764.015	118.44
764.198	177.83
764.381	83.63
764.564	194.22
764.748	69.29
764.931	216.74
765.114	75.43
765.297	140.97
765.481	52.91
765.664	104.11
765.847	171.69
766.03	261.8
766.213	50.86
766.397	179.88
766.58	36.52
766.763	257.7
766.946	138.92
767.129	102.06
767.312	38.57
767.495	153.26
767.678	54.95
767.861	173.74
768.044	204.46
768.227	114.34
768.41	153.26
768.593	196.26
768.776	106.15
768.959	100.01
769.142	192.17
769.324	5.8
769.507	153.26
769.69	-8.53
769.873	108.2
770.056	296.61
770.239	108.2
770.421	171.69
770.604	28.33
770.787	140.97
770.97	145.06
771.152	69.29
771.335	169.64
771.518	48.81
771.7	169.64
771.883	169.64
772.066	1.71
772.248	108.2
772.431	102.06
772.613	161.45
772.796	130.73
772.978	138.92
773.161	226.98
773.343	57
773.526	7.85
773.708	-92.5
773.891	-29.01
774.073	46.76
774.256	59.05
774.438	226.98
774.621	71.34
774.803	161.45
774.985	48.81
775.168	143.02
775.35	87.72
775.532	145.06
775.715	11.95
775.897	108.2
776.079	181.93
776.261	110.25
776.444	28.33
776.626	100.01
776.808	97.96
776.99	-65.88
777.173	161.45
777.355	69.29
777.537	108.2
777.719	120.49
777.901	79.53
778.083	-24.92
778.265	69.29
778.447	161.45
778.629	52.91
778.811	75.43
778.993	108.2
779.175	138.92
779.357	81.58
779.539	26.28
779.721	48.81
779.903	143.02
780.085	50.86
780.267	52.91
780.449	81.58
780.631	87.72
780.812	128.68
780.994	34.47
781.176	67.24
781.358	48.81
781.54	73.39
781.721	32.43
781.903	112.3
782.085	93.87
782.267	130.73
782.448	-29.01
782.63	-67.92
782.812	112.3
782.993	87.72
783.175	34.47
783.357	-22.87
783.538	93.87
783.72	9.9
783.901	46.76
784.083	186.02
784.264	79.53
784.446	-47.44
784.627	-4.44
784.809	122.54
784.99	22.19
785.172	59.05
785.353	-41.3
785.535	106.15
785.716	87.72
785.897	75.43
786.079	61.1
786.26	40.62
786.441	52.91
786.623	-76.12
786.804	-35.16
786.985	54.95
787.167	151.21
787.348	5.8
787.529	13.99
787.71	198.31
787.891	75.43
788.073	-37.2
788.254	-22.87
788.435	106.15
788.616	34.47
788.797	-59.73
788.978	-20.82
789.159	3.75
789.34	24.23
789.522	13.99
789.703	-55.64
789.884	77.48
790.065	75.43
790.246	153.26
790.427	-8.53
790.607	112.3
790.788	63.15
790.969	3.75
791.15	40.62
791.331	28.33
791.512	52.91
791.693	-47.44
791.874	63.15
792.054	253.61
792.235	75.43
792.416	-33.11
792.597	38.57
792.778	67.24
792.958	36.52
793.139	120.49
793.32	100.01
793.5	-10.58
793.681	71.34
793.862	87.72
794.042	-20.82
794.223	-82.26
794.404	59.05
794.584	-67.92
794.765	28.33
794.945	-37.2
795.126	95.91
795.306	71.34
795.487	50.86
795.667	-82.26
795.848	52.91
796.028	63.15
796.209	83.63
796.389	95.91
796.57	-0.34
796.75	-8.53
796.93	65.19
797.111	-10.58
797.291	-22.87
797.471	130.73
797.652	69.29
797.832	-51.54
798.012	50.86
798.192	-35.16
798.373	-102.74
798.553	1.71
798.733	42.67
798.913	26.28
799.093	11.95
799.274	40.62
799.454	36.52
799.634	48.81
799.814	134.82
799.994	75.43
800.174	81.58
800.354	116.39
800.534	-82.26
800.714	24.23
800.894	-33.11
801.074	-106.84
801.254	-41.3
801.434	110.25
801.614	-14.68
801.794	-45.4
801.974	1664.66
802.154	-10.58
802.334	48.81
802.514	-51.54
802.693	71.34
802.873	-10.58
803.053	116.39
803.233	93.87
803.413	61.1
803.592	-57.68
803.772	-35.16
803.952	73.39
804.131	-26.96
804.311	104.11
804.491	65.19
804.67	-2.39
804.85	-72.02
805.03	28.33
805.209	75.43
805.389	5.8
805.568	-67.92
805.748	-49.49
805.928	1.71
806.107	136.87
806.287	-12.63
806.466	16.04
806.646	-10.58
806.825	-4.44
807.004	-57.68
807.184	50.86
807.363	67.24
807.543	46.76
807.722	-149.84
807.901	50.86
808.081	38.57
808.26	-178.51
808.439	-31.06
808.619	-12.63
808.798	-14.68
808.977	38.57
809.156	112.3
809.336	20.14
809.515	155.3
809.694	1.71
809.873	-33.11
810.052	118.44
810.231	138.92
810.411	63.15
810.59	102.06
810.769	1.71
810.948	163.5
811.127	-61.78
811.306	-43.35
811.485	7.85
811.664	136.87
811.843	40.62
812.022	81.58
812.201	38.57
812.38	30.38
812.559	-33.11
812.737	83.63
812.916	-94.55
813.095	36.52
813.274	73.39
813.453	-53.59
813.632	85.67
813.811	169.64
813.989	-47.44
814.168	40.62
814.347	-98.64
814.526	-49.49
814.704	163.5
814.883	71.34
815.062	-31.06
815.24	77.48
815.419	18.09
815.598	11.95
815.776	-131.41
815.955	-49.49
816.133	-20.82
816.312	-6.49
816.49	40.62
816.669	38.57
816.847	34.47
817.026	-2.39
817.204	-63.83
817.383	32.43
817.561	44.71
817.74	104.11
817.918	38.57
818.097	-59.73
818.275	-16.73
818.453	38.57
818.632	128.68
818.81	-4.44
818.988	-0.34
819.167	-6.49
819.345	-6.49
819.523	-57.68
819.701	-16.73
819.879	13.99
820.058	-49.49
820.236	36.52
820.414	-4.44
820.592	-55.64
820.77	32.43
820.948	-72.02
821.127	-84.31
821.305	73.39
821.483	-14.68
821.661	89.77
821.839	40.62
822.017	22.19
822.195	-55.64
822.373	44.71
822.551	30.38
822.729	120.49
822.907	104.11
823.085	46.76
823.262	63.15
823.44	-43.35
823.618	-65.88
823.796	-47.44
823.974	-37.2
824.152	-35.16
824.329	1.71
824.507	61.1
824.685	3.75
824.863	26.28
825.04	50.86
825.218	69.29
825.396	30.38
825.574	-26.96
825.751	-4.44
825.929	42.67
826.107	-135.51
826.284	34.47
826.462	91.82
826.639	-22.87
826.817	-45.4
826.994	-43.35
827.172	-55.64
827.349	143.02
827.527	108.2
827.704	5.8
827.882	106.15
828.059	36.52
828.237	9.9
828.414	30.38
828.591	-98.64
828.769	-18.77
828.946	-65.88
829.124	100.01
829.301	106.15
829.478	-69.97
829.655	-16.73
829.833	38.57
830.01	-67.92
830.187	67.24
830.364	-16.73
830.542	-4.44
830.719	87.72
830.896	52.91
831.073	120.49
831.25	36.52
831.427	28.33
831.604	-20.82
831.782	20.14
831.959	5.8
832.136	-35.16
832.313	-18.77
832.49	-24.92
832.667	126.63
832.844	-39.25
833.021	106.15
833.198	91.82
833.374	69.29
833.551	44.71
833.728	-24.92
833.905	-37.2
834.082	-41.3
834.259	61.1
834.436	61.1
834.612	-104.79
834.789	79.53
834.966	18.09
835.143	-4.44
835.319	-39.25
835.496	44.71
835.673	1.71
835.85	42.67
836.026	69.29
836.203	73.39
836.38	40.62
836.556	-41.3
836.733	-4.44
836.909	161.45
837.086	5.8
837.262	-41.3
837.439	42.67
837.616	9.9
837.792	-63.83
837.968	30.38
838.145	-35.16
838.321	-43.35
838.498	79.53
838.674	71.34
838.851	102.06
839.027	-47.44
839.203	-20.82
839.38	32.43
839.556	69.29
839.732	63.15
839.909	-12.63
840.085	54.95
840.261	-69.97
840.437	28.33
840.614	-24.92
840.79	36.52
840.966	52.91
841.142	11.95
841.318	-33.11
841.494	-10.58
841.671	91.82
841.847	48.81
842.023	-69.97
842.199	-41.3
842.375	65.19
842.551	-102.74
842.727	-69.97
842.903	69.29
843.079	-65.88
843.255	114.34
843.431	32.43
843.607	126.63
843.783	-39.25
843.959	91.82
844.134	-33.11
844.31	85.67
844.486	-119.12
844.662	-65.88
844.838	-0.34
845.013	93.87
845.189	73.39
845.365	54.95
845.541	-37.2
845.716	50.86
845.892	97.96
846.068	-53.59
846.244	-41.3
846.419	-20.82
846.595	-14.68
846.77	-76.12
846.946	122.54
847.122	-31.06
847.297	-6.49
847.473	57
847.648	-74.07
847.824	85.67
847.999	-133.46
848.175	-8.53
848.35	30.38
848.526	83.63
848.701	97.96
848.876	116.39
849.052	61.1
849.227	-0.34
849.403	-12.63
849.578	-4.44
849.753	18.09
849.929	-2.39
850.104	-98.64
850.279	54.95
850.454	67.24
850.63	-2.39
850.805	42.67
850.98	20.14
851.155	-31.06
851.33	-72.02
851.505	-29.01
851.681	124.58
851.856	-14.68
852.031	11.95
852.206	100.01
852.381	-22.87
852.556	-31.06
852.731	87.72
852.906	1.71
853.081	40.62
853.256	165.54
853.431	79.53
853.606	-55.64
853.781	-20.82
853.956	-69.97
854.131	59.05
854.305	-69.97
854.48	-39.25
854.655	-20.82
854.83	-39.25
855.005	-31.06
855.18	-6.49
855.354	24.23
855.529	3.75
855.704	-84.31
855.879	102.06
856.053	-88.4
856.228	67.24
856.403	5.8
856.577	67.24
856.752	-127.32
856.926	-4.44
857.101	52.91
857.276	-51.54
857.45	52.91
857.625	71.34
857.799	57
857.974	-39.25
858.148	-104.79
858.323	44.71
858.497	18.09
858.672	-80.21
858.846	-61.78
859.02	11.95
859.195	-31.06
859.369	-96.6
859.543	20.14
859.718	7.85
859.892	13.99
860.066	95.91
860.241	-18.77
860.415	5.8
860.589	-14.68
860.763	-33.11
860.938	-14.68
861.112	-14.68
861.286	-20.82
861.46	44.71
861.634	-16.73
861.808	114.34
861.982	-45.4
862.157	-24.92
862.331	-82.26
862.505	-108.88
862.679	-53.59
862.853	36.52
863.027	7.85
863.201	83.63
863.375	-65.88
863.549	95.91
863.722	-37.2
863.896	20.14
864.07	-26.96
864.244	40.62
864.418	67.24
864.592	-110.93
864.766	-6.49
864.939	-18.77
865.113	3.75
865.287	81.58
865.461	-31.06
865.634	-4.44
865.808	-26.96
865.982	-80.21
866.156	-39.25
866.329	-39.25
866.503	-31.06
866.676	67.24
866.85	34.47
867.024	-106.84
867.197	50.86
867.371	26.28
867.544	40.62
867.718	-45.4
867.891	126.63
868.065	-63.83
868.238	-20.82
868.412	112.3
868.585	-29.01
868.759	-53.59
868.932	-35.16
869.105	-92.5
869.279	79.53
869.452	-65.88
869.625	48.81
869.799	42.67
869.972	-102.74
870.145	-53.59
870.319	114.34
870.492	-51.54
870.665	-61.78
870.838	1.71
871.011	-164.18
871.185	18.09
871.358	7.85
871.531	54.95
871.704	-20.82
871.877	18.09
872.05	-78.16
872.223	-33.11
872.396	110.25
872.569	38.57
872.742	-53.59
872.915	26.28
873.088	-47.44
873.261	-55.64
873.434	28.33
873.607	-61.78
873.78	151.21
873.953	-57.68
874.126	73.39
874.299	18.09
874.471	-72.02
874.644	-6.49
874.817	9.9
874.99	120.49
875.163	-57.68
875.335	5.8
875.508	-37.2
875.681	40.62
875.853	28.33
876.026	54.95
876.199	52.91
876.371	13.99
876.544	-10.58
876.717	18.09
876.889	-39.25
877.062	-18.77
877.234	-55.64
877.407	20.14
877.579	-24.92
877.752	-29.01
877.924	116.39
878.097	24.23
878.269	1.71
878.442	-12.63
878.614	1.71
878.786	-4.44
878.959	7.85
879.131	26.28
879.303	-121.17
879.476	-8.53
879.648	91.82
879.82	-6.49
879.993	-88.4
880.165	-49.49
880.337	-90.45
880.509	-4.44
880.681	-35.16
880.854	-78.16
881.026	97.96
881.198	190.12
881.37	-39.25
881.542	5.8
881.714	20.14
881.886	-26.96
882.058	-14.68
882.23	34.47
882.402	-12.63
882.574	-4.44
882.746	22.19
882.918	67.24
883.09	102.06
883.262	3.75
883.434	61.1
883.606	-84.31
883.778	-8.53
883.95	61.1
884.122	9.9
884.293	63.15
884.465	59.05
884.637	-59.73
884.809	16.04
884.98	5.8
885.152	67.24
885.324	22.19
885.496	-80.21
885.667	-12.63
885.839	28.33
886.011	48.81
886.182	79.53
886.354	11.95
886.525	1.71
886.697	65.19
886.869	-104.79
887.04	-20.82
887.212	95.91
887.383	61.1
887.555	48.81
887.726	-88.4
887.897	-8.53
888.069	-20.82
888.24	-16.73
888.412	13.99
888.583	28.33
888.754	-67.92
888.926	-133.46
889.097	-37.2
889.268	-104.79
889.44	3.75
889.611	-72.02
889.782	-35.16
889.953	-61.78
890.125	97.96
890.296	-63.83
890.467	5.8
890.638	-12.63
890.809	-41.3
890.98	-29.01
891.151	34.47
891.323	102.06
891.494	26.28
891.665	-4.44
891.836	-61.78
892.007	-24.92
892.178	61.1
892.349	75.43
892.52	-22.87
892.691	9.9
892.862	-51.54
893.032	-80.21
893.203	-43.35
893.374	26.28
893.545	116.39
893.716	-61.78
893.887	57
894.057	-24.92
894.228	7.85
894.399	-2.39
894.57	102.06
894.74	11.95
894.911	65.19
895.082	-2.39
895.253	-100.69
895.423	-22.87
895.594	26.28
895.764	1.71
895.935	-12.63
896.106	7.85
896.276	-51.54
896.447	36.52
896.617	-84.31
896.788	-53.59
896.958	-14.68
897.129	-4.44
897.299	-31.06
897.47	20.14
897.64	104.11
897.81	-35.16
897.981	50.86
898.151	-39.25
898.322	-22.87
898.492	54.95
898.662	-31.06
898.832	-69.97
899.003	30.38
899.173	40.62
899.343	-88.4
899.513	13.99
