Data from USB4F104151__282__11-20-59-430.txt Node

Date: Wed Feb 26 11:20:59 EST 2025
User: louis
Spectrometer: USB4F10415
Trigger mode: 4
Integration Time (sec): 1.000000E-1
Scans to average: 1
Electric dark correction enabled: true
Nonlinearity correction enabled: false
Boxcar width: 0
XAxis mode: Wavelengths
Number of Pixels in Spectrum: 3648
>>>>>Begin Spectral Data<<<<<
178.204	-321.53
178.424	-321.53
178.644	-321.53
178.864	-397.31
179.084	-368.63
179.304	12.29
179.524	-2.05
179.744	12.29
179.964	61.44
180.184	12.29
180.404	24.58
180.624	-63.49
180.844	-14.34
181.064	-28.67
181.283	-38.91
181.503	-69.63
181.723	94.21
181.943	-75.77
182.163	239.61
182.383	38.91
182.602	-4.1
182.822	163.84
183.042	69.63
183.262	-73.73
183.482	-22.53
183.701	67.58
183.921	49.15
184.141	-53.25
184.361	83.97
184.58	45.06
184.8	90.11
185.02	2.05
185.239	88.06
185.459	118.78
185.679	86.01
185.898	-90.11
186.118	126.97
186.338	106.49
186.557	126.97
186.777	-26.62
186.997	10.24
187.216	36.86
187.436	221.18
187.655	32.77
187.875	77.82
188.095	16.38
188.314	106.49
188.534	192.51
188.753	-30.72
188.973	131.07
189.192	204.8
189.412	61.44
189.631	32.77
189.851	114.69
190.07	92.16
190.29	-83.97
190.509	-53.25
190.729	26.62
190.948	126.97
191.168	299
191.387	67.58
191.607	28.67
191.826	63.49
192.045	34.82
192.265	-14.34
192.484	45.06
192.704	12.29
192.923	20.48
193.142	208.89
193.362	159.74
193.581	161.79
193.8	63.49
194.02	81.92
194.239	51.2
194.458	77.82
194.678	-4.1
194.897	-14.34
195.116	118.78
195.335	143.36
195.555	73.73
195.774	-30.72
195.993	135.17
196.212	6.14
196.432	-4.1
196.651	-65.54
196.87	88.06
197.089	176.13
197.308	86.01
197.528	204.8
197.747	-49.15
197.966	88.06
198.185	145.41
198.404	-0
198.623	147.45
198.842	75.77
199.062	92.16
199.281	122.88
199.5	-14.34
199.719	114.69
199.938	-10.24
200.157	112.64
200.376	118.78
200.595	159.74
200.814	161.79
201.033	-4.1
201.252	178.17
201.471	71.68
201.69	38.91
201.909	40.96
202.128	143.36
202.347	22.53
202.566	14.34
202.785	14.34
203.004	47.1
203.223	217.08
203.442	45.06
203.661	-38.91
203.879	116.73
204.098	268.28
204.317	20.48
204.536	178.17
204.755	86.01
204.974	147.45
205.193	10.24
205.411	102.4
205.63	106.49
205.849	75.77
206.068	16.38
206.287	-75.77
206.505	141.31
206.724	-20.48
206.943	-2.05
207.162	67.58
207.381	73.73
207.599	34.82
207.818	61.44
208.037	-63.49
208.255	67.58
208.474	122.88
208.693	108.54
208.911	40.96
209.13	147.45
209.349	73.73
209.567	151.55
209.786	65.53
210.005	124.93
210.223	47.1
210.442	-73.73
210.661	-0
210.879	75.77
211.098	83.97
211.316	59.39
211.535	131.07
211.753	116.73
211.972	88.06
212.191	-36.86
212.409	126.97
212.628	190.46
212.846	55.3
213.065	45.06
213.283	129.02
213.502	30.72
213.72	110.59
213.938	61.44
214.157	83.97
214.375	112.64
214.594	67.58
214.812	32.77
215.031	-34.82
215.249	32.77
215.467	98.3
215.686	32.77
215.904	86.01
216.122	116.73
216.341	157.69
216.559	151.55
216.778	190.46
216.996	153.6
217.214	73.73
217.432	22.53
217.651	-63.49
217.869	63.49
218.087	77.82
218.306	77.82
218.524	75.77
218.742	12.29
218.96	65.53
219.179	83.97
219.397	-20.48
219.615	245.76
219.833	83.97
220.051	-43.01
220.27	157.69
220.488	57.34
220.706	92.16
220.924	69.63
221.142	-12.29
221.36	69.63
221.578	102.4
221.796	2.05
222.015	63.49
222.233	98.3
222.451	174.08
222.669	24.58
222.887	61.44
223.105	16.38
223.323	14.34
223.541	-16.38
223.759	75.77
223.977	4.1
224.195	184.32
224.413	106.49
224.631	122.88
224.849	75.77
225.067	245.76
225.285	8.19
225.503	-10.24
225.721	-55.3
225.939	81.92
226.157	57.34
226.375	192.51
226.592	75.77
226.81	30.72
227.028	141.31
227.246	88.06
227.464	120.83
227.682	149.5
227.9	122.88
228.117	65.53
228.335	38.91
228.553	10.24
228.771	-24.58
228.989	49.15
229.206	122.88
229.424	69.63
229.642	-10.24
229.86	-26.62
230.077	161.79
230.295	53.25
230.513	88.06
230.731	86.01
230.948	194.56
231.166	133.12
231.384	49.15
231.601	-24.58
231.819	120.83
232.037	16.38
232.254	-34.82
232.472	-16.38
232.689	73.73
232.907	86.01
233.125	12.29
233.342	34.82
233.56	-12.29
233.777	71.68
233.995	-4.1
234.213	96.25
234.43	106.49
234.648	79.87
234.865	26.62
235.083	116.73
235.3	-6.14
235.518	102.4
235.735	135.17
235.953	108.54
236.17	28.67
236.388	45.06
236.605	-16.38
236.822	114.69
237.04	143.36
237.257	63.49
237.475	-43.01
237.692	69.63
237.909	81.92
238.127	-38.91
238.344	135.17
238.562	47.1
238.779	22.53
238.996	18.43
239.214	79.87
239.431	18.43
239.648	88.06
239.865	108.54
240.083	92.16
240.3	-28.67
240.517	61.44
240.735	145.41
240.952	139.26
241.169	86.01
241.386	73.73
241.603	36.86
241.821	32.77
242.038	83.97
242.255	221.18
242.472	2.05
242.689	147.45
242.907	124.93
243.124	26.62
243.341	14.34
243.558	28.67
243.775	-40.96
243.992	-22.53
244.209	96.25
244.426	126.97
244.643	24.58
244.86	49.15
245.078	24.58
245.295	122.88
245.512	40.96
245.729	-40.96
245.946	122.88
246.163	98.3
246.38	88.06
246.597	67.58
246.814	20.48
247.031	30.72
247.248	-22.53
247.464	141.31
247.681	40.96
247.898	28.67
248.115	94.21
248.332	-36.86
248.549	215.04
248.766	155.65
248.983	167.93
249.2	34.82
249.417	155.65
249.633	51.2
249.85	116.73
250.067	53.25
250.284	40.96
250.501	143.36
250.717	102.4
250.934	-26.62
251.151	104.45
251.368	12.29
251.585	30.72
251.801	14.34
252.018	-22.53
252.235	184.32
252.451	-43.01
252.668	-10.24
252.885	102.4
253.102	141.31
253.318	90.11
253.535	26.62
253.752	-4.1
253.968	8.19
254.185	-77.82
254.401	81.92
254.618	6.14
254.835	-90.11
255.051	124.93
255.268	34.82
255.484	47.1
255.701	90.11
255.917	90.11
256.134	-2.05
256.351	59.39
256.567	-32.77
256.784	141.31
257	-65.54
257.217	96.25
257.433	92.16
257.65	8.19
257.866	200.7
258.082	26.62
258.299	67.58
258.515	28.67
258.732	67.58
258.948	34.82
259.165	90.11
259.381	-24.58
259.597	126.97
259.814	18.43
260.03	51.2
260.246	20.48
260.463	61.44
260.679	100.35
260.895	53.25
261.112	92.16
261.328	79.87
261.544	20.48
261.761	223.23
261.977	16.38
262.193	-79.87
262.409	90.11
262.626	108.54
262.842	14.34
263.058	30.72
263.274	131.07
263.49	18.43
263.707	106.49
263.923	198.65
264.139	-47.1
264.355	38.91
264.571	143.36
264.787	26.62
265.004	186.37
265.22	155.65
265.436	-2.05
265.652	45.06
265.868	75.77
266.084	-34.82
266.3	83.97
266.516	-36.86
266.732	32.77
266.948	131.07
267.164	-57.34
267.38	176.13
267.596	141.31
267.812	161.79
268.028	139.26
268.244	-10.24
268.46	63.49
268.676	36.86
268.892	49.15
269.108	-20.48
269.324	49.15
269.54	-20.48
269.756	163.84
269.972	22.53
270.188	43.01
270.403	-20.48
270.619	-4.1
270.835	81.92
271.051	79.87
271.267	18.43
271.483	90.11
271.698	65.53
271.914	137.21
272.13	75.77
272.346	-30.72
272.562	108.54
272.777	180.22
272.993	61.44
273.209	-12.29
273.425	69.63
273.64	4.1
273.856	65.53
274.072	-10.24
274.287	6.14
274.503	135.17
274.719	86.01
274.934	-10.24
275.15	-38.91
275.366	24.58
275.581	-6.14
275.797	141.31
276.012	51.2
276.228	-51.2
276.444	55.3
276.659	90.11
276.875	61.44
277.09	57.34
277.306	65.53
277.521	122.88
277.737	81.92
277.952	69.63
278.168	40.96
278.383	71.68
278.599	75.77
278.814	120.83
279.03	14.34
279.245	178.17
279.461	71.68
279.676	98.3
279.892	24.58
280.107	-26.62
280.322	-55.3
280.538	90.11
280.753	36.86
280.969	57.34
281.184	112.64
281.399	114.69
281.615	49.15
281.83	49.15
282.045	-53.25
282.26	77.82
282.476	34.82
282.691	71.68
282.906	90.11
283.122	133.12
283.337	-10.24
283.552	73.73
283.767	-12.29
283.983	59.39
284.198	8.19
284.413	28.67
284.628	24.58
284.843	45.06
285.058	114.69
285.274	100.35
285.489	-47.1
285.704	165.89
285.919	-16.38
286.134	-6.14
286.349	61.44
286.564	53.25
286.779	163.84
286.995	57.34
287.21	-36.86
287.425	114.69
287.64	30.72
287.855	20.48
288.07	2.05
288.285	194.56
288.5	110.59
288.715	77.82
288.93	86.01
289.145	26.62
289.36	135.17
289.575	45.06
289.79	120.83
290.004	57.34
290.219	135.17
290.434	-26.62
290.649	-32.77
290.864	20.48
291.079	26.62
291.294	90.11
291.509	-20.48
291.724	110.59
291.938	2.05
292.153	61.44
292.368	14.34
292.583	174.08
292.798	65.53
293.012	129.02
293.227	81.92
293.442	-26.62
293.657	59.39
293.871	143.36
294.086	88.06
294.301	264.19
294.516	75.77
294.73	86.01
294.945	63.49
295.16	65.53
295.374	143.36
295.589	49.15
295.804	69.63
296.018	102.4
296.233	151.55
296.447	79.87
296.662	28.67
296.877	204.8
297.091	104.45
297.306	18.43
297.52	106.49
297.735	108.54
297.949	-2.05
298.164	36.86
298.378	51.2
298.593	-79.87
298.807	28.67
299.022	16.38
299.236	124.93
299.451	-55.3
299.665	47.1
299.88	32.77
300.094	57.34
300.309	67.58
300.523	81.92
300.737	67.58
300.952	51.2
301.166	67.58
301.381	2.05
301.595	28.67
301.809	67.58
302.024	53.25
302.238	-40.96
302.452	167.93
302.667	59.39
302.881	149.5
303.095	96.25
303.309	126.97
303.524	4.1
303.738	-28.67
303.952	6.14
304.166	92.16
304.381	-47.1
304.595	126.97
304.809	40.96
305.023	24.58
305.237	-10.24
305.452	36.86
305.666	98.3
305.88	108.54
306.094	51.2
306.308	69.63
306.522	47.1
306.736	102.4
306.95	98.3
307.164	81.92
307.379	47.1
307.593	172.03
307.807	188.41
308.021	24.58
308.235	106.49
308.449	-102.4
308.663	34.82
308.877	225.28
309.091	61.44
309.305	172.03
309.519	-51.2
309.733	247.8
309.947	-8.19
310.161	120.83
310.374	206.84
310.588	143.36
310.802	-53.25
311.016	12.29
311.23	18.43
311.444	-34.82
311.658	63.49
311.872	178.17
312.085	196.6
312.299	184.32
312.513	122.88
312.727	69.63
312.941	-6.14
313.154	137.21
313.368	90.11
313.582	92.16
313.796	6.14
314.009	34.82
314.223	124.93
314.437	81.92
314.651	137.21
314.864	43.01
315.078	57.34
315.292	-90.11
315.505	6.14
315.719	135.17
315.933	79.87
316.146	-8.19
316.36	-34.82
316.573	165.89
316.787	137.21
317.001	100.35
317.214	-57.34
317.428	112.64
317.641	10.24
317.855	24.58
318.068	102.4
318.282	153.6
318.495	153.6
318.709	43.01
318.922	102.4
319.136	253.95
319.349	112.64
319.563	69.63
319.776	137.21
319.99	-47.1
320.203	86.01
320.417	24.58
320.63	77.82
320.843	215.04
321.057	129.02
321.27	108.54
321.483	120.83
321.697	131.07
321.91	59.39
322.124	81.92
322.337	120.83
322.55	4.1
322.763	32.77
322.977	-20.48
323.19	8.19
323.403	81.92
323.617	172.03
323.83	143.36
324.043	43.01
324.256	79.87
324.469	-2.05
324.683	83.97
324.896	24.58
325.109	75.77
325.322	-14.34
325.535	120.83
325.748	137.21
325.962	81.92
326.175	47.1
326.388	24.58
326.601	143.36
326.814	-14.34
327.027	104.45
327.24	165.89
327.453	-16.38
327.666	94.21
327.879	131.07
328.092	90.11
328.305	67.58
328.518	32.77
328.731	36.86
328.944	40.96
329.157	63.49
329.37	-6.14
329.583	180.22
329.796	126.97
330.009	-59.39
330.222	167.93
330.435	88.06
330.648	135.17
330.861	36.86
331.073	92.16
331.286	157.69
331.499	45.06
331.712	-53.25
331.925	26.62
332.138	18.43
332.35	215.04
332.563	51.2
332.776	165.89
332.989	-43.01
333.202	-32.77
333.414	18.43
333.627	63.49
333.84	77.82
334.053	79.87
334.265	2.05
334.478	16.38
334.691	24.58
334.903	32.77
335.116	2.05
335.329	53.25
335.541	40.96
335.754	147.45
335.966	8.19
336.179	131.07
336.392	28.67
336.604	-118.78
336.817	77.82
337.029	90.11
337.242	43.01
337.454	36.86
337.667	20.48
337.88	145.41
338.092	69.63
338.305	145.41
338.517	16.38
338.729	108.54
338.942	149.5
339.154	-53.25
339.367	38.91
339.579	94.21
339.792	-38.91
340.004	126.97
340.217	79.87
340.429	47.1
340.641	6.14
340.854	-55.3
341.066	38.91
341.278	106.49
341.491	202.75
341.703	77.82
341.915	-0
342.128	165.89
342.34	75.77
342.552	16.38
342.764	104.45
342.977	55.3
343.189	102.4
343.401	75.77
343.613	-18.43
343.826	26.62
344.038	-53.25
344.25	73.73
344.462	-2.05
344.674	90.11
344.886	12.29
345.099	14.34
345.311	71.68
345.523	16.38
345.735	-24.58
345.947	92.16
346.159	77.82
346.371	26.62
346.583	28.67
346.795	198.65
347.007	-32.77
347.219	118.78
347.431	16.38
347.643	112.64
347.855	-12.29
348.067	184.32
348.279	-26.62
348.491	65.53
348.703	143.36
348.915	30.72
349.127	57.34
349.339	71.68
349.551	51.2
349.763	61.44
349.975	90.11
350.187	133.12
350.399	174.08
350.61	57.34
350.822	-38.91
351.034	69.63
351.246	24.58
351.458	49.15
351.669	110.59
351.881	126.97
352.093	190.46
352.305	139.26
352.517	139.26
352.728	94.21
352.94	112.64
353.152	122.88
353.363	-0
353.575	51.2
353.787	200.7
353.999	75.77
354.21	245.76
354.422	32.77
354.633	59.39
354.845	38.91
355.057	10.24
355.268	88.06
355.48	159.74
355.692	16.38
355.903	77.82
356.115	36.86
356.326	-139.26
356.538	67.58
356.749	120.83
356.961	147.45
357.172	79.87
357.384	120.83
357.595	225.28
357.807	77.82
358.018	-4.1
358.23	2.05
358.441	155.65
358.653	141.31
358.864	40.96
359.075	65.53
359.287	153.6
359.498	122.88
359.709	141.31
359.921	2.05
360.132	102.4
360.344	77.82
360.555	45.06
360.766	88.06
360.977	57.34
361.189	147.45
361.4	38.91
361.611	65.53
361.823	131.07
362.034	45.06
362.245	-47.1
362.456	71.68
362.667	131.07
362.879	-73.73
363.09	49.15
363.301	61.44
363.512	61.44
363.723	28.67
363.935	34.82
364.146	145.41
364.357	83.97
364.568	61.44
364.779	24.58
364.99	167.93
365.201	-12.29
365.412	169.98
365.623	-65.54
365.834	28.67
366.045	96.25
366.256	73.73
366.467	120.83
366.678	-18.43
366.889	163.84
367.1	22.53
367.311	141.31
367.522	24.58
367.733	22.53
367.944	141.31
368.155	10.24
368.366	14.34
368.577	83.97
368.788	155.65
368.999	43.01
369.209	45.06
369.42	272.38
369.631	272.38
369.842	86.01
370.053	-73.73
370.264	159.74
370.474	-20.48
370.685	88.06
370.896	20.48
371.107	192.51
371.317	122.88
371.528	4.1
371.739	165.89
371.95	141.31
372.16	163.84
372.371	-79.87
372.582	38.91
372.792	116.73
373.003	114.69
373.214	40.96
373.424	118.78
373.635	6.14
373.846	184.32
374.056	86.01
374.267	129.02
374.477	135.17
374.688	6.14
374.898	104.45
375.109	81.92
375.319	73.73
375.53	143.36
375.74	69.63
375.951	20.48
376.161	108.54
376.372	143.36
376.582	26.62
376.793	92.16
377.003	47.1
377.214	12.29
377.424	53.25
377.635	102.4
377.845	-4.1
378.055	188.41
378.266	-6.14
378.476	34.82
378.686	92.16
378.897	141.31
379.107	133.12
379.317	49.15
379.528	67.58
379.738	106.49
379.948	-65.54
380.158	172.03
380.369	92.16
380.579	110.59
380.789	57.34
380.999	45.06
381.21	36.86
381.42	204.8
381.63	106.49
381.84	116.73
382.05	110.59
382.261	116.73
382.471	133.12
382.681	-22.53
382.891	231.42
383.101	24.58
383.311	36.86
383.521	12.29
383.731	106.49
383.941	65.53
384.151	96.25
384.361	79.87
384.571	86.01
384.781	86.01
384.991	202.75
385.201	155.65
385.411	165.89
385.621	57.34
385.831	92.16
386.041	67.58
386.251	24.58
386.461	108.54
386.671	133.12
386.881	43.01
387.091	53.25
387.301	94.21
387.511	65.53
387.72	75.77
387.93	77.82
388.14	-55.3
388.35	51.2
388.56	126.97
388.769	65.53
388.979	81.92
389.189	-65.54
389.399	32.77
389.609	49.15
389.818	137.21
390.028	55.3
390.238	65.53
390.447	-18.43
390.657	71.68
390.867	22.53
391.076	-16.38
391.286	63.49
391.496	22.53
391.705	61.44
391.915	167.93
392.125	133.12
392.334	49.15
392.544	172.03
392.753	83.97
392.963	32.77
393.172	77.82
393.382	6.14
393.591	212.99
393.801	14.34
394.01	188.41
394.22	90.11
394.429	24.58
394.639	49.15
394.848	34.82
395.058	106.49
395.267	4.1
395.477	143.36
395.686	96.25
395.895	188.41
396.105	200.7
396.314	208.89
396.524	69.63
396.733	6.14
396.942	176.13
397.152	169.98
397.361	120.83
397.57	94.21
397.78	178.17
397.989	100.35
398.198	188.41
398.407	16.38
398.617	47.1
398.826	151.55
399.035	135.17
399.244	112.64
399.453	49.15
399.663	63.49
399.872	110.59
400.081	-0
400.29	106.49
400.499	12.29
400.708	118.78
400.917	-22.53
401.127	106.49
401.336	94.21
401.545	192.51
401.754	176.13
401.963	96.25
402.172	8.19
402.381	4.1
402.59	100.35
402.799	51.2
403.008	184.32
403.217	77.82
403.426	61.44
403.635	49.15
403.844	67.58
404.053	59.39
404.262	20.48
404.471	169.98
404.68	110.59
404.888	4.1
405.097	36.86
405.306	55.3
405.515	165.89
405.724	49.15
405.933	139.26
406.142	129.02
406.35	145.41
406.559	71.68
406.768	118.78
406.977	139.26
407.185	92.16
407.394	57.34
407.603	10.24
407.812	116.73
408.02	133.12
408.229	65.53
408.438	59.39
408.646	-40.96
408.855	-4.1
409.064	143.36
409.272	59.39
409.481	131.07
409.69	-12.29
409.898	45.06
410.107	118.78
410.315	182.27
410.524	61.44
410.733	116.73
410.941	61.44
411.15	112.64
411.358	94.21
411.567	192.51
411.775	94.21
411.984	-8.19
412.192	112.64
412.401	-22.53
412.609	157.69
412.818	129.02
413.026	104.45
413.234	-34.82
413.443	129.02
413.651	16.38
413.86	38.91
414.068	145.41
414.276	198.65
414.485	6.14
414.693	198.65
414.901	163.84
415.11	104.45
415.318	108.54
415.526	34.82
415.734	45.06
415.943	143.36
416.151	157.69
416.359	92.16
416.567	108.54
416.776	122.88
416.984	143.36
417.192	237.56
417.4	-6.14
417.608	67.58
417.817	-2.05
418.025	163.84
418.233	219.13
418.441	38.91
418.649	-24.58
418.857	126.97
419.065	184.32
419.273	69.63
419.481	71.68
419.689	118.78
419.897	16.38
420.105	-18.43
420.313	126.97
420.521	251.9
420.729	147.45
420.937	-8.19
421.145	-55.3
421.353	88.06
421.561	83.97
421.769	40.96
421.977	-24.58
422.185	124.93
422.393	73.73
422.601	174.08
422.809	108.54
423.017	47.1
423.224	122.88
423.432	212.99
423.64	69.63
423.848	151.55
424.056	45.06
424.263	233.47
424.471	43.01
424.679	225.28
424.887	-8.19
425.094	190.46
425.302	79.87
425.51	57.34
425.718	110.59
425.925	180.22
426.133	2.05
426.341	305.15
426.548	90.11
426.756	34.82
426.964	165.89
427.171	86.01
427.379	157.69
427.586	53.25
427.794	106.49
428.001	219.13
428.209	102.4
428.417	202.75
428.624	157.69
428.832	106.49
429.039	116.73
429.247	100.35
429.454	139.26
429.662	278.52
429.869	147.45
430.076	135.17
430.284	190.46
430.491	174.08
430.699	186.37
430.906	268.28
431.114	190.46
431.321	243.71
431.528	112.64
431.736	153.6
431.943	258.04
432.15	192.51
432.358	212.99
432.565	299
432.772	53.25
432.979	276.48
433.187	145.41
433.394	235.52
433.601	182.27
433.808	303.1
434.016	325.63
434.223	253.95
434.43	258.04
434.637	331.77
434.844	272.38
435.052	397.31
435.259	290.81
435.466	364.54
435.673	210.94
435.88	311.29
436.087	356.35
436.294	389.11
436.501	352.25
436.708	346.11
436.915	407.55
437.122	428.03
437.329	311.29
437.537	380.92
437.743	360.44
437.95	497.66
438.157	509.94
438.364	485.37
438.571	491.51
438.778	532.47
438.985	511.99
439.192	579.58
439.399	514.04
439.606	589.81
439.813	692.21
440.02	724.98
440.227	806.9
440.433	690.17
440.64	561.14
440.847	552.95
441.054	761.84
441.261	923.63
441.467	845.81
441.674	729.08
441.881	886.77
442.088	774.13
442.294	847.86
442.501	892.91
442.708	899.06
442.914	974.83
443.121	997.36
443.328	1003.5
443.534	1202.16
443.741	1148.91
443.948	1101.81
444.154	1255.4
444.361	1345.52
444.568	1277.93
444.774	1327.08
444.981	1271.79
445.187	1478.63
445.394	1423.34
445.6	1417.19
445.807	1595.37
446.013	1591.27
446.22	1601.51
446.426	1583.08
446.633	1884.13
446.839	1933.28
447.046	1712.1
447.252	1890.28
447.459	1939.43
447.665	1882.08
447.871	2170.85
448.078	2277.34
448.284	2306.01
448.491	2410.46
448.697	2533.34
448.903	2439.13
449.11	2568.15
449.316	2664.41
449.522	2758.61
449.728	2828.24
449.935	3004.37
450.141	2944.98
450.347	3203.02
450.553	3157.97
450.76	3274.7
450.966	3585.99
451.172	3665.86
451.378	3645.38
451.584	3952.58
451.791	4134.85
451.997	4267.97
452.203	4153.28
452.409	4597.69
452.615	4679.61
452.821	4632.51
453.027	4712.38
453.233	5230.51
453.44	4958.13
453.646	5343.15
453.852	5474.22
454.058	5961.64
454.264	5861.29
454.47	6299.55
454.676	6350.75
454.882	6940.57
455.088	6637.47
455.294	7018.39
455.5	7520.14
455.705	7862.15
455.911	8028.04
456.117	8038.28
456.323	8306.56
456.529	8441.73
456.735	9111.41
456.941	9328.5
457.147	9738.09
457.352	9946.98
457.558	10131.3
457.764	10860.38
457.97	11077.46
458.176	11564.88
458.381	12146.5
458.587	12238.66
458.793	12953.4
458.999	13088.57
459.204	14657.31
459.41	15040.28
459.616	14839.58
459.821	15640.34
460.027	16252.68
460.233	17379.06
460.438	17276.66
460.644	18298.6
460.85	18441.96
461.055	19154.65
461.261	20188.88
461.466	19562.2
461.672	19982.03
461.878	22318.76
462.083	22322.86
462.289	22632.1
462.494	23680.66
462.7	23459.48
462.905	24030.87
463.111	25890.42
463.316	27414.11
463.522	27547.23
463.727	28382.8
463.932	29576.76
464.138	30715.44
464.343	31802.91
464.549	32286.23
464.754	34260.47
464.959	35212.77
465.165	35681.76
465.37	35538.4
465.575	35513.83
465.781	38098.36
465.986	38966.7
466.191	38583.73
466.397	38722.99
466.602	38063.55
466.807	40043.93
467.012	40885.65
467.218	41385.35
467.423	41383.3
467.628	42808.69
467.833	44957.01
468.038	44103.01
468.244	43492.71
468.449	45712.71
468.654	44451.16
468.859	44569.94
469.064	44696.92
469.269	43722.08
469.474	43750.76
469.679	45421.9
469.885	43740.52
470.09	44977.49
470.295	44830.04
470.5	43928.93
470.705	44438.87
470.91	42636.66
471.115	42501.5
471.32	43431.27
471.525	42956.14
471.73	41526.66
471.935	41856.39
472.139	39933.34
472.344	40045.98
472.549	39765.41
472.754	39321
472.959	38106.55
473.164	37225.93
473.369	36503
473.574	37123.53
473.778	36693.46
473.983	35866.08
474.188	35806.69
474.393	34162.17
474.598	33766.91
474.802	32908.81
475.007	32814.6
475.212	32394.77
475.417	30846.51
475.621	30975.53
475.826	30776.87
476.031	29750.84
476.235	29400.64
476.44	29173.31
476.645	28542.54
476.849	28091.99
477.054	27762.26
477.259	27178.59
477.463	27022.95
477.668	26248.82
477.872	26345.07
478.077	25273.98
478.282	24764.04
478.486	24921.73
478.691	24143.5
478.895	24196.75
479.1	23950.99
479.304	24133.26
479.509	22922.91
479.713	23494.3
479.918	22937.25
480.122	22257.32
480.326	22828.71
480.531	22470.31
480.735	22109.87
480.94	21786.29
481.144	22695.59
481.348	21327.55
481.553	21468.86
481.757	20891.33
481.961	21399.23
482.166	21214.91
482.37	20917.95
482.574	20557.51
482.778	20266.7
482.983	20881.09
483.187	20278.99
483.391	20377.29
483.595	20006.61
483.8	19642.07
484.004	19568.34
484.208	19771.09
484.412	19062.49
484.616	19105.5
484.821	18970.33
485.025	18298.6
485.229	18314.98
485.433	18087.66
485.637	18298.6
485.841	17764.08
486.045	17512.18
486.249	17362.68
486.453	17010.43
486.657	16905.98
486.861	16480
487.065	16080.65
487.269	16076.55
487.473	15609.62
487.677	15701.78
487.881	15748.88
488.085	15281.94
488.289	14962.46
488.493	14487.33
488.697	14815.01
488.901	14270.25
489.105	13842.22
489.309	13694.77
489.512	13584.18
489.716	13352.76
489.92	13166.39
490.124	12625.73
490.328	12719.93
490.531	12433.22
490.735	12326.72
490.939	12003.14
491.143	11732.81
491.346	11650.89
491.55	11519.82
491.754	11296.6
491.958	11095.89
492.161	10927.96
492.365	10778.46
492.569	10655.58
492.772	10356.58
492.976	10313.57
493.18	10057.57
493.383	9918.31
493.587	9961.32
493.79	10012.52
493.994	9619.31
494.197	9478
494.401	9592.69
494.605	9451.38
494.808	9377.65
495.012	9187.19
495.215	9246.58
495.419	9344.88
495.622	9074.55
495.825	9179
496.029	8945.53
496.232	9209.72
496.436	8882.04
496.639	8894.33
496.843	8806.27
497.046	8718.2
497.249	8812.41
497.453	8976.25
497.656	8726.39
497.859	8953.72
498.063	8947.58
498.266	9027.45
498.469	8525.69
498.673	8935.29
498.876	9037.69
499.079	8963.96
499.282	9025.4
499.485	9279.35
499.689	9086.84
499.892	9088.89
500.095	9135.99
500.298	9324.4
500.501	9262.96
500.705	9387.89
500.908	9688.94
501.111	9523.05
501.314	9684.84
501.517	9838.44
501.72	9754.48
501.923	9887.59
502.126	10049.38
502.329	10225.51
502.532	10270.56
502.735	10268.52
502.938	10528.61
503.141	10565.47
503.344	10661.73
503.547	10917.72
503.75	10768.22
503.953	11075.41
504.156	11394.9
504.359	11286.36
504.562	11353.94
504.765	11710.29
504.968	11769.68
505.17	12154.69
505.373	12152.65
505.576	12629.82
505.779	12689.21
505.982	12576.58
506.185	13010.75
506.387	13180.73
506.59	13565.74
506.793	13702.96
506.996	13784.88
507.198	14450.47
507.401	14468.9
507.604	14657.31
507.807	15027.99
508.009	15419.16
508.212	15560.47
508.415	15654.67
508.617	16232.2
508.82	16629.51
509.022	16486.15
509.225	17114.87
509.428	17409.78
509.63	17788.66
509.833	18009.84
510.035	18931.42
510.238	18880.22
510.44	19218.14
510.643	19902.16
510.845	20213.45
511.048	20334.28
511.25	20885.19
511.453	21165.76
511.655	22212.27
511.858	22347.43
512.06	23015.07
512.262	23101.09
512.465	23864.98
512.667	24297.1
512.87	24692.36
513.072	25171.58
513.274	25974.39
513.477	26662.51
513.679	27006.56
513.881	27387.49
514.084	28358.22
514.286	28726.86
514.488	29285.95
514.69	30279.22
514.893	30770.73
515.095	31497.76
515.297	31757.85
515.499	32491.02
515.701	32994.82
515.904	34137.59
516.106	34680.3
516.308	35444.2
516.51	35833.31
516.712	36470.23
516.914	37281.22
517.116	37998.01
517.318	38700.47
517.52	39169.45
517.722	39617.96
517.925	40791.44
518.127	41633.16
518.329	42147.2
518.531	42540.41
518.733	43527.53
518.935	43918.69
519.136	44526.94
519.338	45595.98
519.54	45987.14
519.742	46419.26
519.944	47269.17
520.146	48252.19
520.348	48559.39
520.55	48987.41
520.752	49040.66
520.954	50556.16
521.155	50164.99
521.357	51295.47
521.559	52118.76
521.761	52737.24
521.963	52933.85
522.164	53202.13
522.366	53441.74
522.568	54551.74
522.77	54580.42
522.971	55170.23
523.173	54987.96
523.375	55479.47
523.576	55620.78
523.778	55612.59
523.98	56902.81
524.181	56650.91
524.383	56542.37
524.584	57423
524.786	56829.08
524.988	56882.33
525.189	57336.98
525.391	57476.24
525.592	57369.75
525.794	57379.99
525.995	57291.93
526.197	57150.62
526.398	57212.06
526.6	57197.72
526.801	57373.84
527.003	57119.9
527.204	56902.81
527.406	56919.2
527.607	56456.35
527.808	55981.23
528.01	54897.85
528.211	55469.23
528.412	55749.81
528.614	54777.02
528.815	54817.98
529.016	54973.63
529.218	53605.58
529.419	53556.43
529.62	52870.36
529.822	52499.68
530.023	51776.75
530.224	51731.69
530.425	51451.12
530.626	50410.75
530.828	49784.07
531.029	50386.18
531.23	49050.9
531.431	48921.88
531.632	48295.2
531.833	47910.18
532.035	47418.67
532.236	46927.16
532.437	46415.16
532.638	45317.45
532.839	44916.05
533.04	44647.77
533.241	43505
533.442	43840.87
533.643	43136.37
533.844	42206.59
534.045	41919.87
534.246	41069.97
534.447	40740.24
534.648	40195.48
534.849	39484.84
535.05	39185.83
535.251	38796.72
535.451	37885.37
535.652	37500.36
535.853	36707.79
536.054	36679.12
536.255	35843.55
536.456	35397.09
536.657	35663.33
536.857	34366.96
537.058	34201.08
537.259	34043.38
537.46	33025.54
537.66	32704.01
537.861	32405.01
538.062	31862.3
538.263	31069.73
538.463	31172.13
538.664	30809.64
538.865	30404.14
539.065	30268.98
539.266	29445.69
539.466	29564.48
539.667	28784.2
539.868	28902.98
540.068	28335.7
540.269	27825.75
540.469	27883.09
540.67	27551.32
540.87	27037.28
541.071	26441.32
541.271	26308.21
541.472	26041.97
541.672	25759.35
541.873	25517.69
542.073	24905.35
542.274	25245.31
542.474	24333.96
542.675	24159.89
542.875	24080.02
543.075	23641.75
543.276	23271.07
543.476	23502.49
543.676	22742.69
543.877	23150.24
544.077	22453.93
544.277	22228.65
544.478	21759.67
544.678	21735.09
544.878	21608.12
545.078	21325.5
545.279	20680.39
545.479	20696.77
545.679	20399.82
545.879	20430.54
546.079	20137.68
546.28	19666.64
546.48	19525.33
546.68	19621.59
546.88	19404.5
547.08	19017.44
547.28	18861.79
547.48	18417.38
547.68	18114.28
547.88	17825.52
548.081	18042.6
548.281	17600.24
548.481	17374.97
548.681	17450.74
548.881	17043.2
549.081	16967.42
549.28	16457.48
549.48	16226.06
549.68	16506.63
549.88	16023.31
550.08	15669.01
550.28	15525.65
550.48	15157.02
550.68	15007.51
550.88	14585.63
551.08	14503.71
551.279	14518.05
551.479	14149.42
551.679	14196.52
551.879	13754.16
552.079	13723.44
552.278	13399.86
552.478	13246.26
552.678	12984.12
552.878	13076.28
553.077	12500.8
553.277	12367.68
553.477	12498.75
553.676	11953.99
553.876	11851.6
554.076	11636.56
554.275	11448.15
554.475	11173.72
554.674	11321.17
554.874	11005.78
555.074	10657.63
555.273	10612.57
555.473	10407.78
555.672	10297.19
555.872	10030.95
556.071	9973.61
556.271	10123.11
556.47	9674.6
556.67	9621.36
556.869	9310.07
557.068	9330.55
557.268	9017.21
557.467	9160.56
557.667	8910.71
557.866	8712.06
558.065	8566.65
558.265	8179.59
558.464	8171.4
558.663	8253.31
558.863	7872.39
559.062	8050.57
559.261	7581.58
559.461	7716.75
559.66	7327.63
559.859	7436.17
560.058	7253.91
560.258	7171.99
560.457	7083.92
560.656	6963.09
560.855	6807.45
561.054	6778.78
561.253	6715.29
561.453	6729.63
561.652	6487.96
561.851	6317.98
562.05	6186.91
562.249	6055.84
562.448	6137.76
562.647	5846.95
562.846	5849
563.045	5994.4
563.244	5676.97
563.443	5746.6
563.642	5433.26
563.841	5500.84
564.04	5480.36
564.239	5408.69
564.438	5113.78
564.637	5058.48
564.836	5027.76
565.035	5132.21
565.234	4911.03
565.432	4763.58
565.631	4798.39
565.83	4716.47
566.029	4556.73
566.228	4489.15
566.427	4464.57
566.625	4509.63
566.824	4489.15
567.023	4351.93
567.222	4259.77
567.42	4296.64
567.619	4169.66
567.818	4140.99
568.016	4249.54
568.215	3956.68
568.414	3995.59
568.612	3956.68
568.811	3872.71
569.01	3837.89
569.208	3766.21
569.407	3661.77
569.605	3780.55
569.804	3553.23
570.002	3692.49
570.201	3362.76
570.4	3512.27
570.598	3452.88
570.797	3266.51
570.995	3198.93
571.193	3338.19
571.392	3272.65
571.59	2928.6
571.789	3332.05
571.987	3190.74
572.186	3090.38
572.384	2871.25
572.582	2867.16
572.781	2877.4
572.979	2912.21
573.177	2793.43
573.376	2748.37
573.574	2840.53
573.772	2734.04
573.971	2527.19
574.169	2537.43
574.367	2482.14
574.565	2498.52
574.763	2508.76
574.962	2441.18
575.16	2332.64
575.358	2369.5
575.556	2301.92
575.754	2330.59
575.952	2269.15
576.151	2334.68
576.349	2230.24
576.547	2158.56
576.745	2029.54
576.943	2117.6
577.141	2146.27
577.339	1861.6
577.537	2105.31
577.735	2043.87
577.933	1992.67
578.131	1970.15
578.329	2086.88
578.527	1871.84
578.725	1884.13
578.923	1859.56
579.121	1839.08
579.319	1660.9
579.516	1751.01
579.714	1925.09
579.912	1708.01
580.11	1646.57
580.308	1681.38
580.506	1562.6
580.704	1470.44
580.901	1484.78
581.099	1599.46
581.297	1417.19
581.495	1476.59
581.692	1439.72
581.89	1482.73
582.088	1519.59
582.285	1456.11
582.483	1353.71
582.681	1386.47
582.878	1378.28
583.076	1292.27
583.274	1427.43
583.471	1486.83
583.669	1236.97
583.866	1007.6
584.064	1257.45
584.262	1126.38
584.459	1144.81
584.657	1245.16
584.854	1224.69
585.052	1148.91
585.249	1175.53
585.447	1228.78
585.644	1103.86
585.841	1208.3
586.039	1179.63
586.236	1099.76
586.434	1144.81
586.631	1054.7
586.828	1011.7
587.026	946.16
587.223	978.93
587.42	897.01
587.618	995.31
587.815	1001.46
588.012	1128.43
588.21	923.63
588.407	978.93
588.604	927.73
588.801	929.78
588.999	907.25
589.196	978.93
589.393	815.09
589.59	907.25
589.787	897.01
589.984	880.63
590.182	827.38
590.379	858.1
590.576	880.63
590.773	899.06
590.97	901.11
591.167	796.66
591.364	913.39
591.561	864.24
591.758	862.19
591.955	866.29
592.152	866.29
592.349	878.58
592.546	796.66
592.743	821.24
592.94	813.04
593.137	856.05
593.334	923.63
593.531	772.08
593.727	829.43
593.924	827.38
594.121	915.44
594.318	843.76
594.515	888.82
594.712	964.59
594.908	909.3
595.105	784.37
595.302	929.78
595.499	913.39
595.696	1017.84
595.892	868.34
596.089	960.5
596.286	884.72
596.482	1007.6
596.679	833.52
596.876	1001.46
597.072	1019.89
597.269	1064.94
597.466	1136.62
597.662	1015.79
597.859	1089.52
598.055	1304.56
598.252	1273.84
598.448	1384.43
598.645	1388.52
598.841	1353.71
599.038	1464.3
599.234	1634.28
599.431	1523.69
599.627	1615.85
599.824	1591.27
600.02	1646.57
600.217	1648.61
600.413	1642.47
600.609	1802.21
600.806	2154.46
601.002	1988.58
601.198	1943.52
601.395	2133.98
601.591	2121.7
601.787	2189.28
601.984	2353.12
602.18	2508.76
602.376	2533.34
602.572	2648.02
602.769	2844.63
602.965	2715.61
603.161	2928.6
603.357	2979.79
603.553	3076.05
603.75	2959.31
603.946	3092.43
604.142	3278.8
604.338	3665.86
604.534	3491.79
604.73	3696.58
604.926	3833.8
605.122	4075.46
605.318	4165.57
605.514	4319.17
605.71	4390.85
605.906	4681.66
606.102	4622.27
606.298	4759.48
606.494	4812.73
606.69	5128.11
606.886	5146.55
607.082	5341.1
607.278	5550
607.474	5703.59
607.67	5937.06
607.866	5683.11
608.062	6191.01
608.257	6311.84
608.453	6533.02
608.649	6584.22
608.845	6784.92
609.041	6864.79
609.236	7258
609.432	7462.8
609.628	7460.75
609.824	7788.43
610.019	7790.47
610.215	8136.58
610.411	8513.41
610.606	8490.88
610.802	8732.54
610.998	9138.04
611.193	9428.85
611.389	9088.89
611.584	9936.74
611.78	10024.81
611.976	10178.4
612.171	10643.29
612.367	10856.28
612.562	11249.49
612.758	11245.4
612.953	11558.74
613.149	12005.19
613.344	12160.84
613.539	12773.18
613.735	12859.2
613.93	13285.17
614.126	13498.16
614.321	13754.16
614.517	14581.54
614.712	14434.08
614.907	15044.38
615.103	15621.91
615.298	15709.97
615.493	16297.74
615.688	16369.41
615.884	17118.97
616.079	17305.34
616.274	18020.08
616.47	18173.67
616.665	18601.7
616.86	19052.25
617.055	19535.57
617.25	19820.24
617.445	20852.42
617.641	20805.31
617.836	21876.4
618.031	21808.82
618.226	22945.44
618.421	23248.54
618.616	23641.75
618.811	24100.5
619.006	25052.8
619.201	25013.89
619.396	26013.3
619.591	25941.62
619.786	27360.86
619.981	27391.58
620.176	28249.68
620.371	28560.97
620.566	29318.72
620.761	29972.02
620.956	30449.2
621.151	30617.13
621.346	31776.28
621.541	31938.07
621.735	32622.09
621.93	32988.68
622.125	33705.47
622.32	34661.87
622.515	35524.07
622.709	35296.74
622.904	36425.17
623.099	37006.8
623.294	37846.46
623.488	37977.53
623.683	39183.79
623.878	39085.48
624.072	40048.03
624.267	40519.06
624.462	41002.38
624.656	41915.78
624.851	42616.18
625.046	43081.07
625.24	43748.71
625.435	43912.55
625.629	44932.43
625.824	44887.38
626.018	46144.83
626.213	45733.19
626.407	46886.2
626.602	46531.9
626.796	47969.57
626.991	47768.87
627.185	48530.72
627.38	48971.03
627.574	49425.68
627.768	49427.73
627.963	49429.77
628.157	49616.14
628.352	50005.25
628.546	49505.55
628.74	50308.35
628.935	49603.85
629.129	50046.21
629.323	49329.42
629.517	49704.2
629.712	48923.93
629.906	48637.21
630.1	47899.94
630.294	48166.18
630.489	47465.77
630.683	46892.34
630.877	45847.88
631.071	45413.71
631.265	44637.53
631.459	44094.82
631.653	42814.83
631.848	42294.65
632.042	41301.39
632.236	40314.26
632.43	39052.72
632.624	38364.6
632.818	37037.51
633.012	35644.9
633.206	34557.42
633.4	33871.36
633.594	32458.26
633.788	31725.08
633.982	30711.34
634.176	29478.46
634.369	28268.11
634.563	27252.32
634.757	26312.3
634.951	25773.69
635.145	24479.37
635.339	23570.07
635.533	22265.52
635.726	21628.6
635.92	20674.24
636.114	19744.47
636.308	18861.79
636.501	18554.6
636.695	17569.52
636.889	16533.25
637.083	15920.91
637.276	15265.56
637.47	14855.97
637.664	14223.14
637.857	13721.39
638.051	13401.91
638.244	12711.74
638.438	12275.52
638.632	11587.41
638.825	11206.48
639.019	10717.02
639.212	10276.71
639.406	9883.5
639.599	9434.99
639.793	9224.05
639.986	8744.83
640.18	8380.29
640.373	8212.35
640.567	7772.04
640.76	7571.34
640.954	7264.15
641.147	6899.61
641.34	6721.43
641.534	6455.2
641.727	6227.87
641.92	6090.66
642.114	5679.02
642.307	5427.12
642.5	5363.63
642.694	5066.67
642.887	4990.9
643.08	4687.8
643.273	4534.2
643.467	4417.47
643.66	4253.63
643.853	3911.62
644.046	3987.4
644.239	3688.39
644.432	3508.17
644.626	3303.37
644.819	3362.76
645.012	3243.98
645.205	3176.4
645.398	2987.99
645.591	2846.68
645.784	2668.5
645.977	2566.1
646.17	2539.48
646.363	2486.23
646.556	2320.35
646.749	2146.27
646.942	2252.77
647.135	2222.05
647.328	1912.8
647.521	2129.89
647.714	1755.11
647.907	1789.92
648.099	1640.42
648.292	1773.54
648.485	1644.52
648.678	1535.98
648.871	1531.88
649.064	1519.59
649.256	1347.56
649.449	1263.6
649.642	1179.63
649.835	1216.49
650.027	1124.33
650.22	1206.25
650.413	1128.43
650.605	1167.34
650.798	1066.99
650.991	905.2
651.183	1052.66
651.376	944.11
651.568	962.55
651.761	870.39
651.954	851.95
652.146	792.56
652.339	835.57
652.531	917.49
652.724	743.41
652.916	696.31
653.109	608.25
653.301	780.28
653.494	745.46
653.686	710.65
653.879	739.32
654.071	647.16
654.263	598.01
654.456	565.24
654.648	618.49
654.84	565.24
655.033	530.42
655.225	634.87
655.417	479.22
655.61	610.29
655.802	602.1
655.994	540.66
656.186	399.35
656.379	534.52
656.571	391.16
656.763	464.89
656.955	450.55
657.148	387.07
657.34	534.52
657.532	436.22
657.724	389.11
657.916	448.51
658.108	413.69
658.3	395.26
658.492	387.07
658.684	356.35
658.876	407.55
659.068	319.48
659.26	221.18
659.452	223.23
659.644	333.82
659.836	468.98
660.028	278.52
660.22	303.1
660.412	372.73
660.604	382.97
660.796	309.24
660.988	372.73
661.18	276.48
661.372	352.25
661.563	305.15
661.755	272.38
661.947	229.37
662.139	258.04
662.331	294.91
662.522	350.2
662.714	176.13
662.906	196.6
663.097	258.04
663.289	212.99
663.481	145.41
663.673	266.24
663.864	180.22
664.056	321.53
664.247	237.56
664.439	329.72
664.631	247.8
664.822	387.07
665.014	190.46
665.205	243.71
665.397	196.6
665.588	235.52
665.78	296.96
665.971	208.89
666.163	215.04
666.354	223.23
666.546	153.6
666.737	180.22
666.929	151.55
667.12	180.22
667.311	215.04
667.503	210.94
667.694	219.13
667.885	176.13
668.077	256
668.268	69.63
668.459	161.79
668.651	186.37
668.842	180.22
669.033	143.36
669.224	110.59
669.416	342.01
669.607	161.79
669.798	120.83
669.989	317.44
670.18	129.02
670.371	241.66
670.563	110.59
670.754	292.86
670.945	251.9
671.136	256
671.327	153.6
671.518	286.72
671.709	307.2
671.9	262.14
672.091	284.67
672.282	229.37
672.473	223.23
672.664	178.17
672.855	133.12
673.046	204.8
673.237	258.04
673.428	165.89
673.619	325.63
673.809	223.23
674	235.52
674.191	217.08
674.382	194.56
674.573	206.84
674.764	202.75
674.954	282.62
675.145	129.02
675.336	196.6
675.527	223.23
675.717	176.13
675.908	188.41
676.099	212.99
676.289	231.42
676.48	86.01
676.671	262.14
676.861	151.55
677.052	204.8
677.243	186.37
677.433	215.04
677.624	235.52
677.814	294.91
678.005	264.19
678.195	385.02
678.386	202.75
678.576	274.43
678.767	116.73
678.957	280.57
679.148	339.96
679.338	354.3
679.529	247.8
679.719	270.33
679.909	366.59
680.1	321.53
680.29	372.73
680.481	247.8
680.671	321.53
680.861	282.62
681.052	278.52
681.242	184.32
681.432	339.96
681.622	243.71
681.813	231.42
682.003	294.91
682.193	163.84
682.383	360.44
682.573	186.37
682.764	272.38
682.954	307.2
683.144	327.67
683.334	202.75
683.524	350.2
683.714	364.54
683.904	378.87
684.094	301.05
684.284	251.9
684.474	393.21
684.664	321.53
684.854	339.96
685.044	315.39
685.234	303.1
685.424	389.11
685.614	247.8
685.804	415.74
685.994	292.86
686.184	352.25
686.374	339.96
686.564	348.15
686.753	432.12
686.943	215.04
687.133	251.9
687.323	284.67
687.513	346.11
687.702	327.67
687.892	366.59
688.082	419.83
688.272	323.58
688.461	313.34
688.651	440.31
688.841	358.39
689.03	282.62
689.22	276.48
689.41	407.55
689.599	432.12
689.789	251.9
689.979	464.89
690.168	225.28
690.358	407.55
690.547	264.19
690.737	270.33
690.926	217.08
691.116	378.87
691.305	309.24
691.495	321.53
691.684	237.56
691.874	292.86
692.063	292.86
692.252	358.39
692.442	301.05
692.631	256
692.82	229.37
693.01	366.59
693.199	350.2
693.388	348.15
693.578	264.19
693.767	419.83
693.956	245.76
694.146	272.38
694.335	380.92
694.524	315.39
694.713	313.34
694.902	192.51
695.092	219.13
695.281	301.05
695.47	307.2
695.659	227.32
695.848	245.76
696.037	184.32
696.226	284.67
696.415	292.86
696.604	405.5
696.793	362.49
696.982	225.28
697.171	403.45
697.36	239.61
697.549	264.19
697.738	167.93
697.927	305.15
698.116	210.94
698.305	249.85
698.494	288.76
698.683	280.57
698.872	419.83
699.061	286.72
699.25	210.94
699.438	317.44
699.627	202.75
699.816	403.45
700.005	194.56
700.193	202.75
700.382	299
700.571	268.28
700.76	231.42
700.948	329.72
701.137	233.47
701.326	282.62
701.514	225.28
701.703	282.62
701.892	237.56
702.08	481.27
702.269	260.09
702.457	184.32
702.646	227.32
702.834	262.14
703.023	243.71
703.212	376.83
703.4	247.8
703.589	137.21
703.777	227.32
703.965	180.22
704.154	249.85
704.342	229.37
704.531	266.24
704.719	243.71
704.907	401.4
705.096	206.84
705.284	237.56
705.472	323.58
705.661	227.32
705.849	321.53
706.037	372.73
706.226	223.23
706.414	294.91
706.602	256
706.79	294.91
706.979	141.31
707.167	190.46
707.355	124.93
707.543	399.35
707.731	315.39
707.919	301.05
708.107	290.81
708.296	274.43
708.484	227.32
708.672	354.3
708.86	321.53
709.048	270.33
709.236	194.56
709.424	313.34
709.612	294.91
709.8	163.84
709.988	241.66
710.176	290.81
710.364	454.65
710.551	196.6
710.739	274.43
710.927	292.86
711.115	286.72
711.303	325.63
711.491	344.06
711.679	196.6
711.866	411.64
712.054	274.43
712.242	268.28
712.43	374.78
712.617	292.86
712.805	315.39
712.993	253.95
713.181	227.32
713.368	315.39
713.556	339.96
713.744	278.52
713.931	413.69
714.119	253.95
714.306	325.63
714.494	227.32
714.682	233.47
714.869	149.5
715.057	253.95
715.244	129.02
715.432	253.95
715.619	245.76
715.807	194.56
715.994	264.19
716.182	321.53
716.369	356.35
716.556	329.72
716.744	174.08
716.931	188.41
717.119	344.06
717.306	290.81
717.493	280.57
717.681	190.46
717.868	253.95
718.055	317.44
718.242	266.24
718.43	317.44
718.617	382.97
718.804	296.96
718.991	393.21
719.179	278.52
719.366	325.63
719.553	309.24
719.74	225.28
719.927	264.19
720.114	333.82
720.301	223.23
720.488	186.37
720.676	212.99
720.863	352.25
721.05	421.88
721.237	333.82
721.424	249.85
721.611	219.13
721.798	270.33
721.985	237.56
722.172	299
722.358	229.37
722.545	366.59
722.732	323.58
722.919	356.35
723.106	307.2
723.293	294.91
723.48	348.15
723.667	278.52
723.853	397.31
724.04	233.47
724.227	385.02
724.414	337.91
724.6	325.63
724.787	378.87
724.974	432.12
725.161	288.76
725.347	301.05
725.534	333.82
725.72	323.58
725.907	323.58
726.094	419.83
726.28	294.91
726.467	274.43
726.653	307.2
726.84	401.4
727.027	456.7
727.213	309.24
727.4	376.83
727.586	348.15
727.773	286.72
727.959	262.14
728.145	348.15
728.332	256
728.518	229.37
728.705	307.2
728.891	376.83
729.077	315.39
729.264	192.51
729.45	301.05
729.636	413.69
729.823	337.91
730.009	417.79
730.195	391.16
730.382	301.05
730.568	217.08
730.754	362.49
730.94	348.15
731.126	262.14
731.313	421.88
731.499	264.19
731.685	366.59
731.871	335.87
732.057	309.24
732.243	421.88
732.429	452.6
732.615	462.84
732.801	401.4
732.987	409.59
733.173	360.44
733.359	253.95
733.545	458.74
733.731	344.06
733.917	436.22
734.103	266.24
734.289	319.48
734.475	219.13
734.661	483.32
734.847	354.3
735.033	352.25
735.219	382.97
735.404	329.72
735.59	290.81
735.776	282.62
735.962	423.93
736.148	370.68
736.333	413.69
736.519	411.64
736.705	311.29
736.89	448.51
737.076	382.97
737.262	317.44
737.447	307.2
737.633	331.77
737.819	356.35
738.004	473.08
738.19	368.63
738.375	378.87
738.561	452.6
738.747	456.7
738.932	317.44
739.118	436.22
739.303	434.17
739.489	417.79
739.674	434.17
739.859	286.72
740.045	389.11
740.23	372.73
740.416	239.61
740.601	452.6
740.786	321.53
740.972	237.56
741.157	290.81
741.342	284.67
741.528	290.81
741.713	360.44
741.898	325.63
742.084	219.13
742.269	276.48
742.454	417.79
742.639	376.83
742.824	387.07
743.01	407.55
743.195	421.88
743.38	432.12
743.565	339.96
743.75	333.82
743.935	342.01
744.12	374.78
744.305	192.51
744.49	280.57
744.675	280.57
744.86	372.73
745.045	415.74
745.23	323.58
745.415	432.12
745.6	399.35
745.785	319.48
745.97	444.41
746.155	378.87
746.34	440.31
746.525	294.91
746.71	419.83
746.895	157.69
747.079	264.19
747.264	303.1
747.449	401.4
747.634	364.54
747.819	323.58
748.003	231.42
748.188	249.85
748.373	397.31
748.557	325.63
748.742	247.8
748.927	270.33
749.111	258.04
749.296	288.76
749.481	303.1
749.665	325.63
749.85	180.22
750.034	266.24
750.219	323.58
750.404	251.9
750.588	274.43
750.773	274.43
750.957	296.96
751.141	251.9
751.326	350.2
751.51	188.41
751.695	225.28
751.879	264.19
752.064	354.3
752.248	227.32
752.432	382.97
752.617	188.41
752.801	348.15
752.985	221.18
753.17	350.2
753.354	233.47
753.538	253.95
753.722	235.52
753.907	192.51
754.091	169.98
754.275	292.86
754.459	182.27
754.643	161.79
754.828	237.56
755.012	303.1
755.196	190.46
755.38	215.04
755.564	188.41
755.748	219.13
755.932	313.34
756.116	303.1
756.3	284.67
756.484	227.32
756.668	266.24
756.852	94.21
757.036	215.04
757.22	268.28
757.404	178.17
757.588	182.27
757.772	196.6
757.956	235.52
758.14	313.34
758.323	151.55
758.507	274.43
758.691	184.32
758.875	274.43
759.059	249.85
759.242	151.55
759.426	151.55
759.61	198.65
759.794	90.11
759.977	292.86
760.161	368.63
760.345	292.86
760.528	311.29
760.712	243.71
760.895	184.32
761.079	198.65
761.263	126.97
761.446	90.11
761.63	157.69
761.813	223.23
761.997	143.36
762.18	229.37
762.364	141.31
762.547	104.45
762.731	219.13
762.914	135.17
763.098	120.83
763.281	110.59
763.464	86.01
763.648	249.85
763.831	169.98
764.015	79.87
764.198	262.14
764.381	143.36
764.564	206.84
764.748	278.52
764.931	120.83
765.114	24.58
765.297	243.71
765.481	40.96
765.664	94.21
765.847	90.11
766.03	223.23
766.213	106.49
766.397	137.21
766.58	81.92
766.763	184.32
766.946	86.01
767.129	108.54
767.312	90.11
767.495	163.84
767.678	155.65
767.861	65.53
768.044	116.73
768.227	69.63
768.41	155.65
768.593	190.46
768.776	147.45
768.959	165.89
769.142	256
769.324	139.26
769.507	176.13
769.69	106.49
769.873	57.34
770.056	262.14
770.239	169.98
770.421	212.99
770.604	131.07
770.787	120.83
770.97	118.78
771.152	53.25
771.335	176.13
771.518	75.77
771.7	212.99
771.883	196.6
772.066	157.69
772.248	116.73
772.431	192.51
772.613	184.32
772.796	210.94
772.978	116.73
773.161	221.18
773.343	75.77
773.526	71.68
773.708	14.34
773.891	-4.1
774.073	83.97
774.256	122.88
774.438	237.56
774.621	24.58
774.803	118.78
774.985	47.1
775.168	133.12
775.35	71.68
775.532	112.64
775.715	45.06
775.897	178.17
776.079	30.72
776.261	92.16
776.444	141.31
776.626	71.68
776.808	16.38
776.99	-14.34
777.173	143.36
777.355	98.3
777.537	53.25
777.719	83.97
777.901	141.31
778.083	36.86
778.265	71.68
778.447	139.26
778.629	63.49
778.811	67.58
778.993	141.31
779.175	135.17
779.357	124.93
779.539	6.14
779.721	65.53
779.903	43.01
780.085	36.86
780.267	108.54
780.449	126.97
780.631	102.4
780.812	137.21
780.994	90.11
781.176	34.82
781.358	143.36
781.54	100.35
781.721	110.59
781.903	96.25
782.085	96.25
782.267	106.49
782.448	4.1
782.63	-4.1
782.812	137.21
782.993	92.16
783.175	157.69
783.357	26.62
783.538	96.25
783.72	34.82
783.901	100.35
784.083	122.88
784.264	151.55
784.446	-47.1
784.627	10.24
784.809	137.21
784.99	59.39
785.172	167.93
785.353	-6.14
785.535	100.35
785.716	-24.58
785.897	10.24
786.079	34.82
786.26	110.59
786.441	98.3
786.623	18.43
786.804	-6.14
786.985	26.62
787.167	77.82
787.348	-75.77
787.529	2.05
787.71	120.83
787.891	65.53
788.073	-12.29
788.254	-67.58
788.435	167.93
788.616	118.78
788.797	-73.73
788.978	-16.38
789.159	55.3
789.34	38.91
789.522	61.44
789.703	26.62
789.884	43.01
790.065	106.49
790.246	190.46
790.427	-30.72
790.607	137.21
790.788	133.12
790.969	-20.48
791.15	96.25
791.331	129.02
791.512	-14.34
791.693	-28.67
791.874	-75.77
792.054	147.45
792.235	112.64
792.416	26.62
792.597	-30.72
792.778	120.83
792.958	141.31
793.139	26.62
793.32	36.86
793.5	-43.01
793.681	165.89
793.862	12.29
794.042	102.4
794.223	4.1
794.404	40.96
794.584	-32.77
794.765	28.67
794.945	30.72
795.126	145.41
795.306	137.21
795.487	65.53
795.667	12.29
795.848	14.34
796.028	-2.05
796.209	30.72
796.389	120.83
796.57	120.83
796.75	47.1
796.93	55.3
797.111	8.19
797.291	12.29
797.471	73.73
797.652	-22.53
797.832	4.1
798.012	98.3
798.192	10.24
798.373	-18.43
798.553	118.78
798.733	43.01
798.913	32.77
799.093	14.34
799.274	-26.62
799.454	141.31
799.634	120.83
799.814	65.53
799.994	28.67
800.174	116.73
800.354	86.01
800.534	-100.35
800.714	112.64
800.894	-28.67
801.074	-104.45
801.254	28.67
801.434	159.74
801.614	40.96
801.794	-61.44
801.974	1902.56
802.154	34.82
802.334	73.73
802.514	-75.77
802.693	16.38
802.873	6.14
803.053	100.35
803.233	124.93
803.413	-6.14
803.592	86.01
803.772	34.82
803.952	-20.48
804.131	-30.72
804.311	102.4
804.491	135.17
804.67	-61.44
804.85	-47.1
805.03	22.53
805.209	61.44
805.389	88.06
805.568	2.05
805.748	51.2
805.928	28.67
806.107	108.54
806.287	94.21
806.466	174.08
806.646	-0
806.825	61.44
807.004	-36.86
807.184	-14.34
807.363	96.25
807.543	28.67
807.722	-49.15
807.901	22.53
808.081	51.2
808.26	-59.39
808.439	79.87
808.619	12.29
808.798	51.2
808.977	-16.38
809.156	71.68
809.336	53.25
809.515	83.97
809.694	-106.49
809.873	-129.02
810.052	61.44
810.231	112.64
810.411	10.24
810.59	194.56
810.769	-26.62
810.948	69.63
811.127	-75.77
811.306	-20.48
811.485	-65.54
811.664	118.78
811.843	43.01
812.022	49.15
812.201	14.34
812.38	-24.58
812.559	-47.1
812.737	12.29
812.916	-112.64
813.095	-40.96
813.274	51.2
813.453	38.91
813.632	47.1
813.811	32.77
813.989	-38.91
814.168	133.12
814.347	-67.58
814.526	18.43
814.704	118.78
814.883	120.83
815.062	-59.39
815.24	34.82
815.419	-75.77
815.598	40.96
815.776	-106.49
815.955	-16.38
816.133	-126.97
816.312	-47.1
816.49	2.05
816.669	51.2
816.847	69.63
817.026	53.25
817.204	-14.34
817.383	-83.97
817.561	-36.86
817.74	83.97
817.918	65.53
818.097	26.62
818.275	-77.82
818.453	53.25
818.632	75.77
818.81	-18.43
818.988	-65.54
819.167	-38.91
819.345	49.15
819.523	-45.06
819.701	26.62
819.879	57.34
820.058	10.24
820.236	36.86
820.414	-24.58
820.592	-90.11
820.77	-12.29
820.948	-61.44
821.127	-12.29
821.305	20.48
821.483	-157.69
821.661	20.48
821.839	30.72
822.017	-6.14
822.195	-14.34
822.373	100.35
822.551	-2.05
822.729	126.97
822.907	24.58
823.085	165.89
823.262	124.93
823.44	-12.29
823.618	10.24
823.796	59.39
823.974	-6.14
824.152	-8.19
824.329	-28.67
824.507	-0
824.685	8.19
824.863	-4.1
825.04	45.06
825.218	55.3
825.396	22.53
825.574	10.24
825.751	14.34
825.929	-28.67
826.107	-18.43
826.284	57.34
826.462	-12.29
826.639	14.34
826.817	-90.11
826.994	-2.05
827.172	-43.01
827.349	147.45
827.527	12.29
827.704	8.19
827.882	163.84
828.059	38.91
828.237	-43.01
828.414	69.63
828.591	-55.3
828.769	12.29
828.946	-63.49
829.124	59.39
829.301	129.02
829.478	2.05
829.655	-4.1
829.833	40.96
830.01	-92.16
830.187	43.01
830.364	-57.34
830.542	88.06
830.719	114.69
830.896	26.62
831.073	28.67
831.25	57.34
831.427	137.21
831.604	-12.29
831.782	-81.92
831.959	32.77
832.136	-16.38
832.313	12.29
832.49	-67.58
832.667	65.53
832.844	-8.19
833.021	94.21
833.198	49.15
833.374	92.16
833.551	63.49
833.728	-83.97
833.905	79.87
834.082	-118.78
834.259	59.39
834.436	45.06
834.612	-20.48
834.789	112.64
834.966	16.38
835.143	40.96
835.319	-61.44
835.496	100.35
835.673	28.67
835.85	86.01
836.026	36.86
836.203	116.73
836.38	-14.34
836.556	-18.43
836.733	-65.54
836.909	139.26
837.086	-57.34
837.262	-57.34
837.439	-12.29
837.616	43.01
837.792	65.53
837.968	102.4
838.145	-151.55
838.321	-12.29
838.498	4.1
838.674	90.11
838.851	49.15
839.027	-43.01
839.203	-12.29
839.38	45.06
839.556	10.24
839.732	12.29
839.909	59.39
840.085	45.06
840.261	-51.2
840.437	110.59
840.614	-47.1
840.79	47.1
840.966	-34.82
841.142	-49.15
841.318	-28.67
841.494	49.15
841.671	77.82
841.847	-88.06
842.023	-28.67
842.199	20.48
842.375	118.78
842.551	-116.73
842.727	6.14
842.903	94.21
843.079	-38.91
843.255	116.73
843.431	-22.53
843.607	30.72
843.783	-92.16
843.959	83.97
844.134	-71.68
844.31	159.74
844.486	-8.19
844.662	-12.29
844.838	12.29
845.013	81.92
845.189	108.54
845.365	83.97
845.541	38.91
845.716	6.14
845.892	32.77
846.068	-49.15
846.244	-8.19
846.419	-2.05
846.595	-26.62
846.77	-73.73
846.946	20.48
847.122	2.05
847.297	-30.72
847.473	186.37
847.648	-47.1
847.824	114.69
847.999	-24.58
848.175	73.73
848.35	40.96
848.526	104.45
848.701	112.64
848.876	151.55
849.052	88.06
849.227	75.77
849.403	71.68
849.578	-4.1
849.753	38.91
849.929	-0
850.104	-4.1
850.279	81.92
850.454	16.38
850.63	-12.29
850.805	88.06
850.98	10.24
851.155	12.29
851.33	-18.43
851.505	34.82
851.681	73.73
851.856	-45.06
852.031	-18.43
852.206	10.24
852.381	-36.86
852.556	-49.15
852.731	98.3
852.906	92.16
853.081	24.58
853.256	110.59
853.431	-28.67
853.606	-12.29
853.781	-77.82
853.956	-157.69
854.131	-26.62
854.305	26.62
854.48	-24.58
854.655	-16.38
854.83	14.34
855.005	40.96
855.18	40.96
855.354	-65.54
855.529	-0
855.704	-57.34
855.879	28.67
856.053	18.43
856.228	-12.29
856.403	-30.72
856.577	61.44
856.752	-81.92
856.926	34.82
857.101	47.1
857.276	-26.62
857.45	-24.58
857.625	83.97
857.799	28.67
857.974	8.19
858.148	-100.35
858.323	34.82
858.497	30.72
858.672	-45.06
858.846	-24.58
859.02	63.49
859.195	-34.82
859.369	75.77
859.543	18.43
859.718	10.24
859.892	30.72
860.066	40.96
860.241	-20.48
860.415	-32.77
860.589	28.67
860.763	-10.24
860.938	36.86
861.112	40.96
861.286	-14.34
861.46	53.25
861.634	38.91
861.808	67.58
861.982	-12.29
862.157	-92.16
862.331	-6.14
862.505	-98.3
862.679	-32.77
862.853	-40.96
863.027	-40.96
863.201	141.31
863.375	-61.44
863.549	-36.86
863.722	88.06
863.896	141.31
864.07	-83.97
864.244	28.67
864.418	8.19
864.592	-102.4
864.766	-57.34
864.939	83.97
865.113	-51.2
865.287	114.69
865.461	-16.38
865.634	86.01
865.808	-22.53
865.982	47.1
866.156	-49.15
866.329	-75.77
866.503	16.38
866.676	81.92
866.85	-28.67
867.024	-108.54
867.197	32.77
867.371	73.73
867.544	100.35
867.718	-81.92
867.891	79.87
868.065	-40.96
868.238	-8.19
868.412	77.82
868.585	-12.29
868.759	-12.29
868.932	-53.25
869.105	-94.21
869.279	12.29
869.452	2.05
869.625	61.44
869.799	45.06
869.972	-32.77
870.145	57.34
870.319	8.19
870.492	-98.3
870.665	-36.86
870.838	-26.62
871.011	-116.73
871.185	-16.38
871.358	-8.19
871.531	79.87
871.704	53.25
871.877	8.19
872.05	-2.05
872.223	-55.3
872.396	131.07
872.569	71.68
872.742	-133.12
872.915	63.49
873.088	-65.54
873.261	-77.82
873.434	20.48
873.607	-12.29
873.78	55.3
873.953	-59.39
874.126	43.01
874.299	8.19
874.471	16.38
874.644	-4.1
874.817	98.3
874.99	186.37
875.163	-86.01
875.335	92.16
875.508	-14.34
875.681	73.73
875.853	-92.16
876.026	86.01
876.199	2.05
876.371	43.01
876.544	30.72
876.717	49.15
876.889	-88.06
877.062	30.72
877.234	-2.05
877.407	-49.15
877.579	24.58
877.752	32.77
877.924	36.86
878.097	20.48
878.269	-49.15
878.442	59.39
878.614	114.69
878.786	-53.25
878.959	30.72
879.131	24.58
879.303	-149.5
879.476	18.43
879.648	157.69
879.82	-26.62
879.993	-12.29
880.165	16.38
880.337	-28.67
880.509	47.1
880.681	-77.82
880.854	36.86
881.026	47.1
881.198	120.83
881.37	-59.39
881.542	40.96
881.714	-88.06
881.886	-20.48
882.058	-55.3
882.23	-14.34
882.402	16.38
882.574	34.82
882.746	20.48
882.918	124.93
883.09	-4.1
883.262	24.58
883.434	-67.58
883.606	-51.2
883.778	-75.77
883.95	133.12
884.122	-4.1
884.293	75.77
884.465	36.86
884.637	59.39
884.809	-36.86
884.98	38.91
885.152	-6.14
885.324	120.83
885.496	-96.25
885.667	-14.34
885.839	16.38
886.011	196.6
886.182	10.24
886.354	81.92
886.525	-2.05
886.697	36.86
886.869	-28.67
887.04	-102.4
887.212	190.46
887.383	14.34
887.555	-8.19
887.726	-38.91
887.897	-67.58
888.069	12.29
888.24	88.06
888.412	63.49
888.583	43.01
888.754	-0
888.926	-104.45
889.097	-32.77
889.268	-61.44
889.44	36.86
889.611	-88.06
889.782	-79.87
889.953	-77.82
890.125	98.3
890.296	-32.77
890.467	81.92
890.638	-102.4
890.809	-40.96
890.98	-61.44
891.151	32.77
891.323	120.83
891.494	-12.29
891.665	22.53
891.836	-12.29
892.007	53.25
892.178	4.1
892.349	22.53
892.52	-43.01
892.691	-30.72
892.862	61.44
893.032	-92.16
893.203	-32.77
893.374	49.15
893.545	94.21
893.716	30.72
893.887	116.73
894.057	-14.34
894.228	-53.25
894.399	16.38
894.57	65.53
894.74	47.1
894.911	45.06
895.082	-59.39
895.253	12.29
895.423	51.2
895.594	49.15
895.764	-49.15
895.935	24.58
896.106	32.77
896.276	-63.49
896.447	-40.96
896.617	-81.92
896.788	-40.96
896.958	-47.1
897.129	-47.1
897.299	18.43
897.47	118.78
897.64	24.58
897.81	-8.19
897.981	75.77
898.151	-71.68
898.322	59.39
898.492	-4.1
898.662	-57.34
898.832	30.72
899.003	28.67
899.173	106.49
899.343	-98.3
899.513	-53.25
