Data from USB4F104151__192__11-05-22-632.txt Node

Date: Wed Feb 26 11:05:22 EST 2025
User: louis
Spectrometer: USB4F10415
Trigger mode: 4
Integration Time (sec): 1.000000E-1
Scans to average: 1
Electric dark correction enabled: true
Nonlinearity correction enabled: false
Boxcar width: 0
XAxis mode: Wavelengths
Number of Pixels in Spectrum: 3648
>>>>>Begin Spectral Data<<<<<
178.204	-384.51
178.424	-384.51
178.644	-384.51
178.864	-398.84
179.084	-331.26
179.304	25.09
179.524	-87.55
179.744	-56.83
179.964	43.52
180.184	-50.69
180.404	94.72
180.624	-13.82
180.844	23.04
181.064	-81.41
181.283	70.14
181.503	-26.11
181.723	59.9
181.943	-128.51
182.163	231.93
182.383	-36.35
182.602	84.48
182.822	176.64
183.042	113.15
183.262	39.42
183.482	76.29
183.701	78.33
183.921	49.66
184.141	-11.78
184.361	107.01
184.58	74.24
184.8	53.76
185.02	14.85
185.239	96.77
185.459	74.24
185.679	78.33
185.898	-97.79
186.118	53.76
186.338	143.87
186.557	225.79
186.777	-73.21
186.997	43.52
187.216	66.05
187.436	252.41
187.655	45.57
187.875	143.87
188.095	72.19
188.314	125.44
188.534	86.53
188.753	-3.58
188.973	129.53
189.192	113.15
189.412	88.57
189.631	82.43
189.851	80.38
190.07	193.02
190.29	16.9
190.509	8.7
190.729	57.86
190.948	158.21
191.168	252.41
191.387	23.04
191.607	39.42
191.826	82.43
192.045	-34.3
192.265	12.8
192.484	49.66
192.704	90.62
192.923	23.04
193.142	96.77
193.362	166.4
193.581	164.35
193.8	84.48
194.02	37.38
194.239	41.47
194.458	72.19
194.678	37.38
194.897	72.19
195.116	94.72
195.335	80.38
195.555	35.33
195.774	29.18
195.993	109.05
196.212	0.51
196.432	18.94
196.651	-3.58
196.87	47.62
197.089	279.04
197.308	68.09
197.528	78.33
197.747	-65.02
197.966	90.62
198.185	129.53
198.404	-46.59
198.623	16.9
198.842	127.49
199.062	152.06
199.281	64
199.5	-11.78
199.719	59.9
199.938	121.34
200.157	125.44
200.376	66.05
200.595	145.92
200.814	47.62
201.033	16.9
201.252	131.58
201.471	119.29
201.69	47.62
201.909	39.42
202.128	129.53
202.347	117.25
202.566	90.62
202.785	-69.12
203.004	-32.26
203.223	231.93
203.442	139.77
203.661	-24.06
203.879	57.86
204.098	195.07
204.317	-69.12
204.536	113.15
204.755	84.48
204.974	29.18
205.193	8.7
205.411	147.97
205.63	152.06
205.849	59.9
206.068	16.9
206.287	-19.97
206.505	115.2
206.724	39.42
206.943	84.48
207.162	20.99
207.381	117.25
207.599	-1.54
207.818	29.18
208.037	-54.78
208.255	72.19
208.474	94.72
208.693	94.72
208.911	70.14
209.13	66.05
209.349	78.33
209.567	37.38
209.786	20.99
210.005	131.58
210.223	6.66
210.442	-75.26
210.661	33.28
210.879	47.62
211.098	12.8
211.316	64
211.535	104.96
211.753	37.38
211.972	150.01
212.191	-13.82
212.409	2.56
212.628	76.29
212.846	-15.87
213.065	117.25
213.283	125.44
213.502	80.38
213.72	100.86
213.938	-13.82
214.157	61.95
214.375	176.64
214.594	117.25
214.812	41.47
215.031	-52.74
215.249	111.1
215.467	109.05
215.686	104.96
215.904	53.76
216.122	115.2
216.341	205.31
216.559	156.16
216.778	68.09
216.996	86.53
217.214	45.57
217.432	12.8
217.651	-79.36
217.869	43.52
218.087	100.86
218.306	76.29
218.524	49.66
218.742	20.99
218.96	70.14
219.179	70.14
219.397	2.56
219.615	207.36
219.833	172.54
220.051	12.8
220.27	96.77
220.488	129.53
220.706	49.66
220.924	20.99
221.142	16.9
221.36	59.9
221.578	78.33
221.796	-15.87
222.015	41.47
222.233	53.76
222.451	215.55
222.669	-40.45
222.887	86.53
223.105	-3.58
223.323	64
223.541	-15.87
223.759	14.85
223.977	86.53
224.195	168.45
224.413	100.86
224.631	49.66
224.849	27.14
225.067	227.84
225.285	66.05
225.503	12.8
225.721	-151.04
225.939	102.91
226.157	45.57
226.375	199.16
226.592	-11.78
226.81	64
227.028	119.29
227.246	125.44
227.464	72.19
227.682	170.49
227.9	96.77
228.117	123.39
228.335	98.81
228.553	47.62
228.771	27.14
228.989	-1.54
229.206	39.42
229.424	31.23
229.642	8.7
229.86	-65.02
230.077	170.49
230.295	92.67
230.513	145.92
230.731	133.63
230.948	178.69
231.166	133.63
231.384	53.76
231.601	25.09
231.819	225.79
232.037	-71.17
232.254	-56.83
232.472	8.7
232.689	47.62
232.907	64
233.125	-5.63
233.342	27.14
233.56	0.51
233.777	-1.54
233.995	2.56
234.213	72.19
234.43	119.29
234.648	113.15
234.865	-22.02
235.083	78.33
235.3	41.47
235.518	109.05
235.735	96.77
235.953	113.15
236.17	6.66
236.388	55.81
236.605	-54.78
236.822	98.81
237.04	133.63
237.257	115.2
237.475	-32.26
237.692	76.29
237.909	90.62
238.127	-40.45
238.344	86.53
238.562	29.18
238.779	47.62
238.996	-13.82
239.214	-7.68
239.431	82.43
239.648	-5.63
239.865	88.57
240.083	25.09
240.3	72.19
240.517	-13.82
240.735	68.09
240.952	162.3
241.169	107.01
241.386	66.05
241.603	53.76
241.821	-124.41
242.038	0.51
242.255	66.05
242.472	-50.69
242.689	74.24
242.907	27.14
243.124	119.29
243.341	51.71
243.558	-30.21
243.775	45.57
243.992	25.09
244.209	61.95
244.426	160.25
244.643	49.66
244.86	70.14
245.078	49.66
245.295	84.48
245.512	51.71
245.729	-9.73
245.946	94.72
246.163	-28.16
246.38	-3.58
246.597	49.66
246.814	82.43
247.031	82.43
247.248	-26.11
247.464	113.15
247.681	33.28
247.898	14.85
248.115	66.05
248.332	70.14
248.549	102.91
248.766	115.2
248.983	133.63
249.2	6.66
249.417	117.25
249.633	-13.82
249.85	129.53
250.067	-1.54
250.284	98.81
250.501	74.24
250.717	61.95
250.934	37.38
251.151	23.04
251.368	-40.45
251.585	90.62
251.801	2.56
252.018	-30.21
252.235	141.82
252.451	-69.12
252.668	-46.59
252.885	182.78
253.102	131.58
253.318	45.57
253.535	10.75
253.752	-22.02
253.968	39.42
254.185	-97.79
254.401	-7.68
254.618	86.53
254.835	-13.82
255.051	141.82
255.268	115.2
255.484	41.47
255.701	68.09
255.917	102.91
256.134	-34.3
256.351	43.52
256.567	0.51
256.784	-5.63
257	-50.69
257.217	141.82
257.433	143.87
257.65	57.86
257.866	139.77
258.082	-22.02
258.299	29.18
258.515	-5.63
258.732	12.8
258.948	4.61
259.165	76.29
259.381	10.75
259.597	86.53
259.814	20.99
260.03	-17.92
260.246	-11.78
260.463	172.54
260.679	111.1
260.895	70.14
261.112	96.77
261.328	10.75
261.544	-83.45
261.761	137.73
261.977	8.7
262.193	-19.97
262.409	125.44
262.626	55.81
262.842	-13.82
263.058	55.81
263.274	41.47
263.49	41.47
263.707	100.86
263.923	102.91
264.139	-77.31
264.355	18.94
264.571	57.86
264.787	86.53
265.004	170.49
265.22	98.81
265.436	-22.02
265.652	129.53
265.868	72.19
266.084	-32.26
266.3	113.15
266.516	0.51
266.732	125.44
266.948	70.14
267.164	-56.83
267.38	133.63
267.596	143.87
267.812	174.59
268.028	31.23
268.244	-36.35
268.46	53.76
268.676	35.33
268.892	23.04
269.108	-13.82
269.324	-26.11
269.54	-13.82
269.756	61.95
269.972	70.14
270.188	-48.64
270.403	-89.6
270.619	-17.92
270.835	82.43
271.051	100.86
271.267	2.56
271.483	31.23
271.698	66.05
271.914	137.73
272.13	-13.82
272.346	47.62
272.562	-17.92
272.777	82.43
272.993	49.66
273.209	53.76
273.425	66.05
273.64	-44.54
273.856	158.21
274.072	12.8
274.287	-99.84
274.503	102.91
274.719	68.09
274.934	-28.16
275.15	78.33
275.366	-26.11
275.581	18.94
275.797	68.09
276.012	49.66
276.228	61.95
276.444	49.66
276.659	135.68
276.875	-71.17
277.09	86.53
277.306	25.09
277.521	66.05
277.737	115.2
277.952	115.2
278.168	68.09
278.383	-5.63
278.599	113.15
278.814	113.15
279.03	27.14
279.245	127.49
279.461	92.67
279.676	92.67
279.892	-48.64
280.107	-65.02
280.322	-44.54
280.538	55.81
280.753	-1.54
280.969	76.29
281.184	14.85
281.399	92.67
281.615	100.86
281.83	147.97
282.045	-36.35
282.26	8.7
282.476	6.66
282.691	55.81
282.906	72.19
283.122	-9.73
283.337	0.51
283.552	80.38
283.767	-30.21
283.983	88.57
284.198	102.91
284.413	74.24
284.628	-81.41
284.843	57.86
285.058	92.67
285.274	0.51
285.489	-24.06
285.704	43.52
285.919	-13.82
286.134	39.42
286.349	102.91
286.564	-17.92
286.779	100.86
286.995	64
287.21	-67.07
287.425	53.76
287.64	20.99
287.855	-1.54
288.07	-42.5
288.285	113.15
288.5	90.62
288.715	186.88
288.93	-30.21
289.145	18.94
289.36	72.19
289.575	-3.58
289.79	70.14
290.004	14.85
290.219	51.71
290.434	-30.21
290.649	90.62
290.864	31.23
291.079	82.43
291.294	90.62
291.509	-5.63
291.724	41.47
291.938	-67.07
292.153	94.72
292.368	35.33
292.583	55.81
292.798	6.66
293.012	96.77
293.227	190.97
293.442	25.09
293.657	147.97
293.871	160.25
294.086	98.81
294.301	274.94
294.516	154.11
294.73	2.56
294.945	-19.97
295.16	-5.63
295.374	158.21
295.589	164.35
295.804	-3.58
296.018	90.62
296.233	131.58
296.447	8.7
296.662	49.66
296.877	129.53
297.091	29.18
297.306	45.57
297.52	27.14
297.735	76.29
297.949	131.58
298.164	141.82
298.378	29.18
298.593	-26.11
298.807	29.18
299.022	45.57
299.236	186.88
299.451	37.38
299.665	37.38
299.88	-13.82
300.094	49.66
300.309	16.9
300.523	43.52
300.737	-38.4
300.952	-13.82
301.166	59.9
301.381	-58.88
301.595	10.75
301.809	72.19
302.024	25.09
302.238	14.85
302.452	129.53
302.667	41.47
302.881	156.16
303.095	137.73
303.309	14.85
303.524	-93.69
303.738	-46.59
303.952	-5.63
304.166	27.14
304.381	-128.51
304.595	176.64
304.809	20.99
305.023	10.75
305.237	31.23
305.452	-9.73
305.666	37.38
305.88	154.11
306.094	66.05
306.308	92.67
306.522	68.09
306.736	96.77
306.95	127.49
307.164	66.05
307.379	82.43
307.593	213.5
307.807	113.15
308.021	70.14
308.235	102.91
308.449	-118.27
308.663	33.28
308.877	225.79
309.091	121.34
309.305	43.52
309.519	-73.21
309.733	139.77
309.947	-44.54
310.161	35.33
310.374	113.15
310.588	88.57
310.802	-15.87
311.016	16.9
311.23	64
311.444	-34.3
311.658	84.48
311.872	156.16
312.085	96.77
312.299	160.25
312.513	109.05
312.727	70.14
312.941	-65.02
313.154	88.57
313.368	31.23
313.582	88.57
313.796	27.14
314.009	53.76
314.223	117.25
314.437	66.05
314.651	66.05
314.864	45.57
315.078	6.66
315.292	-40.45
315.505	-73.21
315.719	137.73
315.933	152.06
316.146	33.28
316.36	-5.63
316.573	156.16
316.787	113.15
317.001	64
317.214	-19.97
317.428	74.24
317.641	-34.3
317.855	-69.12
318.068	51.71
318.282	98.81
318.495	193.02
318.709	98.81
318.922	-3.58
319.136	141.82
319.349	86.53
319.563	37.38
319.776	137.73
319.99	-95.74
320.203	55.81
320.417	41.47
320.63	90.62
320.843	193.02
321.057	64
321.27	2.56
321.483	135.68
321.697	174.59
321.91	27.14
322.124	88.57
322.337	117.25
322.55	-9.73
322.763	49.66
322.977	25.09
323.19	-46.59
323.403	-9.73
323.617	-26.11
323.83	135.68
324.043	-11.78
324.256	0.51
324.469	27.14
324.683	61.95
324.896	29.18
325.109	78.33
325.322	-52.74
325.535	117.25
325.748	129.53
325.962	-7.68
326.175	23.04
326.388	57.86
326.601	197.12
326.814	49.66
327.027	107.01
327.24	152.06
327.453	-28.16
327.666	80.38
327.879	80.38
328.092	109.05
328.305	92.67
328.518	-5.63
328.731	-3.58
328.944	121.34
329.157	117.25
329.37	33.28
329.583	150.01
329.796	80.38
330.009	78.33
330.222	125.44
330.435	111.1
330.648	16.9
330.861	92.67
331.073	68.09
331.286	88.57
331.499	49.66
331.712	-91.65
331.925	80.38
332.138	-5.63
332.35	123.39
332.563	-19.97
332.776	174.59
332.989	-15.87
333.202	37.38
333.414	109.05
333.627	-24.06
333.84	35.33
334.053	39.42
334.265	78.33
334.478	35.33
334.691	-17.92
334.903	84.48
335.116	14.85
335.329	6.66
335.541	107.01
335.754	121.34
335.966	-40.45
336.179	-30.21
336.392	16.9
336.604	-19.97
336.817	119.29
337.029	53.76
337.242	154.11
337.454	53.76
337.667	47.62
337.88	150.01
338.092	72.19
338.305	113.15
338.517	41.47
338.729	68.09
338.942	207.36
339.154	-38.4
339.367	0.51
339.579	109.05
339.792	-87.55
340.004	111.1
340.217	61.95
340.429	84.48
340.641	0.51
340.854	-24.06
341.066	123.39
341.278	197.12
341.491	176.64
341.703	-58.88
341.915	4.61
342.128	16.9
342.34	78.33
342.552	-48.64
342.764	43.52
342.977	-30.21
343.189	121.34
343.401	27.14
343.613	-40.45
343.826	29.18
344.038	-13.82
344.25	129.53
344.462	-42.5
344.674	76.29
344.886	51.71
345.099	74.24
345.311	182.78
345.523	86.53
345.735	-40.45
345.947	29.18
346.159	96.77
346.371	66.05
346.583	-48.64
346.795	217.6
347.007	-32.26
347.219	41.47
347.431	53.76
347.643	86.53
347.855	6.66
348.067	238.08
348.279	35.33
348.491	70.14
348.703	115.2
348.915	-73.21
349.127	141.82
349.339	23.04
349.551	2.56
349.763	72.19
349.975	10.75
350.187	127.49
350.399	150.01
350.61	129.53
350.822	-50.69
351.034	59.9
351.246	35.33
351.458	49.66
351.669	129.53
351.881	76.29
352.093	143.87
352.305	193.02
352.517	74.24
352.728	123.39
352.94	119.29
353.152	76.29
353.363	-40.45
353.575	59.9
353.787	182.78
353.999	98.81
354.21	227.84
354.422	-3.58
354.633	55.81
354.845	6.66
355.057	8.7
355.268	53.76
355.48	190.97
355.692	-38.4
355.903	49.66
356.115	4.61
356.326	-83.45
356.538	131.58
356.749	111.1
356.961	111.1
357.172	51.71
357.384	0.51
357.595	207.36
357.807	-48.64
358.018	76.29
358.23	39.42
358.441	162.3
358.653	82.43
358.864	57.86
359.075	-1.54
359.287	14.85
359.498	184.83
359.709	154.11
359.921	23.04
360.132	107.01
360.344	-11.78
360.555	-60.93
360.766	115.2
360.977	16.9
361.189	92.67
361.4	82.43
361.611	90.62
361.823	145.92
362.034	74.24
362.245	-17.92
362.456	4.61
362.667	18.94
362.879	53.76
363.09	37.38
363.301	90.62
363.512	-11.78
363.723	4.61
363.935	43.52
364.146	57.86
364.357	31.23
364.568	117.25
364.779	-40.45
364.99	174.59
365.201	-19.97
365.412	113.15
365.623	-73.21
365.834	121.34
366.045	92.67
366.256	80.38
366.467	31.23
366.678	51.71
366.889	2.56
367.1	18.94
367.311	164.35
367.522	0.51
367.733	90.62
367.944	90.62
368.155	82.43
368.366	94.72
368.577	117.25
368.788	53.76
368.999	-9.73
369.209	10.75
369.42	231.93
369.631	252.41
369.842	129.53
370.053	20.99
370.264	78.33
370.474	-38.4
370.685	6.66
370.896	20.99
371.107	55.81
371.317	18.94
371.528	-34.3
371.739	137.73
371.95	6.66
372.16	125.44
372.371	20.99
372.582	10.75
372.792	119.29
373.003	119.29
373.214	86.53
373.424	113.15
373.635	-11.78
373.846	180.73
374.056	-11.78
374.267	64
374.477	86.53
374.688	18.94
374.898	82.43
375.109	-1.54
375.319	141.82
375.53	137.73
375.74	154.11
375.951	47.62
376.161	53.76
376.372	78.33
376.582	53.76
376.793	59.9
377.003	43.52
377.214	47.62
377.424	59.9
377.635	55.81
377.845	49.66
378.055	121.34
378.266	10.75
378.476	66.05
378.686	25.09
378.897	90.62
379.107	98.81
379.317	70.14
379.528	18.94
379.738	47.62
379.948	-30.21
380.158	156.16
380.369	0.51
380.579	68.09
380.789	14.85
380.999	70.14
381.21	76.29
381.42	125.44
381.63	12.8
381.84	86.53
382.05	80.38
382.261	141.82
382.471	107.01
382.681	72.19
382.891	57.86
383.101	186.88
383.311	-9.73
383.521	10.75
383.731	78.33
383.941	238.08
384.151	-9.73
384.361	53.76
384.571	57.86
384.781	45.57
384.991	178.69
385.201	188.93
385.411	68.09
385.621	84.48
385.831	18.94
386.041	88.57
386.251	20.99
386.461	98.81
386.671	10.75
386.881	119.29
387.091	-52.74
387.301	117.25
387.511	53.76
387.72	92.67
387.93	137.73
388.14	-44.54
388.35	37.38
388.56	70.14
388.769	180.73
388.979	53.76
389.189	-44.54
389.399	119.29
389.609	107.01
389.818	104.96
390.028	76.29
390.238	49.66
390.447	2.56
390.657	80.38
390.867	-1.54
391.076	-48.64
391.286	66.05
391.496	14.85
391.705	35.33
391.915	160.25
392.125	117.25
392.334	27.14
392.544	180.73
392.753	70.14
392.963	74.24
393.172	51.71
393.382	57.86
393.591	166.4
393.801	4.61
394.01	129.53
394.22	82.43
394.429	16.9
394.639	53.76
394.848	86.53
395.058	53.76
395.267	72.19
395.477	49.66
395.686	45.57
395.895	92.67
396.105	199.16
396.314	150.01
396.524	76.29
396.733	98.81
396.942	156.16
397.152	80.38
397.361	176.64
397.57	84.48
397.78	-5.63
397.989	90.62
398.198	225.79
398.407	16.9
398.617	74.24
398.826	94.72
399.035	-3.58
399.244	12.8
399.453	86.53
399.663	102.91
399.872	119.29
400.081	-87.55
400.29	240.12
400.499	16.9
400.708	129.53
400.917	61.95
401.127	68.09
401.336	27.14
401.545	188.93
401.754	150.01
401.963	94.72
402.172	59.9
402.381	2.56
402.59	25.09
402.799	-48.64
403.008	201.21
403.217	137.73
403.426	53.76
403.635	47.62
403.844	27.14
404.053	35.33
404.262	-24.06
404.471	252.41
404.68	49.66
404.888	72.19
405.097	-5.63
405.306	78.33
405.515	164.35
405.724	82.43
405.933	107.01
406.142	35.33
406.35	147.97
406.559	74.24
406.768	4.61
406.977	121.34
407.185	119.29
407.394	66.05
407.603	-34.3
407.812	82.43
408.02	131.58
408.229	41.47
408.438	82.43
408.646	-34.3
408.855	49.66
409.064	-7.68
409.272	80.38
409.481	107.01
409.69	-60.93
409.898	14.85
410.107	74.24
410.315	107.01
410.524	59.9
410.733	86.53
410.941	57.86
411.15	27.14
411.358	178.69
411.567	158.21
411.775	57.86
411.984	-11.78
412.192	113.15
412.401	51.71
412.609	170.49
412.818	127.49
413.026	135.68
413.234	18.94
413.443	51.71
413.651	4.61
413.86	78.33
414.068	150.01
414.276	188.93
414.485	51.71
414.693	195.07
414.901	254.46
415.11	45.57
415.318	41.47
415.526	80.38
415.734	125.44
415.943	131.58
416.151	164.35
416.359	16.9
416.567	33.28
416.776	98.81
416.984	131.58
417.192	158.21
417.4	96.77
417.608	20.99
417.817	-34.3
418.025	162.3
418.233	186.88
418.441	-19.97
418.649	51.71
418.857	115.2
419.065	160.25
419.273	18.94
419.481	119.29
419.689	14.85
419.897	8.7
420.105	53.76
420.313	129.53
420.521	143.87
420.729	152.06
420.937	0.51
421.145	4.61
421.353	121.34
421.561	199.16
421.769	86.53
421.977	39.42
422.185	43.52
422.393	37.38
422.601	164.35
422.809	80.38
423.017	92.67
423.224	64
423.432	207.36
423.64	-13.82
423.848	201.21
424.056	20.99
424.263	182.78
424.471	84.48
424.679	107.01
424.887	-3.58
425.094	168.45
425.302	174.59
425.51	-3.58
425.718	121.34
425.925	143.87
426.133	86.53
426.341	160.25
426.548	68.09
426.756	45.57
426.964	182.78
427.171	12.8
427.379	98.81
427.586	119.29
427.794	139.77
428.001	186.88
428.209	145.92
428.417	188.93
428.624	135.68
428.832	117.25
429.039	64
429.247	129.53
429.454	82.43
429.662	190.97
429.869	111.1
430.076	82.43
430.284	279.04
430.491	274.94
430.699	207.36
430.906	240.12
431.114	143.87
431.321	123.39
431.528	113.15
431.736	164.35
431.943	131.58
432.15	209.4
432.358	190.97
432.565	207.36
432.772	109.05
432.979	272.89
433.187	236.03
433.394	223.74
433.601	178.69
433.808	223.74
434.016	227.84
434.223	225.79
434.43	250.36
434.637	352.76
434.844	231.93
435.052	225.79
435.259	352.76
435.466	320
435.673	242.17
435.88	324.09
436.087	375.29
436.294	424.44
436.501	430.59
436.708	336.38
436.915	358.91
437.122	483.83
437.329	324.09
437.537	375.29
437.743	473.59
437.95	449.02
438.157	403.96
438.364	365.05
438.571	449.02
438.778	532.98
438.985	569.85
439.192	596.47
439.399	526.84
439.606	588.28
439.813	586.23
440.02	709.11
440.227	707.06
440.433	653.81
440.64	692.73
440.847	467.45
441.054	776.69
441.261	897.52
441.467	676.34
441.674	645.62
441.881	768.5
442.088	731.64
442.294	872.95
442.501	883.19
442.708	887.28
442.914	870.9
443.121	979.44
443.328	995.82
443.534	1061.36
443.741	989.68
443.948	932.34
444.154	1077.74
444.361	1253.87
444.568	1061.36
444.774	1151.47
444.981	1194.48
445.187	1313.26
445.394	1307.12
445.6	1313.26
445.807	1481.19
446.013	1438.19
446.22	1382.89
446.426	1518.06
446.633	1669.61
446.839	1782.24
447.046	1462.76
447.252	1862.12
447.459	1819.11
447.665	1698.28
447.871	2087.39
448.078	2191.84
448.284	2122.21
448.491	2214.37
448.697	2312.67
448.903	2445.79
449.11	2415.07
449.316	2449.88
449.522	2619.86
449.728	2646.49
449.935	2918.87
450.141	2826.71
450.347	3203.54
450.553	3000.79
450.76	3023.31
450.966	3328.46
451.172	3385.8
451.378	3557.83
451.584	3437
451.791	3846.6
451.997	3889.6
452.203	4153.79
452.409	4153.79
452.615	4456.89
452.821	4440.51
453.027	4329.92
453.233	4848.05
453.44	4854.2
453.646	5058.99
453.852	5364.14
454.058	5407.15
454.264	5413.29
454.47	5939.62
454.676	5892.52
454.882	6486.43
455.088	6130.08
455.294	6656.41
455.5	6969.75
455.705	7186.83
455.911	7387.54
456.117	7573.9
456.323	7844.23
456.529	7883.14
456.735	8509.82
456.941	8749.43
457.147	9105.78
457.352	9384.3
457.558	9535.85
457.764	10099.05
457.97	10492.26
458.176	10881.37
458.381	11446.61
458.587	11403.6
458.793	12224.84
458.999	12142.92
459.204	13695.28
459.41	14178.6
459.616	13666.61
459.821	14821.66
460.027	15474.96
460.233	16128.27
460.438	16249.1
460.644	17070.33
460.85	17365.24
461.055	17717.49
461.261	18909.41
461.466	18374.89
461.672	18770.15
461.878	21106.88
462.083	20695.24
462.289	21160.13
462.494	22317.23
462.7	22360.23
462.905	22683.81
463.111	24031.38
463.316	25778.29
463.522	25929.84
463.727	26677.35
463.932	28072.02
464.138	29007.94
464.343	29886.52
464.549	29892.66
464.754	32188.44
464.959	32899.08
465.165	33466.37
465.37	32950.28
465.575	33429.51
465.781	35444.71
465.986	36511.7
466.191	36165.59
466.397	36466.64
466.602	35891.16
466.807	37629.89
467.012	38213.56
467.218	38975.41
467.423	38590.39
467.628	39999.39
467.833	41875.33
468.038	40963.98
468.244	40243.1
468.449	42502.01
468.654	41525.13
468.859	41744.26
469.064	41510.79
469.269	40185.75
469.474	41058.19
469.679	42092.41
469.885	40798.1
470.09	41559.94
470.295	41895.81
470.5	40714.13
470.705	40884.11
470.91	39896.99
471.115	39217.07
471.32	40292.25
471.525	39557.03
471.73	38444.98
471.935	38283.19
472.139	36636.62
472.344	36923.34
472.549	36855.76
472.754	36204.5
472.959	35131.37
473.164	34060.28
473.369	33357.83
473.574	34435.06
473.778	33863.68
473.983	33306.63
474.188	32489.49
474.393	31268.9
474.598	30955.56
474.802	30271.54
475.007	29859.9
475.212	29624.38
475.417	28379.21
475.621	28272.72
475.826	28143.7
476.031	27039.84
476.235	26626.15
476.44	26753.13
476.645	26142.83
476.849	25424
477.054	25352.32
477.259	24916.1
477.463	24672.39
477.668	23746.71
477.872	23965.84
478.077	23130.27
478.282	22481.06
478.486	22534.31
478.691	22110.38
478.895	21956.78
479.1	21747.89
479.304	21659.83
479.509	21031.1
479.713	21457.08
479.918	20637.89
480.122	20164.81
480.326	20482.25
480.531	20531.4
480.735	20158.67
480.94	19626.2
481.144	20328.65
481.348	19376.34
481.553	19720.4
481.757	18782.43
481.961	19159.26
482.166	19384.54
482.37	19261.66
482.574	18360.55
482.778	18548.96
482.983	18555.11
483.187	18438.37
483.391	18313.45
483.595	17690.87
483.8	17619.19
484.004	17787.12
484.208	17678.58
484.412	17443.06
484.616	17125.63
484.821	17158.39
485.025	16550.15
485.229	16709.89
485.433	16394.5
485.637	16584.96
485.841	15937.8
486.045	15722.77
486.249	15546.64
486.453	15167.77
486.657	15104.28
486.861	15108.38
487.065	14575.91
487.269	14635.3
487.473	14166.31
487.677	14289.19
487.881	14092.58
488.085	13605.17
488.289	13465.91
488.493	13273.4
488.697	13166.9
488.901	12898.62
489.105	12386.63
489.309	12437.83
489.512	12054.86
489.716	11989.32
489.92	11798.86
490.124	11258.2
490.328	11561.3
490.531	11090.26
490.735	10991.96
490.939	10813.79
491.143	10561.89
491.346	10140.01
491.55	10277.22
491.754	9924.97
491.958	9812.33
492.161	9722.22
492.365	9679.21
492.569	9367.92
492.772	9197.94
492.976	9163.12
493.18	9152.88
493.383	9113.97
493.587	8933.75
493.79	8843.64
493.994	8481.15
494.197	8466.81
494.401	8581.5
494.605	8409.47
494.808	8432
495.012	8331.65
495.215	8356.22
495.419	8282.5
495.622	7819.66
495.825	8077.7
496.029	7895.43
496.232	7983.49
496.436	7866.76
496.639	8003.97
496.843	7901.58
497.046	7905.67
497.249	7762.31
497.453	7915.91
497.656	7870.86
497.859	7954.82
498.063	7897.48
498.266	8040.84
498.469	7770.51
498.673	7743.88
498.876	7983.49
499.079	7932.29
499.282	7938.44
499.485	8235.39
499.689	8145.28
499.892	8292.74
500.095	8161.67
500.298	8059.27
500.501	7973.25
500.705	8358.27
500.908	8481.15
501.111	8393.09
501.314	8626.56
501.517	8843.64
501.72	8698.24
501.923	8825.21
502.126	8769.91
502.329	9087.35
502.532	9093.49
502.735	9261.43
502.938	9496.94
503.141	9378.16
503.344	9378.16
503.547	9611.63
503.75	9754.99
503.953	10013.03
504.156	9902.44
504.359	10037.61
504.562	10309.99
504.765	10420.58
504.968	10662.24
505.17	10803.55
505.373	10809.69
505.576	11200.85
505.779	11284.82
505.982	11372.88
506.185	11841.87
506.387	11899.21
506.59	11925.83
506.793	12247.37
506.996	12349.76
507.198	12828.99
507.401	12917.05
507.604	13330.74
507.807	13318.45
508.009	13611.31
508.212	13855.02
508.415	14508.32
508.617	14315.81
508.82	14770.46
509.022	14819.61
509.225	15536.4
509.428	15493.4
509.63	15776.02
509.833	16072.97
510.035	17060.09
510.238	17076.48
510.44	17387.77
510.643	18010.35
510.845	18200.81
511.048	18469.09
511.25	18587.88
511.453	19218.65
511.655	20168.91
511.858	20123.85
512.06	20525.25
512.262	21008.58
512.465	21119.17
512.667	21928.11
512.87	22417.58
513.072	22831.27
513.274	23455.9
513.477	23763.09
513.679	24182.93
513.881	24989.83
514.084	25725.05
514.286	25761.91
514.488	26554.47
514.69	27256.93
514.893	27910.23
515.095	28403.79
515.297	28971.08
515.499	29532.22
515.701	30074.93
515.904	31148.07
516.106	31483.94
516.308	32217.11
516.51	32679.95
516.712	33122.31
516.914	34068.47
517.116	34789.36
517.318	35428.32
517.52	35346.4
517.722	36399.06
517.925	36943.82
518.127	37930.94
518.329	38713.27
518.531	38678.45
518.733	39915.42
518.935	40351.64
519.136	40875.92
519.338	41826.18
519.54	41957.25
519.742	42876.79
519.944	43298.67
520.146	43980.64
520.348	44623.7
520.55	45098.83
520.752	45766.47
520.954	46493.5
521.155	46294.85
521.357	47343.41
521.559	48289.57
521.761	48633.63
521.963	48486.17
522.164	48916.25
522.366	49633.03
522.568	50175.75
522.77	50407.17
522.971	51027.7
523.173	50720.51
523.375	51070.71
523.576	51277.55
523.778	51627.76
523.98	52197.09
524.181	52051.69
524.383	52233.95
524.584	52831.96
524.786	52758.23
524.988	51996.39
525.189	53102.29
525.391	52754.14
525.592	53419.73
525.794	53100.25
525.995	53016.28
526.197	52967.13
526.398	52741.85
526.6	52920.02
526.801	52877.02
527.003	52698.84
527.204	52371.17
527.406	52414.18
527.607	52041.45
527.808	52113.12
528.01	51506.93
528.211	51594.99
528.412	51844.84
528.614	51027.7
528.815	50855.67
529.016	50964.21
529.218	49702.67
529.419	49454.86
529.62	48973.59
529.822	48566.04
530.023	47961.89
530.224	47978.28
530.425	47744.81
530.626	46690.1
530.828	46108.48
531.029	46679.86
531.23	45530.95
531.431	44707.67
531.632	44601.18
531.833	43980.64
532.035	43628.39
532.236	43198.32
532.437	42643.32
532.638	41858.95
532.839	41654.15
533.04	41316.23
533.241	40353.69
533.442	40429.46
533.643	39360.42
533.844	39018.41
534.045	38469.56
534.246	37728.19
534.447	37586.88
534.648	36822.99
534.849	36554.71
535.05	35870.68
535.251	35514.34
535.451	34781.17
535.652	34803.69
535.853	34047.99
536.054	33517.57
536.255	33183.75
536.456	32450.58
536.657	32696.33
536.857	31598.62
537.058	31244.32
537.259	31086.63
537.46	30697.52
537.66	30246.96
537.861	29876.28
538.062	29450.3
538.263	28844.1
538.463	28872.78
538.664	28270.67
538.865	28145.75
539.065	28039.25
539.266	27146.34
539.466	27338.85
539.667	26589.29
539.868	26409.07
540.068	26165.36
540.269	25575.55
540.469	25221.25
540.67	25043.07
540.87	24862.85
541.071	24238.22
541.271	24369.29
541.472	23832.72
541.672	23933.07
541.873	23201.95
542.073	22718.63
542.274	23081.12
542.474	22507.69
542.675	22235.31
542.875	21948.59
543.075	21895.35
543.276	21375.16
543.476	21602.49
543.676	20953.28
543.877	20615.37
544.077	20818.11
544.277	20453.58
544.478	20531.4
544.678	20150.48
544.878	19957.97
545.078	19843.28
545.279	19106.01
545.479	18999.52
545.679	18503.91
545.879	18409.7
546.079	18720.99
546.28	18131.18
546.48	17709.3
546.68	18133.23
546.88	17801.46
547.08	17395.96
547.28	17408.25
547.48	16711.94
547.68	16877.82
547.88	16457.99
548.081	16480.52
548.281	16091.4
548.481	15755.54
548.681	15919.37
548.881	15667.47
549.081	15200.54
549.28	15059.23
549.48	14885.15
549.68	14870.81
549.88	14541.09
550.08	14223.65
550.28	14231.85
550.48	13898.03
550.68	13740.33
550.88	13340.98
551.08	13214.01
551.279	13222.2
551.479	12945.72
551.679	12816.7
551.879	12513.6
552.079	12572.99
552.278	12073.29
552.478	12202.31
552.678	12036.42
552.878	11917.64
553.077	11411.79
553.277	11190.61
553.477	11336.02
553.676	11129.17
553.876	10740.06
554.076	10627.42
554.275	10340.71
554.475	10352.99
554.674	10094.95
554.874	10043.75
555.074	9908.58
555.273	9691.5
555.473	9855.34
555.672	9242.99
555.872	9288.05
556.071	9042.29
556.271	8946.04
556.47	8771.96
556.67	8548.73
556.869	8481.15
557.068	8456.57
557.268	8288.64
557.467	8077.7
557.667	7967.11
557.866	7793.03
558.065	7661.96
558.265	7598.48
558.464	7483.79
558.663	7434.64
558.863	7395.73
559.062	7358.86
559.261	6961.56
559.461	7100.82
559.66	6588.83
559.859	6789.53
560.058	6592.92
560.258	6506.91
560.457	6373.79
560.656	6439.33
560.855	6011.3
561.054	6148.51
561.253	6070.69
561.453	6009.25
561.652	5765.54
561.851	5863.85
562.05	5659.05
562.249	5403.05
562.448	5613.99
562.647	5450.16
562.846	5302.7
563.045	5380.53
563.244	5085.62
563.443	5267.89
563.642	4919.73
563.841	4954.55
564.04	4841.91
564.239	4829.62
564.438	4876.73
564.637	4487.61
564.836	4565.43
565.035	4475.32
565.234	4319.68
565.432	4272.57
565.631	4307.39
565.83	4334.01
566.029	4204.99
566.228	4157.89
566.427	4309.44
566.625	3834.31
566.824	3969.48
567.023	3869.12
567.222	3756.49
567.42	3805.64
567.619	3731.91
567.818	3697.1
568.016	3828.17
568.215	3586.51
568.414	3621.32
568.612	3482.06
568.811	3586.51
569.01	3400.14
569.208	3334.61
569.407	3344.84
569.605	3193.3
569.804	3166.67
570.002	3127.76
570.201	3037.65
570.4	3113.42
570.598	3000.79
570.797	2855.38
570.995	2886.1
571.193	2898.39
571.392	2808.28
571.59	2814.42
571.789	2847.19
571.987	2812.37
572.186	2683.35
572.384	2535.9
572.582	2615.77
572.781	2726.36
572.979	2445.79
573.177	2507.23
573.376	2429.4
573.574	2458.07
573.772	2349.53
573.971	2220.51
574.169	2327
574.367	2251.23
574.565	2173.41
574.763	2075.1
574.962	2183.65
575.16	2138.59
575.358	2136.54
575.556	2052.58
575.754	2005.47
575.952	2054.62
576.151	1941.99
576.349	1999.33
576.547	1745.38
576.745	1896.93
576.943	1987.04
577.141	1800.68
577.339	1681.89
577.537	1774.05
577.735	1761.77
577.933	1733.09
578.131	1657.32
578.329	1780.2
578.527	1735.14
578.725	1573.35
578.923	1540.58
579.121	1616.36
579.319	1391.08
579.516	1493.48
579.714	1651.17
579.912	1479.15
580.11	1329.64
580.308	1303.02
580.506	1276.4
580.704	1319.4
580.901	1253.87
581.099	1583.59
581.297	1327.6
581.495	1325.55
581.692	1184.24
581.89	1290.73
582.088	1262.06
582.285	1192.43
582.483	1231.34
582.681	1214.96
582.878	1237.49
583.076	1294.83
583.274	1153.52
583.471	1298.92
583.669	1087.98
583.866	936.43
584.064	989.68
584.262	1018.35
584.459	877.04
584.657	1061.36
584.854	1047.02
585.052	1016.3
585.249	1040.88
585.447	987.63
585.644	838.13
585.841	946.67
586.039	997.87
586.236	1047.02
586.434	903.67
586.631	854.51
586.828	868.85
587.026	840.18
587.223	737.78
587.42	768.5
587.618	899.57
587.815	901.62
588.012	801.27
588.21	764.4
588.407	823.8
588.604	938.48
588.801	741.88
588.999	782.84
589.196	874.99
589.393	682.49
589.59	750.07
589.787	805.36
589.984	774.64
590.182	803.32
590.379	627.19
590.576	739.83
590.773	725.49
590.97	748.02
591.167	741.88
591.364	709.11
591.561	709.11
591.758	770.55
591.955	745.97
592.152	782.84
592.349	647.67
592.546	633.33
592.743	647.67
592.94	713.21
593.137	707.06
593.334	764.4
593.531	803.32
593.727	836.08
593.924	731.64
594.121	625.14
594.318	645.62
594.515	776.69
594.712	840.18
594.908	850.42
595.105	672.25
595.302	678.39
595.499	809.46
595.696	862.71
595.892	750.07
596.089	848.37
596.286	737.78
596.482	899.57
596.679	874.99
596.876	862.71
597.072	901.62
597.269	954.87
597.466	844.28
597.662	936.43
597.859	993.78
598.055	989.68
598.252	1047.02
598.448	1096.18
598.645	1239.53
598.841	1247.72
599.038	1243.63
599.234	1331.69
599.431	1251.82
599.627	1339.88
599.824	1454.57
600.02	1425.9
600.217	1374.7
600.413	1559.02
600.609	1618.41
600.806	1851.88
601.002	1714.66
601.198	1759.72
601.395	1839.59
601.591	1886.69
601.787	1950.18
601.984	2030.05
602.18	2214.37
602.376	2202.08
602.572	2236.89
602.769	2453.98
602.965	2396.64
603.161	2546.14
603.357	2685.4
603.553	2765.27
603.75	2775.51
603.946	2867.67
604.142	2978.26
604.338	3146.19
604.534	3117.52
604.73	3244.49
604.926	3301.84
605.122	3568.07
605.318	3531.21
605.514	3676.62
605.71	3674.57
605.906	4030.91
606.102	3903.94
606.298	4090.31
606.494	4301.25
606.69	4581.82
606.886	4460.99
607.082	4534.71
607.278	4710.84
607.474	4747.7
607.67	5081.52
607.866	5073.33
608.062	5366.19
608.257	5394.86
608.453	5413.29
608.649	5611.95
608.845	5640.62
609.041	5851.56
609.236	6039.97
609.432	6377.89
609.628	6658.46
609.824	6750.62
610.019	6754.71
610.215	6891.93
610.411	7313.81
610.606	7426.45
610.802	7438.73
610.998	7684.49
611.193	8001.93
611.389	8026.5
611.584	8274.31
611.78	8444.29
611.976	8890.74
612.171	9027.96
612.367	9279.86
612.562	9400.69
612.758	9734.51
612.953	9701.74
613.149	10205.54
613.344	10309.99
613.539	10680.67
613.735	11116.89
613.93	11288.92
614.126	11512.14
614.321	12042.57
614.517	12319.04
614.712	12433.73
614.907	12988.73
615.103	13240.63
615.298	13271.35
615.493	13836.59
615.688	14010.67
615.884	14620.96
616.079	14762.27
616.274	15218.97
616.47	15425.81
616.665	16029.96
616.86	16003.34
617.055	16670.98
617.25	17119.48
617.445	17752.31
617.641	17961.2
617.836	18387.18
618.031	18815.2
618.226	19376.34
618.421	19618
618.616	20402.38
618.811	20662.47
619.006	21422.27
619.201	21487.8
619.396	21975.22
619.591	22200.49
619.786	23034.02
619.981	23748.76
620.176	23834.77
620.371	24352.91
620.566	25041.03
620.761	25366.65
620.956	26171.5
621.151	26171.5
621.346	26986.6
621.541	27357.28
621.735	27992.15
621.93	28274.77
622.125	28932.17
622.32	29075.52
622.515	29859.9
622.709	30281.78
622.904	31127.59
623.099	31328.29
623.294	32491.54
623.488	32280.6
623.683	33163.27
623.878	33241.09
624.072	34148.34
624.267	34607.09
624.462	35258.34
624.656	35442.66
624.851	36478.93
625.046	36358.1
625.24	37181.38
625.435	37083.08
625.629	38217.66
625.824	38623.15
626.018	39313.32
626.213	38930.35
626.407	39933.85
626.602	39684
626.796	40581.01
626.991	40814.48
627.185	40798.1
627.38	40949.65
627.574	41478.02
627.768	41389.96
627.963	41904
628.157	41975.68
628.352	42299.26
628.546	41404.3
628.74	42160
628.935	41951.1
629.129	42194.81
629.323	41435.02
629.517	41412.49
629.712	41035.66
629.906	41209.74
630.1	39913.37
630.294	40179.61
630.489	39276.46
630.683	38997.93
630.877	38229.94
631.071	37500.87
631.265	37406.66
631.459	36032.47
631.653	35594.21
631.848	34902
632.042	33859.58
632.236	33378.31
632.43	31934.49
632.624	31559.71
632.818	30492.72
633.012	29356.1
633.206	28414.03
633.4	27844.7
633.594	26288.24
633.788	25712.76
633.982	25098.37
634.176	23744.66
634.369	23156.89
634.563	22425.77
634.757	21252.28
634.951	20519.11
635.145	19769.55
635.339	19030.24
635.533	18059.5
635.726	17651.95
635.92	16593.15
636.114	16288.01
636.308	15511.83
636.501	14889.24
636.695	14309.67
636.889	13599.02
637.083	13119.8
637.276	12427.59
637.47	11874.63
637.664	11481.42
637.857	10994.01
638.051	10445.15
638.244	10086.76
638.438	9752.94
638.632	9470.32
638.825	8876.41
639.019	8900.98
639.212	8135.04
639.406	7991.69
639.599	7631.24
639.793	7420.3
639.986	6990.23
640.18	6996.37
640.373	6570.4
640.567	6138.27
640.76	5980.58
640.954	5716.39
641.147	5564.84
641.34	5306.8
641.534	5104.05
641.727	5114.29
641.92	4825.53
642.114	4686.26
642.307	4458.94
642.5	4227.52
642.694	4080.07
642.887	3879.36
643.08	3856.84
643.273	3703.24
643.467	3498.44
643.66	3234.25
643.853	3303.89
644.046	3092.94
644.239	3041.75
644.432	2812.37
644.626	2556.38
644.819	2736.6
645.012	2628.06
645.205	2466.27
645.398	2359.77
645.591	2318.81
645.784	2167.26
645.977	2142.69
646.17	1997.28
646.363	1892.84
646.556	1835.49
646.749	1782.24
646.942	1708.52
647.135	1784.29
647.328	1571.3
647.521	1505.77
647.714	1509.86
647.907	1444.33
648.099	1409.51
648.292	1409.51
648.485	1303.02
648.678	1231.34
648.871	1196.53
649.064	1194.48
649.256	1081.84
649.449	1092.08
649.642	995.82
649.835	1010.16
650.027	926.19
650.22	979.44
650.413	934.39
650.605	999.92
650.798	788.98
650.991	872.95
651.183	784.88
651.376	844.28
651.568	782.84
651.761	676.34
651.954	684.53
652.146	649.72
652.339	739.83
652.531	707.06
652.724	571.9
652.916	571.9
653.109	524.79
653.301	612.85
653.494	610.81
653.686	543.22
653.879	645.62
654.071	580.09
654.263	543.22
654.456	414.2
654.648	559.61
654.84	494.07
655.033	401.91
655.225	485.88
655.417	330.23
655.61	465.4
655.802	451.07
655.994	492.02
656.186	264.7
656.379	492.02
656.571	250.36
656.763	320
656.955	309.76
657.148	381.43
657.34	430.59
657.532	219.64
657.724	244.22
657.916	342.52
658.108	334.33
658.3	334.33
658.492	336.38
658.684	199.16
658.876	315.9
659.068	219.64
659.26	193.02
659.452	211.45
659.644	186.88
659.836	365.05
660.028	334.33
660.22	238.08
660.412	170.49
660.604	229.88
660.796	268.8
660.988	369.15
661.18	193.02
661.372	354.81
661.563	268.8
661.755	207.36
661.947	164.35
662.139	104.96
662.331	268.8
662.522	254.46
662.714	129.53
662.906	33.28
663.097	143.87
663.289	90.62
663.481	74.24
663.673	158.21
663.864	195.07
664.056	233.98
664.247	119.29
664.439	289.28
664.631	160.25
664.822	215.55
665.014	143.87
665.205	117.25
665.397	168.45
665.588	199.16
665.78	168.45
665.971	262.65
666.163	86.53
666.354	158.21
666.546	102.91
666.737	143.87
666.929	143.87
667.12	80.38
667.311	205.31
667.503	127.49
667.694	229.88
667.885	223.74
668.077	154.11
668.268	84.48
668.459	127.49
668.651	100.86
668.842	166.4
669.033	152.06
669.224	49.66
669.416	299.52
669.607	104.96
669.798	72.19
669.989	242.17
670.18	123.39
670.371	133.63
670.563	107.01
670.754	221.69
670.945	160.25
671.136	193.02
671.327	131.58
671.518	225.79
671.709	182.78
671.9	131.58
672.091	180.73
672.282	131.58
672.473	172.54
672.664	20.99
672.855	188.93
673.046	242.17
673.237	150.01
673.428	127.49
673.619	193.02
673.809	209.4
674	283.13
674.191	199.16
674.382	129.53
674.573	137.73
674.764	160.25
674.954	266.75
675.145	-1.54
675.336	100.86
675.527	104.96
675.717	117.25
675.908	158.21
676.099	59.9
676.289	113.15
676.48	31.23
676.671	199.16
676.861	80.38
677.052	156.16
677.243	137.73
677.433	119.29
677.624	215.55
677.814	172.54
678.005	201.21
678.195	266.75
678.386	59.9
678.576	109.05
678.767	72.19
678.957	133.63
679.148	242.17
679.338	309.76
679.529	197.12
679.719	180.73
679.909	219.64
680.1	211.45
680.29	287.23
680.481	70.14
680.671	242.17
680.861	258.56
681.052	109.05
681.242	162.3
681.432	258.56
681.622	182.78
681.813	143.87
682.003	201.21
682.193	121.34
682.383	236.03
682.573	162.3
682.764	242.17
682.954	221.69
683.144	254.46
683.334	141.82
683.524	166.4
683.714	262.65
683.904	166.4
684.094	145.92
684.284	250.36
684.474	324.09
684.664	289.28
684.854	190.97
685.044	238.08
685.234	166.4
685.424	193.02
685.614	193.02
685.804	270.84
685.994	305.66
686.184	152.06
686.374	229.88
686.564	270.84
686.753	145.92
686.943	154.11
687.133	244.22
687.323	231.93
687.513	346.62
687.702	215.55
687.892	176.64
688.082	301.56
688.272	213.5
688.461	207.36
688.651	365.05
688.841	272.89
689.03	248.32
689.22	203.26
689.41	244.22
689.599	264.7
689.789	166.4
689.979	367.1
690.168	156.16
690.358	248.32
690.547	219.64
690.737	168.45
690.926	199.16
691.116	276.99
691.305	299.52
691.495	256.51
691.684	168.45
691.874	254.46
692.063	158.21
692.252	227.84
692.442	268.8
692.631	147.97
692.82	240.12
693.01	240.12
693.199	205.31
693.388	195.07
693.578	176.64
693.767	236.03
693.956	254.46
694.146	225.79
694.335	268.8
694.524	147.97
694.713	262.65
694.902	233.98
695.092	217.6
695.281	231.93
695.47	152.06
695.659	221.69
695.848	258.56
696.037	123.39
696.226	301.56
696.415	225.79
696.604	270.84
696.793	309.76
696.982	117.25
697.171	326.14
697.36	92.67
697.549	197.12
697.738	43.52
697.927	166.4
698.116	266.75
698.305	260.6
698.494	221.69
698.683	252.41
698.872	324.09
699.061	240.12
699.25	252.41
699.438	201.21
699.627	176.64
699.816	309.76
700.005	152.06
700.193	137.73
700.382	311.8
700.571	201.21
700.76	268.8
700.948	221.69
701.137	217.6
701.326	307.71
701.514	209.4
701.703	227.84
701.892	195.07
702.08	336.38
702.269	209.4
702.457	133.63
702.646	217.6
702.834	211.45
703.023	221.69
703.212	295.42
703.4	207.36
703.589	123.39
703.777	154.11
703.965	158.21
704.154	199.16
704.342	201.21
704.531	125.44
704.719	264.7
704.907	254.46
705.096	127.49
705.284	186.88
705.472	223.74
705.661	229.88
705.849	231.93
706.037	285.18
706.226	223.74
706.414	281.08
706.602	119.29
706.79	250.36
706.979	176.64
707.167	217.6
707.355	139.77
707.543	229.88
707.731	219.64
707.919	231.93
708.107	172.54
708.296	180.73
708.484	78.33
708.672	158.21
708.86	170.49
709.048	264.7
709.236	182.78
709.424	317.95
709.612	262.65
709.8	53.76
709.988	199.16
710.176	350.71
710.364	307.71
710.551	178.69
710.739	213.5
710.927	205.31
711.115	250.36
711.303	293.37
711.491	209.4
711.679	223.74
711.866	305.66
712.054	223.74
712.242	176.64
712.43	240.12
712.617	150.01
712.805	322.04
712.993	180.73
713.181	96.77
713.368	279.04
713.556	240.12
713.744	223.74
713.931	412.15
714.119	299.52
714.306	172.54
714.494	164.35
714.682	164.35
714.869	88.57
715.057	209.4
715.244	141.82
715.432	160.25
715.619	270.84
715.807	246.27
715.994	219.64
716.182	231.93
716.369	303.61
716.556	279.04
716.744	37.38
716.931	86.53
717.119	311.8
717.306	127.49
717.493	231.93
717.681	246.27
717.868	184.83
718.055	199.16
718.242	199.16
718.43	307.71
718.617	248.32
718.804	180.73
718.991	297.47
719.179	242.17
719.366	250.36
719.553	219.64
719.74	184.83
719.927	182.78
720.114	170.49
720.301	164.35
720.488	152.06
720.676	104.96
720.863	340.47
721.05	309.76
721.237	254.46
721.424	250.36
721.611	236.03
721.798	203.26
721.985	145.92
722.172	145.92
722.358	193.02
722.545	332.28
722.732	213.5
722.919	354.81
723.106	203.26
723.293	207.36
723.48	268.8
723.667	180.73
723.853	268.8
724.04	334.33
724.227	315.9
724.414	231.93
724.6	233.98
724.787	297.47
724.974	385.53
725.161	233.98
725.347	190.97
725.534	240.12
725.72	244.22
725.907	256.51
726.094	291.32
726.28	174.59
726.467	233.98
726.653	178.69
726.84	330.23
727.027	377.34
727.213	176.64
727.4	287.23
727.586	238.08
727.773	260.6
727.959	225.79
728.145	195.07
728.332	268.8
728.518	184.83
728.705	313.85
728.891	197.12
729.077	233.98
729.264	113.15
729.45	276.99
729.636	328.19
729.823	299.52
730.009	305.66
730.195	242.17
730.382	303.61
730.568	242.17
730.754	182.78
730.94	309.76
731.126	199.16
731.313	360.95
731.499	195.07
731.685	326.14
731.871	309.76
732.057	285.18
732.243	219.64
732.429	223.74
732.615	397.82
732.801	301.56
732.987	291.32
733.173	276.99
733.359	262.65
733.545	223.74
733.731	283.13
733.917	344.57
734.103	299.52
734.289	295.42
734.475	238.08
734.661	436.73
734.847	281.08
735.033	213.5
735.219	350.71
735.404	266.75
735.59	197.12
735.776	276.99
735.962	272.89
736.148	307.71
736.333	299.52
736.519	332.28
736.705	350.71
736.89	276.99
737.076	287.23
737.262	221.69
737.447	168.45
737.633	268.8
737.819	393.72
738.004	258.56
738.19	322.04
738.375	320
738.561	336.38
738.747	281.08
738.932	205.31
739.118	422.39
739.303	279.04
739.489	258.56
739.674	213.5
739.859	166.4
740.045	311.8
740.23	238.08
740.416	94.72
740.601	358.91
740.786	348.67
740.972	274.94
741.157	236.03
741.342	190.97
741.528	242.17
741.713	289.28
741.898	246.27
742.084	215.55
742.269	199.16
742.454	262.65
742.639	332.28
742.824	238.08
743.01	334.33
743.195	389.63
743.38	250.36
743.565	305.66
743.75	299.52
743.935	369.15
744.12	309.76
744.305	205.31
744.49	276.99
744.675	227.84
744.86	170.49
745.045	338.43
745.23	256.51
745.415	233.98
745.6	309.76
745.785	240.12
745.97	262.65
746.155	287.23
746.34	295.42
746.525	248.32
746.71	381.43
746.895	139.77
747.079	86.53
747.264	229.88
747.449	336.38
747.634	379.39
747.819	266.75
748.003	164.35
748.188	170.49
748.373	256.51
748.557	223.74
748.742	287.23
748.927	233.98
749.111	164.35
749.296	193.02
749.481	295.42
749.665	229.88
749.85	219.64
750.034	238.08
750.219	238.08
750.404	197.12
750.588	207.36
750.773	143.87
750.957	293.37
751.141	158.21
751.326	195.07
751.51	215.55
751.695	166.4
751.879	213.5
752.064	344.57
752.248	203.26
752.432	297.47
752.617	285.18
752.801	205.31
752.985	270.84
753.17	281.08
753.354	252.41
753.538	215.55
753.722	117.25
753.907	207.36
754.091	125.44
754.275	248.32
754.459	115.2
754.643	121.34
754.828	217.6
755.012	221.69
755.196	115.2
755.38	133.63
755.564	115.2
755.748	107.01
755.932	162.3
756.116	215.55
756.3	209.4
756.484	98.81
756.668	201.21
756.852	45.57
757.036	145.92
757.22	168.45
757.404	166.4
757.588	201.21
757.772	197.12
757.956	221.69
758.14	326.14
758.323	76.29
758.507	244.22
758.691	152.06
758.875	209.4
759.059	190.97
759.242	96.77
759.426	92.67
759.61	209.4
759.794	78.33
759.977	178.69
760.161	406.01
760.345	190.97
760.528	262.65
760.712	174.59
760.895	164.35
761.079	133.63
761.263	12.8
761.446	168.45
761.63	201.21
761.813	195.07
761.997	20.99
762.18	119.29
762.364	172.54
762.547	31.23
762.731	78.33
762.914	162.3
763.098	92.67
763.281	129.53
763.464	72.19
763.648	139.77
763.831	59.9
764.015	115.2
764.198	215.55
764.381	115.2
764.564	94.72
764.748	162.3
764.931	111.1
765.114	178.69
765.297	211.45
765.481	35.33
765.664	78.33
765.847	66.05
766.03	225.79
766.213	119.29
766.397	172.54
766.58	25.09
766.763	129.53
766.946	90.62
767.129	98.81
767.312	86.53
767.495	143.87
767.678	82.43
767.861	113.15
768.044	131.58
768.227	147.97
768.41	125.44
768.593	53.76
768.776	0.51
768.959	59.9
769.142	211.45
769.324	107.01
769.507	35.33
769.69	-15.87
769.873	76.29
770.056	236.03
770.239	133.63
770.421	180.73
770.604	152.06
770.787	145.92
770.97	119.29
771.152	-1.54
771.335	135.68
771.518	-40.45
771.7	201.21
771.883	213.5
772.066	104.96
772.248	121.34
772.431	127.49
772.613	123.39
772.796	102.91
772.978	129.53
773.161	254.46
773.343	68.09
773.526	45.57
773.708	-1.54
773.891	70.14
774.073	59.9
774.256	49.66
774.438	221.69
774.621	23.04
774.803	92.67
774.985	51.71
775.168	113.15
775.35	59.9
775.532	49.66
775.715	72.19
775.897	92.67
776.079	49.66
776.261	43.52
776.444	104.96
776.626	74.24
776.808	137.73
776.99	0.51
777.173	96.77
777.355	43.52
777.537	102.91
777.719	6.66
777.901	-11.78
778.083	-34.3
778.265	78.33
778.447	190.97
778.629	6.66
778.811	72.19
778.993	100.86
779.175	109.05
779.357	100.86
779.539	-5.63
779.721	57.86
779.903	170.49
780.085	35.33
780.267	111.1
780.449	35.33
780.631	137.73
780.812	141.82
780.994	86.53
781.176	51.71
781.358	51.71
781.54	33.28
781.721	25.09
781.903	76.29
782.085	61.95
782.267	141.82
782.448	12.8
782.63	66.05
782.812	70.14
782.993	12.8
783.175	143.87
783.357	51.71
783.538	43.52
783.72	-24.06
783.901	49.66
784.083	107.01
784.264	107.01
784.446	49.66
784.627	-5.63
784.809	123.39
784.99	33.28
785.172	66.05
785.353	23.04
785.535	64
785.716	12.8
785.897	-9.73
786.079	59.9
786.26	-13.82
786.441	96.77
786.623	-75.26
786.804	41.47
786.985	23.04
787.167	111.1
787.348	-5.63
787.529	49.66
787.71	240.12
787.891	84.48
788.073	4.61
788.254	27.14
788.435	147.97
788.616	39.42
788.797	16.9
788.978	-40.45
789.159	-7.68
789.34	64
789.522	35.33
789.703	6.66
789.884	100.86
790.065	37.38
790.246	156.16
790.427	72.19
790.607	109.05
790.788	90.62
790.969	25.09
791.15	96.77
791.331	-24.06
791.512	-28.16
791.693	-19.97
791.874	47.62
792.054	209.4
792.235	82.43
792.416	-62.98
792.597	-60.93
792.778	182.78
792.958	84.48
793.139	80.38
793.32	113.15
793.5	-112.13
793.681	147.97
793.862	88.57
794.042	43.52
794.223	-9.73
794.404	61.95
794.584	18.94
794.765	33.28
794.945	27.14
795.126	82.43
795.306	96.77
795.487	35.33
795.667	-22.02
795.848	137.73
796.028	-52.74
796.209	20.99
796.389	43.52
796.57	6.66
796.75	-32.26
796.93	-44.54
797.111	14.85
797.291	14.85
797.471	115.2
797.652	-19.97
797.832	-36.35
798.012	51.71
798.192	-58.88
798.373	-56.83
798.553	6.66
798.733	70.14
798.913	-60.93
799.093	53.76
799.274	80.38
799.454	92.67
799.634	102.91
799.814	107.01
799.994	96.77
800.174	78.33
800.354	-26.11
800.534	-7.68
800.714	33.28
800.894	-38.4
801.074	-50.69
801.254	55.81
801.434	109.05
801.614	-32.26
801.794	-22.02
801.974	1909.22
802.154	-15.87
802.334	74.24
802.514	-46.59
802.693	98.81
802.873	-13.82
803.053	156.16
803.233	64
803.413	82.43
803.592	-24.06
803.772	-11.78
803.952	23.04
804.131	-67.07
804.311	31.23
804.491	43.52
804.67	-40.45
804.85	0.51
805.03	47.62
805.209	53.76
805.389	-15.87
805.568	6.66
805.748	59.9
805.928	-34.3
806.107	61.95
806.287	98.81
806.466	119.29
806.646	-42.5
806.825	45.57
807.004	-71.17
807.184	39.42
807.363	37.38
807.543	104.96
807.722	-95.74
807.901	133.63
808.081	117.25
808.26	-118.27
808.439	55.81
808.619	68.09
808.798	-65.02
808.977	57.86
809.156	131.58
809.336	55.81
809.515	160.25
809.694	-69.12
809.873	47.62
810.052	104.96
810.231	121.34
810.411	94.72
810.59	141.82
810.769	92.67
810.948	68.09
811.127	-52.74
811.306	31.23
811.485	8.7
811.664	164.35
811.843	-24.06
812.022	31.23
812.201	-9.73
812.38	23.04
812.559	-73.21
812.737	33.28
812.916	-118.27
813.095	-22.02
813.274	127.49
813.453	-30.21
813.632	98.81
813.811	33.28
813.989	-140.8
814.168	107.01
814.347	-60.93
814.526	35.33
814.704	57.86
814.883	170.49
815.062	-40.45
815.24	158.21
815.419	-44.54
815.598	57.86
815.776	-79.36
815.955	6.66
816.133	-58.88
816.312	-15.87
816.49	-34.3
816.669	31.23
816.847	45.57
817.026	33.28
817.204	-3.58
817.383	37.38
817.561	-60.93
817.74	27.14
817.918	35.33
818.097	-22.02
818.275	-67.07
818.453	55.81
818.632	29.18
818.81	-1.54
818.988	14.85
819.167	-34.3
819.345	-5.63
819.523	-73.21
819.701	20.99
819.879	57.86
820.058	51.71
820.236	41.47
820.414	31.23
820.592	61.95
820.77	10.75
820.948	10.75
821.127	-24.06
821.305	-7.68
821.483	-7.68
821.661	113.15
821.839	53.76
822.017	-79.36
822.195	-60.93
822.373	72.19
822.551	43.52
822.729	113.15
822.907	-26.11
823.085	2.56
823.262	25.09
823.44	-1.54
823.618	-26.11
823.796	53.76
823.974	-54.78
824.152	-15.87
824.329	-54.78
824.507	37.38
824.685	43.52
824.863	-26.11
825.04	-26.11
825.218	35.33
825.396	-13.82
825.574	74.24
825.751	27.14
825.929	121.34
826.107	10.75
826.284	-5.63
826.462	-67.07
826.639	-3.58
826.817	-73.21
826.994	-28.16
827.172	-1.54
827.349	127.49
827.527	47.62
827.704	86.53
827.882	70.14
828.059	-26.11
828.237	39.42
828.414	139.77
828.591	-97.79
828.769	37.38
828.946	-103.93
829.124	23.04
829.301	80.38
829.478	-24.06
829.655	49.66
829.833	113.15
830.01	-157.18
830.187	82.43
830.364	35.33
830.542	123.39
830.719	152.06
830.896	45.57
831.073	72.19
831.25	57.86
831.427	51.71
831.604	35.33
831.782	-48.64
831.959	-9.73
832.136	27.14
832.313	12.8
832.49	-9.73
832.667	-5.63
832.844	-17.92
833.021	66.05
833.198	-9.73
833.374	6.66
833.551	45.57
833.728	-48.64
833.905	102.91
834.082	-118.27
834.259	70.14
834.436	98.81
834.612	-105.98
834.789	53.76
834.966	-22.02
835.143	47.62
835.319	-81.41
835.496	158.21
835.673	119.29
835.85	33.28
836.026	45.57
836.203	90.62
836.38	-36.35
836.556	20.99
836.733	-87.55
836.909	119.29
837.086	-11.78
837.262	-110.08
837.439	-36.35
837.616	-46.59
837.792	-77.31
837.968	43.52
838.145	-77.31
838.321	-5.63
838.498	31.23
838.674	70.14
838.851	23.04
839.027	33.28
839.203	29.18
839.38	18.94
839.556	-50.69
839.732	147.97
839.909	-24.06
840.085	59.9
840.261	4.61
840.437	-32.26
840.614	10.75
840.79	20.99
840.966	45.57
841.142	-19.97
841.318	-103.93
841.494	72.19
841.671	49.66
841.847	18.94
842.023	-103.93
842.199	29.18
842.375	80.38
842.551	-157.18
842.727	-56.83
842.903	119.29
843.079	-22.02
843.255	86.53
843.431	-1.54
843.607	61.95
843.783	-112.13
843.959	41.47
844.134	-34.3
844.31	127.49
844.486	-52.74
844.662	-32.26
844.838	74.24
845.013	61.95
845.189	59.9
845.365	-13.82
845.541	20.99
845.716	14.85
845.892	119.29
846.068	4.61
846.244	-73.21
846.419	-5.63
846.595	-85.5
846.77	-79.36
846.946	66.05
847.122	-50.69
847.297	-34.3
847.473	66.05
847.648	-48.64
847.824	-32.26
847.999	-157.18
848.175	-38.4
848.35	-3.58
848.526	57.86
848.701	8.7
848.876	82.43
849.052	109.05
849.227	25.09
849.403	-32.26
849.578	35.33
849.753	-34.3
849.929	80.38
850.104	-62.98
850.279	31.23
850.454	111.1
850.63	31.23
850.805	-22.02
850.98	-75.26
851.155	-3.58
851.33	94.72
851.505	-34.3
851.681	68.09
851.856	-120.32
852.031	61.95
852.206	27.14
852.381	-58.88
852.556	-83.45
852.731	45.57
852.906	35.33
853.081	68.09
853.256	152.06
853.431	16.9
853.606	-56.83
853.781	-101.89
853.956	-124.41
854.131	53.76
854.305	-19.97
854.48	29.18
854.655	-60.93
854.83	16.9
855.005	-5.63
855.18	-15.87
855.354	43.52
855.529	51.71
855.704	-85.5
855.879	76.29
856.053	-83.45
856.228	66.05
856.403	-30.21
856.577	39.42
856.752	-83.45
856.926	23.04
857.101	-97.79
857.276	-3.58
857.45	-42.5
857.625	45.57
857.799	37.38
857.974	-44.54
858.148	-95.74
858.323	12.8
858.497	-7.68
858.672	-75.26
858.846	-62.98
859.02	94.72
859.195	-1.54
859.369	-46.59
859.543	80.38
859.718	8.7
859.892	-11.78
860.066	-7.68
860.241	10.75
860.415	-77.31
860.589	-13.82
860.763	74.24
860.938	-22.02
861.112	49.66
861.286	51.71
861.46	37.38
861.634	-42.5
861.808	98.81
861.982	-62.98
862.157	-44.54
862.331	2.56
862.505	-79.36
862.679	-69.12
862.853	-9.73
863.027	-26.11
863.201	129.53
863.375	-24.06
863.549	53.76
863.722	-65.02
863.896	53.76
864.07	-60.93
864.244	133.63
864.418	49.66
864.592	20.99
864.766	41.47
864.939	43.52
865.113	16.9
865.287	109.05
865.461	-75.26
865.634	59.9
865.808	-40.45
865.982	-44.54
866.156	-58.88
866.329	-60.93
866.503	64
866.676	61.95
866.85	16.9
867.024	-62.98
867.197	41.47
867.371	-1.54
867.544	23.04
867.718	-163.33
867.891	2.56
868.065	-93.69
868.238	-7.68
868.412	102.91
868.585	0.51
868.759	-60.93
868.932	-19.97
869.105	-60.93
869.279	61.95
869.452	-44.54
869.625	88.57
869.799	-42.5
869.972	-44.54
870.145	-13.82
870.319	31.23
870.492	-101.89
870.665	51.71
870.838	-69.12
871.011	-148.99
871.185	4.61
871.358	2.56
871.531	66.05
871.704	-58.88
871.877	53.76
872.05	41.47
872.223	41.47
872.396	-9.73
872.569	70.14
872.742	-89.6
872.915	55.81
873.088	37.38
873.261	-77.31
873.434	45.57
873.607	20.99
873.78	143.87
873.953	-85.5
874.126	31.23
874.299	16.9
874.471	-15.87
874.644	-17.92
874.817	43.52
874.99	133.63
875.163	-3.58
875.335	61.95
875.508	-24.06
875.681	64
875.853	-17.92
876.026	8.7
876.199	16.9
876.371	59.9
876.544	10.75
876.717	109.05
876.889	-69.12
877.062	-17.92
877.234	-108.03
877.407	-120.32
877.579	-11.78
877.752	57.86
877.924	66.05
878.097	33.28
878.269	12.8
878.442	16.9
878.614	-50.69
878.786	-32.26
878.959	109.05
879.131	-3.58
879.303	-118.27
879.476	-52.74
879.648	107.01
879.82	49.66
879.993	25.09
880.165	-11.78
880.337	-101.89
880.509	-3.58
880.681	-58.88
880.854	-36.35
881.026	55.81
881.198	135.68
881.37	-42.5
881.542	0.51
881.714	20.99
881.886	-17.92
882.058	-28.16
882.23	61.95
882.402	64
882.574	64
882.746	111.1
882.918	96.77
883.09	8.7
883.262	27.14
883.434	57.86
883.606	-126.46
883.778	-3.58
883.95	141.82
884.122	10.75
884.293	55.81
884.465	-30.21
884.637	119.29
884.809	-19.97
884.98	-30.21
885.152	57.86
885.324	27.14
885.496	-40.45
885.667	-83.45
885.839	14.85
886.011	94.72
886.182	-1.54
886.354	57.86
886.525	25.09
886.697	6.66
886.869	-65.02
887.04	-19.97
887.212	119.29
887.383	190.97
887.555	2.56
887.726	-48.64
887.897	-44.54
888.069	-7.68
888.24	111.1
888.412	10.75
888.583	-42.5
888.754	-46.59
888.926	-89.6
889.097	-89.6
889.268	-138.75
889.44	-48.64
889.611	-132.61
889.782	-40.45
889.953	-130.56
890.125	98.81
890.296	-118.27
890.467	-24.06
890.638	25.09
890.809	-38.4
890.98	12.8
891.151	57.86
891.323	119.29
891.494	-7.68
891.665	33.28
891.836	68.09
892.007	47.62
892.178	74.24
892.349	6.66
892.52	-69.12
892.691	53.76
892.862	-5.63
893.032	-138.75
893.203	-30.21
893.374	45.57
893.545	27.14
893.716	-24.06
893.887	92.67
894.057	45.57
894.228	25.09
894.399	-73.21
894.57	115.2
894.74	33.28
894.911	47.62
895.082	-11.78
895.253	18.94
895.423	29.18
895.594	45.57
895.764	43.52
895.935	-101.89
896.106	57.86
896.276	-81.41
896.447	29.18
896.617	-126.46
896.788	-124.41
896.958	-93.69
897.129	-67.07
897.299	-56.83
897.47	39.42
897.64	51.71
897.81	23.04
897.981	-46.59
898.151	-40.45
898.322	84.48
898.492	150.01
898.662	-60.93
898.832	-26.11
899.003	16.9
899.173	68.09
899.343	-54.78
899.513	-24.06
