Data from USB4F104151__114__10-45-54-060.txt Node

Date: Wed Feb 26 10:45:54 EST 2025
User: louis
Spectrometer: USB4F10415
Trigger mode: 4
Integration Time (sec): 1.000000E-1
Scans to average: 1
Electric dark correction enabled: true
Nonlinearity correction enabled: false
Boxcar width: 0
XAxis mode: Wavelengths
Number of Pixels in Spectrum: 3648
>>>>>Begin Spectral Data<<<<<
178.204	-408.06
178.424	-408.06
178.644	-408.06
178.864	-397.82
179.084	-418.3
179.304	-39.42
179.524	-18.94
179.744	5.63
179.964	22.02
180.184	62.98
180.404	13.82
180.624	-2.56
180.844	11.78
181.064	-16.9
181.283	-18.94
181.503	-25.09
181.723	5.63
181.943	-137.73
182.163	253.44
182.383	28.16
182.602	-20.99
182.822	146.94
183.042	89.6
183.262	-49.66
183.482	-8.7
183.701	91.65
183.921	71.17
184.141	-51.71
184.361	91.65
184.58	97.79
184.8	38.4
185.02	-45.57
185.239	71.17
185.459	65.02
185.679	124.41
185.898	-33.28
186.118	44.54
186.338	71.17
186.557	56.83
186.777	-29.18
186.997	-16.9
187.216	77.31
187.436	134.65
187.655	95.74
187.875	52.74
188.095	77.31
188.314	58.88
188.534	67.07
188.753	-61.95
188.973	126.46
189.192	118.27
189.412	40.45
189.631	32.26
189.851	71.17
190.07	142.85
190.29	-20.99
190.509	-66.05
190.729	19.97
190.948	167.42
191.168	224.76
191.387	155.13
191.607	3.58
191.826	34.3
192.045	36.35
192.265	-2.56
192.484	142.85
192.704	69.12
192.923	-45.57
193.142	130.56
193.362	114.17
193.581	175.61
193.8	-33.28
194.02	130.56
194.239	83.45
194.458	120.32
194.678	3.58
194.897	17.92
195.116	32.26
195.335	65.02
195.555	75.26
195.774	-16.9
195.993	114.17
196.212	120.32
196.432	-0.51
196.651	46.59
196.87	-4.61
197.089	208.38
197.308	26.11
197.528	148.99
197.747	-25.09
197.966	26.11
198.185	192
198.404	-25.09
198.623	103.93
198.842	105.98
199.062	93.69
199.281	132.61
199.5	126.46
199.719	73.21
199.938	89.6
200.157	54.78
200.376	77.31
200.595	146.94
200.814	99.84
201.033	-6.66
201.252	153.09
201.471	85.5
201.69	110.08
201.909	38.4
202.128	118.27
202.347	101.89
202.566	28.16
202.785	-29.18
203.004	-16.9
203.223	218.62
203.442	11.78
203.661	-78.33
203.879	122.37
204.098	118.27
204.317	52.74
204.536	122.37
204.755	71.17
204.974	112.13
205.193	-59.9
205.411	165.37
205.63	124.41
205.849	11.78
206.068	28.16
206.287	-111.1
206.505	97.79
206.724	19.97
206.943	15.87
207.162	108.03
207.381	89.6
207.599	19.97
207.818	24.06
208.037	26.11
208.255	5.63
208.474	46.59
208.693	71.17
208.911	-8.7
209.13	112.13
209.349	87.55
209.567	62.98
209.786	69.12
210.005	60.93
210.223	7.68
210.442	-41.47
210.661	-18.94
210.879	46.59
211.098	42.5
211.316	91.65
211.535	58.88
211.753	69.12
211.972	114.17
212.191	85.5
212.409	-8.7
212.628	75.26
212.846	75.26
213.065	36.35
213.283	120.32
213.502	89.6
213.72	101.89
213.938	38.4
214.157	26.11
214.375	144.89
214.594	3.58
214.812	97.79
215.031	-8.7
215.249	-25.09
215.467	13.82
215.686	79.36
215.904	128.51
216.122	3.58
216.341	177.66
216.559	40.45
216.778	101.89
216.996	124.41
217.214	-47.62
217.432	-16.9
217.651	-57.86
217.869	89.6
218.087	65.02
218.306	97.79
218.524	38.4
218.742	36.35
218.96	173.57
219.179	28.16
219.397	11.78
219.615	185.85
219.833	67.07
220.051	-35.33
220.27	91.65
220.488	83.45
220.706	58.88
220.924	-16.9
221.142	-27.14
221.36	48.64
221.578	50.69
221.796	17.92
222.015	46.59
222.233	-37.38
222.451	181.76
222.669	-29.18
222.887	28.16
223.105	71.17
223.323	-27.14
223.541	17.92
223.759	114.17
223.977	114.17
224.195	116.22
224.413	124.41
224.631	9.73
224.849	153.09
225.067	196.09
225.285	-4.61
225.503	9.73
225.721	-107.01
225.939	-0.51
226.157	7.68
226.375	204.28
226.592	-45.57
226.81	81.41
227.028	138.75
227.246	120.32
227.464	34.3
227.682	126.46
227.9	71.17
228.117	83.45
228.335	130.56
228.553	77.31
228.771	36.35
228.989	75.26
229.206	81.41
229.424	-29.18
229.642	5.63
229.86	-20.99
230.077	112.13
230.295	50.69
230.513	97.79
230.731	91.65
230.948	146.94
231.166	155.13
231.384	-41.47
231.601	-57.86
231.819	153.09
232.037	11.78
232.254	-68.09
232.472	46.59
232.689	56.83
232.907	144.89
233.125	13.82
233.342	9.73
233.56	15.87
233.777	-45.57
233.995	124.41
234.213	62.98
234.43	38.4
234.648	-4.61
234.865	40.45
235.083	132.61
235.3	30.21
235.518	136.7
235.735	148.99
235.953	71.17
236.17	15.87
236.388	95.74
236.605	101.89
236.822	140.8
237.04	83.45
237.257	87.55
237.475	-57.86
237.692	110.08
237.909	110.08
238.127	-20.99
238.344	81.41
238.562	54.78
238.779	-23.04
238.996	-61.95
239.214	58.88
239.431	105.98
239.648	1.54
239.865	112.13
240.083	114.17
240.3	13.82
240.517	32.26
240.735	108.03
240.952	159.23
241.169	30.21
241.386	58.88
241.603	62.98
241.821	-55.81
242.038	62.98
242.255	220.67
242.472	-39.42
242.689	60.93
242.907	58.88
243.124	50.69
243.341	-16.9
243.558	-74.24
243.775	15.87
243.992	-8.7
244.209	67.07
244.426	138.75
244.643	40.45
244.86	36.35
245.078	114.17
245.295	118.27
245.512	56.83
245.729	-47.62
245.946	85.5
246.163	52.74
246.38	9.73
246.597	163.33
246.814	62.98
247.031	44.54
247.248	24.06
247.464	165.37
247.681	-4.61
247.898	103.93
248.115	134.65
248.332	-29.18
248.549	108.03
248.766	155.13
248.983	112.13
249.2	30.21
249.417	108.03
249.633	30.21
249.85	-10.75
250.067	48.64
250.284	52.74
250.501	146.94
250.717	54.78
250.934	-45.57
251.151	-18.94
251.368	22.02
251.585	-4.61
251.801	58.88
252.018	-78.33
252.235	105.98
252.451	-8.7
252.668	17.92
252.885	159.23
253.102	3.58
253.318	9.73
253.535	42.5
253.752	-16.9
253.968	52.74
254.185	5.63
254.401	44.54
254.618	108.03
254.835	-39.42
255.051	110.08
255.268	112.13
255.484	93.69
255.701	44.54
255.917	-6.66
256.134	38.4
256.351	32.26
256.567	-37.38
256.784	44.54
257	-72.19
257.217	134.65
257.433	161.28
257.65	38.4
257.866	169.47
258.082	-53.76
258.299	1.54
258.515	95.74
258.732	24.06
258.948	-25.09
259.165	87.55
259.381	7.68
259.597	79.36
259.814	60.93
260.03	19.97
260.246	19.97
260.463	122.37
260.679	114.17
260.895	24.06
261.112	50.69
261.328	11.78
261.544	-4.61
261.761	206.33
261.977	32.26
262.193	-98.81
262.409	85.5
262.626	19.97
262.842	30.21
263.058	-18.94
263.274	120.32
263.49	-35.33
263.707	173.57
263.923	93.69
264.139	-18.94
264.355	60.93
264.571	91.65
264.787	44.54
265.004	99.84
265.22	85.5
265.436	-4.61
265.652	-2.56
265.868	34.3
266.084	-0.51
266.3	97.79
266.516	-68.09
266.732	157.18
266.948	71.17
267.164	36.35
267.38	65.02
267.596	83.45
267.812	144.89
268.028	81.41
268.244	-14.85
268.46	85.5
268.676	-51.71
268.892	-20.99
269.108	-72.19
269.324	-37.38
269.54	-82.43
269.756	105.98
269.972	-4.61
270.188	50.69
270.403	-84.48
270.619	44.54
270.835	116.22
271.051	-25.09
271.267	48.64
271.483	48.64
271.698	87.55
271.914	44.54
272.13	89.6
272.346	-20.99
272.562	105.98
272.777	103.93
272.993	97.79
273.209	62.98
273.425	30.21
273.64	-33.28
273.856	128.51
274.072	-55.81
274.287	3.58
274.503	136.7
274.719	85.5
274.934	50.69
275.15	11.78
275.366	42.5
275.581	-33.28
275.797	-4.61
276.012	103.93
276.228	11.78
276.444	52.74
276.659	132.61
276.875	-39.42
277.09	-4.61
277.306	1.54
277.521	65.02
277.737	38.4
277.952	116.22
278.168	46.59
278.383	32.26
278.599	11.78
278.814	60.93
279.03	71.17
279.245	122.37
279.461	19.97
279.676	165.37
279.892	-64
280.107	-8.7
280.322	-29.18
280.538	52.74
280.753	11.78
280.969	93.69
281.184	85.5
281.399	93.69
281.615	65.02
281.83	103.93
282.045	-8.7
282.26	-45.57
282.476	81.41
282.691	97.79
282.906	19.97
283.122	120.32
283.337	13.82
283.552	128.51
283.767	-33.28
283.983	136.7
284.198	13.82
284.413	44.54
284.628	15.87
284.843	38.4
285.058	42.5
285.274	42.5
285.489	-66.05
285.704	122.37
285.919	1.54
286.134	50.69
286.349	-12.8
286.564	32.26
286.779	142.85
286.995	-27.14
287.21	15.87
287.425	73.21
287.64	7.68
287.855	52.74
288.07	40.45
288.285	99.84
288.5	56.83
288.715	105.98
288.93	24.06
289.145	11.78
289.36	99.84
289.575	24.06
289.79	71.17
290.004	-4.61
290.219	32.26
290.434	67.07
290.649	-47.62
290.864	-41.47
291.079	103.93
291.294	85.5
291.509	58.88
291.724	34.3
291.938	17.92
292.153	75.26
292.368	58.88
292.583	-55.81
292.798	112.13
293.012	83.45
293.227	105.98
293.442	38.4
293.657	93.69
293.871	144.89
294.086	71.17
294.301	187.9
294.516	173.57
294.73	54.78
294.945	-25.09
295.16	-4.61
295.374	126.46
295.589	122.37
295.804	56.83
296.018	46.59
296.233	144.89
296.447	110.08
296.662	-64
296.877	79.36
297.091	146.94
297.306	-8.7
297.52	36.35
297.735	46.59
297.949	56.83
298.164	40.45
298.378	85.5
298.593	-76.29
298.807	-35.33
299.022	128.51
299.236	69.12
299.451	144.89
299.665	48.64
299.88	-0.51
300.094	161.28
300.309	85.5
300.523	42.5
300.737	1.54
300.952	77.31
301.166	62.98
301.381	-41.47
301.595	11.78
301.809	58.88
302.024	54.78
302.238	24.06
302.452	108.03
302.667	-10.75
302.881	189.95
303.095	32.26
303.309	-16.9
303.524	-6.66
303.738	65.02
303.952	42.5
304.166	46.59
304.381	-158.21
304.595	159.23
304.809	-0.51
305.023	13.82
305.237	-14.85
305.452	13.82
305.666	99.84
305.88	126.46
306.094	138.75
306.308	97.79
306.522	130.56
306.736	126.46
306.95	146.94
307.164	1.54
307.379	69.12
307.593	228.86
307.807	136.7
308.021	103.93
308.235	95.74
308.449	-80.38
308.663	28.16
308.877	200.19
309.091	62.98
309.305	58.88
309.519	-20.99
309.733	71.17
309.947	1.54
310.161	105.98
310.374	99.84
310.588	153.09
310.802	-27.14
311.016	65.02
311.23	153.09
311.444	-18.94
311.658	67.07
311.872	163.33
312.085	42.5
312.299	183.81
312.513	75.26
312.727	40.45
312.941	-41.47
313.154	108.03
313.368	65.02
313.582	34.3
313.796	105.98
314.009	32.26
314.223	144.89
314.437	42.5
314.651	38.4
314.864	9.73
315.078	5.63
315.292	-0.51
315.505	38.4
315.719	93.69
315.933	50.69
316.146	32.26
316.36	-88.57
316.573	87.55
316.787	81.41
317.001	65.02
317.214	-43.52
317.428	79.36
317.641	40.45
317.855	-12.8
318.068	108.03
318.282	-12.8
318.495	169.47
318.709	50.69
318.922	7.68
319.136	128.51
319.349	169.47
319.563	-31.23
319.776	28.16
319.99	-4.61
320.203	116.22
320.417	-4.61
320.63	155.13
320.843	144.89
321.057	101.89
321.27	-0.51
321.483	71.17
321.697	62.98
321.91	50.69
322.124	101.89
322.337	83.45
322.55	-49.66
322.763	67.07
322.977	19.97
323.19	42.5
323.403	105.98
323.617	9.73
323.83	159.23
324.043	-31.23
324.256	114.17
324.469	-4.61
324.683	87.55
324.896	73.21
325.109	77.31
325.322	-86.53
325.535	153.09
325.748	85.5
325.962	36.35
326.175	134.65
326.388	120.32
326.601	144.89
326.814	-8.7
327.027	79.36
327.24	153.09
327.453	-43.52
327.666	71.17
327.879	101.89
328.092	52.74
328.305	46.59
328.518	54.78
328.731	-4.61
328.944	-0.51
329.157	58.88
329.37	-0.51
329.583	101.89
329.796	83.45
330.009	-131.58
330.222	93.69
330.435	95.74
330.648	-27.14
330.861	17.92
331.073	5.63
331.286	60.93
331.499	38.4
331.712	77.31
331.925	30.21
332.138	-6.66
332.35	118.27
332.563	-2.56
332.776	126.46
332.989	-18.94
333.202	50.69
333.414	-37.38
333.627	38.4
333.84	36.35
334.053	48.64
334.265	-6.66
334.478	-6.66
334.691	48.64
334.903	60.93
335.116	-10.75
335.329	32.26
335.541	-16.9
335.754	181.76
335.966	46.59
336.179	77.31
336.392	9.73
336.604	5.63
336.817	130.56
337.029	93.69
337.242	60.93
337.454	99.84
337.667	-4.61
337.88	208.38
338.092	28.16
338.305	87.55
338.517	3.58
338.729	69.12
338.942	153.09
339.154	11.78
339.367	-12.8
339.579	77.31
339.792	5.63
340.004	42.5
340.217	42.5
340.429	32.26
340.641	-64
340.854	22.02
341.066	1.54
341.278	196.09
341.491	161.28
341.703	58.88
341.915	15.87
342.128	81.41
342.34	91.65
342.552	-90.62
342.764	19.97
342.977	60.93
343.189	97.79
343.401	42.5
343.613	-31.23
343.826	19.97
344.038	11.78
344.25	99.84
344.462	-31.23
344.674	24.06
344.886	28.16
345.099	50.69
345.311	140.8
345.523	-18.94
345.735	-80.38
345.947	17.92
346.159	56.83
346.371	71.17
346.583	-18.94
346.795	247.29
347.007	42.5
347.219	138.75
347.431	13.82
347.643	151.04
347.855	17.92
348.067	146.94
348.279	-55.81
348.491	24.06
348.703	62.98
348.915	3.58
349.127	-2.56
349.339	60.93
349.551	-18.94
349.763	91.65
349.975	11.78
350.187	108.03
350.399	161.28
350.61	108.03
350.822	38.4
351.034	112.13
351.246	85.5
351.458	130.56
351.669	7.68
351.881	83.45
352.093	105.98
352.305	77.31
352.517	91.65
352.728	101.89
352.94	30.21
353.152	75.26
353.363	-47.62
353.575	44.54
353.787	171.52
353.999	36.35
354.21	206.33
354.422	7.68
354.633	50.69
354.845	-66.05
355.057	19.97
355.268	50.69
355.48	87.55
355.692	11.78
355.903	54.78
356.115	-6.66
356.326	-20.99
356.538	11.78
356.749	120.32
356.961	130.56
357.172	50.69
357.384	-102.91
357.595	239.1
357.807	-2.56
358.018	-6.66
358.23	-16.9
358.441	130.56
358.653	73.21
358.864	15.87
359.075	7.68
359.287	17.92
359.498	122.37
359.709	97.79
359.921	-8.7
360.132	5.63
360.344	42.5
360.555	42.5
360.766	11.78
360.977	42.5
361.189	175.61
361.4	22.02
361.611	126.46
361.823	58.88
362.034	-8.7
362.245	-37.38
362.456	-23.04
362.667	136.7
362.879	-4.61
363.09	148.99
363.301	110.08
363.512	103.93
363.723	-61.95
363.935	69.12
364.146	62.98
364.357	-6.66
364.568	77.31
364.779	-41.47
364.99	103.93
365.201	-27.14
365.412	140.8
365.623	-109.05
365.834	30.21
366.045	-8.7
366.256	95.74
366.467	62.98
366.678	-31.23
366.889	81.41
367.1	26.11
367.311	15.87
367.522	44.54
367.733	17.92
367.944	105.98
368.155	7.68
368.366	132.61
368.577	153.09
368.788	179.71
368.999	-16.9
369.209	60.93
369.42	163.33
369.631	175.61
369.842	126.46
370.053	48.64
370.264	30.21
370.474	52.74
370.685	60.93
370.896	22.02
371.107	198.14
371.317	13.82
371.528	-25.09
371.739	118.27
371.95	38.4
372.16	95.74
372.371	-12.8
372.582	-18.94
372.792	79.36
373.003	83.45
373.214	58.88
373.424	114.17
373.635	-12.8
373.846	136.7
374.056	58.88
374.267	112.13
374.477	83.45
374.688	5.63
374.898	-10.75
375.109	54.78
375.319	130.56
375.53	54.78
375.74	89.6
375.951	69.12
376.161	83.45
376.372	151.04
376.582	-55.81
376.793	36.35
377.003	-35.33
377.214	13.82
377.424	32.26
377.635	108.03
377.845	28.16
378.055	120.32
378.266	-43.52
378.476	52.74
378.686	17.92
378.897	105.98
379.107	36.35
379.317	77.31
379.528	19.97
379.738	89.6
379.948	17.92
380.158	124.41
380.369	58.88
380.579	62.98
380.789	50.69
380.999	67.07
381.21	124.41
381.42	196.09
381.63	38.4
381.84	89.6
382.05	126.46
382.261	118.27
382.471	169.47
382.681	-53.76
382.891	173.57
383.101	114.17
383.311	22.02
383.521	77.31
383.731	130.56
383.941	155.13
384.151	11.78
384.361	56.83
384.571	105.98
384.781	134.65
384.991	171.52
385.201	134.65
385.411	110.08
385.621	73.21
385.831	42.5
386.041	36.35
386.251	54.78
386.461	196.09
386.671	75.26
386.881	60.93
387.091	54.78
387.301	153.09
387.511	132.61
387.72	126.46
387.93	85.5
388.14	-57.86
388.35	73.21
388.56	124.41
388.769	79.36
388.979	44.54
389.189	24.06
389.399	54.78
389.609	42.5
389.818	58.88
390.028	28.16
390.238	71.17
390.447	-14.85
390.657	44.54
390.867	50.69
391.076	-39.42
391.286	69.12
391.496	-43.52
391.705	105.98
391.915	132.61
392.125	69.12
392.334	-10.75
392.544	99.84
392.753	105.98
392.963	-47.62
393.172	62.98
393.382	7.68
393.591	255.48
393.801	17.92
394.01	189.95
394.22	79.36
394.429	83.45
394.639	-18.94
394.848	93.69
395.058	65.02
395.267	28.16
395.477	73.21
395.686	67.07
395.895	312.83
396.105	204.28
396.314	71.17
396.524	103.93
396.733	-6.66
396.942	126.46
397.152	24.06
397.361	171.52
397.57	19.97
397.78	26.11
397.989	75.26
398.198	257.53
398.407	69.12
398.617	32.26
398.826	132.61
399.035	65.02
399.244	79.36
399.453	81.41
399.663	19.97
399.872	36.35
400.081	-35.33
400.29	142.85
400.499	101.89
400.708	116.22
400.917	81.41
401.127	-33.28
401.336	50.69
401.545	200.19
401.754	153.09
401.963	142.85
402.172	38.4
402.381	-4.61
402.59	105.98
402.799	62.98
403.008	142.85
403.217	60.93
403.426	89.6
403.635	-51.71
403.844	7.68
404.053	38.4
404.262	85.5
404.471	105.98
404.68	60.93
404.888	73.21
405.097	85.5
405.306	103.93
405.515	48.64
405.724	-18.94
405.933	97.79
406.142	79.36
406.35	165.37
406.559	-29.18
406.768	13.82
406.977	192
407.185	-0.51
407.394	110.08
407.603	-84.48
407.812	136.7
408.02	85.5
408.229	40.45
408.438	93.69
408.646	-55.81
408.855	93.69
409.064	69.12
409.272	-2.56
409.481	89.6
409.69	46.59
409.898	-41.47
410.107	60.93
410.315	177.66
410.524	-0.51
410.733	101.89
410.941	112.13
411.15	97.79
411.358	110.08
411.567	153.09
411.775	50.69
411.984	67.07
412.192	75.26
412.401	7.68
412.609	183.81
412.818	165.37
413.026	105.98
413.234	26.11
413.443	24.06
413.651	28.16
413.86	44.54
414.068	148.99
414.276	189.95
414.485	-0.51
414.693	69.12
414.901	136.7
415.11	124.41
415.318	36.35
415.526	65.02
415.734	91.65
415.943	19.97
416.151	192
416.359	83.45
416.567	67.07
416.776	36.35
416.984	71.17
417.192	177.66
417.4	67.07
417.608	40.45
417.817	-70.14
418.025	128.51
418.233	169.47
418.441	-6.66
418.649	3.58
418.857	-25.09
419.065	148.99
419.273	34.3
419.481	26.11
419.689	56.83
419.897	89.6
420.105	-78.33
420.313	134.65
420.521	85.5
420.729	187.9
420.937	-37.38
421.145	-25.09
421.353	136.7
421.561	136.7
421.769	120.32
421.977	-2.56
422.185	165.37
422.393	81.41
422.601	116.22
422.809	17.92
423.017	144.89
423.224	120.32
423.432	175.61
423.64	52.74
423.848	136.7
424.056	44.54
424.263	159.23
424.471	7.68
424.679	126.46
424.887	36.35
425.094	60.93
425.302	97.79
425.51	-0.51
425.718	163.33
425.925	44.54
426.133	48.64
426.341	216.57
426.548	40.45
426.756	11.78
426.964	148.99
427.171	-6.66
427.379	50.69
427.586	42.5
427.794	93.69
428.001	114.17
428.209	124.41
428.417	204.28
428.624	79.36
428.832	132.61
429.039	99.84
429.247	122.37
429.454	77.31
429.662	185.85
429.869	157.18
430.076	163.33
430.284	146.94
430.491	200.19
430.699	177.66
430.906	237.05
431.114	130.56
431.321	157.18
431.528	169.47
431.736	93.69
431.943	175.61
432.15	196.09
432.358	194.05
432.565	241.15
432.772	65.02
432.979	249.34
433.187	108.03
433.394	177.66
433.601	183.81
433.808	132.61
434.016	243.2
434.223	163.33
434.43	214.52
434.637	214.52
434.844	273.92
435.052	181.76
435.259	292.35
435.466	269.82
435.673	251.39
435.88	241.15
436.087	288.25
436.294	296.44
436.501	304.64
436.708	247.29
436.915	339.45
437.122	386.55
437.329	161.28
437.537	304.64
437.743	337.4
437.95	443.9
438.157	304.64
438.364	298.49
438.571	331.26
438.778	431.61
438.985	443.9
439.192	439.8
439.399	454.14
439.606	433.66
439.813	497.14
440.02	601.59
440.227	734.71
440.433	552.44
440.64	493.05
440.847	460.28
441.054	558.58
441.261	730.61
441.467	591.35
441.674	540.15
441.881	601.59
442.088	622.07
442.294	675.32
442.501	763.38
442.708	812.53
442.914	732.66
443.121	703.99
443.328	837.11
443.534	857.59
443.741	800.24
443.948	808.44
444.154	941.55
444.361	1060.34
444.568	931.31
444.774	1007.09
444.981	941.55
445.187	1138.16
445.394	1089.01
445.6	1007.09
445.807	1258.99
446.013	1138.16
446.22	1097.2
446.426	1306.09
446.633	1355.24
446.839	1486.31
447.046	1332.72
447.252	1463.79
447.459	1455.59
447.665	1484.27
447.871	1615.34
448.078	1834.47
448.284	1713.64
448.491	1820.13
448.697	1926.63
448.903	2057.7
449.11	2039.26
449.316	2125.28
449.522	2266.59
449.728	2223.58
449.935	2483.67
450.141	2414.04
450.347	2512.35
450.553	2547.16
450.76	2504.15
450.966	2778.58
451.172	2786.77
451.378	2899.41
451.584	2923.99
451.791	3257.81
451.997	3218.89
452.203	3272.14
452.409	3456.46
452.615	3546.57
452.821	3390.92
453.027	3565
453.233	4220.35
453.44	3970.5
453.646	4046.27
453.852	4427.2
454.058	4380.09
454.264	4541.88
454.47	4914.61
454.676	4828.6
454.882	5115.31
455.088	5109.17
455.294	5442.99
455.5	5770.66
455.705	6202.79
455.911	5987.75
456.117	6350.24
456.323	6477.21
456.529	6477.21
456.735	7171.47
456.941	7484.81
457.147	7673.23
457.352	7781.77
457.558	8015.24
457.764	8650.11
457.97	8619.39
458.176	9069.94
458.381	9256.31
458.587	9520.49
458.793	9991.53
458.999	10169.7
459.204	11144.53
459.41	11656.53
459.616	11461.97
459.821	12281.16
460.027	12569.92
460.233	13258.04
460.438	13487.41
460.644	14052.65
460.85	14183.72
461.055	14892.32
461.261	15699.22
461.466	15291.67
461.672	15684.88
461.878	17284.34
462.083	17331.45
462.289	17345.78
462.494	17966.32
462.7	18099.44
462.905	18388.2
463.111	19891.41
463.316	21095.61
463.522	21531.83
463.727	22027.44
463.932	22762.66
464.138	23778.45
464.343	24677.51
464.549	25019.52
464.754	26428.52
464.959	27528.28
465.165	28050.52
465.37	27690.07
465.575	27567.2
465.781	29185.09
465.986	29858.87
466.191	29690.94
466.397	30090.29
466.602	29303.87
466.807	30850.09
467.012	31550.49
467.218	32381.97
467.423	32285.72
467.628	32902.15
467.833	34872.3
468.038	34055.16
468.244	33641.47
468.449	35099.62
468.654	34696.17
468.859	34604.02
469.064	34339.83
469.269	33584.13
469.474	34104.31
469.679	35109.86
469.885	34046.97
470.09	34462.71
470.295	34518
470.5	33489.92
470.705	34032.63
470.91	33293.32
471.115	32967.69
471.32	33197.06
471.525	33022.98
471.73	32334.87
471.935	31937.56
472.139	30876.71
472.344	30970.92
472.549	30811.18
472.754	30155.83
472.959	29643.84
473.164	28370
473.369	27903.06
473.574	28810.31
473.778	28314.7
473.983	27896.92
474.188	27307.1
474.393	26096.75
474.598	25859.19
474.802	25060.48
475.007	24820.87
475.212	24671.37
475.417	23927.95
475.621	23368.86
475.826	23424.15
476.031	22908.07
476.235	22361.26
476.44	22201.52
476.645	21791.92
476.849	21331.13
477.054	21017.79
477.259	20710.6
477.463	20538.57
477.668	19961.04
477.872	20004.05
478.077	19338.46
478.282	19104.99
478.486	18826.46
478.691	18580.71
478.895	18386.15
479.1	18253.03
479.304	18121.96
479.509	17409.27
479.713	17736.95
479.918	17394.93
480.122	16772.35
480.326	17046.78
480.531	17140.99
480.735	16729.34
480.94	16844.03
481.144	17083.64
481.348	16203.02
481.553	16477.44
481.757	15877.39
481.961	16076.04
482.166	16229.64
482.37	15881.49
482.574	15396.12
482.778	15711.5
482.983	15922.45
483.187	15435.03
483.391	15230.23
483.595	15170.84
483.8	14949.66
484.004	14880.03
484.208	14896.41
484.412	14550.31
484.616	14816.54
484.821	14378.28
485.025	14081.32
485.229	14083.37
485.433	13673.78
485.637	13673.78
485.841	13378.87
486.045	13249.85
486.249	13030.71
486.453	12870.97
486.657	12657.98
486.861	12602.69
487.065	12205.38
487.269	12354.88
487.473	11889.99
487.677	11838.8
487.881	11822.41
488.085	11543.89
488.289	11347.28
488.493	10757.47
488.697	11070.81
488.901	10734.94
489.105	10458.46
489.309	10362.21
489.512	10304.87
489.716	9897.32
489.92	9751.92
490.124	9596.27
490.328	9575.79
490.531	9309.55
490.735	9229.68
490.939	8955.26
491.143	8758.65
491.346	8734.07
491.55	8693.12
491.754	8516.99
491.958	8490.37
492.161	8056.2
492.365	7910.79
492.569	7769.48
492.772	7818.63
492.976	7812.49
493.18	7654.8
493.383	7617.93
493.587	7503.25
493.79	7464.33
493.994	7165.33
494.197	7077.27
494.401	7083.41
494.605	6952.34
494.808	6915.48
495.012	7032.21
495.215	6972.82
495.419	6999.45
495.622	6460.83
495.825	6706.59
496.029	6645.15
496.232	6790.55
496.436	6604.19
496.639	6661.53
496.843	6774.17
497.046	6704.54
497.249	6634.91
497.453	6626.71
497.656	6614.43
497.859	6542.75
498.063	6507.93
498.266	6651.29
498.469	6514.08
498.673	6684.06
498.876	6643.1
499.079	6550.94
499.282	6712.73
499.485	6780.31
499.689	6722.97
499.892	6940.05
500.095	6679.96
500.298	6886.81
500.501	6645.15
500.705	6808.98
500.908	7030.16
501.111	7097.75
501.314	7105.94
501.517	7015.83
501.72	7257.49
501.923	7060.88
502.126	7384.46
502.329	7441.81
502.532	7636.36
502.735	7710.09
502.938	7718.28
503.141	7697.8
503.344	7822.73
503.547	8066.44
503.75	8045.96
503.953	8074.63
504.156	8287.62
504.359	8392.06
504.562	8492.41
504.765	8512.89
504.968	8742.27
505.17	8889.72
505.373	9028.98
505.576	9313.65
505.779	9291.12
505.982	9244.02
506.185	9643.37
506.387	9792.87
506.59	9762.16
506.793	10057.06
506.996	10141.03
507.198	10589.53
507.401	10401.12
507.604	11001.18
507.807	11101.53
508.009	11232.6
508.212	11214.16
508.415	11715.92
508.617	12002.63
508.82	11775.31
509.022	12152.13
509.225	12555.58
509.428	12830.01
509.63	13067.58
509.833	13262.13
510.035	13786.41
510.238	13862.19
510.44	14109.99
510.643	14478.63
510.845	14972.19
511.048	15002.91
511.25	15510.8
511.453	15861.01
511.655	16444.68
511.858	16338.18
512.06	16909.57
512.262	17194.23
512.465	17439.99
512.667	17777.9
512.87	18222.31
513.072	18709.73
513.274	19158.24
513.477	19664.08
513.679	20032.72
513.881	20475.08
514.084	20950.21
514.286	21476.54
514.488	22009.01
514.69	22729.89
514.893	22842.53
515.095	23069.86
515.297	23798.93
515.499	24040.59
515.701	24724.61
515.904	25265.28
516.106	25891.96
516.308	26027.12
516.51	27051.11
516.712	27520.09
516.914	27479.13
517.116	28685.39
517.318	28666.95
517.52	29238.34
517.722	29946.94
517.925	30411.82
518.127	31525.92
518.329	31894.55
518.531	31288.35
518.733	32510.99
518.935	33268.74
519.136	33659.9
519.338	34321.4
519.54	34751.47
519.742	35341.28
519.944	35548.13
520.146	36269.01
520.348	36449.24
520.55	37489.6
520.752	37430.21
520.954	38241.21
521.155	38366.13
521.357	39283.62
521.559	39521.19
521.761	40242.07
521.963	40487.83
522.164	40860.56
522.366	41053.07
522.568	41323.4
522.77	41665.41
522.971	42310.52
523.173	42453.88
523.375	42722.16
523.576	42533.75
523.778	42922.87
523.98	43656.04
524.181	43369.32
524.383	43494.25
524.584	43866.98
524.786	43946.85
524.988	43301.74
525.189	44237.66
525.391	44553.05
525.592	44485.47
525.794	44499.8
525.995	44215.13
526.197	44327.77
526.398	43834.21
526.6	44188.51
526.801	43762.53
527.003	43907.94
527.204	43760.48
527.406	43854.69
527.607	43422.57
527.808	43760.48
528.01	42955.63
528.211	42967.92
528.412	43072.37
528.614	42961.78
528.815	42396.54
529.016	42568.57
529.218	41700.23
529.419	41620.36
529.62	41452.42
529.822	40510.36
530.023	40164.25
530.224	40061.85
530.425	39693.22
530.626	39099.31
530.828	38656.95
531.029	38646.71
531.23	37577.67
531.431	37487.56
531.632	37116.87
531.833	36944.84
532.035	36271.06
532.236	35718.11
532.437	35517.41
532.638	34905.07
532.839	34704.37
533.04	34319.35
533.241	33565.7
533.442	33928.19
533.643	32910.35
533.844	32384.02
534.045	32128.02
534.246	31804.44
534.447	31200.29
534.648	30827.56
534.849	30567.47
535.05	29903.93
535.251	29944.89
535.451	29090.88
535.652	28982.34
535.853	28382.29
536.054	28593.23
536.255	27679.83
536.456	27120.74
536.657	27434.08
536.857	26631.27
537.058	26106.99
537.259	25889.91
537.46	25638.01
537.66	25269.37
537.861	25058.43
538.062	24548.49
538.263	24183.95
538.463	23995.54
538.664	23919.76
538.865	23461.02
539.065	23297.18
539.266	22731.94
539.466	22543.53
539.667	22072.5
539.868	22021.3
540.068	21533.88
540.269	21626.04
540.469	21312.7
540.67	20950.21
540.87	20643.01
541.071	20452.55
541.271	20321.48
541.472	20202.7
541.672	19836.11
541.873	19580.12
542.073	19012.83
542.274	19225.82
542.474	19150.04
542.675	18793.7
542.875	18613.48
543.075	18375.91
543.276	17859.82
543.476	17732.85
543.676	17671.41
543.877	17624.31
544.077	17521.91
544.277	17036.54
544.478	17050.88
544.678	16805.12
544.878	16463.11
545.078	16450.82
545.279	16035.08
545.479	16067.85
545.679	15871.25
545.879	15629.59
546.079	15449.36
546.28	15303.96
546.48	15144.22
546.68	14861.6
546.88	14798.11
547.08	14552.35
547.28	14386.47
547.48	14159.14
547.68	14101.8
547.88	13706.54
548.081	13823.28
548.281	13589.81
548.481	13428.02
548.681	13382.96
548.881	13002.04
549.081	12977.47
549.28	12406.08
549.48	12647.74
549.68	12471.62
549.88	12305.73
550.08	11992.39
550.28	11892.04
550.48	11511.12
550.68	11791.69
550.88	11234.64
551.08	11228.5
551.279	11068.76
551.479	10784.09
551.679	10794.33
551.879	10507.62
552.079	10562.91
552.278	10243.43
552.478	10300.77
552.678	10104.17
552.878	9882.99
553.077	9762.16
553.277	9540.97
553.477	9366.9
553.676	9477.49
553.876	9135.48
554.076	8746.36
554.275	8723.83
554.475	8592.76
554.674	8576.38
554.874	8467.84
555.074	8199.55
555.273	8220.03
555.473	8109.44
555.672	7994.76
555.872	7777.67
556.071	7583.12
556.271	7646.6
556.47	7263.63
556.67	7280.02
556.869	7394.7
557.068	7036.31
557.268	6827.42
557.467	6786.46
557.667	6874.52
557.866	6591.9
558.065	6575.52
558.265	6380.96
558.464	6288.8
558.663	6129.06
558.863	6053.28
559.062	6122.91
559.261	5762.47
559.461	5991.84
559.66	5641.64
559.859	5684.65
560.058	5510.57
560.258	5334.45
560.457	5451.18
560.656	5316.01
560.855	5141.94
561.054	5184.94
561.253	4947.38
561.453	4969.91
561.652	5014.96
561.851	5109.17
562.05	4660.66
562.249	4427.2
562.448	4660.66
562.647	4453.82
562.846	4562.36
563.045	4392.38
563.244	4410.81
563.443	4419
563.642	4236.74
563.841	4287.93
564.04	4208.06
564.239	4029.89
564.438	3923.4
564.637	3896.77
564.836	3810.76
565.035	3827.14
565.234	3577.29
565.432	3726.79
565.631	3648.97
565.83	3700.17
566.029	3536.33
566.228	3560.91
566.427	3538.38
566.625	3216.85
566.824	3409.36
567.023	3255.76
567.222	3315.15
567.42	3255.76
567.619	3222.99
567.818	3032.53
568.016	3268.05
568.215	3067.35
568.414	3110.35
568.612	3063.25
568.811	2891.22
569.01	2934.23
569.208	2811.35
569.407	2799.06
569.605	2696.66
569.804	2633.18
570.002	2663.9
570.201	2602.46
570.4	2549.21
570.598	2455
570.797	2471.39
570.995	2432.47
571.193	2352.6
571.392	2422.24
571.59	2282.97
571.789	2325.98
571.987	2336.22
572.186	2354.65
572.384	2213.34
572.582	2102.75
572.781	2219.49
572.979	2096.61
573.177	2098.66
573.376	2067.94
573.574	1973.73
573.772	2098.66
573.971	2020.83
574.169	1859.04
574.367	1979.87
574.565	1811.94
574.763	1811.94
574.962	1715.69
575.16	1832.42
575.358	1760.74
575.556	1691.11
575.754	1709.54
575.952	1670.63
576.151	1672.68
576.349	1674.73
576.547	1474.03
576.745	1545.7
576.943	1680.87
577.141	1570.28
577.339	1412.59
577.537	1510.89
577.735	1510.89
577.933	1400.3
578.131	1453.55
578.329	1496.55
578.527	1345
578.725	1379.82
578.923	1279.47
579.121	1336.81
579.319	1256.94
579.516	1215.98
579.714	1482.22
579.912	1209.84
580.11	1152.49
580.308	1189.36
580.506	1076.72
580.704	1033.71
580.901	1068.53
581.099	1195.5
581.297	1078.77
581.495	1119.73
581.692	1009.14
581.89	1117.68
582.088	1132.01
582.285	986.61
582.483	1037.81
582.681	982.51
582.878	945.65
583.076	1002.99
583.274	1115.63
583.471	1156.59
583.669	912.88
583.866	841.2
584.064	835.06
584.262	781.81
584.459	841.2
584.657	933.36
584.854	962.03
585.052	929.27
585.249	945.65
585.447	824.82
585.644	714.23
585.841	882.16
586.039	833.01
586.236	839.16
586.434	763.38
586.631	792.05
586.828	708.09
587.026	759.28
587.223	556.54
587.42	634.36
587.618	802.29
587.815	755.19
588.012	689.65
588.21	656.89
588.407	783.86
588.604	730.61
588.801	613.88
588.999	656.89
589.196	734.71
589.393	638.45
589.59	652.79
589.787	675.32
589.984	634.36
590.182	617.97
590.379	605.69
590.576	658.93
590.773	581.11
590.97	540.15
591.167	622.07
591.364	708.09
591.561	613.88
591.758	675.32
591.955	572.92
592.152	505.34
592.349	562.68
592.546	546.3
592.743	554.49
592.94	579.06
593.137	642.55
593.334	589.3
593.531	695.8
593.727	628.21
593.924	663.03
594.121	579.06
594.318	519.67
594.515	630.26
594.712	742.9
594.908	683.51
595.105	540.15
595.302	716.28
595.499	693.75
595.696	761.33
595.892	626.17
596.089	738.8
596.286	603.64
596.482	826.87
596.679	798.2
596.876	671.22
597.072	824.82
597.269	699.89
597.466	730.61
597.662	802.29
597.859	785.91
598.055	787.96
598.252	935.41
598.448	933.36
598.645	910.83
598.841	1011.18
599.038	1121.77
599.234	1111.54
599.431	1089.01
599.627	1164.78
599.824	1226.22
600.02	1222.13
600.217	1129.97
600.413	1322.48
600.609	1269.23
600.806	1676.77
601.002	1482.22
601.198	1355.24
601.395	1652.2
601.591	1746.41
601.787	1664.49
601.984	1713.64
602.18	1793.51
602.376	1912.29
602.572	1900
602.769	2086.37
602.965	2014.69
603.161	2199.01
603.357	2266.59
603.553	2348.51
603.75	2276.83
603.946	2325.98
604.142	2483.67
604.338	2698.71
604.534	2530.78
604.73	2874.84
604.926	2854.36
605.122	2948.56
605.318	2944.47
605.514	3257.81
605.71	3155.41
605.906	3438.03
606.102	3376.59
606.298	3577.29
606.494	3624.39
606.69	3802.57
606.886	3999.17
607.082	3898.82
607.278	4189.63
607.474	4279.74
607.67	4373.95
607.866	4263.36
608.062	4593.08
608.257	4754.87
608.453	4744.63
608.649	4875.7
608.845	4926.9
609.041	5111.22
609.236	5299.63
609.432	5344.69
609.628	5713.32
609.824	5854.63
610.019	5907.88
610.215	6311.33
610.411	6249.89
610.606	6405.53
610.802	6610.33
610.998	6704.54
611.193	7052.69
611.389	6815.13
611.584	7255.44
611.78	7509.39
611.976	7624.08
612.171	8013.19
612.367	8195.46
612.562	8549.76
612.758	8326.53
612.953	8480.13
613.149	8951.16
613.344	8990.07
613.539	9280.88
613.735	9670
613.93	10003.82
614.126	10247.52
614.321	10321.25
614.517	10839.39
614.712	10693.98
614.907	11105.62
615.103	11588.94
615.298	11740.49
615.493	12225.86
615.688	12309.83
615.884	12916.03
616.079	12825.92
616.274	13323.57
616.47	13632.82
616.665	13956.4
616.86	14374.18
617.055	14443.81
617.25	14847.26
617.445	15549.71
617.641	15617.3
617.836	16110.86
618.031	16309.51
618.226	17038.59
618.421	17196.28
618.616	17902.83
618.811	17841.39
619.006	18570.47
619.201	18885.86
619.396	19375.32
619.591	19639.51
619.786	20100.3
619.981	20546.76
620.176	21212.35
620.371	21171.39
620.566	21671.09
620.761	22373.55
620.956	22746.28
621.151	22877.35
621.346	24102.03
621.541	23993.49
621.735	24880.26
621.93	24863.88
622.125	25728.12
622.32	25599.1
622.515	26145.91
622.709	26780.78
622.904	27530.33
623.099	27761.75
623.294	28390.48
623.488	28570.7
623.683	29459.52
623.878	29566.01
624.072	30284.85
624.267	30757.93
624.462	31101.99
624.656	31192.1
624.851	32056.34
625.046	32287.76
625.24	32830.48
625.435	33508.35
625.629	33926.14
625.824	34231.29
626.018	34960.36
626.213	34778.09
626.407	35703.78
626.602	35558.37
626.796	36295.64
626.991	36637.65
627.185	36627.41
627.38	36938.7
627.574	37249.99
627.768	37364.68
627.963	37675.97
628.157	37411.78
628.352	38187.96
628.546	37807.04
628.74	38206.39
628.935	37825.47
629.129	38091.71
629.323	37673.92
629.517	37790.66
629.712	37325.77
629.906	37577.67
630.1	36746.19
630.294	36629.46
630.489	36027.35
630.683	35998.68
630.877	34984.94
631.071	34206.71
631.265	34255.86
631.459	33442.82
631.653	32635.92
631.848	31826.97
632.042	30997.54
632.236	30532.65
632.43	29783.1
632.624	29058.12
632.818	28130.39
633.012	27126.88
633.206	26655.85
633.4	25693.3
633.594	24616.07
633.788	23942.29
633.982	23377.05
634.176	22529.19
634.369	21761.2
634.563	20651.2
634.757	19786.96
634.951	19490.01
635.145	18506.98
635.339	17917.17
635.533	17089.79
635.726	16475.4
635.92	15742.22
636.114	15121.69
636.308	14480.68
636.501	13919.53
636.695	13411.64
636.889	12655.93
637.083	12162.37
637.276	11830.6
637.47	11316.56
637.664	10886.49
637.857	10437.98
638.051	10012.01
638.244	9506.16
638.438	9278.83
638.632	9174.39
638.825	8416.64
639.019	8361.34
639.212	7949.7
639.406	7708.04
639.599	7122.32
639.793	7067.03
639.986	6696.35
640.18	6413.73
640.373	6210.98
640.567	5903.78
640.76	5846.44
640.954	5612.97
641.147	5203.38
641.34	5205.42
641.534	4853.17
641.727	4781.5
641.92	4599.23
642.114	4412.86
642.307	4203.97
642.5	4115.91
642.694	3864.01
642.887	3728.84
643.08	3749.32
643.273	3511.75
643.467	3419.6
643.66	3157.46
643.853	2991.57
644.046	2930.13
644.239	2840.02
644.432	2665.94
644.626	2530.78
644.819	2534.87
645.012	2514.39
645.205	2446.81
645.398	2459.1
645.591	2170.33
645.784	2016.74
645.977	1965.54
646.17	1918.43
646.363	1955.3
646.556	1740.26
646.749	1578.47
646.942	1725.93
647.135	1699.3
647.328	1478.12
647.521	1492.46
647.714	1433.07
647.907	1414.63
648.099	1201.65
648.292	1365.48
648.485	1205.74
648.678	1267.18
648.871	1058.29
649.064	1144.3
649.256	880.11
649.449	939.51
649.642	730.61
649.835	931.31
650.027	806.39
650.22	1002.99
650.413	904.69
650.605	826.87
650.798	728.56
650.991	804.34
651.183	699.89
651.376	712.18
651.568	759.28
651.761	536.06
651.954	613.88
652.146	609.78
652.339	660.98
652.531	620.02
652.724	548.34
652.916	521.72
653.109	407.03
653.301	622.07
653.494	642.55
653.686	495.1
653.879	568.82
654.071	519.67
654.263	458.23
654.456	396.79
654.648	491
654.84	480.76
655.033	370.17
655.225	529.91
655.417	261.63
655.61	503.29
655.802	499.19
655.994	509.43
656.186	271.87
656.379	478.71
656.571	310.78
656.763	226.81
656.955	308.73
657.148	339.45
657.34	333.31
657.532	286.2
657.724	331.26
657.916	308.73
658.108	366.07
658.3	294.4
658.492	302.59
658.684	251.39
658.876	335.35
659.068	241.15
659.26	208.38
659.452	179.71
659.644	237.05
659.836	361.98
660.028	278.01
660.22	218.62
660.412	183.81
660.604	212.48
660.796	183.81
660.988	275.96
661.18	163.33
661.372	271.87
661.563	257.53
661.755	249.34
661.947	173.57
662.139	124.41
662.331	167.42
662.522	239.1
662.714	155.13
662.906	148.99
663.097	161.28
663.289	202.24
663.481	46.59
663.673	192
663.864	177.66
664.056	331.26
664.247	91.65
664.439	200.19
664.631	157.18
664.822	269.82
665.014	192
665.205	161.28
665.397	103.93
665.588	171.52
665.78	208.38
665.971	126.46
666.163	148.99
666.354	267.77
666.546	73.21
666.737	101.89
666.929	151.04
667.12	124.41
667.311	218.62
667.503	157.18
667.694	263.68
667.885	153.09
668.077	192
668.268	-25.09
668.459	171.52
668.651	210.43
668.842	177.66
669.033	120.32
669.224	-49.66
669.416	323.07
669.607	210.43
669.798	26.11
669.989	226.81
670.18	151.04
670.371	179.71
670.563	67.07
670.754	212.48
670.945	175.61
671.136	165.37
671.327	118.27
671.518	257.53
671.709	155.13
671.9	206.33
672.091	210.43
672.282	110.08
672.473	124.41
672.664	50.69
672.855	112.13
673.046	140.8
673.237	196.09
673.428	155.13
673.619	179.71
673.809	19.97
674	192
674.191	167.42
674.382	142.85
674.573	124.41
674.764	148.99
674.954	208.38
675.145	89.6
675.336	108.03
675.527	124.41
675.717	142.85
675.908	138.75
676.099	159.23
676.289	110.08
676.48	62.98
676.671	235
676.861	38.4
677.052	153.09
677.243	103.93
677.433	177.66
677.624	183.81
677.814	192
678.005	138.75
678.195	282.11
678.386	146.94
678.576	159.23
678.767	28.16
678.957	208.38
679.148	212.48
679.338	241.15
679.529	198.14
679.719	120.32
679.909	253.44
680.1	300.54
680.29	271.87
680.481	116.22
680.671	210.43
680.861	202.24
681.052	142.85
681.242	161.28
681.432	169.47
681.622	165.37
681.813	85.5
682.003	155.13
682.193	110.08
682.383	247.29
682.573	177.66
682.764	151.04
682.954	189.95
683.144	253.44
683.334	157.18
683.524	183.81
683.714	202.24
683.904	275.96
684.094	228.86
684.284	194.05
684.474	335.35
684.664	372.22
684.854	237.05
685.044	189.95
685.234	253.44
685.424	212.48
685.614	99.84
685.804	337.4
685.994	163.33
686.184	261.63
686.374	235
686.564	157.18
686.753	136.7
686.943	142.85
687.133	224.76
687.323	202.24
687.513	224.76
687.702	118.27
687.892	155.13
688.082	243.2
688.272	310.78
688.461	140.8
688.651	312.83
688.841	323.07
689.03	163.33
689.22	183.81
689.41	169.47
689.599	189.95
689.789	101.89
689.979	335.35
690.168	181.76
690.358	192
690.547	142.85
690.737	239.1
690.926	208.38
691.116	265.72
691.305	200.19
691.495	202.24
691.684	175.61
691.874	177.66
692.063	163.33
692.252	290.3
692.442	228.86
692.631	155.13
692.82	230.91
693.01	239.1
693.199	108.03
693.388	214.52
693.578	194.05
693.767	304.64
693.956	267.77
694.146	185.85
694.335	179.71
694.524	118.27
694.713	286.2
694.902	134.65
695.092	144.89
695.281	294.4
695.47	134.65
695.659	247.29
695.848	220.67
696.037	159.23
696.226	259.58
696.415	110.08
696.604	288.25
696.793	212.48
696.982	189.95
697.171	321.02
697.36	169.47
697.549	169.47
697.738	89.6
697.927	189.95
698.116	177.66
698.305	323.07
698.494	261.63
698.683	263.68
698.872	378.36
699.061	126.46
699.25	280.06
699.438	206.33
699.627	87.55
699.816	300.54
700.005	69.12
700.193	151.04
700.382	355.83
700.571	247.29
700.76	245.24
700.948	251.39
701.137	232.96
701.326	259.58
701.514	148.99
701.703	177.66
701.892	280.06
702.08	384.51
702.269	171.52
702.457	206.33
702.646	169.47
702.834	175.61
703.023	220.67
703.212	278.01
703.4	99.84
703.589	181.76
703.777	155.13
703.965	136.7
704.154	175.61
704.342	187.9
704.531	146.94
704.719	159.23
704.907	192
705.096	114.17
705.284	122.37
705.472	157.18
705.661	275.96
705.849	306.68
706.037	230.91
706.226	101.89
706.414	245.24
706.602	151.04
706.79	216.57
706.979	134.65
707.167	122.37
707.355	99.84
707.543	173.57
707.731	251.39
707.919	241.15
708.107	202.24
708.296	136.7
708.484	192
708.672	189.95
708.86	204.28
709.048	138.75
709.236	177.66
709.424	169.47
709.612	196.09
709.8	103.93
709.988	187.9
710.176	263.68
710.364	306.68
710.551	265.72
710.739	261.63
710.927	245.24
711.115	163.33
711.303	300.54
711.491	329.21
711.679	153.09
711.866	237.05
712.054	148.99
712.242	198.14
712.43	263.68
712.617	206.33
712.805	214.52
712.993	136.7
713.181	17.92
713.368	173.57
713.556	155.13
713.744	173.57
713.931	378.36
714.119	284.16
714.306	192
714.494	151.04
714.682	157.18
714.869	75.26
715.057	185.85
715.244	85.5
715.432	247.29
715.619	120.32
715.807	200.19
715.994	120.32
716.182	142.85
716.369	306.68
716.556	187.9
716.744	112.13
716.931	142.85
717.119	230.91
717.306	161.28
717.493	157.18
717.681	177.66
717.868	218.62
718.055	304.64
718.242	192
718.43	237.05
718.617	288.25
718.804	171.52
718.991	200.19
719.179	243.2
719.366	329.21
719.553	169.47
719.74	235
719.927	83.45
720.114	146.94
720.301	138.75
720.488	169.47
720.676	142.85
720.863	263.68
721.05	402.94
721.237	214.52
721.424	257.53
721.611	247.29
721.798	163.33
721.985	230.91
722.172	220.67
722.358	237.05
722.545	312.83
722.732	255.48
722.919	339.45
723.106	210.43
723.293	206.33
723.48	241.15
723.667	216.57
723.853	280.06
724.04	245.24
724.227	198.14
724.414	249.34
724.6	278.01
724.787	282.11
724.974	384.51
725.161	257.53
725.347	69.12
725.534	169.47
725.72	189.95
725.907	382.46
726.094	359.93
726.28	171.52
726.467	224.76
726.653	243.2
726.84	321.02
727.027	359.93
727.213	290.3
727.4	230.91
727.586	185.85
727.773	255.48
727.959	259.58
728.145	196.09
728.332	181.76
728.518	171.52
728.705	216.57
728.891	286.2
729.077	241.15
729.264	126.46
729.45	194.05
729.636	321.02
729.823	222.72
730.009	224.76
730.195	265.72
730.382	341.5
730.568	189.95
730.754	206.33
730.94	271.87
731.126	263.68
731.313	351.74
731.499	220.67
731.685	296.44
731.871	310.78
732.057	228.86
732.243	275.96
732.429	235
732.615	349.69
732.801	298.49
732.987	247.29
733.173	259.58
733.359	181.76
733.545	325.12
733.731	226.81
733.917	384.51
734.103	253.44
734.289	294.4
734.475	126.46
734.661	351.74
734.847	273.92
735.033	243.2
735.219	290.3
735.404	167.42
735.59	169.47
735.776	290.3
735.962	290.3
736.148	331.26
736.333	302.59
736.519	146.94
736.705	249.34
736.89	251.39
737.076	259.58
737.262	214.52
737.447	255.48
737.633	202.24
737.819	261.63
738.004	220.67
738.19	271.87
738.375	314.88
738.561	345.59
738.747	224.76
738.932	161.28
739.118	415.23
739.303	212.48
739.489	253.44
739.674	243.2
739.859	132.61
740.045	294.4
740.23	226.81
740.416	99.84
740.601	310.78
740.786	261.63
740.972	167.42
741.157	300.54
741.342	206.33
741.528	257.53
741.713	255.48
741.898	196.09
742.084	247.29
742.269	294.4
742.454	331.26
742.639	314.88
742.824	243.2
743.01	294.4
743.195	361.98
743.38	263.68
743.565	282.11
743.75	212.48
743.935	261.63
744.12	359.93
744.305	204.28
744.49	163.33
744.675	282.11
744.86	222.72
745.045	232.96
745.23	206.33
745.415	237.05
745.6	439.8
745.785	286.2
745.97	323.07
746.155	294.4
746.34	316.92
746.525	222.72
746.71	343.55
746.895	222.72
747.079	181.76
747.264	181.76
747.449	351.74
747.634	251.39
747.819	210.43
748.003	245.24
748.188	153.09
748.373	208.38
748.557	255.48
748.742	232.96
748.927	237.05
749.111	224.76
749.296	159.23
749.481	249.34
749.665	202.24
749.85	89.6
750.034	237.05
750.219	155.13
750.404	155.13
750.588	263.68
750.773	187.9
750.957	116.22
751.141	198.14
751.326	265.72
751.51	187.9
751.695	253.44
751.879	200.19
752.064	243.2
752.248	138.75
752.432	349.69
752.617	257.53
752.801	251.39
752.985	83.45
753.17	278.01
753.354	169.47
753.538	169.47
753.722	120.32
753.907	134.65
754.091	171.52
754.275	284.16
754.459	185.85
754.643	161.28
754.828	169.47
755.012	161.28
755.196	157.18
755.38	187.9
755.564	62.98
755.748	157.18
755.932	185.85
756.116	228.86
756.3	198.14
756.484	79.36
756.668	263.68
756.852	81.41
757.036	157.18
757.22	222.72
757.404	73.21
757.588	71.17
757.772	189.95
757.956	95.74
758.14	306.68
758.323	105.98
758.507	153.09
758.691	58.88
758.875	218.62
759.059	185.85
759.242	114.17
759.426	183.81
759.61	153.09
759.794	1.54
759.977	192
760.161	351.74
760.345	261.63
760.528	183.81
760.712	232.96
760.895	142.85
761.079	89.6
761.263	40.45
761.446	163.33
761.63	155.13
761.813	208.38
761.997	44.54
762.18	206.33
762.364	116.22
762.547	-4.61
762.731	58.88
762.914	110.08
763.098	60.93
763.281	146.94
763.464	52.74
763.648	97.79
763.831	-10.75
764.015	67.07
764.198	169.47
764.381	71.17
764.564	69.12
764.748	99.84
764.931	40.45
765.114	116.22
765.297	151.04
765.481	15.87
765.664	142.85
765.847	17.92
766.03	230.91
766.213	24.06
766.397	177.66
766.58	-53.76
766.763	181.76
766.946	-41.47
767.129	3.58
767.312	110.08
767.495	36.35
767.678	-8.7
767.861	103.93
768.044	138.75
768.227	99.84
768.41	93.69
768.593	83.45
768.776	136.7
768.959	42.5
769.142	192
769.324	112.13
769.507	120.32
769.69	73.21
769.873	159.23
770.056	230.91
770.239	46.59
770.421	179.71
770.604	60.93
770.787	83.45
770.97	97.79
771.152	13.82
771.335	93.69
771.518	65.02
771.7	222.72
771.883	198.14
772.066	118.27
772.248	79.36
772.431	187.9
772.613	165.37
772.796	44.54
772.978	46.59
773.161	138.75
773.343	34.3
773.526	50.69
773.708	-80.38
773.891	-0.51
774.073	79.36
774.256	36.35
774.438	146.94
774.621	93.69
774.803	136.7
774.985	65.02
775.168	50.69
775.35	7.68
775.532	89.6
775.715	-2.56
775.897	155.13
776.079	7.68
776.261	146.94
776.444	136.7
776.626	89.6
776.808	48.64
776.99	-23.04
777.173	48.64
777.355	30.21
777.537	58.88
777.719	105.98
777.901	34.3
778.083	3.58
778.265	-31.23
778.447	42.5
778.629	48.64
778.811	69.12
778.993	120.32
779.175	83.45
779.357	114.17
779.539	-23.04
779.721	105.98
779.903	202.24
780.085	105.98
780.267	32.26
780.449	-55.81
780.631	75.26
780.812	146.94
780.994	38.4
781.176	19.97
781.358	36.35
781.54	13.82
781.721	103.93
781.903	189.95
782.085	85.5
782.267	101.89
782.448	9.73
782.63	62.98
782.812	32.26
782.993	105.98
783.175	50.69
783.357	19.97
783.538	112.13
783.72	40.45
783.901	95.74
784.083	83.45
784.264	140.8
784.446	11.78
784.627	-51.71
784.809	26.11
784.99	-14.85
785.172	52.74
785.353	-6.66
785.535	34.3
785.716	60.93
785.897	-16.9
786.079	58.88
786.26	81.41
786.441	36.35
786.623	-117.25
786.804	15.87
786.985	118.27
787.167	-2.56
787.348	65.02
787.529	5.63
787.71	187.9
787.891	67.07
788.073	-23.04
788.254	-37.38
788.435	138.75
788.616	60.93
788.797	-53.76
788.978	89.6
789.159	62.98
789.34	34.3
789.522	17.92
789.703	93.69
789.884	73.21
790.065	120.32
790.246	179.71
790.427	-27.14
790.607	198.14
790.788	134.65
790.969	-10.75
791.15	1.54
791.331	9.73
791.512	44.54
791.693	-2.56
791.874	19.97
792.054	245.24
792.235	134.65
792.416	-25.09
792.597	-14.85
792.778	87.55
792.958	108.03
793.139	60.93
793.32	62.98
793.5	-33.28
793.681	103.93
793.862	-4.61
794.042	67.07
794.223	-6.66
794.404	71.17
794.584	-53.76
794.765	-14.85
794.945	13.82
795.126	67.07
795.306	136.7
795.487	75.26
795.667	1.54
795.848	13.82
796.028	-4.61
796.209	69.12
796.389	30.21
796.57	73.21
796.75	-70.14
796.93	13.82
797.111	-0.51
797.291	15.87
797.471	110.08
797.652	-102.91
797.832	5.63
798.012	73.21
798.192	-49.66
798.373	-70.14
798.553	-18.94
798.733	110.08
798.913	-14.85
799.093	26.11
799.274	-39.42
799.454	122.37
799.634	103.93
799.814	146.94
799.994	77.31
800.174	79.36
800.354	24.06
800.534	-88.57
800.714	60.93
800.894	-39.42
801.074	-27.14
801.254	22.02
801.434	97.79
801.614	11.78
801.794	-4.61
801.974	1699.3
802.154	13.82
802.334	103.93
802.514	-61.95
802.693	48.64
802.873	-20.99
803.053	81.41
803.233	46.59
803.413	-14.85
803.592	-51.71
803.772	5.63
803.952	42.5
804.131	-113.15
804.311	138.75
804.491	140.8
804.67	-59.9
804.85	-12.8
805.03	46.59
805.209	58.88
805.389	34.3
805.568	-70.14
805.748	-6.66
805.928	62.98
806.107	105.98
806.287	69.12
806.466	56.83
806.646	52.74
806.825	7.68
807.004	-61.95
807.184	50.69
807.363	60.93
807.543	38.4
807.722	-39.42
807.901	95.74
808.081	101.89
808.26	-160.25
808.439	-20.99
808.619	83.45
808.798	28.16
808.977	11.78
809.156	56.83
809.336	7.68
809.515	32.26
809.694	-12.8
809.873	-33.28
810.052	118.27
810.231	89.6
810.411	93.69
810.59	48.64
810.769	-31.23
810.948	65.02
811.127	-127.49
811.306	-31.23
811.485	-59.9
811.664	77.31
811.843	38.4
812.022	22.02
812.201	7.68
812.38	-51.71
812.559	-4.61
812.737	126.46
812.916	-115.2
813.095	-78.33
813.274	-37.38
813.453	32.26
813.632	89.6
813.811	75.26
813.989	-82.43
814.168	-20.99
814.347	-39.42
814.526	-25.09
814.704	85.5
814.883	114.17
815.062	-43.52
815.24	103.93
815.419	-61.95
815.598	11.78
815.776	-131.58
815.955	-25.09
816.133	-152.06
816.312	36.35
816.49	79.36
816.669	17.92
816.847	-45.57
817.026	24.06
817.204	15.87
817.383	7.68
817.561	-51.71
817.74	42.5
817.918	34.3
818.097	-82.43
818.275	7.68
818.453	50.69
818.632	69.12
818.81	32.26
818.988	-20.99
819.167	5.63
819.345	54.78
819.523	-14.85
819.701	5.63
819.879	99.84
820.058	36.35
820.236	-27.14
820.414	-2.56
820.592	-16.9
820.77	-37.38
820.948	69.12
821.127	-39.42
821.305	36.35
821.483	-31.23
821.661	65.02
821.839	44.54
822.017	-100.86
822.195	-6.66
822.373	58.88
822.551	26.11
822.729	52.74
822.907	19.97
823.085	48.64
823.262	-33.28
823.44	5.63
823.618	26.11
823.796	-51.71
823.974	-6.66
824.152	-37.38
824.329	-68.09
824.507	34.3
824.685	26.11
824.863	-55.81
825.04	-4.61
825.218	77.31
825.396	22.02
825.574	9.73
825.751	95.74
825.929	9.73
826.107	-80.38
826.284	-18.94
826.462	103.93
826.639	11.78
826.817	-82.43
826.994	-27.14
827.172	-61.95
827.349	85.5
827.527	26.11
827.704	7.68
827.882	30.21
828.059	19.97
828.237	-45.57
828.414	56.83
828.591	-51.71
828.769	19.97
828.946	-102.91
829.124	77.31
829.301	54.78
829.478	-18.94
829.655	17.92
829.833	30.21
830.01	-143.87
830.187	15.87
830.364	9.73
830.542	58.88
830.719	177.66
830.896	58.88
831.073	60.93
831.25	34.3
831.427	75.26
831.604	-4.61
831.782	19.97
831.959	30.21
832.136	-84.48
832.313	28.16
832.49	-18.94
832.667	5.63
832.844	-72.19
833.021	99.84
833.198	-4.61
833.374	-12.8
833.551	56.83
833.728	30.21
833.905	85.5
834.082	-113.15
834.259	13.82
834.436	97.79
834.612	-6.66
834.789	118.27
834.966	5.63
835.143	58.88
835.319	-64
835.496	19.97
835.673	60.93
835.85	62.98
836.026	-20.99
836.203	-4.61
836.38	-47.62
836.556	-6.66
836.733	-25.09
836.909	89.6
837.086	54.78
837.262	-68.09
837.439	46.59
837.616	-20.99
837.792	-70.14
837.968	22.02
838.145	-119.29
838.321	-59.9
838.498	77.31
838.674	26.11
838.851	69.12
839.027	-59.9
839.203	58.88
839.38	105.98
839.556	-45.57
839.732	48.64
839.909	-27.14
840.085	46.59
840.261	5.63
840.437	17.92
840.614	-12.8
840.79	26.11
840.966	34.3
841.142	-53.76
841.318	-18.94
841.494	128.51
841.671	134.65
841.847	-6.66
842.023	-82.43
842.199	38.4
842.375	95.74
842.551	-76.29
842.727	-100.86
842.903	163.33
843.079	-74.24
843.255	79.36
843.431	-8.7
843.607	-2.56
843.783	-57.86
843.959	28.16
844.134	-16.9
844.31	89.6
844.486	19.97
844.662	-31.23
844.838	-10.75
845.013	-16.9
845.189	128.51
845.365	58.88
845.541	56.83
845.716	69.12
845.892	101.89
846.068	-20.99
846.244	-68.09
846.419	58.88
846.595	-59.9
846.77	-0.51
846.946	48.64
847.122	-70.14
847.297	-61.95
847.473	54.78
847.648	-76.29
847.824	-8.7
847.999	-117.25
848.175	50.69
848.35	-16.9
848.526	48.64
848.701	62.98
848.876	19.97
849.052	-8.7
849.227	34.3
849.403	-61.95
849.578	-8.7
849.753	-10.75
849.929	40.45
850.104	-92.67
850.279	-76.29
850.454	73.21
850.63	44.54
850.805	-6.66
850.98	-14.85
851.155	71.17
851.33	122.37
851.505	-61.95
851.681	124.41
851.856	-51.71
852.031	5.63
852.206	36.35
852.381	-53.76
852.556	-10.75
852.731	44.54
852.906	124.41
853.081	36.35
853.256	132.61
853.431	-10.75
853.606	3.58
853.781	-49.66
853.956	-109.05
854.131	38.4
854.305	-45.57
854.48	-20.99
854.655	13.82
854.83	9.73
855.005	40.45
855.18	73.21
855.354	32.26
855.529	24.06
855.704	22.02
855.879	32.26
856.053	-23.04
856.228	38.4
856.403	-72.19
856.577	-10.75
856.752	-78.33
856.926	1.54
857.101	54.78
857.276	-92.67
857.45	71.17
857.625	81.41
857.799	11.78
857.974	54.78
858.148	-178.69
858.323	54.78
858.497	50.69
858.672	-4.61
858.846	-74.24
859.02	81.41
859.195	-53.76
859.369	-45.57
859.543	-29.18
859.718	-10.75
859.892	22.02
860.066	34.3
860.241	-57.86
860.415	-4.61
860.589	42.5
860.763	110.08
860.938	-18.94
861.112	81.41
861.286	-88.57
861.46	60.93
861.634	3.58
861.808	116.22
861.982	-18.94
862.157	-53.76
862.331	1.54
862.505	-70.14
862.679	-51.71
862.853	-98.81
863.027	9.73
863.201	97.79
863.375	-25.09
863.549	38.4
863.722	15.87
863.896	65.02
864.07	-10.75
864.244	-61.95
864.418	36.35
864.592	17.92
864.766	-41.47
864.939	-66.05
865.113	9.73
865.287	142.85
865.461	-115.2
865.634	22.02
865.808	-82.43
865.982	-55.81
866.156	-37.38
866.329	-119.29
866.503	15.87
866.676	128.51
866.85	-16.9
867.024	-37.38
867.197	-12.8
867.371	62.98
867.544	22.02
867.718	-90.62
867.891	50.69
868.065	-57.86
868.238	-8.7
868.412	112.13
868.585	60.93
868.759	-12.8
868.932	-86.53
869.105	-61.95
869.279	-16.9
869.452	-176.64
869.625	36.35
869.799	-18.94
869.972	-59.9
870.145	-6.66
870.319	69.12
870.492	1.54
870.665	13.82
870.838	13.82
871.011	-109.05
871.185	-72.19
871.358	-43.52
871.531	54.78
871.704	3.58
871.877	89.6
872.05	-14.85
872.223	-29.18
872.396	89.6
872.569	58.88
872.742	-111.1
872.915	-4.61
873.088	17.92
873.261	-59.9
873.434	101.89
873.607	3.58
873.78	89.6
873.953	-64
874.126	-109.05
874.299	101.89
874.471	3.58
874.644	-16.9
874.817	5.63
874.99	230.91
875.163	60.93
875.335	-33.28
875.508	36.35
875.681	120.32
875.853	-51.71
876.026	-6.66
876.199	73.21
876.371	26.11
876.544	-2.56
876.717	13.82
876.889	-70.14
877.062	58.88
877.234	-123.39
877.407	-4.61
877.579	-20.99
877.752	3.58
877.924	34.3
878.097	30.21
878.269	30.21
878.442	24.06
878.614	17.92
878.786	79.36
878.959	-14.85
879.131	124.41
879.303	-66.05
879.476	34.3
879.648	46.59
879.82	5.63
879.993	26.11
880.165	-45.57
880.337	-47.62
880.509	-6.66
880.681	-141.82
880.854	-10.75
881.026	22.02
881.198	218.62
881.37	-29.18
881.542	24.06
881.714	13.82
881.886	-76.29
882.058	7.68
882.23	1.54
882.402	-51.71
882.574	26.11
882.746	60.93
882.918	93.69
883.09	67.07
883.262	-41.47
883.434	-10.75
883.606	-66.05
883.778	-16.9
883.95	62.98
884.122	-55.81
884.293	48.64
884.465	26.11
884.637	110.08
884.809	24.06
884.98	40.45
885.152	15.87
885.324	-27.14
885.496	-53.76
885.667	-2.56
885.839	1.54
886.011	101.89
886.182	-18.94
886.354	-6.66
886.525	-27.14
886.697	44.54
886.869	-43.52
887.04	-25.09
887.212	30.21
887.383	161.28
887.555	9.73
887.726	-0.51
887.897	30.21
888.069	-16.9
888.24	28.16
888.412	-39.42
888.583	-27.14
888.754	54.78
888.926	-135.68
889.097	-47.62
889.268	-113.15
889.44	-66.05
889.611	-109.05
889.782	-84.48
889.953	-18.94
890.125	58.88
890.296	-20.99
890.467	-82.43
890.638	-37.38
890.809	-2.56
890.98	9.73
891.151	9.73
891.323	9.73
891.494	-41.47
891.665	-37.38
891.836	-16.9
892.007	7.68
892.178	7.68
892.349	-6.66
892.52	-20.99
892.691	-18.94
892.862	-61.95
893.032	-39.42
893.203	-23.04
893.374	-4.61
893.545	108.03
893.716	28.16
893.887	83.45
894.057	52.74
894.228	-70.14
894.399	-80.38
894.57	56.83
894.74	-37.38
894.911	103.93
895.082	-100.86
895.253	-37.38
895.423	-12.8
895.594	95.74
895.764	77.31
895.935	-29.18
896.106	24.06
896.276	-10.75
896.447	-23.04
896.617	-74.24
896.788	-115.2
896.958	-94.72
897.129	-51.71
897.299	-14.85
897.47	50.69
897.64	103.93
897.81	46.59
897.981	13.82
898.151	3.58
898.322	36.35
898.492	-12.8
898.662	-92.67
898.832	-51.71
899.003	-78.33
899.173	50.69
899.343	-51.71
899.513	-66.05
