Data from USB4F104151__188__11-05-18-033.txt Node

Date: Wed Feb 26 11:05:18 EST 2025
User: louis
Spectrometer: USB4F10415
Trigger mode: 4
Integration Time (sec): 1.000000E-1
Scans to average: 1
Electric dark correction enabled: true
Nonlinearity correction enabled: false
Boxcar width: 0
XAxis mode: Wavelengths
Number of Pixels in Spectrum: 3648
>>>>>Begin Spectral Data<<<<<
178.204	-439.63
178.424	-439.63
178.644	-439.63
178.864	-421.2
179.084	-421.2
179.304	21.16
179.524	10.92
179.744	6.83
179.964	-21.85
180.184	10.92
180.404	-11.61
180.624	-46.42
180.844	-46.42
181.064	4.78
181.283	23.21
181.503	-27.99
181.723	76.46
181.943	-62.8
182.163	94.89
182.383	12.97
182.602	4.78
182.822	133.8
183.042	98.99
183.262	-21.85
183.482	-85.33
183.701	6.83
183.921	39.59
184.141	23.21
184.361	21.16
184.58	-44.37
184.8	51.88
185.02	-95.57
185.239	107.18
185.459	31.4
185.679	74.41
185.898	-77.14
186.118	27.31
186.338	82.6
186.557	178.86
186.777	-42.32
186.997	27.31
187.216	29.35
187.436	78.51
187.655	60.07
187.875	68.27
188.095	33.45
188.314	90.79
188.534	41.64
188.753	-32.08
188.973	127.66
189.192	127.66
189.412	33.45
189.631	-9.56
189.851	113.32
190.07	129.7
190.29	-85.33
190.509	-21.85
190.729	-13.65
190.948	166.57
191.168	256.68
191.387	33.45
191.607	-38.23
191.826	10.92
192.045	-36.18
192.265	35.5
192.484	-13.65
192.704	51.88
192.923	-30.04
193.142	74.41
193.362	111.27
193.581	139.94
193.8	4.78
194.02	45.74
194.239	35.5
194.458	119.46
194.678	72.36
194.897	27.31
195.116	21.16
195.335	27.31
195.555	94.89
195.774	10.92
195.993	139.94
196.212	23.21
196.432	12.97
196.651	-11.61
196.87	37.55
197.089	203.43
197.308	8.87
197.528	15.02
197.747	-93.52
197.966	78.51
198.185	197.29
198.404	-13.65
198.623	127.66
198.842	45.74
199.062	107.18
199.281	94.89
199.5	47.79
199.719	141.99
199.938	55.98
200.157	146.09
200.376	185
200.595	121.51
200.814	55.98
201.033	21.16
201.252	74.41
201.471	109.22
201.69	25.26
201.909	101.03
202.128	29.35
202.347	141.99
202.566	8.87
202.785	6.83
203.004	-83.28
203.223	342.69
203.442	21.16
203.661	-40.28
203.879	76.46
204.098	123.56
204.317	-87.38
204.536	37.55
204.755	64.17
204.974	141.99
205.193	35.5
205.411	148.14
205.63	86.7
205.849	109.22
206.068	31.4
206.287	-50.52
206.505	160.42
206.724	-56.66
206.943	-64.85
207.162	25.26
207.381	-1.37
207.599	-19.8
207.818	-36.18
208.037	-54.61
208.255	-11.61
208.474	27.31
208.693	0.68
208.911	15.02
209.13	53.93
209.349	66.22
209.567	68.27
209.786	-50.52
210.005	78.51
210.223	37.55
210.442	-83.28
210.661	29.35
210.879	60.07
211.098	12.97
211.316	68.27
211.535	4.78
211.753	88.75
211.972	103.08
212.191	17.07
212.409	51.88
212.628	64.17
212.846	-56.66
213.065	78.51
213.283	62.12
213.502	31.4
213.72	60.07
213.938	39.59
214.157	-9.56
214.375	23.21
214.594	6.83
214.812	90.79
215.031	-44.37
215.249	92.84
215.467	-38.23
215.686	2.73
215.904	21.16
216.122	-17.75
216.341	105.13
216.559	33.45
216.778	115.37
216.996	150.18
217.214	19.11
217.432	-27.99
217.651	-5.46
217.869	33.45
218.087	8.87
218.306	29.35
218.524	39.59
218.742	41.64
218.96	96.94
219.179	33.45
219.397	27.31
219.615	242.34
219.833	111.27
220.051	-150.87
220.27	74.41
220.488	41.64
220.706	45.74
220.924	-11.61
221.142	-23.89
221.36	86.7
221.578	107.18
221.796	-23.89
222.015	92.84
222.233	68.27
222.451	117.42
222.669	-21.85
222.887	107.18
223.105	41.64
223.323	10.92
223.541	-48.47
223.759	80.55
223.977	68.27
224.195	141.99
224.413	41.64
224.631	33.45
224.849	58.03
225.067	228.01
225.285	53.93
225.503	53.93
225.721	-97.62
225.939	12.97
226.157	25.26
226.375	252.58
226.592	2.73
226.81	-19.8
227.028	90.79
227.246	109.22
227.464	10.92
227.682	6.83
227.9	70.31
228.117	-21.85
228.335	133.8
228.553	64.17
228.771	27.31
228.989	27.31
229.206	123.56
229.424	-27.99
229.642	-15.7
229.86	-68.95
230.077	117.42
230.295	41.64
230.513	15.02
230.731	21.16
230.948	193.19
231.166	168.62
231.384	84.65
231.601	-62.8
231.819	148.14
232.037	-15.7
232.254	-97.62
232.472	2.73
232.689	15.02
232.907	131.75
233.125	17.07
233.342	-17.75
233.56	70.31
233.777	8.87
233.995	-17.75
234.213	70.31
234.43	103.08
234.648	51.88
234.865	4.78
235.083	76.46
235.3	53.93
235.518	131.75
235.735	164.52
235.953	39.59
236.17	76.46
236.388	45.74
236.605	-21.85
236.822	41.64
237.04	4.78
237.257	-13.65
237.475	-91.48
237.692	21.16
237.909	101.03
238.127	-3.41
238.344	129.7
238.562	-7.51
238.779	-30.04
238.996	-38.23
239.214	58.03
239.431	88.75
239.648	-75.09
239.865	98.99
240.083	107.18
240.3	-11.61
240.517	-27.99
240.735	21.16
240.952	150.18
241.169	98.99
241.386	29.35
241.603	55.98
241.821	-52.56
242.038	31.4
242.255	168.62
242.472	64.17
242.689	107.18
242.907	10.92
243.124	45.74
243.341	-9.56
243.558	-38.23
243.775	-52.56
243.992	-81.24
244.209	66.22
244.426	127.66
244.643	15.02
244.86	29.35
245.078	35.5
245.295	0.68
245.512	33.45
245.729	35.5
245.946	53.93
246.163	23.21
246.38	15.02
246.597	29.35
246.814	47.79
247.031	66.22
247.248	8.87
247.464	98.99
247.681	17.07
247.898	74.41
248.115	60.07
248.332	-68.95
248.549	162.47
248.766	127.66
248.983	45.74
249.2	101.03
249.417	76.46
249.633	-38.23
249.85	113.32
250.067	-50.52
250.284	64.17
250.501	6.83
250.717	86.7
250.934	-44.37
251.151	33.45
251.368	-46.42
251.585	94.89
251.801	51.88
252.018	-68.95
252.235	64.17
252.451	-17.75
252.668	12.97
252.885	105.13
253.102	12.97
253.318	-13.65
253.535	33.45
253.752	-1.37
253.968	80.55
254.185	-66.9
254.401	84.65
254.618	105.13
254.835	-46.42
255.051	90.79
255.268	55.98
255.484	64.17
255.701	-32.08
255.917	82.6
256.134	-83.28
256.351	2.73
256.567	-34.13
256.784	144.04
257	-134.48
257.217	139.94
257.433	60.07
257.65	68.27
257.866	207.53
258.082	-44.37
258.299	-34.13
258.515	98.99
258.732	74.41
258.948	74.41
259.165	25.26
259.381	29.35
259.597	8.87
259.814	31.4
260.03	17.07
260.246	4.78
260.463	152.23
260.679	53.93
260.895	94.89
261.112	70.31
261.328	58.03
261.544	-50.52
261.761	131.75
261.977	-1.37
262.193	15.02
262.409	72.36
262.626	-25.94
262.842	23.21
263.058	-52.56
263.274	60.07
263.49	68.27
263.707	23.21
263.923	137.9
264.139	-11.61
264.355	47.79
264.571	94.89
264.787	43.69
265.004	101.03
265.22	29.35
265.436	-27.99
265.652	49.83
265.868	29.35
266.084	-11.61
266.3	101.03
266.516	-15.7
266.732	78.51
266.948	55.98
267.164	-11.61
267.38	84.65
267.596	62.12
267.812	127.66
268.028	10.92
268.244	31.4
268.46	27.31
268.676	105.13
268.892	98.99
269.108	-109.91
269.324	-15.7
269.54	-64.85
269.756	21.16
269.972	10.92
270.188	-9.56
270.403	-32.08
270.619	86.7
270.835	125.61
271.051	10.92
271.267	45.74
271.483	-85.33
271.698	123.56
271.914	107.18
272.13	113.32
272.346	-42.32
272.562	23.21
272.777	164.52
272.993	60.07
273.209	35.5
273.425	49.83
273.64	-87.38
273.856	115.37
274.072	-64.85
274.287	-52.56
274.503	121.51
274.719	-5.46
274.934	2.73
275.15	12.97
275.366	19.11
275.581	-44.37
275.797	33.45
276.012	47.79
276.228	53.93
276.444	10.92
276.659	119.46
276.875	-25.94
277.09	47.79
277.306	8.87
277.521	78.51
277.737	-5.46
277.952	84.65
278.168	72.36
278.383	92.84
278.599	-15.7
278.814	113.32
279.03	6.83
279.245	119.46
279.461	8.87
279.676	88.75
279.892	-56.66
280.107	-71
280.322	-89.43
280.538	31.4
280.753	33.45
280.969	49.83
281.184	43.69
281.399	160.42
281.615	86.7
281.83	53.93
282.045	-32.08
282.26	-38.23
282.476	2.73
282.691	121.51
282.906	66.22
283.122	115.37
283.337	-9.56
283.552	39.59
283.767	-54.61
283.983	45.74
284.198	25.26
284.413	55.98
284.628	-9.56
284.843	60.07
285.058	62.12
285.274	12.97
285.489	-54.61
285.704	141.99
285.919	6.83
286.134	4.78
286.349	-36.18
286.564	12.97
286.779	162.47
286.995	12.97
287.21	-52.56
287.425	107.18
287.64	49.83
287.855	-11.61
288.07	-58.71
288.285	178.86
288.5	148.14
288.715	45.74
288.93	64.17
289.145	43.69
289.36	51.88
289.575	-15.7
289.79	37.55
290.004	25.26
290.219	64.17
290.434	-62.8
290.649	0.68
290.864	-79.19
291.079	37.55
291.294	35.5
291.509	49.83
291.724	29.35
291.938	45.74
292.153	19.11
292.368	78.51
292.583	127.66
292.798	74.41
293.012	86.7
293.227	49.83
293.442	-21.85
293.657	107.18
293.871	117.42
294.086	115.37
294.301	164.52
294.516	115.37
294.73	49.83
294.945	-42.32
295.16	37.55
295.374	96.94
295.589	119.46
295.804	-21.85
296.018	19.11
296.233	127.66
296.447	-13.65
296.662	-27.99
296.877	64.17
297.091	78.51
297.306	-11.61
297.52	-9.56
297.735	-30.04
297.949	0.68
298.164	103.08
298.378	58.03
298.593	-34.13
298.807	-30.04
299.022	-19.8
299.236	205.48
299.451	29.35
299.665	-32.08
299.88	-27.99
300.094	23.21
300.309	15.02
300.523	-3.41
300.737	10.92
300.952	55.98
301.166	70.31
301.381	-50.52
301.595	66.22
301.809	-46.42
302.024	-17.75
302.238	27.31
302.452	166.57
302.667	-15.7
302.881	84.65
303.095	53.93
303.309	74.41
303.524	-17.75
303.738	-3.41
303.952	-13.65
304.166	101.03
304.381	-122.2
304.595	111.27
304.809	-52.56
305.023	-9.56
305.237	-23.89
305.452	64.17
305.666	39.59
305.88	115.37
306.094	33.45
306.308	49.83
306.522	117.42
306.736	4.78
306.95	94.89
307.164	-21.85
307.379	78.51
307.593	127.66
307.807	98.99
308.021	141.99
308.235	62.12
308.449	-13.65
308.663	55.98
308.877	131.75
309.091	25.26
309.305	70.31
309.519	-91.48
309.733	127.66
309.947	-48.47
310.161	66.22
310.374	127.66
310.588	133.8
310.802	-73.04
311.016	31.4
311.23	6.83
311.444	-27.99
311.658	-9.56
311.872	158.38
312.085	90.79
312.299	109.22
312.513	90.79
312.727	2.73
312.941	-77.14
313.154	35.5
313.368	37.55
313.582	101.03
313.796	90.79
314.009	27.31
314.223	129.7
314.437	-30.04
314.651	103.08
314.864	-11.61
315.078	-7.51
315.292	-46.42
315.505	0.68
315.719	60.07
315.933	29.35
316.146	84.65
316.36	27.31
316.573	154.28
316.787	53.93
317.001	74.41
317.214	41.64
317.428	111.27
317.641	-27.99
317.855	-99.67
318.068	41.64
318.282	35.5
318.495	129.7
318.709	62.12
318.922	8.87
319.136	125.61
319.349	133.8
319.563	-34.13
319.776	96.94
319.99	-101.72
320.203	64.17
320.417	-7.51
320.63	109.22
320.843	230.06
321.057	10.92
321.27	-38.23
321.483	51.88
321.697	103.08
321.91	80.55
322.124	51.88
322.337	51.88
322.55	0.68
322.763	27.31
322.977	-60.76
323.19	-50.52
323.403	-75.09
323.617	53.93
323.83	139.94
324.043	23.21
324.256	62.12
324.469	-44.37
324.683	76.46
324.896	-44.37
325.109	43.69
325.322	-50.52
325.535	-38.23
325.748	137.9
325.962	-130.39
326.175	-3.41
326.388	37.55
326.601	66.22
326.814	-17.75
327.027	15.02
327.24	133.8
327.453	-83.28
327.666	60.07
327.879	82.6
328.092	43.69
328.305	135.85
328.518	-23.89
328.731	4.78
328.944	10.92
329.157	25.26
329.37	-32.08
329.583	217.77
329.796	209.58
330.009	-77.14
330.222	17.07
330.435	115.37
330.648	21.16
330.861	43.69
331.073	19.11
331.286	86.7
331.499	51.88
331.712	-68.95
331.925	78.51
332.138	94.89
332.35	90.79
332.563	-7.51
332.776	133.8
332.989	-9.56
333.202	43.69
333.414	0.68
333.627	-19.8
333.84	-52.56
334.053	58.03
334.265	-27.99
334.478	15.02
334.691	-27.99
334.903	55.98
335.116	-62.8
335.329	-17.75
335.541	129.7
335.754	178.86
335.966	74.41
336.179	51.88
336.392	4.78
336.604	58.03
336.817	121.51
337.029	-23.89
337.242	-27.99
337.454	86.7
337.667	39.59
337.88	51.88
338.092	103.08
338.305	125.61
338.517	62.12
338.729	88.75
338.942	172.71
339.154	-15.7
339.367	-38.23
339.579	58.03
339.792	-99.67
340.004	86.7
340.217	15.02
340.429	2.73
340.641	-11.61
340.854	12.97
341.066	-3.41
341.278	139.94
341.491	170.66
341.703	-17.75
341.915	-42.32
342.128	58.03
342.34	113.32
342.552	31.4
342.764	103.08
342.977	-15.7
343.189	64.17
343.401	78.51
343.613	-60.76
343.826	78.51
344.038	-15.7
344.25	49.83
344.462	37.55
344.674	6.83
344.886	-40.28
345.099	23.21
345.311	76.46
345.523	-9.56
345.735	-132.44
345.947	68.27
346.159	74.41
346.371	25.26
346.583	-27.99
346.795	127.66
347.007	-15.7
347.219	125.61
347.431	39.59
347.643	141.99
347.855	6.83
348.067	96.94
348.279	-79.19
348.491	31.4
348.703	53.93
348.915	-42.32
349.127	15.02
349.339	10.92
349.551	29.35
349.763	37.55
349.975	-13.65
350.187	98.99
350.399	53.93
350.61	-27.99
350.822	19.11
351.034	27.31
351.246	82.6
351.458	31.4
351.669	86.7
351.881	72.36
352.093	127.66
352.305	105.13
352.517	47.79
352.728	96.94
352.94	80.55
353.152	86.7
353.363	10.92
353.575	92.84
353.787	123.56
353.999	41.64
354.21	119.46
354.422	-3.41
354.633	29.35
354.845	-3.41
355.057	74.41
355.268	15.02
355.48	45.74
355.692	-15.7
355.903	35.5
356.115	-60.76
356.326	-64.85
356.538	117.42
356.749	135.85
356.961	152.23
357.172	80.55
357.384	-46.42
357.595	211.62
357.807	45.74
358.018	-25.94
358.23	25.26
358.441	148.14
358.653	82.6
358.864	53.93
359.075	-64.85
359.287	58.03
359.498	62.12
359.709	12.97
359.921	49.83
360.132	49.83
360.344	23.21
360.555	-9.56
360.766	45.74
360.977	31.4
361.189	113.32
361.4	-54.61
361.611	105.13
361.823	117.42
362.034	41.64
362.245	-111.96
362.456	39.59
362.667	21.16
362.879	-15.7
363.09	70.31
363.301	107.18
363.512	58.03
363.723	-46.42
363.935	-27.99
364.146	68.27
364.357	-15.7
364.568	-17.75
364.779	-79.19
364.99	103.08
365.201	58.03
365.412	119.46
365.623	-66.9
365.834	92.84
366.045	17.07
366.256	47.79
366.467	70.31
366.678	37.55
366.889	29.35
367.1	10.92
367.311	92.84
367.522	-11.61
367.733	12.97
367.944	4.78
368.155	-25.94
368.366	86.7
368.577	86.7
368.788	39.59
368.999	-17.75
369.209	98.99
369.42	160.42
369.631	174.76
369.842	70.31
370.053	45.74
370.264	51.88
370.474	35.5
370.685	0.68
370.896	58.03
371.107	45.74
371.317	129.7
371.528	98.99
371.739	139.94
371.95	94.89
372.16	47.79
372.371	-68.95
372.582	-48.47
372.792	64.17
373.003	39.59
373.214	60.07
373.424	68.27
373.635	-54.61
373.846	133.8
374.056	-1.37
374.267	70.31
374.477	70.31
374.688	-32.08
374.898	103.08
375.109	-1.37
375.319	62.12
375.53	107.18
375.74	53.93
375.951	-13.65
376.161	-21.85
376.372	2.73
376.582	-85.33
376.793	17.07
377.003	-114
377.214	-5.46
377.424	101.03
377.635	96.94
377.845	-44.37
378.055	197.29
378.266	-81.24
378.476	17.07
378.686	82.6
378.897	49.83
379.107	158.38
379.317	80.55
379.528	-5.46
379.738	123.56
379.948	-27.99
380.158	60.07
380.369	86.7
380.579	55.98
380.789	78.51
380.999	33.45
381.21	39.59
381.42	281.25
381.63	-21.85
381.84	152.23
382.05	109.22
382.261	148.14
382.471	135.85
382.681	23.21
382.891	166.57
383.101	51.88
383.311	-118.1
383.521	12.97
383.731	6.83
383.941	111.27
384.151	-9.56
384.361	-13.65
384.571	25.26
384.781	41.64
384.991	256.68
385.201	131.75
385.411	96.94
385.621	98.99
385.831	78.51
386.041	21.16
386.251	4.78
386.461	129.7
386.671	29.35
386.881	55.98
387.091	74.41
387.301	68.27
387.511	96.94
387.72	4.78
387.93	58.03
388.14	-142.68
388.35	64.17
388.56	119.46
388.769	150.18
388.979	68.27
389.189	-118.1
389.399	19.11
389.609	41.64
389.818	166.57
390.028	-11.61
390.238	58.03
390.447	45.74
390.657	58.03
390.867	6.83
391.076	-109.91
391.286	-15.7
391.496	21.16
391.705	-15.7
391.915	84.65
392.125	111.27
392.334	-25.94
392.544	123.56
392.753	-9.56
392.963	-71
393.172	31.4
393.382	53.93
393.591	207.53
393.801	-7.51
394.01	170.66
394.22	135.85
394.429	51.88
394.639	-21.85
394.848	29.35
395.058	139.94
395.267	21.16
395.477	68.27
395.686	53.93
395.895	135.85
396.105	150.18
396.314	-7.51
396.524	68.27
396.733	15.02
396.942	88.75
397.152	101.03
397.361	58.03
397.57	133.8
397.78	51.88
397.989	113.32
398.198	158.38
398.407	55.98
398.617	2.73
398.826	45.74
399.035	-30.04
399.244	47.79
399.453	47.79
399.663	27.31
399.872	92.84
400.081	-40.28
400.29	49.83
400.499	-83.28
400.708	207.53
400.917	64.17
401.127	68.27
401.336	21.16
401.545	207.53
401.754	135.85
401.963	131.75
402.172	62.12
402.381	-21.85
402.59	10.92
402.799	66.22
403.008	123.56
403.217	72.36
403.426	160.42
403.635	-101.72
403.844	47.79
404.053	-21.85
404.262	-27.99
404.471	240.29
404.68	39.59
404.888	125.61
405.097	-58.71
405.306	150.18
405.515	35.5
405.724	51.88
405.933	117.42
406.142	66.22
406.35	103.08
406.559	37.55
406.768	58.03
406.977	207.53
407.185	27.31
407.394	158.38
407.603	-1.37
407.812	64.17
408.02	144.04
408.229	47.79
408.438	43.69
408.646	51.88
408.855	62.12
409.064	78.51
409.272	55.98
409.481	119.46
409.69	21.16
409.898	-66.9
410.107	84.65
410.315	84.65
410.524	-40.28
410.733	-21.85
410.941	74.41
411.15	107.18
411.358	107.18
411.567	154.28
411.775	47.79
411.984	19.11
412.192	17.07
412.401	-17.75
412.609	223.91
412.818	125.61
413.026	62.12
413.234	60.07
413.443	49.83
413.651	-13.65
413.86	60.07
414.068	107.18
414.276	174.76
414.485	55.98
414.693	92.84
414.901	174.76
415.11	103.08
415.318	45.74
415.526	33.45
415.734	166.57
415.943	117.42
416.151	117.42
416.359	70.31
416.567	174.76
416.776	68.27
416.984	125.61
417.192	168.62
417.4	31.4
417.608	-32.08
417.817	35.5
418.025	162.47
418.233	195.24
418.441	58.03
418.649	-42.32
418.857	-7.51
419.065	64.17
419.273	49.83
419.481	90.79
419.689	29.35
419.897	43.69
420.105	-11.61
420.313	74.41
420.521	144.04
420.729	141.99
420.937	47.79
421.145	47.79
421.353	101.03
421.561	156.33
421.769	43.69
421.977	-13.65
422.185	94.89
422.393	60.07
422.601	156.33
422.809	70.31
423.017	47.79
423.224	90.79
423.432	199.34
423.64	29.35
423.848	125.61
424.056	-7.51
424.263	133.8
424.471	66.22
424.679	170.66
424.887	-25.94
425.094	193.19
425.302	62.12
425.51	2.73
425.718	107.18
425.925	129.7
426.133	37.55
426.341	180.9
426.548	72.36
426.756	107.18
426.964	103.08
427.171	29.35
427.379	41.64
427.586	49.83
427.794	82.6
428.001	219.82
428.209	51.88
428.417	148.14
428.624	113.32
428.832	101.03
429.039	68.27
429.247	174.76
429.454	129.7
429.662	225.96
429.869	70.31
430.076	127.66
430.284	103.08
430.491	244.39
430.699	164.52
430.906	211.62
431.114	90.79
431.321	236.2
431.528	107.18
431.736	166.57
431.943	156.33
432.15	174.76
432.358	176.81
432.565	199.34
432.772	72.36
432.979	289.45
433.187	139.94
433.394	283.3
433.601	92.84
433.808	213.67
434.016	303.78
434.223	260.77
434.43	201.38
434.637	324.26
434.844	199.34
435.052	238.25
435.259	354.98
435.466	330.41
435.673	242.34
435.88	383.65
436.087	311.97
436.294	412.32
436.501	387.75
436.708	299.69
436.915	375.46
437.122	414.37
437.329	295.59
437.537	436.9
437.743	389.8
437.95	535.2
438.157	449.19
438.364	514.72
438.571	469.67
438.778	481.96
438.985	533.15
439.192	502.43
439.399	477.86
439.606	570.02
439.813	582.31
440.02	690.85
440.227	803.49
440.433	709.28
440.64	592.55
440.847	551.59
441.054	678.56
441.261	783.01
441.467	719.52
441.674	676.51
441.881	858.78
442.088	713.38
442.294	871.07
442.501	875.17
442.708	963.23
442.914	793.25
443.121	961.18
443.328	1063.58
443.534	1098.39
443.741	924.32
443.948	977.56
444.154	1180.31
444.361	1260.18
444.568	1145.5
444.774	1258.14
444.981	1194.65
445.187	1356.44
445.394	1327.77
445.6	1292.95
445.807	1505.94
446.013	1413.78
446.22	1442.45
446.426	1696.4
446.633	1751.7
446.839	1886.86
447.046	1677.97
447.252	1913.49
447.459	1872.53
447.665	1852.05
447.871	2204.3
448.078	2257.54
448.284	2284.17
448.491	2310.79
448.697	2484.87
448.903	2615.94
449.11	2632.32
449.316	2562.69
449.522	2873.98
449.728	2986.62
449.935	2994.81
450.141	2968.19
450.347	3291.77
450.553	3166.84
450.76	3383.93
450.966	3455.61
451.172	3580.53
451.378	3660.4
451.584	3713.65
451.791	3895.92
451.997	4242.03
452.203	4278.89
452.409	4428.39
452.615	4528.74
452.821	4504.17
453.027	4555.37
453.233	5106.27
453.44	4962.91
453.646	5290.59
453.852	5491.29
454.058	5722.71
454.264	5888.59
454.47	6328.91
454.676	6277.71
454.882	6783.56
455.088	6689.35
455.294	6941.25
455.5	7295.55
455.705	7805.49
455.911	7887.41
456.117	8159.79
456.323	8286.76
456.529	8254
456.735	9134.62
456.941	9218.59
457.147	9773.59
457.352	9910.8
457.558	9953.81
457.764	10924.55
457.97	11123.2
458.176	11790.84
458.381	12155.38
458.587	12329.45
458.793	12843.49
458.999	13029.86
459.204	14676.43
459.41	15040.97
459.616	14561.74
459.821	15796.67
460.027	16562.61
460.233	17072.55
460.438	17213.86
460.644	18370.96
460.85	18323.86
461.055	18954.63
461.261	19913.08
461.466	19769.72
461.672	19886.46
461.878	22382.93
462.083	22163.8
462.289	22716.75
462.494	23660.87
462.7	23646.53
462.905	23806.27
463.111	25766.18
463.316	27099.41
463.522	27619.59
463.727	28502.26
463.932	29579.5
464.138	30568.66
464.343	31971.52
464.549	31846.6
464.754	34320.54
464.959	35166.35
465.165	35651.72
465.37	35684.49
465.575	35580.04
465.781	37816.43
465.986	39118.93
466.191	38326.37
466.397	38549.6
466.602	37515.37
466.807	39886.92
467.012	40218.69
467.218	41332.79
467.423	41343.03
467.628	42194.98
467.833	44732.42
468.038	44003.34
468.244	42678.3
468.449	45471.73
468.654	44251.14
468.859	43911.18
469.064	44374.02
469.269	43495.44
469.474	43530.26
469.679	44918.78
469.885	43321.37
470.09	44210.18
470.295	44234.76
470.5	43452.44
470.705	43335.7
470.91	42471.46
471.115	42240.04
471.32	42549.28
471.525	42281
471.73	41474.1
471.935	40964.15
472.139	39612.49
472.344	39481.42
472.549	39020.63
472.754	38352.99
472.959	37417.07
473.164	36233.35
473.369	35457.17
473.574	36630.65
473.778	35854.47
473.983	35444.88
474.188	34637.98
474.393	32964.79
474.598	33177.78
474.802	32776.37
475.007	31756.49
475.212	31371.47
475.417	29993.18
475.621	29589.74
475.826	29948.13
476.031	29001.97
476.235	28340.47
476.44	28356.86
476.645	27363.59
476.849	27255.05
477.054	27050.25
477.259	26448.15
477.463	26061.08
477.668	25059.63
477.872	25166.12
478.077	24453.43
478.282	24080.7
478.486	23853.37
478.691	23851.33
478.895	23368.01
479.1	23134.54
479.304	22948.17
479.509	22514
479.713	22559.06
479.918	22090.07
480.122	21623.14
480.326	21870.94
480.531	21696.86
480.735	21500.26
480.94	21225.83
481.144	21303.65
481.348	20322.68
481.553	20576.62
481.757	19925.37
481.961	20554.1
482.166	20269.43
482.37	20382.07
482.574	19612.03
482.778	19638.65
482.983	19966.33
483.187	19358.08
483.391	19493.25
483.595	19151.24
483.8	18835.85
484.004	18764.17
484.208	18833.8
484.412	18499.98
484.616	18686.35
484.821	18010.52
485.025	17609.12
485.229	17824.15
485.433	17488.29
485.637	17211.81
485.841	16966.06
486.045	16718.25
486.249	16830.89
486.453	16343.47
486.657	16091.57
486.861	15991.22
487.065	15442.37
487.269	15509.95
487.473	14997.96
487.677	15194.56
487.881	15114.69
488.085	14463.44
488.289	14584.27
488.493	13865.43
488.697	13832.66
488.901	13634.01
489.105	13171.17
489.309	13062.63
489.512	13019.62
489.716	12675.56
489.92	12700.14
490.124	12089.84
490.328	11983.35
490.531	11647.48
490.735	11710.97
490.939	11506.17
491.143	10977.8
491.346	10990.08
491.55	10803.72
491.754	10441.23
491.958	10426.89
492.161	10220.05
492.365	10213.9
492.569	9970.19
492.772	9712.15
492.976	9761.3
493.18	9460.25
493.383	9431.58
493.587	9380.38
493.79	9366.04
493.994	8993.31
494.197	8845.86
494.401	9101.86
494.605	8720.93
494.808	8753.7
495.012	8745.51
495.215	8665.64
495.419	8626.73
495.622	8303.15
495.825	8151.6
496.029	8297
496.232	8317.48
496.436	8116.78
496.639	8262.19
496.843	8165.93
497.046	8245.8
497.249	8278.57
497.453	8290.86
497.656	8088.11
497.859	8266.28
498.063	8090.16
498.266	8415.79
498.469	7995.95
498.673	8079.92
498.876	8305.2
499.079	8127.02
499.282	8360.49
499.485	8671.78
499.689	8243.76
499.892	8352.3
500.095	8337.96
500.298	8624.68
500.501	8450.6
500.705	8813.09
500.908	8833.57
501.111	8892.96
501.314	8903.2
501.517	8964.64
501.72	9089.57
501.923	9060.9
502.126	9019.94
502.329	9333.28
502.532	9407
502.735	9413.15
502.938	9724.44
503.141	9619.99
503.344	9878.04
503.547	10103.31
503.75	9820.69
503.953	9908.76
504.156	10209.81
504.359	10469.9
504.562	10392.08
504.765	10449.42
504.968	11072
505.17	10988.03
505.373	11196.93
505.576	11440.64
505.779	11700.73
505.982	11477.5
506.185	11983.35
506.387	11985.4
506.59	12407.28
506.793	12700.14
506.996	12411.37
507.198	13304.29
507.401	13033.96
507.604	13378.01
507.807	13648.35
508.009	13822.42
508.212	14260.69
508.415	14549.45
508.617	14655.95
508.82	14885.32
509.022	15083.97
509.225	15503.81
509.428	16071.09
509.63	16191.92
509.833	16533.93
510.035	17490.34
510.238	17412.51
510.44	17617.31
510.643	18106.77
510.845	18438.55
511.048	18663.82
511.25	19114.38
511.453	19562.88
511.655	20304.24
511.858	20558.19
512.06	20986.22
512.262	21592.42
512.465	21934.43
512.667	22522.19
512.87	22710.61
513.072	23099.72
513.274	24211.77
513.477	24394.04
513.679	25151.79
513.881	25663.78
514.084	26177.82
514.286	26544.41
514.488	26675.48
514.69	28317.95
514.893	28252.41
515.095	28772.6
515.297	29554.92
515.499	29862.11
515.701	30423.26
515.904	31647.94
516.106	32067.78
516.308	32551.1
516.51	33476.78
516.712	33491.12
516.914	34730.14
517.116	34861.21
517.318	35780.74
517.52	36341.89
517.722	37070.96
517.925	37687.4
518.127	38578.27
518.329	39288.92
518.531	39348.31
518.733	40280.13
518.935	40847.42
519.136	41273.4
519.338	42526.75
519.54	42772.51
519.742	43077.66
519.944	43980.81
520.146	44603.39
520.348	45367.29
520.55	46022.64
520.752	46630.88
520.954	47237.08
521.155	47253.47
521.357	48142.28
521.559	48639.94
521.761	49604.53
521.963	49485.75
522.164	50186.16
522.366	49674.16
522.568	50872.23
522.77	50878.37
522.971	51783.57
523.173	51261.34
523.375	52012.94
523.576	51693.46
523.778	52266.89
523.98	53180.29
524.181	53122.94
524.383	52785.03
524.584	53757.81
524.786	53544.83
524.988	53442.43
525.189	53725.05
525.391	53966.71
525.592	53798.77
525.794	54161.26
525.995	53495.67
526.197	53643.13
526.398	53907.32
526.6	53870.45
526.801	53485.43
527.003	53397.37
527.204	52719.49
527.406	53241.73
527.607	52819.84
527.808	52656.01
528.01	51814.29
528.211	51902.35
528.412	52264.85
528.614	51724.18
528.815	51310.49
529.016	51197.85
529.218	50245.55
529.419	50214.83
529.62	49792.95
529.822	49252.28
530.023	48789.44
530.224	48429
530.425	48005.07
530.626	46946.27
530.828	46292.97
531.029	46753.76
531.23	46088.17
531.431	45193.21
531.632	44875.77
531.833	44699.65
532.035	43737.1
532.236	43567.12
532.437	43055.13
532.638	42117.16
532.839	41961.51
533.04	41146.42
533.241	40591.42
533.442	41148.47
533.643	40020.04
533.844	39188.56
534.045	38535.26
534.246	38156.39
534.447	37881.96
534.648	37535.85
534.849	36982.9
535.05	35889.29
535.251	35743.88
535.451	35371.15
535.652	34805.91
535.853	34314.4
536.054	33974.44
536.255	33505.45
536.456	32592.06
536.657	32811.19
536.857	31895.75
537.058	31400.14
537.259	31402.19
537.46	30769.37
537.66	30019.81
537.861	30044.38
538.062	29720.81
538.263	29083.89
538.463	28840.18
538.664	28381.43
538.865	28190.97
539.065	28018.94
539.266	27371.78
539.466	27324.68
539.667	26341.66
539.868	26675.48
540.068	25991.45
540.269	25844
540.469	25692.45
540.67	25219.37
540.87	25180.46
541.071	24463.67
541.271	24447.29
541.472	24101.18
541.672	23818.56
541.873	23458.12
542.073	22802.77
542.274	22960.46
542.474	22550.87
542.675	22382.93
542.875	22311.25
543.075	21956.96
543.276	21688.67
543.476	21541.22
543.676	21148.01
543.877	21004.65
544.077	21006.7
544.277	20599.15
544.478	20289.91
544.678	20226.42
544.878	19956.09
545.078	19683.71
545.279	19407.23
545.479	18928.01
545.679	19104.14
545.879	18676.11
546.079	18588.05
546.28	18010.52
546.48	17965.46
546.68	18119.06
546.88	17607.07
547.08	17547.68
547.28	17301.92
547.48	17099.17
547.68	16789.93
547.88	16765.35
548.081	16583.09
548.281	15911.35
548.481	15946.17
548.681	15966.65
548.881	15673.79
549.081	15391.17
549.28	15176.13
549.48	15342.02
549.68	14690.76
549.88	14479.82
550.08	14299.6
550.28	14203.35
550.48	13930.97
550.68	13732.31
550.88	13414.88
551.08	13322.72
551.279	13310.43
551.479	12884.45
551.679	12954.08
551.879	12519.92
552.079	12517.87
552.278	12233.2
552.478	12370.41
552.678	11817.46
552.878	11964.92
553.077	11508.22
553.277	11239.94
553.477	11305.47
553.676	10924.55
553.876	10725.9
554.076	10783.24
554.275	10605.06
554.475	10215.95
554.674	10326.54
554.874	9945.62
555.074	9841.17
555.273	9896.47
555.473	9554.46
555.672	9308.7
555.872	9196.06
556.071	9259.55
556.271	9013.79
556.47	8784.42
556.67	8647.21
556.869	8708.65
557.068	8333.87
557.268	8206.89
557.467	8153.65
557.667	8098.35
557.866	7811.64
558.065	7596.6
558.265	7696.95
558.464	7369.27
558.663	7459.38
558.863	7344.7
559.062	7238.2
559.261	6769.22
559.461	6926.91
559.66	6599.24
559.859	6431.3
560.058	6466.12
560.258	6246.99
560.457	6322.76
560.656	6396.49
560.855	6015.57
561.054	6070.86
561.253	5915.22
561.453	6005.33
561.652	5796.43
561.851	5831.25
562.05	5507.67
562.249	5421.66
562.448	5556.82
562.647	5241.43
562.846	5188.19
563.045	5388.89
563.244	4991.58
563.443	5161.56
563.642	4954.72
563.841	5098.08
564.04	4731.49
564.239	4790.88
564.438	4665.96
564.637	4553.32
564.836	4620.9
565.035	4434.53
565.234	4330.09
565.432	4418.15
565.631	4344.42
565.83	4328.04
566.029	4233.83
566.228	4102.76
566.427	3877.49
566.625	3834.48
566.824	3920.49
567.023	3902.06
567.222	3652.21
567.42	3826.29
567.619	3857.01
567.818	3676.79
568.016	3807.86
568.215	3549.81
568.414	3410.55
568.612	3404.41
568.811	3371.64
569.01	3398.26
569.208	3377.78
569.407	3455.61
569.605	3238.52
569.804	3236.47
570.002	3191.42
570.201	2986.62
570.4	3152.51
570.598	3011.2
570.797	2912.89
570.995	2923.13
571.193	2919.04
571.392	2853.5
571.59	2712.19
571.789	2855.55
571.987	2747.01
572.186	2810.5
572.384	2636.42
572.582	2740.86
572.781	2620.03
572.979	2505.35
573.177	2407.05
573.376	2435.72
573.574	2482.82
573.772	2321.03
573.971	2355.85
574.169	2259.59
574.367	2235.02
574.565	2235.02
574.763	2163.34
574.962	2161.29
575.16	1944.2
575.358	2032.27
575.556	2071.18
575.754	1985.16
575.952	1950.35
576.151	1931.92
576.349	1950.35
576.547	1817.23
576.745	1833.61
576.943	1964.68
577.141	1786.51
577.339	1772.18
577.537	1733.26
577.735	1749.65
577.933	1692.3
578.131	1653.39
578.329	1774.22
578.527	1612.43
578.725	1600.15
578.923	1487.51
579.121	1540.76
579.319	1260.18
579.516	1473.17
579.714	1602.19
579.912	1477.27
580.11	1411.73
580.308	1395.35
580.506	1385.11
580.704	1217.18
580.901	1338.01
581.099	1473.17
581.297	1282.71
581.495	1399.45
581.692	1264.28
581.89	1313.43
582.088	1290.9
582.285	1251.99
582.483	1137.31
582.681	1163.93
582.878	1073.82
583.076	1233.56
583.274	1163.93
583.471	1264.28
583.669	1024.67
583.866	996
584.064	1063.58
584.262	1004.19
584.459	998.04
584.657	1098.39
584.854	1065.63
585.052	963.23
585.249	1008.28
585.447	1006.24
585.644	801.44
585.841	1000.09
586.039	979.61
586.236	932.51
586.434	846.49
586.631	862.88
586.828	909.98
587.026	840.35
587.223	830.11
587.42	838.3
587.618	805.53
587.815	957.08
588.012	817.82
588.21	801.44
588.407	815.77
588.604	834.21
588.801	705.18
588.999	696.99
589.196	879.26
589.393	649.89
589.59	762.53
589.787	746.14
589.984	785.05
590.182	805.53
590.379	731.81
590.576	717.47
590.773	737.95
590.97	717.47
591.167	748.19
591.364	750.24
591.561	758.43
591.758	842.4
591.955	783.01
592.152	598.69
592.349	688.8
592.546	662.18
592.743	723.62
592.94	723.62
593.137	735.9
593.334	866.97
593.531	729.76
593.727	719.52
593.924	703.14
594.121	649.89
594.318	707.23
594.515	723.62
594.712	731.81
594.908	795.29
595.105	604.83
595.302	846.49
595.499	723.62
595.696	836.25
595.892	762.53
596.089	832.16
596.286	756.38
596.482	979.61
596.679	817.82
596.876	813.73
597.072	965.28
597.269	840.35
597.466	914.08
597.662	854.69
597.859	897.69
598.055	1014.43
598.252	1047.19
598.448	1077.91
598.645	1256.09
598.841	1200.79
599.038	1260.18
599.234	1325.72
599.431	1319.57
599.627	1362.58
599.824	1378.97
600.02	1428.12
600.217	1518.23
600.413	1579.67
600.609	1475.22
600.806	1735.31
601.002	1759.89
601.198	1696.4
601.395	1860.24
601.591	1899.15
601.787	1974.92
601.984	2163.34
602.18	2194.06
602.376	2232.97
602.572	2425.48
602.769	2425.48
602.965	2257.54
603.161	2665.09
603.357	2708.1
603.553	2816.64
603.75	2732.67
603.946	2855.55
604.142	3099.26
604.338	3281.53
604.534	3199.61
604.73	3291.77
604.926	3443.32
605.122	3703.41
605.318	3701.36
605.514	3740.27
605.71	3754.61
605.906	4147.82
606.102	4160.11
606.298	4403.82
606.494	4371.05
606.69	4606.56
606.886	4522.6
607.082	4899.42
607.278	4975.2
607.474	5053.02
607.67	5122.65
607.866	5339.74
608.062	5763.67
608.257	5759.57
608.453	5843.54
608.649	5835.35
608.845	5960.27
609.041	6353.48
609.236	6322.76
609.432	6519.37
609.628	6832.71
609.824	7019.07
610.019	7144
610.215	7340.6
610.411	7627.32
610.606	7889.46
610.802	8153.65
610.998	8155.69
611.193	8428.07
611.389	8372.78
611.584	8763.94
611.78	8823.33
611.976	9228.83
612.171	9798.17
612.367	9810.45
612.562	10142.22
612.758	10218
612.953	10244.62
613.149	10777.09
613.344	10811.91
613.539	11459.07
613.735	11663.86
613.93	11899.38
614.126	12171.76
614.321	12601.83
614.517	12757.48
614.712	13242.85
614.907	13760.98
615.103	13959.64
615.298	14328.27
615.493	14760.39
615.688	14983.62
615.884	15301.06
616.079	15538.62
616.274	16273.84
616.47	16214.45
616.665	16882.09
616.86	17406.37
617.055	17732
617.25	17998.23
617.445	18821.52
617.641	18860.43
617.836	19446.15
618.031	19714.43
618.226	20472.18
618.421	20892.01
618.616	21664.1
618.811	21643.62
619.006	22808.91
619.201	22962.51
619.396	23394.63
619.591	23691.59
619.786	24639.79
619.981	24914.22
620.176	25600.29
620.371	25651.49
620.566	26423.58
620.761	26771.73
620.956	27756.8
621.151	27840.77
621.346	28821.75
621.541	28672.25
621.735	29974.75
621.93	29890.79
622.125	30660.82
622.32	30673.11
622.515	31783.11
622.709	32460.99
622.904	33149.1
623.099	33417.39
623.294	34414.75
623.488	34648.22
623.683	34986.13
623.878	35278.99
624.072	36601.98
624.267	36761.72
624.462	37009.53
624.656	37599.34
624.851	38598.75
625.046	38608.99
625.24	39508.05
625.435	39903.31
625.629	40722.49
625.824	40462.4
626.018	41519.15
626.213	41367.6
626.407	42592.29
626.602	42309.67
626.796	43214.87
626.991	43575.31
627.185	43757.58
627.38	43870.22
627.574	43642.9
627.768	44478.47
627.963	44513.28
628.157	44486.66
628.352	44845.05
628.546	44191.75
628.74	45086.71
628.935	44406.79
629.129	44675.07
629.323	43681.81
629.517	43939.85
629.712	43499.54
629.906	43255.83
630.1	42399.78
630.294	42469.41
630.489	41603.12
630.683	41703.47
630.877	40589.38
631.071	39835.72
631.265	39452.75
631.459	38852.7
631.653	37374.06
631.848	37240.95
632.042	35690.63
632.236	35160.21
632.43	33980.58
632.624	33302.7
632.818	32426.17
633.012	30949.59
633.206	30046.43
633.4	29505.77
633.594	27988.22
633.788	27283.72
633.982	26368.28
634.176	25626.92
634.369	24435
634.563	23462.21
634.757	22278.49
634.951	21719.39
635.145	21160.3
635.339	20101.5
635.533	19327.36
635.726	18844.04
635.92	17643.93
636.114	16857.51
636.308	16316.85
636.501	15731.13
636.695	14985.67
636.889	14422.48
637.083	13787.61
637.276	13197.79
637.47	12554.73
637.664	12100.08
637.857	11561.47
638.051	11274.75
638.244	10963.46
638.438	10387.98
638.632	10152.46
638.825	9703.96
639.019	9114.14
639.212	8542.76
639.406	8532.52
639.599	8133.17
639.793	7793.2
639.986	7529.02
640.18	7236.16
640.373	7025.22
640.567	6589
640.76	6427.21
640.954	6136.4
641.147	5880.4
641.34	5585.49
641.534	5558.87
641.727	5292.63
641.92	5188.19
642.114	5046.88
642.307	4655.72
642.5	4547.17
642.694	4258.41
642.887	4153.96
643.08	4129.39
643.273	3949.17
643.467	3750.51
643.66	3545.72
643.853	3441.27
644.046	3312.25
644.239	3191.42
644.432	3076.73
644.626	2857.6
644.819	2720.39
645.012	2726.53
645.205	2833.02
645.398	2579.08
645.591	2345.61
645.784	2282.12
645.977	2118.28
646.17	2163.34
646.363	2067.08
646.556	1997.45
646.749	1882.77
646.942	1878.67
647.135	1802.9
647.328	1669.78
647.521	1587.86
647.714	1565.33
647.907	1499.8
648.099	1489.56
648.292	1475.22
648.485	1286.81
648.678	1280.66
648.871	1106.59
649.064	1276.57
649.256	1104.54
649.449	1071.77
649.642	961.18
649.835	1067.67
650.027	991.9
650.22	1075.87
650.413	909.98
650.605	879.26
650.798	893.6
650.991	787.1
651.183	735.9
651.376	871.07
651.568	787.1
651.761	772.77
651.954	770.72
652.146	682.66
652.339	797.34
652.531	686.75
652.724	565.92
652.916	604.83
653.109	488.1
653.301	699.04
653.494	656.03
653.686	668.32
653.879	592.55
654.071	551.59
654.263	420.52
654.456	438.95
654.648	451.24
654.84	576.16
655.033	385.7
655.225	529.06
655.417	330.41
655.61	508.58
655.802	418.47
655.994	436.9
656.186	311.97
656.379	414.37
656.571	295.59
656.763	357.03
656.955	314.02
657.148	332.45
657.34	443.04
657.532	344.74
657.724	309.93
657.916	359.08
658.108	348.84
658.3	387.75
658.492	295.59
658.684	160.42
658.876	324.26
659.068	180.9
659.26	150.18
659.452	101.03
659.644	309.93
659.836	322.21
660.028	357.03
660.22	197.29
660.412	146.09
660.604	279.21
660.796	285.35
660.988	252.58
661.18	135.85
661.372	252.58
661.563	160.42
661.755	185
661.947	154.28
662.139	113.32
662.331	234.15
662.522	197.29
662.714	154.28
662.906	148.14
663.097	166.57
663.289	164.52
663.481	19.11
663.673	250.53
663.864	144.04
664.056	219.82
664.247	49.83
664.439	236.2
664.631	182.95
664.822	211.62
665.014	185
665.205	150.18
665.397	64.17
665.588	133.8
665.78	166.57
665.971	236.2
666.163	90.79
666.354	195.24
666.546	117.42
666.737	76.46
666.929	84.65
667.12	111.27
667.311	223.91
667.503	84.65
667.694	154.28
667.885	189.1
668.077	185
668.268	49.83
668.459	98.99
668.651	201.38
668.842	111.27
669.033	47.79
669.224	58.03
669.416	260.77
669.607	135.85
669.798	109.22
669.989	191.14
670.18	33.45
670.371	168.62
670.563	-5.46
670.754	70.31
670.945	203.43
671.136	105.13
671.327	105.13
671.518	160.42
671.709	236.2
671.9	203.43
672.091	191.14
672.282	94.89
672.473	135.85
672.664	80.55
672.855	109.22
673.046	148.14
673.237	244.39
673.428	182.95
673.619	150.18
673.809	82.6
674	168.62
674.191	146.09
674.382	105.13
674.573	98.99
674.764	96.94
674.954	182.95
675.145	41.64
675.336	64.17
675.527	135.85
675.717	43.69
675.908	182.95
676.099	62.12
676.289	125.61
676.48	-13.65
676.671	150.18
676.861	35.5
677.052	117.42
677.243	141.99
677.433	111.27
677.624	189.1
677.814	168.62
678.005	92.84
678.195	279.21
678.386	158.38
678.576	209.58
678.767	-23.89
678.957	96.94
679.148	164.52
679.338	223.91
679.529	225.96
679.719	127.66
679.909	285.35
680.1	170.66
680.29	144.04
680.481	-27.99
680.671	101.03
680.861	168.62
681.052	148.14
681.242	121.51
681.432	213.67
681.622	137.9
681.813	101.03
682.003	152.23
682.193	146.09
682.383	207.53
682.573	113.32
682.764	160.42
682.954	117.42
683.144	154.28
683.334	125.61
683.524	133.8
683.714	123.56
683.904	168.62
684.094	107.18
684.284	197.29
684.474	187.05
684.664	291.49
684.854	225.96
685.044	117.42
685.234	160.42
685.424	193.19
685.614	76.46
685.804	264.87
685.994	174.76
686.184	168.62
686.374	230.06
686.564	172.71
686.753	178.86
686.943	103.08
687.133	119.46
687.323	189.1
687.513	168.62
687.702	211.62
687.892	137.9
688.082	279.21
688.272	271.01
688.461	119.46
688.651	287.4
688.841	209.58
689.03	174.76
689.22	180.9
689.41	256.68
689.599	111.27
689.789	105.13
689.979	225.96
690.168	178.86
690.358	287.4
690.547	123.56
690.737	215.72
690.926	207.53
691.116	271.01
691.305	258.73
691.495	180.9
691.684	137.9
691.874	199.34
692.063	178.86
692.252	217.77
692.442	256.68
692.631	178.86
692.82	131.75
693.01	219.82
693.199	84.65
693.388	170.66
693.578	148.14
693.767	225.96
693.956	170.66
694.146	166.57
694.335	248.49
694.524	127.66
694.713	271.01
694.902	84.65
695.092	121.51
695.281	176.81
695.47	150.18
695.659	103.08
695.848	166.57
696.037	53.93
696.226	260.77
696.415	221.86
696.604	289.45
696.793	264.87
696.982	205.48
697.171	287.4
697.36	90.79
697.549	170.66
697.738	33.45
697.927	158.38
698.116	152.23
698.305	193.19
698.494	168.62
698.683	187.05
698.872	340.65
699.061	283.3
699.25	185
699.438	162.47
699.627	84.65
699.816	244.39
700.005	58.03
700.193	62.12
700.382	334.5
700.571	234.15
700.76	219.82
700.948	266.92
701.137	197.29
701.326	189.1
701.514	121.51
701.703	185
701.892	144.04
702.08	322.21
702.269	180.9
702.457	158.38
702.646	248.49
702.834	137.9
703.023	217.77
703.212	273.06
703.4	148.14
703.589	127.66
703.777	146.09
703.965	141.99
704.154	111.27
704.342	139.94
704.531	60.07
704.719	193.19
704.907	238.25
705.096	117.42
705.284	139.94
705.472	195.24
705.661	185
705.849	164.52
706.037	236.2
706.226	172.71
706.414	156.33
706.602	131.75
706.79	223.91
706.979	185
707.167	201.38
707.355	31.4
707.543	174.76
707.731	217.77
707.919	223.91
708.107	189.1
708.296	154.28
708.484	230.06
708.672	139.94
708.86	225.96
709.048	185
709.236	101.03
709.424	199.34
709.612	254.63
709.8	96.94
709.988	146.09
710.176	250.53
710.364	262.82
710.551	86.7
710.739	137.9
710.927	141.99
711.115	207.53
711.303	201.38
711.491	223.91
711.679	135.85
711.866	240.29
712.054	141.99
712.242	215.72
712.43	139.94
712.617	166.57
712.805	217.77
712.993	228.01
713.181	47.79
713.368	238.25
713.556	96.94
713.744	70.31
713.931	363.17
714.119	281.25
714.306	203.43
714.494	53.93
714.682	189.1
714.869	172.71
715.057	189.1
715.244	53.93
715.432	215.72
715.619	119.46
715.807	166.57
715.994	82.6
716.182	158.38
716.369	213.67
716.556	240.29
716.744	70.31
716.931	133.8
717.119	316.07
717.306	131.75
717.493	170.66
717.681	127.66
717.868	129.7
718.055	180.9
718.242	180.9
718.43	109.22
718.617	199.34
718.804	209.58
718.991	223.91
719.179	264.87
719.366	88.75
719.553	162.47
719.74	168.62
719.927	178.86
720.114	232.1
720.301	62.12
720.488	178.86
720.676	107.18
720.863	291.49
721.05	254.63
721.237	230.06
721.424	230.06
721.611	273.06
721.798	35.5
721.985	203.43
722.172	213.67
722.358	125.61
722.545	217.77
722.732	162.47
722.919	287.4
723.106	193.19
723.293	178.86
723.48	219.82
723.667	150.18
723.853	305.83
724.04	219.82
724.227	232.1
724.414	133.8
724.6	230.06
724.787	369.32
724.974	365.22
725.161	185
725.347	162.47
725.534	187.05
725.72	254.63
725.907	156.33
726.094	258.73
726.28	121.51
726.467	201.38
726.653	141.99
726.84	232.1
727.027	283.3
727.213	170.66
727.4	217.77
727.586	221.86
727.773	238.25
727.959	119.46
728.145	238.25
728.332	174.76
728.518	109.22
728.705	264.87
728.891	287.4
729.077	207.53
729.264	58.03
729.45	209.58
729.636	217.77
729.823	201.38
730.009	285.35
730.195	264.87
730.382	248.49
730.568	78.51
730.754	232.1
730.94	316.07
731.126	209.58
731.313	246.44
731.499	215.72
731.685	256.68
731.871	283.3
732.057	223.91
732.243	324.26
732.429	236.2
732.615	414.37
732.801	268.97
732.987	162.47
733.173	254.63
733.359	217.77
733.545	303.78
733.731	266.92
733.917	332.45
734.103	225.96
734.289	236.2
734.475	148.14
734.661	385.7
734.847	164.52
735.033	242.34
735.219	311.97
735.404	172.71
735.59	213.67
735.776	228.01
735.962	238.25
736.148	217.77
736.333	201.38
736.519	238.25
736.705	248.49
736.89	213.67
737.076	185
737.262	117.42
737.447	191.14
737.633	182.95
737.819	352.93
738.004	195.24
738.19	158.38
738.375	277.16
738.561	256.68
738.747	246.44
738.932	133.8
739.118	322.21
739.303	275.11
739.489	293.54
739.674	170.66
739.859	135.85
740.045	316.07
740.23	240.29
740.416	105.13
740.601	238.25
740.786	191.14
740.972	166.57
741.157	191.14
741.342	182.95
741.528	228.01
741.713	340.65
741.898	187.05
742.084	228.01
742.269	180.9
742.454	223.91
742.639	305.83
742.824	223.91
743.01	322.21
743.195	266.92
743.38	199.34
743.565	240.29
743.75	246.44
743.935	289.45
744.12	260.77
744.305	178.86
744.49	207.53
744.675	158.38
744.86	285.35
745.045	279.21
745.23	197.29
745.415	127.66
745.6	330.41
745.785	219.82
745.97	283.3
746.155	256.68
746.34	287.4
746.525	176.81
746.71	250.53
746.895	101.03
747.079	144.04
747.264	230.06
747.449	285.35
747.634	182.95
747.819	236.2
748.003	172.71
748.188	94.89
748.373	342.69
748.557	215.72
748.742	279.21
748.927	129.7
749.111	166.57
749.296	92.84
749.481	213.67
749.665	176.81
749.85	150.18
750.034	205.48
750.219	213.67
750.404	154.28
750.588	160.42
750.773	137.9
750.957	96.94
751.141	238.25
751.326	258.73
751.51	164.52
751.695	139.94
751.879	109.22
752.064	328.36
752.248	84.65
752.432	307.88
752.617	246.44
752.801	309.93
752.985	123.56
753.17	260.77
753.354	217.77
753.538	80.55
753.722	121.51
753.907	139.94
754.091	62.12
754.275	250.53
754.459	90.79
754.643	105.13
754.828	182.95
755.012	223.91
755.196	103.08
755.38	185
755.564	119.46
755.748	137.9
755.932	174.76
756.116	242.34
756.3	193.19
756.484	98.99
756.668	141.99
756.852	86.7
757.036	164.52
757.22	191.14
757.404	131.75
757.588	88.75
757.772	137.9
757.956	113.32
758.14	225.96
758.323	88.75
758.507	70.31
758.691	103.08
758.875	152.23
759.059	189.1
759.242	17.07
759.426	176.81
759.61	94.89
759.794	12.97
759.977	232.1
760.161	424.61
760.345	176.81
760.528	225.96
760.712	133.8
760.895	174.76
761.079	107.18
761.263	84.65
761.446	41.64
761.63	141.99
761.813	160.42
761.997	17.07
762.18	62.12
762.364	162.47
762.547	39.59
762.731	64.17
762.914	64.17
763.098	23.21
763.281	25.26
763.464	66.22
763.648	141.99
763.831	47.79
764.015	96.94
764.198	168.62
764.381	49.83
764.564	70.31
764.748	178.86
764.931	111.27
765.114	45.74
765.297	43.69
765.481	84.65
765.664	43.69
765.847	51.88
766.03	189.1
766.213	113.32
766.397	101.03
766.58	64.17
766.763	139.94
766.946	70.31
767.129	45.74
767.312	41.64
767.495	45.74
767.678	41.64
767.861	127.66
768.044	41.64
768.227	103.08
768.41	6.83
768.593	107.18
768.776	129.7
768.959	51.88
769.142	115.37
769.324	27.31
769.507	53.93
769.69	96.94
769.873	-38.23
770.056	266.92
770.239	111.27
770.421	164.52
770.604	131.75
770.787	27.31
770.97	115.37
771.152	12.97
771.335	125.61
771.518	-77.14
771.7	182.95
771.883	109.22
772.066	115.37
772.248	133.8
772.431	154.28
772.613	139.94
772.796	88.75
772.978	158.38
773.161	131.75
773.343	2.73
773.526	31.4
773.708	-52.56
773.891	23.21
774.073	15.02
774.256	94.89
774.438	133.8
774.621	-27.99
774.803	82.6
774.985	43.69
775.168	125.61
775.35	47.79
775.532	84.65
775.715	-60.76
775.897	37.55
776.079	-17.75
776.261	43.69
776.444	-32.08
776.626	19.11
776.808	6.83
776.99	-64.85
777.173	58.03
777.355	76.46
777.537	187.05
777.719	-36.18
777.901	86.7
778.083	2.73
778.265	-40.28
778.447	78.51
778.629	-3.41
778.811	6.83
778.993	84.65
779.175	64.17
779.357	41.64
779.539	-107.86
779.721	8.87
779.903	60.07
780.085	-17.75
780.267	-5.46
780.449	41.64
780.631	90.79
780.812	133.8
780.994	35.5
781.176	-50.52
781.358	-13.65
781.54	25.26
781.721	90.79
781.903	158.38
782.085	53.93
782.267	113.32
782.448	19.11
782.63	10.92
782.812	12.97
782.993	29.35
783.175	84.65
783.357	-34.13
783.538	135.85
783.72	17.07
783.901	4.78
784.083	115.37
784.264	113.32
784.446	-97.62
784.627	45.74
784.809	105.13
784.99	45.74
785.172	43.69
785.353	25.26
785.535	8.87
785.716	-19.8
785.897	41.64
786.079	86.7
786.26	27.31
786.441	80.55
786.623	-97.62
786.804	-1.37
786.985	-3.41
787.167	98.99
787.348	10.92
787.529	51.88
787.71	117.42
787.891	86.7
788.073	-38.23
788.254	-68.95
788.435	129.7
788.616	74.41
788.797	-17.75
788.978	-1.37
789.159	-60.76
789.34	113.32
789.522	-17.75
789.703	-66.9
789.884	39.59
790.065	29.35
790.246	234.15
790.427	4.78
790.607	47.79
790.788	88.75
790.969	-105.81
791.15	49.83
791.331	-60.76
791.512	-27.99
791.693	-97.62
791.874	-60.76
792.054	139.94
792.235	17.07
792.416	-77.14
792.597	0.68
792.778	92.84
792.958	127.66
793.139	133.8
793.32	47.79
793.5	-58.71
793.681	53.93
793.862	98.99
794.042	31.4
794.223	-85.33
794.404	0.68
794.584	-50.52
794.765	66.22
794.945	-5.46
795.126	-19.8
795.306	53.93
795.487	-34.13
795.667	66.22
795.848	4.78
796.028	6.83
796.209	-17.75
796.389	70.31
796.57	-81.24
796.75	4.78
796.93	-30.04
797.111	-64.85
797.291	-21.85
797.471	78.51
797.652	8.87
797.832	-75.09
798.012	92.84
798.192	-71
798.373	-136.53
798.553	51.88
798.733	-48.47
798.913	19.11
799.093	-23.89
799.274	-38.23
799.454	111.27
799.634	74.41
799.814	80.55
799.994	111.27
800.174	146.09
800.354	-15.7
800.534	-89.43
800.714	84.65
800.894	-77.14
801.074	-40.28
801.254	17.07
801.434	115.37
801.614	-15.7
801.794	-46.42
801.974	1987.21
802.154	-1.37
802.334	29.35
802.514	-66.9
802.693	0.68
802.873	-52.56
803.053	146.09
803.233	17.07
803.413	94.89
803.592	-66.9
803.772	-58.71
803.952	12.97
804.131	-34.13
804.311	33.45
804.491	82.6
804.67	-3.41
804.85	-40.28
805.03	58.03
805.209	70.31
805.389	-79.19
805.568	-11.61
805.748	41.64
805.928	-30.04
806.107	-1.37
806.287	111.27
806.466	88.75
806.646	21.16
806.825	-21.85
807.004	6.83
807.184	-9.56
807.363	31.4
807.543	86.7
807.722	31.4
807.901	141.99
808.081	94.89
808.26	-124.24
808.439	10.92
808.619	17.07
808.798	-85.33
808.977	-1.37
809.156	98.99
809.336	-1.37
809.515	55.98
809.694	-56.66
809.873	-58.71
810.052	8.87
810.231	41.64
810.411	78.51
810.59	74.41
810.769	-38.23
810.948	33.45
811.127	-56.66
811.306	23.21
811.485	-71
811.664	123.56
811.843	-17.75
812.022	-58.71
812.201	-89.43
812.38	-95.57
812.559	21.16
812.737	6.83
812.916	-48.47
813.095	-27.99
813.274	-5.46
813.453	-9.56
813.632	23.21
813.811	53.93
813.989	-169.3
814.168	37.55
814.347	-17.75
814.526	-9.56
814.704	135.85
814.883	101.03
815.062	-15.7
815.24	17.07
815.419	-66.9
815.598	39.59
815.776	-54.61
815.955	6.83
816.133	-144.72
816.312	-21.85
816.49	-56.66
816.669	23.21
816.847	41.64
817.026	27.31
817.204	21.16
817.383	-44.37
817.561	-25.94
817.74	33.45
817.918	15.02
818.097	-13.65
818.275	-27.99
818.453	21.16
818.632	90.79
818.81	-23.89
818.988	-44.37
819.167	-13.65
819.345	0.68
819.523	-81.24
819.701	37.55
819.879	39.59
820.058	-48.47
820.236	80.55
820.414	31.4
820.592	-17.75
820.77	-32.08
820.948	-13.65
821.127	-32.08
821.305	10.92
821.483	-27.99
821.661	55.98
821.839	29.35
822.017	-85.33
822.195	-40.28
822.373	-15.7
822.551	0.68
822.729	55.98
822.907	43.69
823.085	25.26
823.262	27.31
823.44	-91.48
823.618	-46.42
823.796	10.92
823.974	-73.04
824.152	-44.37
824.329	-71
824.507	53.93
824.685	101.03
824.863	-62.8
825.04	0.68
825.218	37.55
825.396	-17.75
825.574	-50.52
825.751	37.55
825.929	33.45
826.107	-103.76
826.284	-48.47
826.462	0.68
826.639	-101.72
826.817	-73.04
826.994	-34.13
827.172	-73.04
827.349	154.28
827.527	-3.41
827.704	-48.47
827.882	21.16
828.059	19.11
828.237	-27.99
828.414	39.59
828.591	-79.19
828.769	41.64
828.946	-68.95
829.124	37.55
829.301	131.75
829.478	-40.28
829.655	55.98
829.833	2.73
830.01	-89.43
830.187	41.64
830.364	-17.75
830.542	41.64
830.719	92.84
830.896	103.08
831.073	96.94
831.25	51.88
831.427	29.35
831.604	12.97
831.782	-75.09
831.959	6.83
832.136	-17.75
832.313	45.74
832.49	-38.23
832.667	-27.99
832.844	-36.18
833.021	117.42
833.198	2.73
833.374	-7.51
833.551	94.89
833.728	4.78
833.905	64.17
834.082	-118.1
834.259	68.27
834.436	27.31
834.612	-99.67
834.789	64.17
834.966	23.21
835.143	-19.8
835.319	-130.39
835.496	15.02
835.673	25.26
835.85	94.89
836.026	76.46
836.203	35.5
836.38	-138.58
836.556	-89.43
836.733	-62.8
836.909	117.42
837.086	-91.48
837.262	-116.05
837.439	-64.85
837.616	-42.32
837.792	-44.37
837.968	-9.56
838.145	-89.43
838.321	-30.04
838.498	96.94
838.674	23.21
838.851	55.98
839.027	-25.94
839.203	41.64
839.38	-13.65
839.556	-34.13
839.732	123.56
839.909	12.97
840.085	8.87
840.261	-68.95
840.437	47.79
840.614	-75.09
840.79	43.69
840.966	76.46
841.142	0.68
841.318	-118.1
841.494	25.26
841.671	45.74
841.847	-95.57
842.023	-21.85
842.199	41.64
842.375	92.84
842.551	-62.8
842.727	-87.38
842.903	123.56
843.079	-64.85
843.255	68.27
843.431	19.11
843.607	-46.42
843.783	-116.05
843.959	-36.18
844.134	-60.76
844.31	-34.13
844.486	4.78
844.662	-9.56
844.838	10.92
845.013	4.78
845.189	113.32
845.365	29.35
845.541	-46.42
845.716	35.5
845.892	72.36
846.068	-13.65
846.244	-17.75
846.419	-7.51
846.595	-34.13
846.77	-68.95
846.946	-56.66
847.122	-44.37
847.297	-11.61
847.473	125.61
847.648	-36.18
847.824	58.03
847.999	-91.48
848.175	-85.33
848.35	-3.41
848.526	68.27
848.701	47.79
848.876	60.07
849.052	94.89
849.227	-38.23
849.403	-25.94
849.578	-9.56
849.753	25.26
849.929	51.88
850.104	-44.37
850.279	-40.28
850.454	10.92
850.63	4.78
850.805	2.73
850.98	64.17
851.155	-34.13
851.33	19.11
851.505	-187.73
851.681	-25.94
851.856	-68.95
852.031	135.85
852.206	51.88
852.381	15.02
852.556	-40.28
852.731	76.46
852.906	105.13
853.081	53.93
853.256	-9.56
853.431	82.6
853.606	-130.39
853.781	-60.76
853.956	-138.58
854.131	25.26
854.305	-34.13
854.48	-48.47
854.655	2.73
854.83	-36.18
855.005	-42.32
855.18	-30.04
855.354	-48.47
855.529	-21.85
855.704	-46.42
855.879	4.78
856.053	-40.28
856.228	47.79
856.403	-56.66
856.577	19.11
856.752	-114
856.926	29.35
857.101	-52.56
857.276	-75.09
857.45	-9.56
857.625	72.36
857.799	15.02
857.974	-19.8
858.148	-136.53
858.323	43.69
858.497	-44.37
858.672	-34.13
858.846	-91.48
859.02	19.11
859.195	-144.72
859.369	-19.8
859.543	-7.51
859.718	12.97
859.892	6.83
860.066	-56.66
860.241	-87.38
860.415	-54.61
860.589	-9.56
860.763	-38.23
860.938	-52.56
861.112	96.94
861.286	-5.46
861.46	-3.41
861.634	41.64
861.808	96.94
861.982	-3.41
862.157	-132.44
862.331	4.78
862.505	-109.91
862.679	-101.72
862.853	0.68
863.027	12.97
863.201	193.19
863.375	-77.14
863.549	31.4
863.722	60.07
863.896	82.6
864.07	-87.38
864.244	-19.8
864.418	58.03
864.592	-46.42
864.766	29.35
864.939	4.78
865.113	-48.47
865.287	113.32
865.461	-60.76
865.634	-3.41
865.808	-15.7
865.982	-19.8
866.156	-91.48
866.329	-81.24
866.503	6.83
866.676	19.11
866.85	19.11
867.024	-87.38
867.197	62.12
867.371	-71
867.544	-46.42
867.718	-116.05
867.891	-5.46
868.065	-71
868.238	-27.99
868.412	25.26
868.585	47.79
868.759	-91.48
868.932	4.78
869.105	-134.48
869.279	0.68
869.452	-116.05
869.625	29.35
869.799	-48.47
869.972	-93.52
870.145	-13.65
870.319	76.46
870.492	-36.18
870.665	-42.32
870.838	-48.47
871.011	-167.25
871.185	-25.94
871.358	-5.46
871.531	139.94
871.704	-97.62
871.877	-1.37
872.05	-30.04
872.223	-81.24
872.396	23.21
872.569	37.55
872.742	-32.08
872.915	58.03
873.088	-52.56
873.261	-52.56
873.434	60.07
873.607	-60.76
873.78	66.22
873.953	-50.52
874.126	-38.23
874.299	-40.28
874.471	-54.61
874.644	-71
874.817	62.12
874.99	193.19
875.163	-62.8
875.335	-30.04
875.508	-21.85
875.681	115.37
875.853	15.02
876.026	-85.33
876.199	35.5
876.371	-13.65
876.544	-30.04
876.717	35.5
876.889	-3.41
877.062	31.4
877.234	-32.08
877.407	-38.23
877.579	8.87
877.752	12.97
877.924	29.35
878.097	17.07
878.269	12.97
878.442	-3.41
878.614	39.59
878.786	55.98
878.959	45.74
879.131	-64.85
879.303	-142.68
879.476	17.07
879.648	119.46
879.82	-27.99
879.993	-60.76
880.165	-25.94
880.337	-73.04
880.509	-75.09
880.681	-30.04
880.854	-56.66
881.026	53.93
881.198	123.56
881.37	2.73
881.542	-32.08
881.714	-36.18
881.886	-13.65
882.058	4.78
882.23	-52.56
882.402	-48.47
882.574	-9.56
882.746	78.51
882.918	141.99
883.09	53.93
883.262	-13.65
883.434	-23.89
883.606	-128.34
883.778	-15.7
883.95	51.88
884.122	19.11
884.293	103.08
884.465	17.07
884.637	127.66
884.809	-17.75
884.98	-38.23
885.152	8.87
885.324	41.64
885.496	-85.33
885.667	-27.99
885.839	-7.51
886.011	33.45
886.182	45.74
886.354	129.7
886.525	12.97
886.697	-73.04
886.869	-136.53
887.04	21.16
887.212	86.7
887.383	70.31
887.555	-36.18
887.726	-81.24
887.897	-101.72
888.069	-40.28
888.24	25.26
888.412	-58.71
888.583	-46.42
888.754	21.16
888.926	-75.09
889.097	-73.04
889.268	-148.82
889.44	-109.91
889.611	-97.62
889.782	-40.28
889.953	-21.85
890.125	64.17
890.296	-64.85
890.467	-52.56
890.638	-91.48
890.809	-19.8
890.98	-122.2
891.151	-68.95
891.323	150.18
891.494	-103.76
891.665	-75.09
891.836	-36.18
892.007	0.68
892.178	70.31
892.349	-9.56
892.52	-54.61
892.691	-21.85
892.862	-50.52
893.032	-157.01
893.203	-95.57
893.374	10.92
893.545	86.7
893.716	-32.08
893.887	37.55
894.057	-68.95
894.228	-21.85
894.399	-103.76
894.57	90.79
894.74	-36.18
894.911	0.68
895.082	-64.85
895.253	-42.32
895.423	-68.95
895.594	-34.13
895.764	0.68
895.935	-109.91
896.106	-32.08
896.276	-64.85
896.447	53.93
896.617	-56.66
896.788	19.11
896.958	-11.61
897.129	-75.09
897.299	-9.56
897.47	88.75
897.64	27.31
897.81	-9.56
897.981	41.64
898.151	-36.18
898.322	41.64
898.492	62.12
898.662	-56.66
898.832	-87.38
899.003	-11.61
899.173	4.78
899.343	-27.99
899.513	-15.7
