Data from USB4F104151__153__11-04-30-238.txt Node

Date: Wed Feb 26 11:04:30 EST 2025
User: louis
Spectrometer: USB4F10415
Trigger mode: 4
Integration Time (sec): 1.000000E-1
Scans to average: 1
Electric dark correction enabled: true
Nonlinearity correction enabled: false
Boxcar width: 0
XAxis mode: Wavelengths
Number of Pixels in Spectrum: 3648
>>>>>Begin Spectral Data<<<<<
178.204	-464.38
178.424	-464.38
178.644	-464.38
178.864	-460.28
179.084	-396.79
179.304	-9.73
179.524	-5.63
179.744	14.85
179.964	29.18
180.184	-36.35
180.404	-7.68
180.624	14.85
180.844	20.99
181.064	-69.12
181.283	92.67
181.503	-65.02
181.723	20.99
181.943	-108.03
182.163	119.29
182.383	-99.84
182.602	53.76
182.822	57.86
183.042	41.47
183.262	-1.54
183.482	-24.06
183.701	2.56
183.921	64
184.141	-114.17
184.361	64
184.58	-30.21
184.8	-40.45
185.02	-17.92
185.239	80.38
185.459	115.2
185.679	98.81
185.898	-62.98
186.118	49.66
186.338	12.8
186.557	2.56
186.777	-11.78
186.997	2.56
187.216	-99.84
187.436	131.58
187.655	57.86
187.875	109.05
188.095	27.14
188.314	119.29
188.534	111.1
188.753	-73.21
188.973	55.81
189.192	100.86
189.412	43.52
189.631	-3.58
189.851	-22.02
190.07	111.1
190.29	-42.5
190.509	-58.88
190.729	41.47
190.948	150.01
191.168	248.32
191.387	109.05
191.607	-38.4
191.826	16.9
192.045	-5.63
192.265	-52.74
192.484	72.19
192.704	-13.82
192.923	-34.3
193.142	164.35
193.362	131.58
193.581	29.18
193.8	70.14
194.02	29.18
194.239	10.75
194.458	78.33
194.678	-1.54
194.897	-62.98
195.116	86.53
195.335	23.04
195.555	61.95
195.774	12.8
195.993	113.15
196.212	-83.45
196.432	35.33
196.651	-87.55
196.87	55.81
197.089	180.73
197.308	53.76
197.528	-11.78
197.747	-15.87
197.966	86.53
198.185	70.14
198.404	-30.21
198.623	49.66
198.842	133.63
199.062	25.09
199.281	78.33
199.5	-42.5
199.719	70.14
199.938	43.52
200.157	82.43
200.376	152.06
200.595	145.92
200.814	-3.58
201.033	-71.17
201.252	135.68
201.471	31.23
201.69	121.34
201.909	-22.02
202.128	57.86
202.347	35.33
202.566	-42.5
202.785	-71.17
203.004	-19.97
203.223	195.07
203.442	-13.82
203.661	-38.4
203.879	41.47
204.098	131.58
204.317	-13.82
204.536	90.62
204.755	115.2
204.974	86.53
205.193	-26.11
205.411	66.05
205.63	86.53
205.849	96.77
206.068	23.04
206.287	-52.74
206.505	47.62
206.724	35.33
206.943	-34.3
207.162	66.05
207.381	29.18
207.599	0.51
207.818	27.14
208.037	-1.54
208.255	61.95
208.474	-42.5
208.693	57.86
208.911	-52.74
209.13	70.14
209.349	37.38
209.567	86.53
209.786	39.42
210.005	133.63
210.223	49.66
210.442	-67.07
210.661	64
210.879	25.09
211.098	31.23
211.316	4.61
211.535	45.57
211.753	-1.54
211.972	76.29
212.191	-19.97
212.409	4.61
212.628	109.05
212.846	-46.59
213.065	18.94
213.283	94.72
213.502	31.23
213.72	10.75
213.938	37.38
214.157	-67.07
214.375	115.2
214.594	-1.54
214.812	80.38
215.031	-48.64
215.249	-7.68
215.467	18.94
215.686	70.14
215.904	33.28
216.122	43.52
216.341	76.29
216.559	76.29
216.778	76.29
216.996	76.29
217.214	4.61
217.432	2.56
217.651	-108.03
217.869	18.94
218.087	39.42
218.306	-9.73
218.524	-36.35
218.742	-54.78
218.96	8.7
219.179	6.66
219.397	64
219.615	256.51
219.833	96.77
220.051	-54.78
220.27	82.43
220.488	154.11
220.706	49.66
220.924	55.81
221.142	-24.06
221.36	102.91
221.578	113.15
221.796	-28.16
222.015	-54.78
222.233	25.09
222.451	160.25
222.669	-67.07
222.887	31.23
223.105	-54.78
223.323	20.99
223.541	-11.78
223.759	80.38
223.977	12.8
224.195	111.1
224.413	98.81
224.631	-9.73
224.849	-1.54
225.067	199.16
225.285	-1.54
225.503	-19.97
225.721	-148.99
225.939	78.33
226.157	16.9
226.375	166.4
226.592	14.85
226.81	-46.59
227.028	180.73
227.246	129.53
227.464	-26.11
227.682	137.73
227.9	41.47
228.117	55.81
228.335	27.14
228.553	107.01
228.771	41.47
228.989	70.14
229.206	78.33
229.424	-24.06
229.642	-28.16
229.86	37.38
230.077	51.71
230.295	-52.74
230.513	109.05
230.731	37.38
230.948	172.54
231.166	170.49
231.384	12.8
231.601	6.66
231.819	129.53
232.037	-48.64
232.254	-32.26
232.472	-79.36
232.689	-36.35
232.907	166.4
233.125	-1.54
233.342	10.75
233.56	-36.35
233.777	-28.16
233.995	2.56
234.213	31.23
234.43	47.62
234.648	2.56
234.865	-7.68
235.083	27.14
235.3	2.56
235.518	141.82
235.735	53.76
235.953	27.14
236.17	57.86
236.388	61.95
236.605	39.42
236.822	170.49
237.04	92.67
237.257	51.71
237.475	0.51
237.692	-15.87
237.909	88.57
238.127	-30.21
238.344	72.19
238.562	25.09
238.779	-15.87
238.996	-91.65
239.214	14.85
239.431	70.14
239.648	23.04
239.865	49.66
240.083	86.53
240.3	-32.26
240.517	-28.16
240.735	55.81
240.952	80.38
241.169	41.47
241.386	125.44
241.603	68.09
241.821	-83.45
242.038	145.92
242.255	113.15
242.472	-60.93
242.689	109.05
242.907	55.81
243.124	39.42
243.341	33.28
243.558	-36.35
243.775	-34.3
243.992	-69.12
244.209	158.21
244.426	113.15
244.643	41.47
244.86	-60.93
245.078	141.82
245.295	64
245.512	12.8
245.729	0.51
245.946	107.01
246.163	-26.11
246.38	29.18
246.597	70.14
246.814	59.9
247.031	-34.3
247.248	53.76
247.464	82.43
247.681	68.09
247.898	55.81
248.115	2.56
248.332	-87.55
248.549	64
248.766	174.59
248.983	102.91
249.2	80.38
249.417	88.57
249.633	-7.68
249.85	72.19
250.067	14.85
250.284	61.95
250.501	51.71
250.717	92.67
250.934	-67.07
251.151	29.18
251.368	-69.12
251.585	90.62
251.801	57.86
252.018	-7.68
252.235	98.81
252.451	-19.97
252.668	33.28
252.885	123.39
253.102	10.75
253.318	6.66
253.535	-15.87
253.752	-52.74
253.968	100.86
254.185	-44.54
254.401	-1.54
254.618	129.53
254.835	-48.64
255.051	92.67
255.268	55.81
255.484	39.42
255.701	-93.69
255.917	35.33
256.134	-44.54
256.351	45.57
256.567	-62.98
256.784	29.18
257	-69.12
257.217	113.15
257.433	49.66
257.65	-28.16
257.866	119.29
258.082	-97.79
258.299	-11.78
258.515	-22.02
258.732	-11.78
258.948	-46.59
259.165	2.56
259.381	43.52
259.597	72.19
259.814	-22.02
260.03	29.18
260.246	-11.78
260.463	51.71
260.679	59.9
260.895	8.7
261.112	53.76
261.328	70.14
261.544	-52.74
261.761	113.15
261.977	-26.11
262.193	-40.45
262.409	86.53
262.626	90.62
262.842	-42.5
263.058	31.23
263.274	107.01
263.49	49.66
263.707	37.38
263.923	35.33
264.139	-89.6
264.355	20.99
264.571	76.29
264.787	41.47
265.004	160.25
265.22	23.04
265.436	-58.88
265.652	-44.54
265.868	119.29
266.084	-36.35
266.3	-19.97
266.516	-87.55
266.732	29.18
266.948	35.33
267.164	-124.41
267.38	70.14
267.596	-28.16
267.812	156.16
268.028	-5.63
268.244	-34.3
268.46	31.23
268.676	-17.92
268.892	20.99
269.108	-19.97
269.324	-108.03
269.54	2.56
269.756	90.62
269.972	16.9
270.188	-5.63
270.403	-13.82
270.619	70.14
270.835	29.18
271.051	25.09
271.267	-28.16
271.483	-65.02
271.698	76.29
271.914	53.76
272.13	41.47
272.346	-3.58
272.562	37.38
272.777	172.54
272.993	-5.63
273.209	39.42
273.425	37.38
273.64	-15.87
273.856	119.29
274.072	16.9
274.287	39.42
274.503	84.48
274.719	-5.63
274.934	-48.64
275.15	-114.17
275.366	27.14
275.581	-65.02
275.797	23.04
276.012	-38.4
276.228	39.42
276.444	53.76
276.659	168.45
276.875	-30.21
277.09	-11.78
277.306	-17.92
277.521	18.94
277.737	-24.06
277.952	90.62
278.168	41.47
278.383	-36.35
278.599	-17.92
278.814	86.53
279.03	-48.64
279.245	164.35
279.461	78.33
279.676	16.9
279.892	4.61
280.107	-58.88
280.322	-26.11
280.538	-42.5
280.753	-30.21
280.969	8.7
281.184	109.05
281.399	139.77
281.615	150.01
281.83	139.77
282.045	-95.74
282.26	8.7
282.476	4.61
282.691	59.9
282.906	33.28
283.122	129.53
283.337	8.7
283.552	70.14
283.767	-1.54
283.983	72.19
284.198	20.99
284.413	90.62
284.628	-50.69
284.843	-15.87
285.058	78.33
285.274	18.94
285.489	12.8
285.704	178.69
285.919	27.14
286.134	-9.73
286.349	-11.78
286.564	-40.45
286.779	154.11
286.995	31.23
287.21	-112.13
287.425	39.42
287.64	-24.06
287.855	2.56
288.07	-40.45
288.285	88.57
288.5	0.51
288.715	45.57
288.93	10.75
289.145	-65.02
289.36	137.73
289.575	59.9
289.79	135.68
290.004	-50.69
290.219	141.82
290.434	12.8
290.649	-38.4
290.864	-15.87
291.079	12.8
291.294	29.18
291.509	-42.5
291.724	-5.63
291.938	-58.88
292.153	84.48
292.368	-17.92
292.583	160.25
292.798	43.52
293.012	20.99
293.227	127.49
293.442	-5.63
293.657	45.57
293.871	111.1
294.086	-28.16
294.301	152.06
294.516	109.05
294.73	43.52
294.945	6.66
295.16	-3.58
295.374	88.57
295.589	121.34
295.804	8.7
296.018	64
296.233	88.57
296.447	94.72
296.662	-62.98
296.877	104.96
297.091	68.09
297.306	82.43
297.52	0.51
297.735	53.76
297.949	174.59
298.164	27.14
298.378	-13.82
298.593	-7.68
298.807	-1.54
299.022	55.81
299.236	129.53
299.451	-58.88
299.665	-30.21
299.88	33.28
300.094	23.04
300.309	90.62
300.523	55.81
300.737	43.52
300.952	39.42
301.166	-22.02
301.381	-103.93
301.595	43.52
301.809	-26.11
302.024	-22.02
302.238	-56.83
302.452	168.45
302.667	8.7
302.881	147.97
303.095	129.53
303.309	88.57
303.524	-30.21
303.738	-15.87
303.952	-22.02
304.166	0.51
304.381	-169.47
304.595	147.97
304.809	-50.69
305.023	6.66
305.237	-58.88
305.452	-58.88
305.666	51.71
305.88	78.33
306.094	57.86
306.308	43.52
306.522	20.99
306.736	88.57
306.95	74.24
307.164	-1.54
307.379	27.14
307.593	152.06
307.807	39.42
308.021	100.86
308.235	47.62
308.449	-52.74
308.663	-42.5
308.877	164.35
309.091	8.7
309.305	39.42
309.519	-83.45
309.733	27.14
309.947	-134.65
310.161	64
310.374	139.77
310.588	104.96
310.802	-71.17
311.016	64
311.23	84.48
311.444	-42.5
311.658	47.62
311.872	92.67
312.085	186.88
312.299	107.01
312.513	131.58
312.727	33.28
312.941	-24.06
313.154	23.04
313.368	-48.64
313.582	4.61
313.796	96.77
314.009	35.33
314.223	80.38
314.437	4.61
314.651	78.33
314.864	-13.82
315.078	-58.88
315.292	-11.78
315.505	-11.78
315.719	100.86
315.933	66.05
316.146	6.66
316.36	-34.3
316.573	125.44
316.787	61.95
317.001	90.62
317.214	-36.35
317.428	72.19
317.641	-118.27
317.855	-3.58
318.068	59.9
318.282	4.61
318.495	150.01
318.709	45.57
318.922	25.09
319.136	104.96
319.349	125.44
319.563	-34.3
319.776	2.56
319.99	-32.26
320.203	96.77
320.417	61.95
320.63	98.81
320.843	195.07
321.057	90.62
321.27	-136.7
321.483	109.05
321.697	166.4
321.91	-9.73
322.124	86.53
322.337	47.62
322.55	-36.35
322.763	14.85
322.977	12.8
323.19	6.66
323.403	14.85
323.617	55.81
323.83	84.48
324.043	57.86
324.256	27.14
324.469	-40.45
324.683	82.43
324.896	-15.87
325.109	49.66
325.322	23.04
325.535	41.47
325.748	61.95
325.962	-42.5
326.175	23.04
326.388	41.47
326.601	37.38
326.814	31.23
327.027	31.23
327.24	115.2
327.453	-24.06
327.666	109.05
327.879	78.33
328.092	68.09
328.305	70.14
328.518	10.75
328.731	-15.87
328.944	18.94
329.157	47.62
329.37	23.04
329.583	141.82
329.796	111.1
330.009	-50.69
330.222	43.52
330.435	117.25
330.648	-17.92
330.861	92.67
331.073	0.51
331.286	86.53
331.499	86.53
331.712	-1.54
331.925	-5.63
332.138	94.72
332.35	72.19
332.563	-32.26
332.776	98.81
332.989	-69.12
333.202	20.99
333.414	-50.69
333.627	82.43
333.84	-28.16
334.053	86.53
334.265	-52.74
334.478	-36.35
334.691	25.09
334.903	25.09
335.116	33.28
335.329	-3.58
335.541	-19.97
335.754	86.53
335.966	18.94
336.179	27.14
336.392	-11.78
336.604	8.7
336.817	174.59
337.029	31.23
337.242	68.09
337.454	29.18
337.667	51.71
337.88	115.2
338.092	0.51
338.305	76.29
338.517	-52.74
338.729	141.82
338.942	47.62
339.154	-67.07
339.367	-17.92
339.579	135.68
339.792	-52.74
340.004	94.72
340.217	-17.92
340.429	57.86
340.641	-81.41
340.854	-62.98
341.066	-19.97
341.278	104.96
341.491	129.53
341.703	4.61
341.915	-73.21
342.128	45.57
342.34	16.9
342.552	-46.59
342.764	49.66
342.977	-36.35
343.189	92.67
343.401	68.09
343.613	20.99
343.826	49.66
344.038	-34.3
344.25	115.2
344.462	-13.82
344.674	-17.92
344.886	-48.64
345.099	25.09
345.311	49.66
345.523	10.75
345.735	-91.65
345.947	35.33
346.159	84.48
346.371	-1.54
346.583	104.96
346.795	43.52
347.007	-5.63
347.219	33.28
347.431	-34.3
347.643	27.14
347.855	-97.79
348.067	147.97
348.279	8.7
348.491	35.33
348.703	88.57
348.915	37.38
349.127	25.09
349.339	45.57
349.551	33.28
349.763	86.53
349.975	-58.88
350.187	61.95
350.399	174.59
350.61	70.14
350.822	-24.06
351.034	98.81
351.246	-34.3
351.458	37.38
351.669	109.05
351.881	102.91
352.093	129.53
352.305	129.53
352.517	27.14
352.728	92.67
352.94	45.57
353.152	59.9
353.363	-42.5
353.575	57.86
353.787	182.78
353.999	47.62
354.21	141.82
354.422	-46.59
354.633	-11.78
354.845	53.76
355.057	94.72
355.268	29.18
355.48	57.86
355.692	-105.98
355.903	23.04
356.115	-69.12
356.326	-58.88
356.538	176.64
356.749	59.9
356.961	156.16
357.172	-11.78
357.384	-46.59
357.595	147.97
357.807	66.05
358.018	-11.78
358.23	14.85
358.441	215.55
358.653	96.77
358.864	61.95
359.075	-5.63
359.287	70.14
359.498	133.63
359.709	16.9
359.921	39.42
360.132	-3.58
360.344	115.2
360.555	-67.07
360.766	31.23
360.977	90.62
361.189	94.72
361.4	-77.31
361.611	59.9
361.823	111.1
362.034	27.14
362.245	-22.02
362.456	-1.54
362.667	90.62
362.879	-95.74
363.09	123.39
363.301	31.23
363.512	0.51
363.723	-40.45
363.935	-58.88
364.146	33.28
364.357	20.99
364.568	66.05
364.779	-56.83
364.99	78.33
365.201	4.61
365.412	96.77
365.623	-85.5
365.834	20.99
366.045	2.56
366.256	16.9
366.467	29.18
366.678	31.23
366.889	12.8
367.1	-1.54
367.311	121.34
367.522	-34.3
367.733	66.05
367.944	119.29
368.155	-28.16
368.366	84.48
368.577	111.1
368.788	47.62
368.999	-34.3
369.209	23.04
369.42	158.21
369.631	268.8
369.842	111.1
370.053	-7.68
370.264	51.71
370.474	-15.87
370.685	66.05
370.896	-56.83
371.107	86.53
371.317	74.24
371.528	-15.87
371.739	90.62
371.95	2.56
372.16	39.42
372.371	-50.69
372.582	-30.21
372.792	18.94
373.003	53.76
373.214	33.28
373.424	59.9
373.635	20.99
373.846	94.72
374.056	-7.68
374.267	92.67
374.477	78.33
374.688	-40.45
374.898	18.94
375.109	80.38
375.319	82.43
375.53	162.3
375.74	27.14
375.951	0.51
376.161	80.38
376.372	131.58
376.582	-22.02
376.793	78.33
377.003	14.85
377.214	59.9
377.424	121.34
377.635	-38.4
377.845	31.23
378.055	168.45
378.266	-38.4
378.476	-19.97
378.686	31.23
378.897	12.8
379.107	123.39
379.317	107.01
379.528	16.9
379.738	156.16
379.948	-62.98
380.158	70.14
380.369	66.05
380.579	121.34
380.789	29.18
380.999	113.15
381.21	6.66
381.42	180.73
381.63	-52.74
381.84	86.53
382.05	20.99
382.261	158.21
382.471	143.87
382.681	-19.97
382.891	129.53
383.101	14.85
383.311	37.38
383.521	-56.83
383.731	80.38
383.941	135.68
384.151	20.99
384.361	51.71
384.571	80.38
384.781	4.61
384.991	193.02
385.201	205.31
385.411	64
385.621	94.72
385.831	39.42
386.041	-19.97
386.251	70.14
386.461	59.9
386.671	-42.5
386.881	49.66
387.091	-46.59
387.301	104.96
387.511	6.66
387.72	107.01
387.93	45.57
388.14	-136.7
388.35	12.8
388.56	113.15
388.769	59.9
388.979	31.23
389.189	55.81
389.399	92.67
389.609	45.57
389.818	94.72
390.028	53.76
390.238	61.95
390.447	2.56
390.657	68.09
390.867	55.81
391.076	-38.4
391.286	18.94
391.496	37.38
391.705	16.9
391.915	125.44
392.125	135.68
392.334	14.85
392.544	102.91
392.753	29.18
392.963	-44.54
393.172	18.94
393.382	10.75
393.591	143.87
393.801	-44.54
394.01	129.53
394.22	53.76
394.429	8.7
394.639	45.57
394.848	72.19
395.058	31.23
395.267	-15.87
395.477	66.05
395.686	64
395.895	121.34
396.105	117.25
396.314	-36.35
396.524	53.76
396.733	-1.54
396.942	45.57
397.152	86.53
397.361	80.38
397.57	57.86
397.78	111.1
397.989	55.81
398.198	102.91
398.407	-15.87
398.617	43.52
398.826	8.7
399.035	8.7
399.244	129.53
399.453	23.04
399.663	-11.78
399.872	18.94
400.081	-77.31
400.29	139.77
400.499	-38.4
400.708	129.53
400.917	-34.3
401.127	-19.97
401.336	-11.78
401.545	268.8
401.754	117.25
401.963	59.9
402.172	14.85
402.381	-22.02
402.59	-1.54
402.799	2.56
403.008	129.53
403.217	12.8
403.426	-17.92
403.635	-58.88
403.844	27.14
404.053	64
404.262	-13.82
404.471	176.64
404.68	96.77
404.888	-28.16
405.097	25.09
405.306	55.81
405.515	160.25
405.724	12.8
405.933	80.38
406.142	20.99
406.35	102.91
406.559	-7.68
406.768	4.61
406.977	127.49
407.185	53.76
407.394	102.91
407.603	29.18
407.812	100.86
408.02	80.38
408.229	135.68
408.438	115.2
408.646	-89.6
408.855	53.76
409.064	23.04
409.272	53.76
409.481	98.81
409.69	-50.69
409.898	-112.13
410.107	-26.11
410.315	88.57
410.524	10.75
410.733	27.14
410.941	-13.82
411.15	115.2
411.358	107.01
411.567	70.14
411.775	82.43
411.984	45.57
412.192	78.33
412.401	8.7
412.609	104.96
412.818	209.4
413.026	90.62
413.234	49.66
413.443	45.57
413.651	-11.78
413.86	-13.82
414.068	76.29
414.276	174.59
414.485	-62.98
414.693	227.84
414.901	88.57
415.11	-1.54
415.318	55.81
415.526	74.24
415.734	41.47
415.943	23.04
416.151	143.87
416.359	18.94
416.567	18.94
416.776	51.71
416.984	61.95
417.192	190.97
417.4	33.28
417.608	59.9
417.817	-38.4
418.025	119.29
418.233	166.4
418.441	49.66
418.649	68.09
418.857	-46.59
419.065	141.82
419.273	-44.54
419.481	55.81
419.689	74.24
419.897	-28.16
420.105	-3.58
420.313	66.05
420.521	92.67
420.729	78.33
420.937	8.7
421.145	-46.59
421.353	102.91
421.561	170.49
421.769	55.81
421.977	-71.17
422.185	100.86
422.393	2.56
422.601	139.77
422.809	29.18
423.017	45.57
423.224	27.14
423.432	78.33
423.64	16.9
423.848	117.25
424.056	-44.54
424.263	90.62
424.471	-52.74
424.679	174.59
424.887	90.62
425.094	160.25
425.302	55.81
425.51	-40.45
425.718	57.86
425.925	14.85
426.133	14.85
426.341	166.4
426.548	47.62
426.756	31.23
426.964	98.81
427.171	-17.92
427.379	41.47
427.586	20.99
427.794	188.93
428.001	131.58
428.209	90.62
428.417	188.93
428.624	94.72
428.832	121.34
429.039	129.53
429.247	72.19
429.454	117.25
429.662	193.02
429.869	119.29
430.076	115.2
430.284	96.77
430.491	195.07
430.699	168.45
430.906	162.3
431.114	82.43
431.321	209.4
431.528	92.67
431.736	49.66
431.943	158.21
432.15	141.82
432.358	186.88
432.565	215.55
432.772	6.66
432.979	160.25
433.187	170.49
433.394	270.84
433.601	152.06
433.808	256.51
434.016	225.79
434.223	285.18
434.43	113.15
434.637	131.58
434.844	272.89
435.052	293.37
435.259	260.6
435.466	195.07
435.673	240.12
435.88	363
436.087	326.14
436.294	289.28
436.501	324.09
436.708	195.07
436.915	258.56
437.122	383.48
437.329	268.8
437.537	190.97
437.743	291.32
437.95	420.35
438.157	395.77
438.364	412.15
438.571	358.91
438.778	434.68
438.985	420.35
439.192	412.15
439.399	449.02
439.606	440.83
439.813	543.22
440.02	614.9
440.227	604.66
440.433	492.02
440.64	528.89
440.847	524.79
441.054	598.52
441.261	709.11
441.467	602.61
441.674	645.62
441.881	780.79
442.088	643.57
442.294	786.93
442.501	786.93
442.708	786.93
442.914	795.12
443.121	848.37
443.328	932.34
443.534	975.35
443.741	999.92
443.948	903.67
444.154	1038.83
444.361	1079.79
444.568	1063.41
444.774	1114.61
444.981	993.78
445.187	1196.53
445.394	1133.04
445.6	1178.09
445.807	1260.01
446.013	1305.07
446.22	1260.01
446.426	1329.64
446.633	1513.96
446.839	1655.27
447.046	1464.81
447.252	1757.67
447.459	1675.75
447.665	1741.29
447.871	1796.58
448.078	1980.9
448.284	1884.64
448.491	2009.57
448.697	2171.36
448.903	2138.59
449.11	2222.56
449.316	2210.27
449.522	2398.68
449.728	2525.66
449.935	2605.53
450.141	2570.71
450.347	2843.09
450.553	2771.41
450.76	2777.56
450.966	3006.93
451.172	3109.33
451.378	3289.55
451.584	3316.17
451.791	3490.25
451.997	3508.68
452.203	3643.85
452.409	3826.12
452.615	4096.45
452.821	3912.13
453.027	4002.24
453.233	4475.32
453.44	4530.62
453.646	4624.83
453.852	4755.9
454.058	4882.87
454.264	5058.99
454.47	5464.49
454.676	5364.14
454.882	6007.2
455.088	5837.22
455.294	6103.46
455.5	6369.69
455.705	6797.72
455.911	6902.17
456.117	6963.61
456.323	7278.99
456.529	7315.86
456.735	7606.67
456.941	8089.99
457.147	8403.33
457.352	8630.65
457.558	8882.55
457.764	9544.05
457.97	9828.71
458.176	10273.12
458.381	10463.58
458.587	10797.4
458.793	11442.51
458.999	11211.09
459.204	12781.88
459.41	13132.09
459.616	12845.37
459.821	13832.49
460.027	14666.02
460.233	15155.48
460.438	15214.87
460.644	15986.96
460.85	16271.62
461.055	16969.98
461.261	17572.08
461.466	17101.05
461.672	17524.98
461.878	19681.49
462.083	19405.02
462.289	19908.82
462.494	20625.61
462.7	21029.06
462.905	20961.47
463.111	22724.77
463.316	23896.21
463.522	24414.35
463.727	25206.91
463.932	26263.66
464.138	26953.83
464.343	28119.12
464.549	28215.38
464.754	30437.42
464.959	31336.48
465.165	31485.98
465.37	31107.11
465.575	31520.8
465.781	33392.64
465.986	34324.47
466.191	33808.38
466.397	33972.22
466.602	33419.27
466.807	35426.28
467.012	35809.25
467.218	36761.55
467.423	36507.6
467.628	37910.46
467.833	39964.57
468.038	38746.03
468.244	38320.06
468.449	40189.85
468.654	39194.54
468.859	39112.62
469.064	39155.63
469.269	38064.06
469.474	38524.85
469.679	39710.63
469.885	38109.11
470.09	39151.53
470.295	39325.61
470.5	38057.92
470.705	38641.59
470.91	37441.48
471.115	37222.34
471.32	37836.73
471.525	37556.16
471.73	36339.67
471.935	36423.64
472.139	34600.94
472.344	34961.39
472.549	34715.63
472.754	33765.37
472.959	33046.54
473.164	31854.62
473.369	31268.9
473.574	32808.97
473.778	31778.84
473.983	31123.49
474.188	30791.72
474.393	29386.82
474.598	28993.61
474.802	27947.09
475.007	28366.93
475.212	27990.1
475.417	26620.01
475.621	26282.09
475.826	26323.05
476.031	25921.65
476.235	25049.22
476.44	25190.53
476.645	24424.59
476.849	23984.27
477.054	23933.07
477.259	23343.26
477.463	23054.5
477.668	22915.23
477.872	22671.53
478.077	22028.46
478.282	21301.43
478.486	21016.77
478.691	20832.45
478.895	20820.16
479.1	20545.73
479.304	20492.49
479.509	19970.26
479.713	20218.06
479.918	19458.26
480.122	19286.23
480.326	19124.44
480.531	19697.88
480.735	19077.34
480.94	18716.9
481.144	19521.75
481.348	18237.67
481.553	18307.3
481.757	17862.9
481.961	18063.6
482.166	17893.61
482.37	18112.75
482.574	17424.63
482.778	17766.64
482.983	17963.25
483.187	17322.23
483.391	17225.98
483.595	16806.14
483.8	17117.43
484.004	16937.21
484.208	17051.9
484.412	16587.01
484.616	16455.94
484.821	16218.38
485.025	15536.4
485.229	15880.46
485.433	15556.88
485.637	15509.78
485.841	15079.71
486.045	14887.2
486.249	14792.99
486.453	14457.12
486.657	14428.45
486.861	14246.18
487.065	13922.6
487.269	13500.72
487.473	13297.97
487.677	13605.17
487.881	13168.95
488.085	12753.21
488.289	12718.4
488.493	12405.06
488.697	12278.08
488.901	12210.5
489.105	11858.25
489.309	11751.76
489.512	11667.79
489.716	11282.77
489.92	11061.59
490.124	11049.3
490.328	10975.58
490.531	10451.3
490.735	10473.82
490.939	10166.63
491.143	9998.7
491.346	9673.07
491.55	9884.01
491.754	9623.92
491.958	9345.39
492.161	9056.63
492.365	9007.48
492.569	9054.58
492.772	8911.22
492.976	8728.95
493.18	8655.23
493.383	8714.62
493.587	8266.11
493.79	8413.57
493.994	8204.67
494.197	8315.27
494.401	8210.82
494.605	8069.51
494.808	7963.01
495.012	7926.15
495.215	7877
495.419	7713.16
495.622	7508.37
495.825	7596.43
496.029	7594.38
496.232	7623.05
496.436	7571.85
496.639	7922.06
496.843	7489.93
497.046	7285.14
497.249	7545.23
497.453	7582.09
497.656	7408.01
497.859	7557.52
498.063	7756.17
498.266	7606.67
498.469	7424.4
498.673	7616.91
498.876	7694.73
499.079	7745.93
499.282	7659.92
499.485	8159.62
499.689	7940.49
499.892	7958.92
500.095	7825.8
500.298	8112.52
500.501	7811.46
500.705	8182.15
500.908	8188.29
501.111	8161.67
501.314	8286.59
501.517	8481.15
501.72	8518.01
501.923	8749.43
502.126	8726.91
502.329	9087.35
502.532	8817.02
502.735	8948.09
502.938	9146.74
503.141	9030.01
503.344	9066.87
503.547	9634.16
503.75	9644.4
503.953	9558.38
504.156	9689.45
504.359	9957.74
504.562	10027.37
504.765	10424.67
504.968	10535.26
505.17	10527.07
505.373	10592.61
505.576	11057.5
505.779	11139.41
505.982	10975.58
506.185	11352.4
506.387	11460.95
506.59	11569.49
506.793	12005.7
506.996	12216.65
507.198	12554.56
507.401	12720.45
507.604	12962.11
507.807	13355.32
508.009	13494.58
508.212	13539.63
508.415	14074.15
508.617	14246.18
508.82	14481.7
509.022	14608.67
509.225	15329.56
509.428	15356.18
509.63	15802.64
509.833	15812.88
510.035	16568.58
510.238	16720.13
510.44	17127.67
510.643	17664.24
510.845	18012.4
511.048	18307.3
511.25	18782.43
511.453	19005.66
511.655	20123.85
511.858	20046.03
512.06	20635.85
512.262	20834.5
512.465	21063.87
512.667	21649.59
512.87	22280.36
513.072	22284.46
513.274	23333.02
513.477	23560.34
513.679	24127.63
513.881	25133.18
514.084	25485.44
514.286	25813.11
514.488	26275.95
514.69	27545.69
514.893	27973.72
515.095	28084.31
515.297	28977.22
515.499	29175.87
515.701	30111.8
515.904	30951.46
516.106	31082.53
516.308	31873.05
516.51	32321.55
516.712	33069.06
516.914	33548.29
517.116	34437.11
517.318	35114.98
517.52	35999.71
517.722	36138.97
517.925	37070.79
518.127	37681.09
518.329	38516.66
518.531	38424.5
518.733	39714.72
518.935	39999.39
519.136	40750.99
519.338	41545.61
519.54	41686.92
519.742	42637.17
519.944	43249.52
520.146	43794.28
520.348	44189.53
520.55	44838.74
520.752	45317.96
520.954	45903.68
521.155	46325.57
521.357	47068.98
521.559	47566.63
521.761	48647.96
521.963	48533.28
522.164	48834.33
522.366	49121.04
522.568	49805.06
522.77	50036.48
522.971	50685.69
523.173	50462.46
523.375	50851.58
523.576	51115.76
523.778	51148.53
523.98	51687.15
524.181	52051.69
524.383	52305.63
524.584	52424.42
524.786	52489.95
524.988	52602.59
525.189	52694.75
525.391	53075.67
525.592	53051.09
525.794	53143.25
525.995	52702.94
526.197	52518.62
526.398	52981.46
526.6	52547.29
526.801	52631.26
527.003	52344.55
527.204	52027.11
527.406	52854.49
527.607	51814.12
527.808	51928.81
528.01	50712.31
528.211	50470.65
528.412	51556.08
528.614	50562.81
528.815	50034.44
529.016	50421.5
529.218	49075.99
529.419	49506.06
529.62	48867.09
529.822	48410.4
530.023	47998.76
530.224	47425.32
530.425	47005.49
530.626	46276.41
530.828	45285.2
531.029	46223.17
531.23	45217.61
531.431	44365.66
531.632	44597.08
531.833	43855.71
532.035	43290.48
532.236	42960.75
532.437	42395.51
532.638	41797.51
532.839	41299.85
533.04	40781.71
533.241	40097.69
533.442	40038.3
533.643	39083.95
533.844	38821.81
534.045	38178.75
534.246	37316.55
534.447	36863.95
534.648	36272.09
534.849	36255.7
535.05	35708.9
535.251	35270.63
535.451	34885.61
535.652	34443.25
535.853	33990.65
536.054	33460.23
536.255	33247.24
536.456	32260.12
536.657	32454.67
536.857	31850.52
537.058	30961.7
537.259	31004.71
537.46	30357.55
537.66	29814.84
537.861	29720.63
538.062	29284.42
538.263	28876.87
538.463	28293.2
538.664	28295.25
538.865	27904.09
539.065	27744.34
539.266	27181.15
539.466	26962.02
539.667	26441.84
539.868	26617.96
540.068	25886.84
540.269	25561.21
540.469	25362.56
540.67	25190.53
540.87	24821.89
541.071	24408.2
541.271	24402.06
541.472	23986.32
541.672	23441.56
541.873	23234.72
542.073	22999.2
542.274	22716.58
542.474	22638.76
542.675	22540.46
542.875	22188.21
543.075	21887.15
543.276	21381.31
543.476	21665.97
543.676	20850.88
543.877	20777.15
544.077	21012.67
544.277	20437.19
544.478	20015.31
544.678	19919.06
544.878	19628.24
545.078	19874
545.279	19077.34
545.479	18831.58
545.679	18964.7
545.879	18600.16
546.079	18551.01
546.28	18297.06
546.48	18049.26
546.68	17977.58
546.88	17551.6
547.08	17379.57
547.28	17430.77
547.48	16906.49
547.68	17144.06
547.88	16675.07
548.081	16617.73
548.281	16134.41
548.481	15806.73
548.681	15720.72
548.881	15538.45
549.081	15542.55
549.28	14887.2
549.48	15018.27
549.68	14766.37
549.88	14620.96
550.08	14420.26
550.28	14412.07
550.48	14201.13
550.68	14012.71
550.88	13424.95
551.08	13441.33
551.279	13300.02
551.479	13025.59
551.679	12894.52
551.879	12851.52
552.079	12480.83
552.278	12253.51
552.478	12245.32
552.678	12106.06
552.878	11829.58
553.077	11639.12
553.277	11235.67
553.477	11299.16
553.676	11059.54
553.876	10817.88
554.076	10828.12
554.275	10817.88
554.475	10328.42
554.674	10398.05
554.874	9998.7
555.074	9810.28
555.273	9972.07
555.473	9650.54
555.672	9582.96
555.872	9097.59
556.071	9167.22
556.271	9150.84
556.47	8700.28
556.67	8679.8
556.869	8491.39
557.068	8620.41
557.268	8204.67
557.467	8274.31
557.667	8059.27
557.866	7860.62
558.065	7700.87
558.265	7600.52
558.464	7528.85
558.663	7512.46
558.863	7240.08
559.062	7369.1
559.261	6986.13
559.461	7123.35
559.66	6767
559.859	6736.28
560.058	6640.03
560.258	6457.76
560.457	6318.5
560.656	6422.94
560.855	6171.04
561.054	6304.16
561.253	6009.25
561.453	6113.7
561.652	5845.41
561.851	5908.9
562.05	5687.72
562.249	5505.45
562.448	5599.66
562.647	5427.63
562.846	5294.51
563.045	5423.53
563.244	5153.2
563.443	5282.22
563.642	4958.64
563.841	5046.71
564.04	4923.83
564.239	5093.81
564.438	4776.38
564.637	4661.69
564.836	4608.44
565.035	4542.91
565.234	4436.41
565.432	4450.75
565.631	4372.93
565.83	4379.07
566.029	4268.48
566.228	4135.36
566.427	4245.95
566.625	3920.32
566.824	4061.63
567.023	3963.33
567.222	3869.12
567.42	3723.72
567.619	3830.21
567.818	3707.34
568.016	3703.24
568.215	3541.45
568.414	3711.43
568.612	3504.59
568.811	3594.7
569.01	3430.86
569.208	3367.37
569.407	3383.76
569.605	3236.3
569.804	3166.67
570.002	3140.05
570.201	3207.63
570.4	3058.13
570.598	3041.75
570.797	2918.87
570.995	2894.29
571.193	2767.32
571.392	2806.23
571.59	2806.23
571.789	2750.93
571.987	2724.31
572.186	2832.85
572.384	2621.91
572.582	2669.02
572.781	2791.89
572.979	2494.94
573.177	2572.76
573.376	2519.51
573.574	2509.27
573.772	2501.08
573.971	2396.64
574.169	2259.42
574.367	2253.28
574.565	2187.74
574.763	2216.41
574.962	2140.64
575.16	2087.39
575.358	2005.47
575.556	2030.05
575.754	2132.45
575.952	2075.1
576.151	2032.1
576.349	1964.51
576.547	1812.96
576.745	1868.26
576.943	1921.51
577.141	1788.39
577.339	1878.5
577.537	1868.26
577.735	1772
577.933	1712.61
578.131	1518.06
578.329	1714.66
578.527	1802.72
578.725	1685.99
578.923	1466.86
579.121	1520.1
579.319	1442.28
579.516	1458.67
579.714	1749.48
579.912	1452.52
580.11	1346.03
580.308	1511.91
580.506	1448.43
580.704	1296.88
580.901	1260.01
581.099	1470.95
581.297	1380.84
581.495	1327.6
581.692	1225.2
581.89	1395.18
582.088	1233.39
582.285	1221.1
582.483	1235.44
582.681	1255.92
582.878	1030.64
583.076	1227.25
583.274	1174
583.471	1190.38
583.669	1096.18
583.866	969.2
584.064	983.54
584.262	1075.7
584.459	1040.88
584.657	961.01
584.854	1063.41
585.052	1061.36
585.249	1071.6
585.447	967.15
585.644	967.15
585.841	987.63
586.039	920.05
586.236	981.49
586.434	850.42
586.631	868.85
586.828	864.75
587.026	831.99
587.223	737.78
587.42	770.55
587.618	920.05
587.815	969.2
588.012	860.66
588.21	807.41
588.407	895.47
588.604	874.99
588.801	698.87
588.999	870.9
589.196	813.56
589.393	709.11
589.59	856.56
589.787	778.74
589.984	786.93
590.182	741.88
590.379	649.72
590.576	707.06
590.773	727.54
590.97	672.25
591.167	741.88
591.364	737.78
591.561	768.5
591.758	825.84
591.955	768.5
592.152	782.84
592.349	600.57
592.546	684.53
592.743	666.1
592.94	666.1
593.137	680.44
593.334	809.46
593.531	670.2
593.727	717.3
593.924	657.91
594.121	772.6
594.318	616.95
594.515	791.03
594.712	827.89
594.908	799.22
595.105	696.82
595.302	846.32
595.499	829.94
595.696	872.95
595.892	608.76
596.089	864.75
596.286	743.92
596.482	897.52
596.679	821.75
596.876	803.32
597.072	969.2
597.269	934.39
597.466	893.43
597.662	905.71
597.859	915.95
598.055	1087.98
598.252	1073.65
598.448	1092.08
598.645	1223.15
598.841	1255.92
599.038	1280.49
599.234	1348.08
599.431	1288.68
599.627	1311.21
599.824	1423.85
600.02	1477.1
600.217	1462.76
600.413	1470.95
600.609	1581.54
600.806	1923.55
601.002	1815.01
601.198	1616.36
601.395	1935.84
601.591	1948.13
601.787	1984.99
601.984	2206.17
602.18	2183.65
602.376	2294.24
602.572	2322.91
602.769	2562.52
602.965	2515.42
603.161	2619.86
603.357	2638.3
603.553	2800.09
603.75	2802.13
603.946	2892.24
604.142	3021.27
604.338	3193.3
604.534	3119.57
604.73	3320.27
604.926	3166.67
605.122	3500.49
605.318	3615.18
605.514	3817.93
605.71	3733.96
605.906	4047.3
606.102	4000.19
606.298	4213.18
606.494	4147.65
606.69	4583.87
606.886	4549.05
607.082	4583.87
607.278	4739.51
607.474	4878.77
607.67	5128.63
607.866	5167.54
608.062	5261.74
608.257	5462.44
608.453	5718.44
608.649	5927.33
608.845	5945.77
609.041	6058.4
609.236	6197.67
609.432	6492.57
609.628	6721.95
609.824	6754.71
610.019	6850.97
610.215	7252.37
610.411	7479.69
610.606	7727.5
610.802	7727.5
610.998	7795.08
611.193	8259.97
611.389	8423.81
611.584	8397.18
611.78	8554.88
611.976	8778.11
612.171	9429.36
612.367	9431.41
612.562	9728.36
612.758	9955.69
612.953	9982.31
613.149	10588.51
613.344	10709.34
613.539	11043.16
613.735	11178.33
613.93	11368.79
614.126	11845.96
614.321	12263.75
614.517	12476.74
614.712	12943.67
614.907	13046.07
615.103	13429.04
615.298	14090.54
615.493	13984.04
615.688	14420.26
615.884	15194.39
616.079	15255.83
616.274	15749.39
616.47	16052.49
616.665	16181.51
616.86	16904.45
617.055	17236.22
617.25	17627.38
617.445	18395.37
617.641	18594.02
617.836	18946.27
618.031	19411.16
618.226	20146.38
618.421	20373.71
618.616	20865.22
618.811	21346.49
619.006	22329.52
619.201	22085.81
619.396	22788.26
619.591	22806.69
619.786	23810.2
619.981	23931.03
620.176	24871.04
620.371	24696.97
620.566	25522.3
620.761	26318.96
620.956	26902.63
621.151	27084.9
621.346	27965.53
621.541	28260.43
621.735	29077.57
621.93	28889.16
622.125	30287.92
622.32	30066.74
622.515	30791.72
622.709	31617.05
622.904	32278.55
623.099	32514.06
623.294	33415.17
623.488	33515.52
623.683	34476.02
623.878	34641.9
624.072	35098.6
624.267	35545.06
624.462	36157.4
624.656	36636.62
624.851	37584.83
625.046	37842.88
625.24	38377.4
625.435	38440.89
625.629	39176.11
625.824	39710.63
626.018	40306.58
626.213	40030.11
626.407	41039.76
626.602	40857.49
626.796	41854.85
626.991	42463.1
627.185	42612.6
627.38	42598.26
627.574	42790.77
627.768	42684.28
627.963	43302.76
628.157	43220.84
628.352	43456.36
628.546	42927.98
628.74	43503.46
628.935	43171.69
629.129	43388.78
629.323	42590.07
629.517	42739.57
629.712	41863.04
629.906	41830.27
630.1	41342.86
630.294	41060.24
630.489	40550.29
630.683	40234.91
630.877	39165.87
631.071	38508.47
631.265	38258.62
631.459	37167.05
631.653	36265.94
631.848	35667.94
632.042	34228.21
632.236	34002.94
632.43	32616.46
632.624	32120.85
632.818	30701.61
633.012	29671.48
633.206	28618.83
633.4	28112.98
633.594	26976.36
633.788	26271.86
633.982	25450.62
634.176	24365.2
634.369	23140.51
634.563	22483.11
634.757	21412.03
634.951	20801.73
635.145	20338.89
635.339	19142.88
635.533	18356.46
635.726	17772.78
635.92	17004.8
636.114	16326.92
636.308	15393.05
636.501	14887.2
636.695	14479.65
636.889	13773.1
637.083	13140.28
637.276	12708.16
637.47	12149.06
637.664	11577.68
637.857	11262.29
638.051	10652
638.244	10494.3
638.438	9902.44
638.632	9593.2
638.825	8862.07
639.019	8821.11
639.212	8380.8
639.406	8194.43
639.599	7879.05
639.793	7498.13
639.986	6953.37
640.18	6871.45
640.373	6592.92
640.567	6246.82
640.76	6150.56
640.954	5874.09
641.147	5675.43
641.34	5392.81
641.534	5364.14
641.727	5112.24
641.92	4913.59
642.114	4780.47
642.307	4512.19
642.5	4430.27
642.694	4155.84
642.887	4024.77
643.08	3944.9
643.273	3787.21
643.467	3496.39
643.66	3361.23
643.853	3238.35
644.046	3178.96
644.239	3043.79
644.432	2992.59
644.626	2640.34
644.819	2732.5
645.012	2636.25
645.205	2626.01
645.398	2400.73
645.591	2253.28
645.784	2150.88
645.977	2187.74
646.17	2060.77
646.363	1851.88
646.556	1763.81
646.749	1823.2
646.942	1769.96
647.135	1767.91
647.328	1511.91
647.521	1571.3
647.714	1546.73
647.907	1405.42
648.099	1423.85
648.292	1475.05
648.485	1350.12
648.678	1262.06
648.871	1092.08
649.064	1264.11
649.256	1055.22
649.449	1104.37
649.642	928.24
649.835	979.44
650.027	854.51
650.22	985.58
650.413	938.48
650.605	961.01
650.798	831.99
650.991	801.27
651.183	758.26
651.376	782.84
651.568	795.12
651.761	623.09
651.954	752.12
652.146	621.05
652.339	780.79
652.531	723.44
652.724	604.66
652.916	461.3
653.109	418.3
653.301	635.38
653.494	627.19
653.686	553.46
653.879	590.33
654.071	453.11
654.263	399.87
654.456	453.11
654.648	522.74
654.84	498.17
655.033	363
655.225	442.87
655.417	326.14
655.61	451.07
655.802	424.44
655.994	463.35
656.186	371.19
656.379	492.02
656.571	274.94
656.763	322.04
656.955	262.65
657.148	289.28
657.34	418.3
657.532	315.9
657.724	248.32
657.916	289.28
658.108	342.52
658.3	279.04
658.492	233.98
658.684	195.07
658.876	264.7
659.068	195.07
659.26	166.4
659.452	197.12
659.644	240.12
659.836	438.78
660.028	248.32
660.22	217.6
660.412	223.74
660.604	190.97
660.796	219.64
660.988	293.37
661.18	272.89
661.372	291.32
661.563	141.82
661.755	176.64
661.947	131.58
662.139	178.69
662.331	133.63
662.522	160.25
662.714	145.92
662.906	51.71
663.097	158.21
663.289	104.96
663.481	27.14
663.673	143.87
663.864	102.91
664.056	201.21
664.247	76.29
664.439	258.56
664.631	164.35
664.822	195.07
665.014	145.92
665.205	143.87
665.397	158.21
665.588	113.15
665.78	70.14
665.971	162.3
666.163	88.57
666.354	147.97
666.546	-26.11
666.737	20.99
666.929	98.81
667.12	72.19
667.311	154.11
667.503	29.18
667.694	104.96
667.885	102.91
668.077	203.26
668.268	27.14
668.459	86.53
668.651	127.49
668.842	133.63
669.033	-15.87
669.224	90.62
669.416	287.23
669.607	68.09
669.798	27.14
669.989	156.16
670.18	49.66
670.371	195.07
670.563	59.9
670.754	188.93
670.945	113.15
671.136	211.45
671.327	-22.02
671.518	111.1
671.709	258.56
671.9	168.45
672.091	152.06
672.282	172.54
672.473	139.77
672.664	18.94
672.855	74.24
673.046	205.31
673.237	172.54
673.428	131.58
673.619	174.59
673.809	90.62
674	229.88
674.191	160.25
674.382	-46.59
674.573	147.97
674.764	121.34
674.954	147.97
675.145	14.85
675.336	2.56
675.527	35.33
675.717	8.7
675.908	94.72
676.099	35.33
676.289	80.38
676.48	2.56
676.671	64
676.861	53.76
677.052	178.69
677.243	41.47
677.433	76.29
677.624	113.15
677.814	109.05
678.005	162.3
678.195	176.64
678.386	2.56
678.576	123.39
678.767	29.18
678.957	68.09
679.148	193.02
679.338	213.5
679.529	168.45
679.719	49.66
679.909	201.21
680.1	217.6
680.29	180.73
680.481	35.33
680.671	164.35
680.861	176.64
681.052	64
681.242	141.82
681.432	139.77
681.622	174.59
681.813	12.8
682.003	125.44
682.193	82.43
682.383	154.11
682.573	33.28
682.764	82.43
682.954	100.86
683.144	217.6
683.334	123.39
683.524	16.9
683.714	180.73
683.904	94.72
684.094	133.63
684.284	96.77
684.474	156.16
684.664	166.4
684.854	297.47
685.044	72.19
685.234	70.14
685.424	211.45
685.614	55.81
685.804	246.27
685.994	172.54
686.184	66.05
686.374	135.68
686.564	135.68
686.753	55.81
686.943	8.7
687.133	137.73
687.323	107.01
687.513	92.67
687.702	66.05
687.892	80.38
688.082	209.4
688.272	119.29
688.461	111.1
688.651	279.04
688.841	186.88
689.03	193.02
689.22	119.29
689.41	180.73
689.599	160.25
689.789	150.01
689.979	231.93
690.168	119.29
690.358	123.39
690.547	100.86
690.737	158.21
690.926	170.49
691.116	137.73
691.305	193.02
691.495	217.6
691.684	49.66
691.874	168.45
692.063	125.44
692.252	176.64
692.442	199.16
692.631	190.97
692.82	129.53
693.01	156.16
693.199	145.92
693.388	170.49
693.578	121.34
693.767	160.25
693.956	188.93
694.146	127.49
694.335	227.84
694.524	96.77
694.713	268.8
694.902	94.72
695.092	170.49
695.281	115.2
695.47	145.92
695.659	160.25
695.848	141.82
696.037	131.58
696.226	180.73
696.415	90.62
696.604	203.26
696.793	180.73
696.982	141.82
697.171	180.73
697.36	98.81
697.549	123.39
697.738	33.28
697.927	131.58
698.116	78.33
698.305	188.93
698.494	150.01
698.683	135.68
698.872	233.98
699.061	74.24
699.25	170.49
699.438	160.25
699.627	82.43
699.816	260.6
700.005	16.9
700.193	104.96
700.382	133.63
700.571	154.11
700.76	94.72
700.948	233.98
701.137	268.8
701.326	133.63
701.514	94.72
701.703	174.59
701.892	190.97
702.08	307.71
702.269	119.29
702.457	80.38
702.646	109.05
702.834	188.93
703.023	162.3
703.212	209.4
703.4	205.31
703.589	152.06
703.777	82.43
703.965	4.61
704.154	145.92
704.342	59.9
704.531	119.29
704.719	188.93
704.907	188.93
705.096	51.71
705.284	51.71
705.472	78.33
705.661	121.34
705.849	190.97
706.037	256.51
706.226	158.21
706.414	238.08
706.602	76.29
706.79	172.54
706.979	94.72
707.167	92.67
707.355	10.75
707.543	193.02
707.731	162.3
707.919	152.06
708.107	78.33
708.296	64
708.484	82.43
708.672	186.88
708.86	135.68
709.048	109.05
709.236	41.47
709.424	154.11
709.612	180.73
709.8	10.75
709.988	70.14
710.176	162.3
710.364	236.03
710.551	143.87
710.739	72.19
710.927	92.67
711.115	80.38
711.303	139.77
711.491	276.99
711.679	147.97
711.866	240.12
712.054	139.77
712.242	139.77
712.43	145.92
712.617	64
712.805	299.52
712.993	125.44
713.181	104.96
713.368	172.54
713.556	90.62
713.744	57.86
713.931	289.28
714.119	150.01
714.306	80.38
714.494	64
714.682	145.92
714.869	10.75
715.057	139.77
715.244	41.47
715.432	217.6
715.619	139.77
715.807	197.12
715.994	35.33
716.182	86.53
716.369	158.21
716.556	188.93
716.744	35.33
716.931	129.53
717.119	215.55
717.306	203.26
717.493	160.25
717.681	121.34
717.868	129.53
718.055	225.79
718.242	139.77
718.43	186.88
718.617	242.17
718.804	84.48
718.991	244.22
719.179	143.87
719.366	209.4
719.553	186.88
719.74	156.16
719.927	141.82
720.114	166.4
720.301	84.48
720.488	98.81
720.676	98.81
720.863	260.6
721.05	223.74
721.237	170.49
721.424	246.27
721.611	137.73
721.798	188.93
721.985	125.44
722.172	180.73
722.358	102.91
722.545	252.41
722.732	213.5
722.919	197.12
723.106	188.93
723.293	172.54
723.48	215.55
723.667	115.2
723.853	297.47
724.04	100.86
724.227	203.26
724.414	176.64
724.6	211.45
724.787	313.85
724.974	264.7
725.161	156.16
725.347	80.38
725.534	209.4
725.72	164.35
725.907	213.5
726.094	227.84
726.28	178.69
726.467	133.63
726.653	123.39
726.84	289.28
727.027	301.56
727.213	104.96
727.4	207.36
727.586	182.78
727.773	162.3
727.959	227.84
728.145	145.92
728.332	129.53
728.518	143.87
728.705	236.03
728.891	229.88
729.077	190.97
729.264	182.78
729.45	162.3
729.636	193.02
729.823	119.29
730.009	199.16
730.195	100.86
730.382	242.17
730.568	111.1
730.754	209.4
730.94	195.07
731.126	182.78
731.313	219.64
731.499	141.82
731.685	225.79
731.871	244.22
732.057	178.69
732.243	207.36
732.429	170.49
732.615	266.75
732.801	203.26
732.987	203.26
733.173	182.78
733.359	139.77
733.545	193.02
733.731	145.92
733.917	309.76
734.103	186.88
734.289	223.74
734.475	72.19
734.661	287.23
734.847	78.33
735.033	244.22
735.219	254.46
735.404	154.11
735.59	145.92
735.776	223.74
735.962	221.69
736.148	340.47
736.333	256.51
736.519	229.88
736.705	137.73
736.89	229.88
737.076	233.98
737.262	113.15
737.447	92.67
737.633	145.92
737.819	299.52
738.004	168.45
738.19	184.83
738.375	219.64
738.561	201.21
738.747	160.25
738.932	88.57
739.118	328.19
739.303	238.08
739.489	254.46
739.674	188.93
739.859	219.64
740.045	219.64
740.23	260.6
740.416	64
740.601	274.94
740.786	207.36
740.972	119.29
741.157	104.96
741.342	104.96
741.528	133.63
741.713	289.28
741.898	147.97
742.084	190.97
742.269	152.06
742.454	231.93
742.639	254.46
742.824	225.79
743.01	195.07
743.195	317.95
743.38	199.16
743.565	215.55
743.75	205.31
743.935	178.69
744.12	211.45
744.305	104.96
744.49	182.78
744.675	172.54
744.86	184.83
745.045	264.7
745.23	172.54
745.415	156.16
745.6	236.03
745.785	172.54
745.97	236.03
746.155	227.84
746.34	303.61
746.525	195.07
746.71	276.99
746.895	43.52
747.079	78.33
747.264	127.49
747.449	274.94
747.634	274.94
747.819	225.79
748.003	242.17
748.188	88.57
748.373	117.25
748.557	168.45
748.742	205.31
748.927	184.83
749.111	119.29
749.296	145.92
749.481	115.2
749.665	115.2
749.85	64
750.034	199.16
750.219	217.6
750.404	184.83
750.588	147.97
750.773	102.91
750.957	92.67
751.141	195.07
751.326	182.78
751.51	53.76
751.695	137.73
751.879	137.73
752.064	248.32
752.248	164.35
752.432	291.32
752.617	229.88
752.801	160.25
752.985	115.2
753.17	256.51
753.354	88.57
753.538	129.53
753.722	96.77
753.907	115.2
754.091	47.62
754.275	143.87
754.459	16.9
754.643	55.81
754.828	123.39
755.012	135.68
755.196	72.19
755.38	172.54
755.564	156.16
755.748	111.1
755.932	137.73
756.116	125.44
756.3	186.88
756.484	113.15
756.668	170.49
756.852	64
757.036	68.09
757.22	109.05
757.404	80.38
757.588	70.14
757.772	160.25
757.956	150.01
758.14	156.16
758.323	84.48
758.507	137.73
758.691	33.28
758.875	205.31
759.059	188.93
759.242	51.71
759.426	90.62
759.61	86.53
759.794	90.62
759.977	119.29
760.161	213.5
760.345	272.89
760.528	168.45
760.712	137.73
760.895	156.16
761.079	49.66
761.263	31.23
761.446	53.76
761.63	70.14
761.813	168.45
761.997	45.57
762.18	25.09
762.364	125.44
762.547	6.66
762.731	20.99
762.914	78.33
763.098	16.9
763.281	125.44
763.464	47.62
763.648	121.34
763.831	29.18
764.015	6.66
764.198	164.35
764.381	98.81
764.564	109.05
764.748	72.19
764.931	129.53
765.114	37.38
765.297	137.73
765.481	66.05
765.664	51.71
765.847	37.38
766.03	129.53
766.213	86.53
766.397	35.33
766.58	-24.06
766.763	84.48
766.946	68.09
767.129	16.9
767.312	14.85
767.495	-89.6
767.678	49.66
767.861	76.29
768.044	90.62
768.227	39.42
768.41	80.38
768.593	74.24
768.776	41.47
768.959	20.99
769.142	98.81
769.324	80.38
769.507	90.62
769.69	-19.97
769.873	61.95
770.056	215.55
770.239	80.38
770.421	104.96
770.604	115.2
770.787	64
770.97	43.52
771.152	4.61
771.335	123.39
771.518	-46.59
771.7	53.76
771.883	203.26
772.066	-9.73
772.248	94.72
772.431	147.97
772.613	82.43
772.796	-3.58
772.978	104.96
773.161	195.07
773.343	125.44
773.526	16.9
773.708	-11.78
773.891	-40.45
774.073	64
774.256	68.09
774.438	150.01
774.621	31.23
774.803	92.67
774.985	37.38
775.168	113.15
775.35	-15.87
775.532	88.57
775.715	-15.87
775.897	76.29
776.079	2.56
776.261	88.57
776.444	39.42
776.626	14.85
776.808	-1.54
776.99	-60.93
777.173	78.33
777.355	59.9
777.537	23.04
777.719	25.09
777.901	37.38
778.083	12.8
778.265	-7.68
778.447	141.82
778.629	-28.16
778.811	45.57
778.993	127.49
779.175	86.53
779.357	86.53
779.539	-73.21
779.721	29.18
779.903	92.67
780.085	-7.68
780.267	-32.26
780.449	-17.92
780.631	135.68
780.812	137.73
780.994	100.86
781.176	-9.73
781.358	-5.63
781.54	-19.97
781.721	102.91
781.903	104.96
782.085	-30.21
782.267	145.92
782.448	-26.11
782.63	64
782.812	-7.68
782.993	-7.68
783.175	109.05
783.357	20.99
783.538	8.7
783.72	14.85
783.901	18.94
784.083	88.57
784.264	70.14
784.446	-30.21
784.627	-40.45
784.809	43.52
784.99	-5.63
785.172	35.33
785.353	-3.58
785.535	119.29
785.716	-1.54
785.897	-38.4
786.079	18.94
786.26	104.96
786.441	45.57
786.623	-50.69
786.804	-42.5
786.985	-26.11
787.167	16.9
787.348	43.52
787.529	-91.65
787.71	82.43
787.891	74.24
788.073	12.8
788.254	-146.94
788.435	109.05
788.616	-5.63
788.797	-101.89
788.978	-17.92
789.159	-22.02
789.34	104.96
789.522	20.99
789.703	-62.98
789.884	90.62
790.065	27.14
790.246	111.1
790.427	-7.68
790.607	57.86
790.788	20.99
790.969	-89.6
791.15	18.94
791.331	-42.5
791.512	-5.63
791.693	-75.26
791.874	-71.17
792.054	139.77
792.235	45.57
792.416	6.66
792.597	-28.16
792.778	-22.02
792.958	25.09
793.139	82.43
793.32	35.33
793.5	-120.32
793.681	86.53
793.862	84.48
794.042	-95.74
794.223	-54.78
794.404	-5.63
794.584	-34.3
794.765	-36.35
794.945	18.94
795.126	25.09
795.306	164.35
795.487	4.61
795.667	-108.03
795.848	43.52
796.028	76.29
796.209	23.04
796.389	31.23
796.57	-3.58
796.75	-42.5
796.93	47.62
797.111	-7.68
797.291	14.85
797.471	59.9
797.652	-13.82
797.832	-46.59
798.012	23.04
798.192	-65.02
798.373	-89.6
798.553	-69.12
798.733	66.05
798.913	-40.45
799.093	-58.88
799.274	-5.63
799.454	64
799.634	84.48
799.814	57.86
799.994	82.43
800.174	27.14
800.354	-42.5
800.534	-87.55
800.714	107.01
800.894	-46.59
801.074	-26.11
801.254	-67.07
801.434	31.23
801.614	-28.16
801.794	-87.55
801.974	1888.74
802.154	-17.92
802.334	59.9
802.514	43.52
802.693	-7.68
802.873	-44.54
803.053	70.14
803.233	45.57
803.413	12.8
803.592	-62.98
803.772	-22.02
803.952	-11.78
804.131	10.75
804.311	33.28
804.491	49.66
804.67	-103.93
804.85	-130.56
805.03	29.18
805.209	70.14
805.389	27.14
805.568	-38.4
805.748	-34.3
805.928	-24.06
806.107	16.9
806.287	-50.69
806.466	25.09
806.646	-15.87
806.825	16.9
807.004	14.85
807.184	23.04
807.363	33.28
807.543	8.7
807.722	-89.6
807.901	78.33
808.081	64
808.26	-110.08
808.439	45.57
808.619	-52.74
808.798	-65.02
808.977	20.99
809.156	76.29
809.336	-7.68
809.515	31.23
809.694	-48.64
809.873	-65.02
810.052	10.75
810.231	111.1
810.411	-9.73
810.59	66.05
810.769	-38.4
810.948	-11.78
811.127	-81.41
811.306	-83.45
811.485	4.61
811.664	137.73
811.843	4.61
812.022	6.66
812.201	-46.59
812.38	-26.11
812.559	-11.78
812.737	29.18
812.916	-69.12
813.095	-77.31
813.274	6.66
813.453	49.66
813.632	4.61
813.811	-42.5
813.989	-93.69
814.168	2.56
814.347	-1.54
814.526	-95.74
814.704	33.28
814.883	94.72
815.062	-32.26
815.24	16.9
815.419	-155.13
815.598	-30.21
815.776	-157.18
815.955	-46.59
816.133	-81.41
816.312	-3.58
816.49	-75.26
816.669	-77.31
816.847	27.14
817.026	-54.78
817.204	68.09
817.383	-24.06
817.561	-40.45
817.74	70.14
817.918	2.56
818.097	-38.4
818.275	-13.82
818.453	51.71
818.632	12.8
818.81	-85.5
818.988	4.61
819.167	0.51
819.345	-7.68
819.523	-44.54
819.701	-36.35
819.879	39.42
820.058	-9.73
820.236	-7.68
820.414	-3.58
820.592	-73.21
820.77	-54.78
820.948	-77.31
821.127	-54.78
821.305	23.04
821.483	-81.41
821.661	12.8
821.839	-15.87
822.017	12.8
822.195	-13.82
822.373	74.24
822.551	-26.11
822.729	14.85
822.907	39.42
823.085	25.09
823.262	-9.73
823.44	-46.59
823.618	29.18
823.796	-85.5
823.974	-26.11
824.152	-69.12
824.329	-34.3
824.507	-22.02
824.685	94.72
824.863	-11.78
825.04	-3.58
825.218	57.86
825.396	39.42
825.574	-34.3
825.751	-42.5
825.929	76.29
826.107	-60.93
826.284	14.85
826.462	14.85
826.639	-58.88
826.817	-183.81
826.994	4.61
827.172	-120.32
827.349	14.85
827.527	0.51
827.704	27.14
827.882	-46.59
828.059	-134.65
828.237	-62.98
828.414	57.86
828.591	-105.98
828.769	-22.02
828.946	-140.8
829.124	12.8
829.301	43.52
829.478	-30.21
829.655	12.8
829.833	-11.78
830.01	-165.37
830.187	-48.64
830.364	12.8
830.542	-60.93
830.719	98.81
830.896	-15.87
831.073	57.86
831.25	25.09
831.427	72.19
831.604	-56.83
831.782	2.56
831.959	49.66
832.136	0.51
832.313	-19.97
832.49	-91.65
832.667	-19.97
832.844	-36.35
833.021	64
833.198	8.7
833.374	-56.83
833.551	53.76
833.728	-124.41
833.905	84.48
834.082	-126.46
834.259	-9.73
834.436	33.28
834.612	-22.02
834.789	59.9
834.966	-34.3
835.143	-73.21
835.319	-118.27
835.496	82.43
835.673	-17.92
835.85	27.14
836.026	59.9
836.203	51.71
836.38	-87.55
836.556	-36.35
836.733	-48.64
836.909	47.62
837.086	-112.13
837.262	-134.65
837.439	14.85
837.616	-79.36
837.792	2.56
837.968	-7.68
838.145	-77.31
838.321	-73.21
838.498	27.14
838.674	61.95
838.851	66.05
839.027	-1.54
839.203	-56.83
839.38	-5.63
839.556	-17.92
839.732	43.52
839.909	-32.26
840.085	72.19
840.261	-103.93
840.437	4.61
840.614	-42.5
840.79	41.47
840.966	10.75
841.142	23.04
841.318	-108.03
841.494	66.05
841.671	47.62
841.847	-17.92
842.023	-87.55
842.199	0.51
842.375	51.71
842.551	-67.07
842.727	-93.69
842.903	90.62
843.079	-99.84
843.255	119.29
843.431	-7.68
843.607	-58.88
843.783	-153.09
843.959	-32.26
844.134	-67.07
844.31	43.52
844.486	-118.27
844.662	-97.79
844.838	-22.02
845.013	-19.97
845.189	82.43
845.365	64
845.541	-24.06
845.716	6.66
845.892	59.9
846.068	-58.88
846.244	-75.26
846.419	-30.21
846.595	-52.74
846.77	-44.54
846.946	57.86
847.122	-17.92
847.297	-30.21
847.473	129.53
847.648	-62.98
847.824	-42.5
847.999	-173.57
848.175	59.9
848.35	88.57
848.526	66.05
848.701	53.76
848.876	78.33
849.052	31.23
849.227	35.33
849.403	51.71
849.578	-30.21
849.753	-58.88
849.929	66.05
850.104	-120.32
850.279	57.86
850.454	-83.45
850.63	51.71
850.805	8.7
850.98	49.66
851.155	0.51
851.33	59.9
851.505	-120.32
851.681	45.57
851.856	-36.35
852.031	47.62
852.206	-5.63
852.381	-140.8
852.556	-54.78
852.731	4.61
852.906	39.42
853.081	41.47
853.256	90.62
853.431	-34.3
853.606	-9.73
853.781	-87.55
853.956	-112.13
854.131	61.95
854.305	51.71
854.48	-11.78
854.655	-75.26
854.83	-81.41
855.005	-32.26
855.18	-28.16
855.354	64
855.529	-7.68
855.704	-22.02
855.879	23.04
856.053	-65.02
856.228	-105.98
856.403	-114.17
856.577	12.8
856.752	-110.08
856.926	16.9
857.101	-1.54
857.276	-101.89
857.45	53.76
857.625	-17.92
857.799	-40.45
857.974	16.9
858.148	-116.22
858.323	-24.06
858.497	-75.26
858.672	-73.21
858.846	-34.3
859.02	-13.82
859.195	-65.02
859.369	-103.93
859.543	45.57
859.718	-77.31
859.892	0.51
860.066	12.8
860.241	-101.89
860.415	-56.83
860.589	-44.54
860.763	-24.06
860.938	25.09
861.112	-5.63
861.286	-1.54
861.46	23.04
861.634	-13.82
861.808	-52.74
861.982	-56.83
862.157	-132.61
862.331	0.51
862.505	-62.98
862.679	-177.66
862.853	-65.02
863.027	-112.13
863.201	125.44
863.375	-87.55
863.549	4.61
863.722	29.18
863.896	80.38
864.07	-56.83
864.244	57.86
864.418	66.05
864.592	82.43
864.766	-36.35
864.939	-17.92
865.113	-44.54
865.287	68.09
865.461	-1.54
865.634	-11.78
865.808	23.04
865.982	-58.88
866.156	-83.45
866.329	-105.98
866.503	45.57
866.676	53.76
866.85	64
867.024	-42.5
867.197	90.62
867.371	14.85
867.544	107.01
867.718	-32.26
867.891	20.99
868.065	-54.78
868.238	-17.92
868.412	4.61
868.585	-30.21
868.759	-77.31
868.932	-32.26
869.105	-112.13
869.279	-19.97
869.452	-83.45
869.625	51.71
869.799	-71.17
869.972	-101.89
870.145	10.75
870.319	41.47
870.492	-42.5
870.665	-50.69
870.838	-85.5
871.011	-165.37
871.185	-85.5
871.358	4.61
871.531	51.71
871.704	-1.54
871.877	49.66
872.05	-132.61
872.223	-120.32
872.396	-48.64
872.569	-40.45
872.742	-134.65
872.915	64
873.088	-48.64
873.261	-81.41
873.434	57.86
873.607	-46.59
873.78	64
873.953	-83.45
874.126	51.71
874.299	-30.21
874.471	-32.26
874.644	-110.08
874.817	-15.87
874.99	84.48
875.163	6.66
875.335	0.51
875.508	-3.58
875.681	109.05
875.853	6.66
876.026	-19.97
876.199	-24.06
876.371	4.61
876.544	47.62
876.717	-44.54
876.889	-11.78
877.062	20.99
877.234	-95.74
877.407	-17.92
877.579	-128.51
877.752	80.38
877.924	16.9
878.097	20.99
878.269	33.28
878.442	-3.58
878.614	-5.63
878.786	-24.06
878.959	-91.65
879.131	-52.74
879.303	-136.7
879.476	-11.78
879.648	39.42
879.82	-30.21
879.993	-36.35
880.165	-136.7
880.337	-48.64
880.509	-36.35
880.681	-132.61
880.854	-38.4
881.026	86.53
881.198	188.93
881.37	-32.26
881.542	-50.69
881.714	-24.06
881.886	-15.87
882.058	-54.78
882.23	-15.87
882.402	-89.6
882.574	74.24
882.746	66.05
882.918	90.62
883.09	70.14
883.262	-11.78
883.434	-77.31
883.606	-62.98
883.778	-58.88
883.95	37.38
884.122	0.51
884.293	-7.68
884.465	-36.35
884.637	0.51
884.809	-99.84
884.98	-40.45
885.152	-77.31
885.324	31.23
885.496	-50.69
885.667	-24.06
885.839	-3.58
886.011	92.67
886.182	20.99
886.354	55.81
886.525	8.7
886.697	35.33
886.869	-83.45
887.04	14.85
887.212	72.19
887.383	94.72
887.555	-32.26
887.726	-79.36
887.897	-32.26
888.069	20.99
888.24	53.76
888.412	-30.21
888.583	-40.45
888.754	-62.98
888.926	-169.47
889.097	-40.45
889.268	-73.21
889.44	43.52
889.611	-60.93
889.782	-48.64
889.953	-108.03
890.125	96.77
890.296	-52.74
890.467	-36.35
890.638	-77.31
890.809	16.9
890.98	-56.83
891.151	33.28
891.323	27.14
891.494	-15.87
891.665	-46.59
891.836	-38.4
892.007	-34.3
892.178	53.76
892.349	-11.78
892.52	-118.27
892.691	20.99
892.862	-62.98
893.032	-128.51
893.203	-32.26
893.374	-26.11
893.545	-28.16
893.716	-75.26
893.887	51.71
894.057	-7.68
894.228	8.7
894.399	-116.22
894.57	88.57
894.74	18.94
894.911	35.33
895.082	4.61
895.253	-56.83
895.423	31.23
895.594	80.38
895.764	-36.35
895.935	-87.55
896.106	-17.92
896.276	-32.26
896.447	-17.92
896.617	-136.7
896.788	-124.41
896.958	-91.65
897.129	-34.3
897.299	0.51
897.47	160.25
897.64	23.04
897.81	-5.63
897.981	-32.26
898.151	-24.06
898.322	37.38
898.492	64
898.662	-99.84
898.832	-83.45
899.003	41.47
899.173	23.04
899.343	-105.98
899.513	-30.21
