Data from USB4F104151__141__11-04-15-139.txt Node

Date: Wed Feb 26 11:04:15 EST 2025
User: louis
Spectrometer: USB4F10415
Trigger mode: 4
Integration Time (sec): 1.000000E-1
Scans to average: 1
Electric dark correction enabled: true
Nonlinearity correction enabled: false
Boxcar width: 0
XAxis mode: Wavelengths
Number of Pixels in Spectrum: 3648
>>>>>Begin Spectral Data<<<<<
178.204	-400.72
178.424	-400.72
178.644	-400.72
178.864	-376.14
179.084	-329.04
179.304	45.74
179.524	-3.41
179.744	76.46
179.964	-3.41
180.184	-19.8
180.404	39.59
180.624	23.21
180.844	-5.46
181.064	-58.71
181.283	10.92
181.503	-103.76
181.723	-1.37
181.943	-118.1
182.163	176.81
182.383	-9.56
182.602	88.75
182.822	129.7
183.042	150.18
183.262	-46.42
183.482	-1.37
183.701	23.21
183.921	33.45
184.141	-56.66
184.361	111.27
184.58	66.22
184.8	47.79
185.02	-60.76
185.239	88.75
185.459	82.6
185.679	162.47
185.898	-93.52
186.118	53.93
186.338	39.59
186.557	58.03
186.777	-58.71
186.997	25.26
187.216	25.26
187.436	135.85
187.655	103.08
187.875	107.18
188.095	15.02
188.314	185
188.534	117.42
188.753	-15.7
188.973	103.08
189.192	195.24
189.412	43.69
189.631	39.59
189.851	144.04
190.07	166.57
190.29	-91.48
190.509	15.02
190.729	43.69
190.948	107.18
191.168	264.87
191.387	103.08
191.607	4.78
191.826	105.13
192.045	86.7
192.265	47.79
192.484	49.83
192.704	129.7
192.923	-52.56
193.142	96.94
193.362	101.03
193.581	242.34
193.8	64.17
194.02	123.56
194.239	-25.94
194.458	182.95
194.678	107.18
194.897	-3.41
195.116	55.98
195.335	123.56
195.555	78.51
195.774	-23.89
195.993	109.22
196.212	39.59
196.432	-21.85
196.651	0.68
196.87	-46.42
197.089	295.59
197.308	47.79
197.528	139.94
197.747	-7.51
197.966	105.13
198.185	129.7
198.404	70.31
198.623	101.03
198.842	129.7
199.062	146.09
199.281	141.99
199.5	35.5
199.719	139.94
199.938	127.66
200.157	105.13
200.376	103.08
200.595	187.05
200.814	117.42
201.033	21.16
201.252	105.13
201.471	31.4
201.69	4.78
201.909	37.55
202.128	109.22
202.347	78.51
202.566	58.03
202.785	-114
203.004	23.21
203.223	287.4
203.442	74.41
203.661	-21.85
203.879	37.55
204.098	82.6
204.317	-34.13
204.536	80.55
204.755	111.27
204.974	88.75
205.193	-68.95
205.411	187.05
205.63	115.37
205.849	49.83
206.068	25.26
206.287	-34.13
206.505	115.37
206.724	23.21
206.943	-11.61
207.162	-1.37
207.381	121.51
207.599	66.22
207.818	98.99
208.037	-15.7
208.255	-7.51
208.474	-17.75
208.693	6.83
208.911	82.6
209.13	144.04
209.349	62.12
209.567	66.22
209.786	123.56
210.005	98.99
210.223	6.83
210.442	-54.61
210.661	144.04
210.879	103.08
211.098	55.98
211.316	88.75
211.535	127.66
211.753	86.7
211.972	101.03
212.191	21.16
212.409	96.94
212.628	72.36
212.846	-9.56
213.065	51.88
213.283	123.56
213.502	82.6
213.72	88.75
213.938	10.92
214.157	6.83
214.375	47.79
214.594	111.27
214.812	62.12
215.031	-15.7
215.249	107.18
215.467	131.75
215.686	10.92
215.904	68.27
216.122	41.64
216.341	205.48
216.559	10.92
216.778	174.76
216.996	195.24
217.214	43.69
217.432	-1.37
217.651	-42.32
217.869	66.22
218.087	58.03
218.306	55.98
218.524	51.88
218.742	37.55
218.96	170.66
219.179	66.22
219.397	94.89
219.615	311.97
219.833	103.08
220.051	-58.71
220.27	72.36
220.488	111.27
220.706	131.75
220.924	-50.52
221.142	4.78
221.36	139.94
221.578	70.31
221.796	27.31
222.015	43.69
222.233	19.11
222.451	242.34
222.669	58.03
222.887	109.22
223.105	-15.7
223.323	-5.46
223.541	-9.56
223.759	-15.7
223.977	72.36
224.195	133.8
224.413	76.46
224.631	4.78
224.849	78.51
225.067	174.76
225.285	-5.46
225.503	-25.94
225.721	-71
225.939	103.08
226.157	111.27
226.375	254.63
226.592	-32.08
226.81	80.55
227.028	76.46
227.246	162.47
227.464	68.27
227.682	117.42
227.9	154.28
228.117	76.46
228.335	82.6
228.553	86.7
228.771	37.55
228.989	6.83
229.206	123.56
229.424	29.35
229.642	-15.7
229.86	-15.7
230.077	168.62
230.295	23.21
230.513	66.22
230.731	12.97
230.948	205.48
231.166	129.7
231.384	23.21
231.601	-5.46
231.819	228.01
232.037	70.31
232.254	29.35
232.472	68.27
232.689	-68.95
232.907	123.56
233.125	35.5
233.342	-32.08
233.56	74.41
233.777	6.83
233.995	-7.51
234.213	121.51
234.43	94.89
234.648	2.73
234.865	-1.37
235.083	55.98
235.3	90.79
235.518	129.7
235.735	166.57
235.953	58.03
236.17	33.45
236.388	92.84
236.605	55.98
236.822	53.93
237.04	139.94
237.257	-1.37
237.475	-36.18
237.692	55.98
237.909	144.04
238.127	66.22
238.344	80.55
238.562	84.65
238.779	29.35
238.996	2.73
239.214	74.41
239.431	107.18
239.648	80.55
239.865	105.13
240.083	148.14
240.3	-15.7
240.517	10.92
240.735	35.5
240.952	141.99
241.169	72.36
241.386	135.85
241.603	49.83
241.821	-38.23
242.038	139.94
242.255	47.79
242.472	-44.37
242.689	82.6
242.907	41.64
243.124	90.79
243.341	47.79
243.558	33.45
243.775	-34.13
243.992	-42.32
244.209	180.9
244.426	219.82
244.643	64.17
244.86	-23.89
245.078	121.51
245.295	35.5
245.512	70.31
245.729	-17.75
245.946	55.98
246.163	39.59
246.38	49.83
246.597	62.12
246.814	-7.51
247.031	31.4
247.248	55.98
247.464	111.27
247.681	109.22
247.898	-7.51
248.115	27.31
248.332	-13.65
248.549	133.8
248.766	164.52
248.983	82.6
249.2	35.5
249.417	74.41
249.633	76.46
249.85	27.31
250.067	92.84
250.284	19.11
250.501	168.62
250.717	68.27
250.934	-93.52
251.151	64.17
251.368	96.94
251.585	105.13
251.801	62.12
252.018	-17.75
252.235	191.14
252.451	49.83
252.668	35.5
252.885	158.38
253.102	94.89
253.318	8.87
253.535	37.55
253.752	82.6
253.968	-25.94
254.185	-52.56
254.401	115.37
254.618	43.69
254.835	78.51
255.051	137.9
255.268	94.89
255.484	64.17
255.701	53.93
255.917	-1.37
256.134	12.97
256.351	53.93
256.567	-9.56
256.784	62.12
257	-1.37
257.217	43.69
257.433	148.14
257.65	113.32
257.866	156.33
258.082	12.97
258.299	6.83
258.515	53.93
258.732	84.65
258.948	86.7
259.165	129.7
259.381	-60.76
259.597	96.94
259.814	19.11
260.03	17.07
260.246	43.69
260.463	127.66
260.679	113.32
260.895	49.83
261.112	64.17
261.328	74.41
261.544	19.11
261.761	139.94
261.977	-7.51
262.193	-13.65
262.409	121.51
262.626	53.93
262.842	-23.89
263.058	-19.8
263.274	129.7
263.49	111.27
263.707	107.18
263.923	70.31
264.139	-13.65
264.355	109.22
264.571	58.03
264.787	121.51
265.004	131.75
265.22	66.22
265.436	76.46
265.652	4.78
265.868	4.78
266.084	-19.8
266.3	-36.18
266.516	-27.99
266.732	115.37
266.948	-7.51
267.164	8.87
267.38	113.32
267.596	43.69
267.812	160.42
268.028	88.75
268.244	-56.66
268.46	35.5
268.676	-7.51
268.892	105.13
269.108	17.07
269.324	-15.7
269.54	-62.8
269.756	133.8
269.972	-56.66
270.188	39.59
270.403	-58.71
270.619	96.94
270.835	60.07
271.051	-23.89
271.267	55.98
271.483	-44.37
271.698	107.18
271.914	113.32
272.13	33.45
272.346	-30.04
272.562	41.64
272.777	160.42
272.993	-19.8
273.209	41.64
273.425	70.31
273.64	98.99
273.856	60.07
274.072	31.4
274.287	10.92
274.503	113.32
274.719	70.31
274.934	-15.7
275.15	-64.85
275.366	31.4
275.581	-17.75
275.797	15.02
276.012	41.64
276.228	19.11
276.444	51.88
276.659	107.18
276.875	2.73
277.09	25.26
277.306	47.79
277.521	53.93
277.737	35.5
277.952	45.74
278.168	-23.89
278.383	90.79
278.599	37.55
278.814	37.55
279.03	41.64
279.245	72.36
279.461	55.98
279.676	117.42
279.892	-5.46
280.107	47.79
280.322	-21.85
280.538	86.7
280.753	66.22
280.969	29.35
281.184	10.92
281.399	96.94
281.615	90.79
281.83	60.07
282.045	-36.18
282.26	-11.61
282.476	74.41
282.691	117.42
282.906	25.26
283.122	101.03
283.337	96.94
283.552	10.92
283.767	21.16
283.983	156.33
284.198	107.18
284.413	82.6
284.628	27.31
284.843	80.55
285.058	98.99
285.274	-13.65
285.489	78.51
285.704	141.99
285.919	-34.13
286.134	27.31
286.349	-46.42
286.564	25.26
286.779	195.24
286.995	17.07
287.21	-34.13
287.425	35.5
287.64	37.55
287.855	72.36
288.07	-89.43
288.285	98.99
288.5	92.84
288.715	164.52
288.93	25.26
289.145	-32.08
289.36	94.89
289.575	41.64
289.79	90.79
290.004	41.64
290.219	98.99
290.434	-36.18
290.649	-11.61
290.864	45.74
291.079	82.6
291.294	123.56
291.509	103.08
291.724	23.21
291.938	-44.37
292.153	64.17
292.368	121.51
292.583	115.37
292.798	70.31
293.012	129.7
293.227	58.03
293.442	2.73
293.657	121.51
293.871	150.18
294.086	43.69
294.301	225.96
294.516	74.41
294.73	-7.51
294.945	4.78
295.16	55.98
295.374	195.24
295.589	111.27
295.804	8.87
296.018	125.61
296.233	191.14
296.447	66.22
296.662	-101.72
296.877	166.57
297.091	74.41
297.306	21.16
297.52	88.75
297.735	8.87
297.949	76.46
298.164	8.87
298.378	78.51
298.593	-19.8
298.807	-27.99
299.022	53.93
299.236	88.75
299.451	15.02
299.665	58.03
299.88	92.84
300.094	-42.32
300.309	55.98
300.523	41.64
300.737	23.21
300.952	84.65
301.166	121.51
301.381	-11.61
301.595	-19.8
301.809	64.17
302.024	31.4
302.238	-21.85
302.452	160.42
302.667	92.84
302.881	123.56
303.095	135.85
303.309	70.31
303.524	53.93
303.738	31.4
303.952	-99.67
304.166	129.7
304.381	-114
304.595	201.38
304.809	4.78
305.023	-44.37
305.237	-17.75
305.452	-44.37
305.666	109.22
305.88	148.14
306.094	168.62
306.308	64.17
306.522	76.46
306.736	55.98
306.95	49.83
307.164	6.83
307.379	39.59
307.593	86.7
307.807	49.83
308.021	103.08
308.235	127.66
308.449	-83.28
308.663	80.55
308.877	287.4
309.091	76.46
309.305	78.51
309.519	-50.52
309.733	131.75
309.947	8.87
310.161	152.23
310.374	88.75
310.588	209.58
310.802	-32.08
311.016	45.74
311.23	82.6
311.444	4.78
311.658	101.03
311.872	113.32
312.085	174.76
312.299	125.61
312.513	228.01
312.727	55.98
312.941	-9.56
313.154	146.09
313.368	62.12
313.582	70.31
313.796	127.66
314.009	105.13
314.223	90.79
314.437	17.07
314.651	135.85
314.864	-5.46
315.078	17.07
315.292	-34.13
315.505	72.36
315.719	78.51
315.933	66.22
316.146	-15.7
316.36	-25.94
316.573	86.7
316.787	109.22
317.001	15.02
317.214	-3.41
317.428	25.26
317.641	-19.8
317.855	17.07
318.068	105.13
318.282	25.26
318.495	109.22
318.709	133.8
318.922	29.35
319.136	139.94
319.349	131.75
319.563	86.7
319.776	96.94
319.99	-32.08
320.203	129.7
320.417	76.46
320.63	111.27
320.843	111.27
321.057	139.94
321.27	47.79
321.483	205.48
321.697	96.94
321.91	27.31
322.124	51.88
322.337	35.5
322.55	10.92
322.763	98.99
322.977	-32.08
323.19	-7.51
323.403	66.22
323.617	88.75
323.83	121.51
324.043	125.61
324.256	90.79
324.469	41.64
324.683	129.7
324.896	49.83
325.109	37.55
325.322	-56.66
325.535	64.17
325.748	62.12
325.962	86.7
326.175	68.27
326.388	23.21
326.601	109.22
326.814	23.21
327.027	78.51
327.24	139.94
327.453	-140.63
327.666	115.37
327.879	101.03
328.092	62.12
328.305	119.46
328.518	51.88
328.731	10.92
328.944	-7.51
329.157	-3.41
329.37	51.88
329.583	238.25
329.796	58.03
330.009	-23.89
330.222	127.66
330.435	58.03
330.648	23.21
330.861	129.7
331.073	10.92
331.286	98.99
331.499	31.4
331.712	25.26
331.925	39.59
332.138	66.22
332.35	98.99
332.563	2.73
332.776	62.12
332.989	-48.47
333.202	94.89
333.414	37.55
333.627	72.36
333.84	21.16
334.053	41.64
334.265	64.17
334.478	0.68
334.691	33.45
334.903	64.17
335.116	17.07
335.329	4.78
335.541	113.32
335.754	164.52
335.966	-79.19
336.179	51.88
336.392	35.5
336.604	2.73
336.817	193.19
337.029	58.03
337.242	64.17
337.454	33.45
337.667	82.6
337.88	137.9
338.092	68.27
338.305	66.22
338.517	-50.52
338.729	72.36
338.942	189.1
339.154	-5.46
339.367	-3.41
339.579	135.85
339.792	31.4
340.004	103.08
340.217	96.94
340.429	47.79
340.641	39.59
340.854	-27.99
341.066	21.16
341.278	90.79
341.491	182.95
341.703	33.45
341.915	41.64
342.128	135.85
342.34	53.93
342.552	55.98
342.764	47.79
342.977	53.93
343.189	133.8
343.401	82.6
343.613	-15.7
343.826	72.36
344.038	53.93
344.25	123.56
344.462	17.07
344.674	82.6
344.886	-3.41
345.099	92.84
345.311	133.8
345.523	43.69
345.735	-34.13
345.947	51.88
346.159	74.41
346.371	146.09
346.583	53.93
346.795	135.85
347.007	10.92
347.219	123.56
347.431	109.22
347.643	96.94
347.855	35.5
348.067	162.47
348.279	-30.04
348.491	15.02
348.703	170.66
348.915	23.21
349.127	-17.75
349.339	154.28
349.551	10.92
349.763	41.64
349.975	90.79
350.187	88.75
350.399	180.9
350.61	35.5
350.822	-52.56
351.034	90.79
351.246	119.46
351.458	45.74
351.669	60.07
351.881	131.75
352.093	156.33
352.305	98.99
352.517	78.51
352.728	107.18
352.94	117.42
353.152	109.22
353.363	-44.37
353.575	19.11
353.787	168.62
353.999	49.83
354.21	152.23
354.422	21.16
354.633	35.5
354.845	27.31
355.057	47.79
355.268	-3.41
355.48	86.7
355.692	12.97
355.903	27.31
356.115	-3.41
356.326	-97.62
356.538	137.9
356.749	78.51
356.961	172.71
357.172	-27.99
357.384	-15.7
357.595	254.63
357.807	-27.99
358.018	4.78
358.23	37.55
358.441	105.13
358.653	141.99
358.864	158.38
359.075	86.7
359.287	135.85
359.498	15.02
359.709	94.89
359.921	43.69
360.132	148.14
360.344	88.75
360.555	-19.8
360.766	115.37
360.977	96.94
361.189	62.12
361.4	-42.32
361.611	107.18
361.823	174.76
362.034	96.94
362.245	-58.71
362.456	21.16
362.667	119.46
362.879	15.02
363.09	109.22
363.301	107.18
363.512	27.31
363.723	8.87
363.935	-40.28
364.146	160.42
364.357	8.87
364.568	29.35
364.779	6.83
364.99	139.94
365.201	-3.41
365.412	62.12
365.623	-21.85
365.834	150.18
366.045	35.5
366.256	88.75
366.467	88.75
366.678	23.21
366.889	17.07
367.1	35.5
367.311	76.46
367.522	10.92
367.733	103.08
367.944	146.09
368.155	6.83
368.366	78.51
368.577	121.51
368.788	60.07
368.999	-34.13
369.209	29.35
369.42	217.77
369.631	277.16
369.842	66.22
370.053	25.26
370.264	137.9
370.474	29.35
370.685	101.03
370.896	10.92
371.107	146.09
371.317	94.89
371.528	78.51
371.739	152.23
371.95	62.12
372.16	94.89
372.371	-17.75
372.582	8.87
372.792	60.07
373.003	51.88
373.214	125.61
373.424	66.22
373.635	-11.61
373.846	98.99
374.056	-19.8
374.267	8.87
374.477	80.55
374.688	27.31
374.898	37.55
375.109	70.31
375.319	101.03
375.53	146.09
375.74	189.1
375.951	-5.46
376.161	72.36
376.372	152.23
376.582	92.84
376.793	90.79
377.003	133.8
377.214	-27.99
377.424	105.13
377.635	2.73
377.845	35.5
378.055	115.37
378.266	-68.95
378.476	66.22
378.686	60.07
378.897	55.98
379.107	137.9
379.317	66.22
379.528	37.55
379.738	152.23
379.948	-46.42
380.158	88.75
380.369	66.22
380.579	90.79
380.789	58.03
380.999	35.5
381.21	150.18
381.42	180.9
381.63	12.97
381.84	88.75
382.05	-1.37
382.261	148.14
382.471	160.42
382.681	-68.95
382.891	234.15
383.101	43.69
383.311	10.92
383.521	-42.32
383.731	92.84
383.941	53.93
384.151	51.88
384.361	64.17
384.571	80.55
384.781	51.88
384.991	164.52
385.201	189.1
385.411	49.83
385.621	68.27
385.831	125.61
386.041	21.16
386.251	70.31
386.461	139.94
386.671	17.07
386.881	45.74
387.091	74.41
387.301	146.09
387.511	-3.41
387.72	146.09
387.93	152.23
388.14	-73.04
388.35	58.03
388.56	141.99
388.769	96.94
388.979	53.93
389.189	78.51
389.399	27.31
389.609	88.75
389.818	133.8
390.028	127.66
390.238	133.8
390.447	8.87
390.657	86.7
390.867	80.55
391.076	2.73
391.286	84.65
391.496	47.79
391.705	113.32
391.915	172.71
392.125	53.93
392.334	-7.51
392.544	139.94
392.753	92.84
392.963	-11.61
393.172	80.55
393.382	-46.42
393.591	185
393.801	-17.75
394.01	180.9
394.22	88.75
394.429	-19.8
394.639	51.88
394.848	96.94
395.058	84.65
395.267	0.68
395.477	148.14
395.686	123.56
395.895	209.58
396.105	230.06
396.314	86.7
396.524	12.97
396.733	6.83
396.942	107.18
397.152	137.9
397.361	187.05
397.57	84.65
397.78	84.65
397.989	51.88
398.198	211.62
398.407	68.27
398.617	-32.08
398.826	129.7
399.035	2.73
399.244	107.18
399.453	72.36
399.663	107.18
399.872	70.31
400.081	4.78
400.29	88.75
400.499	10.92
400.708	135.85
400.917	25.26
401.127	8.87
401.336	58.03
401.545	209.58
401.754	107.18
401.963	123.56
402.172	86.7
402.381	23.21
402.59	4.78
402.799	45.74
403.008	90.79
403.217	90.79
403.426	113.32
403.635	70.31
403.844	12.97
404.053	51.88
404.262	-27.99
404.471	154.28
404.68	78.51
404.888	-19.8
405.097	76.46
405.306	12.97
405.515	82.6
405.724	4.78
405.933	123.56
406.142	107.18
406.35	135.85
406.559	98.99
406.768	-3.41
406.977	207.53
407.185	113.32
407.394	152.23
407.603	37.55
407.812	107.18
408.02	86.7
408.229	90.79
408.438	15.02
408.646	-1.37
408.855	176.81
409.064	55.98
409.272	43.69
409.481	103.08
409.69	-58.71
409.898	68.27
410.107	31.4
410.315	96.94
410.524	45.74
410.733	15.02
410.941	-32.08
411.15	111.27
411.358	103.08
411.567	139.94
411.775	68.27
411.984	58.03
412.192	129.7
412.401	113.32
412.609	162.47
412.818	119.46
413.026	168.62
413.234	33.45
413.443	72.36
413.651	90.79
413.86	49.83
414.068	174.76
414.276	254.63
414.485	72.36
414.693	135.85
414.901	180.9
415.11	68.27
415.318	-40.28
415.526	-9.56
415.734	80.55
415.943	88.75
416.151	119.46
416.359	127.66
416.567	37.55
416.776	191.14
416.984	154.28
417.192	148.14
417.4	31.4
417.608	37.55
417.817	-3.41
418.025	80.55
418.233	225.96
418.441	74.41
418.649	45.74
418.857	101.03
419.065	223.91
419.273	90.79
419.481	101.03
419.689	45.74
419.897	133.8
420.105	47.79
420.313	174.76
420.521	219.82
420.729	137.9
420.937	39.59
421.145	-30.04
421.353	146.09
421.561	187.05
421.769	90.79
421.977	21.16
422.185	176.81
422.393	47.79
422.601	193.19
422.809	187.05
423.017	35.5
423.224	127.66
423.432	164.52
423.64	6.83
423.848	117.42
424.056	41.64
424.263	174.76
424.471	94.89
424.679	191.14
424.887	0.68
425.094	217.77
425.302	68.27
425.51	-13.65
425.718	119.46
425.925	101.03
426.133	15.02
426.341	176.81
426.548	-3.41
426.756	33.45
426.964	162.47
427.171	2.73
427.379	109.22
427.586	78.51
427.794	162.47
428.001	166.57
428.209	182.95
428.417	139.94
428.624	125.61
428.832	164.52
429.039	154.28
429.247	86.7
429.454	33.45
429.662	254.63
429.869	92.84
430.076	139.94
430.284	228.01
430.491	266.92
430.699	60.07
430.906	185
431.114	185
431.321	172.71
431.528	141.99
431.736	182.95
431.943	156.33
432.15	162.47
432.358	178.86
432.565	260.77
432.772	55.98
432.979	207.53
433.187	207.53
433.394	309.93
433.601	150.18
433.808	248.49
434.016	238.25
434.223	262.82
434.43	228.01
434.637	248.49
434.844	311.97
435.052	291.49
435.259	273.06
435.466	371.36
435.673	279.21
435.88	363.17
436.087	307.88
436.294	305.83
436.501	406.18
436.708	299.69
436.915	361.13
437.122	369.32
437.329	287.4
437.537	314.02
437.743	348.84
437.95	537.25
438.157	408.23
438.364	369.32
438.571	297.64
438.778	477.86
438.985	432.8
439.192	567.97
439.399	457.38
439.606	488.1
439.813	559.78
440.02	664.22
440.227	674.46
440.433	666.27
440.64	631.46
440.847	580.26
441.054	641.7
441.261	764.57
441.467	643.74
441.674	709.28
441.881	713.38
442.088	684.7
442.294	770.72
442.501	946.84
442.708	864.93
442.914	805.53
443.121	891.55
443.328	957.08
443.534	996
443.741	1036.95
443.948	897.69
444.154	969.37
444.361	1233.56
444.568	1092.25
444.774	1096.35
444.981	1079.96
445.187	1256.09
445.394	1268.38
445.6	1256.09
445.807	1350.29
446.013	1381.01
446.22	1319.57
446.426	1520.28
446.633	1526.42
446.839	1802.9
447.046	1467.03
447.252	1667.73
447.459	1774.22
447.665	1811.09
447.871	1899.15
448.078	2161.29
448.284	1952.4
448.491	2105.99
448.697	2198.15
448.903	2357.89
449.11	2230.92
449.316	2386.57
449.522	2491.01
449.728	2601.6
449.935	2693.76
450.141	2640.51
450.347	3074.68
450.553	2806.4
450.76	2830.98
450.966	2972.29
451.172	3152.51
451.378	3324.54
451.584	3259
451.791	3695.22
451.997	3828.34
452.203	3764.85
452.409	3994.22
452.615	3971.69
452.821	4061.8
453.027	3930.73
453.233	4545.13
453.44	4481.64
453.646	4747.87
453.852	4835.94
454.058	5139.04
454.264	5167.71
454.47	5665.36
454.676	5720.66
454.882	6093.39
455.088	5831.25
455.294	6169.16
455.5	6730.31
455.705	7008.83
455.911	7156.29
456.117	7105.09
456.323	7488.06
456.529	7436.86
456.735	8077.87
456.941	8444.46
457.147	8636.97
457.352	8778.28
457.558	8956.45
457.764	9648.66
457.97	9818.64
458.176	10355.21
458.381	10613.26
458.587	10940.93
458.793	11641.34
458.999	11694.58
459.204	12814.82
459.41	13367.77
459.616	13126.11
459.821	14103
460.027	14637.52
460.233	15444.42
460.438	15430.08
460.644	16142.77
460.85	16466.35
461.055	16923.05
461.261	17709.47
461.466	17523.1
461.672	17592.73
461.878	20152.7
462.083	19716.48
462.289	20259.19
462.494	20658.54
462.7	21141.86
462.905	21135.72
463.111	23224.65
463.316	24285.5
463.522	24557.88
463.727	25465.13
463.932	26335.51
464.138	27396.36
464.343	28363
464.549	28543.22
464.754	30587.1
464.959	30947.54
465.165	31744.2
465.37	31553.74
465.575	31502.54
465.781	33775.78
465.986	34756.76
466.191	34160.8
466.397	34408.61
466.602	33718.44
466.807	35600.52
467.012	36255.87
467.218	36581.5
467.423	36544.64
467.628	37752.94
467.833	39952.46
468.038	38668.38
468.244	38381.67
468.449	40259.65
468.654	39282.77
468.859	39450.7
469.064	39280.72
469.269	38047.85
469.474	38643.81
469.679	39747.66
469.885	38625.37
470.09	39342.16
470.295	39131.22
470.5	38402.14
470.705	38508.64
470.91	37742.7
471.115	37075.06
471.32	37757.03
471.525	37335.15
471.73	36548.73
471.935	35842.18
472.139	34764.95
472.344	34738.33
472.549	34482.33
472.754	34209.95
472.959	33142.96
473.164	32047.3
473.369	31418.57
473.574	32295.1
473.778	31512.78
473.983	31135.95
474.188	30613.72
474.393	29374.7
474.598	28872.95
474.802	28246.27
475.007	28117.25
475.212	27982.08
475.417	26665.24
475.621	26421.53
475.826	26147.1
476.031	25313.58
476.235	24961.33
476.44	24664.37
476.645	24336.7
476.849	23927.1
477.054	23662.91
477.259	22993.23
477.463	22958.41
477.668	22120.79
477.872	22565.2
478.077	21549.41
478.282	21223.78
478.486	20881.77
478.691	20808.05
478.895	20597.1
479.1	20490.61
479.304	20472.18
479.509	19665.28
479.713	19976.57
479.918	19458.43
480.122	19124.61
480.326	19636.61
480.531	18944.39
480.735	18899.34
480.94	18803.08
481.144	19018.12
481.348	18176.41
481.553	18287
481.757	17766.81
481.961	18186.65
482.166	18215.32
482.37	17983.9
482.574	17332.64
482.778	17547.68
482.983	17805.72
483.187	17439.14
483.391	17263.01
483.595	17011.11
483.8	16785.83
484.004	16736.68
484.208	16767.4
484.412	16275.89
484.616	16271.79
484.821	15827.39
485.025	15348.16
485.229	15608.25
485.433	15428.03
485.637	15180.23
485.841	15219.14
486.045	14932.42
486.249	14889.42
486.453	14279.12
486.657	14178.77
486.861	14162.39
487.065	13660.63
487.269	13558.24
487.473	13193.7
487.677	13457.89
487.881	13177.31
488.085	12755.43
488.289	12702.18
488.493	12198.38
488.697	12288.5
488.901	11905.52
489.105	11735.54
489.309	11571.71
489.512	11397.63
489.716	11250.17
489.92	10783.24
490.124	10705.42
490.328	10877.44
490.531	10394.12
490.735	10408.46
490.939	10127.89
491.143	9796.12
491.346	9714.2
491.55	9839.12
491.754	9466.39
491.958	9368.09
492.161	9087.52
492.365	8890.91
492.569	8733.22
492.772	8774.18
492.976	8786.47
493.18	8528.42
493.383	8426.03
493.587	8321.58
493.79	8419.88
493.994	7950.9
494.197	8071.73
494.401	7846.45
494.605	7676.47
494.808	7946.8
495.012	7651.89
495.215	7967.28
495.419	7787.06
495.622	7602.74
495.825	7354.94
496.029	7483.96
496.232	7813.68
496.436	7406.14
496.639	7627.32
496.843	7268.92
497.046	7414.33
497.249	7436.86
497.453	7365.18
497.656	7402.04
497.859	7393.85
498.063	7537.21
498.266	7313.98
498.469	7430.71
498.673	7529.02
498.876	7477.82
499.079	7758.39
499.282	7553.59
499.485	7914.03
499.689	7733.81
499.892	7948.85
500.095	7807.54
500.298	7998
500.501	7696.95
500.705	8030.77
500.908	8100.4
501.111	8073.78
501.314	8200.75
501.517	8372.78
501.72	8364.59
501.923	8362.54
502.126	8460.84
502.329	8618.54
502.532	8806.95
502.735	8757.8
502.938	9054.75
503.141	9046.56
503.344	9177.63
503.547	9034.27
503.75	9353.76
503.953	9595.42
504.156	9509.4
504.359	9695.77
504.562	9888.28
504.765	9931.28
504.968	10068.5
505.17	10347.02
505.373	10324.49
505.576	10623.5
505.779	10719.75
505.982	10652.17
506.185	11389.44
506.387	11383.29
506.59	11473.4
506.793	11610.62
506.996	11708.92
507.198	12347.89
507.401	12358.13
507.604	12542.44
507.807	12896.74
508.009	13179.36
508.212	13373.92
508.415	13736.41
508.617	13853.14
508.82	14125.52
509.022	14426.57
509.225	14731.72
509.428	15141.32
509.63	15204.8
509.833	15581.63
510.035	16322.99
510.238	16306.61
510.44	16675.24
510.643	17228.2
510.845	17662.37
511.048	17654.17
511.25	18119.06
511.453	18287
511.655	19507.58
511.858	19413.38
512.06	20005.24
512.262	20504.95
512.465	20560.24
512.667	21346.66
512.87	21553.51
513.072	22212.95
513.274	22927.69
513.477	23355.72
513.679	23738.69
513.881	24246.58
514.084	24746.29
514.286	25393.45
514.488	25774.37
514.69	26741.01
514.893	26921.23
515.095	27492.62
515.297	28098.81
515.499	28385.53
515.701	29466.86
515.904	29933.79
516.106	30818.52
516.308	31140.05
516.51	32000.19
516.712	32268.48
516.914	33274.03
517.116	33994.92
517.318	34279.58
517.52	34822.3
517.722	35315.86
517.925	36212.87
518.127	36681.85
518.329	37746.79
518.531	37691.5
518.733	38559.84
518.935	39155.8
519.136	39903.31
519.338	40747.07
519.54	41228.34
519.742	41707.57
519.944	42432.55
520.146	42917.92
520.348	43284.5
520.55	43603.99
520.752	44066.83
520.954	45240.31
521.155	45125.63
521.357	46137.32
521.559	46931.93
521.761	47359.96
521.963	47380.44
522.164	48029.65
522.366	48015.31
522.568	48617.41
522.77	49287.1
522.971	49801.14
523.173	49493.94
523.375	49985.46
523.576	49915.82
523.778	50347.95
523.98	51117.98
524.181	50939.81
524.383	50968.48
524.584	51586.97
524.786	51533.72
524.988	51072.93
525.189	51871.64
525.391	51621.78
525.592	51828.63
525.794	52371.34
525.995	51464.09
526.197	51675.03
526.398	51566.49
526.6	51726.23
526.801	51459.99
527.003	51537.82
527.204	51294.11
527.406	51337.12
527.607	50855.84
527.808	50898.85
528.01	49917.87
528.211	49905.59
528.412	49842.1
528.614	49838
528.815	49295.29
529.016	49377.21
529.218	48396.23
529.419	48613.32
529.62	47810.51
529.822	47429.59
530.023	46899.17
530.224	46538.72
530.425	46104.56
530.626	45350.9
530.828	44828.67
531.029	45451.25
531.23	44316.68
531.431	43659.28
531.632	43325.46
531.833	42876.96
532.035	42356.77
532.236	42027.05
532.437	41570.35
532.638	40929.34
532.839	40278.08
533.04	40329.28
533.241	39299.15
533.442	39479.38
533.643	38369.38
533.844	37732.46
534.045	37441.65
534.246	36792.44
534.447	36335.74
534.648	36083.84
534.849	35195.03
535.05	34893.97
535.251	34515.1
535.451	33966.24
535.652	33691.82
535.853	32819.38
536.054	32749.75
536.255	32571.58
536.456	31760.58
536.657	31428.81
536.857	31078.61
537.058	30329.05
537.259	30435.55
537.46	29802.72
537.66	28991.73
537.861	29030.64
538.062	28295.42
538.263	28156.16
538.463	27746.56
538.664	27410.7
538.865	27171.08
539.065	26863.89
539.266	26274.07
539.466	26188.06
539.667	25864.48
539.868	25858.34
540.068	24924.46
540.269	24959.28
540.469	24987.95
540.67	24336.7
540.87	24217.91
541.071	23474.5
541.271	23230.79
541.472	23294.28
541.672	22978.89
541.873	22679.89
542.073	22171.99
542.274	22325.59
542.474	22006.11
542.675	21567.84
542.875	21535.07
543.075	21143.91
543.276	20912.49
543.476	20834.67
543.676	20382.07
543.877	20449.65
544.077	20160.89
544.277	19685.76
544.478	19609.98
544.678	19415.43
544.878	18983.31
545.078	19081.61
545.279	18413.97
545.479	18571.66
545.679	18395.54
545.879	17947.03
546.079	18033.05
546.28	17598.88
546.48	17369.51
546.68	17394.08
546.88	17254.82
547.08	16873.9
547.28	16578.99
547.48	16093.62
547.68	16449.97
547.88	15892.92
548.081	15937.98
548.281	15503.81
548.481	15483.33
548.681	15471.04
548.881	15047.11
549.081	14838.22
549.28	14764.49
549.48	14535.12
549.68	14246.35
549.88	14053.84
550.08	13760.98
550.28	13672.92
550.48	13498.84
550.68	13355.49
550.88	12988.9
551.08	12913.13
551.279	12859.88
551.479	12546.54
551.679	12579.31
551.879	12165.62
552.079	12028.4
552.278	11739.64
552.478	11655.67
552.678	11555.32
552.878	11481.6
553.077	11340.29
553.277	10826.25
553.477	10807.81
553.676	10924.55
553.876	10396.17
554.076	10234.38
554.275	10297.87
554.475	9935.38
554.674	9849.36
554.874	9841.17
555.074	9398.81
555.273	9579.03
555.473	9187.87
555.672	9103.9
555.872	8890.91
556.071	8866.34
556.271	8921.63
556.47	8491.56
556.67	8219.18
556.869	8254
557.068	8137.26
557.268	8045.1
557.467	7942.71
557.667	7799.35
557.866	7647.8
558.065	7465.53
558.265	7518.78
558.464	7240.25
558.663	7291.45
558.863	6920.77
559.062	6982.21
559.261	6724.16
559.461	6851.14
559.66	6613.57
559.859	6537.8
560.058	6160.97
560.258	6265.42
560.457	6195.79
560.656	6318.67
560.855	5798.48
561.054	5796.43
561.253	5851.73
561.453	5663.32
561.652	5587.54
561.851	5708.37
562.05	5370.46
562.249	5270.11
562.448	5300.83
562.647	5073.5
562.846	5108.32
563.045	4975.2
563.244	4889.18
563.443	4969.05
563.642	4772.45
563.841	4895.33
564.04	4610.66
564.239	4690.53
564.438	4588.13
564.637	4405.86
564.836	4354.66
565.035	4299.37
565.234	4354.66
565.432	4293.23
565.631	4264.55
565.83	4192.87
566.029	3973.74
566.228	3959.41
566.427	4020.85
566.625	3787.38
566.824	3824.24
567.023	3750.51
567.222	3691.12
567.42	3623.54
567.619	3682.93
567.818	3508.85
568.016	3641.97
568.215	3443.32
568.414	3379.83
568.612	3420.79
568.811	3273.34
569.01	3242.62
569.208	3138.17
569.407	3277.43
569.605	3215.99
569.804	3097.21
570.002	3152.51
570.201	3031.68
570.4	2925.18
570.598	2847.36
570.797	2867.84
570.995	2644.61
571.193	2724.48
571.392	2667.14
571.59	2663.04
571.789	2667.14
571.987	2706.05
572.186	2615.94
572.384	2482.82
572.582	2505.35
572.781	2562.69
572.979	2300.55
573.177	2415.24
573.376	2323.08
573.574	2359.94
573.772	2278.02
573.971	2214.54
574.169	2050.7
574.367	2226.82
574.565	2126.47
574.763	2062.99
574.962	2120.33
575.16	2056.84
575.358	1968.78
575.556	1948.3
575.754	2099.85
575.952	2015.88
576.151	1860.24
576.349	1987.21
576.547	1741.46
576.745	1778.32
576.943	1716.88
577.141	1655.44
577.339	1645.2
577.537	1665.68
577.735	1759.89
577.933	1702.54
578.131	1526.42
578.329	1786.51
578.527	1606.29
578.725	1600.15
578.923	1557.14
579.121	1585.81
579.319	1342.1
579.516	1366.68
579.714	1569.43
579.912	1442.45
580.11	1204.89
580.308	1374.87
580.506	1358.49
580.704	1172.12
580.901	1135.26
581.099	1368.73
581.297	1215.13
581.495	1276.57
581.692	1176.22
581.89	1297.05
582.088	1188.5
582.285	1196.7
582.483	1122.97
582.681	1100.44
582.878	1022.62
583.076	1268.38
583.274	1075.87
583.471	1305.24
583.669	998.04
583.866	965.28
584.064	1061.53
584.262	887.45
584.459	950.94
584.657	969.37
584.854	1004.19
585.052	983.71
585.249	1018.52
585.447	914.08
585.644	797.34
585.841	1006.24
586.039	985.76
586.236	950.94
586.434	783.01
586.631	740
586.828	864.93
587.026	901.79
587.223	850.59
587.42	787.1
587.618	879.26
587.815	934.56
588.012	778.91
588.21	709.28
588.407	805.53
588.604	727.71
588.801	780.96
588.999	735.9
589.196	748.19
589.393	754.34
589.59	778.91
589.787	713.38
589.984	717.47
590.182	799.39
590.379	592.55
590.576	696.99
590.773	645.79
590.97	647.84
591.167	717.47
591.364	633.5
591.561	696.99
591.758	883.36
591.955	758.43
592.152	656.03
592.349	645.79
592.546	699.04
592.743	647.84
592.94	649.89
593.137	717.47
593.334	768.67
593.531	760.48
593.727	635.55
593.924	682.66
594.121	684.7
594.318	639.65
594.515	694.94
594.712	850.59
594.908	764.57
595.105	561.83
595.302	651.94
595.499	672.42
595.696	848.54
595.892	619.17
596.089	862.88
596.286	760.48
596.482	846.49
596.679	877.21
596.876	760.48
597.072	930.46
597.269	961.18
597.466	1028.76
597.662	866.97
597.859	922.27
598.055	881.31
598.252	1004.19
598.448	1063.58
598.645	1096.35
598.841	1163.93
599.038	1243.8
599.234	1241.75
599.431	1325.72
599.627	1348.25
599.824	1356.44
600.02	1360.53
600.217	1507.99
600.413	1434.26
600.609	1522.32
600.806	1757.84
601.002	1651.35
601.198	1616.53
601.395	1759.89
601.591	1837.71
601.787	1931.92
601.984	1954.44
602.18	1991.31
602.376	1991.31
602.572	2169.48
602.769	2351.75
602.965	2296.46
603.161	2562.69
603.357	2523.78
603.553	2624.13
603.75	2564.74
603.946	2775.68
604.142	2730.62
604.338	3089.02
604.534	2943.61
604.73	3062.4
604.926	3154.55
605.122	3496.57
605.318	3308.15
605.514	3533.43
605.71	3648.11
605.906	3719.79
606.102	3709.55
606.298	4029.04
606.494	4201.07
606.69	4325.99
606.886	4334.18
607.082	4342.38
607.278	4469.35
607.474	4727.39
607.67	4995.68
607.866	4880.99
608.062	5198.43
608.257	5225.05
608.453	5186.14
608.649	5509.72
608.845	5339.74
609.041	5757.52
609.236	5939.79
609.432	6120.01
609.628	6318.67
609.824	6478.41
610.019	6464.07
610.215	6652.49
610.411	6998.59
610.606	7148.09
610.802	7275.07
610.998	7457.34
611.193	7707.19
611.389	7725.62
611.584	8155.69
611.78	8139.31
611.976	8432.17
612.171	8950.31
612.367	8968.74
612.562	9333.28
612.758	9120.29
612.953	9415.19
613.149	9884.18
613.344	10211.85
613.539	10232.33
613.735	10560.01
613.93	10768.9
614.126	10998.27
614.321	11461.12
614.517	11862.52
614.712	12022.26
614.907	12403.18
615.103	12708.33
615.298	12730.86
615.493	13122.02
615.688	13330.91
615.884	14152.15
616.079	14240.21
616.274	14549.45
616.47	14836.17
616.665	15317.44
616.86	15534.53
617.055	15997.37
617.25	16257.46
617.445	17230.24
617.641	17138.09
617.836	17805.72
618.031	17699.23
618.226	18522.51
618.421	18755.98
618.616	19794.3
618.811	19667.33
619.006	20308.34
619.201	20765.04
619.396	20892.01
619.591	21137.77
619.786	22280.53
619.981	22755.66
620.176	23023.95
620.371	23521.6
620.566	23970.11
620.761	24312.12
620.956	25223.47
621.151	25239.85
621.346	25850.14
621.541	25946.4
621.735	26913.04
621.93	27248.91
622.125	27597.06
622.32	27848.96
622.515	29026.54
622.709	29309.16
622.904	29817.06
623.099	30220.51
623.294	30779.6
623.488	30992.59
623.683	31975.62
623.878	32172.22
624.072	33009.84
624.267	33171.63
624.462	33798.31
624.656	34275.49
624.851	34453.66
625.046	34695.32
625.24	35426.45
625.435	35946.63
625.629	36341.89
625.824	36855.93
626.018	37415.02
626.213	37345.39
626.407	38047.85
626.602	38144.1
626.796	38991.96
626.991	39207
627.185	39329.87
627.38	39692.36
627.574	39723.08
627.768	39831.63
627.963	39843.91
628.157	39708.75
628.352	40388.67
628.546	39807.05
628.74	40108.1
628.935	39737.42
629.129	39731.28
629.323	39381.07
629.517	39295.06
629.712	38813.79
629.906	38733.92
630.1	37935.21
630.294	37824.62
630.489	37306.48
630.683	36970.61
630.877	36143.24
631.071	35489.93
631.265	34597.02
631.459	34089.12
631.653	33001.65
631.848	33032.37
632.042	31539.4
632.236	30920.91
632.43	30023.9
632.624	29227.24
632.818	28229.88
633.012	27115.79
633.206	26546.45
633.4	25721.12
633.594	24492.34
633.788	23898.43
633.982	22976.84
634.176	22083.93
634.369	21148.01
634.563	20492.66
634.757	19675.52
634.951	19118.47
635.145	18299.28
635.339	17412.51
635.533	16693.68
635.726	16390.58
635.92	15303.11
636.114	14787.02
636.308	14264.78
636.501	13574.62
636.695	13230.56
636.889	12345.84
637.083	12020.21
637.276	11563.51
637.47	10992.13
637.664	10467.85
637.857	10297.87
638.051	10019.35
638.244	9257.5
638.438	9056.8
638.632	8796.71
638.825	8100.4
639.019	7973.42
639.212	7703.09
639.406	7447.1
639.599	7072.32
639.793	6840.9
639.986	6511.18
640.18	6353.48
640.373	5988.94
640.567	6027.85
640.76	5581.4
640.954	5399.13
641.147	5034.59
641.34	4903.52
641.534	4891.23
641.727	4811.36
641.92	4379.24
642.114	4141.68
642.307	4137.58
642.5	3994.22
642.694	3621.49
642.887	3652.21
643.08	3549.81
643.273	3486.33
643.467	3345.02
643.66	3093.12
643.853	3035.77
644.046	2835.07
644.239	2835.07
644.432	2595.46
644.626	2536.07
644.819	2491.01
645.012	2413.19
645.205	2394.76
645.398	2331.27
645.591	2108.04
645.784	2013.84
645.977	1940.11
646.17	1890.96
646.363	1813.13
646.556	1612.43
646.749	1673.87
646.942	1624.72
647.135	1536.66
647.328	1493.65
647.521	1405.59
647.714	1370.77
647.907	1356.44
648.099	1305.24
648.292	1305.24
648.485	1247.9
648.678	1094.3
648.871	1032.86
649.064	1090.2
649.256	967.32
649.449	975.52
649.642	948.89
649.835	934.56
650.027	791.2
650.22	942.75
650.413	850.59
650.605	899.74
650.798	737.95
650.991	733.86
651.183	787.1
651.376	760.48
651.568	672.42
651.761	572.07
651.954	651.94
652.146	631.46
652.339	668.32
652.531	637.6
652.724	514.72
652.916	459.43
653.109	383.65
653.301	647.84
653.494	545.44
653.686	479.91
653.879	545.44
654.071	647.84
654.263	451.24
654.456	463.52
654.648	477.86
654.84	467.62
655.033	410.28
655.225	471.72
655.417	281.25
655.61	467.62
655.802	404.13
655.994	420.52
656.186	346.79
656.379	512.67
656.571	301.73
656.763	303.78
656.955	211.62
657.148	297.64
657.34	357.03
657.532	215.72
657.724	275.11
657.916	309.93
658.108	381.6
658.3	359.08
658.492	281.25
658.684	215.72
658.876	324.26
659.068	160.42
659.26	170.66
659.452	185
659.644	240.29
659.836	365.22
660.028	322.21
660.22	182.95
660.412	137.9
660.604	217.77
660.796	287.4
660.988	285.35
661.18	275.11
661.372	271.01
661.563	242.34
661.755	207.53
661.947	144.04
662.139	197.29
662.331	205.48
662.522	254.63
662.714	133.8
662.906	72.36
663.097	172.71
663.289	109.22
663.481	172.71
663.673	193.19
663.864	127.66
664.056	197.29
664.247	158.38
664.439	209.58
664.631	154.28
664.822	164.52
665.014	137.9
665.205	92.84
665.397	223.91
665.588	156.33
665.78	117.42
665.971	283.3
666.163	107.18
666.354	174.76
666.546	98.99
666.737	178.86
666.929	176.81
667.12	193.19
667.311	182.95
667.503	154.28
667.694	66.22
667.885	127.66
668.077	109.22
668.268	15.02
668.459	92.84
668.651	137.9
668.842	176.81
669.033	76.46
669.224	53.93
669.416	350.89
669.607	119.46
669.798	96.94
669.989	223.91
670.18	55.98
670.371	144.04
670.563	-7.51
670.754	213.67
670.945	215.72
671.136	160.42
671.327	-13.65
671.518	234.15
671.709	277.16
671.9	152.23
672.091	285.35
672.282	119.46
672.473	113.32
672.664	53.93
672.855	64.17
673.046	121.51
673.237	213.67
673.428	150.18
673.619	148.14
673.809	131.75
674	246.44
674.191	127.66
674.382	193.19
674.573	64.17
674.764	113.32
674.954	248.49
675.145	64.17
675.336	53.93
675.527	43.69
675.717	113.32
675.908	127.66
676.099	103.08
676.289	111.27
676.48	62.12
676.671	148.14
676.861	72.36
677.052	107.18
677.243	135.85
677.433	96.94
677.624	164.52
677.814	127.66
678.005	86.7
678.195	238.25
678.386	109.22
678.576	203.43
678.767	25.26
678.957	119.46
679.148	154.28
679.338	232.1
679.529	174.76
679.719	154.28
679.909	266.92
680.1	187.05
680.29	225.96
680.481	80.55
680.671	166.57
680.861	139.94
681.052	150.18
681.242	195.24
681.432	176.81
681.622	256.68
681.813	133.8
682.003	131.75
682.193	88.75
682.383	185
682.573	123.56
682.764	180.9
682.954	129.7
683.144	318.12
683.334	133.8
683.524	127.66
683.714	137.9
683.904	176.81
684.094	131.75
684.284	232.1
684.474	314.02
684.664	113.32
684.854	195.24
685.044	172.71
685.234	244.39
685.424	195.24
685.614	123.56
685.804	359.08
685.994	203.43
686.184	193.19
686.374	283.3
686.564	115.37
686.753	180.9
686.943	105.13
687.133	199.34
687.323	162.47
687.513	158.38
687.702	144.04
687.892	107.18
688.082	236.2
688.272	236.2
688.461	150.18
688.651	344.74
688.841	242.34
689.03	150.18
689.22	201.38
689.41	207.53
689.599	211.62
689.789	150.18
689.979	228.01
690.168	156.33
690.358	207.53
690.547	185
690.737	193.19
690.926	172.71
691.116	260.77
691.305	238.25
691.495	195.24
691.684	164.52
691.874	133.8
692.063	172.71
692.252	182.95
692.442	205.48
692.631	166.57
692.82	148.14
693.01	160.42
693.199	158.38
693.388	291.49
693.578	127.66
693.767	131.75
693.956	199.34
694.146	182.95
694.335	238.25
694.524	150.18
694.713	232.1
694.902	150.18
695.092	111.27
695.281	219.82
695.47	139.94
695.659	70.31
695.848	135.85
696.037	182.95
696.226	277.16
696.415	168.62
696.604	195.24
696.793	109.22
696.982	223.91
697.171	314.02
697.36	180.9
697.549	148.14
697.738	78.51
697.927	113.32
698.116	64.17
698.305	90.79
698.494	191.14
698.683	129.7
698.872	207.53
699.061	160.42
699.25	162.47
699.438	164.52
699.627	195.24
699.816	324.26
700.005	58.03
700.193	170.66
700.382	182.95
700.571	117.42
700.76	205.48
700.948	258.73
701.137	193.19
701.326	205.48
701.514	123.56
701.703	207.53
701.892	197.29
702.08	346.79
702.269	148.14
702.457	150.18
702.646	264.87
702.834	193.19
703.023	166.57
703.212	217.77
703.4	109.22
703.589	125.61
703.777	117.42
703.965	109.22
704.154	66.22
704.342	193.19
704.531	217.77
704.719	209.58
704.907	201.38
705.096	119.46
705.284	80.55
705.472	152.23
705.661	137.9
705.849	242.34
706.037	250.53
706.226	135.85
706.414	203.43
706.602	115.37
706.79	266.92
706.979	101.03
707.167	176.81
707.355	137.9
707.543	275.11
707.731	172.71
707.919	150.18
708.107	185
708.296	129.7
708.484	174.76
708.672	162.47
708.86	176.81
709.048	127.66
709.236	55.98
709.424	182.95
709.612	195.24
709.8	45.74
709.988	205.48
710.176	287.4
710.364	236.2
710.551	180.9
710.739	119.46
710.927	82.6
711.115	238.25
711.303	252.58
711.491	262.82
711.679	78.51
711.866	275.11
712.054	127.66
712.242	221.86
712.43	201.38
712.617	146.09
712.805	187.05
712.993	150.18
713.181	88.75
713.368	252.58
713.556	127.66
713.744	135.85
713.931	316.07
714.119	193.19
714.306	195.24
714.494	127.66
714.682	101.03
714.869	115.37
715.057	78.51
715.244	117.42
715.432	172.71
715.619	148.14
715.807	88.75
715.994	125.61
716.182	234.15
716.369	289.45
716.556	258.73
716.744	74.41
716.931	55.98
717.119	254.63
717.306	144.04
717.493	182.95
717.681	141.99
717.868	144.04
718.055	205.48
718.242	125.61
718.43	217.77
718.617	250.53
718.804	90.79
718.991	211.62
719.179	182.95
719.366	234.15
719.553	232.1
719.74	152.23
719.927	242.34
720.114	156.33
720.301	70.31
720.488	160.42
720.676	156.33
720.863	252.58
721.05	367.27
721.237	230.06
721.424	252.58
721.611	203.43
721.798	121.51
721.985	201.38
722.172	137.9
722.358	148.14
722.545	215.72
722.732	240.29
722.919	330.41
723.106	205.48
723.293	133.8
723.48	199.34
723.667	141.99
723.853	330.41
724.04	285.35
724.227	262.82
724.414	221.86
724.6	273.06
724.787	316.07
724.974	414.37
725.161	197.29
725.347	154.28
725.534	225.96
725.72	213.67
725.907	172.71
726.094	260.77
726.28	160.42
726.467	258.73
726.653	246.44
726.84	277.16
727.027	326.31
727.213	207.53
727.4	301.73
727.586	178.86
727.773	121.51
727.959	164.52
728.145	135.85
728.332	172.71
728.518	252.58
728.705	197.29
728.891	182.95
729.077	197.29
729.264	101.03
729.45	160.42
729.636	291.49
729.823	195.24
730.009	193.19
730.195	223.91
730.382	244.39
730.568	178.86
730.754	178.86
730.94	199.34
731.126	230.06
731.313	205.48
731.499	146.09
731.685	350.89
731.871	180.9
732.057	215.72
732.243	232.1
732.429	225.96
732.615	322.21
732.801	264.87
732.987	244.39
733.173	189.1
733.359	250.53
733.545	158.38
733.731	232.1
733.917	215.72
734.103	318.12
734.289	305.83
734.475	260.77
734.661	363.17
734.847	170.66
735.033	185
735.219	281.25
735.404	201.38
735.59	144.04
735.776	215.72
735.962	213.67
736.148	244.39
736.333	406.18
736.519	213.67
736.705	238.25
736.89	277.16
737.076	256.68
737.262	152.23
737.447	180.9
737.633	176.81
737.819	236.2
738.004	228.01
738.19	254.63
738.375	178.86
738.561	250.53
738.747	228.01
738.932	146.09
739.118	295.59
739.303	271.01
739.489	295.59
739.674	185
739.859	78.51
740.045	197.29
740.23	297.64
740.416	127.66
740.601	185
740.786	219.82
740.972	129.7
741.157	215.72
741.342	189.1
741.528	117.42
741.713	279.21
741.898	180.9
742.084	150.18
742.269	185
742.454	271.01
742.639	309.93
742.824	246.44
743.01	324.26
743.195	334.5
743.38	299.69
743.565	172.71
743.75	219.82
743.935	228.01
744.12	301.73
744.305	127.66
744.49	164.52
744.675	180.9
744.86	180.9
745.045	250.53
745.23	262.82
745.415	189.1
745.6	266.92
745.785	244.39
745.97	221.86
746.155	252.58
746.34	309.93
746.525	260.77
746.71	314.02
746.895	164.52
747.079	117.42
747.264	150.18
747.449	258.73
747.634	221.86
747.819	154.28
748.003	199.34
748.188	101.03
748.373	266.92
748.557	191.14
748.742	254.63
748.927	205.48
749.111	76.46
749.296	119.46
749.481	318.12
749.665	240.29
749.85	148.14
750.034	144.04
750.219	215.72
750.404	193.19
750.588	178.86
750.773	113.32
750.957	197.29
751.141	185
751.326	148.14
751.51	146.09
751.695	139.94
751.879	248.49
752.064	182.95
752.248	166.57
752.432	287.4
752.617	199.34
752.801	217.77
752.985	55.98
753.17	248.49
753.354	250.53
753.538	78.51
753.722	51.88
753.907	174.76
754.091	162.47
754.275	254.63
754.459	45.74
754.643	125.61
754.828	191.14
755.012	158.38
755.196	123.56
755.38	156.33
755.564	146.09
755.748	146.09
755.932	213.67
756.116	258.73
756.3	193.19
756.484	90.79
756.668	160.42
756.852	35.5
757.036	105.13
757.22	115.37
757.404	117.42
757.588	123.56
757.772	119.46
757.956	178.86
758.14	219.82
758.323	121.51
758.507	139.94
758.691	60.07
758.875	88.75
759.059	223.91
759.242	105.13
759.426	115.37
759.61	127.66
759.794	119.46
759.977	182.95
760.161	326.31
760.345	256.68
760.528	156.33
760.712	127.66
760.895	33.45
761.079	146.09
761.263	80.55
761.446	90.79
761.63	127.66
761.813	213.67
761.997	66.22
762.18	129.7
762.364	207.53
762.547	23.21
762.731	115.37
762.914	88.75
763.098	74.41
763.281	150.18
763.464	25.26
763.648	123.56
763.831	64.17
764.015	70.31
764.198	154.28
764.381	168.62
764.564	139.94
764.748	105.13
764.931	47.79
765.114	103.08
765.297	197.29
765.481	51.88
765.664	139.94
765.847	64.17
766.03	191.14
766.213	37.55
766.397	25.26
766.58	60.07
766.763	127.66
766.946	47.79
767.129	68.27
767.312	27.31
767.495	107.18
767.678	68.27
767.861	156.33
768.044	152.23
768.227	107.18
768.41	125.61
768.593	182.95
768.776	135.85
768.959	51.88
769.142	209.58
769.324	113.32
769.507	60.07
769.69	-7.51
769.873	25.26
770.056	189.1
770.239	43.69
770.421	139.94
770.604	98.99
770.787	127.66
770.97	131.75
771.152	31.4
771.335	86.7
771.518	12.97
771.7	154.28
771.883	234.15
772.066	25.26
772.248	76.46
772.431	62.12
772.613	96.94
772.796	29.35
772.978	156.33
773.161	119.46
773.343	172.71
773.526	6.83
773.708	-19.8
773.891	-5.46
774.073	88.75
774.256	2.73
774.438	156.33
774.621	29.35
774.803	137.9
774.985	62.12
775.168	141.99
775.35	-34.13
775.532	121.51
775.715	23.21
775.897	31.4
776.079	37.55
776.261	62.12
776.444	10.92
776.626	111.27
776.808	101.03
776.99	-71
777.173	98.99
777.355	96.94
777.537	17.07
777.719	80.55
777.901	35.5
778.083	103.08
778.265	-46.42
778.447	113.32
778.629	74.41
778.811	78.51
778.993	70.31
779.175	197.29
779.357	72.36
779.539	-1.37
779.721	47.79
779.903	164.52
780.085	74.41
780.267	205.48
780.449	103.08
780.631	117.42
780.812	240.29
780.994	4.78
781.176	31.4
781.358	25.26
781.54	58.03
781.721	144.04
781.903	88.75
782.085	33.45
782.267	74.41
782.448	-36.18
782.63	25.26
782.812	80.55
782.993	84.65
783.175	6.83
783.357	31.4
783.538	17.07
783.72	25.26
783.901	29.35
784.083	33.45
784.264	105.13
784.446	-36.18
784.627	2.73
784.809	78.51
784.99	55.98
785.172	55.98
785.353	92.84
785.535	133.8
785.716	-23.89
785.897	19.11
786.079	-25.94
786.26	49.83
786.441	23.21
786.623	-64.85
786.804	-21.85
786.985	-38.23
787.167	33.45
787.348	21.16
787.529	10.92
787.71	158.38
787.891	148.14
788.073	25.26
788.254	33.45
788.435	172.71
788.616	47.79
788.797	-36.18
788.978	17.07
789.159	-1.37
789.34	-42.32
789.522	60.07
789.703	29.35
789.884	4.78
790.065	37.55
790.246	49.83
790.427	37.55
790.607	115.37
790.788	88.75
790.969	-73.04
791.15	121.51
791.331	41.64
791.512	-13.65
791.693	47.79
791.874	62.12
792.054	182.95
792.235	170.66
792.416	-60.76
792.597	21.16
792.778	121.51
792.958	109.22
793.139	37.55
793.32	47.79
793.5	-1.37
793.681	70.31
793.862	45.74
794.042	-30.04
794.223	21.16
794.404	-9.56
794.584	-58.71
794.765	-42.32
794.945	70.31
795.126	47.79
795.306	111.27
795.487	98.99
795.667	-27.99
795.848	68.27
796.028	39.59
796.209	88.75
796.389	133.8
796.57	58.03
796.75	-1.37
796.93	-30.04
797.111	-11.61
797.291	25.26
797.471	74.41
797.652	15.02
797.832	-3.41
798.012	6.83
798.192	10.92
798.373	-56.66
798.553	-1.37
798.733	58.03
798.913	-105.81
799.093	17.07
799.274	-19.8
799.454	88.75
799.634	19.11
799.814	86.7
799.994	64.17
800.174	45.74
800.354	4.78
800.534	-64.85
800.714	66.22
800.894	-60.76
801.074	-36.18
801.254	35.5
801.434	58.03
801.614	-11.61
801.794	-23.89
801.974	1923.73
802.154	-9.56
802.334	60.07
802.514	-138.58
802.693	-36.18
802.873	-68.95
803.053	84.65
803.233	47.79
803.413	33.45
803.592	-48.47
803.772	-116.05
803.952	86.7
804.131	-97.62
804.311	-1.37
804.491	135.85
804.67	2.73
804.85	-17.75
805.03	51.88
805.209	123.56
805.389	60.07
805.568	-11.61
805.748	-19.8
805.928	27.31
806.107	12.97
806.287	78.51
806.466	-7.51
806.646	-21.85
806.825	82.6
807.004	-15.7
807.184	45.74
807.363	76.46
807.543	37.55
807.722	-62.8
807.901	123.56
808.081	-3.41
808.26	-165.2
808.439	31.4
808.619	43.69
808.798	-13.65
808.977	-9.56
809.156	-5.46
809.336	29.35
809.515	123.56
809.694	-23.89
809.873	55.98
810.052	66.22
810.231	37.55
810.411	74.41
810.59	35.5
810.769	60.07
810.948	82.6
811.127	-62.8
811.306	62.12
811.485	-1.37
811.664	113.32
811.843	-7.51
812.022	70.31
812.201	-19.8
812.38	51.88
812.559	-17.75
812.737	-27.99
812.916	-97.62
813.095	-30.04
813.274	86.7
813.453	-19.8
813.632	88.75
813.811	129.7
813.989	-34.13
814.168	27.31
814.347	21.16
814.526	55.98
814.704	10.92
814.883	105.13
815.062	-116.05
815.24	51.88
815.419	4.78
815.598	66.22
815.776	-62.8
815.955	-23.89
816.133	-85.33
816.312	68.27
816.49	-128.34
816.669	-7.51
816.847	-25.94
817.026	103.08
817.204	-9.56
817.383	-44.37
817.561	-17.75
817.74	41.64
817.918	0.68
818.097	-7.51
818.275	-42.32
818.453	45.74
818.632	21.16
818.81	23.21
818.988	-40.28
819.167	-27.99
819.345	19.11
819.523	-71
819.701	-23.89
819.879	-1.37
820.058	0.68
820.236	-3.41
820.414	-15.7
820.592	-1.37
820.77	12.97
820.948	72.36
821.127	-50.52
821.305	31.4
821.483	-13.65
821.661	53.93
821.839	125.61
822.017	-40.28
822.195	-27.99
822.373	84.65
822.551	-25.94
822.729	27.31
822.907	66.22
823.085	64.17
823.262	15.02
823.44	-11.61
823.618	-34.13
823.796	25.26
823.974	-75.09
824.152	-34.13
824.329	2.73
824.507	-11.61
824.685	27.31
824.863	-13.65
825.04	-27.99
825.218	158.38
825.396	41.64
825.574	12.97
825.751	25.26
825.929	-32.08
826.107	-1.37
826.284	25.26
826.462	64.17
826.639	-97.62
826.817	-60.76
826.994	-9.56
827.172	-52.56
827.349	94.89
827.527	-30.04
827.704	8.87
827.882	92.84
828.059	0.68
828.237	-64.85
828.414	121.51
828.591	-120.15
828.769	2.73
828.946	41.64
829.124	23.21
829.301	158.38
829.478	-25.94
829.655	96.94
829.833	37.55
830.01	-83.28
830.187	60.07
830.364	-17.75
830.542	66.22
830.719	105.13
830.896	117.42
831.073	6.83
831.25	-103.76
831.427	6.83
831.604	-17.75
831.782	-40.28
831.959	23.21
832.136	-5.46
832.313	60.07
832.49	-23.89
832.667	8.87
832.844	15.02
833.021	105.13
833.198	68.27
833.374	23.21
833.551	4.78
833.728	-36.18
833.905	53.93
834.082	-138.58
834.259	58.03
834.436	74.41
834.612	-27.99
834.789	55.98
834.966	51.88
835.143	4.78
835.319	-44.37
835.496	45.74
835.673	-19.8
835.85	66.22
836.026	105.13
836.203	19.11
836.38	-25.94
836.556	35.5
836.733	31.4
836.909	150.18
837.086	-52.56
837.262	-56.66
837.439	31.4
837.616	-87.38
837.792	15.02
837.968	6.83
838.145	-101.72
838.321	-3.41
838.498	-44.37
838.674	98.99
838.851	53.93
839.027	-68.95
839.203	4.78
839.38	10.92
839.556	-56.66
839.732	47.79
839.909	68.27
840.085	105.13
840.261	-11.61
840.437	-15.7
840.614	19.11
840.79	105.13
840.966	107.18
841.142	66.22
841.318	-13.65
841.494	51.88
841.671	101.03
841.847	-77.14
842.023	-95.57
842.199	51.88
842.375	72.36
842.551	-19.8
842.727	-77.14
842.903	185
843.079	-134.48
843.255	33.45
843.431	68.27
843.607	111.27
843.783	-159.06
843.959	-15.7
844.134	25.26
844.31	113.32
844.486	66.22
844.662	-122.2
844.838	4.78
845.013	146.09
845.189	98.99
845.365	15.02
845.541	8.87
845.716	12.97
845.892	90.79
846.068	-48.47
846.244	-40.28
846.419	17.07
846.595	33.45
846.77	-1.37
846.946	39.59
847.122	-11.61
847.297	-17.75
847.473	94.89
847.648	-64.85
847.824	-68.95
847.999	-118.1
848.175	-3.41
848.35	-3.41
848.526	117.42
848.701	84.65
848.876	101.03
849.052	17.07
849.227	-64.85
849.403	10.92
849.578	-13.65
849.753	119.46
849.929	84.65
850.104	-23.89
850.279	-42.32
850.454	43.69
850.63	0.68
850.805	8.87
850.98	51.88
851.155	80.55
851.33	33.45
851.505	-60.76
851.681	139.94
851.856	43.69
852.031	0.68
852.206	131.75
852.381	-56.66
852.556	-15.7
852.731	88.75
852.906	25.26
853.081	55.98
853.256	58.03
853.431	10.92
853.606	53.93
853.781	-44.37
853.956	-89.43
854.131	92.84
854.305	-79.19
854.48	-25.94
854.655	-48.47
854.83	-46.42
855.005	2.73
855.18	-21.85
855.354	35.5
855.529	19.11
855.704	2.73
855.879	41.64
856.053	-66.9
856.228	27.31
856.403	-48.47
856.577	12.97
856.752	-40.28
856.926	-17.75
857.101	37.55
857.276	-17.75
857.45	12.97
857.625	64.17
857.799	27.31
857.974	-15.7
858.148	-23.89
858.323	33.45
858.497	-38.23
858.672	-58.71
858.846	-15.7
859.02	49.83
859.195	37.55
859.369	0.68
859.543	60.07
859.718	41.64
859.892	49.83
860.066	4.78
860.241	-32.08
860.415	6.83
860.589	-34.13
860.763	6.83
860.938	19.11
861.112	-3.41
861.286	29.35
861.46	39.59
861.634	21.16
861.808	76.46
861.982	-68.95
862.157	-114
862.331	-46.42
862.505	-79.19
862.679	-132.44
862.853	-83.28
863.027	-46.42
863.201	174.76
863.375	-81.24
863.549	109.22
863.722	-5.46
863.896	76.46
864.07	-62.8
864.244	60.07
864.418	92.84
864.592	55.98
864.766	53.93
864.939	60.07
865.113	-36.18
865.287	154.28
865.461	-71
865.634	19.11
865.808	-25.94
865.982	-19.8
866.156	-68.95
866.329	-79.19
866.503	-3.41
866.676	-27.99
866.85	19.11
867.024	-66.9
867.197	49.83
867.371	45.74
867.544	39.59
867.718	-85.33
867.891	35.5
868.065	-152.92
868.238	-3.41
868.412	92.84
868.585	37.55
868.759	25.26
868.932	10.92
869.105	-116.05
869.279	62.12
869.452	-27.99
869.625	72.36
869.799	39.59
869.972	-124.24
870.145	62.12
870.319	72.36
870.492	-56.66
870.665	-13.65
870.838	-23.89
871.011	-171.35
871.185	-52.56
871.358	-30.04
871.531	21.16
871.704	-75.09
871.877	-15.7
872.05	10.92
872.223	-46.42
872.396	41.64
872.569	92.84
872.742	-62.8
872.915	101.03
873.088	15.02
873.261	-101.72
873.434	31.4
873.607	37.55
873.78	47.79
873.953	-81.24
874.126	-36.18
874.299	10.92
874.471	-40.28
874.644	0.68
874.817	76.46
874.99	141.99
875.163	-52.56
875.335	49.83
875.508	-79.19
875.681	51.88
875.853	-54.61
876.026	0.68
876.199	23.21
876.371	-9.56
876.544	45.74
876.717	-30.04
876.889	25.26
877.062	-21.85
877.234	-58.71
877.407	6.83
877.579	29.35
877.752	-25.94
877.924	74.41
878.097	45.74
878.269	29.35
878.442	39.59
878.614	-15.7
878.786	72.36
878.959	12.97
879.131	-1.37
879.303	-103.76
879.476	25.26
879.648	27.31
879.82	17.07
879.993	-36.18
880.165	0.68
880.337	-126.29
880.509	21.16
880.681	-48.47
880.854	-1.37
881.026	107.18
881.198	127.66
881.37	12.97
881.542	17.07
881.714	37.55
881.886	-42.32
882.058	-42.32
882.23	12.97
882.402	-64.85
882.574	78.51
882.746	90.79
882.918	98.99
883.09	-9.56
883.262	-9.56
883.434	-7.51
883.606	-75.09
883.778	-21.85
883.95	80.55
884.122	-21.85
884.293	53.93
884.465	-46.42
884.637	80.55
884.809	-3.41
884.98	19.11
885.152	-3.41
885.324	90.79
885.496	-30.04
885.667	29.35
885.839	-42.32
886.011	117.42
886.182	12.97
886.354	53.93
886.525	0.68
886.697	33.45
886.869	-19.8
887.04	23.21
887.212	109.22
887.383	129.7
887.555	43.69
887.726	17.07
887.897	25.26
888.069	33.45
888.24	39.59
888.412	-21.85
888.583	-5.46
888.754	64.17
888.926	-128.34
889.097	-46.42
889.268	-73.04
889.44	-25.94
889.611	-136.53
889.782	-15.7
889.953	-89.43
890.125	131.75
890.296	-13.65
890.467	58.03
890.638	21.16
890.809	8.87
890.98	-89.43
891.151	-34.13
891.323	-5.46
891.494	33.45
891.665	84.65
891.836	96.94
892.007	19.11
892.178	27.31
892.349	-46.42
892.52	-40.28
892.691	64.17
892.862	-64.85
893.032	-122.2
893.203	-5.46
893.374	-1.37
893.545	2.73
893.716	-85.33
893.887	58.03
894.057	-83.28
894.228	-34.13
894.399	15.02
894.57	55.98
894.74	62.12
894.911	74.41
895.082	43.69
895.253	-15.7
895.423	-1.37
895.594	25.26
895.764	96.94
895.935	-75.09
896.106	21.16
896.276	-111.96
896.447	-75.09
896.617	-73.04
896.788	-89.43
896.958	10.92
897.129	-42.32
897.299	-75.09
897.47	41.64
897.64	10.92
897.81	-13.65
897.981	6.83
898.151	-46.42
898.322	4.78
898.492	-3.41
898.662	-114
898.832	-19.8
899.003	-17.75
899.173	25.26
899.343	-73.04
899.513	-60.76
